
Integration time [ms]: 130,000
Averaging Nr. [scans]: 7
Smoothing Nr. [pixels]: 0
Data measured with spectrometer [name]: 2009305U1
Wave   ;Sample   ;Dark     ;Reference;Reflectance
[nm]   ;[counts] ;[counts] ;[counts] ;[%]

 175,72;  213,579;  192,986;  201,498;241,93639
 176,32;  230,553;  222,384;  221,717; 0,00000
 176,92;  271,657;  241,385;  235,854; 0,00000
 177,52;  258,301;  259,786;  258,523; 0,00000
 178,12;  236,613;  246,984;  204,441; 0,00000
 178,72;  262,018;  250,783;  241,274; 0,00000
 179,32;  250,678;  247,384;  249,069;195,47018
 179,92;  259,146;  231,385;  239,762;331,38874
 180,52;  260,496;  244,988;  241,098; 0,00000
 181,12;  257,228;  248,385;  229,716; 0,00000
 181,73;  283,830;  272,585;  262,308; 0,00000
 182,33;  359,397;  306,387;  321,281;355,91801
 182,93;  264,513;  256,186;  256,932; 0,00000
 183,53;  247,371;  246,183;  223,624; 0,00000
 184,13;  244,820;  236,383;  230,131; 0,00000
 184,73;  279,566;  249,982;  256,507;453,43001
 185,33;  292,371;  234,768;  346,100;51,73973
 185,93;  295,728;  232,166;  351,877;53,09630
 186,53;  305,749;  241,967;  348,122;60,08415
 187,13;  343,543;  257,569;  394,908;62,59998
 187,73;  302,404;  220,566;  335,660;71,10527
 188,33;  306,023;  254,365;  362,824;47,62925
 188,93;  335,975;  244,562;  398,475;59,39233
 189,53;  329,097;  258,559;  392,476;52,67251
 190,13;  351,556;  283,155;  430,284;46,49013
 190,73;  296,556;  220,558;  363,114;53,31130
 191,34;  329,455;  253,561;  378,621;60,68648
 191,94;  297,334;  240,364;  345,758;54,05429
 192,54;  333,414;  245,370;  399,729;57,03866
 193,14;  319,443;  248,969;  381,307;53,25329
 193,74;  331,155;  249,968;  364,047;71,16713
 194,34;  309,505;  227,969;  353,891;64,75092
 194,94;  285,941;  218,569;  355,716;49,12406
 195,54;  267,840;  215,168;  334,977;43,96364
 196,14;  297,958;  221,569;  355,380;57,08729
 196,74;  261,350;  216,167;  336,993;37,39501
 197,34;  257,315;  188,971;  344,465;43,95269
 197,94;  302,939;  220,769;  365,195;56,89466
 198,54;  299,083;  238,769;  365,333;47,65483
 199,14;  281,407;  213,971;  370,842;42,98833
 199,74;  269,624;  202,971;  374,033;38,96403
 200,34;  267,567;  199,372;  356,968;43,27213
 200,94;  303,119;  232,170;  410,644;39,75273
 201,54;  310,156;  216,571;  406,478;49,27950
 202,14;  332,937;  231,172;  444,781;47,64060
 202,74;  303,564;  223,371;  453,508;34,84587
 203,34;  286,789;  184,573;  446,416;39,03703
 203,94;  275,161;  173,772;  465,735;34,72676
 204,54;  345,823;  229,569;  530,605;38,61801
 205,14;  325,532;  190,571;  533,994;39,29864
 205,74;  385,785;  239,373;  624,034;38,06246
 206,34;  346,845;  210,772;  632,343;32,27758
 206,94;  381,828;  212,972;  703,417;34,42923
 207,54;  365,500;  188,772;  726,418;32,87067
 208,14;  384,568;  196,172;  794,506;31,48666
 208,74;  407,615;  217,771;  891,670;28,17104
 209,34;  427,665;  210,171;  960,509;28,98603
 209,94;  471,356;  204,571; 1037,280;32,03821
 210,54;  467,460;  213,973; 1112,879;28,19949
 211,14;  487,495;  204,571; 1236,499;27,41702
 211,73;  504,415;  197,971; 1326,867;27,14547
 212,33;  535,616;  206,770; 1438,453;26,69893
 212,93;  563,183;  203,171; 1522,488;27,28772
 213,53;  556,832;  174,371; 1562,260;27,55699
 214,13;  566,559;  205,174; 1652,697;24,96576
 214,73;  578,223;  195,372; 1657,381;26,18659
 215,33;  559,642;  168,771; 1707,080;25,40912
 215,93;  594,315;  206,573; 1816,158;24,08958
 216,53;  557,589;  162,571; 1892,659;22,83223
 217,13;  654,515;  227,173; 2126,822;22,49584
 217,73;  677,748;  196,373; 2281,539;23,08569
 218,33;  681,179;  148,574; 2495,337;22,69533
 218,93;  752,149;  192,576; 2756,037;21,82881
 219,53;  798,824;  185,774; 3043,728;21,45068
 220,13;  855,241;  168,574; 3315,721;21,81871
 220,73;  949,932;  196,771; 3663,262;21,72689
 221,32; 1057,901;  176,771; 4002,670;23,03067
 221,92; 1165,574;  167,774; 4489,701;23,08691
 222,52; 1239,378;  177,173; 4825,264;22,85251
 223,12; 1381,742;  176,973; 5207,436;23,94946
 223,72; 1485,530;  185,573; 5646,427;23,80501
 224,32; 1604,787;  194,973; 5979,694;24,37133
 224,92; 1708,179;  176,373; 6339,999;24,85235
 225,52; 1876,473;  191,372; 6688,408;25,93646
 226,12; 1966,280;  188,373; 6945,384;26,31204
 226,72; 2121,862;  156,572; 7238,269;27,75167
 227,31; 2258,110;  154,172; 7537,973;28,49397
 227,91; 2391,230;  179,172; 7960,806;28,42666
 228,51; 2610,486;  181,371; 8348,198;29,74369
 229,11; 2771,802;  177,972; 8762,344;30,21572
 229,71; 2958,072;  176,971; 9024,802;31,43258
 230,31; 3171,596;  169,774; 9523,192;32,09331
 230,91; 3370,863;  158,770; 9767,098;33,43030
 231,51; 3557,997;  158,573;10040,244;34,40131
 232,10; 3872,359;  173,574;10533,432;35,70305
 232,70; 4094,933;  168,769;10665,091;37,40514
 233,30; 4326,666;  186,173;11029,985;38,18300
 233,90; 4548,201;  172,773;11194,690;39,69752
 234,50; 4793,264;  170,773;11401,596;41,15897
 235,10; 5046,893;  166,173;11490,599;43,09905
 235,70; 5265,853;  186,972;11624,368;44,40592
 236,29; 5413,164;  179,571;11659,240;45,59010
 236,89; 5575,139;  160,370;11714,814;46,86308
 237,49; 5795,976;  180,372;11688,736;48,79585
 238,09; 5888,131;  182,372;11480,943;50,49983
 238,69; 6001,318;  195,970;11405,171;51,79092
 239,29; 6050,620;  172,372;11141,789;53,58761
 239,89; 6065,604;  182,770;10898,509;54,89900
 240,48; 6033,380;  159,372;10599,047;56,26619
 241,08; 6008,649;  180,972;10337,522;57,37851
 241,68; 5972,010;  189,772;10061,372;58,57448
 242,28; 5877,464;  164,373; 9819,061;59,17427
 242,88; 5795,489;  198,374; 9482,888;60,28442
 243,48; 5764,617;  203,372; 9250,746;61,46805
 244,07; 5637,765;  177,372; 9107,911;61,14293
 244,67; 5619,286;  195,772; 9009,487;61,53493
 245,27; 5534,558;  195,971; 8880,267;61,47403
 245,87; 5449,693;  209,373; 8777,534;61,16038
 246,47; 5362,737;  188,171; 8790,362;60,15405
 247,06; 5345,030;  173,372; 8816,141;59,83798
 247,66; 5290,102;  172,972; 8941,810;58,35585
 248,26; 5289,229;  208,171; 9026,468;57,61950
 248,86; 5251,170;  197,971; 9181,944;56,24682
 249,46; 5242,923;  165,373; 9444,253;54,72159
 250,05; 5307,661;  195,972; 9783,266;53,31733
 250,65; 5263,905;  149,571;10138,313;51,20098
 251,25; 5401,377;  171,372;10609,388;50,10536
 251,85; 5442,120;  159,770;11118,766;48,20104
 252,44; 5498,579;  132,971;11710,174;46,34632
 253,04; 5672,789;  197,371;12463,062;44,64011
 253,64; 5642,233;  163,171;13112,912;42,31021
 254,24; 5844,873;  193,572;13970,475;41,02011
 254,84; 5824,495;  183,973;14890,853;38,35295
 255,43; 5979,315;  191,571;15757,603;37,18189
 256,03; 6011,882;  183,971;16591,684;35,51934
 256,63; 6044,959;  198,570;17660,118;33,48150
 257,23; 6061,410;  169,170;18345,547;32,41702
 257,82; 6013,342;  190,769;19251,922;30,54680
 258,42; 5969,976;  152,769;19951,490;29,38173
 259,02; 5929,554;  194,171;20729,623;27,92918
 259,62; 5780,568;  163,369;21428,059;26,41562
 260,21; 5669,026;  194,771;21896,222;25,22529
 260,81; 5530,276;  172,972;22326,403;24,18273
 261,41; 5357,725;  167,369;22570,864;23,16762
 262,01; 5225,529;  206,768;23108,504;21,91432
 262,60; 4999,267;  168,170;23373,147;20,81923
 263,20; 4844,895;  156,371;23500,628;20,08427
 263,80; 4702,865;  205,368;23599,066;19,22525
 264,40; 4583,896;  160,968;23819,858;18,69457
 264,99; 4401,788;  182,368;23843,294;17,83286
 265,59; 4288,394;  167,567;24059,513;17,24777
 266,19; 4193,082;  146,568;24172,257;16,84244
 266,78; 4132,952;  210,768;24316,185;16,27097
 267,38; 4072,946;  183,967;24330,944;16,10545
 267,98; 3998,956;  157,568;24150,966;16,01019
 268,58; 4009,052;  184,567;24217,448;15,91355
 269,17; 3961,228;  164,966;24285,346;15,73882
 269,77; 3979,334;  198,370;24085,497;15,82846
 270,37; 3938,553;  147,368;23944,855;15,93103
 270,96; 3977,466;  207,769;23900,074;15,91106
 271,56; 3924,208;  182,770;23601,023;15,97659
 272,16; 3961,523;  177,569;23375,339;16,31172
 272,75; 4007,974;  187,969;23411,568;16,44881
 273,35; 4067,705;  190,969;23294,694;16,77970
 273,95; 4126,191;  185,769;23354,159;17,00775
 274,54; 4277,141;  158,572;23331,028;17,77355
 275,14; 4431,548;  192,569;23707,828;18,02650
 275,74; 4545,436;  153,369;23879,482;18,51153
 276,33; 4724,851;  203,970;24142,154;18,88565
 276,93; 4979,406;  188,772;24583,858;19,63770
 277,53; 5189,524;  192,571;25175,231;20,00168
 278,12; 5437,723;  166,570;25657,758;20,67833
 278,72; 5769,856;  205,171;26178,411;21,42469
 279,32; 6008,617;  164,571;26753,991;21,97884
 279,91; 6333,066;  171,371;27521,361;22,52906
 280,51; 6659,081;  184,971;28009,765;23,26741
 281,11; 7021,315;  196,371;28752,665;23,89996
 281,70; 7319,164;  168,771;29039,102;24,76727
 282,30; 7736,637;  164,370;29898,623;25,46648
 282,90; 8047,867;  162,570;30314,080;26,15225
 283,49; 8481,207;  190,569;30828,085;27,06041
 284,09; 8864,266;  203,370;31190,426;27,95004
 284,69; 9231,774;  185,371;31498,658;28,88998
 285,28; 9619,906;  210,370;31942,235;29,65327
 285,88;10039,897;  227,969;32156,996;30,73043
 286,47;10378,794;  177,970;32188,289;31,86730
 287,07;10738,544;  194,771;32347,001;32,79329
 287,67;11275,188;  195,172;32354,546;34,45346
 288,26;11650,862;  184,971;32405,315;35,58587
 288,86;12167,749;  186,570;32495,769;37,08287
 289,46;12727,499;  186,371;32680,542;38,59501
 290,05;13283,018;  179,172;32626,997;40,38436
 290,65;13988,500;  185,370;32941,526;42,13904
 291,24;14542,944;  194,771;32878,468;43,90009
 291,84;15210,673;  202,970;33219,118;45,45565
 292,44;15918,911;  169,373;33300,709;47,53668
 293,03;16573,497;  246,171;33547,421;49,02917
 293,63;17201,688;  186,770;33615,584;50,89896
 294,22;17968,905;  208,371;33698,513;53,03212
 294,82;18406,596;  182,368;33743,792;54,30112
 295,41;18780,449;  156,771;33498,702;55,85663
 296,01;19224,888;  227,569;33383,433;57,29701
 296,61;19553,709;  194,371;33207,630;58,64110
 297,20;19703,842;  196,769;32826,653;59,78284
 297,80;19988,408;  204,972;32694,780;60,89121
 298,39;20074,549;  175,570;32287,366;61,96782
 298,99;20439,646;  191,569;32103,970;63,44893
 299,58;20555,784;  202,372;31960,897;64,08803
 300,18;20742,040;  209,372;31811,026;64,97340
 300,78;20848,495;  171,771;31484,299;66,03339
 301,37;21037,222;  207,968;31547,997;66,46214
 301,97;21233,890;  187,571;31411,847;67,40371
 302,56;21455,020;  182,570;31378,165;68,19056
 303,16;21611,022;  154,770;31499,886;68,45166
 303,75;21807,881;  174,571;31460,900;69,14621
 304,35;22040,221;  188,573;31471,397;69,85190
 304,94;22317,162;  194,771;31687,381;70,24629
 305,54;22422,901;  187,371;31750,070;70,44876
 306,13;22477,530;  151,573;31621,627;70,94350
 306,73;22468,713;  159,173;31458,566;71,27787
 307,33;22572,290;  198,772;31266,869;72,01445
 307,92;22811,676;  181,971;31330,916;72,64999
 308,52;23126,142;  169,770;31983,457;72,15879
 309,11;23497,345;  176,969;32351,365;72,48116
 309,71;24040,404;  152,968;32616,552;73,58225
 310,30;24114,511;  174,971;32954,887;73,03112
 310,90;24553,940;  185,971;33262,687;73,67106
 311,49;24567,023;  183,771;33381,562;73,44842
 312,09;24824,220;  151,372;33501,122;73,98211
 312,68;25112,975;  211,971;33895,860;73,92556
 313,28;25205,248;  158,371;34163,316;73,65657
 313,87;25247,935;  155,571;34084,705;73,95522
 314,47;25511,860;  180,169;34410,101;74,00450
 315,06;25574,483;  167,171;34623,354;73,73803
 315,66;25663,649;  175,372;34781,722;73,65202
 316,25;25575,795;  155,370;34635,211;73,72547
 316,85;25491,598;  151,972;34745,960;73,24864
 317,44;25538,243;  158,569;34808,042;73,24693
 318,04;25513,761;  154,570;34964,575;72,85029
 318,63;25385,445;  152,173;34926,013;72,56395
 319,22;25488,122;  179,570;35223,088;72,22035
 319,82;25332,225;  169,770;35286,149;71,65447
 320,41;25223,002;  180,770;35143,517;71,62547
 321,01;25090,659;  184,572;35123,206;71,28523
 321,60;25022,496;  168,770;35341,283;70,66236
 322,20;24795,091;  157,971;35299,850;70,10758
 322,79;24818,215;  208,771;35313,402;70,10313
 323,39;24728,213;  169,373;35372,034;69,76416
 323,98;24490,187;  144,771;35282,670;69,28535
 324,58;24196,161;  178,970;35129,905;68,71688
 325,17;23956,085;  196,170;35027,392;68,21442
 325,76;23750,682;  188,171;34881,219;67,91710
 326,36;23274,032;  149,972;34539,463;67,24165
 326,95;22961,090;  188,371;34192,512;66,97043
 327,55;22556,400;  153,970;33899,863;66,38565
 328,14;21972,218;  170,972;33373,200;65,66200
 328,74;21688,661;  209,170;33084,174;65,33685
 329,33;21219,065;  182,972;32760,777;64,57185
 329,92;20749,617;  158,569;31966,499;64,73558
 330,52;20159,116;  188,172;31457,277;63,86798
 331,11;19673,800;  179,770;31131,730;62,98157
 331,71;19161,352;  183,571;30498,361;62,60238
 332,30;18692,590;  180,371;29967,981;62,14738
 332,89;18263,434;  211,371;29360,253;61,93055
 333,49;17789,251;  177,171;28810,559;61,50889
 334,08;17266,953;  185,570;28460,415;60,41194
 334,68;16797,865;  184,370;28111,558;59,48861
 335,27;16404,415;  194,572;27666,421;59,00528
 335,86;16183,229;  225,970;27437,330;58,64190
 336,46;15811,543;  194,772;27302,755;57,60949
 337,05;15518,478;  170,170;27101,835;56,98982
 337,65;15275,170;  161,970;26927,606;56,46494
 338,24;15155,560;  230,171;26958,727;55,84061
 338,83;14909,242;  214,371;26752,013;55,37369
 339,43;14747,638;  166,370;26752,745;54,84489
 340,02;14489,344;  181,970;26565,382;54,22867
 340,61;14377,036;  175,971;26737,307;53,46518
 341,21;14201,804;  207,170;26763,374;52,69817
 341,80;14011,916;  187,370;26798,720;51,94981
 342,40;13935,655;  194,772;26864,163;51,52305
 342,99;13791,434;  180,971;26944,253;50,85499
 343,58;13689,493;  176,772;27133,577;50,12731
 344,18;13602,018;  180,572;27216,597;49,64282
 344,77;13559,003;  173,570;27606,039;48,79413
 345,36;13531,233;  160,371;27912,912;48,17888
 345,96;13500,387;  210,972;28078,872;47,68718
 346,55;13378,627;  176,173;28447,768;46,69865
 347,14;13411,139;  160,972;28783,106;46,29343
 347,74;13338,712;  139,974;29189,920;45,43464
 348,33;13485,612;  191,974;29817,918;44,87161
 348,92;13550,303;  183,775;30549,105;44,01904
 349,52;13609,102;  156,174;30955,103;43,67986
 350,11;13535,336;  162,170;31210,819;43,07165
 350,70;13413,981;  172,171;31120,364;42,78702
 351,29;13096,773;  152,368;30924,689;42,06509
 351,89;12768,898;  179,969;30993,518;40,85518
 352,48;12660,783;  148,171;30885,421;40,70830
 353,07;12362,811;  183,172;30877,907;39,67989
 353,67;12313,560;  190,175;30820,573;39,57959
 354,26;11950,300;  178,172;30601,753;38,69409
 354,85;11724,796;  177,172;30468,703;38,12162
 355,45;11497,926;  147,370;30439,404;37,47043
 356,04;11248,621;  173,573;30375,327;36,67022
 356,63;11060,219;  206,771;30066,646;36,34794
 357,22;10769,783;  184,368;29905,512;35,61577
 357,82;10512,057;  187,968;29668,706;35,01978
 358,41;10393,250;  199,771;29572,438;34,70396
 359,00;10052,657;  163,770;29435,592;33,78296
 359,60; 9846,256;  185,571;29456,479;33,00439
 360,19; 9688,648;  182,373;29120,338;32,85053
 360,78; 9499,419;  182,770;29146,310;32,16681
 361,37; 9242,206;  189,170;28916,701;31,51345
 361,97; 9003,601;  182,971;28635,265;31,00147
 362,56; 8783,530;  167,969;28360,780;30,55942
 363,15; 8643,539;  215,170;28158,481;30,16238
 363,74; 8399,523;  172,569;27752,539;29,82945
 364,34; 8142,708;  182,370;27352,554;29,29806
 364,93; 7883,968;  175,169;26963,065;28,77717
 365,52; 7610,515;  145,370;26728,130;28,08265
 366,11; 7448,247;  181,770;26167,240;27,96361
 366,71; 7197,836;  159,970;26022,688;27,21240
 367,30; 7029,339;  174,170;25559,416;27,00454
 367,89; 6898,847;  206,172;25401,865;26,56277
 368,48; 6690,813;  166,169;25075,721;26,19334
 369,07; 6475,266;  183,571;24633,164;25,73333
 369,67; 6321,715;  191,769;24284,979;25,44263
 370,26; 6100,556;  168,771;24087,545;24,79970
 370,85; 6031,068;  186,170;23838,483;24,71174
 371,44; 5839,490;  177,571;23618,579;24,15391
 372,03; 5724,012;  168,370;23337,002;23,97915
 372,63; 5574,325;  147,771;23093,550;23,64947
 373,22; 5487,636;  167,171;22783,439;23,52494
 373,81; 5308,192;  147,170;22461,635;23,12859
 374,40; 5207,094;  169,372;22139,047;22,93034
 374,99; 5104,876;  165,970;21953,443;22,66856
 375,59; 4982,141;  156,172;21667,828;22,43420
 376,18; 4917,755;  191,770;21468,872;22,21160
 376,77; 4863,282;  203,371;21364,952;22,02062
 377,36; 4795,584;  199,370;21278,940;21,80412
 377,95; 4696,841;  176,570;20936,669;21,77384
 378,55; 4640,087;  175,772;20880,606;21,56171
 379,14; 4573,851;  198,770;20761,892;21,27635
 379,73; 4564,988;  184,170;20648,651;21,40693
 380,32; 4613,762;  202,171;20712,913;21,50869
 380,91; 4524,730;  151,769;20583,445;21,40285
 381,50; 4552,746;  179,570;20550,771;21,46745
 382,10; 4481,476;  162,771;20394,913;21,34576
 382,69; 4486,510;  160,970;20364,549;21,40977
 383,28; 4497,363;  192,770;20401,829;21,30031
 383,87; 4439,183;  157,570;20188,334;21,37519
 384,46; 4480,366;  162,369;20195,735;21,55403
 385,05; 4512,014;  202,570;20207,523;21,54188
 385,64; 4496,818;  171,770;20158,440;21,63966
 386,24; 4470,647;  156,168;20099,553;21,63363
 386,83; 4590,584;  192,168;20144,447;22,04468
 387,42; 4583,822;  200,570;20295,621;21,81260
 388,01; 4724,774;  177,767;20546,811;22,32312
 388,60; 4775,000;  179,569;20726,841;22,36517
 389,19; 4802,428;  159,766;21010,611;22,26606
 389,78; 4940,518;  180,366;21128,927;22,72305
 390,37; 5143,061;  208,568;21641,549;23,02290
 390,96; 5167,804;  186,168;21815,620;23,03173
 391,56; 5291,062;  182,966;21914,379;23,50559
 392,15; 5398,890;  157,167;22239,463;23,73722
 392,74; 5479,922;  149,764;22406,546;23,94847
 393,33; 5640,962;  154,165;22663,977;24,37513
 393,92; 5838,743;  188,363;23131,835;24,62740
 394,51; 5932,691;  163,965;23327,444;24,90440
 395,10; 6042,571;  194,760;23569,872;25,01725
 395,69; 6183,131;  182,161;23573,066;25,65514
 396,28; 6307,656;  182,959;23658,331;26,08988
 396,87; 6385,104;  201,757;23993,409;25,98957
 397,46; 6544,243;  181,955;24041,473;26,66562
 398,06; 6665,680;  204,753;24189,344;26,93782
 398,65; 6798,373;  197,949;24189,052;27,51197
 399,24; 6885,411;  180,348;24500,131;27,57041
 399,83; 6984,179;  163,741;24445,460;28,08878
 400,42; 7141,564;  206,135;24512,385;28,53352
 401,01; 7188,946;  170,928;24724,112;28,58293
 401,60; 7306,966;  181,918;24816,096;28,92343
 402,19; 7485,389;  194,110;24662,362;29,79893
 402,78; 7517,690;  219,099;24613,473;29,91916
 403,37; 7608,117;  196,288;24505,274;30,49008
 403,96; 7672,431;  187,674;24293,776;31,04922
 404,55; 7688,244;  192,660;24133,732;31,30847
 405,14; 7745,389;  184,247;24038,022;31,69789
 405,73; 7926,595;  197,631;23981,267;32,49698
 406,32; 7963,957;  191,621;24101,578;32,50669
 406,91; 7990,795;  187,609;23737,316;33,13496
 407,50; 8074,429;  185,002;23539,545;33,78112
 408,09; 8075,116;  152,198;23115,950;34,50185
 408,68; 8133,611;  182,995;23193,869;34,55156
 409,27; 8184,295;  154,999;22857,262;35,36782
 409,86; 8271,083;  157,808;22774,037;35,87368
 410,45; 8449,820;  211,416;22694,697;36,64235
 411,04; 8480,675;  212,624;22573,806;36,97502
 411,63; 8434,105;  196,235;22229,067;37,38907
 412,22; 8479,744;  191,644;22057,939;37,90354
 412,81; 8468,460;  201,048;21784,907;38,30368
 413,40; 8458,681;  210,252;21438,664;38,85561
 413,99; 8460,459;  258,651;21227,216;39,11478
 414,58; 8380,850;  187,452;20694,737;39,95360
 415,17; 8362,105;  175,248;20501,298;40,27766
 415,76; 8421,580;  180,244;20395,432;40,76804
 416,35; 8461,264;  174,846;20161,732;41,45928
 416,94; 8594,308;  222,045;20313,714;41,67032
 417,53; 8743,283;  177,648;20493,672;42,16196
 418,12; 8890,959;  174,049;20614,393;42,64561
 418,71; 9206,938;  197,252;20941,732;43,43173
 419,30; 9284,533;  181,049;21012,852;43,69993
 419,89; 9436,846;  185,050;21163,001;44,10248
 420,48; 9729,744;  199,052;21489,970;44,76412
 421,07; 9784,717;  204,653;21596,176;44,78439
 421,66; 9898,925;  164,255;21538,096;45,54479
 422,25; 9984,200;  185,259;21534,257;45,89883
 422,84;10092,569;  208,860;21487,749;46,44842
 423,43;10083,989;  195,258;21191,232;47,09823
 424,02;10048,247;  218,859;20971,837;47,36375
 424,60; 9953,052;  191,663;20564,538;47,91365
 425,19; 9982,717;  209,061;20305,406;48,63400
 425,78; 9997,374;  205,261;20207,342;48,95547
 426,37;10027,239;  206,063;20111,059;49,34026
 426,96;10066,027;  205,863;19945,049;49,95223
 427,55;10045,965;  188,865;19762,574;50,35887
 428,14;10056,192;  183,867;19519,125;51,05867
 428,73;10038,155;  208,464;19341,737;51,37485
 429,32;10141,421;  205,063;19425,276;51,69744
 429,91;10193,841;  228,464;19418,805;51,92913
 430,50;10190,473;  205,466;19183,005;52,61487
 431,08;10200,497;  226,467;18999,311;53,13010
 431,67;10234,356;  268,868;19016,987;53,15460
 432,26;10238,763;  281,070;18905,633;53,46538
 432,85;10135,134;  281,869;18476,831;54,15381
 433,44;10093,648;  293,471;18078,520;55,10346
 434,03; 9962,877;  304,473;17738,947;55,39831
 434,62; 9778,638;  268,471;17308,235;55,81161
 435,21; 9662,861;  309,069;17213,975;55,33182
 435,79; 9681,039;  281,872;16934,179;56,44363
 436,38; 9717,854;  278,275;16896,072;56,80403
 436,97; 9690,106;  274,475;16729,837;57,21923
 437,56; 9609,917;  266,478;16623,825;57,12075
 438,15; 9652,329;  255,878;16496,161;57,85891
 438,74; 9787,921;  252,078;16499,268;58,69226
 439,33; 9808,661;  229,677;16456,341;59,03237
 439,91; 9826,628;  196,479;16520,581;58,99344
 440,50; 9987,959;  232,479;16621,240;59,52543
 441,09;10067,467;  254,681;16749,826;59,48894
 441,68;10168,855;  232,283;16730,041;60,22983
 442,27;10157,073;  209,882;16687,816;60,36673
 442,86;10172,008;  206,287;16651,772;60,59852
 443,44;10274,456;  203,886;16753,004;60,85261
 444,03;10383,477;  273,887;16791,849;61,20362
 444,62;10397,602;  204,087;16619,601;62,09684
 445,21;10373,499;  219,286;16471,340;62,47957
 445,80;10338,051;  221,889;16363,863;62,66992
 446,39;10235,901;  255,888;16196,422;62,60777
 446,97;10099,810;  209,491;15841,813;63,26839
 447,56;10041,857;  201,493;15706,886;63,46414
 448,15; 9982,433;  204,091;15505,975;63,90286
 448,74; 9922,823;  230,291;15290,758;64,35745
 449,33; 9845,657;  211,892;15142,083;64,52540
 449,91; 9730,992;  223,095;14894,015;64,80778
 450,50; 9601,000;  196,694;14714,040;64,77979
 451,09; 9639,874;  211,295;14708,166;65,03872
 451,68; 9608,877;  235,696;14536,163;65,54458
 452,26; 9615,598;  227,697;14402,943;66,22743
 452,85; 9541,293;  211,896;14299,357;66,22483
 453,44; 9644,227;  219,299;14312,838;66,87411
 454,03; 9577,566;  191,497;14305,367;66,50245
 454,61; 9637,401;  207,099;14368,230;66,59286
 455,20; 9774,016;  220,300;14521,704;66,80265
 455,79; 9797,406;  222,498;14447,995;67,30807
 456,38; 9897,135;  223,302;14552,908;67,50941
 456,97; 9906,193;  213,701;14622,094;67,26976
 457,55;10009,825;  212,703;14558,695;68,29171
 458,14; 9967,472;  229,501;14553,453;67,98383
 458,73; 9995,570;  214,503;14483,287;68,54871
 459,31;10113,254;  232,705;14529,387;69,11079
 459,90;10176,371;  247,904;14600,360;69,17609
 460,49;10236,569;  283,703;14696,165;69,05736
 461,08;10286,363;  207,506;14867,089;68,75269
 461,66;10404,642;  224,505;14888,910;69,42073
 462,25;10485,432;  226,907;14940,115;69,72324
 462,84;10579,966;  251,506;15011,281;69,97708
 463,43;10477,681;  194,909;14974,511;69,57408
 464,01;10541,449;  218,710;14995,271;69,85888
 464,60;10578,888;  257,108;14803,201;70,95912
 465,19;10386,178;  185,910;14720,475;70,17938
 465,77;10466,471;  217,911;14554,854;71,48358
 466,36;10429,556;  245,309;14525,559;71,31701
 466,95;10248,928;  200,709;14226,494;71,64104
 467,53;10051,468;  204,512;13914,149;71,82507
 468,12; 9816,360;  249,513;13740,122;70,91487
 468,71; 9681,532;  230,310;13415,162;71,68242
 469,29; 9562,626;  191,513;13187,353;72,10856
 469,88; 9405,819;  227,514;12883,731;72,52013
 470,47; 9488,190;  255,916;12949,820;72,72998
 471,06; 9443,107;  220,316;13005,744;72,13517
 471,64; 9521,898;  220,515;13189,379;71,72088
 472,23; 9510,124;  196,519;13015,701;72,65366
 472,81; 9666,918;  188,917;13223,040;72,71683
 473,40; 9744,271;  191,319;13326,682;72,72697
 473,99; 9902,165;  285,319;13423,177;73,19950
 474,57;10009,069;  209,519;13701,757;72,63102
 475,16;10144,690;  222,117;13824,843;72,94547
 475,75;10334,130;  225,720;13942,558;73,69344
 476,33;10383,213;  231,721;14015,988;73,64550
 476,92;10427,933;  233,519;13987,799;74,11812
 477,51;10429,890;  229,721;14118,754;73,44045
 478,09;10490,392;  232,321;14143,545;73,73953
 478,68;10438,407;  216,521;14012,349;74,09403
 479,27;10553,170;  233,520;14178,435;74,00296
 479,85;10604,366;  218,121;14165,872;74,46537
 480,44;10621,656;  207,122;14306,392;73,86577
 481,02;11692,764;  229,523;16077,972;72,33036
 481,61;13146,643;  254,923;17850,264;73,26780
 482,20;14114,855;  254,723;19118,411;73,47520
 482,78;14773,676;  260,922;19733,161;74,53048
 483,37;15047,627;  262,525;19948,568;75,10449
 483,95;15307,256;  295,325;20382,571;74,73364
 484,54;15517,612;  297,122;20576,671;75,05339
 485,13;15506,490;  258,327;20626,963;74,86099
 485,71;15478,332;  265,126;20428,959;75,44799
 486,30;15344,263;  288,926;20149,750;75,80419
 486,88;15074,698;  315,727;19817,991;75,67825
 487,47;14624,133;  305,527;19173,432;75,88869
 488,05;13937,585;  304,528;18210,999;76,13481
 488,64;12934,991;  297,729;16839,124;76,39780
 489,23;11647,232;  293,128;14766,050;78,45067
 489,81; 9847,990;  292,329;12721,186;76,88286
 490,40; 9325,043;  236,929;12197,408;75,98454
 490,98; 9132,044;  233,530;11871,146;76,46338
 491,57; 9030,637;  277,529;11845,499;75,66676
 492,15; 8969,130;  261,530;11813,481;75,37775
 492,74; 8907,861;  257,928;11767,515;75,15416
 493,32; 8907,358;  259,930;11624,078;76,09394
 493,91; 8751,047;  231,331;11482,743;75,72130
 494,50; 8793,731;  245,333;11400,981;76,62843
 495,08; 8725,188;  225,733;11356,514;76,35992
 495,67; 8714,588;  241,930;11337,151;76,36312
 496,25; 8698,012;  210,132;11263,524;76,78982
 496,84; 8664,349;  202,730;11298,531;76,25965
 497,42; 8660,202;  197,532;11106,042;77,57861
 498,01; 8551,600;  219,131;11139,496;76,30212
 498,59; 8504,090;  203,133;11065,034;76,42269
 499,18; 8534,092;  202,331;11012,202;77,07549
 499,76; 8484,104;  205,132;10907,562;77,35600
 500,35; 8264,787;  203,734;10683,262;76,92191
 500,93; 8336,571;  187,332;10677,317;77,68590
 501,52; 8181,427;  200,133;10557,596;77,05839
 502,10; 8256,919;  208,535;10546,594;77,85198
 502,69; 8132,614;  196,336;10400,362;77,77594
 503,27; 8031,219;  190,133;10262,506;77,84746
 503,86; 7891,966;  209,735;10065,112;77,94965
 504,44; 7869,731;  182,936;10030,290;78,05949
 505,03; 7727,463;  162,736; 9694,137;79,36637
 505,61; 7580,138;  192,536; 9702,182;77,68535
 506,19; 7448,726;  204,136; 9472,108;78,16802
 506,78; 7275,659;  172,338; 9340,713;77,47634
 507,36; 7235,312;  183,936; 9137,175;78,75783
 507,95; 7107,244;  181,139; 9036,995;78,20932
 508,53; 6983,120;  187,138; 8897,027;78,02605
 509,12; 6852,209;  199,738; 8754,622;77,76226
 509,70; 6703,270;  204,739; 8637,406;77,06377
 510,29; 6653,896;  205,340; 8415,965;78,53916
 510,87; 6467,512;  174,738; 8270,731;77,72702
 511,46; 6357,482;  177,338; 8086,477;78,13927
 512,04; 6248,236;  186,939; 7957,770;78,00062
 512,62; 6101,270;  196,138; 7778,868;77,87606
 513,21; 5988,098;  171,140; 7678,090;77,48764
 513,79; 5897,356;  197,143; 7549,188;77,53235
 514,38; 5789,298;  181,142; 7320,047;78,55765
 514,96; 5690,645;  209,742; 7281,093;77,50856
 515,54; 5608,235;  181,542; 7104,679;78,38489
 516,13; 5499,229;  186,942; 7021,976;77,72145
 516,71; 5433,710;  192,944; 6926,813;77,82697
 517,30; 5313,164;  181,145; 6826,840;77,22322
 517,88; 5289,285;  188,345; 6746,811;77,77642
 518,46; 5152,530;  170,545; 6594,672;77,55116
 519,05; 5124,258;  179,746; 6495,754;78,28539
 519,63; 5065,786;  191,345; 6542,018;76,75471
 520,22; 4981,175;  217,947; 6442,155;76,52746
 520,80; 4972,239;  187,147; 6364,261;77,46484
 521,38; 4993,874;  210,146; 6401,013;77,27073
 521,97; 4885,966;  200,348; 6282,943;77,03320
 522,55; 4835,340;  199,748; 6282,800;76,20503
 523,13; 4848,271;  179,949; 6301,529;76,26008
 523,72; 4838,365;  168,345; 6249,243;76,79819
 524,30; 4957,013;  211,950; 6385,078;76,86643
 524,89; 4922,458;  176,548; 6358,449;76,77104
 525,47; 5004,195;  200,750; 6540,633;75,76551
 526,05; 5047,207;  161,550; 6521,777;76,81576
 526,64; 5169,701;  201,551; 6660,943;76,91360
 527,22; 5267,388;  202,350; 6749,594;77,36138
 527,80; 5335,052;  216,751; 6871,971;76,90657
 528,39; 5359,449;  197,351; 6962,595;76,30321
 528,97; 5489,553;  197,551; 7113,440;76,51948
 529,55; 5673,879;  203,749; 7325,624;76,80744
 530,14; 5788,852;  207,752; 7528,922;76,23234
 530,72; 5831,198;  185,551; 7652,030;75,61324
 531,30; 5924,772;  177,752; 7705,828;76,34115
 531,89; 6019,450;  197,552; 7831,933;76,25894
 532,47; 6080,797;  228,752; 7901,317;76,27234
 533,05; 6112,122;  233,151; 8000,980;75,68358
 533,63; 6174,722;  227,153; 8024,404;76,27776
 534,22; 6152,205;  184,953; 8097,148;75,41843
 534,80; 6274,635;  208,154; 8130,623;76,57311
 535,38; 6308,605;  261,952; 8300,477;75,22092
 535,97; 6268,907;  217,952; 8189,603;75,90592
 536,55; 6325,431;  239,754; 8349,577;75,04082
 537,13; 6260,980;  259,552; 8289,256;74,74034
 537,71; 6303,060;  298,752; 8354,350;74,53584
 538,30; 6377,714;  324,553; 8330,979;75,60378
 538,88; 6398,379;  370,155; 8471,232;74,41263
 539,46; 6548,009;  409,954; 8696,680;74,07092
 540,05; 6585,497;  418,554; 8885,743;72,83342
 540,63; 6697,340;  489,755; 8987,277;73,05172
 541,21; 6786,778;  514,355; 9101,578;73,04367
 541,79; 6844,313;  550,155; 9207,482;72,70324
 542,38; 6994,005;  583,154; 9437,837;72,40069
 542,96; 7111,283;  595,756; 9546,966;72,78934
 543,54; 7198,018;  618,955; 9809,719;71,58342
 544,12; 7332,647;  575,756; 9945,922;72,11069
 544,70; 7339,646;  567,556; 9959,138;72,10809
 545,29; 7481,526;  575,354;10202,475;71,73662
 545,87; 7492,598;  539,155;10182,482;72,10627
 546,45; 7458,411;  494,954;10226,408;71,55619
 547,03; 7493,610;  481,555;10286,689;71,51412
 547,62; 7630,464;  445,155;10398,845;72,18738
 548,20; 7721,666;  442,556;10554,508;71,98522
 548,78; 7791,761;  423,559;10673,898;71,88252
 549,36; 7891,961;  378,158;10871,763;71,60364
 549,94; 8030,733;  338,556;10875,057;73,00504
 550,53; 8072,097;  337,358;11173,922;71,37631
 551,11; 8233,057;  320,159;11369,121;71,61667
 551,69; 8418,528;  321,158;11645,981;71,50107
 552,27; 8563,654;  263,357;11964,718;70,93446
 552,85; 8806,270;  262,159;12227,130;71,40937
 553,44; 9000,436;  260,958;12593,143;70,86723
 554,02; 9188,014;  280,559;12963,584;70,23131
 554,60; 9407,388;  217,759;13196,779;70,80372
 555,18; 9663,210;  271,558;13667,468;70,10835
 555,76; 9869,461;  251,559;13974,632;70,08563
 556,34;10173,640;  240,560;14358,681;70,35695
 556,93;10340,679;  228,358;14680,944;69,96894
 557,51;10566,465;  209,960;14982,768;70,10519
 558,09;10832,481;  232,158;15343,801;70,14673
 558,67;11066,368;  236,761;15780,364;69,67244
 559,25;11206,841;  255,961;15964,284;69,71387
 559,83;11409,101;  221,562;16289,350;69,62713
 560,41;11546,836;  221,760;16657,165;68,90658
 561,00;11873,262;  218,961;17034,859;69,30525
 561,58;11929,366;  214,160;17279,088;68,65078
 562,16;12129,541;  211,959;17477,464;69,02539
 562,74;12369,498;  185,759;17965,327;68,52663
 563,32;12620,885;  200,362;18437,359;68,10618
 563,90;12759,529;  224,961;18787,212;67,52720
 564,48;13051,889;  225,160;19233,648;67,47895
 565,06;13375,198;  212,161;19645,953;67,73273
 565,65;13693,868;  215,363;20566,587;66,22945
 566,23;14240,602;  265,961;21284,202;66,48816
 566,81;14546,053;  220,561;21811,894;66,34835
 567,39;15167,422;  241,762;22814,523;66,12244
 567,97;15492,227;  243,961;23468,486;65,65588
 568,55;16100,738;  233,162;24299,977;65,93135
 569,13;16381,284;  208,961;24989,088;65,26328
 569,71;16934,325;  226,159;25929,073;65,00495
 570,29;17663,873;  262,958;26884,706;65,36353
 570,87;18059,971;  260,159;27621,986;65,05345
 571,45;18412,649;  260,561;28308,382;64,71835
 572,03;18620,687;  207,762;28687,954;64,65169
 572,61;19101,074;  205,562;29493,539;64,51628
 573,20;19334,469;  253,960;30196,149;63,72450
 573,78;19794,617;  237,562;30789,806;64,01185
 574,36;19975,509;  247,561;31220,242;63,69467
 574,94;20234,096;  271,162;31592,384;63,73613
 575,52;20234,279;  227,364;31876,615;63,21450
 576,10;20556,956;  291,163;32314,782;63,28389
 576,68;20832,346;  281,962;32978,611;62,85165
 577,26;21299,961;  282,765;33716,239;62,86274
 577,84;21386,033;  314,361;34175,662;62,22936
 578,42;21538,996;  332,563;34450,721;62,15586
 579,00;21447,921;  282,962;34449,854;61,94581
 579,58;21541,188;  314,963;34647,623;61,82517
 580,16;21438,064;  304,563;34683,208;61,47276
 580,74;21648,607;  320,163;35084,276;61,35190
 581,32;21576,878;  300,363;35042,672;61,24094
 581,90;21474,115;  308,963;35056,770;60,91076
 582,48;21301,082;  323,563;35155,656;60,22469
 583,06;21435,459;  327,563;35249,557;60,44299
 583,64;21456,345;  322,562;35423,889;60,20793
 584,22;21220,494;  320,164;35040,284;60,19659
 584,80;20983,106;  344,963;34743,607;59,99697
 585,38;20635,618;  333,160;34402,452;59,59166
 585,96;20499,132;  315,962;34409,142;59,20002
 586,54;20463,191;  351,964;34509,758;58,87742
 587,12;20312,854;  306,564;34596,659;58,34423
 587,70;20362,246;  333,362;34763,209;58,17303
 588,28;20187,066;  320,363;34823,468;57,57946
 588,86;20196,746;  312,964;35000,232;57,32300
 589,44;20100,934;  299,765;35002,445;57,05948
 590,02;20098,605;  311,965;35292,308;56,56502
 590,59;20044,671;  283,364;35307,920;56,42129
 591,17;20022,121;  275,567;35479,458;56,09197
 591,75;20026,132;  279,566;35627,726;55,86307
 592,33;19978,730;  292,366;35740,399;55,53584
 592,91;20059,543;  243,367;36020,216;55,38827
 593,49;20119,911;  253,767;36438,908;54,90139
 594,07;20284,677;  263,167;36604,270;55,09329
 594,65;20071,075;  294,964;36588,969;54,48864
 595,23;20224,905;  266,765;37001,975;54,32973
 595,81;20171,036;  254,965;37266,968;53,80976
 596,39;20196,828;  252,565;37293,740;53,84349
 596,97;20201,221;  251,967;37509,721;53,54390
 597,55;20081,492;  256,365;37318,563;53,49150
 598,12;19971,328;  237,968;37345,902;53,17828
 598,70;19846,292;  234,367;37422,990;52,73636
 599,28;19895,633;  257,567;37742,333;52,38946
 599,86;19851,823;  238,367;37792,313;52,22742
 600,44;19753,170;  205,967;37837,897;51,94313
 601,02;19688,660;  252,969;37871,236;51,66557
 601,60;19520,796;  247,766;38017,964;51,02708
 602,18;19456,679;  211,768;37952,129;50,99292
 602,75;19405,921;  231,365;37897,901;50,90608
 603,33;19394,527;  238,167;37944,028;50,80473
 603,91;19141,725;  235,169;37847,926;50,26634
 604,49;19084,550;  240,167;37988,858;49,92063
 605,07;19019,773;  267,166;37989,735;49,71190
 605,65;18822,413;  275,568;38103,299;49,02976
 606,23;18963,552;  313,964;38417,871;48,94403
 606,80;18773,742;  387,765;38345,005;48,43865
 607,38;18614,192;  416,568;38379,543;47,93519
 607,96;18581,221;  473,965;38471,967;47,65318
 608,54;18485,948;  556,368;38527,803;47,21860
 609,12;18469,654;  539,765;38612,748;47,09347
 609,70;18285,390;  566,567;38558,532;46,63834
 610,27;18231,176;  583,965;38723,908;46,26963
 610,85;18156,206;  613,567;38653,055;46,11692
 611,43;17983,703;  590,967;38701,742;45,63732
 612,01;17686,977;  553,366;38429,382;45,23604
 612,59;17686,943;  558,967;38572,284;45,05783
 613,16;17582,816;  545,364;38430,980;44,97077
 613,74;17480,582;  498,767;38313,171;44,90832
 614,32;17323,667;  441,568;38356,385;44,52639
 614,90;17181,380;  421,966;37970,909;44,63352
 615,48;16894,367;  377,365;37840,010;44,08926
 616,05;16844,698;  335,764;37790,131;44,07746
 616,63;16559,599;  347,564;37695,651;43,40794
 617,21;16433,301;  318,965;37566,661;43,26264
 617,79;16288,330;  321,566;37422,331;43,03621
 618,36;16121,022;  317,366;37454,440;42,55493
 618,94;15931,108;  270,365;37060,621;42,56764
 619,52;15620,271;  298,764;36965,252;41,78613
 620,10;15513,317;  269,565;36874,987;41,64343
 620,67;15440,511;  287,364;36807,394;41,49270
 621,25;15235,777;  299,566;36373,517;41,40442
 621,83;15179,698;  292,565;36417,269;41,21040
 622,41;15046,657;  318,765;36510,592;40,69397
 622,98;14757,079;  307,364;36334,213;40,10818
 623,56;14670,513;  305,963;36379,316;39,82039
 624,14;14541,572;  258,167;36056,749;39,89936
 624,72;14346,339;  273,565;36110,078;39,26937
 625,29;14245,425;  252,364;35955,259;39,19307
 625,87;14210,509;  300,966;36094,026;38,86101
 626,45;14036,248;  257,563;35941,085;38,61358
 627,02;13963,034;  266,766;35895,646;38,44148
 627,60;13845,221;  251,167;35822,259;38,21658
 628,18;13770,797;  244,365;35763,548;38,08205
 628,76;13704,193;  246,764;35870,280;37,77681
 629,33;13653,014;  269,364;35839,123;37,62648
 629,91;13505,603;  268,565;35889,587;37,16075
 630,49;13514,749;  276,764;35956,892;37,10184
 631,06;13428,326;  277,964;36097,795;36,71252
 631,64;13311,362;  279,563;36138,753;36,34159
 632,22;13226,467;  229,363;35886,519;36,45020
 632,79;13261,380;  236,363;36219,263;36,19780
 633,37;13160,373;  241,966;36164,868;35,96148
 633,95;13058,976;  254,963;36379,551;35,44404
 634,52;13066,533;  225,965;36519,239;35,38002
 635,10;12974,415;  237,565;36531,728;35,09338
 635,68;12956,200;  223,963;36626,567;34,97617
 636,25;12914,805;  227,562;36805,065;34,68592
 636,83;12826,479;  202,364;36852,080;34,44533
 637,41;12735,363;  232,762;36929,937;34,06966
 637,98;12669,285;  240,162;37154,764;33,66994
 638,56;12758,287;  226,961;37210,748;33,88329
 639,13;12600,770;  212,564;37252,383;33,44565
 639,71;12547,561;  266,964;37549,434;32,93933
 640,29;12419,145;  211,964;37153,267;33,04480
 640,86;12320,538;  230,164;37489,945;32,44886
 641,44;12296,502;  211,764;37365,822;32,52602
 642,02;12143,751;  241,964;37456,499;31,98156
 642,59;12095,858;  209,564;37651,177;31,74621
 643,17;11994,251;  215,764;37740,454;31,38863
 643,74;11933,644;  227,564;37589,132;31,33187
 644,32;11766,751;  243,964;37598,009;30,84749
 644,89;11696,857;  239,564;37716,287;30,57176
 645,47;11610,964;  269,364;37663,564;30,32984
 646,05;11544,214;  235,364;37667,042;30,21198
 646,62;11410,607;  229,765;37442,319;30,04589
 647,20;11314,999;  230,965;37713,197;29,57144
 647,77;11218,678;  203,765;37561,474;29,48498
 648,35;11102,928;  205,965;37397,551;29,29954
 648,92;11057,892;  236,965;37432,229;29,09222
 649,50;10910,427;  176,965;37285,506;28,92451
 650,08;10832,248;  196,965;37310,984;28,65570
 650,65;10729,927;  230,365;37572,261;28,11738
 651,23;10940,891;  196,765;38502,139;28,04861
 651,80;11054,712;  199,965;39424,016;27,67370
 652,38;11170,390;  218,965;39698,694;27,73936
 652,95;11145,783;  196,765;40069,171;27,46014
 653,53;11076,033;  228,165;40138,648;27,18050
 654,10;11127,997;  242,565;40354,726;27,13748
 654,68;10936,818;  202,165;40204,403;26,83513
 655,25;10863,068;  199,965;40496,681;26,46147
 655,83;10792,460;  194,965;40659,958;26,18929
 656,40;10796,139;  233,765;40666,636;26,12323
 656,98;10658,960;  210,165;40604,713;25,86684
 657,55;10577,067;  205,566;40348,391;25,83650
 658,13;10422,174;  202,366;39910,468;25,73734
 658,70;10254,709;  218,366;39739,745;25,39472
 659,28; 9972,245;  193,166;38768,623;25,35052
 659,85; 9634,637;  213,366;37923,300;24,98353
 660,43; 9596,316;  231,366;38173,578;24,68214
 661,00; 9517,708;  213,166;38140,655;24,53245
 661,58; 9586,672;  198,966;38531,533;24,49016
 662,15; 9561,636;  183,366;38548,410;24,44483
 662,73; 9543,029;  245,966;39044,488;23,96242
 663,30; 9518,993;  215,566;39303,365;23,80136
 663,88; 9525,529;  199,966;39299,442;23,85086
 664,45; 9464,778;  196,766;39619,720;23,50918
 665,03; 9441,743;  215,166;40113,397;23,12528
 665,60; 9654,849;  260,566;40505,075;23,34302
 666,17; 9501,099;  214,766;40460,152;23,07428
 666,75; 9531,778;  216,166;40839,830;22,93149
 667,32; 9526,742;  225,566;41222,107;22,68771
 667,90; 9493,991;  198,766;41635,185;22,43250
 668,47; 9571,527;  224,966;41620,662;22,57858
 669,05; 9550,491;  212,167;42125,139;22,28027
 669,62; 9402,026;  187,567;42222,417;21,92100
 670,19; 9441,991;  195,967;42072,294;22,07936
 670,77; 9424,097;  204,767;42438,372;21,82937
 671,34; 9346,204;  229,567;42484,249;21,57545
 671,92; 9377,168;  188,167;42555,727;21,68877
 672,49; 9318,275;  215,167;42680,604;21,43651
 673,06; 9280,954;  169,967;42731,482;21,40663
 673,64; 9206,918;  192,567;42741,559;21,18582
 674,21; 9118,453;  189,767;42651,636;21,02754
 674,79; 9146,417;  192,567;42965,714;20,93334
 675,36; 9102,524;  223,767;42944,591;20,78321
 675,93; 9031,631;  207,967;42904,469;20,66601
 676,51; 9039,024;  215,567;43098,746;20,57557
 677,08; 8977,274;  210,967;43232,024;20,37678
 677,65; 9005,809;  210,167;43365,901;20,38117
 678,23; 8898,487;  209,567;43610,179;20,02027
 678,80; 8844,451;  194,967;43687,256;19,88740
 679,38; 8875,416;  185,567;43810,733;19,91935
 679,95; 8851,094;  198,368;44029,211;19,74118
 680,52; 8780,772;  200,968;44211,488;19,49489
 681,10; 8867,165;  216,968;44679,566;19,45500
 681,67; 8867,843;  212,368;45044,843;19,30626
 682,24; 8829,093;  185,368;45052,921;19,26498
 682,82; 8894,200;  196,768;45621,998;19,14670
 683,39; 8911,450;  218,368;46011,476;18,98338
 683,96; 8862,414;  206,168;46193,953;18,82292
 684,54; 8896,092;  177,968;46633,031;18,76679
 685,11; 8941,485;  224,968;46853,308;18,69360
 685,68; 8952,735;  212,968;47257,785;18,57753
 686,25; 8957,270;  195,768;47467,063;18,53451
 686,83; 8936,377;  179,168;47447,340;18,52665
 687,40; 8948,341;  184,368;47926,018;18,35708
 687,97; 8986,019;  218,968;48281,895;18,24078
 688,55; 8951,412;  181,568;48410,373;18,18383
 689,12; 8902,376;  182,368;48523,650;18,03843
 689,69; 8884,626;  186,168;48757,928;17,90847
 690,26; 8905,876;  185,168;48923,805;17,89280
 690,84; 8872,125;  188,968;49088,882;17,75700
 691,41; 8834,232;  214,969;49135,360;17,61896
 691,98; 8919,625;  204,769;49439,637;17,70058
 692,56; 8836,446;  184,969;49458,515;17,55806
 693,13; 8826,553;  246,969;49461,192;17,43314
 693,70; 8858,946;  210,369;49672,870;17,48512
 694,27; 8792,338;  192,969;49684,347;17,37549
 694,84; 8794,874;  193,369;49844,425;17,32391
 695,42; 8777,124;  228,769;49975,702;17,18368
 695,99; 8756,373;  186,569;50355,379;17,08194
 696,56; 8723,052;  186,569;50230,457;17,05799
 697,13; 8764,873;  202,169;50660,334;16,96991
 697,71; 8645,980;  171,569;50584,612;16,80996
 698,28; 8717,801;  200,969;50862,089;16,81138
 698,85; 8639,908;  175,969;51010,167;16,65009
 699,42; 8678,301;  166,369;51064,844;16,72335
 699,99; 8690,265;  192,769;51126,522;16,68343
 700,57; 8662,943;  195,769;51344,599;16,55399
 701,14; 8697,336;  183,769;51441,476;16,60934
 701,71; 8685,585;  224,169;51729,554;16,42822
 702,28; 8724,550;  189,369;51685,431;16,57443
 702,85; 8678,514;  216,570;51676,309;16,44381
 703,43; 8653,049;  194,770;51904,386;16,35727
 704,00; 8750,727;  223,770;52188,864;16,40901
 704,57; 8664,120;  222,170;51968,341;16,31415
 705,14; 8686,513;  238,970;52528,019;16,15547
 705,71; 8736,048;  238,970;52596,096;16,22908
 706,28; 8622,869;  219,770;52301,373;16,13449
 706,86; 8658,119;  235,370;52719,051;16,04832
 707,43; 8704,655;  258,170;52483,928;16,17302
 708,00; 8649,762;  238,970;52641,806;16,05026
 708,57; 8603,154;  204,170;52481,083;16,06634
 709,14; 8667,975;  241,770;52773,961;16,04008
 709,71; 8613,940;  210,770;52768,438;15,98847
 710,28; 8669,618;  213,970;53039,716;16,00668
 710,86; 8630,582;  222,570;53179,193;15,87717
 711,43; 8640,403;  231,170;53178,870;15,88215
 712,00; 8624,367;  219,770;53330,348;15,82471
 712,57; 8708,046;  233,170;53295,225;15,97163
 713,14; 8699,867;  208,370;53449,903;15,94901
 713,71; 8668,545;  228,371;53334,380;15,89307
 714,28; 8676,081;  208,371;53302,258;15,94856
 714,85; 8637,045;  200,171;53229,935;15,90970
 715,42; 8697,866;  204,171;53233,813;16,01688
 716,00; 8752,830;  274,371;53582,890;15,90451
 716,57; 8789,080;  210,171;53702,167;16,03774
 717,14; 8769,187;  188,971;53671,045;16,04316
 717,71; 8782,008;  183,971;53611,322;16,09295
 718,28; 8827,972;  216,971;53832,000;16,06080
 718,85; 8789,507;  186,571;53962,077;15,99787
 719,42; 8833,900;  223,771;53933,555;16,03084
 719,99; 8769,007;  191,771;53690,232;16,03268
 720,56; 8897,971;  211,371;54167,910;16,09925
 721,13; 8855,935;  210,571;54121,387;16,03642
 721,70; 8817,185;  202,171;54006,865;16,01164
 722,27; 8851,577;  217,171;54134,942;16,01403
 722,84; 8914,827;  252,771;54232,419;16,04689
 723,41; 8801,363;  188,571;54242,497;15,93370
 723,98; 8909,327;  198,571;54586,774;16,01589
 724,55; 8970,291;  230,371;54513,652;16,10057
 725,12; 8900,826;  168,372;54409,729;16,09926
 725,69; 8905,219;  190,572;54631,407;16,00756
 726,27; 8977,755;  208,772;54839,084;16,05150
 726,84; 9029,147;  204,172;55140,362;16,06405
 727,41; 9092,683;  217,172;54813,639;16,25657
 727,98; 9090,647;  222,372;55353,716;16,08572
 728,55; 9158,754;  250,572;55086,394;16,24519
 729,12; 9089,575;  200,972;55243,871;16,14850
 729,69; 9180,967;  219,772;55415,549;16,23529
 730,26; 9187,217;  217,372;55694,226;16,16863
 730,82; 9242,753;  209,772;55473,904;16,34511
 731,39; 9253,145;  220,972;55566,181;16,31970
 731,96; 9346,824;  181,972;55957,259;16,43174
 732,53; 9365,216;  212,972;56028,336;16,39736
 733,10; 9392,180;  208,972;56151,813;16,41534
 733,67; 9550,144;  200,972;56541,291;16,59411
 734,24; 9450,109;  206,972;55959,168;16,57896
 734,81; 9489,073;  234,372;56280,646;16,51261
 735,38; 9543,894;  216,372;56038,923;16,70924
 735,95; 9540,144;  206,573;55793,401;16,79098
 736,52; 9594,108;  239,973;56073,078;16,75374
 737,09; 9608,215;  218,973;55695,556;16,92469
 737,66; 9657,179;  269,173;55913,033;16,87159
 738,23; 9714,286;  195,373;56021,110;17,05112
 738,80; 9821,392;  237,773;56286,188;17,09882
 739,37; 9810,071;  237,573;56592,065;16,98622
 739,94; 9853,892;  213,573;56504,343;17,12593
 740,51;10067,999;  286,973;56571,020;17,37797
 741,07; 9915,963;  199,373;56462,298;17,26997
 741,64;10051,641;  251,573;56792,775;17,33261
 742,21;10065,463;  215,973;56653,853;17,45191
 742,78;10097,712;  194,973;56474,130;17,59575
 743,35;10141,105;  214,173;56710,607;17,57090
 743,92;10252,498;  247,373;56925,485;17,65254
 744,49;10255,176;  237,973;56769,762;17,71959
 745,06;10216,997;  200,573;56655,440;17,74236
 745,63;10241,676;  189,373;56752,117;17,77195
 746,19;10356,640;  204,773;56975,195;17,88232
 746,76;10312,032;  210,973;56909,872;17,81526
 747,33;10455,568;  217,174;56688,150;18,13037
 747,90;10500,246;  227,974;57094,427;18,06385
 748,47;10578,924;  228,174;56888,104;18,26820
 749,04;10636,031;  228,574;56982,582;18,33784
 749,61;10603,424;  209,974;56797,859;18,36692
 750,17;10613,388;  212,374;56931,137;18,33787
 750,74;10683,781;  228,374;56910,214;18,44578
 751,31;10608,316;  194,174;56734,292;18,41903
 751,88;10668,709;  193,774;56596,569;18,57166
 752,45;10750,959;  213,974;56822,247;18,61386
 753,02;10805,494;  209,374;56688,524;18,76112
 753,58;10794,030;  193,974;56519,402;18,81931
 754,15;10856,851;  223,774;56777,479;18,80173
 754,72;10837,815;  193,574;56506,156;18,90206
 755,29;10860,207;  183,774;56333,834;19,01411
 755,86;10977,457;  222,374;56512,111;19,10665
 756,42;11015,707;  221,574;56376,989;19,22189
 756,99;11057,385;  191,974;56591,266;19,26516
 757,56;11071,921;  209,774;56331,544;19,35460
 758,13;11101,885;  176,174;56219,621;19,49507
 758,70;11226,278;  204,975;56289,899;19,65110
 759,26;11255,385;  198,175;56434,776;19,66195
 759,83;11378,634;  207,175;56603,453;19,80886
 760,40;11392,456;  204,575;56281,331;19,95101
 760,97;11415,562;  203,775;56472,208;19,92554
 761,53;11418,098;  192,375;56080,686;20,08599
 762,10;11488,633;  174,575;56038,363;20,25294
 762,67;11485,740;  221,575;56070,641;20,16894
 763,24;11412,847;  164,375;55565,118;20,30383
 763,80;11593,526;  199,575;55610,596;20,56261
 764,37;11598,347;  181,175;55604,673;20,59988
 764,94;11573,739;  178,175;55208,350;20,70785
 765,50;11668,418;  168,575;55191,628;20,90004
 766,07;11745,239;  210,375;55220,505;20,96862
 766,64;11734,203;  191,575;54901,983;21,09768
 767,21;11806,167;  189,975;54870,260;21,24384
 767,77;11763,560;  206,375;54707,338;21,20547
 768,34;11796,952;  210,775;54664,215;21,27722
 768,91;11818,916;  190,175;54295,093;21,49295
 769,47;11949,738;  192,376;54498,370;21,65021
 770,04;11881,987;  209,976;54468,247;21,51195
 770,61;11942,094;  187,176;54240,525;21,74688
 771,18;11969,487;  188,776;54080,402;21,86000
 771,74;12064,451;  210,576;54206,080;21,95345
 772,31;12053,272;  211,576;54057,757;21,99171
 772,88;12044,522;  178,176;53704,835;22,16904
 773,44;12077,772;  191,776;53520,312;22,28825
 774,01;12122,879;  189,776;53690,790;22,30444
 774,58;12130,271;  171,776;53432,467;22,45276
 775,14;12210,950;  184,376;53531,344;22,54406
 775,71;12231,057;  191,776;53402,422;22,62570
 776,27;12393,306;  233,976;53302,099;22,91268
 776,84;12531,985;  246,976;53488,977;23,07390
 777,41;12432,663;  207,976;53298,054;23,02631
 777,97;12441,627;  183,976;52923,332;23,24194
 778,54;12452,877;  206,176;53016,409;23,19001
 779,11;12587,984;  215,176;53045,287;23,41999
 779,67;12633,091;  192,776;52911,764;23,59741
 780,24;12657,198;  214,176;52651,841;23,72917
 780,80;12777,162;  222,577;52697,919;23,92473
 781,37;12812,983;  205,977;52485,196;24,11476
 781,94;12763,376;  194,577;52362,074;24,09316
 782,50;12876,340;  214,977;52273,751;24,32129
 783,07;12958,875;  247,977;52383,429;24,38053
 783,63;13029,839;  190,177;52079,106;24,74451
 784,20;12967,518;  232,777;52057,584;24,57267
 784,77;13034,339;  208,577;51928,461;24,79851
 785,33;13036,874;  187,177;51681,938;24,95341
 785,90;13128,981;  208,577;51654,016;25,11477
 786,46;13162,231;  222,377;51544,293;25,21312
 787,03;13205,624;  205,377;51364,371;25,41146
 787,59;13230,302;  209,177;51383,648;25,44457
 788,16;13264,552;  217,777;51273,726;25,55388
 788,73;13303,516;  223,577;50943,603;25,78851
 789,29;13362,766;  206,777;50617,081;26,09782
 789,86;13417,158;  211,977;50367,758;26,32833
 790,42;13526,551;  215,377;50497,636;26,47290
 790,99;13455,801;  224,977;50039,713;26,56006
 791,55;13522,622;  205,378;50188,990;26,64322
 792,12;13464,015;  231,378;50020,068;26,57760
 792,68;13554,979;  215,378;49785,745;26,91043
 793,25;13576,228;  217,578;49649,623;27,02427
 793,81;13571,621;  253,778;49135,900;27,24481
 794,38;13450,299;  193,378;49037,778;27,14113
 794,94;13503,121;  206,978;48908,855;27,30109
 795,51;13553,656;  218,978;48653,933;27,53110
 796,07;13519,192;  222,978;48389,010;27,60496
 796,64;13624,870;  246,778;48626,887;27,65205
 797,20;13584,977;  225,178;48034,365;27,94400
 797,77;13510,084;  201,978;47678,042;28,03119
 798,33;13540,048;  205,178;47540,320;28,17118
 798,90;13575,155;  246,378;47325,597;28,31138
 799,46;13492,690;  218,778;46887,675;28,44274
 800,03;13545,940;  210,378;46838,352;28,59992
 800,59;13557,047;  237,178;46681,230;28,67939
 801,15;13605,297;  239,978;46431,307;28,93469
 801,72;13526,261;  199,378;46248,184;28,94078
 802,28;13546,796;  240,778;45773,462;29,22300
 802,85;13446,760;  219,979;45820,939;29,00549
 803,41;13506,582;  207,179;45618,217;29,28672
 803,98;13424,831;  212,779;45104,294;29,43107
 804,54;13458,367;  228,979;44858,572;29,64264
 805,11;13426,759;  234,979;44625,249;29,71773
 805,67;13506,438;  240,379;44560,527;29,93234
 806,23;13443,688;  225,379;44110,804;30,12004
 806,80;13448,937;  243,379;44193,281;30,04684
 807,36;13494,044;  261,579;44025,959;30,23570
 807,93;13498,437;  239,779;43749,036;30,47319
 808,49;13399,401;  227,379;43464,914;30,46432
 809,05;13419,794;  210,779;43106,391;30,79339
 809,62;13514,900;  235,179;43062,269;31,00776
 810,18;13554,293;  228,779;43010,346;31,14779
 810,74;13462,400;  197,379;42687,824;31,21883
 811,31;13524,650;  216,579;42482,301;31,48668
 811,87;13492,614;  224,179;42432,978;31,43523
 812,44;13574,292;  258,979;42405,656;31,59279
 813,00;13550,971;  191,779;42067,533;31,90197
 813,56;13658,649;  243,779;42111,011;32,04145
 814,13;13711,042;  227,980;42001,088;32,27689
 814,69;13680,863;  229,380;41872,566;32,30176
 815,25;13684,684;  197,380;41443,443;32,69962
 815,82;13745,934;  234,380;41434,921;32,79460
 816,38;13814,326;  256,580;41108,398;33,18762
 816,94;13702,576;  230,780;40893,875;33,13028
 817,51;13667,540;  199,980;40628,753;33,31182
 818,07;13712,790;  213,380;40369,030;33,61771
 818,63;13727,183;  234,580;40002,908;33,92801
 819,20;13782,718;  236,180;40120,585;33,96450
 819,76;13597,111;  228,580;39577,863;33,97401
 820,32;13728,932;  245,380;39498,140;34,35058
 820,89;13617,610;  250,180;39362,218;34,17728
 821,45;13602,146;  210,580;39112,895;34,42357
 822,01;13589,253;  235,980;38901,573;34,53529
 822,57;13606,074;  232,780;38683,250;34,78057
 823,14;13644,467;  218,780;38618,327;34,96314
 823,70;13606,002;  216,780;38358,405;35,10396
 824,26;13562,680;  231,180;38082,482;35,22072
 824,82;13686,359;  225,781;37968,360;35,66417
 825,39;13612,609;  213,381;37732,437;35,71313
 825,95;13576,144;  237,781;37849,115;35,46368
 826,51;13610,108;  231,581;37278,792;36,11210
 827,08;13732,501;  271,781;37273,070;36,37906
 827,64;13689,608;  239,381;37244,347;36,34709
 828,20;13653,715;  216,581;36980,024;36,55026
 828,76;13673,536;  240,981;36879,502;36,66238
 829,32;13741,786;  245,581;36649,979;37,07301
 829,89;13783,035;  202,181;36605,657;37,30648
 830,45;13783,142;  208,181;36540,734;37,36308
 831,01;13749,678;  230,381;36315,412;37,46511
 831,57;13701,213;  233,181;36207,689;37,43771
 832,14;13780,463;  217,381;36185,367;37,70876
 832,70;13745,427;  208,181;35880,844;37,94852
 833,26;13767,820;  188,981;35790,321;38,14137
 833,82;13798,070;  222,181;35743,999;38,21845
 834,38;13824,319;  205,981;35722,676;38,34348
 834,95;13760,569;  211,581;35525,354;38,36743
 835,51;13808,247;  186,381;35588,031;38,47805
 836,07;13873,926;  222,182;35633,309;38,55213
 836,63;13937,890;  240,182;35589,986;38,74904
 837,19;13919,282;  231,582;35327,064;39,00132
 837,75;13796,104;  191,982;35086,541;38,98637
 838,32;14059,353;  236,782;35301,018;39,42071
 838,88;14059,746;  240,382;35185,096;39,54637
 839,44;14153,996;  203,782;34997,573;40,09397
 840,00;14078,817;  211,782;35115,651;39,72922
 840,56;14129,067;  215,182;34777,128;40,25782
 841,12;14169,460;  210,582;34765,406;40,39632
 841,68;14165,281;  193,182;34493,283;40,73486
 842,25;14294,816;  212,582;34672,761;40,86524
 842,81;14183,209;  203,782;34322,238;40,97321
 843,37;14222,173;  186,982;34411,115;41,00963
 843,93;14290,851;  219,182;34236,393;41,36632
 844,49;14388,672;  223,782;34377,670;41,47373
 845,05;14380,922;  191,582;34056,748;41,89951
 845,61;14543,601;  241,182;34182,225;42,13901
 846,17;14491,279;  207,782;34017,703;42,24647
 846,73;14530,386;  222,383;34085,180;42,25287
 847,29;14514,064;  202,783;33852,658;42,52997
 847,86;14591,028;  196,783;33641,935;43,03836
 848,42;14619,992;  190,383;33540,812;43,26664
 848,98;14650,385;  214,383;33519,890;43,34419
 849,54;14665,635;  204,183;33526,567;43,39861
 850,10;14703,742;  228,383;33345,045;43,71020
 850,66;14693,706;  184,783;33153,522;44,00812
 851,22;14719,670;  182,983;33056,000;44,22073
 851,78;14807,205;  239,983;33111,277;44,31594
 852,34;14735,169;  200,783;32939,555;44,39503
 852,90;14777,133;  212,183;32850,032;44,62595
 853,46;14708,526;  197,383;32641,709;44,72629
 854,02;14787,919;  213,983;32643,387;44,94050
 854,58;14685,883;  203,183;32336,464;45,07071
 855,14;14725,418;  186,583;32268,742;45,31751
 855,70;14701,239;  169,983;32086,819;45,52850
 856,26;14771,632;  216,383;31989,697;45,80967
 856,82;14692,882;  205,783;31857,374;45,77052
 857,38;14774,560;  224,383;31752,252;46,15021
 857,94;14640,096;  204,184;31631,129;45,93482
 858,50;14688,345;  220,984;31515,207;46,23014
 859,06;14559,881;  224,584;31482,284;45,86165
 859,62;14676,416;  213,384;31318,161;46,49779
 860,18;14561,809;  208,784;31074,239;46,50191
 860,74;14585,487;  168,984;30912,316;46,89311
 861,30;14544,594;  173,784;30831,794;46,87457
 861,86;14636,701;  221,584;30929,071;46,94333
 862,42;14657,380;  205,384;30590,949;47,56204
 862,98;14762,201;  225,784;30679,826;47,73231
 863,54;14650,451;  213,784;30401,504;47,82298
 864,10;14613,986;  199,384;30453,381;47,64528
 864,66;14607,236;  204,984;30147,458;48,09974
 865,22;14633,057;  204,984;30039,336;48,36060
 865,78;14592,450;  211,984;30028,813;48,22936
 866,34;14643,985;  201,784;29892,091;48,64282
 866,90;14632,949;  221,984;29758,968;48,78956
 867,45;14572,628;  222,184;29624,646;48,80695
 868,01;14587,735;  222,584;29528,523;49,01788
 868,57;14502,556;  194,184;29270,201;49,21022
 869,13;14441,234;  189,785;29094,678;49,30463
 869,69;14493,770;  202,185;29107,755;49,44232
 870,25;14561,877;  189,185;29104,833;49,70558
 870,81;14657,841;  215,785;28973,910;50,21904
 871,37;14543,233;  209,585;28797,588;50,13868
 871,93;14558,054;  224,185;28614,065;50,48936
 872,49;14565,304;  221,585;28385,943;50,92862
 873,04;14484,983;  200,185;28223,620;50,97447
 873,60;14498,518;  190,585;28096,698;51,27168
 874,16;14468,196;  210,585;28100,175;51,12162
 874,72;14542,625;  199,385;28028,775;51,53990
 875,28;14547,196;  209,785;27963,375;51,65966
 875,84;14541,911;  186,785;27807,375;51,97255
 876,40;14665,625;  206,985;27740,175;52,51349
 876,95;14694,054;  221,385;27739,775;52,59272
 877,51;14675,911;  255,785;27750,375;52,44714
 878,07;14888,339;  239,585;27763,975;53,22100
 878,63;14857,768;  218,585;27739,975;53,19202
 879,19;14810,339;  223,985;27668,175;53,14915
 879,75;14952,339;  217,185;27709,175;53,59799
 880,30;15000,768;  205,385;27794,575;53,62746
 880,86;15169,196;  255,185;27824,575;54,09627
 881,42;15192,482;  190,185;27869,775;54,19985
 881,98;15304,482;  224,585;28080,175;54,13598
 882,54;15391,482;  217,985;28017,575;54,58173
 883,09;15523,625;  226,985;28170,175;54,74192
 883,65;15641,054;  215,585;28300,375;54,92464
 884,21;15742,911;  239,585;28441,775;54,97206
 884,77;15925,625;  217,985;28552,975;55,43549
 885,32;16015,054;  211,185;28662,975;55,54613
 885,88;16237,482;  240,985;28801,975;56,00820
 886,44;16250,196;  212,785;28912,775;55,87950
 887,00;16387,625;  229,785;28898,775;56,35999
 887,56;16532,482;  221,785;29149,775;56,38379
 888,11;16623,054;  217,985;29168,175;56,66653
 888,67;16771,196;  240,185;29323,575;56,84004
 889,23;16835,911;  227,385;29229,775;57,26606
 889,79;16760,196;  208,785;29260,375;56,97248
 890,34;16936,339;  208,785;29149,575;57,79923
 890,90;16947,339;  250,985;29173,175;57,72853
 891,46;17014,339;  217,585;29233,975;57,88713
 892,01;17051,911;  240,585;29083,775;58,28525
 892,57;17050,339;  245,785;29088,775;58,26218
 893,13;16906,768;  226,185;28995,775;57,97991
 893,69;17066,911;  207,585;28903,575;58,75150
 894,24;16998,196;  218,185;28830,175;58,64678
 894,80;16920,768;  225,785;28553,575;58,93500
 895,36;16877,625;  207,385;28458,575;59,00721
 895,91;16779,625;  213,985;28280,375;59,02305
 896,47;16848,768;  230,185;28094,775;59,64051
 897,03;16812,196;  210,385;27903,775;59,94864
 897,58;16739,625;  217,785;27717,175;60,08075
 898,14;16702,196;  233,985;27673,575;60,01624
 898,70;16628,482;  197,385;27601,175;59,95921
 899,25;16675,625;  209,185;27406,375;60,54464
 899,81;16584,054;  238,185;27203,575;60,61796
 900,37;16531,911;  190,985;27044,375;60,85238
 900,92;16644,054;  220,185;26966,575;61,40593
 901,48;16590,482;  204,185;26834,575;61,53232
 902,03;16480,196;  199,385;26749,975;61,31996
 902,59;16437,054;  219,585;26734,975;61,16247
 903,15;16433,339;  242,585;26494,775;61,67392
 903,70;16396,911;  228,985;26272,975;62,07930
 904,26;16369,768;  195,185;26118,375;62,39426
 904,82;16431,482;  217,385;26110,975;62,61819
 905,37;16454,911;  215,585;26019,975;62,93241
 905,93;16333,482;  211,185;25899,975;62,76005
 906,48;16458,054;  230,185;25755,975;63,57440
 907,04;16389,054;  248,585;25767,175;63,24984
 907,60;16381,482;  205,985;25499,175;63,95199
 908,15;16385,625;  208,785;25448,375;64,09312
 908,71;16301,625;  251,385;25480,975;63,61673
 909,26;16281,339;  211,185;25169,375;64,38830
 909,82;16306,768;  237,185;25158,575;64,48109
 910,37;16280,768;  250,785;24900,975;65,02986
 910,93;16197,339;  206,785;24712,775;65,25162
 911,48;16102,196;  209,585;24621,375;65,10220
 912,04;16028,625;  203,585;24537,375;65,03319
 912,60;16198,196;  240,185;24691,775;65,26370
 913,15;16112,911;  233,585;24388,775;65,73877
 913,71;16028,625;  208,985;24185,975;65,97842
 914,26;16022,482;  207,785;24091,775;66,21464
 914,82;16052,054;  223,985;24053,375;66,42247
 915,37;16037,339;  209,785;23898,375;66,81510
 915,93;16032,911;  278,185;23892,775;66,71607
 916,48;15968,339;  215,785;23672,775;67,15505
 917,04;15927,196;  232,185;23553,975;67,29763
 917,59;15916,482;  251,985;23506,375;67,36146
 918,15;15877,911;  172,985;23242,175;68,07749
 918,70;15787,339;  194,585;23323,175;67,41766
 919,26;15874,054;  225,985;23132,575;68,31252
 919,81;15762,196;  191,385;23044,175;68,13528
 920,37;15754,339;  209,585;22783,375;68,86196
 920,92;15817,625;  215,385;22795,975;69,09580
 921,48;15594,054;  200,185;22586,375;68,76502
 922,03;15661,911;  214,985;22528,375;69,22716
 922,59;15683,054;  224,785;22401,375;69,70535
 923,14;15563,054;  210,185;22325,175;69,42291
 923,69;15617,339;  224,585;22390,575;69,44312
 924,25;15558,625;  234,585;22114,975;70,03550
 924,80;15411,339;  219,585;21933,575;69,96298
 925,36;15402,911;  216,585;21980,375;69,77795
 925,91;15336,482;  213,985;21765,175;70,17013
 926,47;15297,339;  192,985;21704,975;70,21365
 927,02;15389,625;  246,185;21669,975;70,68516
 927,57;15274,339;  217,385;21431,775;70,97519
 928,13;15276,625;  215,385;21399,175;71,09795
 928,68;15195,054;  214,385;21298,775;71,05099
 929,24;15095,196;  194,985;21056,975;71,42277
 929,79;14988,911;  195,185;20994,175;71,12714
 930,34;14927,196;  220,985;20909,175;71,08506
 930,90;14998,911;  200,585;20822,575;71,75993
 931,45;15042,625;  208,985;20760,775;72,17688
 932,01;14914,768;  226,985;20826,175;71,30272
 932,56;14928,339;  236,785;20657,975;71,94269
 933,11;14903,482;  224,785;20495,575;72,41305
 933,67;14790,054;  218,985;20367,175;72,31949
 934,22;14874,911;  224,385;20302,375;72,96809
 934,77;14762,482;  223,585;20152,375;72,95424
 935,33;14679,482;  228,985;20031,775;72,97203
 935,88;14678,196;  228,585;20037,175;72,94619
 936,43;14638,054;  224,785;19867,775;73,37614
 936,99;14646,482;  203,985;19779,775;73,77734
 937,54;14527,482;  199,385;19705,575;73,45410
 938,09;14608,339;  214,385;19494,375;74,65748
 938,65;14527,339;  212,785;19343,175;74,82625
 939,20;14537,768;  194,585;19422,175;74,59688
 939,75;14498,339;  197,185;19246,375;75,07487
 940,31;14417,768;  193,785;19051,175;75,42922
 940,86;14494,196;  203,585;19200,975;75,22408
 941,41;14419,054;  264,985;19011,775;75,50129
 941,96;14313,911;  207,185;18855,975;75,64419
 942,52;14316,054;  216,385;18838,175;75,71597
 943,07;14264,196;  193,785;18730,975;75,90369
 943,62;14187,911;  201,585;18591,975;76,05236
 944,18;14140,911;  190,585;18531,975;76,05926
 944,73;14191,054;  216,785;18403,975;76,83578
 945,28;14100,768;  181,185;18284,575;76,88937
 945,83;14130,339;  223,385;18173,575;77,47525
 946,39;14085,339;  203,785;18154,575;77,33116
 946,94;14066,339;  234,985;18027,775;77,73572
 947,49;14019,911;  214,585;17934,375;77,90908
 948,04;14010,054;  227,185;17990,975;77,58968
 948,59;13986,911;  229,785;17823,975;78,19130
 949,15;13980,625;  196,785;17696,575;78,76575
 949,70;14002,625;  213,385;17583,375;79,38542
 950,25;13889,339;  231,785;17544,775;78,88617
 950,80;13754,196;  187,385;17522,775;78,26078
 951,36;13767,054;  180,985;17437,175;78,73157
 951,91;13784,482;  211,785;17414,175;78,90007
 952,46;13636,625;  181,585;17155,375;79,26951
 953,01;13770,911;  215,185;17166,975;79,96634
 953,56;13638,339;  186,385;17089,975;79,58046
 954,11;13651,482;  231,985;17015,775;79,95511
 954,67;13564,911;  204,985;16958,175;79,74556
 955,22;13492,768;  188,985;16687,775;80,63490
 955,77;13485,054;  234,585;16719,375;80,37997
 956,32;13463,054;  251,185;16646,375;80,58381
 956,87;13380,482;  206,385;16472,775;80,98968
 957,42;13405,339;  206,985;16494,775;81,03220
 957,98;13292,196;  201,785;16257,375;81,53180
 958,53;13307,054;  224,385;16301,175;81,37612
 959,08;13264,054;  190,785;16218,575;81,56626
 959,63;13138,625;  190,585;16122,175;81,27274
 960,18;13256,339;  217,185;16053,375;82,33770
 960,73;13183,054;  208,985;15932,375;82,51445
 961,28;13043,482;  200,785;15844,375;82,09559
 961,83;13065,911;  216,385;15855,775;82,16130
 962,39;12994,625;  200,185;15688,175;82,60878
 962,94;13036,911;  215,585;15571,575;83,49397
 963,49;12871,768;  209,785;15532,375;82,63605
 964,04;12803,911;  214,985;15423,175;82,77728
 964,59;12786,625;  203,585;15309,575;83,29835
 965,14;12784,625;  214,785;15274,375;83,46735
 965,69;12647,482;  195,585;15175,975;83,12131
 966,24;12675,911;  189,785;15058,575;83,97540
 966,79;12617,911;  215,585;14974,175;84,03462
 967,34;12593,768;  191,185;14867,575;84,50704
 967,89;12519,482;  211,985;14773,375;84,52144
 968,44;12509,196;  219,585;14791,175;84,33954
 968,99;12445,625;  226,785;14619,175;84,89792
 969,55;12421,911;  220,985;14511,975;85,37495
 970,10;12237,625;  214,385;14446,775;84,47801
 970,65;12220,196;  227,385;14262,975;85,44572
 971,20;12198,339;  199,185;14271,175;85,26978
 971,75;12074,054;  188,185;14090,175;85,49761
 972,30;12036,054;  217,785;14004,775;85,72044
 972,85;11992,911;  203,585;14013,975;85,36562
 973,40;11883,339;  203,185;13823,575;85,75492
 973,95;11915,482;  220,985;13810,175;86,05735
 974,50;11866,339;  241,385;13734,375;86,15551
 975,05;11840,482;  215,785;13633,775;86,63516
 975,60;11756,911;  241,185;13571,975;86,38442
 976,15;11643,482;  211,385;13443,575;86,39611
 976,70;11706,482;  222,185;13370,975;87,34109
 977,25;11632,196;  211,985;13416,975;86,48406
 977,80;11490,054;  195,985;13126,975;87,34110
 978,35;11400,054;  211,985;13055,175;87,11285
 978,89;11482,911;  199,385;12930,375;88,63039
 979,44;11422,768;  217,785;12903,375;88,32843
 979,99;11285,482;  201,985;12765,375;88,22059
 980,54;11260,054;  228,185;12675,975;88,62512
 981,09;11179,196;  222,585;12618,175;88,39121
 981,64;11122,625;  221,585;12389,575;89,58784
 982,19;11042,625;  242,985;12345,775;89,23265
 982,74;10990,482;  231,185;12263,975;89,41648
 983,29;10872,339;  192,785;12115,775;89,57111
 983,84;10774,911;  227,985;12057,575;89,15715
 984,39;10808,339;  249,385;11963,175;90,14123
 984,94;10628,482;  200,585;11862,975;89,41475
 985,49;10642,625;  232,385;11793,175;90,04783
 986,03;10604,482;  233,785;11663,975;90,73075
 986,58;10449,339;  268,785;11628,175;89,62237
 987,13;10340,768;  207,985;11411,575;90,44229
 987,68;10341,339;  235,985;11312,375;91,23328
 988,23;10266,768;  226,985;11250,175;91,07874
 988,78;10153,339;  223,785;11109,775;91,21407
 989,33;10106,911;  220,985;10968,775;91,98101
 989,88;10098,196;  251,985;10965,975;91,90051
 990,42; 9921,196;  223,185;10787,175;91,80254
 990,97; 9853,768;  223,185;10681,175;92,08828
 991,52; 9812,911;  235,185;10688,575;91,62315
 992,07; 9766,482;  244,585;10498,775;92,85860
 992,62; 9662,482;  228,185;10449,775;92,29775
 993,17; 9607,482;  230,185;10255,775;93,53362
 993,71; 9534,196;  236,585;10236,375;92,97807
 994,26; 9376,768;  218,185;10051,175;93,14138
 994,81; 9438,054;  239,985;10001,575;94,22716
 995,36; 9353,054;  208,985; 9878,775;94,56326
 995,91; 9245,054;  227,185; 9840,775;93,80334
 996,45; 9216,625;  223,185; 9708,175;94,81760
 997,00; 9172,625;  208,785; 9556,175;95,89672
 997,55; 9151,625;  226,185; 9570,575;95,51656
 998,10; 9042,339;  235,785; 9334,575;96,78819
 998,65; 8976,196;  207,185; 9332,975;96,09044
 999,19; 8920,054;  234,585; 9289,775;95,91702
 999,74; 8813,339;  237,185; 9119,375;96,55450
1000,29; 8744,196;  247,185; 9050,575;96,51977
1000,84; 8627,339;  226,385; 8927,975;96,54505
1001,38; 8593,482;  225,985; 8722,975;98,47601
1001,93; 8475,339;  227,185; 8819,575;95,99371
1002,48; 8343,196;  213,185; 8628,775;96,60655
1003,03; 8359,339;  222,785; 8504,975;98,24158
1003,57; 8188,339;  232,985; 8453,975;96,76881
1004,12; 8110,339;  233,185; 8326,175;97,33305
1004,67; 8075,196;  223,985; 8297,175;97,25042
1005,22; 7902,196;  214,785; 8139,375;97,00706
1005,76; 7863,339;  212,585; 7986,175;98,41983
1006,31; 7781,339;  234,985; 7930,775;98,05821
1006,86; 7650,482;  221,985; 7767,575;98,44819
1007,40; 7543,339;  198,185; 7624,975;98,90079
1007,95; 7445,339;  230,385; 7621,375;97,61824
1008,50; 7333,625;  234,185; 7447,975;98,41484
1009,04; 7256,054;  218,385; 7419,175;97,73467
1009,59; 7215,911;  221,585; 7293,975;98,89621
1010,14; 7116,482;  215,585; 7124,575;99,88286
1010,68; 7016,625;  223,785; 7028,975;99,81852
1011,23; 6877,768;  189,385; 6898,975;99,68393
1011,78; 6856,625;  238,385; 6909,775;99,20331
1012,32; 6779,625;  221,385; 6682,575;101,50205
1012,87; 6758,339;  239,585; 6755,175;100,04856
1013,42; 6684,625;  212,185; 6570,975;101,78729
1013,96; 6707,339;  242,985; 6621,575;101,34456
1014,51; 6602,054;  182,185; 6500,175;101,61252
1015,06; 6600,054;  191,385; 6547,775;100,82246
1015,60; 6687,768;  264,385; 6593,375;101,49144
1016,15; 6634,196;  213,785; 6555,575;101,23974
1016,69; 6709,768;  226,585; 6498,375;103,37053
1017,24; 6688,911;  203,185; 6530,775;102,49915
1017,79; 6848,054;  249,985; 6580,175;104,23176
1018,33; 6801,196;  211,185; 6584,175;103,40533
1018,88; 6910,482;  248,185; 6615,975;104,62495
1019,42; 6887,339;  230,585; 6633,375;103,96646
1019,97; 6934,482;  199,585; 6670,375;104,08153
1020,51; 6954,768;  232,385; 6724,975;103,53931
1021,06; 7008,339;  201,185; 6703,975;104,68052
1021,61; 6954,768;  183,385; 6564,775;106,11141
1022,15; 6964,196;  170,385; 6554,375;106,41952
1022,70; 6929,911;  221,985; 6591,975;105,30512
1023,24; 6974,339;  185,985; 6595,975;105,90273
1023,79; 6926,054;  206,185; 6495,775;106,84112
1024,33; 6894,054;  206,185; 6476,975;106,65113
1024,88; 6816,482;  211,185; 6419,975;106,38622
1025,42; 6705,911;  214,785; 6222,175;108,05234
1025,97; 6687,054;  211,785; 6173,175;108,62011
1026,51; 6506,196;  175,985; 6033,175;108,07591
1027,06; 6425,625;  206,185; 6053,375;106,36631
1027,60; 6394,911;  205,585; 5935,175;108,02389
1028,15; 6308,911;  230,585; 5842,775;108,30577
1028,69; 6176,196;  196,985; 5694,375;108,76455
1029,24; 6127,339;  211,385; 5638,775;109,00183
1029,78; 6019,482;  208,385; 5525,175;109,29710
1030,33; 5895,911;  185,985; 5398,775;109,53685
1030,87; 5884,054;  212,385; 5365,775;110,05704
1031,42; 5726,625;  194,385; 5274,975;108,88972
1031,96; 5711,196;  216,985; 5209,175;110,05614
1032,51; 5588,768;  198,785; 5159,575;108,65170
1033,05; 5560,339;  216,785; 5094,375;109,55317
1033,60; 5474,768;  166,785; 4986,175;110,13806
1034,14; 5331,054;  200,185; 4900,775;109,15371
1034,69; 5296,911;  210,185; 4821,375;110,31265
1035,23; 5236,054;  205,985; 4730,975;111,16198
1035,77; 5192,339;  193,585; 4674,375;111,55966
1036,32; 5124,054;  169,185; 4629,175;111,09596
1036,86; 5088,054;  202,185; 4530,575;112,87958
1037,41; 4985,196;  219,585; 4518,575;110,85421
1037,95; 4890,339;  182,985; 4436,375;110,67300
1038,50; 4853,054;  194,985; 4351,775;112,05927
1039,04; 4842,482;  216,385; 4251,375;114,64953
1039,58; 4681,196;  195,985; 4206,575;111,83420
1040,13; 4716,911;  193,185; 4211,375;112,58118
1040,67; 4667,911;  232,985; 4143,575;113,40810
1041,21; 4632,339;  234,385; 4054,975;115,11191
1041,76; 4491,911;  189,585; 3998,975;112,94002
1042,30; 4452,768;  207,185; 3960,575;113,11329
1042,85; 4384,911;  205,185; 3900,775;113,10036
1043,39; 4344,196;  196,585; 3840,775;113,81436
1043,93; 4273,482;  213,185; 3768,575;114,20117
1044,48; 4236,054;  221,785; 3745,575;113,91906
1045,02; 4194,196;  194,985; 3677,575;114,83440
1045,56; 4150,339;  226,785; 3593,175;116,55079
1046,11; 4078,768;  209,985; 3566,175;115,27306
1046,65; 4025,625;  219,985; 3509,575;115,68737
1047,19; 3970,625;  187,785; 3480,975;114,86856
1047,74; 3927,768;  191,985; 3379,375;117,20508
1048,28; 3896,482;  214,785; 3427,975;114,58075
1048,82; 3851,625;  220,785; 3358,975;115,69854
1049,37; 3779,054;  215,385; 3284,775;116,10348
1049,91; 3751,339;  197,185; 3303,375;114,42166
1050,45; 3743,482;  224,985; 3245,375;116,49148
1050,99; 3664,054;  202,985; 3149,375;117,46811
1051,54; 3546,768;  207,185; 3100,375;115,42909
1052,08; 3572,911;  228,785; 3086,975;117,00152
1052,62; 3528,768;  223,985; 3023,975;118,02838
1053,16; 3434,482;  206,585; 2934,575;118,32511
1053,71; 3417,482;  218,585; 2966,975;116,39167
1054,25; 3327,054;  217,185; 2879,175;116,82495
1054,79; 3320,768;  222,585; 2843,975;118,18855
1055,33; 3279,911;  199,185; 2783,975;119,18669
1055,88; 3233,196;  232,185; 2776,975;117,92767
1056,42; 3219,054;  227,185; 2762,175;118,02289
1056,96; 3175,339;  234,585; 2692,975;119,62115
1057,50; 3129,339;  224,185; 2648,775;119,82044
1058,05; 3056,054;  222,785; 2621,975;118,09271
1058,59; 3077,911;  233,985; 2547,775;122,91201
1059,13; 2937,625;  201,585; 2473,175;120,44603
1059,67; 2956,625;  228,185; 2524,575;118,81431
1060,21; 2884,482;  215,385; 2451,775;119,34847
1060,76; 2892,625;  235,185; 2440,975;120,47566
1061,30; 2842,625;  244,385; 2377,175;121,82353
1061,84; 2756,768;  210,185; 2358,375;118,54551
1062,38; 2729,768;  199,585; 2303,775;120,24498
1062,92; 2746,054;  260,985; 2322,375;120,55305
1063,46; 2679,339;  242,585; 2245,575;121,65584
1064,01; 2621,911;  204,785; 2226,575;119,55375
1064,55; 2638,911;  229,585; 2221,575;120,95069
1065,09; 2560,196;  198,385; 2126,375;122,50123
1065,63; 2576,482;  230,785; 2131,775;123,39345
1066,17; 2553,625;  245,785; 2102,975;124,26515
1066,71; 2537,054;  231,785; 2098,775;123,47514
1067,25; 2461,196;  237,185; 2061,175;121,93112
1067,80; 2492,625;  238,385; 2045,975;124,70970
1068,34; 2438,768;  250,385; 2047,175;121,79402
1068,88; 2350,768;  217,585; 1981,175;120,95685
1069,42; 2392,911;  258,185; 1998,375;122,67199
1069,96; 2332,625;  225,385; 1939,175;122,95789
1070,50; 2334,196;  251,585; 1942,975;123,13017
1071,04; 2265,054;  203,185; 1908,175;120,93142
1071,58; 2223,054;  218,385; 1881,175;120,56054
1072,12; 2214,196;  218,785; 1812,975;125,16773
1072,66; 2178,339;  232,985; 1827,175;122,02776
1073,21; 2212,196;  235,985; 1839,175;123,26745
1073,75; 2153,054;  235,385; 1805,975;122,09861
1074,29; 2112,196;  240,585; 1778,575;121,69204
1074,83; 2107,339;  249,585; 1748,175;123,96681
1075,37; 2114,482;  243,785; 1726,975;126,12660
1075,91; 2052,339;  232,185; 1720,975;122,25729
1076,45; 2011,054;  228,385; 1687,775;122,15162
1076,99; 1989,339;  254,785; 1650,975;124,23483
1077,53; 1989,625;  222,185; 1646,575;124,08399
1078,07; 1958,625;  241,185; 1615,975;124,92381
1078,61; 1971,911;  218,785; 1609,375;126,07064
1079,15; 1883,768;  222,985; 1585,575;121,88427
1079,69; 1865,768;  223,985; 1549,175;123,89037
1080,23; 1896,482;  244,385; 1572,175;124,42458
1080,77; 1886,339;  246,985; 1569,375;123,96905
1081,31; 1837,911;  203,985; 1501,375;125,93944
1081,85; 1844,911;  245,185; 1514,175;126,06291
1082,39; 1789,625;  215,385; 1467,975;125,67879
1082,93; 1786,625;  210,785; 1449,975;127,16694
1083,47; 1721,482;  214,785; 1425,775;124,41863
1084,01; 1750,196;  250,185; 1426,975;127,46636
1084,55; 1724,054;  212,385; 1393,175;128,02180
1085,09; 1700,196;  242,585; 1387,375;127,32566
1085,63; 1652,482;  223,185; 1392,375;122,24678
1086,17; 1639,196;  220,585; 1358,775;124,63749
1086,71; 1640,768;  236,585; 1333,575;128,00325
1087,24; 1645,911;  248,585; 1347,175;127,19265
1087,78; 1631,768;  222,985; 1311,775;129,38977
1088,32; 1563,625;  213,785; 1278,575;126,77054
1088,86; 1570,196;  242,385; 1315,375;123,74872
1089,40; 1552,911;  219,785; 1272,175;126,67602
1089,94; 1502,625;  196,585; 1241,175;125,02896
1090,48; 1512,768;  226,985; 1241,775;126,70433
1091,02; 1512,054;  233,785; 1239,175;127,14156
1091,56; 1494,482;  234,985; 1212,175;128,88969
1092,10; 1450,482;  217,785; 1190,975;126,66562
1092,63; 1466,196;  248,985; 1209,575;126,71498
1093,17; 1450,339;  230,985; 1195,975;126,35927
1093,71; 1402,625;  227,385; 1151,775;127,13681
1094,25; 1411,768;  249,785; 1176,375;125,40421
1094,79; 1378,339;  247,785; 1129,175;128,26947
1095,33; 1373,054;  232,585; 1100,975;131,33138
1095,87; 1350,196;  230,985; 1142,375;122,80269
1096,40; 1283,911;  206,985; 1087,375;122,32371
1096,94; 1305,768;  238,785; 1072,575;127,96782
1097,48; 1324,768;  235,185; 1090,775;127,34871
1098,02; 1277,625;  210,785; 1066,575;124,66142
1098,56; 1255,625;  196,985;  999,175;131,96874
1099,10; 1229,625;  211,585;  999,375;129,22733
1099,63; 1258,768;  209,785; 1018,775;129,66574
1100,17; 1235,911;  244,185; 1028,775;126,40050
1100,71; 1243,625;  239,985; 1012,375;129,93954

