
Integration time [ms]: 130,000
Averaging Nr. [scans]: 7
Smoothing Nr. [pixels]: 0
Data measured with spectrometer [name]: 2009305U1
Wave   ;Sample   ;Dark     ;Reference;Reflectance
[nm]   ;[counts] ;[counts] ;[counts] ;[%]

 175,72;  203,205;  192,986;  201,498;120,05730
 176,32;  242,064;  222,384;  221,717; 0,00000
 176,92;  251,259;  241,385;  235,854; 0,00000
 177,52;  272,744;  259,786;  258,523; 0,00000
 178,12;  240,502;  246,984;  204,441; 0,00000
 178,72;  262,837;  250,783;  241,274; 0,00000
 179,32;  267,621;  247,384;  249,069;1200,87878
 179,92;  259,300;  231,385;  239,762;333,22267
 180,52;  247,437;  244,988;  241,098; 0,00000
 181,12;  273,291;  248,385;  229,716; 0,00000
 181,73;  278,637;  272,585;  262,308; 0,00000
 182,33;  369,749;  306,387;  321,281;425,42048
 182,93;  275,831;  256,186;  256,932; 0,00000
 183,53;  260,385;  246,183;  223,624; 0,00000
 184,13;  251,796;  236,383;  230,131; 0,00000
 184,73;  279,316;  249,982;  256,507;449,59080
 185,33;  290,617;  234,768;  346,100;50,16460
 185,93;  285,053;  232,166;  351,877;44,17890
 186,53;  300,003;  241,967;  348,122;54,67119
 187,13;  335,789;  257,569;  394,908;56,95376
 187,73;  295,026;  220,566;  335,660;64,69462
 188,33;  289,020;  254,365;  362,824;31,95201
 188,93;  305,072;  244,562;  398,475;39,31400
 189,53;  314,041;  258,559;  392,476;41,43003
 190,13;  343,719;  283,155;  430,284;41,16351
 190,73;  280,450;  220,558;  363,114;42,01278
 191,34;  322,034;  253,561;  378,621;54,75187
 191,94;  293,604;  240,364;  345,758;50,51486
 192,54;  313,344;  245,370;  399,729;44,03595
 193,14;  317,213;  248,969;  381,307;51,56781
 193,74;  316,245;  249,968;  364,047;58,09678
 194,34;  292,619;  227,969;  353,891;51,34090
 194,94;  275,872;  218,569;  355,716;41,78197
 195,54;  254,470;  215,168;  334,977;32,80384
 196,14;  278,283;  221,569;  355,380;42,38320
 196,74;  264,921;  216,167;  336,993;40,35045
 197,34;  253,021;  188,971;  344,465;41,19158
 197,94;  282,586;  220,769;  365,195;42,80217
 198,54;  285,412;  238,769;  365,333;36,85301
 199,14;  275,916;  213,971;  370,842;39,48788
 199,74;  267,686;  202,971;  374,033;37,83116
 200,34;  245,930;  199,372;  356,968;29,54305
 200,94;  294,694;  232,170;  410,644;35,03234
 201,54;  293,261;  216,571;  406,478;40,38326
 202,14;  306,604;  231,172;  444,781;35,31291
 202,74;  288,676;  223,371;  453,508;28,37669
 203,34;  272,890;  184,573;  446,416;33,72914
 203,94;  264,023;  173,772;  465,735;30,91182
 204,54;  324,536;  229,569;  530,605;31,54659
 205,14;  285,759;  190,571;  533,994;27,71748
 205,74;  338,923;  239,373;  624,034;25,87980
 206,34;  308,963;  210,772;  632,343;23,29171
 206,94;  327,949;  212,972;  703,417;23,44343
 207,54;  331,668;  188,772;  726,418;26,57809
 208,14;  336,184;  196,172;  794,506;23,40037
 208,74;  365,179;  217,771;  891,670;21,87385
 209,34;  357,824;  210,171;  960,509;19,67816
 209,94;  410,271;  204,571; 1037,280;24,70247
 210,54;  402,498;  213,973; 1112,879;20,97277
 211,14;  440,160;  204,571; 1236,499;22,83000
 211,73;  455,312;  197,971; 1326,867;22,79582
 212,33;  476,353;  206,770; 1438,453;21,88733
 212,93;  480,068;  203,171; 1522,488;20,98790
 213,53;  454,806;  174,371; 1562,260;20,20581
 214,13;  511,615;  205,174; 1652,697;21,17002
 214,73;  492,889;  195,372; 1657,381;20,34989
 215,33;  469,414;  168,771; 1707,080;19,54370
 215,93;  520,070;  206,573; 1816,158;19,47689
 216,53;  482,229;  162,571; 1892,659;18,47641
 217,13;  545,111;  227,173; 2126,822;16,73669
 217,73;  575,609;  196,373; 2281,539;18,18734
 218,33;  541,403;  148,574; 2495,337;16,73919
 218,93;  626,677;  192,576; 2756,037;16,93418
 219,53;  637,601;  185,774; 3043,728;15,80947
 220,13;  672,095;  168,574; 3315,721;15,99926
 220,73;  738,382;  196,771; 3663,262;15,62417
 221,32;  773,179;  176,771; 4002,670;15,58869
 221,92;  846,915;  167,774; 4489,701;15,71384
 222,52;  901,047;  177,173; 4825,264;15,57358
 223,12;  976,784;  176,973; 5207,436;15,89936
 223,72; 1072,697;  185,573; 5646,427;16,24515
 224,32; 1107,319;  194,973; 5979,694;15,77165
 224,92; 1150,006;  176,373; 6339,999;15,79643
 225,52; 1224,719;  191,372; 6688,408;15,90490
 226,12; 1295,185;  188,373; 6945,384;16,38020
 226,72; 1351,977;  156,572; 7238,269;16,88021
 227,31; 1424,378;  154,172; 7537,973;17,20260
 227,91; 1523,000;  179,172; 7960,806;17,26922
 228,51; 1606,971;  181,371; 8348,198;17,45598
 229,11; 1736,111;  177,972; 8762,344;18,15087
 229,71; 1825,271;  176,971; 9024,802;18,62942
 230,31; 1922,928;  169,774; 9523,192;18,74346
 230,91; 2027,928;  158,770; 9767,098;19,45352
 231,51; 2172,153;  158,573;10040,244;20,37692
 232,10; 2335,145;  173,574;10533,432;20,86487
 232,70; 2454,333;  168,769;10665,091;21,77490
 233,30; 2610,475;  186,173;11029,985;22,35655
 233,90; 2781,448;  172,773;11194,690;23,66807
 234,50; 2931,568;  170,773;11401,596;24,58230
 235,10; 3083,434;  166,173;11490,599;25,76079
 235,70; 3256,216;  186,972;11624,368;26,83517
 236,29; 3415,626;  179,571;11659,240;28,18944
 236,89; 3488,422;  160,370;11714,814;28,80322
 237,49; 3699,457;  180,372;11688,736;30,57849
 238,09; 3786,535;  182,372;11480,943;31,89928
 238,69; 3933,195;  195,970;11405,171;33,34070
 239,29; 3959,972;  172,372;11141,789;34,52873
 239,89; 4042,878;  182,770;10898,509;36,02279
 240,48; 4046,650;  159,372;10599,047;37,23562
 241,08; 4092,778;  180,972;10337,522;38,51511
 241,68; 4206,659;  189,772;10061,372;40,69135
 242,28; 4159,037;  164,373; 9819,061;41,37539
 242,88; 4177,956;  198,374; 9482,888;42,86258
 243,48; 4181,258;  203,372; 9250,746;43,96730
 244,07; 4184,258;  177,372; 9107,911;44,86723
 244,67; 4228,295;  195,772; 9009,487;45,75282
 245,27; 4194,026;  195,971; 8880,267;46,03776
 245,87; 4186,679;  209,373; 8777,534;46,41960
 246,47; 4211,054;  188,171; 8790,362;46,76579
 247,06; 4234,815;  173,372; 8816,141;46,99239
 247,66; 4266,728;  172,972; 8941,810;46,68527
 248,26; 4403,460;  208,171; 9026,468;47,57482
 248,86; 4410,736;  197,971; 9181,944;46,89201
 249,46; 4442,812;  165,373; 9444,253;46,09866
 250,05; 4624,968;  195,972; 9783,266;46,19651
 250,65; 4647,178;  149,571;10138,313;45,02676
 251,25; 4780,396;  171,372;10609,388;44,15613
 251,85; 4913,836;  159,770;11118,766;43,38049
 252,44; 5055,008;  132,971;11710,174;42,51491
 253,04; 5245,667;  197,371;12463,062;41,15786
 253,64; 5359,888;  163,171;13112,912;40,12989
 254,24; 5610,055;  193,572;13970,475;39,31568
 254,84; 5732,383;  183,973;14890,853;37,72663
 255,43; 5848,704;  191,571;15757,603;36,34281
 256,03; 6025,768;  183,971;16591,684;35,60397
 256,63; 6209,680;  198,570;17660,118;34,42484
 257,23; 6236,090;  169,170;18345,547;33,37805
 257,82; 6348,462;  190,769;19251,922;32,30494
 258,42; 6306,328;  152,769;19951,490;31,08059
 259,02; 6392,884;  194,171;20729,623;30,18542
 259,62; 6306,199;  163,369;21428,059;28,88747
 260,21; 6221,308;  194,771;21896,222;27,77020
 260,81; 6110,931;  172,972;22326,403;26,80379
 261,41; 5927,070;  167,369;22570,864;25,70894
 262,01; 5865,774;  206,768;23108,504;24,70994
 262,60; 5563,376;  168,170;23373,147;23,25021
 263,20; 5478,100;  156,371;23500,628;22,79674
 263,80; 5275,705;  205,368;23599,066;21,67394
 264,40; 5009,337;  160,968;23819,858;20,49280
 264,99; 4825,111;  182,368;23843,294;19,62198
 265,59; 4644,344;  167,567;24059,513;18,73760
 266,19; 4525,475;  146,568;24172,257;18,22594
 266,78; 4419,838;  210,768;24316,185;17,46110
 267,38; 4229,902;  183,967;24330,944;16,75545
 267,98; 4050,235;  157,568;24150,966;16,22391
 268,58; 3953,589;  184,567;24217,448;15,68277
 269,17; 3816,394;  164,966;24285,346;15,13835
 269,77; 3716,067;  198,370;24085,497;14,72633
 270,37; 3568,899;  147,368;23944,855;14,37770
 270,96; 3514,448;  207,769;23900,074;13,95676
 271,56; 3437,795;  182,770;23601,023;13,89952
 272,16; 3305,633;  177,569;23375,339;13,48433
 272,75; 3258,614;  187,969;23411,568;13,22209
 273,35; 3197,771;  190,969;23294,694;13,01436
 273,95; 3173,670;  185,769;23354,159;12,89645
 274,54; 3163,041;  158,572;23331,028;12,96569
 275,14; 3243,439;  192,569;23707,828;12,97400
 275,74; 3234,245;  153,369;23879,482;12,98517
 276,33; 3345,168;  203,970;24142,154;13,12212
 276,93; 3360,028;  188,772;24583,858;12,99957
 277,53; 3461,395;  192,571;25175,231;13,08437
 278,12; 3548,325;  166,570;25657,758;13,26637
 278,72; 3704,358;  205,171;26178,411;13,47228
 279,32; 3839,893;  164,571;26753,991;13,82250
 279,91; 3954,621;  171,371;27521,361;13,83273
 280,51; 4134,778;  184,971;28009,765;14,19528
 281,11; 4347,879;  196,371;28752,665;14,53798
 281,70; 4482,943;  168,771;29039,102;14,94327
 282,30; 4660,652;  164,370;29898,623;15,12156
 282,90; 4824,753;  162,570;30314,080;15,46252
 283,49; 5114,969;  190,569;30828,085;16,07310
 284,09; 5290,376;  203,370;31190,426;16,41655
 284,69; 5493,224;  185,371;31498,658;16,95080
 285,28; 5727,464;  210,370;31942,235;17,38660
 285,88; 5984,305;  227,969;32156,996;18,02854
 286,47; 6165,841;  177,970;32188,289;18,70606
 287,07; 6450,695;  194,771;32347,001;19,45720
 287,67; 6692,116;  195,172;32354,546;20,20233
 288,26; 6925,183;  184,971;32405,315;20,91912
 288,86; 7272,560;  186,570;32495,769;21,93180
 289,46; 7634,731;  186,371;32680,542;22,92214
 290,05; 7978,912;  179,172;32626,997;24,03779
 290,65; 8433,048;  185,370;32941,526;25,17902
 291,24; 8941,031;  194,771;32878,468;26,76031
 291,84; 9351,965;  202,970;33219,118;27,71067
 292,44; 9864,051;  169,373;33300,709;29,26136
 293,03;10386,446;  246,171;33547,421;30,45013
 293,63;10787,297;  186,770;33615,584;31,71075
 294,22;11283,750;  208,371;33698,513;33,07056
 294,82;11771,291;  182,368;33743,792;34,53049
 295,41;12038,514;  156,771;33498,702;35,63604
 296,01;12455,798;  227,569;33383,433;36,88105
 296,61;12686,962;  194,371;33207,630;37,84113
 297,20;12977,264;  196,769;32826,653;39,16807
 297,80;13195,027;  204,972;32694,780;39,98194
 298,39;13385,979;  175,570;32287,366;41,13881
 298,99;13648,190;  191,569;32103,970;42,16737
 299,58;13836,668;  202,372;31960,897;42,93114
 300,18;13957,465;  209,372;31811,026;43,50435
 300,78;13992,732;  171,771;31484,299;44,13876
 301,37;14306,364;  207,968;31547,997;44,98527
 301,97;14553,704;  187,571;31411,847;46,00950
 302,56;14697,975;  182,570;31378,165;46,53030
 303,16;14918,974;  154,770;31499,886;47,10209
 303,75;15154,022;  174,571;31460,900;47,87858
 304,35;15458,572;  188,573;31471,397;48,81273
 304,94;15622,229;  194,771;31687,381;48,98755
 305,54;15849,464;  187,371;31750,070;49,62216
 306,13;15843,697;  151,573;31621,627;49,86367
 306,73;16031,438;  159,173;31458,566;50,71110
 307,33;16138,977;  198,772;31266,869;51,30731
 307,92;16338,759;  181,971;31330,916;51,86946
 308,52;16648,850;  169,770;31983,457;51,79871
 309,11;17168,033;  176,969;32351,365;52,80927
 309,71;17327,217;  152,968;32616,552;52,90312
 310,30;17568,063;  174,971;32954,887;53,06021
 310,90;18029,635;  185,971;33262,687;53,94630
 311,49;18134,054;  183,771;33381,562;54,07071
 312,09;18328,064;  151,372;33501,122;54,50323
 312,68;18688,806;  211,971;33895,860;54,85363
 313,28;18814,188;  158,371;34163,316;54,86207
 313,87;19040,238;  155,571;34084,705;55,65915
 314,47;19293,563;  180,169;34410,101;55,83825
 315,06;19328,971;  167,171;34623,354;55,61208
 315,66;19512,778;  175,372;34781,722;55,87820
 316,25;19618,841;  155,370;34635,211;56,44884
 316,85;19587,705;  151,972;34745,960;56,18240
 317,44;19739,029;  158,569;34808,042;56,51012
 318,04;19669,495;  154,570;34964,575;56,06125
 318,63;19811,024;  152,173;34926,013;56,53345
 319,22;19872,979;  179,570;35223,088;56,19701
 319,82;19855,809;  169,770;35286,149;56,05942
 320,41;19797,532;  180,770;35143,517;56,10761
 321,01;19908,571;  184,572;35123,206;56,45326
 321,60;19815,049;  168,770;35341,283;55,85691
 322,20;19717,856;  157,971;35299,850;55,65976
 322,79;19835,699;  208,771;35313,402;55,90980
 323,39;19842,065;  169,373;35372,034;55,88411
 323,98;19715,179;  144,771;35282,670;55,69601
 324,58;19602,864;  178,970;35129,905;55,57475
 325,17;19504,951;  196,170;35027,392;55,43527
 325,76;19291,155;  188,171;34881,219;55,06286
 326,36;18984,101;  149,972;34539,463;54,76711
 326,95;18952,888;  188,371;34192,512;55,18303
 327,55;18576,155;  153,970;33899,863;54,59089
 328,14;18302,493;  170,972;33373,200;54,60935
 328,74;17989,205;  209,170;33084,174;54,08375
 329,33;17813,732;  182,972;32760,777;54,11893
 329,92;17469,987;  158,569;31966,499;54,42485
 330,52;17096,203;  188,172;31457,277;54,07264
 331,11;16679,634;  179,770;31131,730;53,30798
 331,71;16268,335;  183,571;30498,361;53,05913
 332,30;16038,800;  180,371;29967,981;53,23834
 332,89;15665,009;  211,371;29360,253;53,01623
 333,49;15324,330;  177,171;28810,559;52,90034
 334,08;14938,569;  185,570;28460,415;52,17712
 334,68;14728,468;  184,370;28111,558;52,07863
 335,27;14450,963;  194,572;27666,421;51,89455
 335,86;14259,205;  225,970;27437,330;51,57124
 336,46;13976,060;  194,772;27302,755;50,83849
 337,05;13787,178;  170,170;27101,835;50,56133
 337,65;13569,196;  161,970;26927,606;50,09119
 338,24;13537,566;  230,171;26958,727;49,78718
 338,83;13346,220;  214,371;26752,013;49,48386
 339,43;13327,366;  166,370;26752,745;49,50279
 340,02;13149,716;  181,970;26565,382;49,15114
 340,61;13108,672;  175,971;26737,307;48,68995
 341,21;13095,491;  207,170;26763,374;48,53224
 341,80;12951,970;  187,370;26798,720;47,96675
 342,40;12917,572;  194,772;26864,163;47,70562
 342,99;12828,009;  180,971;26944,253;47,25518
 343,58;12825,304;  176,772;27133,577;46,92148
 344,18;12851,769;  180,572;27216,597;46,86783
 344,77;12901,103;  173,570;27606,039;46,39587
 345,36;12962,316;  160,371;27912,912;46,12891
 345,96;12997,903;  210,972;28078,872;45,88408
 346,55;12913,448;  176,173;28447,768;45,05326
 347,14;13069,756;  160,972;28783,106;45,10070
 347,74;13161,375;  139,974;29189,920;44,82419
 348,33;13263,799;  191,974;29817,918;44,12290
 348,92;13463,501;  183,775;30549,105;43,73318
 349,52;13575,920;  156,174;30955,103;43,57212
 350,11;13596,209;  162,170;31210,819;43,26771
 350,70;13519,773;  172,171;31120,364;43,12886
 351,29;13270,096;  152,368;30924,689;42,62834
 351,89;13153,734;  179,969;30993,518;42,10409
 352,48;13050,303;  148,171;30885,421;41,97556
 353,07;12901,189;  183,172;30877,907;41,43387
 353,67;12779,123;  190,175;30820,573;41,09952
 354,26;12550,913;  178,172;30601,753;40,66826
 354,85;12395,889;  177,172;30468,703;40,33707
 355,45;12134,191;  147,370;30439,404;39,57087
 356,04;12018,798;  173,573;30375,327;39,22032
 356,63;11803,842;  206,771;30066,646;38,83831
 357,22;11625,000;  184,368;29905,512;38,49324
 357,82;11384,065;  187,968;29668,706;37,97767
 358,41;11240,473;  199,771;29572,438;37,58836
 359,00;11052,808;  163,770;29435,592;37,19973
 359,60;10966,981;  185,571;29456,479;36,83319
 360,19;10682,604;  182,373;29120,338;36,28531
 360,78;10570,597;  182,770;29146,310;35,86518
 361,37;10370,224;  189,170;28916,701;35,44006
 361,97;10245,736;  182,971;28635,265;35,36715
 362,56;10003,568;  167,969;28360,780;34,88690
 363,15; 9930,473;  215,170;28158,481;34,76790
 363,74; 9619,347;  172,569;27752,539;34,25231
 364,34; 9401,882;  182,370;27352,554;33,93246
 364,93; 9163,361;  175,169;26963,065;33,55318
 365,52; 8905,205;  145,370;26728,130;32,95307
 366,11; 8649,394;  181,770;26167,240;32,58599
 366,71; 8474,979;  159,970;26022,688;32,15056
 367,30; 8250,003;  174,170;25559,416;31,81309
 367,89; 8060,963;  206,172;25401,865;31,17513
 368,48; 7893,600;  166,169;25075,721;31,02196
 369,07; 7649,916;  183,571;24633,164;30,53771
 369,67; 7508,564;  191,769;24284,979;30,36870
 370,26; 7326,169;  168,771;24087,545;29,92377
 370,85; 7142,906;  186,170;23838,483;29,41250
 371,44; 6968,081;  177,571;23618,579;28,96851
 372,03; 6915,467;  168,370;23337,002;29,12169
 372,63; 6695,100;  147,771;23093,550;28,53391
 373,22; 6582,621;  167,171;22783,439;28,36653
 373,81; 6339,035;  147,170;22461,635;27,74821
 374,40; 6255,221;  169,372;22139,047;27,70113
 374,99; 6148,832;  165,970;21953,443;27,46010
 375,59; 5937,041;  156,172;21667,828;26,87320
 376,18; 5913,099;  191,770;21468,872;26,88961
 376,77; 5821,819;  203,371;21364,952;26,55023
 377,36; 5744,150;  199,370;21278,940;26,30405
 377,95; 5591,804;  176,570;20936,669;26,08482
 378,55; 5510,285;  175,772;20880,606;25,76458
 379,14; 5406,565;  198,770;20761,892;25,32589
 379,73; 5345,629;  184,170;20648,651;25,22155
 380,32; 5308,607;  202,171;20712,913;24,89640
 380,91; 5222,895;  151,769;20583,445;24,81992
 381,50; 5174,338;  179,570;20550,771;24,51877
 382,10; 5130,321;  162,771;20394,913;24,55276
 382,69; 5104,952;  160,970;20364,549;24,47082
 383,28; 5019,730;  192,770;20401,829;23,88513
 383,87; 4990,274;  157,570;20188,334;24,12641
 384,46; 4916,761;  162,369;20195,735;23,73237
 385,05; 4950,610;  202,570;20207,523;23,73432
 385,64; 4897,965;  171,770;20158,440;23,64674
 386,24; 4838,079;  156,168;20099,553;23,47601
 386,83; 4841,530;  192,168;20144,447;23,30241
 387,42; 4833,790;  200,570;20295,621;23,05652
 388,01; 4897,096;  177,767;20546,811;23,16912
 388,60; 4942,881;  179,569;20726,841;23,18221
 389,19; 4911,721;  159,766;21010,611;22,79023
 389,78; 4999,362;  180,366;21128,927;23,00395
 390,37; 5169,922;  208,568;21641,549;23,14822
 390,96; 5166,982;  186,168;21815,620;23,02792
 391,56; 5167,873;  182,966;21914,379;22,93872
 392,15; 5237,178;  157,167;22239,463;23,00491
 392,74; 5258,650;  149,764;22406,546;22,95429
 393,33; 5362,154;  154,165;22663,977;23,13653
 393,92; 5477,082;  188,363;23131,835;23,05108
 394,51; 5506,200;  163,965;23327,444;23,06318
 395,10; 5609,116;  194,760;23569,872;23,16291
 395,69; 5643,181;  182,161;23573,066;23,34677
 396,28; 5669,852;  182,959;23658,331;23,37297
 396,87; 5734,531;  201,757;23993,409;23,25511
 397,46; 5739,198;  181,955;24041,473;23,29151
 398,06; 5863,085;  204,753;24189,344;23,59153
 398,65; 5852,435;  197,949;24189,052;23,56909
 399,24; 5957,636;  180,348;24500,131;23,75551
 399,83; 5948,421;  163,741;24445,460;23,82319
 400,42; 6035,566;  206,135;24512,385;23,98326
 401,01; 6076,918;  170,928;24724,112;24,05387
 401,60; 6168,197;  181,918;24816,096;24,30071
 402,19; 6177,576;  194,110;24662,362;24,45400
 402,78; 6202,410;  219,099;24613,473;24,52742
 403,37; 6213,771;  196,288;24505,274;24,75415
 403,96; 6227,144;  187,674;24293,776;25,05370
 404,55; 6242,952;  192,660;24133,732;25,27160
 405,14; 6187,232;  184,247;24038,022;25,16577
 405,73; 6296,616;  197,631;23981,267;25,64362
 406,32; 6294,825;  191,621;24101,578;25,52578
 406,91; 6243,203;  187,609;23737,316;25,71410
 407,50; 6269,178;  185,002;23539,545;26,05136
 408,09; 6216,988;  152,198;23115,950;26,41028
 408,68; 6198,948;  182,995;23193,869;26,14396
 409,27; 6275,128;  154,999;22857,262;26,95823
 409,86; 6274,346;  157,808;22774,037;27,04490
 410,45; 6364,267;  211,416;22694,697;27,36634
 411,04; 6395,778;  212,624;22573,806;27,65128
 411,63; 6353,449;  196,235;22229,067;27,94563
 412,22; 6343,985;  191,644;22057,939;28,13618
 412,81; 6271,971;  201,048;21784,907;28,12714
 413,40; 6328,519;  210,252;21438,664;28,82113
 413,99; 6282,417;  258,651;21227,216;28,72760
 414,58; 6194,215;  187,452;20694,737;29,29087
 415,17; 6169,312;  175,248;20501,298;29,48957
 415,76; 6132,861;  180,244;20395,432;29,44626
 416,35; 6197,277;  174,846;20161,732;30,13191
 416,94; 6231,018;  222,045;20313,714;29,90778
 417,53; 6354,340;  177,648;20493,672;30,40305
 418,12; 6459,567;  174,049;20614,393;30,75055
 418,71; 6561,713;  197,252;20941,732;30,68026
 419,30; 6654,392;  181,049;21012,852;31,07433
 419,89; 6798,738;  185,050;21163,001;31,52685
 420,48; 6989,782;  199,052;21489,970;31,89496
 421,07; 7031,230;  204,653;21596,176;31,91253
 421,66; 7120,970;  164,255;21538,096;32,54780
 422,25; 7140,163;  185,259;21534,257;32,57719
 422,84; 7194,551;  208,860;21487,749;32,82921
 423,43; 7209,107;  195,258;21191,232;33,40568
 424,02; 7208,840;  218,859;20971,837;33,68182
 424,60; 7060,292;  191,663;20564,538;33,71458
 425,19; 7067,741;  209,061;20305,406;34,12899
 425,78; 7078,414;  205,261;20207,342;34,36219
 426,37; 7146,001;  206,063;20111,059;34,86531
 426,96; 7163,200;  205,863;19945,049;35,24632
 427,55; 7100,096;  188,865;19762,574;35,30875
 428,14; 7083,024;  183,867;19519,125;35,68174
 428,73; 7104,519;  208,464;19341,737;36,04221
 429,32; 7140,886;  205,063;19425,276;36,08609
 429,91; 7244,570;  228,464;19418,805;36,56061
 430,50; 7249,231;  205,466;19183,005;37,11632
 431,08; 7227,435;  226,467;18999,311;37,29306
 431,67; 7245,229;  268,868;19016,987;37,21099
 432,26; 7252,327;  281,070;18905,633;37,43045
 432,85; 7136,460;  281,869;18476,831;37,67302
 433,44; 7108,070;  293,471;18078,520;38,31645
 434,03; 7026,221;  304,473;17738,947;38,55434
 434,62; 6851,278;  268,471;17308,235;38,63203
 435,21; 6874,649;  309,069;17213,975;38,83831
 435,79; 6856,551;  281,872;16934,179;39,48209
 436,38; 6854,176;  278,275;16896,072;39,57144
 436,97; 6837,974;  274,475;16729,837;39,88669
 437,56; 6850,853;  266,478;16623,825;40,25332
 438,15; 6819,442;  255,878;16496,161;40,41533
 438,74; 6917,138;  252,078;16499,268;41,02285
 439,33; 6914,548;  229,677;16456,341;41,19683
 439,91; 7008,711;  196,479;16520,581;41,73113
 440,50; 7068,960;  232,479;16621,240;41,71445
 441,09; 7143,603;  254,681;16749,826;41,76333
 441,68; 7157,370;  232,283;16730,041;41,97593
 442,27; 7255,885;  209,882;16687,816;42,76023
 442,86; 7225,577;  206,287;16651,772;42,68217
 443,44; 7337,050;  203,886;16753,004;43,10299
 444,03; 7454,001;  273,887;16791,849;43,46852
 444,62; 7421,558;  204,087;16619,601;43,96738
 445,21; 7376,014;  219,286;16471,340;44,03584
 445,80; 7387,192;  221,889;16363,863;44,38926
 446,39; 7386,113;  255,888;16196,422;44,73015
 446,97; 7239,489;  209,491;15841,813;44,97091
 447,56; 7185,929;  201,493;15706,886;45,04521
 448,15; 7122,134;  204,091;15505,975;45,21040
 448,74; 7156,393;  230,291;15290,758;45,98862
 449,33; 7124,348;  211,892;15142,083;46,29851
 449,91; 7011,899;  223,095;14894,015;46,27388
 450,50; 6963,438;  196,694;14714,040;46,61144
 451,09; 6950,738;  211,295;14708,166;46,48895
 451,68; 6981,246;  235,696;14536,163;47,17014
 452,26; 6965,579;  227,697;14402,943;47,53273
 452,85; 6900,311;  211,896;14299,357;47,47779
 453,44; 6973,780;  219,299;14312,838;47,92608
 454,03; 6985,773;  191,497;14305,367;48,13900
 454,61; 6986,125;  207,099;14368,230;47,87066
 455,20; 7164,200;  220,300;14521,704;48,55397
 455,79; 7149,124;  222,498;14447,995;48,69163
 456,38; 7277,013;  223,302;14552,908;49,22474
 456,97; 7359,197;  213,701;14622,094;49,59259
 457,55; 7280,857;  212,703;14558,695;49,26919
 458,14; 7436,832;  229,501;14553,453;50,31664
 458,73; 7397,346;  214,503;14483,287;50,33956
 459,31; 7493,763;  232,705;14529,387;50,78842
 459,90; 7563,702;  247,904;14600,360;50,97245
 460,49; 7673,489;  283,703;14696,165;51,27359
 461,08; 7682,815;  207,506;14867,089;50,99264
 461,66; 7762,196;  224,505;14888,910;51,40128
 462,25; 7880,157;  226,907;14940,115;52,01619
 462,84; 7938,732;  251,506;15011,281;52,08227
 463,43; 7872,035;  194,909;14974,511;51,94406
 464,01; 7913,759;  218,710;14995,271;52,07605
 464,60; 8001,186;  257,108;14803,201;53,23820
 465,19; 7876,488;  185,910;14720,475;52,91234
 465,77; 7886,392;  217,911;14554,854;53,48756
 466,36; 7918,334;  245,309;14525,559;53,73173
 466,95; 7723,436;  200,709;14226,494;53,63498
 467,53; 7648,790;  204,512;13914,149;54,29960
 468,12; 7565,675;  249,513;13740,122;54,23152
 468,71; 7469,147;  230,310;13415,162;54,90268
 469,29; 7314,233;  191,513;13187,353;54,80769
 469,88; 7194,704;  227,514;12883,731;55,04955
 470,47; 7324,886;  255,916;12949,820;55,68791
 471,06; 7301,752;  220,316;13005,744;55,38677
 471,64; 7366,521;  220,515;13189,379;55,10125
 472,23; 7387,926;  196,519;13015,701;56,09880
 472,81; 7455,012;  188,917;13223,040;55,74671
 473,40; 7548,180;  191,319;13326,682;56,00805
 473,99; 7716,064;  285,319;13423,177;56,55979
 474,57; 7838,456;  209,519;13701,757;56,54315
 475,16; 7906,736;  222,117;13824,843;56,49322
 475,75; 8022,831;  225,720;13942,558;56,84335
 476,33; 8149,330;  231,721;14015,988;57,43946
 476,92; 8210,106;  233,519;13987,799;57,99349
 477,51; 8256,905;  229,721;14118,754;57,79513
 478,09; 8262,104;  232,321;14143,545;57,72161
 478,68; 8258,689;  216,521;14012,349;58,29420
 479,27; 8368,826;  233,520;14178,435;58,33887
 479,85; 8359,837;  218,121;14165,872;58,37296
 480,44; 8470,916;  207,122;14306,392;58,61150
 481,02; 9237,111;  229,523;16077,972;56,83577
 481,61;10520,267;  254,923;17850,264;58,34126
 482,20;11352,609;  254,723;19118,411;58,83200
 482,78;11803,501;  260,922;19733,161;59,27710
 483,37;12094,127;  262,525;19948,568;60,10147
 483,95;12301,422;  295,325;20382,571;59,76975
 484,54;12469,064;  297,122;20576,671;60,02077
 485,13;12545,571;  258,327;20626,963;60,32433
 485,71;12447,700;  265,126;20428,959;60,41795
 486,30;12402,326;  288,926;20149,750;60,99143
 486,88;12247,262;  315,727;19817,991;61,18026
 487,47;11889,341;  305,527;19173,432;61,39428
 488,05;11360,006;  304,528;18210,999;61,74012
 488,64;10550,104;  297,729;16839,124;61,98011
 489,23; 9529,886;  293,128;14766,050;63,82096
 489,81; 8113,278;  292,329;12721,186;62,92573
 490,40; 7577,892;  236,929;12197,408;61,37683
 490,98; 7460,860;  233,530;11871,146;62,10319
 491,57; 7420,333;  277,529;11845,499;61,74640
 492,15; 7421,105;  261,530;11813,481;61,97719
 492,74; 7346,213;  257,928;11767,515;61,58592
 493,32; 7345,095;  259,930;11624,078;62,34665
 493,91; 7255,225;  231,331;11482,743;62,42678
 494,50; 7267,468;  245,333;11400,981;62,94690
 495,08; 7239,274;  225,733;11356,514;63,01032
 495,67; 7287,594;  241,930;11337,151;63,50178
 496,25; 7181,420;  210,132;11263,524;63,06922
 496,84; 7198,557;  202,730;11298,531;63,04931
 497,42; 7116,352;  197,532;11106,042;63,42589
 498,01; 7228,211;  219,131;11139,496;64,18358
 498,59; 7130,983;  203,133;11065,034;63,78119
 499,18; 7155,760;  202,331;11012,202;64,32481
 499,76; 7114,489;  205,132;10907,562;64,55877
 500,35; 7010,192;  203,734;10683,262;64,95004
 500,93; 6965,057;  187,332;10677,317;64,61138
 501,52; 6943,057;  200,133;10557,596;65,10208
 502,10; 6952,368;  208,535;10546,594;65,23307
 502,69; 6880,323;  196,336;10400,362;65,50343
 503,27; 6750,763;  190,133;10262,506;65,13490
 503,86; 6703,157;  209,735;10065,112;65,88710
 504,44; 6677,056;  182,936;10030,290;65,94787
 505,03; 6499,499;  162,736; 9694,137;66,48301
 505,61; 6427,217;  192,536; 9702,182;65,56165
 506,19; 6392,946;  204,136; 9472,108;66,77631
 506,78; 6227,763;  172,338; 9340,713;66,04688
 507,36; 6141,277;  183,936; 9137,175;66,53840
 507,95; 6128,207;  181,139; 9036,995;67,15407
 508,53; 6006,823;  187,138; 8897,027;66,81699
 509,12; 5929,322;  199,738; 8754,622;66,97442
 509,70; 5841,585;  204,739; 8637,406;66,84535
 510,29; 5702,024;  205,340; 8415,965;66,94598
 510,87; 5605,653;  174,738; 8270,731;67,08151
 511,46; 5484,704;  177,338; 8086,477;67,10421
 512,04; 5420,954;  186,939; 7957,770;67,35463
 512,62; 5348,759;  196,138; 7778,868;67,95206
 513,21; 5203,747;  171,140; 7678,090;67,03931
 513,79; 5148,529;  197,143; 7549,188;67,34707
 514,38; 5044,408;  181,142; 7320,047;68,12342
 514,96; 4971,132;  209,742; 7281,093;67,33352
 515,54; 4871,685;  181,542; 7104,679;67,74593
 516,13; 4801,575;  186,942; 7021,976;67,51441
 516,71; 4726,014;  192,944; 6926,813;67,31747
 517,30; 4619,361;  181,145; 6826,840;66,78332
 517,88; 4597,665;  188,345; 6746,811;67,23097
 518,46; 4518,209;  170,545; 6594,672;67,67712
 519,05; 4513,938;  179,746; 6495,754;68,62233
 519,63; 4456,975;  191,345; 6542,018;67,16815
 520,22; 4440,313;  217,947; 6442,155;67,83780
 520,80; 4387,004;  187,147; 6364,261;67,99061
 521,38; 4409,044;  210,146; 6401,013;67,82408
 521,97; 4302,591;  200,348; 6282,943;67,44231
 522,55; 4362,692;  199,748; 6282,800;68,43512
 523,13; 4365,573;  179,949; 6301,529;68,37490
 523,72; 4315,799;  168,345; 6249,243;68,20463
 524,30; 4471,919;  211,950; 6385,078;69,00829
 524,89; 4447,711;  176,548; 6358,449;69,09141
 525,47; 4557,915;  200,750; 6540,633;68,72628
 526,05; 4554,247;  161,550; 6521,777;69,06510
 526,64; 4685,764;  201,551; 6660,943;69,42160
 527,22; 4792,989;  202,350; 6749,594;70,11559
 527,80; 4850,598;  216,751; 6871,971;69,62726
 528,39; 4892,649;  197,351; 6962,595;69,40324
 528,97; 5063,368;  197,551; 7113,440;70,35707
 529,55; 5210,029;  203,749; 7325,624;70,29441
 530,14; 5303,811;  207,752; 7528,922;69,60717
 530,72; 5363,709;  185,551; 7652,030;69,35207
 531,30; 5497,503;  177,752; 7705,828;70,66547
 531,89; 5535,332;  197,552; 7831,933;69,91766
 532,47; 5641,310;  228,752; 7901,317;70,54430
 533,05; 5675,685;  233,151; 8000,980;70,06507
 533,63; 5739,969;  227,153; 8024,404;70,70204
 534,22; 5769,582;  184,953; 8097,148;70,58255
 534,80; 5817,661;  208,154; 8130,623;70,80504
 535,38; 5851,236;  261,952; 8300,477;69,53121
 535,97; 5833,678;  217,952; 8189,603;70,44621
 536,55; 5843,224;  239,754; 8349,577;69,09485
 537,13; 5859,622;  259,552; 8289,256;69,74193
 537,71; 5891,788;  298,752; 8354,350;69,43043
 538,30; 5879,430;  324,553; 8330,979;69,38023
 538,88; 5965,262;  370,155; 8471,232;69,06621
 539,46; 6079,334;  409,954; 8696,680;68,41520
 540,05; 6154,312;  418,554; 8885,743;67,74099
 540,63; 6320,695;  489,755; 8987,277;68,61930
 541,21; 6426,456;  514,355; 9101,578;68,84765
 541,79; 6482,142;  550,155; 9207,482;68,51985
 542,38; 6627,049;  583,154; 9437,837;68,25648
 542,96; 6745,590;  595,756; 9546,966;68,70394
 543,54; 6880,207;  618,955; 9809,719;68,12547
 544,12; 6948,931;  575,756; 9945,922;68,01560
 544,70; 7032,328;  567,556; 9959,138;68,83581
 545,29; 7071,833;  575,354;10202,475;67,48101
 545,87; 7214,142;  539,155;10182,482;69,21872
 546,45; 7156,067;  494,954;10226,408;68,44931
 547,03; 7246,220;  481,555;10286,689;68,99106
 547,62; 7363,221;  445,155;10398,845;69,50252
 548,20; 7456,627;  442,556;10554,508;69,36417
 548,78; 7563,570;  423,559;10673,898;69,65634
 549,36; 7626,326;  378,158;10871,763;69,07224
 549,94; 7747,747;  338,556;10875,057;70,31927
 550,53; 7933,961;  337,358;11173,922;70,10159
 551,11; 8022,760;  320,159;11369,121;69,71334
 551,69; 8223,072;  321,158;11645,981;69,77516
 552,27; 8363,089;  263,357;11964,718;69,22043
 552,85; 8619,561;  262,159;12227,130;69,84891
 553,44; 8881,146;  260,958;12593,143;69,89992
 554,02; 9114,225;  280,559;12963,584;69,64952
 554,60; 9336,151;  217,759;13196,779;70,25486
 555,18; 9570,869;  271,558;13667,468;69,41904
 555,76; 9806,238;  251,559;13974,632;69,62493
 556,34;10125,060;  240,560;14358,681;70,01286
 556,93;10348,579;  228,358;14680,944;70,02360
 557,51;10596,858;  209,960;14982,768;70,31092
 558,09;10862,823;  232,158;15343,801;70,34751
 558,67;11024,504;  236,761;15780,364;69,40310
 559,25;11247,641;  255,961;15964,284;69,97361
 559,83;11413,200;  221,562;16289,350;69,65264
 560,41;11688,562;  221,760;16657,165;69,76891
 561,00;11919,674;  218,961;17034,859;69,58126
 561,58;12104,424;  214,160;17279,088;69,67661
 562,16;12270,658;  211,959;17477,464;69,84273
 562,74;12487,266;  185,759;17965,327;69,18901
 563,32;12727,288;  200,362;18437,359;68,68963
 563,90;13007,375;  224,961;18787,212;68,86241
 564,48;13193,350;  225,160;19233,648;68,22315
 565,06;13613,840;  212,161;19645,953;68,96070
 565,65;14084,639;  215,363;20566,587;68,14959
 566,23;14529,144;  265,961;21284,202;67,86097
 566,81;14999,300;  220,561;21811,894;68,44756
 567,39;15658,657;  241,762;22814,523;68,29867
 567,97;15999,789;  243,961;23468,486;67,84134
 568,55;16499,748;  233,162;24299,977;67,58928
 569,13;16983,084;  208,961;24989,088;67,69184
 569,71;17487,174;  226,159;25929,073;67,15587
 570,29;18267,796;  262,958;26884,706;67,63206
 570,87;18706,658;  260,159;27621,986;67,41691
 571,45;19006,679;  260,561;28308,382;66,83627
 572,03;19289,643;  207,762;28687,954;67,00054
 572,61;19702,965;  205,562;29493,539;66,57136
 573,20;20132,540;  253,960;30196,149;66,38987
 573,78;20422,302;  237,562;30789,806;66,06631
 574,36;20709,790;  247,561;31220,242;66,06541
 574,94;20957,630;  271,162;31592,384;66,04617
 575,52;21011,277;  227,364;31876,615;65,66952
 576,10;21302,709;  291,163;32314,782;65,61265
 576,68;21682,459;  281,962;32978,611;65,45165
 577,26;21990,328;  282,765;33716,239;64,92763
 577,84;22264,970;  314,361;34175,662;64,82506
 578,42;22438,879;  332,563;34450,721;64,79340
 579,00;22365,030;  282,962;34449,854;64,63002
 579,58;22530,127;  314,963;34647,623;64,70563
 580,16;22531,681;  304,563;34683,208;64,65385
 580,74;22519,303;  320,163;35084,276;63,85648
 581,32;22606,718;  300,363;35042,672;64,20516
 581,90;22482,755;  308,963;35056,770;63,81350
 582,48;22459,409;  323,563;35155,656;63,55015
 583,06;22511,510;  327,563;35249,557;63,52429
 583,64;22531,459;  322,562;35423,889;63,27082
 584,22;22214,761;  320,164;35040,284;63,06026
 584,80;22204,676;  344,963;34743,607;63,54818
 585,38;21867,650;  333,160;34402,452;63,20792
 585,96;21755,403;  315,962;34409,142;62,88484
 586,54;21721,890;  351,964;34509,758;62,56237
 587,12;21853,990;  306,564;34596,659;62,83863
 587,70;21825,597;  333,362;34763,209;62,42327
 588,28;21721,078;  320,363;34823,468;62,02547
 588,86;21716,304;  312,964;35000,232;61,70373
 589,44;21644,919;  299,765;35002,445;61,50866
 590,02;21775,241;  311,965;35292,308;61,35811
 590,59;21743,392;  283,364;35307,920;61,27138
 591,17;21826,105;  275,567;35479,458;61,21635
 591,75;21725,357;  279,566;35627,726;60,67018
 592,33;21894,481;  292,366;35740,399;60,94024
 592,91;21936,883;  243,367;36020,216;60,63563
 593,49;22072,843;  253,767;36438,908;60,29844
 594,07;22137,916;  263,167;36604,270;60,19286
 594,65;22101,410;  294,964;36588,969;60,08278
 595,23;22135,430;  266,765;37001,975;59,53053
 595,81;22213,066;  254,965;37266,968;59,32697
 596,39;22133,375;  252,565;37293,740;59,07159
 596,97;22210,999;  251,967;37509,721;58,93815
 597,55;22110,904;  256,365;37318,563;58,96720
 598,12;21929,051;  237,968;37345,902;58,45403
 598,70;21876,054;  234,367;37422,990;58,19438
 599,28;22025,524;  257,567;37742,333;58,07148
 599,86;21898,344;  238,367;37792,313;57,67697
 600,44;21694,036;  205,967;37837,897;57,10063
 601,02;21780,094;  252,969;37871,236;57,22519
 601,60;21550,855;  247,766;38017,964;56,40185
 602,18;21563,456;  211,768;37952,129;56,57521
 602,75;21440,158;  231,365;37897,901;56,30673
 603,33;21368,838;  238,167;37944,028;56,04081
 603,91;21397,673;  235,169;37847,926;56,26417
 604,49;21252,391;  240,167;37988,858;55,66345
 605,07;21182,873;  267,166;37989,735;55,44614
 605,65;21152,612;  275,568;38103,299;55,18979
 606,23;21111,516;  313,964;38417,871;54,58115
 606,80;21062,416;  387,765;38345,005;54,46827
 607,38;21020,272;  416,568;38379,543;54,27315
 607,96;20920,918;  473,965;38471,967;53,81060
 608,54;20746,442;  556,368;38527,803;53,17174
 609,12;20778,458;  539,765;38612,748;53,15762
 609,70;20596,377;  566,567;38558,532;52,72117
 610,27;20621,098;  583,965;38723,908;52,53582
 610,85;20460,381;  613,567;38653,055;52,17424
 611,43;20419,183;  590,967;38701,742;52,02785
 612,01;20124,311;  553,366;38429,382;51,67108
 612,59;20009,791;  558,967;38572,284;51,16845
 613,16;19839,074;  545,364;38430,980;50,92621
 613,74;19631,165;  498,767;38313,171;50,59553
 614,32;19556,695;  441,568;38356,385;50,41598
 614,90;19390,901;  421,966;37970,909;50,51789
 615,48;19128,489;  377,365;37840,010;50,05286
 616,05;19002,484;  335,764;37790,131;49,83857
 616,63;18765,050;  347,564;37695,651;49,31307
 617,21;18645,370;  318,965;37566,661;49,20145
 617,79;18478,716;  321,566;37422,331;48,94010
 618,36;18253,703;  317,366;37454,440;48,29766
 618,94;18005,724;  270,365;37060,621;48,20668
 619,52;17858,912;  298,764;36965,252;47,89155
 620,10;17754,955;  269,565;36874,987;47,76721
 620,67;17608,521;  287,364;36807,394;47,42920
 621,25;17408,270;  299,566;36373,517;47,42675
 621,83;17241,595;  292,565;36417,269;46,91812
 622,41;17196,171;  318,765;36510,592;46,63320
 622,98;16992,267;  307,364;36334,213;46,31241
 623,56;16866,949;  305,963;36379,316;45,90919
 624,14;16747,404;  258,167;36056,749;46,06115
 624,72;16549,254;  273,565;36110,078;45,41650
 625,29;16568,990;  252,364;35955,259;45,70113
 625,87;16459,172;  300,966;36094,026;45,14341
 626,45;16212,819;  257,563;35941,085;44,71323
 627,02;16152,495;  266,766;35895,646;44,58666
 627,60;15981,824;  251,167;35822,259;44,22315
 628,18;15939,315;  244,365;35763,548;44,18725
 628,76;15817,604;  246,764;35870,280;43,70944
 629,33;15758,544;  269,364;35839,123;43,54592
 629,91;15599,955;  268,565;35889,587;43,04029
 630,49;15611,415;  276,764;35956,892;42,97813
 631,06;15581,668;  277,964;36097,795;42,72411
 631,64;15514,727;  279,563;36138,753;42,48608
 632,22;15285,160;  229,363;35886,519;42,22377
 632,79;15351,201;  236,363;36219,263;42,00562
 633,37;15247,394;  241,966;36164,868;41,77120
 633,95;15211,866;  254,963;36379,551;41,40366
 634,52;15183,042;  225,965;36519,239;41,21171
 635,10;15105,849;  237,565;36531,728;40,96605
 635,68;15085,745;  223,963;36626,567;40,82615
 636,25;14972,693;  227,562;36805,065;40,31202
 636,83;14989,318;  202,364;36852,080;40,34671
 637,41;14937,902;  232,762;36929,937;40,07158
 637,98;14858,736;  240,162;37154,764;39,60106
 638,56;14865,910;  226,961;37210,748;39,58207
 639,13;14733,571;  212,564;37252,383;39,20377
 639,71;14768,023;  266,964;37549,434;38,89511
 640,29;14530,318;  211,964;37153,267;38,75974
 640,86;14502,113;  230,164;37489,945;38,30390
 641,44;14352,051;  211,764;37365,822;38,05853
 642,02;14245,703;  241,964;37456,499;37,62976
 642,59;14310,212;  209,564;37651,177;37,66036
 643,17;14043,864;  215,764;37740,454;36,85067
 643,74;14017,659;  227,564;37589,132;36,90984
 644,32;13982,025;  243,964;37598,009;36,77797
 644,89;13849,962;  239,564;37716,287;36,31694
 645,47;13768,043;  269,364;37663,564;36,09832
 646,05;13646,695;  235,364;37667,042;35,82883
 646,62;13571,918;  229,765;37442,319;35,85390
 647,20;13458,142;  230,965;37713,197;35,28919
 647,77;13397,508;  203,765;37561,474;35,31732
 648,35;13297,588;  205,965;37397,551;35,20050
 648,92;13181,954;  236,965;37432,229;34,80279
 649,50;13062,178;  176,965;37285,506;34,72304
 650,08;12866,115;  196,965;37310,984;34,13576
 650,65;12906,196;  230,365;37572,261;33,94533
 651,23;13013,991;  196,765;38502,139;33,46065
 651,80;13215,071;  199,965;39424,016;33,18144
 652,38;13240,009;  218,965;39698,694;32,98159
 652,95;13271,804;  196,765;40069,171;32,79220
 653,53;13275,313;  228,165;40138,648;32,69103
 654,10;13261,107;  242,565;40354,726;32,45535
 654,68;13111,331;  202,165;40204,403;32,27111
 655,25;13004,983;  199,965;40496,681;31,77683
 655,83;13014,206;  194,965;40659,958;31,67983
 656,40;12988,429;  233,765;40666,636;31,54528
 656,98;12886,367;  210,165;40604,713;31,38097
 657,55;12755,590;  205,566;40348,391;31,26343
 658,13;12537,957;  202,366;39910,468;31,06568
 658,70;12342,894;  218,366;39739,745;30,67840
 659,28;11989,975;  193,166;38768,623;30,58113
 659,85;11663,341;  213,366;37923,300;30,36329
 660,43;11626,136;  231,366;38173,578;30,03191
 661,00;11555,359;  213,166;38140,655;29,90494
 661,58;11556,440;  198,966;38531,533;29,62878
 662,15;11503,949;  183,366;38548,410;29,50755
 662,73;11594,743;  245,966;39044,488;29,25054
 663,30;11594,538;  215,566;39303,365;29,11131
 663,88;11587,333;  199,966;39299,442;29,12409
 664,45;11482,271;  196,766;39619,720;28,62674
 665,03;11553,494;  215,166;40113,397;28,41812
 665,60;11645,860;  260,566;40505,075;28,29030
 666,17;11532,655;  214,766;40460,152;28,12220
 666,75;11654,736;  216,166;40839,830;28,15740
 667,32;11540,959;  225,566;41222,107;27,60085
 667,90;11601,468;  198,766;41635,185;27,51855
 668,47;11580,406;  224,966;41620,662;27,43145
 669,05;11583,629;  212,167;42125,139;27,13113
 669,62;11589,138;  187,567;42222,417;27,12409
 670,19;11524,647;  195,967;42072,294;27,05271
 670,77;11497,442;  204,767;42438,372;26,73860
 671,34;11459,665;  229,567;42484,249;26,57717
 671,92;11388,746;  188,167;42555,727;26,43669
 672,49;11387,255;  215,167;42680,604;26,30866
 673,06;11300,621;  169,967;42731,482;26,15192
 673,64;11288,844;  192,567;42741,559;26,07883
 674,21;11162,639;  189,767;42651,636;25,84171
 674,79;11161,148;  192,567;42965,714;25,64361
 675,36;11096,229;  223,767;42944,591;25,45003
 675,93;11015,309;  207,967;42904,469;25,31201
 676,51;10936,104;  215,567;43098,746;24,99940
 677,08;10928,899;  210,967;43232,024;24,91322
 677,65;10877,836;  210,167;43365,901;24,71901
 678,23;10883,203;  209,567;43610,179;24,59328
 678,80;10878,569;  194,967;43687,256;24,56436
 679,38;10789,506;  185,567;43810,733;24,30693
 679,95;10847,158;  198,368;44029,211;24,29520
 680,52;10801,239;  200,968;44211,488;24,08577
 681,10;10868,748;  216,968;44679,566;23,95672
 681,67;10891,543;  212,368;45044,843;23,82018
 682,24;10821,480;  185,368;45052,921;23,70558
 682,82;10879,561;  196,768;45621,998;23,51731
 683,39;10883,213;  218,368;46011,476;23,28919
 683,96;10908,579;  206,168;46193,953;23,27229
 684,54;10908,231;  177,968;46633,031;23,09816
 685,11;11018,311;  224,968;46853,308;23,14760
 685,68;10994,963;  212,968;47257,785;22,91856
 686,25;10956,472;  195,768;47467,063;22,76372
 686,83;10945,553;  179,168;47447,340;22,77724
 687,40;10931,062;  184,368;47926,018;22,51010
 687,97;10932,857;  218,968;48281,895;22,29138
 688,55;10886,794;  181,568;48410,373;22,19675
 689,12;10894,589;  182,368;48523,650;22,15957
 689,69;10854,384;  186,168;48757,928;21,96382
 690,26;10848,036;  185,168;48923,805;21,87765
 690,84;10771,831;  188,968;49088,882;21,64188
 691,41;10745,054;  214,969;49135,360;21,52494
 691,98;10751,706;  204,769;49439,637;21,42168
 692,56;10623,786;  184,969;49458,515;21,18544
 693,13;10574,010;  246,969;49461,192;20,98385
 693,70;10636,662;  210,369;49672,870;21,07919
 694,27;10541,028;  192,969;49684,347;20,90881
 694,84;10463,251;  193,369;49844,425;20,68412
 695,42;10490,760;  228,769;49975,702;20,62839
 695,99;10396,269;  186,569;50355,379;20,35069
 696,56;10379,493;  186,569;50230,457;20,36797
 697,13;10352,859;  202,169;50660,334;20,11704
 697,71;10363,368;  171,569;50584,612;20,21659
 698,28;10401,591;  200,969;50862,089;20,13501
 698,85;10320,957;  175,969;51010,167;19,95701
 699,42;10309,467;  166,369;51064,844;19,92810
 699,99;10340,976;  192,769;51126,522;19,92432
 700,57;10303,056;  195,769;51344,599;19,76054
 701,14;10300,851;  183,769;51441,476;19,73768
 701,71;10238,074;  224,169;51729,554;19,44244
 702,28;10147,583;  189,369;51685,431;19,33782
 702,85;10111,378;  216,570;51676,309;19,22825
 703,43;10165,744;  194,770;51904,386;19,28263
 704,00;10140,111;  223,770;52188,864;19,08270
 704,57;10106,048;  222,170;51968,341;19,10070
 705,14;10081,557;  238,970;52528,019;18,82342
 705,71;10038,923;  238,970;52596,096;18,71752
 706,28; 9975,861;  219,770;52301,373;18,73232
 706,86;10041,084;  235,370;52719,051;18,68336
 707,43; 9984,308;  258,170;52483,928;18,62326
 708,00; 9914,103;  238,970;52641,806;18,46299
 708,57; 9828,469;  204,170;52481,083;18,41023
 709,14; 9826,406;  241,770;52773,961;18,24526
 709,71; 9822,344;  210,770;52768,438;18,28767
 710,28; 9801,139;  213,970;53039,716;18,14867
 710,86; 9795,076;  222,570;53179,193;18,07613
 711,43; 9802,014;  231,170;53178,870;18,07603
 712,00; 9693,237;  219,770;53330,348;17,83725
 712,57; 9762,318;  233,170;53295,225;17,95850
 713,14; 9773,970;  208,370;53449,903;17,96642
 713,71; 9673,907;  228,371;53334,380;17,78619
 714,28; 9669,131;  208,371;53302,258;17,81893
 714,85; 9621,497;  200,171;53229,935;17,76611
 715,42; 9607,578;  204,171;53233,813;17,73236
 716,00; 9619,944;  274,371;53582,890;17,53111
 716,57; 9570,310;  210,171;53702,167;17,49820
 717,14; 9538,248;  188,971;53671,045;17,48114
 717,71; 9511,185;  183,971;53611,322;17,45775
 718,28; 9569,980;  216,971;53832,000;17,44475
 718,85; 9536,775;  186,571;53962,077;17,38748
 719,42; 9495,712;  223,771;53933,555;17,26304
 719,99; 9445,936;  191,771;53690,232;17,29800
 720,56; 9457,159;  211,371;54167,910;17,13562
 721,13; 9479,240;  210,571;54121,387;17,19260
 721,70; 9394,320;  202,171;54006,865;17,08429
 722,27; 9385,972;  217,171;54134,942;17,00516
 722,84; 9417,338;  252,771;54232,419;16,97782
 723,41; 9366,847;  188,571;54242,497;16,97985
 723,98; 9287,928;  198,571;54586,774;16,71200
 724,55; 9379,865;  230,371;54513,652;16,85509
 725,12; 9307,946;  168,372;54409,729;16,84983
 725,69; 9330,741;  190,572;54631,407;16,78918
 726,27; 9393,821;  208,772;54839,084;16,81310
 726,84; 9411,187;  204,172;55140,362;16,75947
 727,41; 9392,554;  217,172;54813,639;16,80582
 727,98; 9402,206;  222,372;55353,716;16,65084
 728,55; 9434,286;  250,572;55086,394;16,74765
 729,12; 9384,367;  200,972;55243,871;16,68407
 729,69; 9422,304;  219,772;55415,549;16,67253
 730,26; 9394,670;  217,372;55694,226;16,54257
 730,82; 9314,037;  209,772;55473,904;16,47409
 731,39; 9278,974;  220,972;55566,181;16,36637
 731,96; 9410,483;  181,972;55957,259;16,54588
 732,53; 9365,707;  212,972;56028,336;16,39823
 733,10; 9430,216;  208,972;56151,813;16,48333
 733,67; 9413,439;  200,972;56541,291;16,35146
 734,24; 9328,948;  206,972;55959,168;16,36164
 734,81; 9393,171;  234,372;56280,646;16,34150
 735,38; 9308,252;  216,372;56038,923;16,28711
 735,95; 9306,761;  206,573;55793,401;16,37112
 736,52; 9305,127;  239,973;56073,078;16,23616
 737,09; 9288,351;  218,973;55695,556;16,34812
 737,66; 9379,288;  269,173;55913,033;16,37218
 738,23; 9333,083;  195,373;56021,110;16,36828
 738,80; 9340,306;  237,773;56286,188;16,24048
 739,37; 9368,530;  237,573;56592,065;16,20271
 739,94; 9461,467;  213,573;56504,343;16,42879
 740,51; 9462,119;  286,973;56571,020;16,30150
 741,07; 9381,200;  199,373;56462,298;16,31950
 741,64; 9475,423;  251,573;56792,775;16,31350
 742,21; 9440,361;  215,973;56653,853;16,34432
 742,78; 9347,870;  194,973;56474,130;16,26339
 743,35; 9420,950;  214,173;56710,607;16,29621
 743,92; 9468,602;  247,373;56925,485;16,26947
 744,49; 9479,826;  237,973;56769,762;16,34806
 745,06; 9416,620;  200,573;56655,440;16,32463
 745,63; 9474,272;  189,373;56752,117;16,41522
 746,19; 9482,067;  204,773;56975,195;16,34177
 746,76; 9433,576;  210,973;56909,872;16,26593
 747,33; 9460,514;  217,174;56688,150;16,36830
 747,90; 9507,309;  227,974;57094,427;16,31777
 748,47; 9547,818;  228,174;56888,104;16,44839
 749,04; 9506,612;  228,574;56982,582;16,34781
 749,61; 9530,836;  209,974;56797,859;16,47148
 750,17; 9574,773;  212,374;56931,137;16,50671
 750,74; 9555,711;  228,374;56910,214;16,45560
 751,31; 9498,077;  194,174;56734,292;16,45540
 751,88; 9520,586;  193,774;56596,569;16,53608
 752,45; 9540,381;  213,974;56822,247;16,47534
 753,02; 9520,462;  209,374;56688,524;16,48588
 753,58; 9525,971;  193,974;56519,402;16,56800
 754,15; 9609,623;  223,774;56777,479;16,59635
 754,72; 9500,274;  193,574;56506,156;16,52686
 755,29; 9529,355;  183,774;56333,834;16,64394
 755,86; 9592,864;  222,374;56512,111;16,64689
 756,42; 9623,087;  221,574;56376,989;16,74195
 756,99; 9532,596;  191,974;56591,266;16,56159
 757,56; 9559,820;  209,774;56331,544;16,66028
 758,13; 9513,615;  176,174;56219,621;16,66107
 758,70; 9661,981;  204,975;56289,899;16,86194
 759,26; 9625,633;  198,175;56434,776;16,76392
 759,83; 9668,428;  207,175;56603,453;16,77638
 760,40; 9587,794;  204,575;56281,331;16,73281
 760,97; 9647,446;  203,775;56472,208;16,78325
 761,53; 9617,669;  192,375;56080,686;16,86452
 762,10; 9652,321;  174,575;56038,363;16,96581
 762,67; 9692,401;  221,575;56070,641;16,95790
 763,24; 9621,768;  164,375;55565,118;17,07088
 763,80; 9631,134;  199,575;55610,596;17,02109
 764,37; 9654,929;  181,175;55604,673;17,09339
 764,94; 9629,295;  178,175;55208,350;17,17443
 765,50; 9613,661;  168,575;55191,628;17,16569
 766,07; 9670,742;  210,375;55220,505;17,19750
 766,64; 9554,965;  191,575;54901,983;17,11446
 767,21; 9654,188;  189,975;54870,260;17,30827
 767,77; 9606,697;  206,375;54707,338;17,24799
 768,34; 9682,635;  210,775;54664,215;17,39442
 768,91; 9688,287;  190,175;54295,093;17,55499
 769,47; 9678,796;  192,376;54498,370;17,46846
 770,04; 9666,019;  209,976;54468,247;17,42784
 770,61; 9649,385;  187,176;54240,525;17,50532
 771,18; 9671,466;  188,776;54080,402;17,59585
 771,74; 9747,404;  210,576;54206,080;17,66226
 772,31; 9776,484;  211,576;54057,757;17,76339
 772,88; 9687,850;  178,176;53704,835;17,76624
 773,44; 9673,359;  191,776;53520,312;17,77957
 774,01; 9722,297;  189,776;53690,790;17,81746
 774,58; 9704,806;  171,776;53432,467;17,89881
 775,14; 9818,744;  184,376;53531,344;18,05982
 775,71; 9813,110;  191,776;53402,422;18,08160
 776,27; 9890,190;  233,976;53302,099;18,19588
 776,84; 9912,557;  246,976;53488,977;18,15405
 777,41; 9891,066;  207,976;53298,054;18,23898
 777,97; 9883,289;  183,976;52923,332;18,39103
 778,54; 9962,084;  206,176;53016,409;18,47352
 779,11; 9920,021;  215,176;53045,287;18,36991
 779,67; 9917,816;  192,776;52911,764;18,44694
 780,24; 9955,325;  214,176;52651,841;18,57663
 780,80;10003,977;  222,577;52697,919;18,63999
 781,37; 9985,629;  205,977;52485,196;18,70658
 781,94; 9943,995;  194,577;52362,074;18,68868
 782,50;10003,362;  214,977;52273,751;18,80256
 783,07;10090,013;  247,977;52383,429;18,87782
 783,63;10023,380;  190,177;52079,106;18,95048
 784,20;10051,317;  232,777;52057,584;18,94564
 784,77;10024,541;  208,577;51928,461;18,97909
 785,33; 9973,907;  187,177;51681,938;19,00529
 785,90;10088,416;  208,577;51654,016;19,20450
 786,46;10112,068;  222,377;51544,293;19,26992
 787,03;10149,577;  205,377;51364,371;19,43783
 787,59;10174,943;  209,177;51383,648;19,47410
 788,16;10193,595;  217,777;51273,726;19,53899
 788,73;10176,247;  223,577;50943,603;19,62276
 789,29;10133,042;  206,777;50617,081;19,69094
 789,86;10182,694;  211,977;50367,758;19,87950
 790,42;10178,488;  215,377;50497,636;19,81437
 790,99;10154,998;  224,977;50039,713;19,93390
 791,55;10178,221;  205,378;50188,990;19,95223
 792,12;10222,159;  231,378;50020,068;20,06637
 792,68;10204,382;  215,378;49785,745;20,15116
 793,25;10211,748;  217,578;49649,623;20,21800
 793,81;10321,686;  253,778;49135,900;20,59630
 794,38;10146,909;  193,378;49037,778;20,37804
 794,94;10178,275;  206,978;48908,855;20,47415
 795,51;10117,356;  218,978;48653,933;20,43643
 796,07;10177,008;  222,978;48389,010;20,66608
 796,64;10227,660;  246,778;48626,887;20,63013
 797,20;10129,740;  225,178;48034,365;20,71686
 797,77;10097,535;  201,978;47678,042;20,84325
 798,33;10127,044;  205,178;47540,320;20,96089
 798,90;10158,410;  246,378;47325,597;21,05394
 799,46;10149,491;  218,778;46887,675;21,27908
 800,03;10137,857;  210,378;46838,352;21,29082
 800,59;10118,652;  237,178;46681,230;21,27608
 801,15;10127,018;  239,978;46431,307;21,40454
 801,72;10052,241;  199,378;46248,184;21,39657
 802,28;10070,750;  240,778;45773,462;21,58883
 802,85; 9980,831;  219,979;45820,939;21,40493
 803,41;10047,483;  207,179;45618,217;21,66941
 803,98; 9997,706;  212,779;45104,294;21,79683
 804,54; 9958,501;  228,979;44858,572;21,80061
 805,11; 9940,010;  234,979;44625,249;21,86297
 805,67; 9916,519;  240,379;44560,527;21,83237
 806,23; 9866,314;  225,379;44110,804;21,96842
 806,80; 9920,251;  243,379;44193,281;22,01796
 807,36; 9941,189;  261,579;44025,959;22,11755
 807,93; 9934,698;  239,779;43749,036;22,28243
 808,49; 9924,350;  227,379;43464,914;22,42721
 809,05; 9859,145;  210,779;43106,391;22,49266
 809,62; 9889,368;  235,179;43062,269;22,54225
 810,18; 9987,306;  228,779;43010,346;22,81012
 810,74; 9874,529;  197,379;42687,824;22,77489
 811,31; 9950,752;  216,579;42482,301;23,03089
 811,87; 9935,262;  224,179;42432,978;23,00725
 812,44; 9945,913;  258,979;42405,656;22,98386
 813,00; 9917,137;  191,779;42067,533;23,22432
 813,56; 9997,646;  243,779;42111,011;23,29714
 814,13;10005,155;  227,980;42001,088;23,40543
 814,69;10015,521;  229,380;41872,566;23,49998
 815,25; 9927,316;  197,380;41443,443;23,58998
 815,82;10048,539;  234,380;41434,921;23,82046
 816,38;10030,048;  256,580;41108,398;23,92419
 816,94; 9915,129;  230,780;40893,875;23,81606
 817,51;10017,781;  199,980;40628,753;24,28419
 818,07; 9953,004;  213,380;40369,030;24,25468
 818,63; 9981,799;  234,580;40002,908;24,51000
 819,20; 9956,879;  236,180;40120,585;24,37218
 819,76; 9858,531;  228,580;39577,863;24,47300
 820,32; 9920,326;  245,380;39498,140;24,64781
 820,89; 9958,692;  250,180;39362,218;24,82231
 821,45; 9881,487;  210,580;39112,895;24,85946
 822,01; 9901,996;  235,980;38901,573;24,99901
 822,57; 9899,220;  232,780;38683,250;25,13998
 823,14; 9835,157;  218,780;38618,327;25,04294
 823,70; 9860,381;  216,780;38358,405;25,28366
 824,26; 9799,032;  231,180;38082,482;25,27747
 824,82; 9867,399;  225,781;37968,360;25,54573
 825,39; 9749,051;  213,381;37732,437;25,41554
 825,95; 9818,560;  237,781;37849,115;25,47312
 826,51; 9795,783;  231,581;37278,792;25,81625
 827,08; 9835,578;  271,781;37273,070;25,84720
 827,64; 9831,230;  239,381;37244,347;25,92044
 828,20; 9729,882;  216,581;36980,024;25,87707
 828,76; 9865,105;  240,981;36879,502;26,26777
 829,32; 9913,328;  245,581;36649,979;26,55654
 829,89; 9792,552;  202,181;36605,657;26,34466
 830,45; 9877,204;  208,181;36540,734;26,61256
 831,01; 9842,713;  230,381;36315,412;26,63800
 831,57; 9880,365;  233,181;36207,689;26,81672
 832,14; 9886,302;  217,381;36185,367;26,88202
 832,70; 9871,954;  208,181;35880,844;27,09014
 833,26; 9829,035;  188,981;35790,321;27,07778
 833,82; 9847,687;  222,181;35743,999;27,09745
 834,38; 9862,767;  205,981;35722,676;27,18943
 834,95; 9881,133;  211,581;35525,354;27,38182
 835,51; 9866,071;  186,381;35588,031;27,34248
 836,07; 9926,866;  222,182;35633,309;27,40575
 836,63;10046,375;  240,182;35589,986;27,74045
 837,19;10052,598;  231,582;35327,064;27,98371
 837,75; 9972,250;  191,982;35086,541;28,02806
 838,32;10076,045;  236,782;35301,018;28,06068
 838,88;10108,125;  240,382;35185,096;28,23816
 839,44;10079,777;  203,782;34997,573;28,38436
 840,00;10120,858;  211,782;35115,651;28,38962
 840,56;10106,938;  215,182;34777,128;28,62037
 841,12;10075,304;  210,582;34765,406;28,54803
 841,68;10089,385;  193,182;34493,283;28,85182
 842,25;10128,323;  212,582;34672,761;28,77449
 842,81;10084,117;  203,782;34322,238;28,95892
 843,37;10176,912;  186,982;34411,115;29,18972
 843,93;10147,993;  219,182;34236,393;29,18761
 844,49;10178,787;  223,782;34377,670;29,14750
 845,05;10135,868;  191,582;34056,748;29,36435
 845,61;10185,663;  241,182;34182,225;29,29928
 846,17;10174,457;  207,782;34017,703;29,47855
 846,73;10235,395;  222,383;34085,180;29,56936
 847,29;10224,761;  202,783;33852,658;29,78311
 847,86;10217,699;  196,783;33641,935;29,96224
 848,42;10153,779;  190,383;33540,812;29,87487
 848,98;10221,574;  214,383;33519,890;30,04666
 849,54;10272,940;  204,183;33526,567;30,21620
 850,10;10290,164;  228,383;33345,045;30,38284
 850,66;10208,816;  184,783;33153,522;30,40466
 851,22;10240,753;  182,983;33056,000;30,59582
 851,78;10329,977;  239,983;33111,277;30,69546
 852,34;10313,914;  200,783;32939,555;30,89038
 852,90;10329,423;  212,183;32850,032;30,99849
 853,46;10305,075;  197,383;32641,709;31,15396
 854,02;10310,727;  213,983;32643,387;31,13453
 854,58;10353,951;  203,183;32336,464;31,58958
 855,14;10327,460;  186,583;32268,742;31,60908
 855,70;10317,683;  169,983;32086,819;31,79419
 856,26;10317,621;  216,383;31989,697;31,79158
 856,82;10287,844;  205,783;31857,374;31,85325
 857,38;10383,067;  224,383;31752,252;32,22128
 857,94;10332,719;  204,184;31631,129;32,22883
 858,50;10364,514;  220,984;31515,207;32,41343
 859,06;10300,452;  224,584;31482,284;32,23483
 859,62;10326,675;  213,384;31318,161;32,51363
 860,18;10315,470;  208,784;31074,239;32,74433
 860,74;10248,979;  168,984;30912,316;32,78758
 861,30;10248,631;  173,784;30831,794;32,86204
 861,86;10297,711;  221,584;30929,071;32,81326
 862,42;10349,506;  205,384;30590,949;33,38468
 862,98;10334,444;  225,784;30679,826;33,19316
 863,54;10200,810;  213,784;30401,504;33,08307
 864,10;10259,176;  199,384;30453,381;33,25112
 864,66;10197,685;  204,984;30147,458;33,37300
 865,22;10239,909;  204,984;30039,336;33,63547
 865,78;10220,418;  211,984;30028,813;33,56639
 866,34;10252,784;  201,784;29892,091;33,85280
 866,90;10220,007;  221,984;29758,968;33,84917
 867,45;10129,659;  222,184;29624,646;33,69607
 868,01;10198,597;  222,584;29528,523;34,04092
 868,57;10192,820;  194,184;29270,201;34,38791
 869,13;10184,758;  189,785;29094,678;34,57883
 869,69;10181,267;  202,185;29107,755;34,52304
 870,25;10202,204;  189,185;29104,833;34,62838
 870,81;10258,428;  215,785;28973,910;34,92106
 871,37;10196,937;  209,585;28797,588;34,93547
 871,93;10151,303;  224,185;28614,065;34,96710
 872,49;10198,669;  221,585;28385,943;35,42451
 873,04;10066,607;  200,185;28223,620;35,20775
 873,60;10092,973;  190,585;28096,698;35,48466
 874,16;10138,482;  210,585;28100,175;35,59714
 874,72;10115,054;  199,385;28028,775;35,63020
 875,28;10169,768;  209,785;27963,375;35,88719
 875,84;10115,339;  186,785;27807,375;35,94621
 876,40;10157,339;  206,985;27740,175;36,13949
 876,95;10196,911;  221,385;27739,775;36,25040
 877,51;10211,911;  255,785;27750,375;36,21122
 878,07;10331,196;  239,585;27763,975;36,66425
 878,63;10311,911;  218,585;27739,975;36,67448
 879,19;10397,196;  223,985;27668,175;37,06873
 879,75;10411,482;  217,185;27709,175;37,08097
 880,30;10411,482;  205,385;27794,575;36,99310
 880,86;10551,625;  255,185;27824,575;37,34736
 881,42;10576,482;  190,185;27869,775;37,52331
 881,98;10654,625;  224,585;28080,175;37,44326
 882,54;10702,768;  217,985;28017,575;37,71560
 883,09;10806,196;  226,985;28170,175;37,85971
 883,65;10856,768;  215,585;28300,375;37,88949
 884,21;10999,625;  239,585;28441,775;38,15321
 884,77;11034,482;  217,985;28552,975;38,17364
 885,32;11083,625;  211,185;28662,975;38,21355
 885,88;11215,339;  240,985;28801,975;38,42428
 886,44;11262,054;  212,785;28912,775;38,49921
 887,00;11289,054;  229,785;28898,775;38,57572
 887,56;11451,196;  221,785;29149,775;38,81850
 888,11;11488,196;  217,985;29168,175;38,92966
 888,67;11432,768;  240,185;29323,575;38,48445
 889,23;11586,768;  227,385;29229,775;39,16706
 889,79;11599,911;  208,785;29260,375;39,20999
 890,34;11600,911;  208,785;29149,575;39,36356
 890,90;11845,768;  250,985;29173,175;40,08957
 891,46;11735,196;  217,585;29233,975;39,69347
 892,01;11809,911;  240,585;29083,775;40,11112
 892,57;11833,196;  245,785;29088,775;40,17410
 893,13;11722,625;  226,185;28995,775;39,96039
 893,69;11736,339;  207,585;28903,575;40,17549
 894,24;11751,625;  218,185;28830,175;40,30981
 894,80;11764,482;  225,785;28553,575;40,73278
 895,36;11736,482;  207,385;28458,575;40,80924
 895,91;11742,054;  213,985;28280,375;41,07428
 896,47;11767,339;  230,185;28094,775;41,40436
 897,03;11662,768;  210,385;27903,775;41,35421
 897,58;11647,054;  217,785;27717,175;41,56190
 898,14;11593,625;  233,985;27673,575;41,39872
 898,70;11500,339;  197,385;27601,175;41,24595
 899,25;11588,482;  209,185;27406,375;41,83997
 899,81;11574,339;  238,185;27203,575;42,03965
 900,37;11485,768;  190,985;27044,375;42,06092
 900,92;11514,196;  220,185;26966,575;42,22630
 901,48;11433,482;  204,185;26834,575;42,16723
 902,03;11440,196;  199,385;26749,975;42,33733
 902,59;11482,339;  219,585;26734,975;42,47629
 903,15;11313,196;  242,585;26494,775;42,17024
 903,70;11262,054;  228,985;26272,975;42,36320
 904,26;11272,625;  195,185;26118,375;42,73178
 904,82;11319,054;  217,385;26110,975;42,87420
 905,37;11255,054;  215,585;26019,975;42,78136
 905,93;11173,196;  211,185;25899,975;42,67235
 906,48;11285,768;  230,185;25755,975;43,31142
 907,04;11263,768;  248,585;25767,175;43,16533
 907,60;11140,911;  205,985;25499,175;43,23269
 908,15;11145,196;  208,785;25448,375;43,33038
 908,71;11158,482;  251,385;25480,975;43,23137
 909,26;11127,911;  211,185;25169,375;43,74005
 909,82;11100,911;  237,185;25158,575;43,59197
 910,37;11103,911;  250,785;24900,975;44,02857
 910,93;11089,482;  206,785;24712,775;44,40831
 911,48;10997,911;  209,585;24621,375;44,19310
 912,04;10961,196;  203,585;24537,375;44,20853
 912,60;10971,339;  240,185;24691,775;43,88735
 913,15;11019,911;  233,585;24388,775;44,65428
 913,71;10917,054;  208,985;24185,975;44,65977
 914,26;10897,196;  207,785;24091,775;44,75555
 914,82;10892,625;  223,985;24053,375;44,77093
 915,37;10889,625;  209,785;23898,375;45,08432
 915,93;10927,768;  278,185;23892,775;45,09747
 916,48;10842,768;  215,785;23672,775;45,30412
 917,04;10918,625;  232,185;23553,975;45,82170
 917,59;10885,768;  251,985;23506,375;45,72807
 918,15;10764,196;  172,985;23242,175;45,91063
 918,70;10728,911;  194,585;23323,175;45,54677
 919,26;10694,911;  225,985;23132,575;45,70268
 919,81;10615,911;  191,385;23044,175;45,61599
 920,37;10634,768;  209,585;22783,375;46,18269
 920,92;10610,911;  215,385;22795,975;46,03744
 921,48;10546,625;  200,185;22586,375;46,21796
 922,03;10545,054;  214,985;22528,375;46,29538
 922,59;10495,054;  224,785;22401,375;46,31131
 923,14;10478,911;  210,185;22325,175;46,43333
 923,69;10573,768;  224,585;22390,575;46,68947
 924,25;10590,911;  234,585;22114,975;47,33154
 924,80;10441,196;  219,585;21933,575;47,07385
 925,36;10462,196;  216,585;21980,375;47,07641
 925,91;10422,339;  213,985;21765,175;47,36794
 926,47;10486,625;  192,985;21704,975;47,85071
 927,02;10467,196;  246,185;21669,975;47,70870
 927,57;10393,625;  217,385;21431,775;47,96857
 928,13;10410,768;  215,385;21399,175;48,12823
 928,68;10377,768;  214,385;21298,775;48,20335
 929,24;10354,911;  194,985;21056,975;48,70065
 929,79;10322,196;  195,185;20994,175;48,68992
 930,34;10318,482;  220,985;20909,175;48,80803
 930,90;10311,054;  200,585;20822,575;49,02761
 931,45;10425,625;  208,985;20760,775;49,71168
 932,01;10313,054;  226,985;20826,175;48,96342
 932,56;10354,339;  236,785;20657,975;49,54439
 933,11;10387,054;  224,785;20495,575;50,13257
 933,67;10198,625;  218,985;20367,175;49,53120
 934,22;10291,339;  224,385;20302,375;50,13925
 934,77;10262,054;  223,585;20152,375;50,37169
 935,33;10086,196;  228,985;20031,775;49,77688
 935,88;10169,482;  228,585;20037,175;50,18478
 936,43;10170,054;  224,785;19867,775;50,63012
 936,99;10093,339;  203,985;19779,775;50,51829
 937,54;10119,196;  199,385;19705,575;50,85468
 938,09;10065,625;  214,385;19494,375;51,09567
 938,65;10025,625;  212,785;19343,175;51,29451
 939,20; 9976,339;  194,585;19422,175;50,87353
 939,75; 9957,482;  197,185;19246,375;51,23733
 940,31; 9982,054;  193,785;19051,175;51,90680
 940,86; 9971,911;  203,585;19200,975;51,41930
 941,41; 9956,911;  264,985;19011,775;51,69912
 941,96; 9908,768;  207,185;18855,975;52,02259
 942,52; 9971,196;  216,385;18838,175;52,38385
 943,07; 9854,339;  193,785;18730,975;52,11445
 943,62; 9826,768;  201,585;18591,975;52,33811
 944,18; 9845,054;  190,585;18531,975;52,63761
 944,73; 9777,196;  216,785;18403,975;52,56673
 945,28; 9749,911;  181,185;18284,575;52,85599
 945,83; 9760,911;  223,385;18173,575;53,13329
 946,39; 9808,054;  203,785;18154,575;53,50332
 946,94; 9731,482;  234,985;18027,775;53,37273
 947,49; 9728,911;  214,585;17934,375;53,69322
 948,04; 9777,196;  227,185;17990,975;53,76111
 948,59; 9753,054;  229,785;17823,975;54,12735
 949,15; 9749,339;  196,785;17696,575;54,58668
 949,70; 9685,911;  213,385;17583,375;54,53386
 950,25; 9689,768;  231,785;17544,775;54,62940
 950,80; 9656,482;  187,385;17522,775;54,62293
 951,36; 9626,196;  180,985;17437,175;54,73521
 951,91; 9683,196;  211,785;17414,175;55,05869
 952,46; 9546,339;  181,585;17155,375;55,17185
 953,01; 9611,482;  215,185;17166,975;55,42953
 953,56; 9565,339;  186,385;17089,975;55,48498
 954,11; 9584,339;  231,985;17015,775;55,72254
 954,67; 9515,768;  204,985;16958,175;55,57618
 955,22; 9467,054;  188,985;16687,775;56,23484
 955,77; 9565,625;  234,585;16719,375;56,60394
 956,32; 9482,911;  251,185;16646,375;56,30753
 956,87; 9368,768;  206,385;16472,775;56,32708
 957,42; 9412,482;  206,985;16494,775;56,51778
 957,98; 9324,911;  201,785;16257,375;56,82211
 958,53; 9287,911;  224,385;16301,175;56,37646
 959,08; 9270,625;  190,785;16218,575;56,65060
 959,63; 9191,339;  190,585;16122,175;56,49627
 960,18; 9186,482;  217,185;16053,375;56,63797
 960,73; 9194,339;  208,985;15932,375;57,14642
 961,28; 9124,054;  200,785;15844,375;57,04105
 961,83; 9147,482;  216,385;15855,775;57,10643
 962,39; 9098,054;  200,185;15688,175;57,45012
 962,94; 9057,911;  215,585;15571,575;57,58226
 963,49; 8991,911;  209,785;15532,375;57,31489
 964,04; 8990,482;  214,985;15423,175;57,70244
 964,59; 8914,339;  203,585;15309,575;57,66424
 965,14; 8952,625;  214,785;15274,375;58,02177
 965,69; 8876,911;  195,585;15175,975;57,95127
 966,24; 8893,339;  189,785;15058,575;58,53573
 966,79; 8787,625;  215,585;14974,175;58,08170
 967,34; 8776,482;  191,185;14867,575;58,49734
 967,89; 8781,196;  211,985;14773,375;58,84886
 968,44; 8877,054;  219,585;14791,175;59,41334
 968,99; 8787,054;  226,785;14619,175;59,47774
 969,55; 8780,482;  220,985;14511,975;59,89436
 970,10; 8724,482;  214,385;14446,775;59,79387
 970,65; 8624,196;  227,385;14262,975;59,82514
 971,20; 8596,054;  199,185;14271,175;59,67080
 971,75; 8572,339;  188,185;14090,175;60,30902
 972,30; 8605,911;  217,785;14004,775;60,84088
 972,85; 8473,911;  203,585;14013,975;59,88481
 973,40; 8475,482;  203,185;13823,575;60,73466
 973,95; 8478,054;  220,985;13810,175;60,76204
 974,50; 8483,911;  241,385;13734,375;61,08747
 975,05; 8448,054;  215,785;13633,775;61,35247
 975,60; 8359,768;  241,185;13571,975;60,90099
 976,15; 8311,768;  211,385;13443,575;61,21725
 976,70; 8287,768;  222,185;13370,975;61,34088
 977,25; 8318,339;  211,985;13416,975;61,38857
 977,80; 8181,196;  195,985;13126,975;61,75251
 978,35; 8108,054;  211,985;13055,175;61,48059
 978,89; 8082,911;  199,385;12930,375;61,92390
 979,44; 8096,054;  217,785;12903,375;62,10408
 979,99; 8068,625;  201,985;12765,375;62,61558
 980,54; 8003,339;  228,185;12675,975;62,46213
 981,09; 7927,339;  222,585;12618,175;62,15722
 981,64; 7903,482;  221,585;12389,575;63,13201
 982,19; 7839,625;  242,985;12345,775;62,76768
 982,74; 7823,911;  231,185;12263,975;63,10029
 983,29; 7740,054;  192,785;12115,775;63,30013
 983,84; 7702,625;  227,985;12057,575;63,18596
 984,39; 7744,768;  249,385;11963,175;63,98768
 984,94; 7612,054;  200,585;11862,975;63,55017
 985,49; 7637,339;  232,385;11793,175;64,05232
 986,03; 7625,196;  233,785;11663,975;64,66569
 986,58; 7546,768;  268,785;11628,175;64,07019
 987,13; 7447,911;  207,985;11411,575;64,62148
 987,68; 7431,911;  235,985;11312,375;64,96634
 988,23; 7440,625;  226,985;11250,175;65,44058
 988,78; 7338,482;  223,785;11109,775;65,35645
 989,33; 7272,768;  220,985;10968,775;65,61147
 989,88; 7329,054;  251,985;10965,975;66,05446
 990,42; 7180,196;  223,185;10787,175;65,85591
 990,97; 7114,482;  223,185;10681,175;65,89504
 991,52; 7164,482;  235,185;10688,575;66,28756
 992,07; 7069,911;  244,585;10498,775;66,56133
 992,62; 6970,911;  228,185;10449,775;65,96553
 993,17; 6858,625;  230,185;10255,775;66,11521
 993,71; 6889,625;  236,585;10236,375;66,53180
 994,26; 6762,482;  218,185;10051,175;66,55450
 994,81; 6747,625;  239,985;10001,575;66,66578
 995,36; 6677,911;  208,985; 9878,775;66,89831
 995,91; 6635,768;  227,185; 9840,775;66,66170
 996,45; 6574,196;  223,185; 9708,175;66,95855
 997,00; 6441,339;  208,785; 9556,175;66,67695
 997,55; 6454,911;  226,185; 9570,575;66,65738
 998,10; 6382,911;  235,785; 9334,575;67,55982
 998,65; 6313,482;  207,185; 9332,975;66,91253
 999,19; 6265,911;  234,585; 9289,775;66,60629
 999,74; 6153,768;  237,185; 9119,375;66,61176
1000,29; 6153,768;  247,185; 9050,575;67,09441
1000,84; 6038,482;  226,385; 8927,975;66,79351
1001,38; 6045,339;  225,985; 8722,975;68,48724
1001,93; 6005,768;  227,185; 8819,575;67,25233
1002,48; 5907,054;  213,185; 8628,775;67,65858
1003,03; 5911,625;  222,785; 8504,975;68,68763
1003,57; 5808,482;  232,985; 8453,975;67,82026
1004,12; 5827,054;  233,185; 8326,175;69,11992
1004,67; 5753,196;  223,985; 8297,175;68,48856
1005,22; 5674,339;  214,785; 8139,375;68,89384
1005,76; 5547,339;  212,585; 7986,175;68,62665
1006,31; 5565,482;  234,985; 7930,775;69,26511
1006,86; 5462,054;  221,985; 7767,575;69,44545
1007,40; 5407,339;  198,185; 7624,975;70,14005
1007,95; 5352,625;  230,385; 7621,375;69,30384
1008,50; 5260,482;  234,185; 7447,975;69,67623
1009,04; 5189,339;  218,385; 7419,175;69,03346
1009,59; 5141,625;  221,585; 7293,975;69,56686
1010,14; 5079,768;  215,585; 7124,575;70,40367
1010,68; 5040,911;  223,785; 7028,975;70,78606
1011,23; 4943,482;  189,385; 6898,975;70,85526
1011,78; 4914,768;  238,385; 6909,775;70,09608
1012,32; 4895,911;  221,385; 6682,575;72,34775
1012,87; 4879,625;  239,585; 6755,175;71,21443
1013,42; 4759,768;  212,185; 6570,975;71,51648
1013,96; 4818,196;  242,985; 6621,575;71,72763
1014,51; 4736,768;  182,185; 6500,175;72,08911
1015,06; 4749,911;  191,385; 6547,775;71,71564
1015,60; 4819,768;  264,385; 6593,375;71,97646
1016,15; 4736,482;  213,785; 6555,575;71,31578
1016,69; 4790,339;  226,585; 6498,375;72,76638
1017,24; 4793,482;  203,185; 6530,775;72,54416
1017,79; 4869,911;  249,985; 6580,175;72,98242
1018,33; 4870,482;  211,185; 6584,175;73,11007
1018,88; 4881,054;  248,185; 6615,975;72,75473
1019,42; 4940,768;  230,585; 6633,375;73,56454
1019,97; 4913,339;  199,585; 6670,375;72,84666
1020,51; 5005,768;  232,385; 6724,975;73,52047
1021,06; 4975,339;  201,185; 6703,975;73,41701
1021,61; 4966,911;  183,385; 6564,775;74,96056
1022,15; 4929,482;  170,385; 6554,375;74,54738
1022,70; 5007,196;  221,985; 6591,975;75,12118
1023,24; 4912,911;  185,985; 6595,975;73,74311
1023,79; 4931,482;  206,185; 6495,775;75,12886
1024,33; 4919,768;  206,185; 6476,975;75,16729
1024,88; 4845,196;  211,185; 6419,975;74,63630
1025,42; 4784,339;  214,785; 6222,175;76,06555
1025,97; 4755,625;  211,785; 6173,175;76,22115
1026,51; 4665,625;  175,985; 6033,175;76,65177
1027,06; 4608,054;  206,185; 6053,375;75,28178
1027,60; 4522,911;  205,585; 5935,175;75,35139
1028,15; 4523,054;  230,585; 5842,775;76,48473
1028,69; 4386,054;  196,985; 5694,375;76,20104
1029,24; 4359,911;  211,385; 5638,775;76,43685
1029,78; 4240,768;  208,385; 5525,175;75,84243
1030,33; 4235,768;  185,985; 5398,775;77,68935
1030,87; 4165,196;  212,385; 5365,775;76,70313
1031,42; 4103,339;  194,385; 5274,975;76,93898
1031,96; 4081,339;  216,985; 5209,175;77,40800
1032,51; 4004,339;  198,785; 5159,575;76,71267
1033,05; 3967,911;  216,785; 5094,375;76,90531
1033,60; 3879,768;  166,785; 4986,175;77,04259
1034,14; 3793,339;  200,185; 4900,775;76,44050
1034,69; 3799,196;  210,185; 4821,375;77,83265
1035,23; 3753,339;  205,985; 4730,975;78,39474
1035,77; 3715,911;  193,585; 4674,375;78,60948
1036,32; 3638,196;  169,185; 4629,175;77,78070
1036,86; 3644,196;  202,185; 4530,575;79,52175
1037,41; 3609,054;  219,585; 4518,575;78,84337
1037,95; 3566,054;  182,985; 4436,375;79,53817
1038,50; 3488,625;  194,985; 4351,775;79,23518
1039,04; 3474,768;  216,385; 4251,375;80,75318
1039,58; 3369,482;  195,985; 4206,575;79,12794
1040,13; 3381,339;  193,185; 4211,375;79,34304
1040,67; 3383,054;  232,985; 4143,575;80,55226
1041,21; 3342,339;  234,385; 4054,975;81,34750
1041,76; 3217,339;  189,585; 3998,975;79,48134
1042,30; 3265,054;  207,185; 3960,575;81,46951
1042,85; 3186,911;  205,185; 3900,775;80,68335
1043,39; 3126,482;  196,585; 3840,775;80,39913
1043,93; 3136,911;  213,185; 3768,575;82,23361
1044,48; 3097,339;  221,785; 3745,575;81,60402
1045,02; 3016,768;  194,985; 3677,575;81,02541
1045,56; 3003,482;  226,785; 3593,175;82,48293
1046,11; 3031,482;  209,985; 3566,175;84,06846
1046,65; 2912,625;  219,985; 3509,575;81,85336
1047,19; 2875,196;  187,785; 3480,975;81,60511
1047,74; 2833,054;  191,985; 3379,375;82,85991
1048,28; 2833,768;  214,785; 3427,975;81,50725
1048,82; 2789,911;  220,785; 3358,975;81,86648
1049,37; 2756,196;  215,385; 3284,775;82,77904
1049,91; 2709,768;  197,185; 3303,375;80,88954
1050,45; 2677,482;  224,985; 3245,375;81,19803
1050,99; 2639,054;  202,985; 3149,375;82,67977
1051,54; 2600,196;  207,185; 3100,375;82,71187
1052,08; 2593,768;  228,785; 3086,975;82,74407
1052,62; 2552,482;  223,985; 3023,975;83,16091
1053,16; 2468,196;  206,585; 2934,575;82,90395
1053,71; 2493,625;  218,585; 2966,975;82,77719
1054,25; 2449,339;  217,185; 2879,175;83,85284
1054,79; 2448,482;  222,585; 2843,975;84,91286
1055,33; 2366,196;  199,185; 2783,975;83,83704
1055,88; 2378,054;  232,185; 2776,975;84,32399
1056,42; 2338,054;  227,185; 2762,175;83,26931
1056,96; 2276,196;  234,585; 2692,975;83,04669
1057,50; 2259,054;  224,185; 2648,775;83,92630
1058,05; 2263,482;  222,785; 2621,975;85,05775
1058,59; 2207,482;  233,985; 2547,775;85,29284
1059,13; 2147,054;  201,585; 2473,175;85,64347
1059,67; 2175,482;  228,185; 2524,575;84,79819
1060,21; 2070,482;  215,385; 2451,775;82,95052
1060,76; 2094,625;  235,185; 2440,975;84,29814
1061,30; 2106,768;  244,385; 2377,175;87,32144
1061,84; 2017,339;  210,185; 2358,375;84,12451
1062,38; 1962,625;  199,585; 2303,775;83,78711
1062,92; 2011,339;  260,985; 2322,375;84,91136
1063,46; 1959,768;  242,585; 2245,575;85,73098
1064,01; 1927,911;  204,785; 2226,575;85,22773
1064,55; 1908,768;  229,585; 2221,575;84,29675
1065,09; 1863,054;  198,385; 2126,375;86,34218
1065,63; 1889,196;  230,785; 2131,775;87,23936
1066,17; 1875,625;  245,785; 2102,975;87,75839
1066,71; 1866,482;  231,785; 2098,775;87,55789
1067,25; 1805,054;  237,185; 2061,175;85,95818
1067,80; 1799,196;  238,385; 2045,975;86,34765
1068,34; 1809,196;  250,385; 2047,175;86,75535
1068,88; 1722,196;  217,585; 1981,175;85,31526
1069,42; 1776,054;  258,185; 1998,375;87,22430
1069,96; 1696,196;  225,385; 1939,175;85,82215
1070,50; 1724,911;  251,585; 1942,975;87,10739
1071,04; 1674,196;  203,185; 1908,175;86,27684
1071,58; 1633,625;  218,385; 1881,175;85,11237
1072,12; 1642,625;  218,785; 1812,975;89,31432
1072,66; 1598,054;  232,985; 1827,175;85,62772
1073,21; 1627,482;  235,985; 1839,175;86,79552
1073,75; 1586,196;  235,385; 1805,975;86,00662
1074,29; 1569,339;  240,585; 1778,575;86,39551
1074,83; 1560,768;  249,585; 1748,175;87,49444
1075,37; 1564,054;  243,785; 1726,975;89,01547
1075,91; 1532,911;  232,185; 1720,975;87,36798
1076,45; 1506,196;  228,385; 1687,775;87,55791
1076,99; 1489,482;  254,785; 1650,975;88,43332
1077,53; 1446,339;  222,185; 1646,575;85,94235
1078,07; 1457,911;  241,185; 1615,975;88,50266
1078,61; 1437,911;  218,785; 1609,375;87,66967
1079,15; 1428,911;  222,985; 1585,575;88,50246
1079,69; 1403,482;  223,985; 1549,175;89,00589
1080,23; 1421,196;  244,385; 1572,175;88,62933
1080,77; 1423,054;  246,985; 1569,375;88,93508
1081,31; 1360,482;  203,985; 1501,375;89,14028
1081,85; 1384,339;  245,185; 1514,175;89,76858
1082,39; 1334,054;  215,385; 1467,975;89,30844
1082,93; 1302,054;  210,785; 1449,975;88,06306
1083,47; 1280,482;  214,785; 1425,775;88,00214
1084,01; 1326,768;  250,185; 1426,975;91,48470
1084,55; 1280,625;  212,385; 1393,175;90,46825
1085,09; 1266,339;  242,585; 1387,375;89,42726
1085,63; 1248,054;  223,185; 1392,375;87,65629
1086,17; 1210,911;  220,585; 1358,775;87,00882
1086,71; 1206,339;  236,585; 1333,575;88,40138
1087,24; 1228,339;  248,585; 1347,175;89,18289
1087,78; 1216,911;  222,985; 1311,775;91,28718
1088,32; 1168,482;  213,785; 1278,575;89,66060
1088,86; 1182,196;  242,385; 1315,375;87,58809
1089,40; 1154,482;  219,785; 1272,175;88,81661
1089,94; 1155,054;  196,585; 1241,175;91,75548
1090,48; 1131,482;  226,985; 1241,775;89,13146
1091,02; 1125,054;  233,785; 1239,175;88,64904
1091,56; 1110,339;  234,985; 1212,175;89,57872
1092,10; 1087,482;  217,785; 1190,975;89,36561
1092,63; 1118,054;  248,985; 1209,575;90,47237
1093,17; 1072,911;  230,985; 1195,975;87,24709
1093,71; 1035,054;  227,385; 1151,775;87,37314
1094,25; 1073,482;  249,785; 1176,375;88,89554
1094,79; 1011,196;  247,785; 1129,175;86,61449
1095,33; 1027,196;  232,585; 1100,975;91,50398
1095,87; 1012,911;  230,985; 1142,375;85,79485
1096,40;  990,482;  206,985; 1087,375;88,99433
1096,94; 1004,054;  238,785; 1072,575;91,78193
1097,48; 1005,482;  235,185; 1090,775;90,03111
1098,02;  969,911;  210,785; 1066,575;88,70467
1098,56;  941,054;  196,985;  999,175;92,75466
1099,10;  945,054;  211,585;  999,375;93,10458
1099,63;  926,768;  209,785; 1018,775;88,62691
1100,17;  930,339;  244,185; 1028,775;87,45387
1100,71;  965,482;  239,985; 1012,375;93,92886

