
Integration time [ms]: 130,000
Averaging Nr. [scans]: 7
Smoothing Nr. [pixels]: 0
Data measured with spectrometer [name]: 2009305U1
Wave   ;Sample   ;Dark     ;Reference;Reflectance
[nm]   ;[counts] ;[counts] ;[counts] ;[%]

 175,72;  207,043;  192,986;  201,498;165,14602
 176,32;  239,851;  222,384;  221,717; 0,00000
 176,92;  253,631;  241,385;  235,854; 0,00000
 177,52;  278,732;  259,786;  258,523; 0,00000
 178,12;  234,830;  246,984;  204,441; 0,00000
 178,72;  267,957;  250,783;  241,274; 0,00000
 179,32;  252,840;  247,384;  249,069;323,75946
 179,92;  261,066;  231,385;  239,762;354,30129
 180,52;  243,425;  244,988;  241,098; 0,00000
 181,12;  256,287;  248,385;  229,716; 0,00000
 181,73;  287,134;  272,585;  262,308; 0,00000
 182,33;  369,934;  306,387;  321,281;426,66488
 182,93;  277,831;  256,186;  256,932; 0,00000
 183,53;  242,196;  246,183;  223,624; 0,00000
 184,13;  253,067;  236,383;  230,131; 0,00000
 184,73;  286,799;  249,982;  256,507;564,28332
 185,33;  276,366;  234,768;  346,100;37,36384
 185,93;  293,948;  232,166;  351,877;51,60924
 186,53;  299,734;  241,967;  348,122;54,41760
 187,13;  320,614;  257,569;  394,908;45,90490
 187,73;  289,411;  220,566;  335,660;59,81635
 188,33;  281,866;  254,365;  362,824;25,35634
 188,93;  305,945;  244,562;  398,475;39,88149
 189,53;  295,270;  258,559;  392,476;27,41314
 190,13;  342,795;  283,155;  430,284;40,53542
 190,73;  280,943;  220,558;  363,114;42,35909
 191,34;  316,774;  253,561;  378,621;50,54644
 191,94;  293,365;  240,364;  345,758;50,28822
 192,54;  307,997;  245,370;  399,729;40,57230
 193,14;  322,383;  248,969;  381,307;55,47435
 193,74;  294,952;  249,968;  364,047;39,43188
 194,34;  293,220;  227,969;  353,891;51,81877
 194,94;  276,481;  218,569;  355,716;42,22644
 195,54;  243,190;  215,168;  334,977;23,38945
 196,14;  265,608;  221,569;  355,380;32,91081
 196,74;  265,067;  216,167;  336,993;40,47124
 197,34;  248,967;  188,971;  344,465;38,58402
 197,94;  288,395;  220,769;  365,195;46,82416
 198,54;  274,597;  238,769;  365,333;28,30776
 199,14;  275,224;  213,971;  370,842;39,04643
 199,74;  246,696;  202,971;  374,033;25,56106
 200,34;  261,863;  199,372;  356,968;39,65273
 200,94;  290,877;  232,170;  410,644;32,89371
 201,54;  258,529;  216,571;  406,478;22,09421
 202,14;  299,943;  231,172;  444,781;32,19471
 202,74;  282,004;  223,371;  453,508;25,47713
 203,34;  266,684;  184,573;  446,416;31,35902
 203,94;  245,592;  173,772;  465,735;24,59908
 204,54;  299,868;  229,569;  530,605;23,35249
 205,14;  266,927;  190,571;  533,994;22,23370
 205,74;  317,882;  239,373;  624,034;20,40984
 206,34;  297,888;  210,772;  632,343;20,66454
 206,94;  297,820;  212,972;  703,417;17,30026
 207,54;  295,909;  188,772;  726,418;19,92707
 208,14;  321,636;  196,172;  794,506;20,96885
 208,74;  340,805;  217,771;  891,670;18,25709
 209,34;  347,235;  210,171;  960,509;18,26697
 209,94;  365,707;  204,571; 1037,280;19,35083
 210,54;  348,000;  213,973; 1112,879;14,91009
 211,14;  394,762;  204,571; 1236,499;18,43062
 211,73;  398,056;  197,971; 1326,867;17,72396
 212,33;  424,547;  206,770; 1438,453;17,68124
 212,93;  419,574;  203,171; 1522,488;16,40266
 213,53;  397,135;  174,371; 1562,260;16,05057
 214,13;  437,205;  205,174; 1652,697;16,02953
 214,73;  420,514;  195,372; 1657,381;15,39951
 215,33;  421,565;  168,771; 1707,080;16,43319
 215,93;  454,771;  206,573; 1816,158;15,42003
 216,53;  436,046;  162,571; 1892,659;15,80701
 217,13;  493,891;  227,173; 2126,822;14,04038
 217,73;  517,860;  196,373; 2281,539;15,41780
 218,33;  473,206;  148,574; 2495,337;13,83320
 218,93;  519,735;  192,576; 2756,037;12,76239
 219,53;  542,250;  185,774; 3043,728;12,47314
 220,13;  536,616;  168,574; 3315,721;11,69444
 220,73;  594,224;  196,771; 3663,262;11,46557
 221,32;  628,948;  176,771; 4002,670;11,81885
 221,92;  667,329;  167,774; 4489,701;11,55862
 222,52;  682,410;  177,173; 4825,264;10,86977
 223,12;  733,114;  176,973; 5207,436;11,05546
 223,72;  783,015;  185,573; 5646,427;10,94045
 224,32;  792,741;  194,973; 5979,694;10,33356
 224,92;  816,576;  176,373; 6339,999;10,38679
 225,52;  873,150;  191,372; 6688,408;10,49368
 226,12;  868,835;  188,373; 6945,384;10,07047
 226,72;  867,384;  156,572; 7238,269;10,03731
 227,31;  900,505;  154,172; 7537,973;10,10770
 227,91;  979,061;  179,172; 7960,806;10,27919
 228,51;  993,098;  181,371; 8348,198; 9,93932
 229,11; 1071,263;  177,972; 8762,344;10,40601
 229,71; 1083,222;  176,971; 9024,802;10,24264
 230,31; 1145,227;  169,774; 9523,192;10,42884
 230,91; 1181,666;  158,770; 9767,098;10,64593
 231,51; 1250,838;  158,573;10040,244;11,05344
 232,10; 1320,228;  173,574;10533,432;11,06825
 232,70; 1416,363;  168,769;10665,091;11,88601
 233,30; 1494,067;  186,173;11029,985;12,06121
 233,90; 1592,474;  172,773;11194,690;12,88071
 234,50; 1665,398;  170,773;11401,596;13,30824
 235,10; 1745,290;  166,173;11490,599;13,94435
 235,70; 1886,434;  186,972;11624,368;14,85882
 236,29; 1983,420;  179,571;11659,240;15,71342
 236,89; 2081,546;  160,370;11714,814;16,62716
 237,49; 2235,824;  180,372;11688,736;17,86050
 238,09; 2298,888;  182,372;11480,943;18,73260
 238,69; 2419,509;  195,970;11405,171;19,83673
 239,29; 2529,810;  172,372;11141,789;21,49100
 239,89; 2602,425;  182,770;10898,509;22,58038
 240,48; 2677,723;  159,372;10599,047;24,12288
 241,08; 2742,512;  180,972;10337,522;25,22058
 241,68; 2830,559;  189,772;10061,372;26,75135
 242,28; 2899,946;  164,373; 9819,061;28,33414
 242,88; 2978,678;  198,374; 9482,888;29,94561
 243,48; 3055,494;  203,372; 9250,746;31,52431
 244,07; 3099,753;  177,372; 9107,911;32,72346
 244,67; 3164,724;  195,772; 9009,487;33,68559
 245,27; 3187,342;  195,971; 8880,267;34,44575
 245,87; 3293,742;  209,373; 8777,534;35,99803
 246,47; 3322,935;  188,171; 8790,362;36,44146
 247,06; 3399,084;  173,372; 8816,141;37,32267
 247,66; 3501,757;  172,972; 8941,810;37,96152
 248,26; 3624,859;  208,171; 9026,468;38,74544
 248,86; 3674,023;  197,971; 9181,944;38,69171
 249,46; 3764,079;  165,373; 9444,253;38,78384
 250,05; 4012,492;  195,972; 9783,266;39,80810
 250,65; 4078,121;  149,571;10138,313;39,32978
 251,25; 4231,721;  171,372;10609,388;38,89962
 251,85; 4418,106;  159,770;11118,766;38,85699
 252,44; 4592,069;  132,971;11710,174;38,51619
 253,04; 4811,082;  197,371;12463,062;37,61476
 253,64; 4964,032;  163,171;13112,912;37,07303
 254,24; 5253,447;  193,572;13970,475;36,72723
 254,84; 5445,222;  183,973;14890,853;35,77407
 255,43; 5693,883;  191,571;15757,603;35,34820
 256,03; 5857,021;  183,971;16591,684;34,57551
 256,63; 6028,524;  198,570;17660,118;33,38738
 257,23; 6187,909;  169,170;18345,547;33,11297
 257,82; 6342,980;  190,769;19251,922;32,27618
 258,42; 6369,417;  152,769;19951,490;31,39924
 259,02; 6501,312;  194,171;20729,623;30,71342
 259,62; 6441,514;  163,369;21428,059;29,52380
 260,21; 6389,794;  194,771;21896,222;28,54659
 260,81; 6317,890;  172,972;22326,403;27,73800
 261,41; 6196,782;  167,369;22570,864;26,91282
 262,01; 6166,347;  206,768;23108,504;26,02239
 262,60; 5925,337;  168,170;23373,147;24,81005
 263,20; 5748,429;  156,371;23500,628;23,95475
 263,80; 5586,578;  205,368;23599,066;23,00282
 264,40; 5353,997;  160,968;23819,858;21,94959
 264,99; 5104,874;  182,368;23843,294;20,80437
 265,59; 4903,493;  167,567;24059,513;19,82227
 266,19; 4714,479;  146,568;24172,257;19,01261
 266,78; 4549,343;  210,768;24316,185;17,99834
 267,38; 4329,538;  183,967;24330,944;17,16807
 267,98; 4150,431;  157,568;24150,966;16,64151
 268,58; 4001,945;  184,567;24217,448;15,88398
 269,17; 3794,049;  164,966;24285,346;15,04571
 269,77; 3632,005;  198,370;24085,497;14,37442
 270,37; 3377,104;  147,368;23944,855;13,57175
 270,96; 3298,541;  207,769;23900,074;13,04547
 271,56; 3092,644;  182,770;23601,023;12,42567
 272,16; 2966,803;  177,569;23375,339;12,02372
 272,75; 2800,188;  187,969;23411,568;11,24812
 273,35; 2720,541;  190,969;23294,694;10,94876
 273,95; 2608,375;  185,769;23354,159;10,45651
 274,54; 2513,436;  158,572;23331,028;10,16234
 275,14; 2452,619;  192,569;23707,828; 9,61099
 275,74; 2399,836;  153,369;23879,482; 9,46833
 276,33; 2399,115;  203,970;24142,154; 9,17006
 276,93; 2391,482;  188,772;24583,858; 9,02932
 277,53; 2374,465;  192,571;25175,231; 8,73363
 278,12; 2362,668;  166,570;25657,758; 8,61512
 278,72; 2456,892;  205,171;26178,411; 8,66939
 279,32; 2444,035;  164,571;26753,991; 8,57282
 279,91; 2458,417;  171,371;27521,361; 8,36215
 280,51; 2539,685;  184,971;28009,765; 8,46264
 281,11; 2595,681;  196,371;28752,665; 8,40204
 281,70; 2609,647;  168,771;29039,102; 8,45462
 282,30; 2723,359;  164,370;29898,623; 8,60620
 282,90; 2793,326;  162,570;30314,080; 8,72512
 283,49; 2920,014;  190,569;30828,085; 8,90883
 284,09; 3011,251;  203,370;31190,426; 9,06146
 284,69; 3102,671;  185,371;31498,658; 9,31649
 285,28; 3195,064;  210,370;31942,235; 9,40598
 285,88; 3340,484;  227,969;32156,996; 9,74823
 286,47; 3413,424;  177,970;32188,289;10,10754
 287,07; 3536,705;  194,771;32347,001;10,39410
 287,67; 3732,352;  195,172;32354,546;10,99891
 288,26; 3850,638;  184,971;32405,315;11,37687
 288,86; 4059,999;  186,570;32495,769;11,98862
 289,46; 4311,792;  186,371;32680,542;12,69588
 290,05; 4565,391;  179,172;32626,997;13,51776
 290,65; 4856,819;  185,370;32941,526;14,26129
 291,24; 5184,288;  194,771;32878,468;15,26607
 291,84; 5532,524;  202,970;33219,118;16,14226
 292,44; 5860,957;  169,373;33300,709;17,17886
 293,03; 6260,134;  246,171;33547,421;18,05927
 293,63; 6525,303;  186,770;33615,584;18,96129
 294,22; 6902,121;  208,371;33698,513;19,98722
 294,82; 7196,217;  182,368;33743,792;20,89854
 295,41; 7499,647;  156,771;33498,702;22,02295
 296,01; 7805,165;  227,569;33383,433;22,85447
 296,61; 8127,090;  194,371;33207,630;24,02889
 297,20; 8291,737;  196,769;32826,653;24,80845
 297,80; 8530,282;  204,972;32694,780;25,62438
 298,39; 8723,535;  175,570;32287,366;26,61939
 298,99; 9018,277;  191,569;32103,970;27,65918
 299,58; 9201,109;  202,372;31960,897;28,33487
 300,18; 9420,204;  209,372;31811,026;29,14668
 300,78; 9541,905;  171,771;31484,299;29,92455
 301,37; 9802,191;  207,968;31547,997;30,61332
 301,97;10018,627;  187,571;31411,847;31,48530
 302,56;10177,303;  182,570;31378,165;32,03892
 303,16;10378,246;  154,770;31499,886;32,61585
 303,75;10599,280;  174,571;31460,900;33,32033
 304,35;10883,487;  188,573;31471,397;34,18781
 304,94;11079,704;  194,771;31687,381;34,56345
 305,54;11266,091;  187,371;31750,070;35,10067
 306,13;11315,015;  151,573;31621,627;35,47322
 306,73;11457,352;  159,173;31458,566;36,09712
 307,33;11663,527;  198,772;31266,869;36,90202
 307,92;11858,442;  181,971;31330,916;37,48593
 308,52;12201,861;  169,770;31983,457;37,82049
 309,11;12585,867;  176,969;32351,365;38,56762
 309,71;12853,644;  152,968;32616,552;39,12284
 310,30;13148,771;  174,971;32954,887;39,57850
 310,90;13529,771;  185,971;33262,687;40,34197
 311,49;13651,078;  183,771;33381,562;40,56688
 312,09;13783,941;  151,372;33501,122;40,87758
 312,68;14191,850;  211,971;33895,860;41,50316
 313,28;14385,727;  158,371;34163,316;41,83908
 313,87;14457,540;  155,571;34084,705;42,15247
 314,47;14796,891;  180,169;34410,101;42,70158
 315,06;14880,068;  167,171;34623,354;42,70031
 315,66;15150,941;  175,372;34781,722;43,27405
 316,25;15272,796;  155,370;34635,211;43,84425
 316,85;15299,853;  151,972;34745,960;43,78761
 317,44;15470,977;  158,569;34808,042;44,19233
 318,04;15583,348;  154,570;34964,575;44,32282
 318,63;15677,363;  152,173;34926,013;44,64618
 319,22;15862,478;  179,570;35223,088;44,75267
 319,82;15810,855;  169,770;35286,149;44,54071
 320,41;15910,006;  180,770;35143,517;44,98856
 321,01;15997,061;  184,572;35123,206;45,25789
 321,60;16075,789;  168,770;35341,283;45,22571
 322,20;15974,376;  157,971;35299,850;45,00728
 322,79;16112,508;  208,771;35313,402;45,30381
 323,39;16191,167;  169,373;35372,034;45,51302
 323,98;16159,091;  144,771;35282,670;45,57563
 324,58;16132,015;  178,970;35129,905;45,64412
 325,17;16141,456;  196,170;35027,392;45,77872
 325,76;15982,616;  188,171;34881,219;45,52625
 326,36;15872,599;  149,972;34539,463;45,71928
 326,95;15746,889;  188,371;34192,512;45,75477
 327,55;15547,217;  153,970;33899,863;45,61517
 328,14;15346,426;  170,972;33373,200;45,70613
 328,74;15254,830;  209,170;33084,174;45,76626
 329,33;15115,676;  182,972;32760,777;45,83705
 329,92;14785,516;  158,569;31966,499;45,98522
 330,52;14580,536;  188,172;31457,277;46,02743
 331,11;14339,372;  179,770;31131,730;45,74703
 331,71;14076,132;  183,571;30498,361;45,82767
 332,30;13817,990;  180,371;29967,981;45,78286
 332,89;13597,126;  211,371;29360,253;45,92202
 333,49;13235,614;  177,171;28810,559;45,60565
 334,08;13033,921;  185,570;28460,415;45,44092
 334,68;12756,239;  184,370;28111,558;45,01660
 335,27;12694,230;  194,572;27666,421;45,49988
 335,86;12448,515;  225,970;27437,330;44,91707
 336,46;12291,736;  194,772;27302,755;44,62510
 337,05;12170,636;  170,170;27101,835;44,55894
 337,65;12102,536;  161,970;26927,606;44,61155
 338,24;12058,629;  230,171;26958,727;44,25401
 338,83;11972,553;  214,371;26752,013;44,30756
 339,43;11869,588;  166,370;26752,745;44,01961
 340,02;11853,982;  181,970;26565,382;44,23997
 340,61;11711,629;  175,971;26737,307;43,43026
 341,21;11784,973;  207,170;26763,374;43,59736
 341,80;11694,041;  187,370;26798,720;43,23971
 342,40;11681,460;  194,772;26864,163;43,07068
 342,99;11713,411;  180,971;26944,253;43,09053
 343,58;11662,390;  176,772;27133,577;42,60749
 344,18;11739,105;  180,572;27216,597;42,75234
 344,77;11759,378;  173,570;27606,039;42,23392
 345,36;11853,603;  160,371;27912,912;42,13392
 345,96;12022,841;  210,972;28078,872;42,38521
 346,55;12037,816;  176,173;28447,768;41,95604
 347,14;12108,636;  160,972;28783,106;41,74274
 347,74;12184,384;  139,974;29189,920;41,46104
 348,33;12393,580;  191,974;29817,918;41,18554
 348,92;12575,596;  183,775;30549,105;40,80911
 349,52;12715,561;  156,174;30955,103;40,77865
 350,11;12776,091;  162,170;31210,819;40,62631
 350,70;12714,167;  172,171;31120,364;40,52578
 351,29;12484,892;  152,368;30924,689;40,07668
 351,89;12401,713;  179,969;30993,518;39,66354
 352,48;12305,705;  148,171;30885,421;39,55310
 353,07;12256,725;  183,172;30877,907;39,33428
 353,67;12083,465;  190,175;30820,573;38,82839
 354,26;11930,790;  178,172;30601,753;38,62996
 354,85;11796,029;  177,172;30468,703;38,35678
 355,45;11649,876;  147,370;30439,404;37,97205
 356,04;11410,297;  173,573;30375,327;37,20554
 356,63;11274,395;  206,771;30066,646;37,06521
 357,22;11166,500;  184,368;29905,512;36,95057
 357,82;11005,008;  187,968;29668,706;36,69189
 358,41;10878,242;  199,771;29572,438;36,35513
 359,00;10635,456;  163,770;29435,592;35,77395
 359,60;10615,047;  185,571;29456,479;35,63086
 360,19;10342,913;  182,373;29120,338;35,11146
 360,78;10314,371;  182,770;29146,310;34,98053
 361,37;10088,558;  189,170;28916,701;34,45958
 361,97; 9988,253;  182,971;28635,265;34,46218
 362,56; 9782,893;  167,969;28360,780;34,10417
 363,15; 9598,986;  215,170;28158,481;33,58162
 363,74; 9376,946;  172,569;27752,539;33,37341
 364,34; 9161,972;  182,370;27352,554;33,04947
 364,93; 8912,728;  175,169;26963,065;32,61756
 365,52; 8689,658;  145,370;26728,130;32,14221
 366,11; 8471,610;  181,770;26167,240;31,90183
 366,71; 8312,335;  159,970;26022,688;31,52169
 367,30; 8093,438;  174,170;25559,416;31,19634
 367,89; 7904,403;  206,172;25401,865;30,55376
 368,48; 7741,606;  166,169;25075,721;30,41177
 369,07; 7521,738;  183,571;24633,164;30,01345
 369,67; 7323,804;  191,769;24284,979;29,60185
 370,26; 7205,398;  168,771;24087,545;29,41885
 370,85; 7010,504;  186,170;23838,483;28,85271
 371,44; 6881,329;  177,571;23618,579;28,59842
 372,03; 6659,126;  168,370;23337,002;28,01528
 372,63; 6473,944;  147,771;23093,550;27,57010
 373,22; 6347,046;  167,171;22783,439;27,32491
 373,81; 6239,207;  147,170;22461,635;27,30084
 374,40; 6099,294;  169,372;22139,047;26,99140
 374,99; 5916,217;  165,970;21953,443;26,39244
 375,59; 5771,294;  156,172;21667,828;26,10269
 376,18; 5687,887;  191,770;21468,872;25,83114
 376,77; 5562,605;  203,371;21364,952;25,32530
 377,36; 5475,613;  199,370;21278,940;25,03013
 377,95; 5339,138;  176,570;20936,669;24,86774
 378,55; 5248,632;  175,772;20880,606;24,50085
 379,14; 5200,460;  198,770;20761,892;24,32359
 379,73; 5044,512;  184,170;20648,651;23,75014
 380,32; 5009,264;  202,171;20712,913;23,43695
 380,91; 4913,727;  151,769;20583,445;23,30674
 381,50; 4900,223;  179,570;20550,771;23,17317
 382,10; 4787,692;  162,771;20394,913;22,85928
 382,69; 4691,141;  160,970;20364,549;22,42261
 383,28; 4704,136;  192,770;20401,829;22,32349
 383,87; 4582,686;  157,570;20188,334;22,09160
 384,46; 4526,679;  162,369;20195,735;21,78521
 385,05; 4511,784;  202,570;20207,523;21,54074
 385,64; 4437,753;  171,770;20158,440;21,34414
 386,24; 4370,305;  156,168;20099,553;21,13050
 386,83; 4354,095;  192,168;20144,447;20,85940
 387,42; 4338,841;  200,570;20295,621;20,59348
 388,01; 4397,693;  177,767;20546,811;20,71735
 388,60; 4356,603;  179,569;20726,841;20,32890
 389,19; 4373,311;  159,766;21010,611;20,20803
 389,78; 4388,280;  180,366;21128,927;20,08689
 390,37; 4506,323;  208,568;21641,549;20,05206
 390,96; 4457,513;  186,168;21815,620;19,74782
 391,56; 4471,890;  182,966;21914,379;19,73606
 392,15; 4479,161;  157,167;22239,463;19,57221
 392,74; 4484,374;  149,764;22406,546;19,47546
 393,33; 4561,801;  154,165;22663,977;19,58095
 393,92; 4605,808;  188,363;23131,835;19,25360
 394,51; 4590,438;  163,965;23327,444;19,10971
 395,10; 4681,671;  194,760;23569,872;19,19525
 395,69; 4635,750;  182,161;23573,066;19,03983
 396,28; 4649,434;  182,959;23658,331;19,02621
 396,87; 4662,155;  201,757;23993,409;18,74774
 397,46; 4710,035;  181,955;24041,473;18,97809
 398,06; 4736,122;  204,753;24189,344;18,89283
 398,65; 4717,928;  197,949;24189,052;18,84023
 399,24; 4783,692;  180,348;24500,131;18,92839
 399,83; 4728,539;  163,741;24445,460;18,79932
 400,42; 4776,215;  206,135;24512,385;18,80208
 401,01; 4827,115;  170,928;24724,112;18,96368
 401,60; 4803,593;  181,918;24816,096;18,76123
 402,19; 4809,974;  194,110;24662,362;18,86471
 402,78; 4786,131;  219,099;24613,473;18,72166
 403,37; 4720,050;  196,288;24505,274;18,60942
 403,96; 4758,298;  187,674;24293,776;18,96044
 404,55; 4776,470;  192,660;24133,732;19,14622
 405,14; 4735,244;  184,247;24038,022;19,07873
 405,73; 4750,422;  197,631;23981,267;19,14253
 406,32; 4747,246;  191,621;24101,578;19,05326
 406,91; 4732,039;  187,609;23737,316;19,29718
 407,50; 4724,264;  185,002;23539,545;19,43631
 408,09; 4646,896;  152,198;23115,950;19,57301
 408,68; 4640,843;  182,995;23193,869;19,37279
 409,27; 4661,747;  154,999;22857,262;19,85154
 409,86; 4647,125;  157,808;22774,037;19,84998
 410,45; 4692,240;  211,416;22694,697;19,92958
 411,04; 4705,028;  212,624;22573,806;20,09019
 411,63; 4693,907;  196,235;22229,067;20,41350
 412,22; 4650,110;  191,644;22057,939;20,38967
 412,81; 4666,746;  201,048;21784,907;20,68999
 413,40; 4666,345;  210,252;21438,664;20,99117
 413,99; 4591,095;  258,651;21227,216;20,66161
 414,58; 4484,617;  187,452;20694,737;20,95433
 415,17; 4492,076;  175,248;20501,298;21,23791
 415,76; 4483,097;  180,244;20395,432;21,28525
 416,35; 4440,054;  174,846;20161,732;21,34003
 416,94; 4559,135;  222,045;20313,714;21,58651
 417,53; 4585,583;  177,648;20493,672;21,69684
 418,12; 4646,677;  174,049;20614,393;21,88137
 418,71; 4814,785;  197,252;20941,732;22,25909
 419,30; 4820,250;  181,049;21012,852;22,26980
 419,89; 4899,211;  185,050;21163,001;22,47198
 420,48; 5051,555;  199,052;21489,970;22,79142
 421,07; 5034,339;  204,653;21596,176;22,57757
 421,66; 5076,154;  164,255;21538,096;22,98089
 422,25; 5171,584;  185,259;21534,257;23,35625
 422,84; 5200,864;  208,860;21487,749;23,45989
 423,43; 5159,513;  195,258;21191,232;23,64384
 424,02; 5130,298;  218,859;20971,837;23,66619
 424,60; 5092,019;  191,663;20564,538;24,05333
 425,19; 5087,213;  209,061;20305,406;24,27383
 425,78; 5124,808;  205,261;20207,342;24,59517
 426,37; 5129,730;  206,063;20111,059;24,73584
 426,96; 5176,060;  205,863;19945,049;25,17934
 427,55; 5123,856;  188,865;19762,574;25,21234
 428,14; 5145,995;  183,867;19519,125;25,66363
 428,73; 5132,311;  208,464;19341,737;25,73447
 429,32; 5204,124;  205,063;19425,276;26,00940
 429,91; 5238,466;  228,464;19418,805;26,10689
 430,50; 5270,848;  205,466;19183,005;26,69146
 431,08; 5269,636;  226,467;18999,311;26,86417
 431,67; 5236,183;  268,868;19016,987;26,49500
 432,26; 5287,772;  281,070;18905,633;26,88225
 432,85; 5245,308;  281,869;18476,831;27,27920
 433,44; 5143,649;  293,471;18078,520;27,27110
 434,03; 5104,763;  304,473;17738,947;27,53332
 434,62; 4985,815;  268,471;17308,235;27,68432
 435,21; 5011,716;  309,069;17213,975;27,81824
 435,79; 4977,372;  281,872;16934,179;28,19730
 436,38; 5016,552;  278,275;16896,072;28,51327
 436,97; 4999,817;  274,475;16729,837;28,71613
 437,56; 4978,740;  266,478;16623,825;28,80823
 438,15; 4972,757;  255,878;16496,161;29,04431
 438,74; 5052,341;  252,078;16499,268;29,54519
 439,33; 5050,613;  229,677;16456,341;29,70996
 439,91; 5135,282;  196,479;16520,581;30,25467
 440,50; 5219,052;  232,479;16621,240;30,42679
 441,09; 5324,218;  254,681;16749,826;30,73351
 441,68; 5256,912;  232,283;16730,041;30,45644
 442,27; 5320,270;  209,882;16687,816;31,01352
 442,86; 5375,154;  206,287;16651,772;31,43031
 443,44; 5404,621;  203,886;16753,004;31,42606
 444,03; 5511,407;  273,887;16791,849;31,70803
 444,62; 5402,539;  204,087;16619,601;31,66792
 445,21; 5451,591;  219,286;16471,340;32,19473
 445,80; 5469,155;  221,889;16363,863;32,50697
 446,39; 5471,779;  255,888;16196,422;32,72093
 446,97; 5338,587;  209,491;15841,813;32,81084
 447,56; 5318,962;  201,493;15706,886;33,00445
 448,15; 5312,532;  204,091;15505,975;33,38439
 448,74; 5264,852;  230,291;15290,758;33,42898
 449,33; 5287,355;  211,892;15142,083;33,99463
 449,91; 5215,447;  223,095;14894,015;34,02890
 450,50; 5152,993;  196,694;14714,040;34,14053
 451,09; 5142,204;  211,295;14708,166;34,01361
 451,68; 5180,551;  235,696;14536,163;34,57827
 452,26; 5156,986;  227,697;14402,943;34,77392
 452,85; 5130,916;  211,896;14299,357;34,91772
 453,44; 5184,968;  219,299;14312,838;35,23366
 454,03; 5198,825;  191,497;14305,367;35,47806
 454,61; 5202,816;  207,099;14368,230;35,27767
 455,20; 5321,558;  220,300;14521,704;35,66963
 455,79; 5357,074;  222,498;14447,995;36,09418
 456,38; 5459,690;  223,302;14552,908;36,54244
 456,97; 5553,038;  213,701;14622,094;37,05713
 457,55; 5480,992;  212,703;14558,695;36,72307
 458,14; 5589,091;  229,501;14553,453;37,41698
 458,73; 5553,125;  214,503;14483,287;37,41470
 459,31; 5591,510;  232,705;14529,387;37,48286
 459,90; 5655,350;  247,904;14600,360;37,67610
 460,49; 5758,753;  283,703;14696,165;37,98830
 461,08; 5756,692;  207,506;14867,089;37,85364
 461,66; 5812,543;  224,505;14888,910;38,10614
 462,25; 5848,049;  226,907;14940,115;38,20474
 462,84; 5939,968;  251,506;15011,281;38,54030
 463,43; 5928,117;  194,909;14974,511;38,79136
 464,01; 5981,980;  218,710;14995,271;39,00279
 464,60; 6038,212;  257,108;14803,201;39,74334
 465,19; 5877,390;  185,910;14720,475;39,15824
 465,77; 5941,682;  217,911;14554,854;39,92323
 466,36; 5952,414;  245,309;14525,559;39,96502
 466,95; 5782,295;  200,709;14226,494;39,79517
 467,53; 5735,854;  204,512;13914,149;40,34638
 468,12; 5654,076;  249,513;13740,122;40,06167
 468,71; 5577,260;  230,310;13415,162;40,55373
 469,29; 5484,836;  191,513;13187,353;40,73090
 469,88; 5360,468;  227,514;12883,731;40,55678
 470,47; 5480,237;  255,916;12949,820;41,15614
 471,06; 5461,358;  220,316;13005,744;40,99231
 471,64; 5542,003;  220,515;13189,379;41,03280
 472,23; 5543,575;  196,519;13015,701;41,71137
 472,81; 5624,619;  188,917;13223,040;41,70363
 473,40; 5692,806;  191,319;13326,682;41,88302
 473,99; 5850,971;  285,319;13423,177;42,36347
 474,57; 5875,113;  209,519;13701,757;41,99151
 475,16; 5974,512;  222,117;13824,843;42,28854
 475,75; 6058,352;  225,720;13942,558;42,52170
 476,33; 6079,405;  231,721;14015,988;42,42289
 476,92; 6128,632;  233,519;13987,799;42,86021
 477,51; 6124,324;  229,721;14118,754;42,44070
 478,09; 6258,368;  232,321;14143,545;43,31788
 478,68; 6237,064;  216,521;14012,349;43,64031
 479,27; 6254,463;  233,520;14178,435;43,17662
 479,85; 6285,096;  218,121;14165,872;43,49787
 480,44; 6322,244;  207,122;14306,392;43,37190
 481,02; 6938,053;  229,523;16077,972;42,32925
 481,61; 7862,380;  254,923;17850,264;43,23563
 482,20; 8491,394;  254,723;19118,411;43,66416
 482,78; 8868,769;  260,922;19733,161;44,20574
 483,37; 9045,175;  262,525;19948,568;44,61359
 483,95; 9155,068;  295,325;20382,571;44,10631
 484,54; 9400,818;  297,122;20576,671;44,89102
 485,13; 9371,297;  258,327;20626,963;44,74021
 485,71; 9346,458;  265,126;20428,959;45,03773
 486,30; 9350,074;  288,926;20149,750;45,62322
 486,88; 9225,593;  315,727;19817,991;45,68632
 487,47; 8944,684;  305,527;19173,432;45,78758
 488,05; 8506,270;  304,528;18210,999;45,80323
 488,64; 7975,060;  297,729;16839,124;46,41283
 489,23; 7220,174;  293,128;14766,050;47,86211
 489,81; 6132,715;  292,329;12721,186;46,99053
 490,40; 5765,519;  236,929;12197,408;46,22382
 490,98; 5605,006;  233,530;11871,146;46,15616
 491,57; 5621,417;  277,529;11845,499;46,19556
 492,15; 5590,601;  261,530;11813,481;46,13135
 492,74; 5531,436;  257,928;11767,515;45,81840
 493,32; 5552,995;  259,930;11624,078;46,57687
 493,91; 5474,782;  231,331;11482,743;46,60260
 494,50; 5493,512;  245,333;11400,981;47,04503
 495,08; 5519,643;  225,733;11356,514;47,56099
 495,67; 5462,220;  241,930;11337,151;47,04989
 496,25; 5466,591;  210,132;11263,524;47,55517
 496,84; 5430,648;  202,730;11298,531;47,11618
 497,42; 5422,364;  197,532;11106,042;47,89684
 498,01; 5422,771;  219,131;11139,496;47,65079
 498,59; 5395,354;  203,133;11065,034;47,80214
 499,18; 5395,409;  202,331;11012,202;48,04015
 499,76; 5406,789;  205,132;10907,562;48,60258
 500,35; 5232,175;  203,734;10683,262;47,98347
 500,93; 5251,671;  187,332;10677,317;48,27784
 501,52; 5239,156;  200,133;10557,596;48,65114
 502,10; 5286,456;  208,535;10546,594;49,11871
 502,69; 5167,703;  196,336;10400,362;48,71967
 503,27; 5112,633;  190,133;10262,506;48,87130
 503,86; 5049,228;  209,735;10065,112;49,10511
 504,44; 5060,717;  182,936;10030,290;49,53393
 505,03; 4927,728;  162,736; 9694,137;49,99257
 505,61; 4863,990;  192,536; 9702,182;49,12332
 506,19; 4786,486;  204,136; 9472,108;49,44285
 506,78; 4711,278;  172,338; 9340,713;49,50648
 507,36; 4597,266;  183,936; 9137,175;49,29311
 507,95; 4553,602;  181,139; 9036,995;49,37369
 508,53; 4535,069;  187,138; 8897,027;49,91948
 509,12; 4490,809;  199,738; 8754,622;50,15931
 509,70; 4434,504;  204,739; 8637,406;50,15928
 510,29; 4318,081;  205,340; 8415,965;50,09047
 510,87; 4228,475;  174,738; 8270,731;50,07091
 511,46; 4124,544;  177,338; 8086,477;49,90689
 512,04; 4086,913;  186,939; 7957,770;50,18734
 512,62; 4032,017;  196,138; 7778,868;50,58704
 513,21; 3943,774;  171,140; 7678,090;50,25522
 513,79; 3908,220;  197,143; 7549,188;50,47681
 514,38; 3822,983;  181,142; 7320,047;51,01401
 514,96; 3815,620;  209,742; 7281,093;50,99277
 515,54; 3701,690;  181,542; 7104,679;50,84613
 516,13; 3657,372;  186,942; 7021,976;50,77415
 516,71; 3600,435;  192,944; 6926,813;50,60227
 517,30; 3547,452;  181,145; 6826,840;50,65395
 517,88; 3536,067;  188,345; 6746,811;51,04429
 518,46; 3453,444;  170,545; 6594,672;51,10264
 519,05; 3440,482;  179,746; 6495,754;51,62653
 519,63; 3421,369;  191,345; 6542,018;50,86113
 520,22; 3358,721;  217,947; 6442,155;50,46062
 520,80; 3312,788;  187,147; 6364,261;50,60034
 521,38; 3378,109;  210,146; 6401,013;51,17156
 521,97; 3317,969;  200,348; 6282,943;51,25478
 522,55; 3320,222;  199,748; 6282,800;51,29782
 523,13; 3271,753;  179,949; 6301,529;50,50664
 523,72; 3274,487;  168,345; 6249,243;51,08032
 524,30; 3410,428;  211,950; 6385,078;51,81293
 524,89; 3384,750;  176,548; 6358,449;51,89669
 525,47; 3483,024;  200,750; 6540,633;51,77184
 526,05; 3488,860;  161,550; 6521,777;52,31433
 526,64; 3535,215;  201,551; 6660,943;51,60957
 527,22; 3628,540;  202,350; 6749,594;52,33026
 527,80; 3755,654;  216,751; 6871,971;53,17485
 528,39; 3744,922;  197,351; 6962,595;52,43818
 528,97; 3815,898;  197,551; 7113,440;52,31933
 529,55; 3938,632;  203,749; 7325,624;52,44241
 530,14; 4016,364;  207,752; 7528,922;52,02191
 530,72; 4115,799;  185,551; 7652,030;52,63857
 531,30; 4137,574;  177,752; 7705,828;52,60072
 531,89; 4199,266;  197,552; 7831,933;52,41702
 532,47; 4295,676;  228,752; 7901,317;53,00605
 533,05; 4261,896;  233,151; 8000,980;51,86449
 533,63; 4333,688;  227,153; 8024,404;52,66645
 534,22; 4356,436;  184,953; 8097,148;52,72220
 534,80; 4383,125;  208,154; 8130,623;52,69785
 535,38; 4469,960;  261,952; 8300,477;52,34801
 535,97; 4401,171;  217,952; 8189,603;52,47619
 536,55; 4440,488;  239,754; 8349,577;51,79810
 537,13; 4465,013;  259,552; 8289,256;52,37380
 537,71; 4489,089;  298,752; 8354,350;52,01771
 538,30; 4506,142;  324,553; 8330,979;52,22790
 538,88; 4557,945;  370,155; 8471,232;51,69424
 539,46; 4659,520;  409,954; 8696,680;51,28160
 540,05; 4741,558;  418,554; 8885,743;51,05595
 540,63; 4804,063;  489,755; 8987,277;50,77138
 541,21; 4912,870;  514,355; 9101,578;51,22163
 541,79; 4954,277;  550,155; 9207,482;50,87161
 542,38; 5035,776;  583,154; 9437,837;50,28551
 542,96; 5123,975;  595,756; 9546,966;50,58779
 543,54; 5225,814;  618,955; 9809,719;50,12488
 544,12; 5346,707;  575,756; 9945,922;50,91640
 544,70; 5375,394;  567,556; 9959,138;51,19305
 545,29; 5489,689;  575,354;10202,475;51,04677
 545,87; 5460,420;  539,155;10182,482;51,03285
 546,45; 5486,963;  494,954;10226,408;51,29766
 547,03; 5496,340;  481,555;10286,689;51,14449
 547,62; 5562,596;  445,155;10398,845;51,41250
 548,20; 5687,491;  442,556;10554,508;51,86867
 548,78; 5685,353;  423,559;10673,898;51,33288
 549,36; 5842,329;  378,158;10871,763;52,07144
 549,94; 5889,016;  338,556;10875,057;52,67840
 550,53; 6011,525;  337,358;11173,922;52,36131
 551,11; 6065,817;  320,159;11369,121;52,00179
 551,69; 6230,955;  321,158;11645,981;52,18445
 552,27; 6363,972;  263,357;11964,718;52,13594
 552,85; 6506,487;  262,159;12227,130;52,18841
 553,44; 6632,186;  260,958;12593,143;51,66341
 554,02; 6920,419;  280,559;12963,584;52,35234
 554,60; 6998,016;  217,759;13196,779;52,24013
 555,18; 7192,593;  271,558;13667,468;51,66528
 555,76; 7376,002;  251,559;13974,632;51,91580
 556,34; 7544,055;  240,560;14358,681;51,73135
 556,93; 7719,275;  228,358;14680,944;51,83098
 557,51; 7826,550;  209,960;14982,768;51,55817
 558,09; 8086,099;  232,158;15343,801;51,97278
 558,67; 8200,236;  236,761;15780,364;51,23313
 559,25; 8365,662;  255,961;15964,284;51,62678
 559,83; 8449,877;  221,562;16289,350;51,21001
 560,41; 8672,515;  221,760;16657,165;51,41799
 561,00; 8864,972;  218,961;17034,859;51,41570
 561,58; 8890,404;  214,160;17279,088;50,84255
 562,16; 9019,279;  211,959;17477,464;51,01108
 562,74; 9308,738;  185,759;17965,327;51,31159
 563,32; 9500,547;  200,362;18437,359;50,99626
 563,90; 9569,104;  224,961;18787,212;50,33949
 564,48; 9835,117;  225,160;19233,648;50,55614
 565,06;10102,620;  212,161;19645,953;50,89310
 565,65;10390,654;  215,363;20566,587;49,99842
 566,23;10836,148;  265,961;21284,202;50,29054
 566,81;11160,760;  220,561;21811,894;50,66940
 567,39;11550,956;  241,762;22814,523;50,10107
 567,97;11876,751;  243,961;23468,486;50,08839
 568,55;12328,459;  233,162;24299,977;50,25716
 569,13;12542,929;  208,961;24989,088;49,77363
 569,71;13006,663;  226,159;25929,073;49,72395
 570,29;13557,505;  262,958;26884,706;49,93867
 570,87;13991,794;  260,159;27621,986;50,18537
 571,45;14179,290;  260,561;28308,382;49,62499
 572,03;14367,287;  207,762;28687,954;49,71710
 572,61;14764,547;  205,562;29493,539;49,70977
 573,20;15079,924;  253,960;30196,149;49,51530
 573,78;15282,273;  237,562;30789,806;49,24257
 574,36;15567,150;  247,561;31220,242;49,46162
 574,94;15780,904;  271,162;31592,384;49,51832
 575,52;15810,189;  227,364;31876,615;49,23600
 576,10;16079,108;  291,163;32314,782;49,30094
 576,68;16271,397;  281,962;32978,611;48,90237
 577,26;16678,171;  282,765;33716,239;49,03889
 577,84;16847,436;  314,361;34175,662;48,82587
 578,42;16981,874;  332,563;34450,721;48,79897
 579,00;16972,712;  282,962;34449,854;48,84773
 579,58;17066,674;  314,963;34647,623;48,79235
 580,16;17041,458;  304,563;34683,208;48,68399
 580,74;17207,470;  320,163;35084,276;48,57684
 581,32;17148,774;  300,363;35042,672;48,49537
 581,90;17085,831;  308,963;35056,770;48,28180
 582,48;17123,183;  323,563;35155,656;48,23029
 583,06;17209,465;  327,563;35249,557;48,34175
 583,64;17175,454;  322,562;35423,889;48,01212
 584,22;17067,004;  320,164;35040,284;48,23382
 584,80;16949,369;  344,963;34743,607;48,27052
 585,38;16701,098;  333,160;34402,452;48,04308
 585,96;16643,582;  315,962;34409,142;47,89116
 586,54;16666,651;  351,964;34509,758;47,76271
 587,12;16568,219;  306,564;34596,659;47,42377
 587,70;16641,737;  333,362;34763,209;47,36697
 588,28;16633,889;  320,363;34823,468;47,28133
 588,86;16655,297;  312,964;35000,232;47,11335
 589,44;16715,242;  299,765;35002,445;47,30320
 590,02;16789,272;  311,965;35292,308;47,10447
 590,59;16797,738;  283,364;35307,920;47,15085
 591,17;16888,900;  275,567;35479,458;47,19175
 591,75;16809,334;  279,566;35627,726;46,76274
 592,33;16940,177;  292,366;35740,399;46,96399
 592,91;16908,381;  243,367;36020,216;46,58044
 593,49;16974,518;  253,767;36438,908;46,20889
 594,07;17076,177;  263,167;36604,270;46,26445
 594,65;16947,838;  294,964;36588,969;45,88326
 595,23;17101,623;  266,765;37001,975;45,82758
 595,81;17089,988;  254,965;37266,968;45,48531
 596,39;17080,835;  252,565;37293,740;45,43125
 596,97;17109,074;  251,967;37509,721;45,24456
 597,55;16996,489;  256,365;37318,563;45,16765
 598,12;16900,026;  237,968;37345,902;44,90161
 598,70;16863,174;  234,367;37422,990;44,71477
 599,28;16873,922;  257,567;37742,333;44,32829
 599,86;16865,635;  238,367;37792,313;44,27569
 600,44;16804,473;  205,967;37837,897;44,10751
 601,02;16850,343;  252,969;37871,236;44,12052
 601,60;16727,389;  247,766;38017,964;43,63128
 602,18;16671,037;  211,768;37952,129;43,61185
 602,75;16654,691;  231,365;37897,901;43,60190
 603,33;16669,944;  238,167;37944,028;43,57884
 603,91;16471,580;  235,169;37847,926;43,16730
 604,49;16512,329;  240,167;37988,858;43,10656
 605,07;16415,290;  267,166;37989,735;42,80759
 605,65;16417,562;  275,568;38103,299;42,67238
 606,23;16362,353;  313,964;38417,871;42,11744
 606,80;16278,097;  387,765;38345,005;41,86377
 607,38;16149,974;  416,568;38379,543;41,44408
 607,96;16170,328;  473,965;38471,967;41,30839
 608,54;16113,969;  556,368;38527,803;40,97185
 609,12;16055,845;  539,765;38612,748;40,75352
 609,70;16040,261;  566,567;38558,532;40,72886
 610,27;15981,558;  583,965;38723,908;40,37130
 610,85;15853,865;  613,567;38653,055;40,06442
 611,43;15814,878;  590,967;38701,742;39,94647
 612,01;15684,497;  553,366;38429,382;39,94911
 612,59;15703,536;  558,967;38572,284;39,84017
 613,16;15527,312;  545,364;38430,980;39,54521
 613,74;15342,834;  498,767;38313,171;39,25506
 614,32;15263,200;  441,568;38356,385;39,09193
 614,90;15197,797;  421,966;37970,909;39,35086
 615,48;14933,643;  377,365;37840,010;38,85545
 616,05;14789,926;  335,764;37790,131;38,59139
 616,63;14695,780;  347,564;37695,651;38,41754
 617,21;14587,404;  318,965;37566,661;38,30690
 617,79;14401,022;  321,566;37422,331;37,94924
 618,36;14308,410;  317,366;37454,440;37,67406
 618,94;14117,688;  270,365;37060,621;37,63856
 619,52;13941,155;  298,764;36965,252;37,20670
 620,10;13825,043;  269,565;36874,987;37,03134
 620,67;13655,956;  287,364;36807,394;36,60619
 621,25;13576,521;  299,566;36373,517;36,80483
 621,83;13470,128;  292,565;36417,269;36,47798
 622,41;13455,303;  318,765;36510,592;36,29697
 622,98;13316,011;  307,364;36334,213;36,10820
 623,56;13149,471;  305,963;36379,316;35,60387
 624,14;12992,513;  258,167;36056,749;35,57221
 624,72;12920,226;  273,565;36110,078;35,28988
 625,29;12821,219;  252,364;35955,259;35,20402
 625,87;12799,044;  300,966;36094,026;34,91760
 626,45;12627,568;  257,563;35941,085;34,66588
 627,02;12572,188;  266,766;35895,646;34,53777
 627,60;12370,132;  251,167;35822,259;34,06970
 628,18;12377,131;  244,365;35763,548;34,15835
 628,76;12340,451;  246,764;35870,280;33,94861
 629,33;12295,202;  269,364;35839,123;33,80916
 629,91;12268,614;  268,565;35889,587;33,68811
 630,49;12196,442;  276,764;35956,892;33,40705
 631,06;12199,903;  277,964;36097,795;33,28307
 631,64;12154,866;  279,563;36138,753;33,11648
 632,22;11932,499;  229,363;35886,519;32,82128
 632,79;12042,532;  236,363;36219,263;32,81050
 633,37;11978,278;  241,966;36164,868;32,67083
 633,95;11931,777;  254,963;36379,551;32,32373
 634,52;11945,457;  225,965;36519,239;32,29109
 635,10;11901,558;  237,565;36531,728;32,13738
 635,68;11974,367;  223,963;36626,567;32,27902
 636,25;11786,186;  227,562;36805,065;31,60036
 636,83;11775,451;  202,364;36852,080;31,57756
 637,41;11734,322;  232,762;36929,937;31,34181
 637,98;11710,475;  240,162;37154,764;31,07256
 638,56;11628,645;  226,961;37210,748;30,82887
 639,13;11601,911;  212,564;37252,383;30,74893
 639,71;11667,958;  266,964;37549,434;30,58004
 640,29;11442,823;  211,964;37153,267;30,40190
 640,86;11473,030;  230,164;37489,945;30,17427
 641,44;11317,523;  211,764;37365,822;29,89111
 642,02;11294,015;  241,964;37456,499;29,69821
 642,59;11267,651;  209,564;37651,177;29,53422
 643,17;11182,430;  215,764;37740,454;29,22520
 643,74;11109,922;  227,564;37589,132;29,12715
 644,32;10948,272;  243,964;37598,009;28,65636
 644,89;10968,337;  239,564;37716,287;28,62783
 645,47;10903,544;  269,364;37663,564;28,43805
 646,05;10840,465;  235,364;37667,042;28,33189
 646,62;10743,672;  229,765;37442,319;28,25366
 647,20;10719,451;  230,965;37713,197;27,98256
 647,77;10531,087;  203,765;37561,474;27,64442
 648,35;10462,579;  205,965;37397,551;27,57778
 648,92;10484,215;  236,965;37432,229;27,54988
 649,50;10354,279;  176,965;37285,506;27,42580
 650,08;10299,629;  196,965;37310,984;27,22062
 650,65;10214,408;  230,365;37572,261;26,73684
 651,23;10317,044;  196,765;38502,139;26,42000
 651,80;10518,822;  199,965;39424,016;26,30747
 652,38;10539,886;  218,965;39698,694;26,14233
 652,95;10620,379;  196,765;40069,171;26,14243
 653,53;10568,586;  228,165;40138,648;25,90904
 654,10;10613,222;  242,565;40354,726;25,85415
 654,68;10540,572;  202,165;40204,403;25,84457
 655,25;10426,065;  199,965;40496,681;25,37700
 655,83;10423,558;  194,965;40659,958;25,27763
 656,40;10413,479;  233,765;40666,636;25,17683
 656,98;10231,972;  210,165;40604,713;24,80980
 657,55;10201,893;  205,566;40348,391;24,90190
 658,13; 9996,815;  202,366;39910,468;24,66612
 658,70; 9950,879;  218,366;39739,745;24,62594
 659,28; 9669,229;  193,166;38768,623;24,56501
 659,85; 9339,579;  213,366;37923,300;24,20108
 660,43; 9312,929;  231,366;38173,578;23,93525
 661,00; 9214,993;  213,166;38140,655;23,73431
 661,58; 9211,772;  198,966;38531,533;23,51214
 662,15; 9170,550;  183,366;38548,410;23,42545
 662,73; 9190,757;  245,966;39044,488;23,05446
 663,30; 9192,250;  215,566;39303,365;22,96544
 663,88; 9113,457;  199,966;39299,442;22,79696
 664,45; 9083,379;  196,766;39619,720;22,54172
 665,03; 9145,729;  215,166;40113,397;22,38335
 665,60; 9242,507;  260,566;40505,075;22,31843
 666,17; 9091,286;  214,766;40460,152;22,05599
 666,75; 9108,921;  216,166;40839,830;21,89058
 667,32; 9062,414;  225,566;41222,107;21,55511
 667,90; 9060,907;  198,766;41635,185;21,38732
 668,47; 9128,686;  224,966;41620,662;21,50880
 669,05; 9138,750;  212,167;42125,139;21,29790
 669,62; 9133,243;  187,567;42222,417;21,28157
 670,19; 9054,593;  195,967;42072,294;21,15426
 670,77; 9083,943;  204,767;42438,372;21,02396
 671,34; 8930,150;  229,567;42484,249;20,59081
 671,92; 8999,785;  188,167;42555,727;20,79803
 672,49; 8941,850;  215,167;42680,604;20,55008
 673,06; 8844,914;  169,967;42731,482;20,38214
 673,64; 8789,835;  192,567;42741,559;20,20557
 674,21; 8682,614;  189,767;42651,636;20,00111
 674,79; 8774,107;  192,567;42965,714;20,06291
 675,36; 8700,599;  223,767;42944,591;19,84239
 675,93; 8613,092;  207,967;42904,469;19,68575
 676,51; 8599,299;  215,567;43098,746;19,55016
 677,08; 8482,792;  210,967;43232,024;19,22739
 677,65; 8542,856;  210,167;43365,901;19,30842
 678,23; 8512,206;  209,567;43610,179;19,13024
 678,80; 8408,556;  194,967;43687,256;18,88516
 679,38; 8424,764;  185,567;43810,733;18,88634
 679,95; 8463,542;  198,368;44029,211;18,85698
 680,52; 8426,463;  200,968;44211,488;18,68984
 681,10; 8503,242;  216,968;44679,566;18,63651
 681,67; 8411,306;  212,368;45044,843;18,28795
 682,24; 8357,656;  185,368;45052,921;18,21425
 682,82; 8415,006;  196,768;45621,998;18,09179
 683,39; 8472,642;  218,368;46011,476;18,02515
 683,96; 8483,563;  206,168;46193,953;17,99912
 684,54; 8458,199;  177,968;46633,031;17,82417
 685,11; 8452,692;  224,968;46853,308;17,64533
 685,68; 8532,185;  212,968;47257,785;17,68360
 686,25; 8415,820;  195,768;47467,063;17,38910
 686,83; 8426,599;  179,168;47447,340;17,44817
 687,40; 8403,949;  184,368;47926,018;17,21679
 687,97; 8495,585;  218,968;48281,895;17,22038
 688,55; 8317,077;  181,568;48410,373;16,86857
 689,12; 8333,284;  182,368;48523,650;16,86119
 689,69; 8363,777;  186,168;48757,928;16,83614
 690,26; 8254,556;  185,168;48923,805;16,55645
 690,84; 8287,192;  188,968;49088,882;16,56081
 691,41; 8198,684;  214,969;49135,360;16,31981
 691,98; 8249,463;  204,769;49439,637;16,33942
 692,56; 8158,099;  184,969;49458,515;16,18136
 693,13; 8158,734;  246,969;49461,192;16,07618
 693,70; 8135,941;  210,369;49672,870;16,02340
 694,27; 8107,006;  192,969;49684,347;15,99074
 694,84; 8001,641;  193,369;49844,425;15,72630
 695,42; 8100,563;  228,769;49975,702;15,82368
 695,99; 7996,484;  186,569;50355,379;15,56727
 696,56; 7941,120;  186,569;50230,457;15,49550
 697,13; 7989,898;  202,169;50660,334;15,43403
 697,71; 7889,963;  171,569;50584,612;15,31031
 698,28; 7871,455;  200,969;50862,089;15,14078
 698,85; 7822,234;  175,969;51010,167;15,04158
 699,42; 7835,155;  166,369;51064,844;15,06683
 699,99; 7771,363;  192,769;51126,522;14,87931
 700,57; 7766,284;  195,769;51344,599;14,80095
 701,14; 7779,634;  183,769;51441,476;14,81897
 701,71; 7753,698;  224,169;51729,554;14,61892
 702,28; 7644,620;  189,369;51685,431;14,47732
 702,85; 7695,398;  216,570;51676,309;14,53336
 703,43; 7656,462;  194,770;51904,386;14,42999
 704,00; 7674,955;  223,770;52188,864;14,33883
 704,57; 7631,019;  222,170;51968,341;14,31768
 705,14; 7615,369;  238,970;52528,019;14,10697
 705,71; 7595,719;  238,970;52596,096;14,05110
 706,28; 7554,784;  219,770;52301,373;14,08369
 706,86; 7564,705;  235,370;52719,051;13,96498
 707,43; 7523,055;  258,170;52483,928;13,91054
 708,00; 7451,405;  238,970;52641,806;13,76344
 708,57; 7383,183;  204,170;52481,083;13,73267
 709,14; 7395,819;  241,770;52773,961;13,61841
 709,71; 7334,312;  210,770;52768,438;13,55376
 710,28; 7390,805;  213,970;53039,716;13,58587
 710,86; 7330,583;  222,570;53179,193;13,42233
 711,43; 7379,505;  231,170;53178,870;13,50075
 712,00; 7269,283;  219,770;53330,348;13,27327
 712,57; 7327,490;  233,170;53295,225;13,36986
 713,14; 7247,412;  208,370;53449,903;13,22096
 713,71; 7175,333;  228,371;53334,380;13,08131
 714,28; 7195,540;  208,371;53302,258;13,16003
 714,85; 7089,033;  200,171;53229,935;12,99056
 715,42; 7103,383;  204,171;53233,813;13,01011
 716,00; 7164,733;  274,371;53582,890;12,92544
 716,57; 7119,512;  210,171;53702,167;12,91659
 717,14; 7052,862;  188,971;53671,045;12,83400
 717,71; 7114,497;  183,971;53611,322;12,97187
 718,28; 7091,276;  216,971;53832,000;12,82160
 718,85; 7004,340;  186,571;53962,077;12,67821
 719,42; 7099,119;  223,771;53933,555;12,80092
 719,99; 6962,040;  191,771;53690,232;12,65507
 720,56; 7013,961;  211,371;54167,910;12,60754
 721,13; 6973,597;  210,571;54121,387;12,54484
 721,70; 6932,804;  202,171;54006,865;12,50938
 722,27; 6909,583;  217,171;54134,942;12,41226
 722,84; 6918,933;  252,771;54232,419;12,34940
 723,41; 6932,140;  188,571;54242,497;12,47563
 723,98; 6903,776;  198,571;54586,774;12,32842
 724,55; 6860,268;  230,371;54513,652;12,21352
 725,12; 6791,333;  168,372;54409,729;12,21017
 725,69; 6833,540;  190,572;54631,407;12,20218
 726,27; 6796,604;  208,772;54839,084;12,05893
 726,84; 6833,240;  204,172;55140,362;12,06685
 727,41; 6874,590;  217,172;54813,639;12,19386
 727,98; 6880,225;  222,372;55353,716;12,07635
 728,55; 6883,718;  250,572;55086,394;12,09637
 729,12; 6869,068;  200,972;55243,871;12,11436
 729,69; 6836,418;  219,772;55415,549;11,98760
 730,26; 6858,482;  217,372;55694,226;11,97096
 730,82; 6829,690;  209,772;55473,904;11,97869
 731,39; 6837,182;  220,972;55566,181;11,95444
 731,96; 6869,532;  181,972;55957,259;11,99019
 732,53; 6856,597;  212,972;56028,336;11,90286
 733,10; 6857,518;  208,972;56151,813;11,88453
 733,67; 6864,725;  200,972;56541,291;11,82768
 734,24; 6827,075;  206,972;55959,168;11,87416
 734,81; 6853,711;  234,372;56280,646;11,81049
 735,38; 6854,632;  216,372;56038,923;11,89172
 735,95; 6774,411;  206,573;55793,401;11,81546
 736,52; 6841,618;  239,973;56073,078;11,82389
 737,09; 6767,111;  218,973;55695,556;11,80343
 737,66; 6857,032;  269,173;55913,033;11,83933
 738,23; 6784,811;  195,373;56021,110;11,80358
 738,80; 6894,875;  237,773;56286,188;11,87741
 739,37; 6841,082;  237,573;56592,065;11,71780
 739,94; 6877,146;  213,573;56504,343;11,83777
 740,51; 6971,496;  286,973;56571,020;11,87641
 741,07; 6877,846;  199,373;56462,298;11,87011
 741,64; 6892,768;  251,573;56792,775;11,74576
 742,21; 6932,832;  215,973;56653,853;11,90133
 742,78; 6878,039;  194,973;56474,130;11,87485
 743,35; 6875,389;  214,173;56710,607;11,79051
 743,92; 6970,739;  247,373;56925,485;11,86237
 744,49; 6943,375;  237,973;56769,762;11,86129
 745,06; 6919,582;  200,573;56655,440;11,90156
 745,63; 6940,217;  189,373;56752,117;11,93514
 746,19; 6965,424;  204,773;56975,195;11,90876
 746,76; 6896,489;  210,973;56909,872;11,79126
 747,33; 7003,124;  217,174;56688,150;12,01671
 747,90; 7018,331;  227,974;57094,427;11,94089
 748,47; 6982,110;  228,174;56888,104;11,92013
 749,04; 6997,031;  228,574;56982,582;11,92596
 749,61; 7035,096;  209,974;56797,859;12,06110
 750,17; 7036,446;  212,374;56931,137;12,03142
 750,74; 7035,081;  228,374;56910,214;12,00862
 751,31; 7040,288;  194,174;56734,292;12,10842
 751,88; 6986,924;  193,774;56596,569;12,04400
 752,45; 7042,417;  213,974;56822,247;12,06262
 753,02; 7057,053;  209,374;56688,524;12,12426
 753,58; 7045,260;  193,974;56519,402;12,16375
 754,15; 7033,895;  223,774;56777,479;12,04187
 754,72; 6994,245;  193,574;56506,156;12,07665
 755,29; 7023,453;  183,774;56333,834;12,18107
 755,86; 7101,660;  222,374;56512,111;12,22121
 756,42; 7083,581;  221,574;56376,989;12,21967
 756,99; 7088,217;  191,974;56591,266;12,22753
 757,56; 7029,424;  209,774;56331,544;12,15152
 758,13; 7056,488;  176,174;56219,621;12,27675
 758,70; 7148,267;  204,975;56289,899;12,37996
 759,26; 7180,331;  198,175;56434,776;12,41568
 759,83; 7112,395;  207,175;56603,453;12,24411
 760,40; 7147,888;  204,575;56281,331;12,38180
 760,97; 7134,667;  203,775;56472,208;12,31755
 761,53; 7137,588;  192,375;56080,686;12,42695
 762,10; 7188,509;  174,575;56038,363;12,55542
 762,67; 7197,859;  221,575;56070,641;12,49132
 763,24; 7121,352;  164,375;55565,118;12,55755
 763,80; 7233,988;  199,575;55610,596;12,69497
 764,37; 7175,909;  181,175;55604,673;12,62052
 764,94; 7171,973;  178,175;55208,350;12,70902
 765,50; 7180,609;  168,575;55191,628;12,74381
 766,07; 7223,102;  210,375;55220,505;12,74806
 766,64; 7172,309;  191,575;54901,983;12,75943
 767,21; 7169,802;  189,975;54870,260;12,76480
 767,77; 7178,295;  206,375;54707,338;12,79229
 768,34; 7253,359;  210,775;54664,215;12,93322
 768,91; 7225,852;  190,175;54295,093;13,00377
 769,47; 7258,773;  192,376;54498,370;13,01219
 770,04; 7219,552;  209,976;54468,247;12,91891
 770,61; 7226,187;  187,176;54240,525;13,02234
 771,18; 7222,537;  188,776;54080,402;13,05168
 771,74; 7304,602;  210,576;54206,080;13,13818
 772,31; 7300,809;  211,576;54057,757;13,16571
 772,88; 7284,873;  178,176;53704,835;13,27693
 773,44; 7285,652;  191,776;53520,312;13,30221
 774,01; 7335,144;  189,776;53690,790;13,35558
 774,58; 7274,352;  171,776;53432,467;13,33549
 775,14; 7283,844;  184,376;53531,344;13,30810
 775,71; 7341,623;  191,776;53402,422;13,43687
 776,27; 7381,116;  233,976;53302,099;13,46786
 776,84; 7451,180;  246,976;53488,977;13,53105
 777,41; 7456,387;  207,976;53298,054;13,65304
 777,97; 7391,880;  183,976;52923,332;13,66703
 778,54; 7457,373;  206,176;53016,409;13,73067
 779,11; 7464,294;  215,176;53045,287;13,72156
 779,67; 7438,644;  192,776;52911,764;13,74432
 780,24; 7454,423;  214,176;52651,841;13,80734
 780,80; 7531,773;  222,577;52697,919;13,92882
 781,37; 7548,837;  205,977;52485,196;14,04547
 781,94; 7507,044;  194,577;52362,074;14,01729
 782,50; 7567,965;  214,977;52273,751;14,12440
 783,07; 7599,315;  247,977;52383,429;14,10046
 783,63; 7579,380;  190,177;52079,106;14,24042
 784,20; 7597,872;  232,777;52057,584;14,21153
 784,77; 7590,651;  208,577;51928,461;14,27318
 785,33; 7565,572;  187,177;51681,938;14,32844
 785,90; 7628,922;  208,577;51654,016;14,42372
 786,46; 7621,987;  222,377;51544,293;14,41803
 787,03; 7638,337;  205,377;51364,371;14,52914
 787,59; 7690,829;  209,177;51383,648;14,61989
 788,16; 7722,322;  217,777;51273,726;14,69867
 788,73; 7736,101;  223,577;50943,603;14,81175
 789,29; 7676,451;  206,777;50617,081;14,81775
 789,86; 7694,229;  211,977;50367,758;14,91803
 790,42; 7704,865;  215,377;50497,636;14,89489
 790,99; 7698,644;  224,977;50039,713;15,00292
 791,55; 7769,565;  205,378;50188,990;15,13333
 792,12; 7751,629;  231,378;50020,068;15,10434
 792,68; 7754,551;  215,378;49785,745;15,20903
 793,25; 7808,186;  217,578;49649,623;15,35564
 793,81; 7805,536;  253,778;49135,900;15,44892
 794,38; 7734,601;  193,378;49037,778;15,43928
 794,94; 7724,808;  206,978;48908,855;15,43643
 795,51; 7745,729;  218,978;48653,933;15,53992
 796,07; 7679,936;  222,978;48389,010;15,48178
 796,64; 7765,286;  246,778;48626,887;15,54049
 797,20; 7752,493;  225,178;48034,365;15,74450
 797,77; 7691,700;  201,978;47678,042;15,77579
 798,33; 7744,050;  205,178;47540,320;15,92659
 798,90; 7820,972;  246,378;47325,597;16,08904
 799,46; 7658,465;  218,778;46887,675;15,94142
 800,03; 7729,672;  210,378;46838,352;16,12614
 800,59; 7771,879;  237,178;46681,230;16,22318
 801,15; 7820,229;  239,978;46431,307;16,41055
 801,72; 7713,579;  199,378;46248,184;16,31790
 802,28; 7683,072;  240,778;45773,462;16,34495
 802,85; 7690,850;  219,979;45820,939;16,38315
 803,41; 7744,343;  207,179;45618,217;16,59765
 803,98; 7727,550;  212,779;45104,294;16,73985
 804,54; 7730,757;  228,979;44858,572;16,80898
 805,11; 7669,107;  234,979;44625,249;16,74720
 805,67; 7707,029;  240,379;44560,527;16,84708
 806,23; 7610,379;  225,379;44110,804;16,82791
 806,80; 7715,728;  243,379;44193,281;17,00197
 807,36; 7700,936;  261,579;44025,959;16,99866
 807,93; 7706,286;  239,779;43749,036;17,16073
 808,49; 7651,207;  227,379;43464,914;17,16987
 809,05; 7622,986;  210,779;43106,391;17,27964
 809,62; 7739,907;  235,179;43062,269;17,52332
 810,18; 7656,400;  228,779;43010,346;17,36173
 810,74; 7710,893;  197,379;42687,824;17,68283
 811,31; 7680,671;  216,579;42482,301;17,65992
 811,87; 7718,164;  224,179;42432,978;17,75456
 812,44; 7770,514;  258,979;42405,656;17,82236
 813,00; 7688,435;  191,779;42067,533;17,90214
 813,56; 7777,642;  243,779;42111,011;17,99465
 814,13; 7814,707;  227,980;42001,088;18,16175
 814,69; 7801,771;  229,380;41872,566;18,18399
 815,25; 7669,835;  197,380;41443,443;18,11677
 815,82; 7787,471;  234,380;41434,921;18,33250
 816,38; 7810,107;  256,580;41108,398;18,49006
 816,94; 7737,885;  230,780;40893,875;18,46172
 817,51; 7738,235;  199,980;40628,753;18,64577
 818,07; 7774,156;  213,380;40369,030;18,82867
 818,63; 7724,078;  234,580;40002,908;18,83282
 819,20; 7786,856;  236,180;40120,585;18,93140
 819,76; 7700,206;  228,580;39577,863;18,98796
 820,32; 7740,842;  245,380;39498,140;19,09538
 820,89; 7812,763;  250,180;39362,218;19,33569
 821,45; 7705,685;  210,580;39112,895;19,26647
 822,01; 7706,178;  235,980;38901,573;19,32001
 822,57; 7727,528;  232,780;38683,250;19,49195
 823,14; 7672,020;  218,780;38618,327;19,40971
 823,70; 7725,513;  216,780;38358,405;19,68645
 824,26; 7721,435;  231,180;38082,482;19,78863
 824,82; 7763,928;  225,781;37968,360;19,97253
 825,39; 7678,706;  213,381;37732,437;19,89742
 825,95; 7749,913;  237,781;37849,115;19,97306
 826,51; 7678,120;  231,581;37278,792;20,10014
 827,08; 7761,327;  271,781;37273,070;20,24131
 827,64; 7774,820;  239,381;37244,347;20,36332
 828,20; 7692,313;  216,581;36980,024;20,33469
 828,76; 7755,377;  240,981;36879,502;20,50955
 829,32; 7691,727;  245,581;36649,979;20,45397
 829,89; 7789,934;  202,181;36605,657;20,84349
 830,45; 7810,142;  208,181;36540,734;20,92328
 831,01; 7746,920;  230,381;36315,412;20,83008
 831,57; 7785,699;  233,181;36207,689;20,99408
 832,14; 7800,620;  217,381;36185,367;21,08330
 832,70; 7740,256;  208,181;35880,844;21,11442
 833,26; 7791,177;  188,981;35790,321;21,35368
 833,82; 7842,241;  222,181;35743,999;21,45177
 834,38; 7829,877;  205,981;35722,676;21,46567
 834,95; 7882,513;  211,581;35525,354;21,72221
 835,51; 7845,006;  186,381;35588,031;21,63352
 836,07; 7883,498;  222,182;35633,309;21,63534
 836,63; 7923,277;  240,182;35589,986;21,73448
 837,19; 7977,341;  231,582;35327,064;22,07053
 837,75; 7998,120;  191,982;35086,541;22,37065
 838,32; 7992,898;  236,782;35301,018;22,11974
 838,88; 8028,105;  240,382;35185,096;22,28584
 839,44; 8089,170;  203,782;34997,573;22,66320
 840,00; 8049,234;  211,782;35115,651;22,45439
 840,56; 8065,155;  215,182;34777,128;22,71276
 841,12; 8047,362;  210,582;34765,406;22,67927
 841,68; 8035,712;  193,182;34493,283;22,86445
 842,25; 8043,634;  212,582;34672,761;22,72493
 842,81; 8096,841;  203,782;34322,238;23,13428
 843,37; 8036,762;  186,982;34411,115;22,93639
 843,93; 8112,827;  219,182;34236,393;23,20485
 844,49; 8276,177;  223,782;34377,670;23,57680
 845,05; 8143,384;  191,582;34056,748;23,48077
 845,61; 8232,734;  241,182;34182,225;23,54539
 846,17; 8182,941;  207,782;34017,703;23,58822
 846,73; 8248,719;  222,383;34085,180;23,70252
 847,29; 8230,498;  202,783;33852,658;23,85660
 847,86; 8275,419;  196,783;33641,935;24,15488
 848,42; 8203,769;  190,383;33540,812;24,02784
 848,98; 8241,833;  214,383;33519,890;24,10247
 849,54; 8299,755;  204,183;33526,567;24,29470
 850,10; 8307,533;  228,383;33345,045;24,39603
 850,66; 8302,026;  184,783;33153,522;24,62103
 851,22; 8297,805;  182,983;33056,000;24,68536
 851,78; 8409,583;  239,983;33111,277;24,85330
 852,34; 8368,648;  200,783;32939,555;24,94860
 852,90; 8381,712;  212,183;32850,032;25,03084
 853,46; 8341,776;  197,383;32641,709;25,10267
 854,02; 8458,412;  213,983;32643,387;25,42270
 854,58; 8392,476;  203,183;32336,464;25,48539
 855,14; 8369,540;  186,583;32268,742;25,50625
 855,70; 8356,890;  169,983;32086,819;25,65075
 856,26; 8396,240;  216,383;31989,697;25,74443
 856,82; 8383,876;  205,783;31857,374;25,83786
 857,38; 8380,083;  224,383;31752,252;25,86822
 857,94; 8352,004;  204,184;31631,129;25,92623
 858,50; 8365,497;  220,984;31515,207;26,02561
 859,06; 8354,419;  224,584;31482,284;26,00906
 859,62; 8375,197;  213,384;31318,161;26,23974
 860,18; 8323,119;  208,784;31074,239;26,28937
 860,74; 8333,469;  168,984;30912,316;26,55693
 861,30; 8329,819;  173,784;30831,794;26,60328
 861,86; 8370,883;  221,584;30929,071;26,53848
 862,42; 8341,233;  205,384;30590,949;26,77537
 862,98; 8479,440;  225,784;30679,826;27,10200
 863,54; 8394,218;  213,784;30401,504;27,09855
 864,10; 8496,283;  199,384;30453,381;27,42414
 864,66; 8431,490;  204,984;30147,458;27,47437
 865,22; 8400,840;  204,984;30039,336;27,47120
 865,78; 8427,475;  211,984;30028,813;27,55320
 866,34; 8405,683;  201,784;29892,091;27,63157
 866,90; 8414,175;  221,984;29758,968;27,73537
 867,45; 8386,954;  222,184;29624,646;27,76900
 868,01; 8358,590;  222,584;29528,523;27,76231
 868,57; 8371,940;  194,184;29270,201;28,12543
 869,13; 8408,575;  189,785;29094,678;28,43391
 869,69; 8363,782;  202,185;29107,755;28,23538
 870,25; 8411,275;  189,185;29104,833;28,43474
 870,81; 8405,482;  215,785;28973,910;28,47786
 871,37; 8378,261;  209,585;28797,588;28,57379
 871,93; 8455,468;  224,185;28614,065;28,99372
 872,49; 8419,389;  221,585;28385,943;29,10702
 873,04; 8295,739;  200,185;28223,620;28,88852
 873,60; 8349,089;  190,585;28096,698;29,23555
 874,16; 8329,725;  210,585;28100,175;29,11172
 874,72; 8413,439;  199,385;28028,775;29,51575
 875,28; 8404,154;  209,785;27963,375;29,52544
 875,84; 8424,725;  186,785;27807,375;29,82536
 876,40; 8395,296;  206,985;27740,175;29,73978
 876,95; 8418,582;  221,385;27739,775;29,78807
 877,51; 8452,011;  255,785;27750,375;29,81032
 878,07; 8536,582;  239,585;27763,975;30,14416
 878,63; 8508,439;  218,585;27739,975;30,12150
 879,19; 8607,296;  223,985;27668,175;30,54676
 879,75; 8599,154;  217,185;27709,175;30,48877
 880,30; 8649,725;  205,385;27794,575;30,60742
 880,86; 8793,725;  255,185;27824,575;30,97109
 881,42; 8757,011;  190,185;27869,775;30,94997
 881,98; 8811,439;  224,585;28080,175;30,82632
 882,54; 8845,011;  217,985;28017,575;31,03292
 883,09; 8917,725;  226,985;28170,175;31,10146
 883,65; 8948,154;  215,585;28300,375;31,09359
 884,21; 9132,439;  239,585;28441,775;31,53250
 884,77; 9151,582;  217,985;28552,975;31,52850
 885,32; 9250,011;  211,185;28662,975;31,76892
 885,88; 9320,725;  240,985;28801,975;31,79070
 886,44; 9372,011;  212,785;28912,775;31,91369
 887,00; 9434,011;  229,785;28898,775;32,10516
 887,56; 9526,296;  221,785;29149,775;32,16439
 888,11; 9531,154;  217,985;29168,175;32,16963
 888,67; 9718,868;  240,185;29323,575;32,59140
 889,23; 9664,011;  227,385;29229,775;32,53741
 889,79; 9666,296;  208,785;29260,375;32,55420
 890,34; 9703,725;  208,785;29149,575;32,80816
 890,90; 9779,725;  250,985;29173,175;32,94612
 891,46; 9750,296;  217,585;29233,975;32,85285
 892,01; 9845,296;  240,585;29083,775;33,29975
 892,57; 9814,582;  245,785;29088,775;33,17547
 893,13; 9768,296;  226,185;28995,775;33,16735
 893,69; 9809,154;  207,585;28903,575;33,45962
 894,24; 9734,725;  218,185;28830,175;33,26067
 894,80; 9746,296;  225,785;28553,575;33,60838
 895,36; 9805,725;  207,385;28458,575;33,97499
 895,91; 9821,154;  213,985;28280,375;34,23015
 896,47; 9796,154;  230,185;28094,775;34,33020
 897,03; 9757,725;  210,385;27903,775;34,47516
 897,58; 9742,582;  217,785;27717,175;34,63639
 898,14; 9637,582;  233,985;27673,575;34,27018
 898,70; 9617,725;  197,385;27601,175;34,37605
 899,25; 9670,725;  209,185;27406,375;34,78867
 899,81; 9621,154;  238,185;27203,575;34,79634
 900,37; 9596,439;  190,985;27044,375;35,02520
 900,92; 9609,011;  220,185;26966,575;35,10315
 901,48; 9579,868;  204,185;26834,575;35,20671
 902,03; 9591,296;  199,385;26749,975;35,37364
 902,59; 9539,011;  219,585;26734,975;35,14723
 903,15; 9576,154;  242,585;26494,775;35,55349
 903,70; 9442,439;  228,985;26272,975;35,37651
 904,26; 9460,011;  195,185;26118,375;35,73953
 904,82; 9483,011;  217,385;26110,975;35,78347
 905,37; 9519,011;  215,585;26019,975;36,05365
 905,93; 9434,582;  211,185;25899,975;35,90437
 906,48; 9458,582;  230,185;25755,975;36,15323
 907,04; 9471,582;  248,585;25767,175;36,14227
 907,60; 9375,868;  205,985;25499,175;36,25435
 908,15; 9422,868;  208,785;25448,375;36,50647
 908,71; 9401,439;  251,385;25480,975;36,26715
 909,26; 9349,582;  211,185;25169,375;36,61482
 909,82; 9363,582;  237,185;25158,575;36,62074
 910,37; 9341,868;  250,785;24900,975;36,88038
 910,93; 9329,296;  206,785;24712,775;37,22564
 911,48; 9316,011;  209,585;24621,375;37,30339
 912,04; 9205,154;  203,585;24537,375;36,99205
 912,60; 9239,439;  240,185;24691,775;36,80437
 913,15; 9239,296;  233,585;24388,775;37,28272
 913,71; 9204,582;  208,985;24185,975;37,51762
 914,26; 9099,296;  207,785;24091,775;37,22791
 914,82; 9173,296;  223,985;24053,375;37,55577
 915,37; 9144,154;  209,785;23898,375;37,71592
 915,93; 9169,868;  278,185;23892,775;37,65334
 916,48; 9138,011;  215,785;23672,775;38,03653
 917,04; 9060,725;  232,185;23553,975;37,85533
 917,59; 9122,154;  251,985;23506,375;38,14406
 918,15; 9018,439;  172,985;23242,175;38,34315
 918,70; 9078,582;  194,585;23323,175;38,41132
 919,26; 9079,296;  225,985;23132,575;38,64963
 919,81; 9054,582;  191,385;23044,175;38,78387
 920,37; 9006,439;  209,585;22783,375;38,96933
 920,92; 9038,582;  215,385;22795,975;39,07425
 921,48; 8959,582;  200,185;22586,375;39,12857
 922,03; 8948,868;  214,985;22528,375;39,14189
 922,59; 8954,868;  224,785;22401,375;39,36621
 923,14; 8885,582;  210,185;22325,175;39,22858
 923,69; 8964,296;  224,585;22390,575;39,42847
 924,25; 8945,725;  234,585;22114,975;39,81254
 924,80; 8883,439;  219,585;21933,575;39,89987
 925,36; 8870,582;  216,585;21980,375;39,76328
 925,91; 8829,011;  213,985;21765,175;39,97471
 926,47; 8761,725;  192,985;21704,975;39,83239
 927,02; 8891,868;  246,185;21669,975;40,35552
 927,57; 8804,582;  217,385;21431,775;40,47817
 928,13; 8850,154;  215,385;21399,175;40,76121
 928,68; 8751,725;  214,385;21298,775;40,49128
 929,24; 8706,439;  194,985;21056,975;40,79886
 929,79; 8711,582;  195,185;20994,175;40,94621
 930,34; 8652,868;  220,985;20909,175;40,75699
 930,90; 8617,725;  200,585;20822,575;40,81633
 931,45; 8668,154;  208,985;20760,775;41,16025
 932,01; 8651,439;  226,985;20826,175;40,89702
 932,56; 8612,296;  236,785;20657,975;41,01383
 933,11; 8571,725;  224,785;20495,575;41,17718
 933,67; 8463,439;  218,985;20367,175;40,91908
 934,22; 8497,725;  224,385;20302,375;41,20602
 934,77; 8530,725;  223,585;20152,375;41,68412
 935,33; 8523,296;  228,985;20031,775;41,88456
 935,88; 8477,868;  228,585;20037,175;41,64498
 936,43; 8480,725;  224,785;19867,775;42,02996
 936,99; 8448,296;  203,985;19779,775;42,11483
 937,54; 8411,296;  199,385;19705,575;42,09900
 938,09; 8440,868;  214,385;19494,375;42,66850
 938,65; 8427,868;  212,785;19343,175;42,94258
 939,20; 8398,868;  194,585;19422,175;42,66932
 939,75; 8359,154;  197,185;19246,375;42,84680
 940,31; 8406,582;  193,785;19051,175;43,55214
 940,86; 8380,011;  203,585;19200,975;43,03973
 941,41; 8401,439;  264,985;19011,775;43,40185
 941,96; 8315,868;  207,185;18855,975;43,48101
 942,52; 8325,868;  216,385;18838,175;43,54835
 943,07; 8242,011;  193,785;18730,975;43,41664
 943,62; 8281,582;  201,585;18591,975;43,93597
 944,18; 8234,154;  190,585;18531,975;43,85474
 944,73; 8262,439;  216,785;18403,975;44,23803
 945,28; 8154,296;  181,185;18284,575;44,04209
 945,83; 8151,011;  223,385;18173,575;44,16458
 946,39; 8220,154;  203,785;18154,575;44,65747
 946,94; 8218,868;  234,985;18027,775;44,87145
 947,49; 8165,439;  214,585;17934,375;44,86991
 948,04; 8163,439;  227,185;17990,975;44,67658
 948,59; 8153,011;  229,785;17823,975;45,03319
 949,15; 8133,154;  196,785;17696,575;45,35122
 949,70; 8079,011;  213,385;17583,375;45,28285
 950,25; 8104,868;  231,785;17544,775;45,47500
 950,80; 8033,154;  187,385;17522,775;45,25868
 951,36; 8009,439;  180,985;17437,175;45,36606
 951,91; 8083,868;  211,785;17414,175;45,76156
 952,46; 8012,868;  181,585;17155,375;46,13750
 953,01; 8046,725;  215,185;17166,975;46,19890
 953,56; 7959,582;  186,385;17089,975;45,98548
 954,11; 7982,296;  231,985;17015,775;46,17736
 954,67; 8019,439;  204,985;16958,175;46,64458
 955,22; 7891,296;  188,985;16687,775;46,68410
 955,77; 7935,868;  234,585;16719,375;46,71751
 956,32; 8010,439;  251,185;16646,375;47,32641
 956,87; 7870,582;  206,385;16472,775;47,11677
 957,42; 7960,011;  206,985;16494,775;47,60023
 957,98; 7888,154;  201,785;16257,375;47,87347
 958,53; 7892,154;  224,385;16301,175;47,69465
 959,08; 7838,725;  190,785;16218,575;47,71675
 959,63; 7837,439;  190,585;16122,175;47,99806
 960,18; 7826,296;  217,185;16053,375;48,04888
 960,73; 7854,296;  208,985;15932,375;48,62381
 961,28; 7775,296;  200,785;15844,375;48,41927
 961,83; 7854,868;  216,385;15855,775;48,84131
 962,39; 7738,296;  200,185;15688,175;48,67069
 962,94; 7732,439;  215,585;15571,575;48,95063
 963,49; 7679,439;  209,785;15532,375;48,74929
 964,04; 7696,296;  214,985;15423,175;49,19265
 964,59; 7683,868;  203,585;15309,575;49,51865
 965,14; 7682,011;  214,785;15274,375;49,58452
 965,69; 7583,011;  195,585;15175,975;49,31397
 966,24; 7620,725;  189,785;15058,575;49,97676
 966,79; 7522,296;  215,585;14974,175;49,50819
 967,34; 7524,725;  191,185;14867,575;49,96828
 967,89; 7480,296;  211,985;14773,375;49,91496
 968,44; 7485,439;  219,585;14791,175;49,86315
 968,99; 7494,868;  226,785;14619,175;50,49949
 969,55; 7489,725;  220,985;14511,975;50,86240
 970,10; 7445,011;  214,385;14446,775;50,80402
 970,65; 7413,439;  227,385;14262,975;51,19880
 971,20; 7357,154;  199,185;14271,175;50,86678
 971,75; 7284,011;  188,185;14090,175;51,04180
 972,30; 7256,296;  217,785;14004,775;51,05184
 972,85; 7243,439;  203,585;14013,975;50,97506
 973,40; 7175,725;  203,185;13823,575;51,19193
 973,95; 7187,868;  220,985;13810,175;51,26783
 974,50; 7195,868;  241,385;13734,375;51,54145
 975,05; 7145,011;  215,785;13633,775;51,64131
 975,60; 7094,725;  241,185;13571,975;51,41136
 976,15; 7080,154;  211,385;13443,575;51,90954
 976,70; 7027,296;  222,185;13370,975;51,75466
 977,25; 7038,439;  211,985;13416,975;51,69602
 977,80; 6909,154;  195,985;13126,975;51,91535
 978,35; 6864,439;  211,985;13055,175;51,79752
 978,89; 6870,725;  199,385;12930,375;52,40237
 979,44; 6843,868;  217,785;12903,375;52,23315
 979,99; 6788,582;  201,985;12765,375;52,42691
 980,54; 6712,725;  228,185;12675,975;52,09391
 981,09; 6718,011;  222,585;12618,175;52,40110
 981,64; 6694,439;  221,585;12389,575;53,19576
 982,19; 6678,011;  242,985;12345,775;53,16977
 982,74; 6555,868;  231,185;12263,975;52,56206
 983,29; 6559,868;  192,785;12115,775;53,40173
 983,84; 6456,582;  227,985;12057,575;52,65269
 984,39; 6519,582;  249,385;11963,175;53,52834
 984,94; 6362,725;  200,585;11862,975;52,83771
 985,49; 6385,582;  232,385;11793,175;53,22471
 986,03; 6377,154;  233,785;11663,975;53,74686
 986,58; 6354,011;  268,785;11628,175;53,57000
 987,13; 6253,439;  207,985;11411,575;53,95997
 987,68; 6263,011;  235,985;11312,375;54,41327
 988,23; 6206,725;  226,985;11250,175;54,24691
 988,78; 6157,868;  223,785;11109,775;54,51119
 989,33; 6100,439;  220,985;10968,775;54,70384
 989,88; 6108,011;  251,985;10965,975;54,65775
 990,42; 6047,582;  223,185;10787,175;55,13444
 990,97; 6000,439;  223,185;10681,175;55,24249
 991,52; 6016,296;  235,185;10688,575;55,30370
 992,07; 5961,154;  244,585;10498,775;55,74861
 992,62; 5908,439;  228,185;10449,775;55,57114
 993,17; 5881,154;  230,185;10255,775;56,36545
 993,71; 5807,439;  236,585;10236,375;55,70971
 994,26; 5727,725;  218,185;10051,175;56,03118
 994,81; 5752,868;  239,985;10001,575;56,47526
 995,36; 5684,439;  208,985; 9878,775;56,62434
 995,91; 5615,868;  227,185; 9840,775;56,05276
 996,45; 5576,725;  223,185; 9708,175;56,44223
 997,00; 5513,582;  208,785; 9556,175;56,75164
 997,55; 5556,582;  226,185; 9570,575;57,04382
 998,10; 5452,582;  235,785; 9334,575;57,33506
 998,65; 5428,868;  207,185; 9332,975;57,21897
 999,19; 5357,439;  234,585; 9289,775;56,57368
 999,74; 5332,582;  237,185; 9119,375;57,36645
1000,29; 5271,439;  247,185; 9050,575;57,07181
1000,84; 5174,582;  226,385; 8927,975;56,86544
1001,38; 5101,868;  225,985; 8722,975;57,38365
1001,93; 5105,725;  227,185; 8819,575;56,77745
1002,48; 5027,582;  213,185; 8628,775;57,20808
1003,03; 5023,868;  222,785; 8504,975;57,96876
1003,57; 4968,725;  232,985; 8453,975;57,60547
1004,12; 4922,296;  233,185; 8326,175;57,94041
1004,67; 4874,439;  223,985; 8297,175;57,60368
1005,22; 4774,725;  214,785; 8139,375;57,54165
1005,76; 4704,725;  212,585; 7986,175;57,78720
1006,31; 4700,296;  234,985; 7930,775;58,02278
1006,86; 4633,011;  221,985; 7767,575;58,45833
1007,40; 4541,439;  198,185; 7624,975;58,48091
1007,95; 4569,439;  230,385; 7621,375;58,70735
1008,50; 4486,582;  234,185; 7447,975;58,94817
1009,04; 4479,011;  218,385; 7419,175;59,16887
1009,59; 4350,868;  221,585; 7293,975;58,38596
1010,14; 4339,154;  215,585; 7124,575;59,68410
1010,68; 4288,296;  223,785; 7028,975;59,72664
1011,23; 4196,154;  189,385; 6898,975;59,71704
1011,78; 4177,582;  238,385; 6909,775;59,04612
1012,32; 4173,011;  221,385; 6682,575;61,15941
1012,87; 4136,154;  239,585; 6755,175;59,80377
1013,42; 4032,296;  212,185; 6570,975;60,07607
1013,96; 4071,582;  242,985; 6621,575;60,02262
1014,51; 3985,154;  182,185; 6500,175;60,19270
1015,06; 4032,725;  191,385; 6547,775;60,43273
1015,60; 4083,725;  264,385; 6593,375;60,34675
1016,15; 4025,725;  213,785; 6555,575;60,10827
1016,69; 4033,296;  226,585; 6498,375;60,69577
1017,24; 3982,439;  203,185; 6530,775;59,72660
1017,79; 4094,868;  249,985; 6580,175;60,73882
1018,33; 4086,868;  211,185; 6584,175;60,81420
1018,88; 4147,296;  248,185; 6615,975;61,23178
1019,42; 4129,154;  230,585; 6633,375;60,88859
1019,97; 4170,154;  199,585; 6670,375;61,36142
1020,51; 4218,582;  232,385; 6724,975;61,39610
1021,06; 4197,725;  201,185; 6703,975;61,45885
1021,61; 4214,154;  183,385; 6564,775;63,16443
1022,15; 4205,011;  170,385; 6554,375;63,19912
1022,70; 4192,296;  221,985; 6591,975;62,32838
1023,24; 4227,154;  185,985; 6595,975;63,04485
1023,79; 4140,868;  206,185; 6495,775;62,55865
1024,33; 4184,011;  206,185; 6476,975;63,43420
1024,88; 4151,868;  211,185; 6419,975;63,46942
1025,42; 4069,154;  214,785; 6222,175;64,16045
1025,97; 4043,868;  211,785; 6173,175;64,28170
1026,51; 3958,582;  175,985; 6033,175;64,58041
1027,06; 3949,154;  206,185; 6053,375;64,01312
1027,60; 3908,011;  205,585; 5935,175;64,61938
1028,15; 3867,296;  230,585; 5842,775;64,80022
1028,69; 3766,725;  196,985; 5694,375;64,93518
1029,24; 3738,011;  211,385; 5638,775;64,97830
1029,78; 3749,296;  208,385; 5525,175;66,59867
1030,33; 3606,582;  185,985; 5398,775;65,61932
1030,87; 3639,296;  212,385; 5365,775;66,49820
1031,42; 3596,439;  194,385; 5274,975;66,96180
1031,96; 3534,868;  216,985; 5209,175;66,46147
1032,51; 3486,582;  198,785; 5159,575;66,27568
1033,05; 3473,582;  216,785; 5094,375;66,77062
1033,60; 3366,725;  166,785; 4986,175;66,39720
1034,14; 3304,011;  200,185; 4900,775;66,03056
1034,69; 3324,154;  210,185; 4821,375;67,53069
1035,23; 3280,011;  205,985; 4730,975;67,93442
1035,77; 3269,725;  193,585; 4674,375;68,65173
1036,32; 3185,011;  169,185; 4629,175;67,61956
1036,86; 3132,868;  202,185; 4530,575;67,70838
1037,41; 3117,296;  219,585; 4518,575;67,40447
1037,95; 3055,725;  182,985; 4436,375;67,54001
1038,50; 3027,725;  194,985; 4351,775;68,14730
1039,04; 3043,296;  216,385; 4251,375;70,05994
1039,58; 2931,154;  195,985; 4206,575;68,19866
1040,13; 2906,296;  193,185; 4211,375;67,52074
1040,67; 2903,725;  232,985; 4143,575;68,29507
1041,21; 2871,868;  234,385; 4054,975;69,03339
1041,76; 2779,868;  189,585; 3998,975;67,99731
1042,30; 2751,439;  207,185; 3960,575;67,78550
1042,85; 2731,154;  205,185; 3900,775;68,35089
1043,39; 2713,296;  196,585; 3840,775;69,06093
1043,93; 2692,154;  213,185; 3768,575;69,72424
1044,48; 2644,296;  221,785; 3745,575;68,74733
1045,02; 2585,296;  194,985; 3677,575;68,63603
1045,56; 2590,582;  226,785; 3593,175;70,21757
1046,11; 2539,011;  209,985; 3566,175;69,39493
1046,65; 2516,725;  219,985; 3509,575;69,81843
1047,19; 2470,868;  187,785; 3480,975;69,32740
1047,74; 2387,582;  191,985; 3379,375;68,88386
1048,28; 2427,582;  214,785; 3427,975;68,86605
1048,82; 2424,154;  220,785; 3358,975;70,21145
1049,37; 2350,868;  215,385; 3284,775;69,57353
1049,91; 2328,582;  197,185; 3303,375;68,61773
1050,45; 2335,296;  224,985; 3245,375;69,86884
1050,99; 2284,725;  202,985; 3149,375;70,65392
1051,54; 2257,296;  207,185; 3100,375;70,85990
1052,08; 2243,296;  228,785; 3086,975;70,48207
1052,62; 2222,011;  223,985; 3023,975;71,35832
1053,16; 2183,154;  206,585; 2934,575;72,45513
1053,71; 2173,439;  218,585; 2966,975;71,12725
1054,25; 2126,439;  217,185; 2879,175;71,72282
1054,79; 2132,296;  222,585; 2843,975;72,85110
1055,33; 2075,296;  199,185; 2783,975;72,58274
1055,88; 2090,868;  232,185; 2776,975;73,03875
1056,42; 2066,439;  227,185; 2762,175;72,55470
1056,96; 2001,011;  234,585; 2692,975;71,85295
1057,50; 1994,868;  224,185; 2648,775;73,03020
1058,05; 1956,582;  222,785; 2621,975;72,26594
1058,59; 1947,011;  233,985; 2547,775;74,03549
1059,13; 1911,011;  201,585; 2473,175;75,25239
1059,67; 1909,582;  228,185; 2524,575;73,21915
1060,21; 1837,868;  215,385; 2451,775;72,54919
1060,76; 1838,868;  235,185; 2440,975;72,70333
1061,30; 1852,296;  244,385; 2377,175;75,39005
1061,84; 1791,725;  210,185; 2358,375;73,62198
1062,38; 1736,154;  199,585; 2303,775;73,02423
1062,92; 1758,868;  260,985; 2322,375;72,66373
1063,46; 1727,725;  242,585; 2245,575;74,14615
1064,01; 1695,582;  204,785; 2226,575;73,73650
1064,55; 1675,439;  229,585; 2221,575;72,58341
1065,09; 1627,154;  198,385; 2126,375;74,10664
1065,63; 1654,582;  230,785; 2131,775;74,89767
1066,17; 1650,582;  245,785; 2102,975;75,64100
1066,71; 1641,582;  231,785; 2098,775;75,51177
1067,25; 1574,582;  237,185; 2061,175;73,32261
1067,80; 1577,154;  238,385; 2045,975;74,06373
1068,34; 1596,296;  250,385; 2047,175;74,90644
1068,88; 1511,868;  217,585; 1981,175;73,38910
1069,42; 1524,439;  258,185; 1998,375;72,76529
1069,96; 1472,868;  225,385; 1939,175;72,79088
1070,50; 1539,582;  251,585; 1942,975;76,15022
1071,04; 1495,725;  203,185; 1908,175;75,80924
1071,58; 1426,582;  218,385; 1881,175;72,66084
1072,12; 1429,868;  218,785; 1812,975;75,96854
1072,66; 1418,868;  232,985; 1827,175;74,38780
1073,21; 1444,011;  235,985; 1839,175;75,35138
1073,75; 1399,154;  235,385; 1805,975;74,09754
1074,29; 1362,868;  240,585; 1778,575;72,97075
1074,83; 1407,296;  249,585; 1748,175;77,25338
1075,37; 1372,725;  243,785; 1726,975;76,11567
1075,91; 1356,725;  232,185; 1720,975;75,53382
1076,45; 1334,439;  228,385; 1687,775;75,78881
1076,99; 1317,582;  254,785; 1650,975;76,12124
1077,53; 1297,439;  222,185; 1646,575;75,48876
1078,07; 1295,011;  241,185; 1615,975;76,65358
1078,61; 1262,296;  218,785; 1609,375;75,04091
1079,15; 1261,011;  222,985; 1585,575;76,18034
1079,69; 1241,868;  223,985; 1549,175;76,81033
1080,23; 1260,296;  244,385; 1572,175;76,51145
1080,77; 1273,725;  246,985; 1569,375;77,64275
1081,31; 1213,725;  203,985; 1501,375;77,82856
1081,85; 1205,296;  245,185; 1514,175;75,65950
1082,39; 1197,582;  215,385; 1467,975;78,41330
1082,93; 1186,582;  210,785; 1449,975;78,74476
1083,47; 1153,011;  214,785; 1425,775;77,47593
1084,01; 1193,868;  250,185; 1426,975;80,19127
1084,55; 1129,868;  212,385; 1393,175;77,70076
1085,09; 1149,868;  242,585; 1387,375;79,25321
1085,63; 1118,296;  223,185; 1392,375;76,55825
1086,17; 1106,725;  220,585; 1358,775;77,85519
1086,71; 1096,011;  236,585; 1333,575;78,34399
1087,24; 1108,011;  248,585; 1347,175;78,22989
1087,78; 1090,296;  222,985; 1311,775;79,65828
1088,32; 1047,296;  213,785; 1278,575;78,27942
1088,86; 1061,296;  242,385; 1315,375;76,32051
1089,40; 1050,868;  219,785; 1272,175;78,97100
1089,94; 1015,868;  196,585; 1241,175;78,43105
1090,48; 1050,011;  226,985; 1241,775;81,10306
1091,02; 1014,011;  233,785; 1239,175;77,60428
1091,56;  990,725;  234,985; 1212,175;77,33808
1092,10;  981,582;  217,785; 1190,975;78,48387
1092,63; 1008,011;  248,985; 1209,575;79,01662
1093,17;  985,154;  230,985; 1195,975;78,15299
1093,71;  964,011;  227,385; 1151,775;79,68776
1094,25;  977,154;  249,785; 1176,375;78,49951
1094,79;  938,439;  247,785; 1129,175;78,35967
1095,33;  945,868;  232,585; 1100,975;82,13854
1095,87;  940,725;  230,985; 1142,375;77,87446
1096,40;  885,154;  206,985; 1087,375;77,03047
1096,94;  910,725;  238,785; 1072,575;80,58864
1097,48;  910,296;  235,185; 1090,775;78,90595
1098,02;  872,439;  210,785; 1066,575;77,31503
1098,56;  844,011;  196,985;  999,175;80,65741
1099,10;  843,011;  211,585;  999,375;80,15153
1099,63;  844,011;  209,785; 1018,775;78,39723
1100,17;  865,154;  244,185; 1028,775;79,14561
1100,71;  862,011;  239,985; 1012,375;80,53260

