
Integration time [ms]: 130,000
Averaging Nr. [scans]: 7
Smoothing Nr. [pixels]: 0
Data measured with spectrometer [name]: 2009305U1
Wave   ;Sample   ;Dark     ;Reference;Reflectance
[nm]   ;[counts] ;[counts] ;[counts] ;[%]

 175,72;  206,349;  192,986;  201,498;157,00120
 176,32;  246,768;  222,384;  221,717; 0,00000
 176,92;  267,060;  241,385;  235,854; 0,00000
 177,52;  254,368;  259,786;  258,523; 0,00000
 178,12;  237,053;  246,984;  204,441; 0,00000
 178,72;  270,320;  250,783;  241,274; 0,00000
 179,32;  254,327;  247,384;  249,069;411,98113
 179,92;  258,757;  231,385;  239,762;326,74184
 180,52;  240,581;  244,988;  241,098; 0,00000
 181,12;  261,015;  248,385;  229,716; 0,00000
 181,73;  270,908;  272,585;  262,308; 0,00000
 182,33;  371,866;  306,387;  321,281;439,63391
 182,93;  290,602;  256,186;  256,932; 0,00000
 183,53;  237,623;  246,183;  223,624; 0,00000
 184,13;  238,139;  236,383;  230,131; 0,00000
 184,73;  281,874;  249,982;  256,507;488,79646
 185,33;  277,485;  234,768;  346,100;38,36877
 185,93;  274,259;  232,166;  351,877;35,16189
 186,53;  294,962;  241,967;  348,122;49,92198
 187,13;  328,251;  257,569;  394,908;51,46533
 187,73;  270,918;  220,566;  335,660;43,74857
 188,33;  291,306;  254,365;  362,824;34,05995
 188,93;  285,278;  244,562;  398,475;26,45398
 189,53;  289,943;  258,559;  392,476;23,43503
 190,13;  329,054;  283,155;  430,284;31,19612
 190,73;  274,061;  220,558;  363,114;37,53147
 191,34;  295,912;  253,561;  378,621;33,86477
 191,94;  282,721;  240,364;  345,758;40,18905
 192,54;  304,079;  245,370;  399,729;38,03385
 193,14;  314,552;  248,969;  381,307;49,55726
 193,74;  294,192;  249,968;  364,047;38,76604
 194,34;  298,911;  227,969;  353,891;56,33751
 194,94;  266,786;  218,569;  355,716;35,15735
 195,54;  253,756;  215,168;  334,977;32,20831
 196,14;  272,529;  221,569;  355,380;38,08334
 196,74;  261,826;  216,167;  336,993;37,78919
 197,34;  237,282;  188,971;  344,465;31,06918
 197,94;  273,471;  220,769;  365,195;36,49103
 198,54;  277,373;  238,769;  365,333;30,50168
 199,14;  247,534;  213,971;  370,842;21,39503
 199,74;  243,300;  202,971;  374,033;23,57535
 200,34;  245,660;  199,372;  356,968;29,37182
 200,94;  275,844;  232,170;  410,644;24,47033
 201,54;  277,057;  216,571;  406,478;31,85042
 202,14;  315,564;  231,172;  444,781;39,50744
 202,74;  264,301;  223,371;  453,508;17,78485
 203,34;  253,905;  184,573;  446,416;26,47845
 203,94;  228,964;  173,772;  465,735;18,90376
 204,54;  304,690;  229,569;  530,605;24,95426
 205,14;  264,235;  190,571;  533,994;21,44991
 205,74;  325,516;  239,373;  624,034;22,39455
 206,34;  305,213;  210,772;  632,343;22,40227
 206,94;  305,230;  212,972;  703,417;18,81105
 207,54;  286,500;  188,772;  726,418;18,17707
 208,14;  316,848;  196,172;  794,506;20,16869
 208,74;  319,665;  217,771;  891,670;15,12004
 209,34;  323,000;  210,171;  960,509;15,03702
 209,94;  345,884;  204,571; 1037,280;16,97023
 210,54;  348,559;  213,973; 1112,879;14,97226
 211,14;  372,781;  204,571; 1236,499;16,30052
 211,73;  386,981;  197,971; 1326,867;16,74290
 212,33;  395,363;  206,770; 1438,453;15,31182
 212,93;  391,705;  203,171; 1522,488;14,29024
 213,53;  376,859;  174,371; 1562,260;14,58964
 214,13;  403,417;  205,174; 1652,697;13,69535
 214,73;  386,992;  195,372; 1657,381;13,10663
 215,33;  380,455;  168,771; 1707,080;13,76083
 215,93;  414,530;  206,573; 1816,158;12,91994
 216,53;  392,874;  162,571; 1892,659;13,31165
 217,13;  460,741;  227,173; 2126,822;12,29533
 217,73;  470,919;  196,373; 2281,539;13,16663
 218,33;  445,324;  148,574; 2495,337;12,64507
 218,93;  531,678;  192,576; 2756,037;13,22831
 219,53;  558,947;  185,774; 3043,728;13,05734
 220,13;  575,825;  168,574; 3315,721;12,94032
 220,73;  648,558;  196,771; 3663,262;13,03298
 221,32;  701,093;  176,771; 4002,670;13,70455
 221,92;  790,372;  167,774; 4489,701;14,40556
 222,52;  828,632;  177,173; 4825,264;14,01563
 223,12;  898,072;  176,973; 5207,436;14,33465
 223,72;  987,981;  185,573; 5646,427;14,69382
 224,32; 1048,019;  194,973; 5979,694;14,74653
 224,92; 1123,279;  176,373; 6339,999;15,36280
 225,52; 1206,281;  191,372; 6688,408;15,62111
 226,12; 1262,105;  188,373; 6945,384;15,89064
 226,72; 1323,197;  156,572; 7238,269;16,47381
 227,31; 1378,600;  154,172; 7537,973;16,58262
 227,91; 1505,296;  179,172; 7960,806;17,04172
 228,51; 1602,958;  181,371; 8348,198;17,40686
 229,11; 1723,198;  177,972; 8762,344;18,00046
 229,71; 1812,627;  176,971; 9024,802;18,48652
 230,31; 1895,157;  169,774; 9523,192;18,44655
 230,91; 2027,264;  158,770; 9767,098;19,44660
 231,51; 2116,750;  158,573;10040,244;19,81626
 232,10; 2279,492;  173,574;10533,432;20,32767
 232,70; 2419,911;  168,769;10665,091;21,44695
 233,30; 2549,090;  186,173;11029,985;21,79046
 233,90; 2658,064;  172,773;11194,690;22,54863
 234,50; 2787,737;  170,773;11401,596;23,30163
 235,10; 2842,993;  166,173;11490,599;23,63758
 235,70; 2971,518;  186,972;11624,368;24,34598
 236,29; 3093,549;  179,571;11659,240;25,38381
 236,89; 3148,314;  160,370;11714,814;25,85970
 237,49; 3240,806;  180,372;11688,736;26,59313
 238,09; 3265,642;  182,372;11480,943;27,28903
 238,69; 3331,866;  195,970;11405,171;27,97609
 239,29; 3309,813;  172,372;11141,789;28,60171
 239,89; 3284,626;  182,770;10898,509;28,94672
 240,48; 3263,616;  159,372;10599,047;29,73506
 241,08; 3194,918;  180,972;10337,522;29,67490
 241,68; 3205,472;  189,772;10061,372;30,54925
 242,28; 3138,662;  164,373; 9819,061;30,80669
 242,88; 3071,040;  198,374; 9482,888;30,94041
 243,48; 3017,469;  203,372; 9250,746;31,10402
 244,07; 2915,985;  177,372; 9107,911;30,66571
 244,67; 2925,094;  195,772; 9009,487;30,96676
 245,27; 2828,267;  195,971; 8880,267;30,31099
 245,87; 2809,497;  209,373; 8777,534;30,34634
 246,47; 2739,435;  188,171; 8790,362;29,65831
 247,06; 2741,514;  173,372; 8816,141;29,71435
 247,66; 2707,394;  172,972; 8941,810;28,90259
 248,26; 2701,680;  208,171; 9026,468;28,27654
 248,86; 2687,681;  197,971; 9181,944;27,71280
 249,46; 2631,699;  165,373; 9444,253;26,58000
 250,05; 2708,942;  195,972; 9783,266;26,21146
 250,65; 2697,437;  149,571;10138,313;25,50738
 251,25; 2709,399;  171,372;10609,388;24,31523
 251,85; 2758,730;  159,770;11118,766;23,71531
 252,44; 2762,639;  132,971;11710,174;22,71419
 253,04; 2847,273;  197,371;12463,062;21,60418
 253,64; 2855,738;  163,171;13112,912;20,79244
 254,24; 2986,319;  193,572;13970,475;20,27122
 254,84; 3014,413;  183,973;14890,853;19,24569
 255,43; 3133,755;  191,571;15757,603;18,90131
 256,03; 3146,179;  183,971;16591,684;18,05375
 256,63; 3203,288;  198,570;17660,118;17,20763
 257,23; 3221,404;  169,170;18345,547;16,79231
 257,82; 3280,297;  190,769;19251,922;16,20850
 258,42; 3243,354;  152,769;19951,490;15,61003
 259,02; 3299,637;  194,171;20729,623;15,12246
 259,62; 3273,396;  163,369;21428,059;14,62531
 260,21; 3308,795;  194,771;21896,222;14,34938
 260,81; 3249,430;  172,972;22326,403;13,88705
 261,41; 3246,351;  167,369;22570,864;13,74331
 262,01; 3202,011;  206,768;23108,504;13,07867
 262,60; 3130,690;  168,170;23373,147;12,76674
 263,20; 3131,488;  156,371;23500,628;12,74453
 263,80; 3115,661;  205,368;23599,066;12,44050
 264,40; 3071,411;  160,968;23819,858;12,30169
 264,99; 3049,077;  182,368;23843,294;12,11580
 265,59; 3059,728;  167,567;24059,513;12,10517
 266,19; 3028,141;  146,568;24172,257;11,99371
 266,78; 3048,434;  210,768;24316,185;11,77190
 267,38; 3032,543;  183,967;24330,944;11,79682
 267,98; 3044,109;  157,568;24150,966;12,03056
 268,58; 3065,374;  184,567;24217,448;11,98694
 269,17; 3098,995;  164,966;24285,346;12,16411
 269,77; 3057,850;  198,370;24085,497;11,97080
 270,37; 3098,299;  147,368;23944,855;12,40018
 270,96; 3140,284;  207,769;23900,074;12,37750
 271,56; 3144,977;  182,770;23601,023;12,64914
 272,16; 3164,638;  177,569;23375,339;12,87653
 272,75; 3160,468;  187,969;23411,568;12,79948
 273,35; 3216,452;  190,969;23294,694;13,09521
 273,95; 3314,948;  185,769;23354,159;13,50624
 274,54; 3356,877;  158,572;23331,028;13,80219
 275,14; 3469,828;  192,569;23707,828;13,93673
 275,74; 3503,962;  153,369;23879,482;14,12196
 276,33; 3676,526;  203,970;24142,154;14,50635
 276,93; 3791,407;  188,772;24583,858;14,76787
 277,53; 3928,886;  192,571;25175,231;14,95563
 278,12; 4079,623;  166,570;25657,758;15,35061
 278,72; 4283,719;  205,171;26178,411;15,70288
 279,32; 4479,980;  164,571;26753,991;16,22980
 279,91; 4654,165;  171,371;27521,361;16,39048
 280,51; 4876,405;  184,971;28009,765;16,86062
 281,11; 5125,424;  196,371;28752,665;17,26083
 281,70; 5263,647;  168,771;29039,102;17,64745
 282,30; 5623,548;  164,370;29898,623;18,35990
 282,90; 5757,081;  162,570;30314,080;18,55466
 283,49; 6064,075;  190,569;30828,085;19,17096
 284,09; 6304,089;  203,370;31190,426;19,68796
 284,69; 6521,604;  185,371;31498,658;20,23497
 285,28; 6799,895;  210,370;31942,235;20,76627
 285,88; 7045,456;  227,969;32156,996;21,35200
 286,47; 7197,172;  177,970;32188,289;21,92794
 287,07; 7464,500;  194,771;32347,001;22,61034
 287,67; 7742,040;  195,172;32354,546;23,46709
 288,26; 7971,279;  184,971;32405,315;24,16581
 288,86; 8315,700;  186,570;32495,769;25,16042
 289,46; 8623,268;  186,371;32680,542;25,96434
 290,05; 8941,062;  179,172;32626,997;27,00301
 290,65; 9330,966;  185,370;32941,526;27,92024
 291,24; 9719,966;  194,771;32878,468;29,14357
 291,84;10118,288;  202,970;33219,118;30,03172
 292,44;10545,961;  169,373;33300,709;31,31956
 293,03;10949,381;  246,171;33547,421;32,14057
 293,63;11278,912;  186,770;33615,584;33,18138
 294,22;11680,152;  208,371;33698,513;34,25420
 294,82;11950,787;  182,368;33743,792;35,06531
 295,41;12129,504;  156,771;33498,702;35,90894
 296,01;12387,393;  227,569;33383,433;36,67473
 296,61;12582,187;  194,371;33207,630;37,52376
 297,20;12607,846;  196,769;32826,653;38,03592
 297,80;12828,864;  204,972;32694,780;38,85493
 298,39;12784,730;  175,570;32287,366;39,26644
 298,99;12896,310;  191,569;32103,970;39,81130
 299,58;12976,900;  202,372;31960,897;40,22393
 300,18;13096,607;  209,372;31811,026;40,78025
 300,78;13059,638;  171,771;31484,299;41,15882
 301,37;13212,495;  207,968;31547,997;41,49494
 301,97;13257,385;  187,571;31411,847;41,85786
 302,56;13380,031;  182,570;31378,165;42,30553
 303,16;13413,060;  154,770;31499,886;42,29778
 303,75;13429,051;  174,571;31460,900;42,36509
 304,35;13670,579;  188,573;31471,397;43,09715
 304,94;13796,904;  194,771;31687,381;43,19151
 305,54;13825,522;  187,371;31750,070;43,20971
 306,13;13916,410;  151,573;31621,627;43,73948
 306,73;13813,494;  159,173;31458,566;43,62488
 307,33;13940,054;  198,772;31266,869;44,22956
 307,92;13898,264;  181,971;31330,916;44,03454
 308,52;14215,944;  169,770;31983,457;44,15135
 309,11;14467,355;  176,969;32351,365;44,41540
 309,71;14659,595;  152,968;32616,552;44,68585
 310,30;14776,434;  174,971;32954,887;44,54393
 310,90;14885,720;  185,971;33262,687;44,44138
 311,49;15007,292;  183,771;33381,562;44,65213
 312,09;15042,204;  151,372;33501,122;44,65051
 312,68;15366,716;  211,971;33895,860;44,99108
 313,28;15346,836;  158,371;34163,316;44,66546
 313,87;15419,902;  155,571;34084,705;44,98886
 314,47;15498,145;  180,169;34410,101;44,75024
 315,06;15544,329;  167,171;34623,354;44,62815
 315,66;15558,918;  175,372;34781,722;44,45296
 316,25;15544,344;  155,370;34635,211;44,63180
 316,85;15527,983;  151,972;34745,960;44,44706
 317,44;15545,627;  158,569;34808,042;44,40777
 318,04;15483,250;  154,570;34964,575;44,03527
 318,63;15385,364;  152,173;34926,013;43,80647
 319,22;15366,473;  179,570;35223,088;43,33727
 319,82;15353,532;  169,770;35286,149;43,23840
 320,41;15193,161;  180,770;35143,517;42,93825
 321,01;15171,439;  184,572;35123,206;42,89483
 321,60;15074,765;  168,770;35341,283;42,37967
 322,20;14982,926;  157,971;35299,850;42,18601
 322,79;14843,484;  208,771;35313,402;41,68884
 323,39;14808,802;  169,373;35372,034;41,58614
 323,98;14739,951;  144,771;35282,670;41,53686
 324,58;14542,242;  178,970;35129,905;41,09553
 325,17;14375,590;  196,170;35027,392;40,70894
 325,76;14266,254;  188,171;34881,219;40,57897
 326,36;13958,972;  149,972;34539,463;40,15471
 326,95;13809,310;  188,371;34192,512;40,05671
 327,55;13536,740;  153,970;33899,863;39,65748
 328,14;13298,889;  170,972;33373,200;39,53927
 328,74;13115,979;  209,170;33084,174;39,26025
 329,33;12748,466;  182,972;32760,777;38,57072
 329,92;12379,874;  158,569;31966,499;38,42220
 330,52;12109,447;  188,172;31457,277;38,12477
 331,11;11739,778;  179,770;31131,730;37,34822
 331,71;11445,736;  183,571;30498,361;37,15073
 332,30;11165,046;  180,371;29967,981;36,87666
 332,89;10992,181;  211,371;29360,253;36,98533
 333,49;10539,465;  177,171;28810,559;36,18955
 334,08;10281,156;  185,570;28460,415;35,70519
 334,68;10053,480;  184,370;28111,558;35,33872
 335,27; 9769,327;  194,572;27666,421;34,85297
 335,86; 9624,778;  225,970;27437,330;34,54001
 336,46; 9352,989;  194,772;27302,755;33,78421
 337,05; 9232,181;  170,170;27101,835;33,64816
 337,65; 9077,350;  161,970;26927,606;33,30905
 338,24; 8995,483;  230,171;26958,727;32,79381
 338,83; 8850,275;  214,371;26752,013;32,54209
 339,43; 8632,434;  166,370;26752,745;31,84362
 340,02; 8596,943;  181,970;26565,382;31,89494
 340,61; 8546,459;  175,971;26737,307;31,51381
 341,21; 8433,836;  207,170;26763,374;30,97832
 341,80; 8308,987;  187,370;26798,720;30,51937
 342,40; 8200,952;  194,772;26864,163;30,02011
 342,99; 8103,181;  180,971;26944,253;29,60104
 343,58; 8103,752;  176,772;27133,577;29,40623
 344,18; 8080,205;  180,572;27216,597;29,21892
 344,77; 8039,332;  173,570;27606,039;28,67319
 345,36; 7990,452;  160,371;27912,912;28,21393
 345,96; 8002,492;  210,972;28078,872;27,95876
 346,55; 7957,892;  176,173;28447,768;27,52487
 347,14; 7942,848;  160,972;28783,106;27,18832
 347,74; 7929,412;  139,974;29189,920;26,81395
 348,33; 8036,998;  191,974;29817,918;26,48025
 348,92; 8016,184;  183,775;30549,105;25,79392
 349,52; 8072,071;  156,174;30955,103;25,70186
 350,11; 8119,451;  162,170;31210,819;25,62843
 350,70; 7965,277;  172,171;31120,364;25,18113
 351,29; 7762,551;  152,368;30924,689;24,73061
 351,89; 7687,771;  179,969;30993,518;24,36526
 352,48; 7599,239;  148,171;30885,421;24,24117
 353,07; 7472,547;  183,172;30877,907;23,74797
 353,67; 7390,221;  190,175;30820,573;23,50621
 354,26; 7222,147;  178,172;30601,753;23,15301
 354,85; 7110,021;  177,172;30468,703;22,88709
 355,45; 6914,080;  147,370;30439,404;22,33825
 356,04; 6881,144;  173,573;30375,327;22,20921
 356,63; 6757,828;  206,771;30066,646;21,93933
 357,22; 6576,689;  184,368;29905,512;21,50765
 357,82; 6424,710;  187,968;29668,706;21,15531
 358,41; 6369,008;  199,771;29572,438;21,00333
 359,00; 6240,019;  163,770;29435,592;20,75801
 359,60; 6132,471;  185,571;29456,479;20,31676
 360,19; 6056,505;  182,373;29120,338;20,29905
 360,78; 5907,325;  182,770;29146,310;19,76469
 361,37; 5811,233;  189,170;28916,701;19,57030
 361,97; 5764,853;  182,971;28635,265;19,61839
 362,56; 5556,243;  167,969;28360,780;19,11223
 363,15; 5534,494;  215,170;28158,481;19,03613
 363,74; 5394,352;  172,569;27752,539;18,93324
 364,34; 5259,669;  182,370;27352,554;18,68702
 364,93; 5103,193;  175,169;26963,065;18,39646
 365,52; 4941,349;  145,370;26728,130;18,04169
 366,11; 4890,460;  181,770;26167,240;18,12047
 366,71; 4795,759;  159,970;26022,688;17,92460
 367,30; 4689,998;  174,170;25559,416;17,78918
 367,89; 4619,100;  206,172;25401,865;17,51461
 368,48; 4469,027;  166,169;25075,721;17,27393
 369,07; 4433,134;  183,571;24633,164;17,38092
 369,67; 4335,401;  191,769;24284,979;17,19834
 370,26; 4240,952;  168,771;24087,545;17,02504
 370,85; 4129,765;  186,170;23838,483;16,67319
 371,44; 4095,919;  177,571;23618,579;16,71578
 372,03; 3985,396;  168,370;23337,002;16,47497
 372,63; 3930,088;  147,771;23093,550;16,48372
 373,22; 3871,707;  167,171;22783,439;16,37996
 373,81; 3793,609;  147,170;22461,635;16,34114
 374,40; 3767,473;  169,372;22139,047;16,37758
 374,99; 3701,144;  165,970;21953,443;16,22572
 375,59; 3604,592;  156,172;21667,828;16,03047
 376,18; 3639,117;  191,770;21468,872;16,20215
 376,77; 3576,788;  203,371;21364,952;15,94123
 377,36; 3603,155;  199,370;21278,940;16,14732
 377,95; 3529,719;  176,570;20936,669;16,15189
 378,55; 3481,582;  175,772;20880,606;15,96637
 379,14; 3435,428;  198,770;20761,892;15,74011
 379,73; 3479,965;  184,170;20648,651;16,10495
 380,32; 3495,437;  202,171;20712,913;16,05630
 380,91; 3497,883;  151,769;20583,445;16,37709
 381,50; 3475,152;  179,570;20550,771;16,17765
 382,10; 3467,723;  162,771;20394,913;16,33516
 382,69; 3456,961;  160,970;20364,549;16,31389
 383,28; 3516,955;  192,770;20401,829;16,44899
 383,87; 3490,358;  157,570;20188,334;16,63835
 384,46; 3497,969;  162,369;20195,735;16,65022
 385,05; 3515,853;  202,570;20207,523;16,56232
 385,64; 3545,460;  171,770;20158,440;16,87970
 386,24; 3500,580;  156,168;20099,553;16,76953
 386,83; 3588,049;  192,168;20144,447;17,02002
 387,42; 3592,278;  200,570;20295,621;16,87832
 388,01; 3640,437;  177,767;20546,811;16,99967
 388,60; 3782,071;  179,569;20726,841;17,53275
 389,19; 3805,920;  159,766;21010,611;17,48684
 389,78; 3844,098;  180,366;21128,927;17,48918
 390,37; 4035,054;  208,568;21641,549;17,85326
 390,96; 4044,633;  186,168;21815,620;17,83894
 391,56; 4152,977;  182,966;21914,379;18,26854
 392,15; 4189,888;  157,167;22239,463;18,26224
 392,74; 4271,374;  149,764;22406,546;18,51845
 393,33; 4393,707;  154,165;22663,977;18,83419
 393,92; 4524,618;  188,363;23131,835;18,89974
 394,51; 4575,616;  163,965;23327,444;19,04572
 395,10; 4641,791;  194,760;23569,872;19,02464
 395,69; 4733,812;  182,161;23573,066;19,45907
 396,28; 4819,634;  182,959;23658,331;19,75123
 396,87; 4888,427;  201,757;23993,409;19,69880
 397,46; 4970,835;  181,955;24041,473;20,07115
 398,06; 5029,364;  204,753;24189,344;20,11546
 398,65; 5149,494;  197,949;24189,052;20,63909
 399,24; 5216,933;  180,348;24500,131;20,70983
 399,83; 5228,038;  163,741;24445,460;20,85642
 400,42; 5386,278;  206,135;24512,385;21,31198
 401,01; 5456,398;  170,928;24724,112;21,52662
 401,60; 5475,573;  181,918;24816,096;21,48907
 402,19; 5548,064;  194,110;24662,362;21,88123
 402,78; 5611,316;  219,099;24613,473;22,10435
 403,37; 5621,886;  196,288;24505,274;22,31931
 403,96; 5651,101;  187,674;24293,776;22,66408
 404,55; 5680,775;  192,660;24133,732;22,92343
 405,14; 5724,771;  184,247;24038,022;23,22703
 405,73; 5758,975;  197,631;23981,267;23,38307
 406,32; 5788,459;  191,621;24101,578;23,40798
 406,91; 5795,857;  187,609;23737,316;23,81451
 407,50; 5852,071;  185,002;23539,545;24,26538
 408,09; 5771,497;  152,198;23115,950;24,47030
 408,68; 5860,936;  182,995;23193,869;24,67503
 409,27; 5863,253;  154,999;22857,262;25,14399
 409,86; 5849,457;  157,808;22774,037;25,16622
 410,45; 5929,808;  211,416;22694,697;25,43397
 411,04; 5968,728;  212,624;22573,806;25,74150
 411,63; 5946,542;  196,235;22229,067;26,09881
 412,22; 6021,185;  191,644;22057,939;26,65994
 412,81; 6001,381;  201,048;21784,907;26,87347
 413,40; 5964,746;  210,252;21438,664;27,10751
 413,99; 5934,073;  258,651;21227,216;27,06634
 414,58; 5841,349;  187,452;20694,737;27,57019
 415,17; 5867,289;  175,248;20501,298;28,00368
 415,76; 5842,098;  180,244;20395,432;28,00792
 416,35; 5801,167;  174,846;20161,732;28,15006
 416,94; 5946,595;  222,045;20313,714;28,49216
 417,53; 6065,572;  177,648;20493,672;28,98167
 418,12; 6132,419;  174,049;20614,393;29,15005
 418,71; 6292,641;  197,252;20941,732;29,38319
 419,30; 6382,636;  181,049;21012,852;29,76980
 419,89; 6428,042;  185,050;21163,001;29,75978
 420,48; 6606,420;  199,052;21489,970;30,09437
 421,07; 6735,931;  204,653;21596,176;30,53208
 421,66; 6721,739;  164,255;21538,096;30,67995
 422,25; 6792,099;  185,259;21534,257;30,94684
 422,84; 6908,116;  208,860;21487,749;31,48311
 423,43; 6793,277;  195,258;21191,232;31,42516
 424,02; 6846,360;  218,859;20971,837;31,93518
 424,60; 6757,463;  191,663;20564,538;32,22815
 425,19; 6670,451;  209,061;20305,406;32,15207
 425,78; 6747,384;  205,261;20207,342;32,70721
 426,37; 6724,793;  206,063;20111,059;32,74922
 426,96; 6757,273;  205,863;19945,049;33,18987
 427,55; 6757,179;  188,865;19762,574;33,55682
 428,14; 6756,556;  183,867;19519,125;33,99328
 428,73; 6741,567;  208,464;19341,737;34,14524
 429,32; 6760,848;  205,063;19425,276;34,10881
 429,91; 6820,033;  228,464;19418,805;34,34837
 430,50; 6826,265;  205,466;19183,005;34,88755
 431,08; 6774,328;  226,467;18999,311;34,87943
 431,67; 6855,703;  268,868;19016,987;35,13331
 432,26; 6825,106;  281,070;18905,633;35,13659
 432,85; 6736,707;  281,869;18476,831;35,47597
 433,44; 6675,272;  293,471;18078,520;35,88295
 434,03; 6525,738;  304,473;17738,947;35,68370
 434,62; 6433,894;  268,471;17308,235;36,18256
 435,21; 6413,731;  309,069;17213,975;36,11178
 435,79; 6367,164;  281,872;16934,179;36,54323
 436,38; 6382,111;  278,275;16896,072;36,73072
 436,97; 6374,588;  274,475;16729,837;37,07067
 437,56; 6276,951;  266,478;16623,825;36,74479
 438,15; 6345,637;  255,878;16496,161;37,49786
 438,74; 6393,867;  252,078;16499,268;37,80216
 439,33; 6348,612;  229,677;16456,341;37,70914
 439,91; 6481,750;  196,479;16520,581;38,50301
 440,50; 6535,839;  232,479;16621,240;38,46148
 441,09; 6590,843;  254,681;16749,826;38,41228
 441,68; 6570,391;  232,283;16730,041;38,41800
 442,27; 6607,570;  209,882;16687,816;38,82579
 442,86; 6613,078;  206,287;16651,772;38,95775
 443,44; 6759,361;  203,886;16753,004;39,61223
 444,03; 6784,636;  273,887;16791,849;39,41618
 444,62; 6792,480;  204,087;16619,601;40,13516
 445,21; 6767,135;  219,286;16471,340;40,28936
 445,80; 6768,913;  221,889;16363,863;40,55901
 446,39; 6726,165;  255,888;16196,422;40,59009
 446,97; 6572,251;  209,491;15841,813;40,70259
 447,56; 6521,903;  201,493;15706,886;40,76266
 448,15; 6474,615;  204,091;15505,975;40,97877
 448,74; 6420,703;  230,291;15290,758;41,10372
 449,33; 6368,648;  211,892;15142,083;41,23695
 449,91; 6339,517;  223,095;14894,015;41,69079
 450,50; 6220,821;  196,694;14714,040;41,49606
 451,09; 6219,091;  211,295;14708,166;41,44202
 451,68; 6251,352;  235,696;14536,163;42,06615
 452,26; 6230,717;  227,697;14402,943;42,34862
 452,85; 6114,659;  211,896;14299,357;41,90083
 453,44; 6145,936;  219,299;14312,838;42,05215
 454,03; 6168,840;  191,497;14305,367;42,35084
 454,61; 6185,829;  207,099;14368,230;42,21930
 455,20; 6274,220;  220,300;14521,704;42,33094
 455,79; 6320,774;  222,498;14447,995;42,86863
 456,38; 6286,993;  223,302;14552,908;42,31582
 456,97; 6371,661;  213,701;14622,094;42,73870
 457,55; 6353,464;  212,703;14558,695;42,80472
 458,14; 6467,627;  229,501;14553,453;43,55031
 458,73; 6397,786;  214,503;14483,287;43,33434
 459,31; 6418,284;  232,705;14529,387;43,26583
 459,90; 6512,049;  247,904;14600,360;43,64511
 460,49; 6554,471;  283,703;14696,165;43,50935
 461,08; 6558,948;  207,506;14867,089;43,32621
 461,66; 6575,869;  224,505;14888,910;43,31143
 462,25; 6670,913;  226,907;14940,115;43,79742
 462,84; 6730,556;  251,506;15011,281;43,89667
 463,43; 6646,564;  194,909;14974,511;43,65243
 464,01; 6691,333;  218,710;14995,271;43,80331
 464,60; 6712,364;  257,108;14803,201;44,37794
 465,19; 6611,716;  185,910;14720,475;44,21051
 465,77; 6613,081;  217,911;14554,854;44,60623
 466,36; 6613,005;  245,309;14525,559;44,59093
 466,95; 6473,080;  200,709;14226,494;44,72029
 467,53; 6349,210;  204,512;13914,149;44,82028
 468,12; 6244,921;  249,513;13740,122;44,44135
 468,71; 6157,921;  230,310;13415,162;44,95773
 469,29; 6037,736;  191,513;13187,353;44,98535
 469,88; 5895,545;  227,514;12883,731;44,78456
 470,47; 6022,109;  255,916;12949,820;45,42490
 471,06; 5988,822;  220,316;13005,744;45,11782
 471,64; 6050,504;  220,515;13189,379;44,95373
 472,23; 6042,100;  196,519;13015,701;45,60027
 472,81; 6071,937;  188,917;13223,040;45,13552
 473,40; 6099,346;  191,319;13326,682;44,97802
 473,99; 6288,371;  285,319;13423,177;45,69278
 474,57; 6287,061;  209,519;13701,757;45,04473
 475,16; 6395,050;  222,117;13824,843;45,38011
 475,75; 6434,150;  225,720;13942,558;45,26138
 476,33; 6504,354;  231,721;14015,988;45,50574
 476,92; 6607,809;  233,519;13987,799;46,34405
 477,51; 6505,427;  229,721;14118,754;45,18461
 478,09; 6567,907;  232,321;14143,545;45,54298
 478,68; 6565,147;  216,521;14012,349;46,01845
 479,27; 6587,421;  233,520;14178,435;45,56429
 479,85; 6575,875;  218,121;14165,872;45,58265
 480,44; 6630,452;  207,122;14306,392;45,55789
 481,02; 7282,516;  229,523;16077,972;44,50273
 481,61; 8118,587;  254,923;17850,264;44,69174
 482,20; 8791,866;  254,723;19118,411;45,25702
 482,78; 9144,637;  260,922;19733,161;45,62246
 483,37; 9330,182;  262,525;19948,568;46,06135
 483,95; 9537,438;  295,325;20382,571;46,00986
 484,54; 9668,265;  297,122;20576,671;46,20982
 485,13; 9607,992;  258,327;20626,963;45,90226
 485,71; 9619,180;  265,126;20428,959;46,39025
 486,30; 9458,231;  288,926;20149,750;46,16780
 486,88; 9377,980;  315,727;19817,991;46,46770
 487,47; 9069,157;  305,527;19173,432;46,44729
 488,05; 8621,746;  304,528;18210,999;46,44811
 488,64; 8071,548;  297,729;16839,124;46,99615
 489,23; 7283,586;  293,128;14766,050;48,30025
 489,81; 6128,646;  292,329;12721,186;46,95779
 490,40; 5746,370;  236,929;12197,408;46,06372
 490,98; 5664,701;  233,530;11871,146;46,66910
 491,57; 5549,155;  277,529;11845,499;45,57089
 492,15; 5575,347;  261,530;11813,481;45,99931
 492,74; 5518,940;  257,928;11767,515;45,70982
 493,32; 5502,234;  259,930;11624,078;46,13020
 493,91; 5417,677;  231,331;11482,743;46,09506
 494,50; 5409,791;  245,333;11400,981;46,29455
 495,08; 5386,182;  225,733;11356,514;46,36197
 495,67; 5444,212;  241,930;11337,151;46,88759
 496,25; 5302,312;  210,132;11263,524;46,06894
 496,84; 5304,330;  202,730;11298,531;45,97775
 497,42; 5304,189;  197,532;11106,042;46,81352
 498,01; 5305,807;  219,131;11139,496;46,57972
 498,59; 5214,226;  203,133;11065,034;46,13459
 499,18; 5259,909;  202,331;11012,202;46,78666
 499,76; 5227,377;  205,132;10907,562;46,92621
 500,35; 5103,017;  203,734;10683,262;46,75099
 500,93; 5064,191;  187,332;10677,317;46,49061
 501,52; 5065,733;  200,133;10557,596;46,97676
 502,10; 5059,512;  208,535;10546,594;46,92348
 502,69; 4977,658;  196,336;10400,362;46,85721
 503,27; 4892,504;  190,133;10262,506;46,68583
 503,86; 4833,675;  209,735;10065,112;46,91794
 504,44; 4823,769;  182,936;10030,290;47,12772
 505,03; 4686,925;  162,736; 9694,137;47,46615
 505,61; 4628,968;  192,536; 9702,182;46,65192
 506,19; 4586,380;  204,136; 9472,108;47,28375
 506,78; 4448,281;  172,338; 9340,713;46,63796
 507,36; 4410,147;  183,936; 9137,175;47,20316
 507,95; 4351,064;  181,139; 9036,995;47,08664
 508,53; 4288,918;  187,138; 8897,027;47,09337
 509,12; 4248,781;  199,738; 8754,622;47,33019
 509,70; 4175,997;  204,739; 8637,406;47,09374
 510,29; 4051,766;  205,340; 8415,965;46,84693
 510,87; 3977,606;  174,738; 8270,731;46,97223
 511,46; 3889,758;  177,338; 8086,477;46,93835
 512,04; 3820,902;  186,939; 7957,770;46,76415
 512,62; 3746,952;  196,138; 7778,868;46,82765
 513,21; 3650,622;  171,140; 7678,090;46,35014
 513,79; 3600,524;  197,143; 7549,188;46,29163
 514,38; 3515,510;  181,142; 7320,047;46,70699
 514,96; 3520,538;  209,742; 7281,093;46,81985
 515,54; 3407,738;  181,542; 7104,679;46,60021
 516,13; 3359,035;  186,942; 7021,976;46,40932
 516,71; 3295,631;  192,944; 6926,813;46,07585
 517,30; 3290,866;  181,145; 6826,840;46,79302
 517,88; 3211,465;  188,345; 6746,811;46,09492
 518,46; 3154,666;  170,545; 6594,672;46,45178
 519,05; 3142,878;  179,746; 6495,754;46,91463
 519,63; 3093,675;  191,345; 6542,018;45,70113
 520,22; 3076,966;  217,947; 6442,155;45,93386
 520,80; 3054,783;  187,147; 6364,261;46,42355
 521,38; 3046,252;  210,146; 6401,013;45,81114
 521,97; 3005,708;  200,348; 6282,943;46,12110
 522,55; 2976,241;  199,748; 6282,800;45,64309
 523,13; 2987,909;  179,949; 6301,529;45,86986
 523,72; 2988,550;  168,345; 6249,243;46,37811
 524,30; 3033,459;  211,950; 6385,078;45,70631
 524,89; 3052,096;  176,548; 6358,449;46,51559
 525,47; 3091,701;  200,750; 6540,633;45,59944
 526,05; 3102,868;  161,550; 6521,777;46,24548
 526,64; 3174,758;  201,551; 6660,943;46,02921
 527,22; 3225,208;  202,350; 6749,594;46,16993
 527,80; 3310,746;  216,751; 6871,971;46,48976
 528,39; 3304,583;  197,351; 6962,595;45,92933
 528,97; 3404,911;  197,551; 7113,440;46,37669
 529,55; 3528,935;  203,749; 7325,624;46,68975
 530,14; 3605,980;  207,752; 7528,922;46,41646
 530,72; 3624,249;  185,551; 7652,030;46,05514
 531,30; 3663,510;  177,752; 7705,828;46,30344
 531,89; 3753,342;  197,552; 7831,933;46,57601
 532,47; 3797,558;  228,752; 7901,317;46,51385
 533,05; 3870,409;  233,151; 8000,980;46,82464
 533,63; 3881,048;  227,153; 8024,404;46,86133
 534,22; 3853,944;  184,953; 8097,148;46,37135
 534,80; 3899,034;  208,154; 8130,623;46,58749
 535,38; 3998,937;  261,952; 8300,477;46,48844
 535,97; 3901,206;  217,952; 8189,603;46,20441
 536,55; 3966,434;  239,754; 8349,577;45,95267
 537,13; 3916,499;  259,552; 8289,256;45,54273
 537,71; 4005,111;  298,752; 8354,350;46,00973
 538,30; 3973,316;  324,553; 8330,979;45,57292
 538,88; 4020,515;  370,155; 8471,232;45,06018
 539,46; 4078,995;  409,954; 8696,680;44,27613
 540,05; 4192,039;  418,554; 8885,743;44,56597
 540,63; 4224,415;  489,755; 8987,277;43,94999
 541,21; 4290,666;  514,355; 9101,578;43,97593
 541,79; 4403,069;  550,155; 9207,482;44,50466
 542,38; 4435,794;  583,154; 9437,837;43,50963
 542,96; 4525,265;  595,756; 9546,966;43,89919
 543,54; 4602,434;  618,955; 9809,719;43,34220
 544,12; 4666,975;  575,756; 9945,922;43,66219
 544,70; 4685,848;  567,556; 9959,138;43,85089
 545,29; 4756,716;  575,354;10202,475;43,43315
 545,87; 4780,212;  539,155;10182,482;43,97918
 546,45; 4765,678;  494,954;10226,408;43,88578
 547,03; 4755,905;  481,555;10286,689;43,59298
 547,62; 4827,132;  445,155;10398,845;44,02364
 548,20; 4933,176;  442,556;10554,508;44,40903
 548,78; 4974,991;  423,559;10673,898;44,40275
 549,36; 5051,916;  378,158;10871,763;44,53911
 549,94; 5098,622;  338,556;10875,057;45,17691
 550,53; 5226,311;  337,358;11173,922;45,11534
 551,11; 5276,414;  320,159;11369,121;44,85720
 551,69; 5404,385;  321,158;11645,981;44,88570
 552,27; 5506,070;  263,357;11964,718;44,80430
 552,85; 5680,077;  262,159;12227,130;45,28150
 553,44; 5804,749;  260,958;12593,143;44,95384
 554,02; 5948,069;  280,559;12963,584;44,68579
 554,60; 6096,789;  217,759;13196,779;45,29641
 555,18; 6270,462;  271,558;13667,468;44,78161
 555,76; 6388,367;  251,559;13974,632;44,71891
 556,34; 6595,025;  240,560;14358,681;45,00928
 556,93; 6743,734;  228,358;14680,944;45,08103
 557,51; 6919,103;  209,960;14982,768;45,41549
 558,09; 7074,838;  232,158;15343,801;45,28084
 558,67; 7233,094;  236,761;15780,364;45,01101
 559,25; 7370,995;  255,961;15964,284;45,29468
 559,83; 7508,009;  221,562;16289,350;45,34817
 560,41; 7674,276;  221,760;16657,165;45,34428
 561,00; 7849,691;  218,961;17034,859;45,37807
 561,58; 7949,575;  214,160;17279,088;45,32932
 562,16; 8049,167;  211,959;17477,464;45,39229
 562,74; 8247,536;  185,759;17965,327;45,34293
 563,32; 8411,814;  200,362;18437,359;45,02634
 563,90; 8565,821;  224,961;18787,212;44,93453
 564,48; 8692,812;  225,160;19233,648;44,54669
 565,06; 8948,732;  212,161;19645,953;44,95556
 565,65; 9302,463;  215,363;20566,587;44,65137
 566,23; 9604,301;  265,961;21284,202;44,42969
 566,81; 9882,086;  220,561;21811,894;44,74724
 567,39;10216,434;  241,762;22814,523;44,18898
 567,97;10486,980;  243,961;23468,486;44,10432
 568,55;10839,711;  233,162;24299,977;44,07126
 569,13;11173,093;  208,961;24989,088;44,24566
 569,71;11548,116;  226,159;25929,073;44,04931
 570,29;12066,955;  262,958;26884,706;44,33968
 570,87;12364,197;  260,159;27621,986;44,23695
 571,45;12526,134;  260,561;28308,382;43,73093
 572,03;12703,249;  207,762;28687,954;43,87431
 572,61;12979,218;  205,562;29493,539;43,61399
 573,20;13273,063;  253,960;30196,149;43,48080
 573,78;13572,684;  237,562;30789,806;43,64695
 574,36;13782,208;  247,561;31220,242;43,69866
 574,94;13889,921;  271,162;31592,384;43,48093
 575,52;13946,968;  227,364;31876,615;43,34891
 576,10;14234,326;  291,163;32314,782;43,54025
 576,68;14410,496;  281,962;32978,611;43,21095
 577,26;14717,233;  282,765;33716,239;43,17370
 577,84;14904,946;  314,361;34175,662;43,08926
 578,42;15023,696;  332,563;34450,721;43,05957
 579,00;14959,126;  282,962;34449,854;42,95434
 579,58;15137,557;  314,963;34647,623;43,17345
 580,16;15057,615;  304,563;34683,208;42,91342
 580,74;15157,081;  320,163;35084,276;42,67883
 581,32;15155,841;  300,363;35042,672;42,75904
 581,90;15121,836;  308,963;35056,770;42,62966
 582,48;15139,628;  323,563;35155,656;42,53567
 583,06;15107,647;  327,563;35249,557;42,32314
 583,64;15249,467;  322,562;35423,889;42,52519
 584,22;15067,991;  320,164;35040,284;42,47631
 584,80;14891,059;  344,963;34743,607;42,28683
 585,38;14714,195;  333,160;34402,452;42,21113
 585,96;14670,045;  315,962;34409,142;42,10251
 586,54;14731,721;  351,964;34509,758;42,09803
 587,12;14693,883;  306,564;34596,659;41,95766
 587,70;14789,226;  333,362;34763,209;41,98643
 588,28;14646,118;  320,363;34823,468;41,52019
 588,86;14837,737;  312,964;35000,232;41,87350
 589,44;14758,459;  299,765;35002,445;41,66449
 590,02;14913,541;  311,965;35292,308;41,74223
 590,59;14878,657;  283,364;35307,920;41,67160
 591,17;14938,037;  275,567;35479,458;41,65014
 591,75;14921,685;  279,566;35627,726;41,42258
 592,33;15002,716;  292,366;35740,399;41,49835
 592,91;15158,288;  243,367;36020,216;41,68875
 593,49;15185,734;  253,767;36438,908;41,26546
 594,07;15252,955;  263,167;36604,270;41,24748
 594,65;15245,083;  294,964;36588,969;41,19170
 595,23;15306,023;  266,765;37001,975;40,93963
 595,81;15289,044;  254,965;37266,968;40,61947
 596,39;15351,199;  252,565;37293,740;40,76176
 596,97;15327,263;  251,967;37509,721;40,46217
 597,55;15325,961;  256,365;37318,563;40,66029
 598,12;15123,469;  237,968;37345,902;40,11407
 598,70;15222,571;  234,367;37422,990;40,30320
 599,28;15097,038;  257,567;37742,333;39,58800
 599,86;15116,585;  238,367;37792,313;39,61825
 600,44;15210,372;  205,967;37837,897;39,87147
 601,02;15185,220;  252,969;37871,236;39,69415
 601,60;15071,606;  247,766;38017,964;39,24745
 602,18;15090,172;  211,768;37952,129;39,42306
 602,75;15073,721;  231,365;37897,901;39,40462
 603,33;15006,635;  238,167;37944,028;39,16757
 603,91;14958,020;  235,169;37847,926;39,14324
 604,49;14875,323;  240,167;37988,858;38,76997
 605,07;14930,633;  267,166;37989,735;38,87187
 605,65;14853,071;  275,568;38103,299;38,53655
 606,23;14900,802;  313,964;38417,871;38,28174
 606,80;14966,981;  387,765;38345,005;38,40958
 607,38;14870,075;  416,568;38379,543;38,07264
 607,96;14889,059;  473,965;38471,967;37,93645
 608,54;14821,617;  556,368;38527,803;37,56837
 609,12;14804,019;  539,765;38612,748;37,46555
 609,70;14873,625;  566,567;38558,532;37,65811
 610,27;14777,970;  583,965;38723,908;37,21559
 610,85;14830,353;  613,567;38653,055;37,37376
 611,43;14744,558;  590,967;38701,742;37,13803
 612,01;14574,804;  553,366;38429,382;37,01931
 612,59;14498,326;  558,967;38572,284;36,66967
 613,16;14466,302;  545,364;38430,980;36,74465
 613,74;14363,245;  498,767;38313,171;36,66454
 614,32;14273,006;  441,568;38356,385;36,48030
 614,90;14232,773;  421,966;37970,909;36,78081
 615,48;14042,403;  377,365;37840,010;36,47644
 616,05;13976,733;  335,764;37790,131;36,42024
 616,63;13923,634;  347,564;37695,651;36,35011
 617,21;13868,814;  318,965;37566,661;36,37768
 617,79;13740,107;  321,566;37422,331;36,16783
 618,36;13588,322;  317,366;37454,440;35,73506
 618,94;13453,908;  270,365;37060,621;35,83433
 619,52;13290,476;  298,764;36965,252;35,43211
 620,10;13267,941;  269,565;36874,987;35,50943
 620,67;13191,530;  287,364;36807,394;35,33449
 621,25;13119,165;  299,566;36373,517;35,53700
 621,83;13007,492;  292,565;36417,269;35,19732
 622,41;12983,363;  318,765;36510,592;34,99298
 622,98;12763,998;  307,364;36334,213;34,57598
 623,56;12734,702;  305,963;36379,316;34,45407
 624,14;12690,108;  258,167;36056,749;34,72747
 624,72;12620,012;  273,565;36110,078;34,45214
 625,29;12501,598;  252,364;35955,259;34,30880
 625,87;12470,847;  300,966;36094,026;34,00067
 626,45;12354,887;  257,563;35941,085;33,90171
 627,02;12326,443;  266,766;35895,646;33,84804
 627,60;12262,593;  251,167;35822,259;33,76738
 628,18;12191,305;  244,365;35763,548;33,63518
 628,76;12224,607;  246,764;35870,280;33,62342
 629,33;12135,198;  269,364;35839,123;33,35933
 629,91;12082,512;  268,565;35889,587;33,16566
 630,49;12053,240;  276,764;35956,892;33,00570
 631,06;12113,943;  277,964;36097,795;33,04309
 631,64;12022,924;  279,563;36138,753;32,74854
 632,22;11930,425;  229,363;35886,519;32,81547
 632,79;12052,464;  236,363;36219,263;32,83810
 633,37;12009,024;  241,966;36164,868;32,75643
 633,95;11908,082;  254,963;36379,551;32,25814
 634,52;11885,233;  225,965;36519,239;32,12515
 635,10;11920,280;  237,565;36531,728;32,18896
 635,68;11959,009;  223,963;36626,567;32,23683
 636,25;11866,631;  227,562;36805,065;31,82029
 636,83;11921,607;  202,364;36852,080;31,97636
 637,41;11838,623;  232,762;36929,937;31,62603
 637,98;11815,754;  240,162;37154,764;31,35776
 638,56;11810,452;  226,961;37210,748;31,32046
 639,13;11823,025;  212,564;37252,383;31,34589
 639,71;11821,865;  266,964;37549,434;30,99285
 640,29;11611,017;  211,964;37153,267;30,85720
 640,86;11673,092;  230,164;37489,945;30,71121
 641,44;11624,024;  211,764;37365,822;30,71605
 642,02;11510,670;  241,964;37456,499;30,28039
 642,59;11506,174;  209,564;37651,177;30,17127
 643,17;11484,677;  215,764;37740,454;30,03066
 643,74;11473,181;  227,564;37589,132;30,09942
 644,32;11393,113;  243,964;37598,009;29,84723
 644,89;11392,617;  239,564;37716,287;29,75995
 645,47;11317,406;  269,364;37663,564;29,54480
 646,05;11284,909;  235,364;37667,042;29,51924
 646,62;11160,270;  229,765;37442,319;29,37317
 647,20;11212,059;  230,965;37713,197;29,29680
 647,77;11073,849;  203,765;37561,474;29,09730
 648,35;10971,924;  205,965;37397,551;28,94730
 648,92;10963,284;  236,965;37432,229;28,83786
 649,50;10839,216;  176,965;37285,506;28,73261
 650,08;10754,863;  196,965;37310,984;28,44720
 650,65;10735,224;  230,365;37572,261;28,13156
 651,23;10936,727;  196,765;38502,139;28,03774
 651,80;11084,374;  199,965;39424,016;27,74932
 652,38;11125,734;  218,965;39698,694;27,62625
 652,95;11196,095;  196,765;40069,171;27,58632
 653,53;11202,456;  228,165;40138,648;27,49726
 654,10;11183,959;  242,565;40354,726;27,27700
 654,68;11088,034;  202,165;40204,403;27,21315
 655,25;11127,252;  199,965;40496,681;27,11707
 655,83;11056,327;  194,965;40659,958;26,84138
 656,40;11008,259;  233,765;40666,636;26,64786
 656,98;10961,620;  210,165;40604,713;26,61610
 657,55;10879,266;  205,566;40348,391;26,58931
 658,13;10735,913;  202,366;39910,468;26,52745
 658,70;10625,273;  218,366;39739,745;26,33235
 659,28;10390,920;  193,166;38768,623;26,43586
 659,85;10077,709;  213,366;37923,300;26,15847
 660,43;10074,927;  231,366;38173,578;25,94356
 661,00;10032,859;  213,166;38140,655;25,89070
 661,58;10008,505;  198,966;38531,533;25,59061
 662,15;10004,723;  183,366;38548,410;25,59975
 662,73;10094,655;  245,966;39044,488;25,38419
 663,30;10113,730;  215,566;39303,365;25,32290
 663,88;10054,519;  199,966;39299,442;25,20380
 664,45; 9995,166;  196,766;39619,720;24,85456
 665,03;10055,669;  215,166;40113,397;24,66401
 665,60;10200,316;  260,566;40505,075;24,69840
 666,17;10106,248;  214,766;40460,152;24,57793
 666,75;10190,752;  216,166;40839,830;24,55363
 667,32;10263,684;  225,566;41222,107;24,48528
 667,90;10226,901;  198,766;41635,185;24,20126
 668,47;10283,119;  224,966;41620,662;24,29758
 669,05;10337,051;  212,167;42125,139;24,15692
 669,62;10264,984;  187,567;42222,417;23,97396
 670,19;10261,916;  195,967;42072,294;24,03733
 670,77;10341,848;  204,767;42438,372;24,00241
 671,34;10192,208;  229,567;42484,249;23,57760
 671,92;10295,712;  188,167;42555,727;23,85680
 672,49;10213,358;  215,167;42680,604;23,54430
 673,06;10176,433;  169,967;42731,482;23,51060
 673,64;10067,937;  192,567;42741,559;23,20941
 674,21;10135,155;  189,767;42651,636;23,42193
 674,79;10061,373;  192,567;42965,714;23,07243
 675,36;10096,590;  223,767;42944,591;23,11010
 675,93; 9904,094;  207,967;42904,469;22,70942
 676,51; 9970,740;  215,567;43098,746;22,74825
 677,08; 9908,958;  210,967;43232,024;22,54243
 677,65; 9871,319;  210,167;43365,901;22,38672
 678,23; 9854,965;  209,567;43610,179;22,22411
 678,80; 9852,612;  194,967;43687,256;22,20542
 679,38; 9817,544;  185,567;43810,733;22,07894
 679,95; 9890,190;  198,368;44029,211;22,11188
 680,52; 9800,122;  200,968;44211,488;21,81105
 681,10; 9959,912;  216,968;44679,566;21,91267
 681,67; 9890,415;  212,368;45044,843;21,58714
 682,24; 9869,490;  185,368;45052,921;21,58380
 682,82; 9945,708;  196,768;45621,998;21,46151
 683,39;10008,640;  218,368;46011,476;21,37936
 683,96;10019,144;  206,168;46193,953;21,33822
 684,54;10021,504;  177,968;46633,031;21,18937
 685,11;10068,151;  224,968;46853,308;21,10987
 685,68;10049,226;  212,968;47257,785;20,90827
 686,25;10037,301;  195,768;47467,063;20,81926
 686,83;10079,233;  179,168;47447,340;20,94446
 687,40;10039,594;  184,368;47926,018;20,64283
 687,97;10202,240;  218,968;48281,895;20,77125
 688,55;10151,172;  181,568;48410,373;20,67147
 689,12;10110,533;  182,368;48523,650;20,53765
 689,69;10077,893;  186,168;48757,928;20,36518
 690,26;10065,968;  185,168;48923,805;20,27303
 690,84;10070,472;  188,968;49088,882;20,20761
 691,41;10069,690;  214,969;49135,360;20,14440
 691,98;10112,050;  204,769;49439,637;20,12249
 692,56;10078,268;  184,969;49458,515;20,07832
 693,13;10131,200;  246,969;49461,192;20,08410
 693,70;10030,704;  210,369;49672,870;19,85410
 694,27; 9990,636;  192,969;49684,347;19,79672
 694,84; 9997,568;  193,369;49844,425;19,74621
 695,42;10034,072;  228,769;49975,702;19,71037
 695,99; 9981,432;  186,569;50355,379;19,52381
 696,56; 9912,650;  186,569;50230,457;19,43510
 697,13;10014,297;  202,169;50660,334;19,44607
 697,71; 9868,086;  171,569;50584,612;19,23414
 698,28; 9953,589;  200,969;50862,089;19,25070
 698,85; 9901,664;  175,969;51010,167;19,13219
 699,42; 9955,311;  166,369;51064,844;19,23229
 699,99; 9962,957;  192,769;51126,522;19,18215
 700,57; 9937,889;  195,769;51344,599;19,04661
 701,14; 9872,393;  183,769;51441,476;18,90179
 701,71; 9891,468;  224,169;51729,554;18,76949
 702,28; 9911,686;  189,369;51685,431;18,87973
 702,85; 9896,046;  216,570;51676,309;18,80981
 703,43; 9926,693;  194,770;51904,386;18,82034
 704,00; 9914,625;  223,770;52188,864;18,64878
 704,57; 9849,557;  222,170;51968,341;18,60502
 705,14; 9929,632;  238,970;52528,019;18,53287
 705,71; 9855,136;  238,970;52596,096;18,36649
 706,28; 9768,925;  219,770;52301,373;18,33499
 706,86; 9790,143;  235,370;52719,051;18,20523
 707,43; 9755,075;  258,170;52483,928;18,18433
 708,00; 9755,007;  238,970;52641,806;18,15939
 708,57; 9627,653;  204,170;52481,083;18,02609
 709,14; 9624,014;  241,770;52773,961;17,85999
 709,71; 9645,232;  210,770;52768,438;17,95069
 710,28; 9644,593;  213,970;53039,716;17,85232
 710,86; 9616,096;  222,570;53179,193;17,73815
 711,43; 9657,743;  231,170;53178,870;17,80355
 712,00; 9559,675;  219,770;53330,348;17,58577
 712,57; 9594,464;  233,170;53295,225;17,64216
 713,14; 9557,682;  208,370;53449,903;17,56018
 713,71; 9486,614;  228,371;53334,380;17,43351
 714,28; 9524,403;  208,371;53302,258;17,54634
 714,85; 9393,478;  200,171;53229,935;17,33613
 715,42; 9479,696;  204,171;53233,813;17,49121
 716,00; 9491,342;  274,371;53582,890;17,28987
 716,57; 9507,989;  210,171;53702,167;17,38170
 717,14; 9430,349;  188,971;53671,045;17,27939
 717,71; 9379,853;  183,971;53611,322;17,21194
 718,28; 9437,499;  216,971;53832,000;17,19766
 718,85; 9356,431;  186,571;53962,077;17,05211
 719,42; 9443,649;  223,771;53933,555;17,16611
 719,99; 9387,153;  191,771;53690,232;17,18812
 720,56; 9528,514;  211,371;54167,910;17,26787
 721,13; 9448,303;  210,571;54121,387;17,13521
 721,70; 9360,664;  202,171;54006,865;17,02173
 722,27; 9346,596;  217,171;54134,942;16,93213
 722,84; 9405,671;  252,771;54232,419;16,95620
 723,41; 9388,888;  188,571;54242,497;17,02063
 723,98; 9438,249;  198,571;54586,774;16,98839
 724,55; 9422,038;  230,371;54513,652;16,93278
 725,12; 9364,542;  168,372;54409,729;16,95417
 725,69; 9412,474;  190,572;54631,407;16,93931
 726,27; 9429,835;  208,772;54839,084;16,87902
 726,84; 9406,910;  204,172;55140,362;16,75169
 727,41; 9492,842;  217,172;54813,639;16,98951
 727,98; 9515,345;  222,372;55353,716;16,85606
 728,55; 9551,563;  250,572;55086,394;16,96152
 729,12; 9465,781;  200,972;55243,871;16,83198
 729,69; 9518,856;  219,772;55415,549;16,84746
 730,26; 9505,931;  217,372;55694,226;16,74312
 730,82; 9440,149;  209,772;55473,904;16,70229
 731,39; 9480,510;  220,972;55566,181;16,73051
 731,96; 9511,156;  181,972;55957,259;16,72638
 732,53; 9579,088;  212,972;56028,336;16,78053
 733,10; 9547,306;  208,972;56151,813;16,69263
 733,67; 9567,381;  200,972;56541,291;16,62470
 734,24; 9477,170;  206,972;55959,168;16,62750
 734,81; 9470,102;  234,372;56280,646;16,47876
 735,38; 9414,892;  216,372;56038,923;16,47814
 735,95; 9382,395;  206,573;55793,401;16,50719
 736,52; 9470,756;  239,973;56073,078;16,53281
 737,09; 9351,545;  218,973;55695,556;16,46203
 737,66; 9423,191;  269,173;55913,033;16,45109
 738,23; 9410,981;  195,373;56021,110;16,50781
 738,80; 9527,770;  237,773;56286,188;16,57495
 739,37; 9432,702;  237,573;56592,065;16,31659
 739,94; 9504,206;  213,573;56504,343;16,50472
 740,51; 9541,709;  286,973;56571,020;16,44291
 741,07; 9509,784;  199,373;56462,298;16,54804
 741,64; 9524,431;  251,573;56792,775;16,40018
 742,21; 9473,934;  215,973;56653,853;16,40381
 742,78; 9431,723;  194,973;56474,130;16,41238
 743,35; 9569,227;  214,173;56710,607;16,55866
 743,92; 9591,159;  247,373;56925,485;16,48570
 744,49; 9534,805;  237,973;56769,762;16,44532
 745,06; 9568,595;  200,573;56655,440;16,59382
 745,63; 9543,098;  189,373;56752,117;16,53690
 746,19; 9557,459;  204,773;56975,195;16,47457
 746,76; 9557,677;  210,973;56909,872;16,48481
 747,33; 9565,323;  217,174;56688,150;16,55390
 747,90; 9591,255;  227,974;57094,427;16,46539
 748,47; 9655,045;  228,174;56888,104;16,63763
 749,04; 9641,691;  228,574;56982,582;16,58582
 749,61; 9654,052;  209,974;56797,859;16,68922
 750,17; 9664,555;  212,374;56931,137;16,66500
 750,74; 9682,059;  228,374;56910,214;16,67851
 751,31; 9624,991;  194,174;56734,292;16,67987
 751,88; 9625,209;  193,774;56596,569;16,72157
 752,45; 9665,855;  213,974;56822,247;16,69700
 753,02; 9579,216;  209,374;56688,524;16,58991
 753,58; 9649,862;  193,974;56519,402;16,78796
 754,15; 9715,366;  223,774;56777,479;16,78332
 754,72; 9646,584;  193,574;56506,156;16,78667
 755,29; 9640,087;  183,774;56333,834;16,84114
 755,86; 9662,734;  222,374;56512,111;16,77101
 756,42; 9673,809;  221,574;56376,989;16,83228
 756,99; 9677,741;  191,974;56591,266;16,81895
 757,56; 9657,816;  209,774;56331,544;16,83490
 758,13; 9613,319;  176,174;56219,621;16,83898
 758,70; 9712,394;  204,975;56289,899;16,95183
 759,26; 9768,898;  198,175;56434,776;17,01867
 759,83; 9703,258;  207,175;56603,453;16,83814
 760,40; 9766,333;  204,575;56281,331;17,05120
 760,97; 9726,265;  203,775;56472,208;16,92333
 761,53; 9649,055;  192,375;56080,686;16,92068
 762,10; 9637,558;  174,575;56038,363;16,93939
 762,67; 9731,490;  221,575;56070,641;17,02789
 763,24; 9643,280;  164,375;55565,118;17,10971
 763,80; 9625,069;  199,575;55610,596;17,01014
 764,37; 9630,858;  181,175;55604,673;17,04996
 764,94; 9612,933;  178,175;55208,350;17,14470
 765,50; 9627,722;  168,575;55191,628;17,19124
 766,07; 9680,512;  210,375;55220,505;17,21526
 766,64; 9644,301;  191,575;54901,983;17,27775
 767,21; 9647,662;  189,975;54870,260;17,29634
 767,77; 9678,879;  206,375;54707,338;17,38043
 768,34; 9662,097;  210,775;54664,215;17,35670
 768,91; 9621,744;  190,175;54295,093;17,43200
 769,47; 9719,390;  192,376;54498,370;17,54321
 770,04; 9781,465;  209,976;54468,247;17,64061
 770,61; 9696,826;  187,176;54240,525;17,59308
 771,18; 9639,472;  188,776;54080,402;17,53648
 771,74; 9689,976;  210,576;54206,080;17,55591
 772,31; 9697,194;  211,576;54057,757;17,61614
 772,88; 9724,697;  178,176;53704,835;17,83508
 773,44; 9627,058;  191,776;53520,312;17,69274
 774,01; 9721,276;  189,776;53690,790;17,81555
 774,58; 9717,351;  171,776;53432,467;17,92236
 775,14; 9733,711;  184,376;53531,344;17,90043
 775,71; 9724,215;  191,776;53402,422;17,91453
 776,27; 9787,576;  233,976;53302,099;18,00252
 776,84; 9809,508;  246,976;53488,977;17,96050
 777,41; 9789,868;  207,976;53298,054;18,04837
 777,97; 9715,800;  183,976;52923,332;18,07346
 778,54; 9793,447;  206,176;53016,409;18,15419
 779,11; 9808,665;  215,176;53045,287;18,15913
 779,67; 9851,883;  192,776;52911,764;18,32187
 780,24; 9806,672;  214,176;52651,841;18,29314
 780,80; 9870,747;  222,577;52697,919;18,38610
 781,37; 9912,536;  205,977;52485,196;18,56676
 781,94; 9881,897;  194,577;52362,074;18,56965
 782,50; 9932,543;  214,977;52273,751;18,66653
 783,07; 9876,618;  247,977;52383,429;18,46851
 783,63; 9837,693;  190,177;52079,106;18,59263
 784,20; 9903,625;  232,777;52057,584;18,66065
 784,77; 9880,414;  208,577;51928,461;18,70042
 785,33; 9833,632;  187,177;51681,938;18,73289
 785,90; 9881,279;  208,577;51654,016;18,80186
 786,46; 9903,782;  222,377;51544,293;18,86408
 787,03; 9876,429;  205,377;51364,371;18,90391
 787,59; 9880,218;  209,177;51383,648;18,89817
 788,16; 9913,150;  217,777;51273,726;18,98970
 788,73; 9959,082;  223,577;50943,603;19,19460
 789,29; 9826,729;  206,777;50617,081;19,08330
 789,86; 9960,375;  211,977;50367,758;19,43624
 790,42; 9836,736;  215,377;50497,636;19,13470
 790,99; 9847,668;  224,977;50039,713;19,31696
 791,55; 9809,457;  205,378;50188,990;19,21446
 792,12; 9954,818;  231,378;50020,068;19,52942
 792,68; 9881,750;  215,378;49785,745;19,50030
 793,25; 9863,253;  217,578;49649,623;19,51300
 793,81; 9941,328;  253,778;49135,900;19,81819
 794,38; 9829,975;  193,378;49037,778;19,72917
 794,94; 9847,193;  206,978;48908,855;19,79434
 795,51; 9858,410;  218,978;48653,933;19,90181
 796,07; 9763,628;  222,978;48389,010;19,80784
 796,64; 9913,275;  246,778;48626,887;19,98031
 797,20; 9782,350;  225,178;48034,365;19,99024
 797,77; 9757,425;  201,978;47678,042;20,12687
 798,33; 9796,357;  205,178;47540,320;20,26228
 798,90; 9832,432;  246,378;47325,597;20,36154
 799,46; 9677,650;  218,778;46887,675;20,26804
 800,03; 9763,582;  210,378;46838,352;20,48814
 800,59; 9719,800;  237,178;46681,230;20,41730
 801,15; 9770,017;  239,978;46431,307;20,63166
 801,72; 9704,521;  199,378;46248,184;20,64145
 802,28; 9710,739;  240,778;45773,462;20,79816
 802,85; 9669,814;  219,979;45820,939;20,72289
 803,41; 9685,174;  207,179;45618,217;20,87157
 803,98; 9591,678;  212,779;45104,294;20,89237
 804,54; 9614,182;  228,979;44858,572;21,02910
 805,11; 9655,971;  234,979;44625,249;21,22310
 805,67; 9659,189;  240,379;44560,527;21,25176
 806,23; 9609,406;  225,379;44110,804;21,38302
 806,80; 9646,053;  243,379;44193,281;21,39407
 807,36; 9650,699;  261,579;44025,959;21,45379
 807,93; 9636,774;  239,779;43749,036;21,59769
 808,49; 9600,278;  227,379;43464,914;21,67769
 809,05; 9551,924;  210,779;43106,391;21,77646
 809,62; 9562,999;  235,179;43062,269;21,78019
 810,18; 9630,646;  228,779;43010,346;21,97644
 810,74; 9614,006;  197,379;42687,824;22,16175
 811,31; 9566,224;  216,579;42482,301;22,12111
 811,87; 9591,585;  224,179;42432,978;22,19302
 812,44; 9621,803;  258,979;42405,656;22,21486
 813,00; 9559,163;  191,779;42067,533;22,36947
 813,56; 9553,095;  243,779;42111,011;22,23533
 814,13; 9624,885;  227,980;42001,088;22,49511
 814,69; 9570,388;  229,380;41872,566;22,43106
 815,25; 9511,035;  197,380;41443,443;22,58071
 815,82; 9581,395;  234,380;41434,921;22,68663
 816,38; 9559,470;  256,580;41108,398;22,77228
 816,94; 9475,545;  230,780;40893,875;22,73503
 817,51; 9477,192;  199,980;40628,753;22,94705
 818,07; 9436,267;  213,380;40369,030;22,96784
 818,63; 9421,199;  234,580;40002,908;23,10034
 819,20; 9427,845;  236,180;40120,585;23,04576
 819,76; 9413,349;  228,580;39577,863;23,34164
 820,32; 9458,995;  245,380;39498,140;23,47253
 820,89; 9424,213;  250,180;39362,218;23,45578
 821,45; 9379,002;  210,580;39112,895;23,56781
 822,01; 9369,506;  235,980;38901,573;23,62184
 822,57; 9426,866;  232,780;38683,250;23,91151
 823,14; 9310,656;  218,780;38618,327;23,67704
 823,70; 9376,445;  216,780;38358,405;24,01488
 824,26; 9348,234;  231,180;38082,482;24,08650
 824,82; 9365,738;  225,781;37968,360;24,21657
 825,39; 9324,098;  213,381;37732,437;24,28291
 825,95; 9386,173;  237,781;37849,115;24,32350
 826,51; 9216,106;  231,581;37278,792;24,25156
 827,08; 9366,895;  271,781;37273,070;24,58053
 827,64; 9314,827;  239,381;37244,347;24,52494
 828,20; 9245,759;  216,581;36980,024;24,56021
 828,76; 9349,263;  240,981;36879,502;24,85985
 829,32; 9310,766;  245,581;36649,979;24,90135
 829,89; 9236,984;  202,181;36605,657;24,81852
 830,45; 9345,488;  208,181;36540,734;25,14909
 831,01; 9295,848;  230,381;36315,412;25,12251
 831,57; 9265,495;  233,181;36207,689;25,10754
 832,14; 9250,570;  217,381;36185,367;25,11452
 832,70; 9265,645;  208,181;35880,844;25,39049
 833,26; 9222,005;  188,981;35790,321;25,37271
 833,82; 9299,080;  222,181;35743,999;25,55303
 834,38; 9293,441;  205,981;35722,676;25,58644
 834,95; 9316,230;  211,581;35525,354;25,78215
 835,51; 9286,448;  186,381;35588,031;25,70520
 836,07; 9382,094;  222,182;35633,309;25,86733
 836,63; 9346,312;  240,182;35589,986;25,76006
 837,19; 9376,102;  231,582;35327,064;26,05612
 837,75; 9302,462;  191,982;35086,541;26,10860
 838,32; 9445,394;  236,782;35301,018;26,26212
 838,88; 9451,898;  240,382;35185,096;26,36026
 839,44; 9453,259;  203,782;34997,573;26,58370
 840,00; 9484,905;  211,782;35115,651;26,56761
 840,56; 9448,837;  215,182;34777,128;26,71625
 841,12; 9462,198;  210,582;34765,406;26,77373
 841,68; 9425,844;  193,182;34493,283;26,91730
 842,25; 9508,348;  212,582;34672,761;26,97538
 842,81; 9481,708;  203,782;34322,238;27,19328
 843,37; 9434,641;  186,982;34411,115;27,02087
 843,93; 9523,287;  219,182;34236,393;27,35117
 844,49; 9551,933;  223,782;34377,670;27,31212
 845,05; 9452,723;  191,582;34056,748;27,34710
 845,61; 9566,655;  241,182;34182,225;27,47550
 846,17; 9539,873;  207,782;34017,703;27,60163
 846,73; 9595,233;  222,383;34085,180;27,67890
 847,29; 9557,737;  202,783;33852,658;27,80086
 847,86; 9620,383;  196,783;33641,935;28,17628
 848,42; 9593,744;  190,383;33540,812;28,19562
 848,98; 9642,105;  214,383;33519,890;28,30680
 849,54; 9624,608;  204,183;33526,567;28,27056
 850,10; 9649,683;  228,383;33345,045;28,44882
 850,66; 9587,615;  184,783;33153,522;28,52045
 851,22; 9640,405;  182,983;33056,000;28,76956
 851,78; 9784,908;  239,983;33111,277;29,03727
 852,34; 9679,412;  200,783;32939,555;28,95230
 852,90; 9683,772;  212,183;32850,032;29,02026
 853,46; 9713,562;  197,383;32641,709;29,33079
 854,02; 9697,351;  213,983;32643,387;29,24311
 854,58; 9609,426;  203,183;32336,464;29,27259
 855,14; 9595,215;  186,583;32268,742;29,32668
 855,70; 9570,290;  169,983;32086,819;29,45250
 856,26; 9629,936;  216,383;31989,697;29,62723
 856,82; 9648,726;  205,783;31857,374;29,83402
 857,38; 9628,086;  224,383;31752,252;29,82664
 857,94; 9655,733;  204,184;31631,129;30,07467
 858,50; 9570,951;  220,984;31515,207;29,87761
 859,06; 9545,311;  224,584;31482,284;29,81898
 859,62; 9523,672;  213,384;31318,161;29,93202
 860,18; 9441,461;  208,784;31074,239;29,91266
 860,74; 9529,536;  168,984;30912,316;30,44742
 861,30; 9544,040;  173,784;30831,794;30,56381
 861,86; 9600,829;  221,584;30929,071;30,54384
 862,42; 9538,333;  205,384;30590,949;30,71507
 862,98; 9646,836;  225,784;30679,826;30,93531
 863,54; 9559,483;  213,784;30401,504;30,95861
 864,10; 9574,986;  199,384;30453,381;30,98963
 864,66; 9533,061;  204,984;30147,458;31,15333
 865,22; 9529,279;  204,984;30039,336;31,25355
 865,78; 9528,068;  211,984;30028,813;31,24438
 866,34; 9518,857;  201,784;29892,091;31,38086
 866,90; 9484,932;  221,984;29758,968;31,36051
 867,45; 9470,436;  222,184;29624,646;31,45400
 868,01; 9473,511;  222,584;29528,523;31,56673
 868,57; 9428,872;  194,184;29270,201;31,76050
 869,13; 9369,089;  189,785;29094,678;31,75692
 869,69; 9317,736;  202,185;29107,755;31,53562
 870,25; 9368,668;  189,185;29104,833;31,74573
 870,81; 9391,743;  215,785;28973,910;31,90736
 871,37; 9331,389;  209,585;28797,588;31,90781
 871,93; 9292,464;  224,185;28614,065;31,94194
 872,49; 9306,825;  221,585;28385,943;32,25793
 873,04; 9266,900;  200,185;28223,620;32,35405
 873,60; 9227,689;  190,585;28096,698;32,38396
 874,16; 9224,193;  210,585;28100,175;32,31890
 874,72; 9215,907;  199,385;28028,775;32,39928
 875,28; 9281,050;  209,785;27963,375;32,68501
 875,84; 9250,336;  186,785;27807,375;32,81447
 876,40; 9301,479;  206,985;27740,175;33,03102
 876,95; 9253,907;  221,385;27739,775;32,82359
 877,51; 9377,193;  255,785;27750,375;33,17528
 878,07; 9403,907;  239,585;27763,975;33,29528
 878,63; 9388,336;  218,585;27739,975;33,31863
 879,19; 9430,479;  223,985;27668,175;33,54624
 879,75; 9400,907;  217,185;27709,175;33,40508
 880,30; 9427,479;  205,385;27794,575;33,42647
 880,86; 9547,907;  255,185;27824,575;33,70667
 881,42; 9587,193;  190,185;27869,775;33,94923
 881,98; 9567,050;  224,585;28080,175;33,53892
 882,54; 9692,621;  217,985;28017,575;34,08193
 883,09; 9828,050;  226,985;28170,175;34,35923
 883,65; 9779,050;  215,585;28300,375;34,05212
 884,21; 9941,193;  239,585;28441,775;34,40019
 884,77;10011,050;  217,985;28552,975;34,56174
 885,32;10058,621;  211,185;28662,975;34,61096
 885,88;10144,050;  240,985;28801,975;34,67340
 886,44;10286,193;  212,785;28912,775;35,09899
 887,00;10331,907;  229,785;28898,775;35,23711
 887,56;10346,621;  221,785;29149,775;35,00014
 888,11;10440,050;  217,985;29168,175;35,30915
 888,67;10518,621;  240,185;29323,575;35,34126
 889,23;10501,050;  227,385;29229,775;35,42351
 889,79;10517,907;  208,785;29260,375;35,48557
 890,34;10554,907;  208,785;29149,575;35,74927
 890,90;10724,907;  250,985;29173,175;36,21414
 891,46;10602,336;  217,585;29233,975;35,78926
 892,01;10679,193;  240,585;29083,775;36,19089
 892,57;10653,907;  245,785;29088,775;36,08545
 893,13;10650,193;  226,185;28995,775;36,23273
 893,69;10664,193;  207,585;28903,575;36,43927
 894,24;10664,050;  218,185;28830,175;36,50870
 894,80;10681,764;  225,785;28553,575;36,91068
 895,36;10548,193;  207,385;28458,575;36,60309
 895,91;10515,336;  213,985;28280,375;36,70351
 896,47;10626,193;  230,185;28094,775;37,30903
 897,03;10492,050;  210,385;27903,775;37,12678
 897,58;10485,764;  217,785;27717,175;37,33893
 898,14;10492,479;  233,985;27673,575;37,38574
 898,70;10450,193;  197,385;27601,175;37,41383
 899,25;10499,479;  209,185;27406,375;37,83587
 899,81;10477,336;  238,185;27203,575;37,97145
 900,37;10324,336;  190,985;27044,375;37,73583
 900,92;10449,193;  220,185;26966,575;38,24444
 901,48;10337,193;  204,185;26834,575;38,05054
 902,03;10319,193;  199,385;26749,975;38,11519
 902,59;10272,193;  219,585;26734,975;37,91235
 903,15;10288,336;  242,585;26494,775;38,26633
 903,70;10175,193;  228,985;26272,975;38,19003
 904,26;10209,050;  195,185;26118,375;38,62898
 904,82;10214,621;  217,385;26110,975;38,60892
 905,37;10206,336;  215,585;26019,975;38,71725
 905,93;10184,621;  211,185;25899,975;38,82408
 906,48;10244,336;  230,185;25755,975;39,23150
 907,04;10225,479;  248,585;25767,175;39,09657
 907,60;10191,621;  205,985;25499,175;39,47955
 908,15;10159,479;  208,785;25448,375;39,42494
 908,71;10213,479;  251,385;25480,975;39,48575
 909,26;10148,621;  211,185;25169,375;39,81633
 909,82;10121,479;  237,185;25158,575;39,66189
 910,37;10179,050;  250,785;24900,975;40,27663
 910,93;10075,764;  206,785;24712,775;40,27170
 911,48;10068,479;  209,585;24621,375;40,38579
 912,04;10067,336;  203,585;24537,375;40,53520
 912,60;10076,050;  240,185;24691,775;40,22587
 913,15; 9963,907;  233,585;24388,775;40,28253
 913,71; 9954,336;  208,985;24185,975;40,64460
 914,26; 9897,336;  207,785;24091,775;40,56923
 914,82; 9970,907;  223,985;24053,375;40,90294
 915,37; 9969,907;  209,785;23898,375;41,20179
 915,93; 9934,764;  278,185;23892,775;40,89243
 916,48; 9876,764;  215,785;23672,775;41,18593
 917,04; 9877,621;  232,185;23553,975;41,35805
 917,59; 9861,907;  251,985;23506,375;41,32520
 918,15; 9794,621;  172,985;23242,175;41,70773
 918,70; 9816,479;  194,585;23323,175;41,60173
 919,26; 9839,050;  225,985;23132,575;41,96637
 919,81; 9734,621;  191,385;23044,175;41,75961
 920,37; 9774,764;  209,585;22783,375;42,37294
 920,92; 9799,907;  215,385;22795,975;42,44584
 921,48; 9665,193;  200,185;22586,375;42,28057
 922,03; 9657,621;  214,985;22528,375;42,31825
 922,59; 9626,050;  224,785;22401,375;42,39274
 923,14; 9609,907;  210,185;22325,175;42,50385
 923,69; 9605,193;  224,585;22390,575;42,31982
 924,25; 9553,050;  234,585;22114,975;42,58820
 924,80; 9472,193;  219,585;21933,575;42,61127
 925,36; 9455,907;  216,585;21980,375;42,45273
 925,91; 9491,479;  213,985;21765,175;43,04864
 926,47; 9450,907;  192,985;21704,975;43,03610
 927,02; 9475,193;  246,185;21669,975;43,07832
 927,57; 9318,050;  217,385;21431,775;42,89855
 928,13; 9415,050;  215,385;21399,175;43,42785
 928,68; 9342,336;  214,385;21298,775;43,29246
 929,24; 9283,907;  194,985;21056,975;43,56690
 929,79; 9273,050;  195,185;20994,175;43,64570
 930,34; 9238,621;  220,985;20909,175;43,58833
 930,90; 9226,479;  200,585;20822,575;43,76830
 931,45; 9243,621;  208,985;20760,775;43,96034
 932,01; 9176,479;  226,985;20826,175;43,44585
 932,56; 9180,193;  236,785;20657,975;43,79474
 933,11; 9219,050;  224,785;20495,575;44,37057
 933,67; 9135,621;  218,985;20367,175;44,25527
 934,22; 9144,479;  224,385;20302,375;44,42722
 934,77; 9177,193;  223,585;20152,375;44,92801
 935,33; 9140,336;  228,985;20031,775;45,00048
 935,88; 9091,764;  228,585;20037,175;44,74412
 936,43; 9102,621;  224,785;19867,775;45,19595
 936,99; 9084,764;  203,985;19779,775;45,36613
 937,54; 9030,050;  199,385;19705,575;45,27109
 938,09; 9048,907;  214,385;19494,375;45,82223
 938,65; 8996,621;  212,785;19343,175;45,91562
 939,20; 8939,764;  194,585;19422,175;45,48245
 939,75; 8935,907;  197,185;19246,375;45,87451
 940,31; 8930,621;  193,785;19051,175;46,33110
 940,86; 8919,336;  203,585;19200,975;45,87867
 941,41; 8940,050;  264,985;19011,775;46,27494
 941,96; 8879,621;  207,185;18855,975;46,50402
 942,52; 8817,907;  216,385;18838,175;46,19063
 943,07; 8716,764;  193,785;18730,975;45,97773
 943,62; 8781,621;  201,585;18591,975;46,65500
 944,18; 8805,764;  190,585;18531,975;46,97125
 944,73; 8743,336;  216,785;18403,975;46,88218
 945,28; 8695,621;  181,185;18284,575;47,03228
 945,83; 8715,907;  223,385;18173,575;47,31160
 946,39; 8768,193;  203,785;18154,575;47,71048
 946,94; 8712,336;  234,985;18027,775;47,64486
 947,49; 8691,479;  214,585;17934,375;47,83857
 948,04; 8723,193;  227,185;17990,975;47,82768
 948,59; 8661,336;  229,785;17823,975;47,92236
 949,15; 8593,764;  196,785;17696,575;47,98331
 949,70; 8566,764;  213,385;17583,375;48,09087
 950,25; 8592,479;  231,785;17544,775;48,29145
 950,80; 8557,764;  187,385;17522,775;48,28492
 951,36; 8479,336;  180,985;17437,175;48,08912
 951,91; 8509,479;  211,785;17414,175;48,23570
 952,46; 8494,764;  181,585;17155,375;48,97656
 953,01; 8471,479;  215,185;17166,975;48,70455
 953,56; 8373,764;  186,385;17089,975;48,43574
 954,11; 8451,193;  231,985;17015,775;48,97111
 954,67; 8348,764;  204,985;16958,175;48,61032
 955,22; 8357,479;  188,985;16687,775;49,50965
 955,77; 8399,621;  234,585;16719,375;49,53073
 956,32; 8376,336;  251,185;16646,375;49,55814
 956,87; 8247,050;  206,385;16472,775;49,43116
 957,42; 8271,621;  206,985;16494,775;49,51339
 957,98; 8240,907;  201,785;16257,375;50,07055
 958,53; 8247,907;  224,385;16301,175;49,90749
 959,08; 8112,050;  190,785;16218,575;49,42207
 959,63; 8132,336;  190,585;16122,175;49,84908
 960,18; 8170,621;  217,185;16053,375;50,22317
 960,73; 8097,479;  208,985;15932,375;50,17044
 961,28; 8020,193;  200,785;15844,375;49,98474
 961,83; 8048,621;  216,385;15855,775;50,08019
 962,39; 7990,764;  200,185;15688,175;50,30078
 962,94; 8003,621;  215,585;15571,575;50,71660
 963,49; 7940,764;  209,785;15532,375;50,45478
 964,04; 7937,479;  214,985;15423,175;50,77852
 964,59; 7890,336;  203,585;15309,575;50,88545
 965,14; 7902,907;  214,785;15274,375;51,05134
 965,69; 7847,050;  195,585;15175,975;51,07654
 966,24; 7748,050;  189,785;15058,575;50,83309
 966,79; 7812,621;  215,585;14974,175;51,47535
 967,34; 7733,621;  191,185;14867,575;51,39163
 967,89; 7742,050;  211,985;14773,375;51,71254
 968,44; 7693,479;  219,585;14791,175;51,29086
 968,99; 7748,336;  226,785;14619,175;52,26061
 969,55; 7743,050;  220,985;14511,975;52,63502
 970,10; 7681,621;  214,385;14446,775;52,46650
 970,65; 7667,907;  227,385;14262,975;53,01182
 971,20; 7600,907;  199,185;14271,175;52,59897
 971,75; 7562,193;  188,185;14090,175;53,04282
 972,30; 7500,907;  217,785;14004,775;52,82605
 972,85; 7499,907;  203,585;14013,975;52,83212
 973,40; 7452,050;  203,185;13823,575;53,22069
 973,95; 7471,336;  220,985;13810,175;53,35381
 974,50; 7448,336;  241,385;13734,375;53,41256
 975,05; 7379,621;  215,785;13633,775;53,38979
 975,60; 7344,050;  241,185;13571,975;53,28165
 976,15; 7329,764;  211,385;13443,575;53,79593
 976,70; 7308,336;  222,185;13370,975;53,89204
 977,25; 7330,336;  211,985;13416,975;53,90652
 977,80; 7182,907;  195,985;13126,975;54,03238
 978,35; 7220,193;  211,985;13055,175;54,56750
 978,89; 7190,193;  199,385;12930,375;54,91174
 979,44; 7157,336;  217,785;12903,375;54,70420
 979,99; 7091,050;  201,985;12765,375;54,83444
 980,54; 7067,907;  228,185;12675,975;54,94728
 981,09; 7025,764;  222,585;12618,175;54,88387
 981,64; 6894,336;  221,585;12389,575;54,83856
 982,19; 6974,336;  242,985;12345,775;55,61817
 982,74; 6900,621;  231,185;12263,975;55,42718
 983,29; 6813,764;  192,785;12115,775;55,53120
 983,84; 6761,050;  227,985;12057,575;55,22647
 984,39; 6821,193;  249,385;11963,175;56,10317
 984,94; 6642,907;  200,585;11862,975;55,24015
 985,49; 6695,193;  232,385;11793,175;55,90282
 986,03; 6714,050;  233,785;11663,975;56,69429
 986,58; 6624,336;  268,785;11628,175;55,94975
 987,13; 6505,764;  207,985;11411,575;56,21215
 987,68; 6518,621;  235,985;11312,375;56,72098
 988,23; 6533,621;  226,985;11250,175;57,21244
 988,78; 6398,907;  223,785;11109,775;56,72541
 989,33; 6413,336;  220,985;10968,775;57,61511
 989,88; 6418,193;  251,985;10965,975;57,55286
 990,42; 6309,764;  223,185;10787,175;57,61629
 990,97; 6204,336;  223,185;10681,175;57,19216
 991,52; 6159,193;  235,185;10688,575;56,67069
 992,07; 6115,621;  244,585;10498,775;57,25500
 992,62; 6124,764;  228,185;10449,775;57,68750
 993,17; 6042,050;  230,185;10255,775;57,97030
 993,71; 6044,336;  236,585;10236,375;58,07873
 994,26; 5829,764;  218,185;10051,175;57,06890
 994,81; 5829,336;  239,985;10001,575;57,25861
 995,36; 5794,193;  208,985; 9878,775;57,75935
 995,91; 5766,050;  227,185; 9840,775;57,61495
 996,45; 5708,764;  223,185; 9708,175;57,83432
 997,00; 5673,050;  208,785; 9556,175;58,45766
 997,55; 5611,193;  226,185; 9570,575;57,62824
 998,10; 5589,336;  235,785; 9334,575;58,83805
 998,65; 5549,621;  207,185; 9332,975;58,54218
 999,19; 5502,479;  234,585; 9289,775;58,17541
 999,74; 5428,764;  237,185; 9119,375;58,44932
1000,29; 5394,621;  247,185; 9050,575;58,47107
1000,84; 5315,336;  226,385; 8927,975;58,48300
1001,38; 5269,764;  225,985; 8722,975;59,35960
1001,93; 5256,764;  227,185; 8819,575;58,53528
1002,48; 5174,479;  213,185; 8628,775;58,95360
1003,03; 5196,050;  222,785; 8504,975;60,04770
1003,57; 5106,050;  232,985; 8453,975;59,27589
1004,12; 5077,193;  233,185; 8326,175;59,85437
1004,67; 5058,336;  223,985; 8297,175;59,88154
1005,22; 4961,907;  214,785; 8139,375;59,90369
1005,76; 4859,193;  212,585; 7986,175;59,77429
1006,31; 4850,907;  234,985; 7930,775;59,97983
1006,86; 4765,764;  221,985; 7767,575;60,21768
1007,40; 4720,907;  198,185; 7624,975;60,89740
1007,95; 4710,479;  230,385; 7621,375;60,61561
1008,50; 4640,764;  234,185; 7447,975;61,08549
1009,04; 4623,050;  218,385; 7419,175;61,16919
1009,59; 4531,336;  221,585; 7293,975;60,93768
1010,14; 4477,621;  215,585; 7124,575;61,68827
1010,68; 4429,336;  223,785; 7028,975;61,79917
1011,23; 4330,050;  189,385; 6898,975;61,71264
1011,78; 4312,193;  238,385; 6909,775;61,06385
1012,32; 4246,621;  221,385; 6682,575;62,29869
1012,87; 4278,193;  239,585; 6755,175;61,98376
1013,42; 4168,336;  212,185; 6570,975;62,21546
1013,96; 4222,050;  242,985; 6621,575;62,38158
1014,51; 4171,050;  182,185; 6500,175;63,13503
1015,06; 4173,050;  191,385; 6547,775;62,64035
1015,60; 4207,193;  264,385; 6593,375;62,29758
1016,15; 4180,050;  213,785; 6555,575;62,54173
1016,69; 4174,193;  226,585; 6498,375;62,94228
1017,24; 4187,479;  203,185; 6530,775;62,96700
1017,79; 4299,621;  249,985; 6580,175;63,97338
1018,33; 4235,907;  211,185; 6584,175;63,15281
1018,88; 4322,621;  248,185; 6615,975;63,98509
1019,42; 4305,050;  230,585; 6633,375;63,63577
1019,97; 4276,050;  199,585; 6670,375;62,99795
1020,51; 4337,193;  232,385; 6724,975;63,22296
1021,06; 4320,621;  201,185; 6703,975;63,34875
1021,61; 4319,907;  183,385; 6564,775;64,82165
1022,15; 4273,907;  170,385; 6554,375;64,27833
1022,70; 4322,479;  221,985; 6591,975;64,37206
1023,24; 4295,193;  185,985; 6595,975;64,10631
1023,79; 4251,907;  206,185; 6495,775;64,32410
1024,33; 4236,621;  206,185; 6476,975;64,27318
1024,88; 4216,336;  211,185; 6419,975;64,50775
1025,42; 4138,336;  214,785; 6222,175;65,31207
1025,97; 4137,907;  211,785; 6173,175;65,85917
1026,51; 3968,764;  175,985; 6033,175;64,75425
1027,06; 4007,479;  206,185; 6053,375;65,01060
1027,60; 3942,193;  205,585; 5935,175;65,21597
1028,15; 3924,907;  230,585; 5842,775;65,82675
1028,69; 3819,907;  196,985; 5694,375;65,90259
1029,24; 3767,336;  211,385; 5638,775;65,51861
1029,78; 3739,193;  208,385; 5525,175;66,40864
1030,33; 3651,050;  185,985; 5398,775;66,47237
1030,87; 3606,479;  212,385; 5365,775;65,86138
1031,42; 3533,050;  194,385; 5274,975;65,71412
1031,96; 3513,764;  216,985; 5209,175;66,03874
1032,51; 3497,621;  198,785; 5159,575;66,49821
1033,05; 3441,479;  216,785; 5094,375;66,11244
1033,60; 3333,479;  166,785; 4986,175;65,70735
1034,14; 3347,764;  200,185; 4900,775;66,96137
1034,69; 3324,907;  210,185; 4821,375;67,54704
1035,23; 3248,050;  205,985; 4730,975;67,22810
1035,77; 3207,621;  193,585; 4674,375;67,26574
1036,32; 3196,050;  169,185; 4629,175;67,86708
1036,86; 3137,621;  202,185; 4530,575;67,81821
1037,41; 3098,336;  219,585; 4518,575;66,96342
1037,95; 3012,050;  182,985; 4436,375;66,51318
1038,50; 3007,479;  194,985; 4351,775;67,66023
1039,04; 2999,621;  216,385; 4251,375;68,97753
1039,58; 2947,336;  195,985; 4206,575;68,60214
1040,13; 2880,336;  193,185; 4211,375;66,87466
1040,67; 2878,621;  232,985; 4143,575;67,65313
1041,21; 2858,764;  234,385; 4054,975;68,69042
1041,76; 2793,336;  189,585; 3998,975;68,35086
1042,30; 2743,336;  207,185; 3960,575;67,56960
1042,85; 2701,050;  205,185; 3900,775;67,53631
1043,39; 2671,764;  196,585; 3840,775;67,92125
1043,93; 2672,907;  213,185; 3768,575;69,18291
1044,48; 2600,479;  221,785; 3745,575;67,50384
1045,02; 2596,050;  194,985; 3677,575;68,94481
1045,56; 2609,907;  226,785; 3593,175;70,79162
1046,11; 2565,479;  209,985; 3566,175;70,18356
1046,65; 2533,050;  219,985; 3509,575;70,31469
1047,19; 2460,479;  187,785; 3480,975;69,01192
1047,74; 2412,050;  191,985; 3379,375;69,65150
1048,28; 2421,907;  214,785; 3427,975;68,68944
1048,82; 2454,050;  220,785; 3358,975;71,16411
1049,37; 2384,050;  215,385; 3284,775;70,65459
1049,91; 2318,193;  197,185; 3303,375;68,28326
1050,45; 2299,764;  224,985; 3245,375;68,69243
1050,99; 2286,621;  202,985; 3149,375;70,71828
1051,54; 2231,479;  207,185; 3100,375;69,96753
1052,08; 2235,621;  228,785; 3086,975;70,21354
1052,62; 2229,479;  223,985; 3023,975;71,62503
1053,16; 2165,621;  206,585; 2934,575;71,81245
1053,71; 2143,193;  218,585; 2966,975;70,02674
1054,25; 2110,907;  217,185; 2879,175;71,13934
1054,79; 2087,336;  222,585; 2843,975;71,13595
1055,33; 2010,336;  199,185; 2783,975;70,06955
1055,88; 2072,621;  232,185; 2776,975;72,32174
1056,42; 2012,193;  227,185; 2762,175;70,41479
1056,96; 1982,479;  234,585; 2692,975;71,09912
1057,50; 1937,764;  224,185; 2648,775;70,67501
1058,05; 1922,336;  222,785; 2621,975;70,83852
1058,59; 1905,193;  233,985; 2547,775;72,22816
1059,13; 1862,193;  201,585; 2473,175;73,10333
1059,67; 1843,621;  228,185; 2524,575;70,34678
1060,21; 1831,907;  215,385; 2451,775;72,28266
1060,76; 1788,050;  235,185; 2440,975;70,39949
1061,30; 1790,479;  244,385; 2377,175;72,49160
1061,84; 1771,621;  210,185; 2358,375;72,68614
1062,38; 1713,907;  199,585; 2303,775;71,96699
1062,92; 1749,050;  260,985; 2322,375;72,18746
1063,46; 1703,764;  242,585; 2245,575;72,94990
1064,01; 1695,193;  204,785; 2226,575;73,71724
1064,55; 1657,336;  229,585; 2221,575;71,67459
1065,09; 1571,764;  198,385; 2126,375;71,23373
1065,63; 1621,764;  230,785; 2131,775;73,17131
1066,17; 1641,907;  245,785; 2102,975;75,17390
1066,71; 1592,479;  231,785; 2098,775;72,88167
1067,25; 1554,193;  237,185; 2061,175;72,20477
1067,80; 1531,907;  238,385; 2045,975;71,56059
1068,34; 1544,193;  250,385; 2047,175;72,00663
1068,88; 1517,193;  217,585; 1981,175;73,69104
1069,42; 1525,907;  258,185; 1998,375;72,84964
1069,96; 1461,764;  225,385; 1939,175;72,14299
1070,50; 1509,479;  251,585; 1942,975;74,37040
1071,04; 1430,336;  203,185; 1908,175;71,97407
1071,58; 1439,193;  218,385; 1881,175;73,41924
1072,12; 1421,764;  218,785; 1812,975;75,46022
1072,66; 1384,050;  232,985; 1827,175;72,20375
1073,21; 1400,193;  235,985; 1839,175;72,61821
1073,75; 1396,479;  235,385; 1805,975;73,92722
1074,29; 1349,479;  240,585; 1778,575;72,10018
1074,83; 1353,336;  249,585; 1748,175;73,65261
1075,37; 1341,764;  243,785; 1726,975;74,02823
1075,91; 1337,479;  232,185; 1720,975;74,24107
1076,45; 1293,621;  228,385; 1687,775;72,99190
1076,99; 1313,050;  254,785; 1650,975;75,79663
1077,53; 1286,479;  222,185; 1646,575;74,71925
1078,07; 1274,193;  241,185; 1615,975;75,13932
1078,61; 1244,336;  218,785; 1609,375;73,74932
1079,15; 1236,050;  222,985; 1585,575;74,34848
1079,69; 1237,621;  223,985; 1549,175;76,48989
1080,23; 1226,479;  244,385; 1572,175;73,96453
1080,77; 1246,336;  246,985; 1569,375;75,57156
1081,31; 1189,621;  203,985; 1501,375;75,97071
1081,85; 1179,479;  245,185; 1514,175;73,62498
1082,39; 1154,193;  215,385; 1467,975;74,94933
1082,93; 1150,907;  210,785; 1449,975;75,86586
1083,47; 1110,764;  214,785; 1425,775;73,98734
1084,01; 1139,050;  250,185; 1426,975;75,53302
1084,55; 1088,479;  212,385; 1393,175;74,19554
1085,09; 1118,336;  242,585; 1387,375;76,49881
1085,63; 1096,336;  223,185; 1392,375;74,67997
1086,17; 1077,621;  220,585; 1358,775;75,29819
1086,71; 1066,764;  236,585; 1333,575;75,67793
1087,24; 1087,193;  248,585; 1347,175;76,33493
1087,78; 1049,621;  222,985; 1311,775;75,92249
1088,32; 1014,764;  213,785; 1278,575;75,22416
1088,86; 1042,621;  242,385; 1315,375;74,58005
1089,40;  997,479;  219,785; 1272,175;73,89785
1089,94;  984,193;  196,585; 1241,175;75,39876
1090,48;  982,050;  226,985; 1241,775;74,40603
1091,02;  974,907;  233,785; 1239,175;73,71489
1091,56;  962,479;  234,985; 1212,175;74,44750
1092,10;  924,050;  217,785; 1190,975;72,57216
1092,63;  983,336;  248,985; 1209,575;76,44788
1093,17;  931,621;  230,985; 1195,975;72,60556
1093,71;  925,764;  227,385; 1151,775;75,55029
1094,25;  932,907;  249,785; 1176,375;73,72432
1094,79;  926,050;  247,785; 1129,175;76,95402
1095,33;  904,050;  232,585; 1100,975;77,32298
1095,87;  882,193;  230,985; 1142,375;71,45216
1096,40;  846,050;  206,985; 1087,375;72,58885
1096,94;  863,479;  238,785; 1072,575;74,92217
1097,48;  869,479;  235,185; 1090,775;74,13522
1098,02;  842,479;  210,785; 1066,575;73,81409
1098,56;  809,479;  196,985;  999,175;76,35268
1099,10;  811,907;  211,585;  999,375;76,20332
1099,63;  791,621;  209,785; 1018,775;71,92134
1100,17;  825,621;  244,185; 1028,775;74,10704
1100,71;  832,764;  239,985; 1012,375;76,74611

