
Integration time [ms]: 130,000
Averaging Nr. [scans]: 7
Smoothing Nr. [pixels]: 0
Data measured with spectrometer [name]: 2009305U1
Wave   ;Sample   ;Dark     ;Reference;Reflectance
[nm]   ;[counts] ;[counts] ;[counts] ;[%]

 175,72;  220,954;  192,986;  201,498;328,59415
 176,32;  237,613;  222,384;  221,717; 0,00000
 176,92;  262,222;  241,385;  235,854; 0,00000
 177,52;  267,964;  259,786;  258,523; 0,00000
 178,12;  249,614;  246,984;  204,441; 0,00000
 178,72;  263,440;  250,783;  241,274; 0,00000
 179,32;  268,457;  247,384;  249,069;1250,48181
 179,92;  264,477;  231,385;  239,762;395,01726
 180,52;  250,067;  244,988;  241,098; 0,00000
 181,12;  271,880;  248,385;  229,716; 0,00000
 181,73;  289,206;  272,585;  262,308; 0,00000
 182,33;  381,761;  306,387;  321,281;506,07201
 182,93;  280,912;  256,186;  256,932; 0,00000
 183,53;  247,165;  246,183;  223,624; 0,00000
 184,13;  253,116;  236,383;  230,131; 0,00000
 184,73;  275,410;  249,982;  256,507;389,72700
 185,33;  274,041;  234,768;  346,100;35,27587
 185,93;  284,926;  232,166;  351,877;44,07248
 186,53;  306,360;  241,967;  348,122;60,65963
 187,13;  316,970;  257,569;  394,908;43,25163
 187,73;  300,304;  220,566;  335,660;69,28066
 188,33;  296,531;  254,365;  362,824;38,87744
 188,93;  309,731;  244,562;  398,475;42,34123
 189,53;  311,923;  258,559;  392,476;39,84805
 190,13;  351,961;  283,155;  430,284;46,76596
 190,73;  280,161;  220,558;  363,114;41,81018
 191,34;  305,348;  253,561;  378,621;41,40989
 191,94;  291,069;  240,364;  345,758;48,11019
 192,54;  304,253;  245,370;  399,729;38,14643
 193,14;  311,268;  248,969;  381,307;47,07576
 193,74;  312,045;  249,968;  364,047;54,41548
 194,34;  301,206;  227,969;  353,891;58,16033
 194,94;  265,216;  218,569;  355,716;34,01237
 195,54;  253,457;  215,168;  334,977;31,95878
 196,14;  268,689;  221,569;  355,380;35,21366
 196,74;  272,662;  216,167;  336,993;46,75751
 197,34;  243,463;  188,971;  344,465;35,04457
 197,94;  276,049;  220,769;  365,195;38,27563
 198,54;  291,962;  238,769;  365,333;42,02832
 199,14;  280,299;  213,971;  370,842;42,28154
 199,74;  255,351;  202,971;  374,033;30,62027
 200,34;  251,716;  199,372;  356,968;33,21426
 200,94;  293,305;  232,170;  410,644;34,25432
 201,54;  284,816;  216,571;  406,478;35,93609
 202,14;  305,343;  231,172;  444,781;34,72260
 202,74;  280,350;  223,371;  453,508;24,75870
 203,34;  251,127;  184,573;  446,416;25,41765
 203,94;  248,032;  173,772;  465,735;25,43473
 204,54;  326,842;  229,569;  530,605;32,31269
 205,14;  269,143;  190,571;  533,994;22,87890
 205,74;  340,166;  239,373;  624,034;26,20301
 206,34;  289,420;  210,772;  632,343;18,65602
 206,94;  322,289;  212,972;  703,417;22,28933
 207,54;  310,848;  188,772;  726,418;22,70570
 208,14;  320,201;  196,172;  794,506;20,72896
 208,74;  327,428;  217,771;  891,670;16,27197
 209,34;  341,053;  210,171;  960,509;17,44296
 209,94;  354,792;  204,571; 1037,280;18,04004
 210,54;  374,917;  213,973; 1112,879;17,90443
 211,14;  392,259;  204,571; 1236,499;18,18812
 211,73;  404,023;  197,971; 1326,867;18,25252
 212,33;  427,825;  206,770; 1438,453;17,94733
 212,93;  419,609;  203,171; 1522,488;16,40531
 213,53;  407,337;  174,371; 1562,260;16,78562
 214,13;  454,080;  205,174; 1652,697;17,19530
 214,73;  414,628;  195,372; 1657,381;14,99692
 215,33;  418,935;  168,771; 1707,080;16,26227
 215,93;  458,464;  206,573; 1816,158;15,64945
 216,53;  430,492;  162,571; 1892,659;15,48596
 217,13;  500,242;  227,173; 2126,822;14,37470
 217,73;  500,997;  196,373; 2281,539;14,60910
 218,33;  475,562;  148,574; 2495,337;13,93356
 218,93;  533,522;  192,576; 2756,037;13,30023
 219,53;  574,899;  185,774; 3043,728;13,61553
 220,13;  567,071;  168,574; 3315,721;12,66216
 220,73;  608,754;  196,771; 3663,262;11,88471
 221,32;  646,999;  176,771; 4002,670;12,29066
 221,92;  685,330;  167,774; 4489,701;11,97512
 222,52;  733,712;  177,173; 4825,264;11,97349
 223,12;  776,725;  176,973; 5207,436;11,92241
 223,72;  828,492;  185,573; 5646,427;11,77323
 224,32;  866,817;  194,973; 5979,694;11,61412
 224,92;  906,791;  176,373; 6339,999;11,85046
 225,52;  957,484;  191,372; 6688,408;11,79171
 226,12;  989,891;  188,373; 6945,384;11,86202
 226,72; 1005,695;  156,572; 7238,269;11,99038
 227,31; 1043,526;  154,172; 7537,973;12,04466
 227,91; 1101,210;  179,172; 7960,806;11,84890
 228,51; 1179,138;  181,371; 8348,198;12,21732
 229,11; 1234,694;  177,972; 8762,344;12,30984
 229,71; 1303,388;  176,971; 9024,802;12,73100
 230,31; 1363,534;  169,774; 9523,192;12,76283
 230,91; 1444,147;  158,770; 9767,098;13,37774
 231,51; 1505,828;  158,573;10040,244;13,63388
 232,10; 1613,159;  173,574;10533,432;13,89580
 232,70; 1714,492;  168,769;10665,091;14,72633
 233,30; 1845,736;  186,173;11029,985;15,30424
 233,90; 1932,424;  172,773;11194,690;15,96502
 234,50; 2044,529;  170,773;11401,596;16,68405
 235,10; 2170,648;  166,173;11490,599;17,70046
 235,70; 2273,716;  186,972;11624,368;18,24493
 236,29; 2410,453;  179,571;11659,240;19,43333
 236,89; 2486,628;  160,370;11714,814;20,13302
 237,49; 2603,592;  180,372;11688,736;21,05616
 238,09; 2722,420;  182,372;11480,943;22,48115
 238,69; 2809,313;  195,970;11405,171;23,31427
 239,29; 2884,731;  172,372;11141,789;24,72656
 239,89; 2924,940;  182,770;10898,509;25,59012
 240,48; 3011,251;  159,372;10599,047;27,31770
 241,08; 3078,977;  180,972;10337,522;28,53336
 241,68; 3145,395;  189,772;10061,372;29,94067
 242,28; 3166,878;  164,373; 9819,061;31,09894
 242,88; 3197,846;  198,374; 9482,888;32,30619
 243,48; 3241,540;  203,372; 9250,746;33,58066
 244,07; 3250,184;  177,372; 9107,911;34,40791
 244,67; 3268,448;  195,772; 9009,487;34,86243
 245,27; 3322,023;  195,971; 8880,267;35,99661
 245,87; 3356,014;  209,373; 8777,534;36,72480
 246,47; 3435,192;  188,171; 8790,362;37,74644
 247,06; 3474,718;  173,372; 8816,141;38,19778
 247,66; 3534,889;  172,972; 8941,810;38,33936
 248,26; 3620,297;  208,171; 9026,468;38,69370
 248,86; 3706,010;  197,971; 9181,944;39,04775
 249,46; 3753,776;  165,373; 9444,253;38,67280
 250,05; 3887,861;  195,972; 9783,266;38,50815
 250,65; 3963,619;  149,571;10138,313;38,18347
 251,25; 4092,314;  171,372;10609,388;37,56406
 251,85; 4278,901;  159,770;11118,766;37,58675
 252,44; 4420,116;  132,971;11710,174;37,03092
 253,04; 4635,897;  197,371;12463,062;36,18651
 253,64; 4713,202;  163,171;13112,912;35,13608
 254,24; 4955,666;  193,572;13970,475;34,56578
 254,84; 5169,633;  183,973;14890,853;33,90019
 255,43; 5310,805;  191,571;15757,603;32,88721
 256,03; 5494,502;  183,971;16591,684;32,36606
 256,63; 5633,317;  198,570;17660,118;31,12408
 257,23; 5673,862;  169,170;18345,547;30,28487
 257,82; 5882,169;  190,769;19251,922;29,85863
 258,42; 5861,218;  152,769;19951,490;28,83241
 259,02; 5981,832;  194,171;20729,623;28,18375
 259,62; 5891,112;  163,369;21428,059;26,93547
 260,21; 5849,558;  194,771;21896,222;26,05718
 260,81; 5756,643;  172,972;22326,403;25,20454
 261,41; 5633,648;  167,369;22570,864;24,39922
 262,01; 5528,149;  206,768;23108,504;23,23571
 262,60; 5238,577;  168,170;23373,147;21,85051
 263,20; 5151,958;  156,371;23500,628;21,39964
 263,80; 4965,369;  205,368;23599,066;20,34736
 264,40; 4746,124;  160,968;23819,858;19,38026
 264,99; 4625,927;  182,368;23843,294;18,78016
 265,59; 4438,270;  167,567;24059,513;17,87507
 266,19; 4232,278;  146,568;24172,257;17,00559
 266,78; 4124,131;  210,768;24316,185;16,23437
 267,38; 3919,090;  183,967;24330,944;15,46828
 267,98; 3767,093;  157,568;24150,966;15,04383
 268,58; 3630,492;  184,567;24217,448;14,33838
 269,17; 3453,811;  164,966;24285,346;13,63513
 269,77; 3311,730;  198,370;24085,497;13,03363
 270,37; 3140,719;  147,368;23944,855;12,57843
 270,96; 3078,584;  207,769;23900,074;12,11708
 271,56; 2874,148;  182,770;23601,023;11,49265
 272,16; 2823,076;  177,569;23375,339;11,40414
 272,75; 2707,622;  187,969;23411,568;10,84954
 273,35; 2637,468;  190,969;23294,694;10,58920
 273,95; 2551,531;  185,769;23354,159;10,21116
 274,54; 2518,368;  158,572;23331,028;10,18362
 275,14; 2519,988;  192,569;23707,828; 9,89748
 275,74; 2448,258;  153,369;23879,482; 9,67242
 276,33; 2489,834;  203,970;24142,154; 9,54903
 276,93; 2520,045;  188,772;24583,858; 9,55632
 277,53; 2543,648;  192,571;25175,231; 9,41084
 278,12; 2559,370;  166,570;25657,758; 9,38677
 278,72; 2686,193;  205,171;26178,411; 9,55222
 279,32; 2720,452;  164,571;26753,991; 9,61240
 279,91; 2787,775;  171,371;27521,361; 9,56638
 280,51; 2876,597;  184,971;28009,765; 9,67348
 281,11; 2995,320;  196,371;28752,665; 9,80152
 281,70; 3074,683;  168,771;29039,102;10,06539
 282,30; 3214,290;  164,370;29898,623;10,25726
 282,90; 3301,251;  162,570;30314,080;10,40970
 283,49; 3468,092;  190,569;30828,085;10,69774
 284,09; 3653,410;  203,370;31190,426;11,13381
 284,69; 3737,075;  185,371;31498,658;11,34248
 285,28; 3929,500;  210,370;31942,235;11,72049
 285,88; 4071,608;  227,969;32156,996;12,03807
 286,47; 4201,771;  177,970;32188,289;12,57032
 287,07; 4384,257;  194,771;32347,001;13,03016
 287,67; 4605,683;  195,172;32354,546;13,71454
 288,26; 4778,607;  184,971;32405,315;14,25694
 288,86; 4972,735;  186,570;32495,769;14,81363
 289,46; 5301,879;  186,371;32680,542;15,74285
 290,05; 5569,405;  179,172;32626,997;16,61200
 290,65; 5904,990;  185,370;32941,526;17,46121
 291,24; 6296,868;  194,771;32878,468;18,67016
 291,84; 6620,602;  202,970;33219,118;19,43786
 292,44; 7021,034;  169,373;33300,709;20,68031
 293,03; 7435,141;  246,171;33547,421;21,58769
 293,63; 7774,511;  186,770;33615,584;22,69821
 294,22; 8198,619;  208,371;33698,513;23,85851
 294,82; 8519,787;  182,368;33743,792;24,84227
 295,41; 8764,540;  156,771;33498,702;25,81665
 296,01; 9169,828;  227,569;33383,433;26,97037
 296,61; 9341,946;  194,371;33207,630;27,70879
 297,20; 9501,998;  196,769;32826,653;28,51751
 297,80; 9799,497;  204,972;32694,780;29,53088
 298,39; 9976,758;  175,570;32287,366;30,52208
 298,99;10289,610;  191,569;32103,970;31,64300
 299,58;10424,824;  202,372;31960,897;32,18806
 300,18;10636,379;  209,372;31811,026;32,99513
 300,78;10725,545;  171,771;31484,299;33,70464
 301,37;10963,913;  207,968;31547,997;34,32015
 301,97;11183,710;  187,571;31411,847;35,21664
 302,56;11297,484;  182,570;31378,165;35,62976
 303,16;11555,366;  154,770;31499,886;36,37120
 303,75;11739,105;  174,571;31460,900;36,96354
 304,35;12085,660;  188,573;31471,397;38,03073
 304,94;12235,659;  194,771;31687,381;38,23401
 305,54;12434,142;  187,371;31750,070;38,80141
 306,13;12559,778;  151,573;31621,627;39,42861
 306,73;12557,566;  159,173;31458,566;39,61225
 307,33;12899,695;  198,772;31266,869;40,88092
 307,92;13022,881;  181,971;31330,916;41,22422
 308,52;13364,105;  169,770;31983,457;41,47377
 309,11;13726,074;  176,969;32351,365;42,11145
 309,71;13981,590;  152,968;32616,552;42,59734
 310,30;14278,335;  174,971;32954,887;43,02441
 310,90;14540,335;  185,971;33262,687;43,39719
 311,49;14758,335;  183,771;33381,562;43,90221
 312,09;14992,691;  151,372;33501,122;44,50204
 312,68;15350,766;  211,971;33895,860;44,94372
 313,28;15460,167;  158,371;34163,316;44,99874
 313,87;15690,945;  155,571;34084,705;45,78771
 314,47;15847,297;  180,169;34410,101;45,77026
 315,06;16069,661;  167,171;34623,354;46,15279
 315,66;16217,834;  175,372;34781,722;46,35699
 316,25;16314,795;  155,370;34635,211;46,86630
 316,85;16370,185;  151,972;34745,960;46,88159
 317,44;16577,347;  158,569;34808,042;47,38536
 318,04;16498,992;  154,570;34964,575;46,95323
 318,63;16545,865;  152,173;34926,013;47,14375
 319,22;16866,639;  179,570;35223,088;47,61814
 319,82;16823,565;  169,770;35286,149;47,42458
 320,41;16821,185;  180,770;35143,517;47,59470
 321,01;16840,353;  184,572;35123,206;47,67153
 321,60;16887,942;  168,770;35341,283;47,53477
 322,20;16870,258;  157,971;35299,850;47,55661
 322,79;16958,531;  208,771;35313,402;47,71382
 323,39;16889,023;  169,373;35372,034;47,49541
 323,98;16879,142;  144,771;35282,670;47,62485
 324,58;16935,975;  178,970;35129,905;47,94437
 325,17;16713,185;  196,170;35027,392;47,42014
 325,76;16640,153;  188,171;34881,219;47,42155
 326,36;16442,885;  149,972;34539,463;47,37759
 326,95;16330,345;  188,371;34192,512;47,47061
 327,55;16100,058;  153,970;33899,863;47,25342
 328,14;15933,381;  170,972;33373,200;47,47395
 328,74;15716,575;  209,170;33084,174;47,17081
 329,33;15508,521;  182,972;32760,777;47,04292
 329,92;15194,594;  158,569;31966,499;47,27131
 330,52;14894,797;  188,172;31457,277;47,03245
 331,11;14668,669;  179,770;31131,730;46,81093
 331,71;14364,204;  183,571;30498,361;46,77794
 332,30;14153,945;  180,371;29967,981;46,91069
 332,89;13899,520;  211,371;29360,253;46,95943
 333,49;13554,072;  177,171;28810,559;46,71784
 334,08;13239,759;  185,570;28460,415;46,16892
 334,68;12995,084;  184,370;28111,558;45,87184
 335,27;12739,396;  194,572;27666,421;45,66429
 335,86;12580,812;  225,970;27437,330;45,40325
 336,46;12437,630;  194,772;27302,755;45,16329
 337,05;12261,929;  170,170;27101,835;44,89793
 337,65;12146,812;  161,970;26927,606;44,77697
 338,24;12141,389;  230,171;26958,727;44,56364
 338,83;11969,753;  214,371;26752,013;44,29701
 339,43;11861,886;  166,370;26752,745;43,99064
 340,02;11785,106;  181,970;26565,382;43,97891
 340,61;11773,505;  175,971;26737,307;43,66322
 341,21;11716,003;  207,170;26763,374;43,33765
 341,80;11634,733;  187,370;26798,720;43,01685
 342,40;11594,733;  194,772;26864,163;42,74549
 342,99;11563,378;  180,971;26944,253;42,52993
 343,58;11538,664;  176,772;27133,577;42,14851
 344,18;11573,548;  180,572;27216,597;42,13998
 344,77;11606,924;  173,570;27606,039;41,67818
 345,36;11610,774;  160,371;27912,912;41,25894
 345,96;11711,404;  210,972;28078,872;41,26767
 346,55;11721,686;  176,173;28447,768;40,83785
 347,14;11803,629;  160,972;28783,106;40,67711
 347,74;11855,083;  139,974;29189,920;40,32747
 348,33;12112,094;  191,974;29817,918;40,23541
 348,92;12217,866;  183,775;30549,105;39,63102
 349,52;12301,032;  156,174;30955,103;39,43273
 350,11;12365,612;  162,170;31210,819;39,30426
 350,70;12336,037;  172,171;31120,364;39,30396
 351,29;12055,105;  152,368;30924,689;38,68001
 351,89;12019,633;  179,969;30993,518;38,42356
 352,48;11889,712;  148,171;30885,421;38,19971
 353,07;11748,760;  183,172;30877,907;37,67939
 353,67;11608,620;  190,175;30820,573;37,27815
 354,26;11400,785;  178,172;30601,753;36,88788
 354,85;11294,367;  177,172;30468,703;36,70067
 355,45;11136,681;  147,370;30439,404;36,27789
 356,04;11011,930;  173,573;30375,327;35,88652
 356,63;10848,008;  206,771;30066,646;35,63725
 357,22;10686,680;  184,368;29905,512;35,33616
 357,82;10485,708;  187,968;29668,706;34,93040
 358,41;10310,620;  199,771;29572,438;34,42265
 359,00;10138,328;  163,770;29435,592;34,07563
 359,60;10029,947;  185,571;29456,479;33,63195
 360,19; 9813,437;  182,373;29120,338;33,28176
 360,78; 9657,357;  182,770;29146,310;32,71212
 361,37; 9525,552;  189,170;28916,701;32,49977
 361,97; 9401,892;  182,971;28635,265;32,40133
 362,56; 9168,832;  167,969;28360,780;31,92609
 363,15; 8965,240;  215,170;28158,481;31,31365
 363,74; 8745,648;  172,569;27752,539;31,08444
 364,34; 8562,691;  182,370;27352,554;30,84381
 364,93; 8230,493;  175,169;26963,065;30,07076
 365,52; 8060,098;  145,370;26728,130;29,77391
 366,11; 7899,341;  181,770;26167,240;29,69956
 366,71; 7678,068;  159,970;26022,688;29,06925
 367,30; 7505,462;  174,170;25559,416;28,88013
 367,89; 7371,445;  206,172;25401,865;28,43848
 368,48; 7218,038;  166,169;25075,721;28,30990
 369,07; 6906,894;  183,571;24633,164;27,49871
 369,67; 6819,987;  191,769;24284,979;27,51073
 370,26; 6659,427;  168,771;24087,545;27,13624
 370,85; 6538,228;  186,170;23838,483;26,85597
 371,44; 6354,385;  177,571;23618,579;26,35046
 372,03; 6223,276;  168,370;23337,002;26,13407
 372,63; 6086,125;  147,771;23093,550;25,87994
 373,22; 5918,608;  167,171;22783,439;25,43053
 373,81; 5722,643;  147,170;22461,635;24,98591
 374,40; 5623,394;  169,372;22139,047;24,82523
 374,99; 5525,460;  165,970;21953,443;24,59895
 375,59; 5359,653;  156,172;21667,828;24,18913
 376,18; 5266,863;  191,770;21468,872;23,85237
 376,77; 5188,113;  203,371;21364,952;23,55562
 377,36; 5108,903;  199,370;21278,940;23,29048
 377,95; 4925,030;  176,570;20936,669;22,87301
 378,55; 4889,781;  175,772;20880,606;22,76768
 379,14; 4802,318;  198,770;20761,892;22,38740
 379,73; 4744,277;  184,170;20648,651;22,28303
 380,32; 4751,762;  202,171;20712,913;22,18150
 380,91; 4589,467;  151,769;20583,445;21,71969
 381,50; 4581,170;  179,570;20550,771;21,60697
 382,10; 4463,048;  162,771;20394,913;21,25468
 382,69; 4402,565;  160,970;20364,549;20,99427
 383,28; 4391,119;  192,770;20401,829;20,77459
 383,87; 4322,664;  157,570;20188,334;20,79349
 384,46; 4263,397;  162,369;20195,735;20,47099
 385,05; 4274,585;  202,570;20207,523;20,35504
 385,64; 4178,055;  171,770;20158,440;20,04479
 386,24; 4146,864;  156,168;20099,553;20,01012
 386,83; 4171,616;  192,168;20144,447;19,94483
 387,42; 4151,445;  200,570;20295,621;19,66094
 388,01; 4167,415;  177,767;20546,811;19,58682
 388,60; 4180,788;  179,569;20726,841;19,47324
 389,19; 4174,160;  159,766;21010,611;19,25291
 389,78; 4200,629;  180,366;21128,927;19,19112
 390,37; 4334,185;  208,568;21641,549;19,24892
 390,96; 4306,059;  186,168;21815,620;19,04759
 391,56; 4339,066;  182,966;21914,379;19,12485
 392,15; 4357,137;  157,167;22239,463;19,01963
 392,74; 4383,574;  149,764;22406,546;19,02256
 393,33; 4391,078;  154,165;22663,977;18,82251
 393,92; 4505,087;  188,363;23131,835;18,81461
 394,51; 4544,558;  163,965;23327,444;18,91164
 395,10; 4565,070;  194,760;23569,872;18,69642
 395,69; 4622,670;  182,161;23573,066;18,98392
 396,28; 4592,609;  182,959;23658,331;18,78415
 396,87; 4627,360;  201,757;23993,409;18,60150
 397,46; 4633,740;  181,955;24041,473;18,65832
 398,06; 4766,948;  204,753;24189,344;19,02136
 398,65; 4748,710;  197,949;24189,052;18,96854
 399,24; 4789,847;  180,348;24500,131;18,95370
 399,83; 4792,257;  163,741;24445,460;19,06173
 400,42; 4892,100;  206,135;24512,385;19,27885
 401,01; 4866,235;  170,928;24724,112;19,12301
 401,60; 4880,809;  181,918;24816,096;19,07468
 402,19; 4870,590;  194,110;24662,362;19,11244
 402,78; 4922,630;  219,099;24613,473;19,28121
 403,37; 4927,571;  196,288;24505,274;19,46310
 403,96; 4892,407;  187,674;24293,776;19,51677
 404,55; 4927,104;  192,660;24133,732;19,77541
 405,14; 4920,577;  184,247;24038,022;19,85568
 405,73; 4939,216;  197,631;23981,267;19,93633
 406,32; 4931,226;  191,621;24101,578;19,82272
 406,91; 4906,121;  187,609;23737,316;20,03640
 407,50; 4946,795;  185,002;23539,545;20,38915
 408,09; 4952,572;  152,198;23115,950;20,90414
 408,68; 4867,811;  182,995;23193,869;20,35914
 409,27; 4876,201;  154,999;22857,262;20,79617
 409,86; 4926,145;  157,808;22774,037;21,08370
 410,45; 4931,924;  211,416;22694,697;20,99564
 411,04; 4914,419;  212,624;22573,806;21,02659
 411,63; 4896,708;  196,235;22229,067;21,33395
 412,22; 4915,809;  191,644;22057,939;21,60478
 412,81; 4916,494;  201,048;21784,907;21,84709
 413,40; 4875,080;  210,252;21438,664;21,97446
 413,99; 4857,383;  258,651;21227,216;21,93156
 414,58; 4766,817;  187,452;20694,737;22,33043
 415,17; 4767,260;  175,248;20501,298;22,59176
 415,76; 4766,859;  180,244;20395,432;22,68896
 416,35; 4764,962;  174,846;20161,732;22,96564
 416,94; 4851,657;  222,045;20313,714;23,04244
 417,53; 4908,691;  177,648;20493,672;23,28725
 418,12; 4987,553;  174,049;20614,393;23,54904
 418,71; 5112,691;  197,252;20941,732;23,69517
 419,30; 5156,062;  181,049;21012,852;23,88181
 419,89; 5300,340;  185,050;21163,001;24,38412
 420,48; 5479,757;  199,052;21489,970;24,80261
 421,07; 5472,995;  204,653;21596,176;24,62818
 421,66; 5501,554;  164,255;21538,096;24,97117
 422,25; 5535,124;  185,259;21534,257;25,05909
 422,84; 5606,869;  208,860;21487,749;25,36791
 423,43; 5580,573;  195,258;21191,232;25,64927
 424,02; 5587,383;  218,859;20971,837;25,86869
 424,60; 5524,139;  191,663;20564,538;26,17439
 425,19; 5488,942;  209,061;20305,406;26,27284
 425,78; 5556,879;  205,261;20207,342;26,75531
 426,37; 5539,175;  206,063;20111,059;26,79283
 426,96; 5549,799;  205,863;19945,049;27,07273
 427,55; 5534,322;  188,865;19762,574;27,30937
 428,14; 5493,148;  183,867;19519,125;27,45907
 428,73; 5555,121;  208,464;19341,737;27,94429
 429,32; 5610,083;  205,063;19425,276;28,12154
 429,91; 5653,446;  228,464;19418,805;28,26934
 430,50; 5681,988;  205,466;19183,005;28,85791
 431,08; 5619,074;  226,467;18999,311;28,72557
 431,67; 5679,186;  268,868;19016,987;28,85792
 432,26; 5707,180;  281,070;18905,633;29,13416
 432,85; 5618,490;  281,869;18476,831;29,33021
 433,44; 5590,943;  293,471;18078,520;29,78610
 434,03; 5513,166;  304,473;17738,947;29,87582
 434,62; 5409,995;  268,471;17308,235;30,17368
 435,21; 5374,231;  309,069;17213,975;29,96267
 435,79; 5380,290;  281,872;16934,179;30,61688
 436,38; 5351,993;  278,275;16896,072;30,53183
 436,97; 5374,761;  274,475;16729,837;30,99468
 437,56; 5374,472;  266,478;16623,825;31,22752
 438,15; 5375,856;  255,878;16496,161;31,52641
 438,74; 5509,664;  252,078;16499,268;32,35997
 439,33; 5439,972;  229,677;16456,341;32,10946
 439,91; 5485,995;  196,479;16520,581;32,40311
 440,50; 5589,373;  232,479;16621,240;32,68639
 441,09; 5678,983;  254,681;16749,826;32,88423
 441,68; 5677,996;  232,283;16730,041;33,00881
 442,27; 5780,588;  209,882;16687,816;33,80707
 442,86; 5733,461;  206,287;16651,772;33,60907
 443,44; 5853,585;  203,886;16753,004;34,13897
 444,03; 5921,020;  273,887;16791,849;34,18783
 444,62; 5840,292;  204,087;16619,601;34,33463
 445,21; 5849,510;  219,286;16471,340;34,64315
 445,80; 5908,902;  221,889;16363,863;35,23121
 446,39; 5864,146;  255,888;16196,422;35,18237
 446,97; 5766,852;  209,491;15841,813;35,55045
 447,56; 5721,540;  201,493;15706,886;35,60082
 448,15; 5673,358;  204,091;15505,975;35,74244
 448,74; 5640,593;  230,291;15290,758;35,92387
 449,33; 5665,992;  211,892;15142,083;36,53068
 449,91; 5562,475;  223,095;14894,015;36,39431
 450,50; 5498,770;  196,694;14714,040;36,52235
 451,09; 5585,902;  211,295;14708,166;37,07426
 451,68; 5513,181;  235,696;14536,163;36,90429
 452,26; 5552,279;  227,697;14402,943;37,56254
 452,85; 5503,495;  211,896;14299,357;37,56248
 453,44; 5488,827;  219,299;14312,838;37,38967
 454,03; 5574,413;  191,497;14305,367;38,13919
 454,61; 5530,296;  207,099;14368,230;37,59020
 455,20; 5648,277;  220,300;14521,704;37,95415
 455,79; 5717,797;  222,498;14447,995;38,62993
 456,38; 5780,795;  223,302;14552,908;38,78329
 456,97; 5828,454;  213,701;14622,094;38,96862
 457,55; 5777,280;  212,703;14558,695;38,78838
 458,14; 5858,126;  229,501;14553,453;39,29520
 458,73; 5870,892;  214,503;14483,287;39,64171
 459,31; 5947,995;  232,705;14529,387;39,97634
 459,90; 5991,742;  247,904;14600,360;40,01990
 460,49; 6066,439;  283,703;14696,165;40,12317
 461,08; 6041,534;  207,506;14867,089;39,79668
 461,66; 6121,865;  224,505;14888,910;40,21547
 462,25; 6156,799;  226,907;14940,115;40,30319
 462,84; 6257,432;  251,506;15011,281;40,69117
 463,43; 6195,060;  194,909;14974,511;40,59751
 464,01; 6198,416;  218,710;14995,271;40,46751
 464,60; 6309,704;  257,108;14803,201;41,60977
 465,19; 6178,952;  185,910;14720,475;41,23303
 465,77; 6174,193;  217,911;14554,854;41,54499
 466,36; 6197,073;  245,309;14525,559;41,67829
 466,95; 6018,152;  200,709;14226,494;41,47677
 467,53; 6008,200;  204,512;13914,149;42,33291
 468,12; 5909,202;  249,513;13740,122;41,95281
 468,71; 5837,876;  230,310;13415,162;42,53036
 469,29; 5682,736;  191,513;13187,353;42,25370
 469,88; 5629,132;  227,514;12883,731;42,67956
 470,47; 5716,584;  255,916;12949,820;43,01804
 471,06; 5650,157;  220,316;13005,744;42,46898
 471,64; 5806,829;  220,515;13189,379;43,07481
 472,23; 5741,488;  196,519;13015,701;43,25525
 472,81; 5818,009;  188,917;13223,040;43,18735
 473,40; 5930,021;  191,319;13326,682;43,68895
 473,99; 6021,904;  285,319;13423,177;43,66454
 474,57; 6054,020;  209,519;13701,757;43,31751
 475,16; 6154,129;  222,117;13824,843;43,60899
 475,75; 6221,990;  225,720;13942,558;43,71466
 476,33; 6288,077;  231,721;14015,988;43,93673
 476,92; 6295,062;  233,519;13987,799;44,07023
 477,51; 6414,566;  229,721;14118,754;44,53042
 478,09; 6419,047;  232,321;14143,545;44,47291
 478,68; 6388,726;  216,521;14012,349;44,73965
 479,27; 6433,120;  233,520;14178,435;44,45778
 479,85; 6415,881;  218,121;14165,872;44,43555
 480,44; 6495,041;  207,122;14306,392;44,59748
 481,02; 7172,270;  229,523;16077,972;43,80711
 481,61; 8082,474;  254,923;17850,264;44,48650
 482,20; 8622,335;  254,723;19118,411;44,35831
 482,78; 8998,364;  260,922;19733,161;44,87128
 483,37; 9216,257;  262,525;19948,568;45,48264
 483,95; 9379,662;  295,325;20382,571;45,22440
 484,54; 9504,291;  297,122;20576,671;45,40125
 485,13; 9523,957;  258,327;20626,963;45,48969
 485,71; 9421,564;  265,126;20428,959;45,41021
 486,30; 9381,902;  288,926;20149,750;45,78348
 486,88; 9303,515;  315,727;19817,991;46,08587
 487,47; 8997,128;  305,527;19173,432;46,06553
 488,05; 8593,016;  304,528;18210,999;46,28767
 488,64; 8070,986;  297,729;16839,124;46,99275
 489,23; 7268,862;  293,128;14766,050;48,19852
 489,81; 6163,359;  292,329;12721,186;47,23708
 490,40; 5788,802;  236,929;12197,408;46,41849
 490,98; 5690,144;  233,530;11871,146;46,88773
 491,57; 5639,721;  277,529;11845,499;46,35379
 492,15; 5649,081;  261,530;11813,481;46,63758
 492,74; 5611,497;  257,928;11767,515;46,51400
 493,32; 5600,390;  259,930;11624,078;46,99393
 493,91; 5543,994;  231,331;11482,743;47,21775
 494,50; 5546,582;  245,333;11400,981;47,52076
 495,08; 5512,114;  225,733;11356,514;47,49335
 495,67; 5510,811;  241,930;11337,151;47,48784
 496,25; 5430,223;  210,132;11263,524;47,22615
 496,84; 5457,213;  202,730;11298,531;47,35559
 497,42; 5463,966;  197,532;11106,042;48,27822
 498,01; 5422,267;  219,131;11139,496;47,64618
 498,59; 5352,150;  203,133;11065,034;47,40438
 499,18; 5364,658;  202,331;11012,202;47,75568
 499,76; 5378,145;  205,132;10907,562;48,33494
 500,35; 5276,677;  203,734;10683,262;48,40813
 500,93; 5250,394;  187,332;10677,317;48,26567
 501,52; 5206,799;  200,133;10557,596;48,33873
 502,10; 5236,905;  208,535;10546,594;48,63940
 502,69; 5178,352;  196,336;10400,362;48,82402
 503,27; 5023,868;  190,133;10262,506;47,99003
 503,86; 4997,077;  209,735;10065,112;48,57593
 504,44; 4971,472;  182,936;10030,290;48,62764
 505,03; 4866,342;  162,736; 9694,137;49,34852
 505,61; 4783,664;  192,536; 9702,182;48,27864
 506,19; 4747,510;  204,136; 9472,108;49,02231
 506,78; 4641,587;  172,338; 9340,713;48,74636
 507,36; 4581,847;  183,936; 9137,175;49,12090
 507,95; 4506,385;  181,139; 9036,995;48,84052
 508,53; 4425,366;  187,138; 8897,027;48,65996
 509,12; 4354,097;  199,738; 8754,622;48,56126
 509,70; 4375,178;  204,739; 8637,406;49,45576
 510,29; 4294,820;  205,340; 8415,965;49,80718
 510,87; 4205,483;  174,738; 8270,731;49,78691
 511,46; 4069,213;  177,338; 8086,477;49,20731
 512,04; 4058,661;  186,939; 7957,770;49,82378
 512,62; 3990,265;  196,138; 7778,868;50,03642
 513,21; 3822,250;  171,140; 7678,090;48,63639
 513,79; 3800,489;  197,143; 7549,188;49,01148
 514,38; 3747,171;  181,142; 7320,047;49,95205
 514,96; 3732,767;  209,742; 7281,093;49,82111
 515,54; 3671,265;  181,542; 7104,679;50,40667
 516,13; 3621,850;  186,942; 7021,976;50,25445
 516,71; 3554,183;  192,944; 6926,813;49,91542
 517,30; 3471,008;  181,145; 6826,840;49,50367
 517,88; 3453,462;  188,345; 6746,811;49,78477
 518,46; 3383,959;  170,545; 6594,672;50,02102
 519,05; 3325,185;  179,746; 6495,754;49,80106
 519,63; 3317,546;  191,345; 6542,018;49,22629
 520,22; 3280,297;  217,947; 6442,155;49,20064
 520,80; 3245,260;  187,147; 6364,261;49,50714
 521,38; 3311,991;  210,146; 6401,013;50,10357
 521,97; 3202,771;  200,348; 6282,943;49,36089
 522,55; 3235,875;  199,748; 6282,800;49,91124
 523,13; 3163,126;  179,949; 6301,529;48,73214
 523,72; 3181,127;  168,345; 6249,243;49,54502
 524,30; 3292,975;  211,950; 6385,078;49,91028
 524,89; 3302,019;  176,548; 6358,449;50,55841
 525,47; 3342,367;  200,750; 6540,633;49,55324
 526,05; 3323,395;  161,550; 6521,777;49,71276
 526,64; 3390,151;  201,551; 6660,943;49,36378
 527,22; 3485,302;  202,350; 6749,594;50,14250
 527,80; 3515,423;  216,751; 6871,971;49,56519
 528,39; 3583,700;  197,351; 6962,595;50,05509
 528,97; 3661,880;  197,551; 7113,440;50,09232
 529,55; 3764,724;  203,749; 7325,624;50,00052
 530,14; 3890,677;  207,752; 7528,922;50,30515
 530,72; 3939,218;  185,551; 7652,030;50,27358
 531,30; 3975,497;  177,752; 7705,828;50,44774
 531,89; 4030,756;  197,552; 7831,933;50,20976
 532,47; 4089,265;  228,752; 7901,317;50,31581
 533,05; 4109,942;  233,151; 8000,980;49,90830
 533,63; 4167,046;  227,153; 8024,404;50,52926
 534,22; 4155,085;  184,953; 8097,148;50,17739
 534,80; 4180,054;  208,154; 8130,623;50,13463
 535,38; 4271,641;  261,952; 8300,477;49,88090
 535,97; 4178,201;  217,952; 8189,603;49,67915
 536,55; 4275,315;  239,754; 8349,577;49,76140
 537,13; 4271,054;  259,552; 8289,256;49,95829
 537,71; 4279,378;  298,752; 8354,350;49,41441
 538,30; 4268,322;  324,553; 8330,979;49,25754
 538,88; 4336,269;  370,155; 8471,232;48,95787
 539,46; 4431,730;  409,954; 8696,680;48,53274
 540,05; 4490,786;  418,554; 8885,743;48,09426
 540,63; 4577,877;  489,755; 8987,277;48,10959
 541,21; 4696,571;  514,355; 9101,578;48,70277
 541,79; 4772,687;  550,155; 9207,482;48,77409
 542,38; 4797,110;  583,154; 9437,837;47,59014
 542,96; 4893,330;  595,756; 9546,966;48,01110
 543,54; 4971,193;  618,955; 9809,719;47,35447
 544,12; 4996,455;  575,756; 9945,922;47,17845
 544,70; 5057,058;  567,556; 9959,138;47,80347
 545,29; 5175,604;  575,354;10202,475;47,78427
 545,87; 5183,973;  539,155;10182,482;48,16613
 546,45; 5153,564;  494,954;10226,408;47,87167
 547,03; 5170,659;  481,555;10286,689;47,82295
 547,62; 5246,182;  445,155;10398,845;48,23364
 548,20; 5339,524;  442,556;10554,508;48,42753
 548,78; 5382,527;  423,559;10673,898;48,37858
 549,36; 5491,448;  378,158;10871,763;48,72768
 549,94; 5528,678;  338,556;10875,057;49,25849
 550,53; 5601,835;  337,358;11173,922;48,58069
 551,11; 5663,388;  320,159;11369,121;48,35955
 551,69; 5859,772;  321,158;11645,981;48,90685
 552,27; 5904,442;  263,357;11964,718;48,20879
 552,85; 6038,621;  262,159;12227,130;48,27811
 553,44; 6240,136;  260,958;12593,143;48,48433
 554,02; 6374,034;  280,559;12963,584;48,04434
 554,60; 6511,623;  217,759;13196,779;48,49259
 555,18; 6713,136;  271,558;13667,468;48,08616
 555,76; 6854,476;  251,559;13974,632;48,11544
 556,34; 7048,447;  240,560;14358,681;48,22091
 556,93; 7287,267;  228,358;14680,944;48,84183
 557,51; 7319,954;  209,960;14982,768;48,12893
 558,09; 7555,227;  232,158;15343,801;48,45978
 558,67; 7729,387;  236,761;15780,364;48,20392
 559,25; 7875,995;  255,961;15964,284;48,50953
 559,83; 8050,456;  221,562;16289,350;48,72416
 560,41; 8238,692;  221,760;16657,165;48,77842
 561,00; 8393,842;  218,961;17034,859;48,61400
 561,58; 8479,133;  214,160;17279,088;48,43251
 562,16; 8615,855;  211,959;17477,464;48,67449
 562,74; 8750,359;  185,759;17965,327;48,17103
 563,32; 8930,118;  200,362;18437,359;47,86839
 563,90; 9131,543;  224,961;18787,212;47,98223
 564,48; 9365,793;  225,160;19233,648;48,08712
 565,06; 9571,880;  212,161;19645,953;48,16208
 565,65; 9910,074;  215,363;20566,587;47,63699
 566,23;10325,167;  265,961;21284,202;47,85941
 566,81;10555,371;  220,561;21811,894;47,86555
 567,39;10965,030;  241,762;22814,523;47,50534
 567,97;11178,554;  243,961;23468,486;47,08210
 568,55;11680,157;  233,162;24299,977;47,56340
 569,13;11943,959;  208,961;24989,088;47,35649
 569,71;12317,518;  226,159;25929,073;47,04275
 570,29;12770,487;  262,958;26884,706;46,98237
 570,87;13183,165;  260,159;27621,986;47,23006
 571,45;13423,140;  260,561;28308,382;46,92906
 572,03;13594,849;  207,762;28687,954;47,00491
 572,61;13925,520;  205,562;29493,539;46,84502
 573,20;14280,915;  253,960;30196,149;46,84679
 573,78;14482,703;  237,562;30789,806;46,62551
 574,36;14671,649;  247,561;31220,242;46,57036
 574,94;14899,955;  271,162;31592,384;46,70569
 575,52;14952,602;  227,364;31876,615;46,52634
 576,10;15184,805;  291,163;32314,782;46,50830
 576,68;15396,382;  281,962;32978,611;46,22620
 577,26;15731,736;  282,765;33716,239;46,20809
 577,84;15795,247;  314,361;34175,662;45,71852
 578,42;16103,594;  332,563;34450,721;46,22474
 579,00;16031,287;  282,962;34449,854;46,09236
 579,58;16060,592;  314,963;34647,623;45,86196
 580,16;16014,089;  304,563;34683,208;45,69559
 580,74;16195,843;  320,163;35084,276;45,66686
 581,32;16155,879;  300,363;35042,672;45,63748
 581,90;16161,024;  308,963;35056,770;45,62032
 582,48;16158,102;  323,563;35155,656;45,45963
 583,06;16133,969;  327,563;35249,557;45,26204
 583,64;16221,358;  322,562;35423,889;45,29400
 584,22;16158,773;  320,164;35040,284;45,61795
 584,80;16021,387;  344,963;34743,607;45,57280
 585,38;15824,901;  333,160;34402,452;45,47127
 585,96;15805,497;  315,962;34409,142;45,43294
 586,54;15743,355;  351,964;34509,758;45,05968
 587,12;15799,079;  306,564;34596,659;45,18073
 587,70;15851,108;  333,362;34763,209;45,07062
 588,28;15788,027;  320,363;34823,468;44,82977
 588,86;15942,224;  312,964;35000,232;45,05763
 589,44;15724,689;  299,765;35002,445;44,44880
 590,02;15846,764;  311,965;35292,308;44,41008
 590,59;15872,290;  283,364;35307,920;44,50856
 591,17;15901,297;  275,567;35479,458;44,38637
 591,75;15909,212;  279,566;35627,726;44,21629
 592,33;15833,235;  292,366;35740,399;43,84128
 592,91;15967,255;  243,367;36020,216;43,94990
 593,49;15961,001;  253,767;36438,908;43,40797
 594,07;16086,364;  263,167;36604,270;43,54077
 594,65;16037,863;  294,964;36588,969;43,37603
 595,23;16165,530;  266,765;37001,975;43,27936
 595,81;16177,701;  254,965;37266,968;43,02047
 596,39;16236,286;  252,565;37293,740;43,15123
 596,97;16238,229;  251,967;37509,721;42,90721
 597,55;16140,891;  256,365;37318,563;42,85911
 598,12;16138,744;  237,968;37345,902;42,85007
 598,70;16092,543;  234,367;37422,990;42,64255
 599,28;16147,582;  257,567;37742,333;42,39059
 599,86;16111,413;  238,367;37792,313;42,26732
 600,44;16138,065;  205,967;37837,897;42,33665
 601,02;16159,090;  252,969;37871,236;42,28297
 601,60;16019,849;  247,766;38017,964;41,75801
 602,18;16105,444;  211,768;37952,129;42,11321
 602,75;16061,662;  231,365;37897,901;42,02748
 603,33;15983,894;  238,167;37944,028;41,75936
 603,91;15980,306;  235,169;37847,926;41,86116
 604,49;15933,154;  240,167;37988,858;41,57227
 605,07;15942,160;  267,166;37989,735;41,55336
 605,65;15903,767;  275,568;38103,299;41,31413
 606,23;15900,574;  313,964;38417,871;40,90554
 606,80;15836,207;  387,765;38345,005;40,69959
 607,38;15791,785;  416,568;38379,543;40,50056
 607,96;15734,284;  473,965;38471,967;40,16085
 608,54;15732,741;  556,368;38527,803;39,96787
 609,12;15667,246;  539,765;38612,748;39,73285
 609,70;15556,594;  566,567;38558,532;39,45578
 610,27;15536,335;  583,965;38723,908;39,20397
 610,85;15480,321;  613,567;38653,055;39,08242
 611,43;15370,244;  590,967;38701,742;38,77979
 612,01;15213,614;  553,366;38429,382;38,70589
 612,59;15221,724;  558,967;38572,284;38,57268
 613,16;15163,513;  545,364;38430,980;38,58496
 613,74;14984,076;  498,767;38313,171;38,30633
 614,32;14973,131;  441,568;38356,385;38,32687
 614,90;14853,305;  421,966;37970,909;38,43341
 615,48;14745,190;  377,365;37840,010;38,35240
 616,05;14708,369;  335,764;37790,131;38,37364
 616,63;14515,833;  347,564;37695,651;37,93573
 617,21;14429,894;  318,965;37566,661;37,88403
 617,79;14375,624;  321,566;37422,331;37,88078
 618,36;14306,277;  317,366;37454,440;37,66832
 618,94;14111,697;  270,365;37060,621;37,62228
 619,52;13971,107;  298,764;36965,252;37,28839
 620,10;13895,883;  269,565;36874,987;37,22486
 620,67;13852,730;  287,364;36807,394;37,14500
 621,25;13688,550;  299,566;36373,517;37,11538
 621,83;13572,282;  292,565;36417,269;36,76076
 622,41;13572,580;  318,765;36510,592;36,62102
 622,98;13487,625;  307,364;36334,213;36,58455
 623,56;13427,754;  305,963;36379,316;36,37530
 624,14;13165,501;  258,167;36056,749;36,05544
 624,72;13107,658;  273,565;36110,078;35,81290
 625,29;13045,650;  252,364;35955,259;35,83263
 625,87;13043,079;  300,966;36094,026;35,59940
 626,45;12860,648;  257,563;35941,085;35,31906
 627,02;12806,106;  266,766;35895,646;35,19431
 627,60;12730,857;  251,167;35822,259;35,08380
 628,18;12681,960;  244,365;35763,548;35,01656
 628,76;12621,951;  246,764;35870,280;34,73881
 629,33;12564,409;  269,364;35839,123;34,56601
 629,91;12482,883;  268,565;35889,587;34,28963
 630,49;12415,161;  276,764;35956,892;34,02005
 631,06;12440,004;  277,964;36097,795;33,95337
 631,64;12406,831;  279,563;36138,753;33,81913
 632,22;12281,892;  229,363;35886,519;33,80115
 632,79;12333,074;  236,363;36219,263;33,61794
 633,37;12302,835;  241,966;36164,868;33,57432
 633,95;12238,557;  254,963;36379,551;33,17296
 634,52;12204,450;  225,965;36519,239;33,00470
 635,10;12188,934;  237,565;36531,728;32,92917
 635,68;12162,476;  223,963;36626,567;32,79577
 636,25;12188,080;  227,562;36805,065;32,69911
 636,83;12118,094;  202,364;36852,080;32,51248
 637,41;12093,228;  232,762;36929,937;32,31983
 637,98;12095,357;  240,162;37154,764;32,11519
 638,56;12061,897;  226,961;37210,748;32,00033
 639,13;12082,365;  212,564;37252,383;32,04606
 639,71;12075,783;  266,964;37549,434;31,67392
 640,29;11905,649;  211,964;37153,267;31,65477
 640,86;11883,154;  230,164;37489,945;31,27498
 641,44;11840,658;  211,764;37365,822;31,29912
 642,02;11833,163;  241,964;37456,499;31,14697
 642,59;11788,524;  209,564;37651,177;30,92538
 643,17;11718,743;  215,764;37740,454;30,65443
 643,74;11699,248;  227,564;37589,132;30,70450
 644,32;11578,181;  243,964;37598,009;30,34267
 644,89;11472,542;  239,564;37716,287;29,97321
 645,47;11494,047;  269,364;37663,564;30,01717
 646,05;11474,265;  235,364;37667,042;30,02511
 646,62;11300,199;  229,765;37442,319;29,74919
 647,20;11326,703;  230,965;37713,197;29,60266
 647,77;11109,065;  203,765;37561,474;29,19156
 648,35;11060,712;  205,965;37397,551;29,18603
 648,92;10993,645;  236,965;37432,229;28,91949
 649,50;10953,149;  176,965;37285,506;29,03963
 650,08;10863,225;  196,965;37310,984;28,73917
 650,65;10871,444;  230,365;37572,261;28,49635
 651,23;11023,806;  196,765;38502,139;28,26507
 651,80;11203,167;  199,965;39424,016;28,05218
 652,38;11355,815;  218,965;39698,694;28,20903
 652,95;11340,462;  196,765;40069,171;27,94839
 653,53;11344,395;  228,165;40138,648;27,85291
 654,10;11384,757;  242,565;40354,726;27,77759
 654,68;11359,690;  202,165;40204,403;27,89225
 655,25;11213,623;  199,965;40496,681;27,33140
 655,83;11302,699;  194,965;40659,958;27,45023
 656,40;11253,060;  233,765;40666,636;27,25331
 656,98;11174,422;  210,165;40604,713;27,14291
 657,55;11072,355;  205,566;40348,391;27,07032
 658,13;10862,288;  202,366;39910,468;26,84571
 658,70;10845,649;  218,366;39739,745;26,88996
 659,28;10506,440;  193,166;38768,623;26,73533
 659,85;10213,230;  213,366;37923,300;26,51785
 660,43;10121,163;  231,366;38173,578;26,06542
 661,00;10076,953;  213,166;38140,655;26,00696
 661,58;10114,886;  198,966;38531,533;25,86814
 662,15;10105,248;  183,366;38548,410;25,86178
 662,73;10221,466;  245,966;39044,488;25,71103
 663,30;10085,685;  215,566;39303,365;25,25115
 663,88;10133,190;  199,966;39299,442;25,40500
 664,45;10142,837;  196,766;39619,720;25,22914
 665,03;10109,341;  215,166;40113,397;24,79853
 665,60;10287,989;  260,566;40505,075;24,91625
 666,17;10192,922;  214,766;40460,152;24,79329
 666,75;10166,712;  216,166;40839,830;24,49446
 667,32;10271,074;  225,566;41222,107;24,50330
 667,90;10305,435;  198,766;41635,185;24,39079
 668,47;10293,083;  224,966;41620,662;24,32165
 669,05;10343,158;  212,167;42125,139;24,17149
 669,62;10225,234;  187,567;42222,417;23,87939
 670,19;10253,882;  195,967;42072,294;24,01814
 670,77;10229,815;  204,767;42438,372;23,73714
 671,34;10251,033;  229,567;42484,249;23,71682
 671,92;10241,681;  188,167;42555,727;23,72927
 672,49;10135,757;  215,167;42680,604;23,36156
 673,06;10098,118;  169,967;42731,482;23,32659
 673,64;10040,623;  192,567;42741,559;23,14522
 674,21; 9969,556;  189,767;42651,636;23,03193
 674,79;10015,774;  192,567;42965,714;22,96583
 675,36; 9974,279;  223,767;42944,591;22,82379
 675,93; 9926,641;  207,967;42904,469;22,76222
 676,51; 9884,716;  215,567;43098,746;22,54765
 677,08; 9933,935;  210,967;43232,024;22,60049
 677,65; 9822,583;  210,167;43365,901;22,27378
 678,23; 9887,516;  209,567;43610,179;22,29911
 678,80; 9797,163;  194,967;43687,256;22,07793
 679,38; 9756,239;  185,567;43810,733;21,93842
 679,95; 9718,886;  198,368;44029,211;21,72105
 680,52; 9699,248;  200,968;44211,488;21,58184
 681,10; 9776,895;  216,968;44679,566;21,50105
 681,67; 9852,114;  212,368;45044,843;21,50170
 682,24; 9700,475;  185,368;45052,921;21,20710
 682,82; 9785,551;  196,768;45621,998;21,10894
 683,39; 9851,770;  218,368;46011,476;21,03680
 683,96; 9806,989;  206,168;46193,953;20,87689
 684,54; 9857,922;  177,968;46633,031;20,83724
 685,11; 9926,998;  224,968;46853,308;20,80715
 685,68; 9911,645;  212,968;47257,785;20,61582
 686,25; 9880,435;  195,768;47467,063;20,48742
 686,83; 9875,940;  179,168;47447,340;20,51438
 687,40; 9905,301;  184,368;47926,018;20,36154
 687,97; 9969,949;  218,968;48281,895;20,28795
 688,55; 9925,167;  181,568;48410,373;20,20286
 689,12; 9825,100;  182,368;48523,650;19,94720
 689,69; 9923,891;  186,168;48757,928;20,04812
 690,26; 9886,824;  185,168;48923,805;19,90547
 690,84; 9894,900;  188,968;49088,882;19,84856
 691,41; 9837,975;  214,969;49135,360;19,67075
 691,98; 9851,337;  204,769;49439,637;19,59296
 692,56; 9829,127;  184,969;49458,515;19,57269
 693,13; 9856,203;  246,969;49461,192;19,52532
 693,70; 9814,279;  210,369;49672,870;19,41655
 694,27; 9810,641;  192,969;49684,347;19,43302
 694,84; 9732,145;  193,369;49844,425;19,21163
 695,42; 9731,078;  228,769;49975,702;19,10130
 695,99; 9672,440;  186,569;50355,379;18,90790
 696,56; 9598,516;  186,569;50230,457;18,80738
 697,13; 9669,877;  202,169;50660,334;18,76348
 697,71; 9677,953;  171,569;50584,612;18,85699
 698,28; 9615,172;  200,969;50862,089;18,58270
 698,85; 9563,962;  175,969;51010,167;18,46787
 699,42; 9579,038;  166,369;51064,844;18,49303
 699,99; 9611,542;  192,769;51126,522;18,49220
 700,57; 9586,904;  195,769;51344,599;18,36041
 701,14; 9440,980;  183,769;51441,476;18,06013
 701,71; 9492,484;  224,169;51729,554;17,99485
 702,28; 9439,846;  189,369;51685,431;17,96346
 702,85; 9449,350;  216,570;51676,309;17,94176
 703,43; 9433,855;  194,770;51904,386;17,86725
 704,00; 9504,217;  223,770;52188,864;17,85900
 704,57; 9492,435;  222,170;51968,341;17,91488
 705,14; 9461,654;  238,970;52528,019;17,63789
 705,71; 9440,873;  238,970;52596,096;17,57526
 706,28; 9295,949;  219,770;52301,373;17,42684
 706,86; 9388,882;  235,370;52719,051;17,44068
 707,43; 9385,100;  258,170;52483,928;17,47592
 708,00; 9302,605;  238,970;52641,806;17,29608
 708,57; 9276,824;  204,170;52481,083;17,35499
 709,14; 9284,328;  241,770;52773,961;17,21337
 709,71; 9238,833;  210,770;52768,438;17,17744
 710,28; 9317,909;  213,970;53039,716;17,23390
 710,86; 9209,127;  222,570;53179,193;16,96966
 711,43; 9214,346;  231,170;53178,870;16,96613
 712,00; 9169,136;  219,770;53330,348;16,85044
 712,57; 9214,498;  233,170;53295,225;16,92608
 713,14; 9222,574;  208,370;53449,903;16,93077
 713,71; 9155,650;  228,371;53334,380;16,81030
 714,28; 9110,154;  208,371;53302,258;16,76612
 714,85; 9011,659;  200,171;53229,935;16,61612
 715,42; 9058,306;  204,171;53233,813;16,69658
 716,00; 9155,953;  274,371;53582,890;16,66072
 716,57; 9045,315;  210,171;53702,167;16,51676
 717,14; 9067,248;  188,971;53671,045;16,60047
 717,71; 8948,038;  183,971;53611,322;16,40371
 718,28; 8978,114;  216,971;53832,000;16,34083
 718,85; 8965,333;  186,571;53962,077;16,32483
 719,42; 8946,551;  223,771;53933,555;16,24058
 719,99; 8873,056;  191,771;53690,232;16,22717
 720,56; 8933,560;  211,371;54167,910;16,16521
 721,13; 8848,065;  210,571;54121,387;16,02182
 721,70; 8799,141;  202,171;54006,865;15,97810
 722,27; 8850,217;  217,171;54134,942;16,01150
 722,84; 8894,292;  252,771;54232,419;16,00885
 723,41; 8736,940;  188,571;54242,497;15,81452
 723,98; 8834,587;  198,571;54586,774;15,87847
 724,55; 8853,234;  230,371;54513,652;15,88493
 725,12; 8774,310;  168,372;54409,729;15,86601
 725,69; 8818,101;  190,572;54631,407;15,84753
 726,27; 8783,605;  208,772;54839,084;15,69611
 726,84; 8839,681;  204,172;55140,362;15,71916
 727,41; 8846,042;  217,172;54813,639;15,80482
 727,98; 8893,976;  222,372;55353,716;15,72899
 728,55; 8903,194;  250,572;55086,394;15,77914
 729,12; 8888,270;  200,972;55243,871;15,78278
 729,69; 8954,203;  219,772;55415,549;15,82446
 730,26; 8911,708;  217,372;55694,226;15,67201
 730,82; 8865,926;  209,772;55473,904;15,66324
 731,39; 8851,002;  220,972;55566,181;15,59309
 731,96; 8908,364;  181,972;55957,259;15,64562
 732,53; 8918,583;  212,972;56028,336;15,59716
 733,10; 8961,659;  208,972;56151,813;15,64577
 733,67; 8979,020;  200,972;56541,291;15,58040
 734,24; 8916,810;  206,972;55959,168;15,62241
 734,81; 8976,601;  234,372;56280,646;15,59823
 735,38; 8983,391;  216,372;56038,923;15,70516
 735,95; 8877,895;  206,573;55793,401;15,59960
 736,52; 8930,542;  239,973;56073,078;15,56526
 737,09; 8865,761;  218,973;55695,556;15,58638
 737,66; 8935,980;  269,173;55913,033;15,57550
 738,23; 8949,056;  195,373;56021,110;15,68037
 738,80; 9046,275;  237,773;56286,188;15,71588
 739,37; 8996,208;  237,573;56592,065;15,54203
 739,94; 8970,855;  213,573;56504,343;15,55723
 740,51; 9073,645;  286,973;56571,020;15,61130
 741,07; 8981,435;  199,373;56462,298;15,60897
 741,64; 9060,226;  251,573;56792,775;15,57917
 742,21; 9018,873;  215,973;56653,853;15,59750
 742,78; 9001,806;  194,973;56474,130;15,64848
 743,35; 8982,739;  214,173;56710,607;15,52056
 743,92; 9067,672;  247,373;56925,485;15,56209
 744,49; 9073,319;  237,973;56769,762;15,62899
 745,06; 9022,252;  200,573;56655,440;15,62607
 745,63; 8993,185;  189,373;56752,117;15,56468
 746,19; 9102,404;  204,773;56975,195;15,67300
 746,76; 8994,909;  210,973;56909,872;15,49225
 747,33; 9007,127;  217,174;56688,150;15,56544
 747,90; 9074,346;  227,974;57094,427;15,55640
 748,47; 9003,136;  228,174;56888,104;15,48707
 749,04; 9077,498;  228,574;56982,582;15,59172
 749,61; 9052,859;  209,974;56797,859;15,62682
 750,17; 9047,221;  212,374;56931,137;15,57659
 750,74; 9045,440;  228,374;56910,214;15,55536
 751,31; 8978,659;  194,174;56734,292;15,53673
 751,88; 8932,735;  193,774;56596,569;15,49384
 752,45; 9016,953;  213,974;56822,247;15,55069
 753,02; 9050,315;  209,374;56688,524;15,65346
 753,58; 9008,819;  193,974;56519,402;15,64985
 754,15; 9000,467;  223,774;56777,479;15,51922
 754,72; 8959,257;  193,574;56506,156;15,56612
 755,29; 8974,476;  183,774;56333,834;15,65573
 755,86; 9015,551;  222,374;56512,111;15,62128
 756,42; 9017,627;  221,574;56376,989;15,66377
 756,99; 8957,560;  191,974;56591,266;15,54201
 757,56; 8948,493;  209,774;56331,544;15,57100
 758,13; 8952,284;  176,174;56219,621;15,65947
 758,70; 9029,645;  204,975;56289,899;15,73448
 759,26; 9067,007;  198,175;56434,776;15,77057
 759,83; 9149,797;  207,175;56603,453;15,85676
 760,40; 9070,730;  204,575;56281,331;15,81075
 760,97; 9121,949;  203,775;56472,208;15,84934
 761,53; 9086,453;  192,375;56080,686;15,91402
 762,10; 9044,101;  174,575;56038,363;15,87706
 762,67; 9096,034;  221,575;56070,641;15,89008
 763,24; 9059,110;  164,375;55565,118;16,05526
 763,80; 9081,900;  199,575;55610,596;16,02989
 764,37; 9059,690;  181,175;55604,673;16,01941
 764,94; 9020,623;  178,175;55208,350;16,06836
 765,50; 9076,842;  168,575;55191,628;16,19006
 766,07; 9065,918;  210,375;55220,505;16,09802
 766,64; 8989,422;  191,575;54901,983;16,08076
 767,21; 9035,498;  189,975;54870,260;16,17680
 767,77; 9114,574;  206,375;54707,338;16,34503
 768,34; 9054,364;  210,775;54664,215;16,24064
 768,91; 9083,726;  190,175;54295,093;16,43760
 769,47; 9043,659;  192,376;54498,370;16,29891
 770,04; 9106,163;  209,976;54468,247;16,39600
 770,61; 9052,525;  187,176;54240,525;16,40111
 771,18; 9026,315;  188,776;54080,402;16,39872
 771,74; 9160,534;  210,576;54206,080;16,57538
 772,31; 9127,038;  211,576;54057,757;16,55728
 772,88; 9139,543;  178,176;53704,835;16,74188
 773,44; 9043,761;  191,776;53520,312;16,59897
 774,01; 9169,837;  189,776;53690,790;16,78484
 774,58; 9136,913;  171,776;53432,467;16,83256
 775,14; 9181,703;  184,376;53531,344;16,86568
 775,71; 9168,065;  191,776;53402,422;16,86935
 776,27; 9242,427;  233,976;53302,099;16,97526
 776,84; 9307,502;  246,976;53488,977;17,01763
 777,41; 9254,293;  207,976;53298,054;17,03956
 777,97; 9141,511;  183,976;52923,332;16,98454
 778,54; 9284,302;  206,176;53016,409;17,19009
 779,11; 9337,235;  215,176;53045,287;17,26678
 779,67; 9362,882;  192,776;52911,764;17,39431
 780,24; 9280,386;  214,176;52651,841;17,28950
 780,80; 9340,748;  222,577;52697,919;17,37611
 781,37; 9386,681;  205,977;52485,196;17,56091
 781,94; 9343,900;  194,577;52362,074;17,53836
 782,50; 9360,119;  214,977;52273,751;17,56696
 783,07; 9438,337;  247,977;52383,429;17,62785
 783,63; 9415,413;  190,177;52079,106;17,77881
 784,20; 9484,060;  232,777;52057,584;17,85107
 784,77; 9458,279;  208,577;51928,461;17,88423
 785,33; 9461,927;  187,177;51681,938;18,01105
 785,90; 9436,860;  208,577;51654,016;17,93800
 786,46; 9457,364;  222,377;51544,293;17,99424
 787,03; 9480,869;  205,377;51364,371;18,13072
 787,59; 9501,230;  209,177;51383,648;18,15759
 788,16; 9563,592;  217,777;51273,726;18,30505
 788,73; 9554,953;  223,577;50943,603;18,39781
 789,29; 9449,601;  206,777;50617,081;18,33519
 789,86; 9530,391;  211,977;50367,758;18,57894
 790,42; 9566,181;  215,377;50497,636;18,59663
 790,99; 9512,543;  224,977;50039,713;18,64421
 791,55; 9501,047;  205,378;50188,990;18,59743
 792,12; 9566,123;  231,378;50020,068;18,74873
 792,68; 9500,056;  215,378;49785,745;18,73030
 793,25; 9517,275;  217,578;49649,623;18,81309
 793,81; 9522,208;  253,778;49135,900;18,96078
 794,38; 9459,998;  193,378;49037,778;18,97171
 794,94; 9450,788;  206,978;48908,855;18,98040
 795,51; 9478,007;  218,978;48653,933;19,11642
 796,07; 9386,511;  222,978;48389,010;19,02489
 796,64; 9452,159;  246,778;48626,887;19,02720
 797,20; 9417,949;  225,178;48034,365;19,22804
 797,77; 9362,882;  201,978;47678,042;19,29584
 798,33; 9392,386;  205,178;47540,320;19,40885
 798,90; 9465,034;  246,378;47325,597;19,58116
 799,46; 9394,681;  218,778;46887,675;19,66171
 800,03; 9435,614;  210,378;46838,352;19,78477
 800,59; 9422,119;  237,178;46681,230;19,77635
 801,15; 9458,909;  239,978;46431,307;19,95814
 801,72; 9320,985;  199,378;46248,184;19,80856
 802,28; 9418,061;  240,778;45773,462;20,15537
 802,85; 9361,136;  219,979;45820,939;20,04598
 803,41; 9319,784;  207,179;45618,217;20,06694
 803,98; 9299,860;  212,779;45104,294;20,24231
 804,54; 9266,078;  228,979;44858,572;20,24912
 805,11; 9253,440;  234,979;44625,249;20,31630
 805,67; 9232,802;  240,379;44560,527;20,28970
 806,23; 9215,020;  225,379;44110,804;20,48434
 806,80; 9269,525;  243,379;44193,281;20,53735
 807,36; 9246,601;  261,579;44025,959;20,53044
 807,93; 9187,819;  239,779;43749,036;20,56583
 808,49; 9220,610;  227,379;43464,914;20,79959
 809,05; 9187,543;  210,779;43106,391;20,92700
 809,62; 9215,904;  235,179;43062,269;20,96973
 810,18; 9254,980;  228,779;43010,346;21,09834
 810,74; 9143,770;  197,379;42687,824;21,05507
 811,31; 9186,132;  216,579;42482,301;21,22181
 811,87; 9220,065;  224,179;42432,978;21,31282
 812,44; 9254,141;  258,979;42405,656;21,34252
 813,00; 9196,074;  191,779;42067,533;21,50241
 813,56; 9222,721;  243,779;42111,011;21,44623
 814,13; 9292,511;  227,980;42001,088;21,69944
 814,69; 9289,159;  229,380;41872,566;21,75573
 815,25; 9219,806;  197,380;41443,443;21,87464
 815,82; 9270,739;  234,380;41434,921;21,93262
 816,38; 9276,386;  256,580;41108,398;22,07933
 816,94; 9170,748;  230,780;40893,875;21,98546
 817,51; 9197,824;  199,980;40628,753;22,25604
 818,07; 9188,614;  213,380;40369,030;22,35111
 818,63; 9260,690;  234,580;40002,908;22,69673
 819,20; 9253,623;  236,180;40120,585;22,60894
 819,76; 9099,699;  228,580;39577,863;22,54455
 820,32; 9201,632;  245,380;39498,140;22,81687
 820,89; 9082,851;  250,180;39362,218;22,58300
 821,45; 9036,784;  210,580;39112,895;22,68812
 822,01; 9126,574;  235,980;38901,573;22,99355
 822,57; 9114,650;  232,780;38683,250;23,09951
 823,14; 9093,154;  218,780;38618,327;23,11062
 823,70; 9123,516;  216,780;38358,405;23,35175
 824,26; 9096,449;  231,180;38082,482;23,42130
 824,82; 9100,668;  225,781;37968,360;23,51426
 825,39; 9029,172;  213,381;37732,437;23,49684
 825,95; 9083,962;  237,781;37849,115;23,51999
 826,51; 9010,038;  231,581;37278,792;23,69533
 827,08; 9113,400;  271,781;37273,070;23,89544
 827,64; 9108,619;  239,381;37244,347;23,96770
 828,20; 9015,552;  216,581;36980,024;23,93402
 828,76; 9106,342;  240,981;36879,502;24,19683
 829,32; 9054,132;  245,581;36649,979;24,19639
 829,89; 8981,494;  202,181;36605,657;24,11669
 830,45; 9048,712;  208,181;36540,734;24,33226
 831,01; 8997,645;  230,381;36315,412;24,29613
 831,57; 8981,293;  233,181;36207,689;24,31753
 832,14; 9050,369;  217,381;36185,367;24,55792
 832,70; 9036,016;  208,181;35880,844;24,74678
 833,26; 9048,378;  188,981;35790,321;24,88501
 833,82; 9085,739;  222,181;35743,999;24,95243
 834,38; 9140,244;  205,981;35722,676;25,15511
 834,95; 9090,891;  211,581;35525,354;25,14404
 835,51; 9105,824;  186,381;35588,031;25,19499
 836,07; 9219,900;  222,182;35633,309;25,40930
 836,63; 9216,833;  240,182;35589,986;25,39378
 837,19; 9249,766;  231,582;35327,064;25,69614
 837,75; 9119,128;  191,982;35086,541;25,58320
 838,32; 9252,775;  236,782;35301,018;25,71279
 838,88; 9279,565;  240,382;35185,096;25,86710
 839,44; 9316,784;  203,782;34997,573;26,19146
 840,00; 9319,003;  211,782;35115,651;26,09230
 840,56; 9273,364;  215,182;34777,128;26,20854
 841,12; 9374,297;  210,582;34765,406;26,51935
 841,68; 9300,373;  193,182;34493,283;26,55150
 842,25; 9347,163;  212,582;34672,761;26,50764
 842,81; 9283,953;  203,782;34322,238;26,61366
 843,37; 9333,744;  186,982;34411,115;26,72606
 843,93; 9383,820;  219,182;34236,393;26,94118
 844,49; 9362,324;  223,782;34377,670;26,75696
 845,05; 9334,828;  191,582;34056,748;26,99897
 845,61; 9409,047;  241,182;34182,225;27,01115
 846,17; 9402,837;  207,782;34017,703;27,19632
 846,73; 9455,485;  222,383;34085,180;27,26621
 847,29; 9449,561;  202,783;33852,658;27,47938
 847,86; 9459,208;  196,783;33641,935;27,69437
 848,42; 9345,141;  190,383;33540,812;27,45020
 848,98; 9493,217;  214,383;33519,890;27,85976
 849,54; 9498,721;  204,183;33526,567;27,89278
 850,10; 9512,654;  228,383;33345,045;28,03505
 850,66; 9493,159;  184,783;33153,522;28,23395
 851,22; 9486,806;  182,983;33056,000;28,30231
 851,78; 9589,596;  239,983;33111,277;28,44309
 852,34; 9560,244;  200,783;32939,555;28,58831
 852,90; 9524,748;  212,183;32850,032;28,53302
 853,46; 9520,253;  197,383;32641,709;28,73498
 854,02; 9651,614;  213,983;32643,387;29,10208
 854,58; 9543,547;  203,183;32336,464;29,06757
 855,14; 9584,623;  186,583;32268,742;29,29366
 855,70; 9506,985;  169,983;32086,819;29,25416
 856,26; 9568,632;  216,383;31989,697;29,43429
 856,82; 9563,279;  205,783;31857,374;29,56406
 857,38; 9628,641;  224,383;31752,252;29,82840
 857,94; 9526,288;  204,184;31631,129;29,66278
 858,50; 9610,507;  220,984;31515,207;30,00402
 859,06; 9537,012;  224,584;31482,284;29,79243
 859,62; 9668,659;  213,384;31318,161;30,39814
 860,18; 9581,735;  208,784;31074,239;30,36712
 860,74; 9509,382;  168,984;30912,316;30,38187
 861,30; 9562,601;  173,784;30831,794;30,62435
 861,86; 9617,105;  221,584;30929,071;30,59684
 862,42; 9545,181;  205,384;30590,949;30,73761
 862,98; 9665,971;  225,784;30679,826;30,99814
 863,54; 9556,762;  213,784;30401,504;30,94960
 864,10; 9619,695;  199,384;30453,381;31,13741
 864,66; 9501,628;  204,984;30147,458;31,04835
 865,22; 9612,561;  204,984;30039,336;31,53270
 865,78; 9528,779;  211,984;30028,813;31,24677
 866,34; 9552,427;  201,784;29892,091;31,49392
 866,90; 9514,788;  221,984;29758,968;31,46159
 867,45; 9532,721;  222,184;29624,646;31,66584
 868,01; 9484,369;  222,584;29528,523;31,60378
 868,57; 9479,302;  194,184;29270,201;31,93394
 869,13; 9488,663;  189,785;29094,678;32,17060
 869,69; 9482,025;  202,185;29107,755;32,10399
 870,25; 9413,815;  189,185;29104,833;31,90186
 870,81; 9442,034;  215,785;28973,910;32,08223
 871,37; 9559,253;  209,585;28797,588;32,70487
 871,93; 9467,614;  224,185;28614,065;32,55889
 872,49; 9387,690;  221,585;28385,943;32,54505
 873,04; 9407,195;  200,185;28223,620;32,85468
 873,60; 9352,271;  190,585;28096,698;32,83039
 874,16; 9382,918;  210,585;28100,175;32,88802
 874,72; 9429,632;  199,385;28028,775;33,16726
 875,28; 9470,346;  209,785;27963,375;33,36708
 875,84; 9425,489;  186,785;27807,375;33,44861
 876,40; 9405,775;  206,985;27740,175;33,40982
 876,95; 9517,204;  221,385;27739,775;33,78039
 877,51; 9543,632;  255,785;27750,375;33,78064
 878,07; 9588,346;  239,585;27763,975;33,96537
 878,63; 9600,918;  218,585;27739,975;34,09106
 879,19; 9656,918;  223,985;27668,175;34,37133
 879,75; 9692,346;  217,185;27709,175;34,46517
 880,30; 9720,346;  205,385;27794,575;34,48801
 880,86; 9810,346;  255,185;27824,575;34,65859
 881,42; 9870,061;  190,185;27869,775;34,97117
 881,98; 9864,346;  224,585;28080,175;34,60620
 882,54; 9926,632;  217,985;28017,575;34,92371
 883,09;10065,775;  226,985;28170,175;35,20997
 883,65;10117,632;  215,585;28300,375;35,25769
 884,21;10157,346;  239,585;28441,775;35,16664
 884,77;10224,346;  217,985;28552,975;35,31450
 885,32;10301,204;  211,185;28662,975;35,46356
 885,88;10415,918;  240,985;28801,975;35,62528
 886,44;10534,204;  212,785;28912,775;35,96314
 887,00;10533,204;  229,785;28898,775;35,93925
 887,56;10658,918;  221,785;29149,775;36,07970
 888,11;10698,346;  217,985;29168,175;36,20136
 888,67;10833,632;  240,185;29323,575;36,42439
 889,23;10892,346;  227,385;29229,775;36,77270
 889,79;10844,204;  208,785;29260,375;36,60873
 890,34;10890,918;  208,785;29149,575;36,91030
 890,90;10928,918;  250,985;29173,175;36,91952
 891,46;10929,918;  217,585;29233,975;36,91821
 892,01;10989,204;  240,585;29083,775;37,26571
 892,57;10945,489;  245,785;29088,775;37,09638
 893,13;10894,632;  226,185;28995,775;37,08237
 893,69;10946,346;  207,585;28903,575;37,42252
 894,24;10922,632;  218,185;28830,175;37,41245
 894,80;10932,346;  225,785;28553,575;37,79526
 895,36;10907,775;  207,385;28458,575;37,87589
 895,91;10848,489;  213,985;28280,375;37,89053
 896,47;10861,061;  230,185;28094,775;38,15192
 897,03;10804,346;  210,385;27903,775;38,25448
 897,58;10776,204;  217,785;27717,175;38,39510
 898,14;10805,204;  233,985;27673,575;38,52542
 898,70;10775,346;  197,385;27601,175;38,60036
 899,25;10737,775;  209,185;27406,375;38,71205
 899,81;10774,489;  238,185;27203,575;39,07344
 900,37;10677,061;  190,985;27044,375;39,04936
 900,92;10739,061;  220,185;26966,575;39,32821
 901,48;10661,489;  204,185;26834,575;39,26831
 902,03;10666,204;  199,385;26749,975;39,42217
 902,59;10666,489;  219,585;26734,975;39,39940
 903,15;10711,489;  242,585;26494,775;39,87821
 903,70;10606,632;  228,985;26272,975;39,84661
 904,26;10660,061;  195,185;26118,375;40,36878
 904,82;10582,632;  217,385;26110,975;40,03017
 905,37;10637,918;  215,585;26019,975;40,38977
 905,93;10570,918;  211,185;25899,975;40,32784
 906,48;10716,346;  230,185;25755,975;41,08065
 907,04;10693,775;  248,585;25767,175;40,93169
 907,60;10577,775;  205,985;25499,175;41,00626
 908,15;10546,489;  208,785;25448,375;40,95829
 908,71;10565,061;  251,385;25480,975;40,87928
 909,26;10565,775;  211,185;25169,375;41,48774
 909,82;10556,632;  237,185;25158,575;41,40799
 910,37;10563,918;  250,785;24900,975;41,83794
 910,93;10496,489;  206,785;24712,775;41,98853
 911,48;10451,346;  209,585;24621,375;41,95416
 912,04;10464,204;  203,585;24537,375;42,16613
 912,60;10502,632;  240,185;24691,775;41,97047
 913,15;10453,061;  233,585;24388,775;42,30758
 913,71;10456,204;  208,985;24185,975;42,73772
 914,26;10418,632;  207,785;24091,775;42,75185
 914,82;10381,204;  223,985;24053,375;42,62475
 915,37;10372,061;  209,785;23898,375;42,89945
 915,93;10466,775;  278,185;23892,775;43,14532
 916,48;10303,061;  215,785;23672,775;43,00328
 917,04;10348,918;  232,185;23553,975;43,37889
 917,59;10408,489;  251,985;23506,375;43,67564
 918,15;10302,061;  172,985;23242,175;43,90737
 918,70;10284,918;  194,585;23323,175;43,62710
 919,26;10243,918;  225,985;23132,575;43,73385
 919,81;10234,632;  191,385;23044,175;43,94758
 920,37;10223,918;  209,585;22783,375;44,36266
 920,92;10282,489;  215,385;22795,975;44,58300
 921,48;10146,918;  200,185;22586,375;44,43245
 922,03;10173,632;  214,985;22528,375;44,63081
 922,59;10181,204;  224,785;22401,375;44,89608
 923,14;10140,204;  210,185;22325,175;44,90175
 923,69;10159,346;  224,585;22390,575;44,81984
 924,25;10168,346;  234,585;22114,975;45,40029
 924,80;10145,918;  219,585;21933,575;45,71400
 925,36;10082,918;  216,585;21980,375;45,33371
 925,91;10090,061;  213,985;21765,175;45,82613
 926,47;10114,632;  192,985;21704,975;46,12148
 927,02;10145,061;  246,185;21669,975;46,20506
 927,57; 9991,632;  217,385;21431,775;46,07367
 928,13;10011,346;  215,385;21399,175;46,24272
 928,68;10021,918;  214,385;21298,775;46,51561
 929,24; 9914,346;  194,985;21056,975;46,58885
 929,79; 9893,775;  195,185;20994,175;46,63010
 930,34; 9946,204;  220,985;20909,175;47,00855
 930,90; 9884,918;  200,585;20822,575;46,96119
 931,45; 9877,204;  208,985;20760,775;47,04319
 932,01; 9861,204;  226,985;20826,175;46,76989
 932,56; 9884,775;  236,785;20657,975;47,24499
 933,11; 9866,346;  224,785;20495,575;47,56382
 933,67; 9722,918;  218,985;20367,175;47,17016
 934,22; 9710,346;  224,385;20302,375;47,24557
 934,77; 9781,918;  223,585;20152,375;47,96243
 935,33; 9687,918;  228,985;20031,775;47,76566
 935,88; 9760,632;  228,585;20037,175;48,12078
 936,43; 9716,632;  224,785;19867,775;48,32180
 936,99; 9703,775;  203,985;19779,775;48,52826
 937,54; 9633,061;  199,385;19705,575;48,36247
 938,09; 9710,061;  214,385;19494,375;49,25146
 938,65; 9682,489;  212,785;19343,175;49,50084
 939,20; 9632,775;  194,585;19422,175;49,08670
 939,75; 9622,775;  197,185;19246,375;49,48027
 940,31; 9523,061;  193,785;19051,175;49,47278
 940,86; 9614,061;  203,585;19200,975;49,53562
 941,41; 9699,346;  264,985;19011,775;50,32521
 941,96; 9555,346;  207,185;18855,975;50,12744
 942,52; 9567,204;  216,385;18838,175;50,21439
 943,07; 9494,918;  193,785;18730,975;50,17553
 943,62; 9459,775;  201,585;18591,975;50,34254
 944,18; 9496,775;  190,585;18531,975;50,73874
 944,73; 9578,489;  216,785;18403,975;51,47417
 945,28; 9419,489;  181,185;18284,575;51,03080
 945,83; 9392,061;  223,385;18173,575;51,07843
 946,39; 9475,061;  203,785;18154,575;51,64829
 946,94; 9413,918;  234,985;18027,775;51,58793
 947,49; 9391,346;  214,585;17934,375;51,78821
 948,04; 9371,489;  227,185;17990,975;51,47721
 948,59; 9290,775;  229,785;17823,975;51,49990
 949,15; 9344,489;  196,785;17696,575;52,27322
 949,70; 9306,775;  213,385;17583,375;52,35115
 950,25; 9167,489;  231,785;17544,775;51,61272
 950,80; 9187,918;  187,385;17522,775;51,91999
 951,36; 9157,775;  180,985;17437,175;52,02070
 951,91; 9216,489;  211,785;17414,175;52,34566
 952,46; 9052,061;  181,585;17155,375;52,25984
 953,01; 9091,061;  215,185;17166,975;52,35952
 953,56; 9029,775;  186,385;17089,975;52,31664
 954,11; 9028,061;  231,985;17015,775;52,40816
 954,67; 9057,489;  204,985;16958,175;52,84071
 955,22; 8990,204;  188,985;16687,775;53,34463
 955,77; 8978,489;  234,585;16719,375;53,04225
 956,32; 9018,204;  251,185;16646,375;53,47311
 956,87; 8828,489;  206,385;16472,775;53,00564
 957,42; 8832,346;  206,985;16494,775;52,95600
 957,98; 8854,489;  201,785;16257,375;53,89216
 958,53; 8909,775;  224,385;16301,175;54,02440
 959,08; 8821,346;  190,785;16218,575;53,84748
 959,63; 8757,346;  190,585;16122,175;53,77217
 960,18; 8836,204;  217,185;16053,375;54,42609
 960,73; 8789,204;  208,985;15932,375;54,56978
 961,28; 8802,346;  200,785;15844,375;54,98457
 961,83; 8820,775;  216,385;15855,775;55,01743
 962,39; 8757,918;  200,185;15688,175;55,25399
 962,94; 8697,775;  215,585;15571,575;55,23701
 963,49; 8603,918;  209,785;15532,375;54,78273
 964,04; 8628,775;  214,985;15423,175;55,32407
 964,59; 8587,061;  203,585;15309,575;55,49769
 965,14; 8646,204;  214,785;15274,375;55,98704
 965,69; 8605,346;  195,585;15175,975;56,13847
 966,24; 8487,489;  189,785;15058,575;55,80618
 966,79; 8478,489;  215,585;14974,175;55,98708
 967,34; 8352,204;  191,185;14867,575;55,60644
 967,89; 8359,918;  211,985;14773,375;55,95574
 968,44; 8382,775;  219,585;14791,175;56,02127
 968,99; 8462,918;  226,785;14619,175;57,22561
 969,55; 8297,918;  220,985;14511,975;56,51766
 970,10; 8299,775;  214,385;14446,775;56,80978
 970,65; 8273,061;  227,385;14262,975;57,32339
 971,20; 8190,489;  199,185;14271,175;56,78873
 971,75; 8152,346;  188,185;14090,175;57,28792
 972,30; 8163,346;  217,785;14004,775;57,63086
 972,85; 8122,775;  203,585;14013,975;57,34226
 973,40; 8054,204;  203,185;13823,575;57,64166
 973,95; 8081,204;  220,985;13810,175;57,84170
 974,50; 8045,632;  241,385;13734,375;57,83927
 975,05; 7998,632;  215,785;13633,775;58,00308
 975,60; 7997,204;  241,185;13571,975;58,18124
 976,15; 7991,489;  211,385;13443,575;58,79680
 976,70; 7949,632;  222,185;13370,975;58,76926
 977,25; 8007,204;  211,985;13416,975;59,03237
 977,80; 7866,632;  195,985;13126,975;59,31988
 978,35; 7871,346;  211,985;13055,175;59,63753
 978,89; 7770,918;  199,385;12930,375;59,47324
 979,44; 7798,918;  217,785;12903,375;59,76177
 979,99; 7701,918;  201,985;12765,375;59,69673
 980,54; 7695,775;  228,185;12675,975;59,99129
 981,09; 7626,204;  222,585;12618,175;59,72784
 981,64; 7638,061;  221,585;12389,575;60,95071
 982,19; 7619,918;  242,985;12345,775;60,95233
 982,74; 7512,204;  231,185;12263,975;60,50981
 983,29; 7428,918;  192,785;12115,775;60,69059
 983,84; 7393,489;  227,985;12057,575;60,57272
 984,39; 7464,346;  249,385;11963,175;61,59374
 984,94; 7290,061;  200,585;11862,975;60,78922
 985,49; 7275,632;  232,385;11793,175;60,92358
 986,03; 7247,061;  233,785;11663,975;61,35747
 986,58; 7246,061;  268,785;11628,175;61,42298
 987,13; 7173,061;  207,985;11411,575;62,16825
 987,68; 7117,489;  235,985;11312,375;62,12768
 988,23; 7071,346;  226,985;11250,175;62,09057
 988,78; 7024,489;  223,785;11109,775;62,47208
 989,33; 6958,346;  220,985;10968,775;62,68602
 989,88; 6967,204;  251,985;10965,975;62,67710
 990,42; 6905,204;  223,185;10787,175;63,25279
 990,97; 6835,489;  223,185;10681,175;63,22730
 991,52; 6843,489;  235,185;10688,575;63,21685
 992,07; 6776,346;  244,585;10498,775;63,69846
 992,62; 6718,061;  228,185;10449,775;63,49184
 993,17; 6752,775;  230,185;10255,775;65,05941
 993,71; 6637,918;  236,585;10236,375;64,01467
 994,26; 6576,489;  218,185;10051,175;64,66298
 994,81; 6600,632;  239,985;10001,575;65,15995
 995,36; 6459,204;  208,985; 9878,775;64,63655
 995,91; 6552,204;  227,185; 9840,775;65,79247
 996,45; 6425,346;  223,185; 9708,175;65,38922
 997,00; 6359,204;  208,785; 9556,175;65,79824
 997,55; 6415,061;  226,185; 9570,575;66,23092
 998,10; 6287,632;  235,785; 9334,575;66,51266
 998,65; 6242,346;  207,185; 9332,975;66,13303
 999,19; 6162,632;  234,585; 9289,775;65,46574
 999,74; 6124,775;  237,185; 9119,375;66,28534
1000,29; 6136,489;  247,185; 9050,575;66,89814
1000,84; 6038,632;  226,385; 8927,975;66,79523
1001,38; 6002,632;  225,985; 8722,975;67,98463
1001,93; 5975,632;  227,185; 8819,575;66,90161
1002,48; 5853,632;  213,185; 8628,775;67,02379
1003,03; 5855,489;  222,785; 8504,975;68,00984
1003,57; 5809,204;  232,985; 8453,975;67,82904
1004,12; 5711,204;  233,185; 8326,175;67,68844
1004,67; 5691,489;  223,985; 8297,175;67,72421
1005,22; 5609,346;  214,785; 8139,375;68,07370
1005,76; 5507,632;  212,585; 7986,175;68,11585
1006,31; 5504,775;  234,985; 7930,775;68,47627
1006,86; 5407,918;  221,985; 7767,575;68,72800
1007,40; 5338,775;  198,185; 7624,975;69,21685
1007,95; 5268,632;  230,385; 7621,375;68,16742
1008,50; 5210,775;  234,185; 7447,975;68,98718
1009,04; 5146,632;  218,385; 7419,175;68,44037
1009,59; 5068,346;  221,585; 7293,975;68,53074
1010,14; 4996,346;  215,585; 7124,575;69,19624
1010,68; 4895,489;  223,785; 7028,975;68,64914
1011,23; 4814,489;  189,385; 6898,975;68,93274
1011,78; 4836,061;  238,385; 6909,775;68,91631
1012,32; 4731,918;  221,385; 6682,575;69,80963
1012,87; 4718,061;  239,585; 6755,175;68,73477
1013,42; 4657,918;  212,185; 6570,975;69,91476
1013,96; 4638,061;  242,985; 6621,575;68,90356
1014,51; 4581,061;  182,185; 6500,175;69,62461
1015,06; 4557,204;  191,385; 6547,775;68,68393
1015,60; 4621,918;  264,385; 6593,375;68,85037
1016,15; 4539,632;  213,785; 6555,575;68,21177
1016,69; 4584,346;  226,585; 6498,375;69,48194
1017,24; 4583,346;  203,185; 6530,775;69,22322
1017,79; 4635,918;  249,985; 6580,175;69,28596
1018,33; 4650,489;  211,185; 6584,175;69,65811
1018,88; 4714,632;  248,185; 6615,975;70,14124
1019,42; 4697,204;  230,585; 6633,375;69,76050
1019,97; 4672,204;  199,585; 6670,375;69,12013
1020,51; 4737,775;  232,385; 6724,975;69,39280
1021,06; 4722,204;  201,185; 6703,975;69,52429
1021,61; 4690,346;  183,385; 6564,775;70,62664
1022,15; 4680,204;  170,385; 6554,375;70,64263
1022,70; 4732,632;  221,985; 6591,975;70,81090
1023,24; 4711,346;  185,985; 6595,975;70,59857
1023,79; 4690,346;  206,185; 6495,775;71,29497
1024,33; 4678,775;  206,185; 6476,975;71,32419
1024,88; 4629,632;  211,185; 6419,975;71,16438
1025,42; 4561,061;  214,785; 6222,175;72,34882
1025,97; 4509,061;  211,785; 6173,175;72,08513
1026,51; 4434,204;  175,985; 6033,175;72,70071
1027,06; 4419,061;  206,185; 6053,375;72,04958
1027,60; 4388,775;  205,585; 5935,175;73,01029
1028,15; 4333,204;  230,585; 5842,775;73,10192
1028,69; 4218,632;  196,985; 5694,375;73,15557
1029,24; 4195,204;  211,385; 5638,775;73,40211
1029,78; 4170,061;  208,385; 5525,175;74,51255
1030,33; 4063,346;  185,985; 5398,775;74,38169
1030,87; 4065,061;  212,385; 5365,775;74,76003
1031,42; 3969,918;  194,385; 5274,975;74,31288
1031,96; 3952,918;  216,985; 5209,175;74,83555
1032,51; 3940,918;  198,785; 5159,575;75,43421
1033,05; 3850,204;  216,785; 5094,375;74,49209
1033,60; 3785,918;  166,785; 4986,175;75,09525
1034,14; 3783,346;  200,185; 4900,775;76,22791
1034,69; 3730,204;  210,185; 4821,375;76,33645
1035,23; 3679,346;  205,985; 4730,975;76,75954
1035,77; 3683,061;  193,585; 4674,375;77,87635
1036,32; 3561,918;  169,185; 4629,175;76,07041
1036,86; 3591,204;  202,185; 4530,575;78,29744
1037,41; 3522,489;  219,585; 4518,575;76,82977
1037,95; 3404,061;  182,985; 4436,375;75,72961
1038,50; 3408,632;  194,985; 4351,775;77,31079
1039,04; 3408,632;  216,385; 4251,375;79,11413
1039,58; 3316,632;  195,985; 4206,575;77,81018
1040,13; 3273,632;  193,185; 4211,375;76,66256
1040,67; 3298,775;  232,985; 4143,575;78,39712
1041,21; 3216,204;  234,385; 4054,975;78,04602
1041,76; 3089,775;  189,585; 3998,975;76,13266
1042,30; 3109,632;  207,185; 3960,575;77,32869
1042,85; 3071,061;  205,185; 3900,775;77,54853
1043,39; 3062,489;  196,585; 3840,775;78,64311
1043,93; 3051,061;  213,185; 3768,575;79,81897
1044,48; 2962,204;  221,785; 3745,575;77,76907
1045,02; 2940,061;  194,985; 3677,575;78,82282
1045,56; 2893,632;  226,785; 3593,175;79,21979
1046,11; 2868,489;  209,985; 3566,175;79,21197
1046,65; 2831,775;  219,985; 3509,575;79,39561
1047,19; 2776,632;  187,785; 3480,975;78,61214
1047,74; 2742,918;  191,985; 3379,375;80,03203
1048,28; 2746,346;  214,785; 3427,975;78,78655
1048,82; 2709,061;  220,785; 3358,975;79,29015
1049,37; 2651,775;  215,385; 3284,775;79,37701
1049,91; 2589,346;  197,185; 3303,375;77,01272
1050,45; 2577,204;  224,985; 3245,375;77,87798
1050,99; 2565,918;  202,985; 3149,375;80,19756
1051,54; 2504,061;  207,185; 3100,375;79,38904
1052,08; 2498,489;  228,785; 3086,975;79,41055
1052,62; 2459,061;  223,985; 3023,975;79,82442
1053,16; 2444,204;  206,585; 2934,575;82,02444
1053,71; 2420,489;  218,585; 2966,975;80,11615
1054,25; 2375,204;  217,185; 2879,175;81,06787
1054,79; 2336,061;  222,585; 2843,975;80,62424
1055,33; 2289,061;  199,185; 2783,975;80,85282
1055,88; 2292,061;  232,185; 2776,975;80,94482
1056,42; 2236,918;  227,185; 2762,175;79,27972
1056,96; 2255,061;  234,585; 2692,975;82,18695
1057,50; 2229,204;  224,185; 2648,775;82,69516
1058,05; 2182,918;  222,785; 2621,975;81,69978
1058,59; 2170,918;  233,985; 2547,775;83,71256
1059,13; 2115,061;  201,585; 2473,175;84,23508
1059,67; 2102,204;  228,185; 2524,575;81,60716
1060,21; 2073,204;  215,385; 2451,775;83,07221
1060,76; 2060,489;  235,185; 2440,975;82,75059
1061,30; 2029,204;  244,385; 2377,175;83,68468
1061,84; 2003,061;  210,185; 2358,375;83,45983
1062,38; 1929,061;  199,585; 2303,775;82,19199
1062,92; 1971,918;  260,985; 2322,375;82,99899
1063,46; 1942,775;  242,585; 2245,575;84,88260
1064,01; 1861,918;  204,785; 2226,575;81,96365
1064,55; 1877,489;  229,585; 2221,575;82,72653
1065,09; 1824,775;  198,385; 2126,375;84,35677
1065,63; 1852,346;  230,785; 2131,775;85,30089
1066,17; 1841,918;  245,785; 2102,975;85,94343
1066,71; 1804,489;  231,785; 2098,775;84,23742
1067,25; 1749,204;  237,185; 2061,175;82,89621
1067,80; 1768,918;  238,385; 2045,975;84,67257
1068,34; 1773,204;  250,385; 2047,175;84,75217
1068,88; 1694,346;  217,585; 1981,175;83,73610
1069,42; 1682,061;  258,185; 1998,375;81,82300
1069,96; 1646,918;  225,385; 1939,175;82,94674
1070,50; 1680,775;  251,585; 1942,975;84,49796
1071,04; 1618,489;  203,185; 1908,175;83,00954
1071,58; 1637,346;  218,385; 1881,175;85,33618
1072,12; 1604,632;  218,785; 1812,975;86,93112
1072,66; 1598,061;  232,985; 1827,175;85,62817
1073,21; 1598,204;  235,985; 1839,175;84,96925
1073,75; 1531,061;  235,385; 1805,975;82,49611
1074,29; 1535,775;  240,585; 1778,575;84,21316
1074,83; 1539,632;  249,585; 1748,175;86,08406
1075,37; 1525,204;  243,785; 1726,975;86,39612
1075,91; 1519,775;  232,185; 1720,975;86,48567
1076,45; 1480,204;  228,385; 1687,775;85,77684
1076,99; 1460,346;  254,785; 1650,975;86,34652
1077,53; 1426,489;  222,185; 1646,575;84,54877
1078,07; 1399,918;  241,185; 1615,975;84,28435
1078,61; 1389,204;  218,785; 1609,375;84,16705
1079,15; 1383,775;  222,985; 1585,575;85,18997
1079,69; 1368,775;  223,985; 1549,175;86,38686
1080,23; 1374,489;  244,385; 1572,175;85,11167
1080,77; 1400,632;  246,985; 1569,375;87,23955
1081,31; 1313,775;  203,985; 1501,375;85,54020
1081,85; 1315,489;  245,185; 1514,175;84,34300
1082,39; 1305,632;  215,385; 1467,975;87,03943
1082,93; 1293,346;  210,785; 1449,975;87,36041
1083,47; 1258,204;  214,785; 1425,775;86,16244
1084,01; 1294,489;  250,185; 1426,975;88,74177
1084,55; 1255,918;  212,385; 1393,175;88,37582
1085,09; 1242,632;  242,585; 1387,375;87,35638
1085,63; 1243,061;  223,185; 1392,375;87,22925
1086,17; 1199,775;  220,585; 1358,775;86,03045
1086,71; 1198,632;  236,585; 1333,575;87,69881
1087,24; 1223,061;  248,585; 1347,175;88,70240
1087,78; 1214,061;  222,985; 1311,775;91,02542
1088,32; 1138,061;  213,785; 1278,575;86,80357
1088,86; 1182,918;  242,385; 1315,375;87,65532
1089,40; 1166,204;  219,785; 1272,175;89,93040
1089,94; 1123,489;  196,585; 1241,175;88,73379
1090,48; 1126,061;  226,985; 1241,775;88,59722
1091,02; 1138,489;  233,785; 1239,175;89,98541
1091,56; 1106,061;  234,985; 1212,175;89,14087
1092,10; 1082,204;  217,785; 1190,975;88,82321
1092,63; 1076,061;  248,985; 1209,575;86,10080
1093,17; 1082,489;  230,985; 1195,975;88,23970
1093,71; 1059,632;  227,385; 1151,775;90,03204
1094,25; 1077,346;  249,785; 1176,375;89,31258
1094,79; 1037,346;  247,785; 1129,175;89,58139
1095,33; 1013,346;  232,585; 1100,975;89,90908
1095,87; 1037,204;  230,985; 1142,375;88,46033
1096,40;  982,061;  206,985; 1087,375;88,03777
1096,94;  994,204;  238,785; 1072,575;90,60058
1097,48; 1004,918;  235,185; 1090,775;89,96515
1098,02;  962,775;  210,785; 1066,575;87,87086
1098,56;  920,346;  196,985;  999,175;90,17333
1099,10;  934,061;  211,585;  999,375;91,70918
1099,63;  924,632;  209,785; 1018,775;88,36291
1100,17;  925,775;  244,185; 1028,775;86,87212
1100,71;  941,061;  239,985; 1012,375;90,76706

