
Integration time [ms]: 130,000
Averaging Nr. [scans]: 7
Smoothing Nr. [pixels]: 0
Data measured with spectrometer [name]: 2009305U1
Wave   ;Sample   ;Dark     ;Reference;Reflectance
[nm]   ;[counts] ;[counts] ;[counts] ;[%]

 175,72;  207,971;  192,986;  201,498;176,05920
 176,32;  247,114;  222,384;  221,717; 0,00000
 176,92;  268,750;  241,385;  235,854; 0,00000
 177,52;  263,430;  259,786;  258,523; 0,00000
 178,12;  234,711;  246,984;  204,441; 0,00000
 178,72;  274,500;  250,783;  241,274; 0,00000
 179,32;  261,384;  247,384;  249,069;830,75396
 179,92;  266,942;  231,385;  239,762;424,44969
 180,52;  248,000;  244,988;  241,098; 0,00000
 181,12;  269,820;  248,385;  229,716; 0,00000
 181,73;  293,632;  272,585;  262,308; 0,00000
 182,33;  361,845;  306,387;  321,281;372,34936
 182,93;  294,511;  256,186;  256,932; 0,00000
 183,53;  245,127;  246,183;  223,624; 0,00000
 184,13;  249,454;  236,383;  230,131; 0,00000
 184,73;  283,146;  249,982;  256,507;508,29962
 185,33;  285,081;  234,768;  346,100;45,19216
 185,93;  278,210;  232,166;  351,877;38,46243
 186,53;  309,324;  241,967;  348,122;63,45156
 187,13;  336,441;  257,569;  394,908;57,42852
 187,73;  298,368;  220,566;  335,660;67,59910
 188,33;  300,193;  254,365;  362,824;42,25346
 188,93;  298,552;  244,562;  398,475;35,07848
 189,53;  309,960;  258,559;  392,476;38,38253
 190,13;  349,099;  283,155;  430,284;44,82019
 190,73;  289,008;  220,558;  363,114;48,01622
 191,34;  316,785;  253,561;  378,621;50,55499
 191,94;  297,736;  240,364;  345,758;54,43554
 192,54;  304,526;  245,370;  399,729;38,32354
 193,14;  321,119;  248,969;  381,307;54,51965
 193,74;  311,807;  249,968;  364,047;54,20695
 194,34;  318,171;  227,969;  353,891;71,63312
 194,94;  268,344;  218,569;  355,716;36,29291
 195,54;  254,092;  215,168;  334,977;32,48820
 196,14;  291,335;  221,569;  355,380;52,13773
 196,74;  270,325;  216,167;  336,993;44,82334
 197,34;  253,848;  188,971;  344,465;41,72338
 197,94;  284,104;  220,769;  365,195;43,85332
 198,54;  296,749;  238,769;  365,333;45,81047
 199,14;  269,141;  213,971;  370,842;35,16873
 199,74;  253,773;  202,971;  374,033;29,69818
 200,34;  257,060;  199,372;  356,968;36,60502
 200,94;  303,184;  232,170;  410,644;39,78961
 201,54;  277,288;  216,571;  406,478;31,97200
 202,14;  306,107;  231,172;  444,781;35,08031
 202,74;  293,748;  223,371;  453,508;30,58026
 203,34;  283,247;  184,573;  446,416;37,68425
 203,94;  247,556;  173,772;  465,735;25,27171
 204,54;  329,793;  229,569;  530,605;33,29315
 205,14;  302,125;  190,571;  533,994;32,48300
 205,74;  337,981;  239,373;  624,034;25,63504
 206,34;  312,887;  210,772;  632,343;24,22257
 206,94;  328,111;  212,972;  703,417;23,47651
 207,54;  313,719;  188,772;  726,418;23,23959
 208,14;  355,990;  196,172;  794,506;26,71044
 208,74;  331,528;  217,771;  891,670;16,88044
 209,34;  364,927;  210,171;  960,509;20,62474
 209,94;  408,217;  204,571; 1037,280;24,45584
 210,54;  388,781;  213,973; 1112,879;19,44681
 211,14;  409,238;  204,571; 1236,499;19,83340
 211,73;  433,313;  197,971; 1326,867;20,84711
 212,33;  470,980;  206,770; 1438,453;21,45113
 212,93;  483,548;  203,171; 1522,488;21,25170
 213,53;  449,018;  174,371; 1562,260;19,78882
 214,13;  503,651;  205,174; 1652,697;20,61987
 214,73;  483,535;  195,372; 1657,381;19,71009
 215,33;  492,503;  168,771; 1707,080;21,04465
 215,93;  535,256;  206,573; 1816,158;20,42039
 216,53;  511,839;  162,571; 1892,659;20,18788
 217,13;  633,256;  227,173; 2126,822;21,37674
 217,73;  619,236;  196,373; 2281,539;20,27959
 218,33;  628,907;  148,574; 2495,337;20,46789
 218,93;  717,932;  192,576; 2756,037;20,49400
 219,53;  787,254;  185,774; 3043,728;21,04582
 220,13;  852,244;  168,574; 3315,721;21,72349
 220,73;  952,054;  196,771; 3663,262;21,78811
 221,32; 1026,671;  176,771; 4002,670;22,21439
 221,92; 1142,474;  167,774; 4489,701;22,55243
 222,52; 1242,119;  177,173; 4825,264;22,91147
 223,12; 1336,446;  176,973; 5207,436;23,04903
 223,72; 1454,936;  185,573; 5646,427;23,24476
 224,32; 1571,864;  194,973; 5979,694;23,80221
 224,92; 1661,548;  176,373; 6339,999;24,09580
 225,52; 1740,887;  191,372; 6688,408;23,84957
 226,12; 1855,751;  188,373; 6945,384;24,67627
 226,72; 1924,235;  156,572; 7238,269;24,96101
 227,31; 2027,061;  154,172; 7537,973;25,36484
 227,91; 2166,279;  179,172; 7960,806;25,53586
 228,51; 2257,348;  181,371; 8348,198;25,41963
 229,11; 2388,924;  177,972; 8762,344;25,75554
 229,71; 2496,028;  176,971; 9024,802;26,21046
 230,31; 2640,682;  169,774; 9523,192;26,41717
 230,91; 2724,066;  158,770; 9767,098;26,69867
 231,51; 2834,348;  158,573;10040,244;27,07817
 232,10; 2961,509;  173,574;10533,432;26,91094
 232,70; 3104,600;  168,769;10665,091;27,97009
 233,30; 3228,930;  186,173;11029,985;28,05984
 233,90; 3322,185;  172,773;11194,690;28,57408
 234,50; 3386,619;  170,773;11401,596;28,63411
 235,10; 3499,691;  166,173;11490,599;29,43653
 235,70; 3610,488;  186,972;11624,368;29,93266
 236,29; 3649,676;  179,571;11659,240;30,22826
 236,89; 3655,296;  160,370;11714,814;30,24746
 237,49; 3704,450;  180,372;11688,736;30,62188
 238,09; 3683,887;  182,372;11480,943;30,99078
 238,69; 3637,825;  195,970;11405,171;30,70563
 239,29; 3643,581;  172,372;11141,789;31,64442
 239,89; 3554,041;  182,770;10898,509;31,46093
 240,48; 3473,714;  159,372;10599,047;31,74756
 241,08; 3430,795;  180,972;10337,522;31,99731
 241,68; 3342,882;  189,772;10061,372;31,94123
 242,28; 3220,475;  164,373; 9819,061;31,65408
 242,88; 3164,998;  198,374; 9482,888;31,95239
 243,48; 3071,388;  203,372; 9250,746;31,69998
 244,07; 2930,820;  177,372; 9107,911;30,83183
 244,67; 2917,255;  195,772; 9009,487;30,87782
 245,27; 2824,742;  195,971; 8880,267;30,27040
 245,87; 2788,977;  209,373; 8777,534;30,10686
 246,47; 2750,629;  188,171; 8790,362;29,78844
 247,06; 2711,994;  173,372; 8816,141;29,37279
 247,66; 2718,102;  172,972; 8941,810;29,02471
 248,26; 2685,349;  208,171; 9026,468;28,09134
 248,86; 2710,323;  197,971; 9181,944;27,96483
 249,46; 2659,716;  165,373; 9444,253;26,88194
 250,05; 2804,448;  195,972; 9783,266;27,20764
 250,65; 2811,292;  149,571;10138,313;26,64721
 251,25; 2879,545;  171,372;10609,388;25,94528
 251,85; 2993,995;  159,770;11118,766;25,86209
 252,44; 3086,212;  132,971;11710,174;25,50910
 253,04; 3219,483;  197,371;12463,062;24,63874
 253,64; 3312,542;  163,171;13112,912;24,31996
 254,24; 3531,673;  193,572;13970,475;24,22969
 254,84; 3670,716;  183,973;14890,853;23,70824
 255,43; 3901,207;  191,571;15757,603;23,83161
 256,03; 4029,726;  183,971;16591,684;23,43870
 256,63; 4286,408;  198,570;17660,118;23,41051
 257,23; 4480,546;  169,170;18345,547;23,71967
 257,82; 4624,202;  190,769;19251,922;23,25900
 258,42; 4730,992;  152,769;19951,490;23,12383
 259,02; 4963,120;  194,171;20729,623;23,22301
 259,62; 5109,675;  163,369;21428,059;23,26066
 260,21; 5256,084;  194,771;21896,222;23,32246
 260,81; 5302,628;  172,972;22326,403;23,15513
 261,41; 5344,641;  167,369;22570,864;23,10921
 262,01; 5523,190;  206,768;23108,504;23,21405
 262,60; 5626,260;  168,170;23373,147;23,52121
 263,20; 5672,236;  156,371;23500,628;23,62836
 263,80; 5750,827;  205,368;23599,066;23,70493
 264,40; 5826,925;  160,968;23819,858;23,94853
 264,99; 5928,929;  182,368;23843,294;24,28714
 265,59; 5917,385;  167,567;24059,513;24,06593
 266,19; 5985,317;  146,568;24172,257;24,30211
 266,78; 6098,994;  210,768;24316,185;24,42698
 267,38; 6139,417;  183,967;24330,944;24,66333
 267,98; 6093,831;  157,568;24150,966;24,74124
 268,58; 6203,386;  184,567;24217,448;25,04410
 269,17; 6215,746;  164,966;24285,346;25,08576
 269,77; 6269,173;  198,370;24085,497;25,41454
 270,37; 6139,567;  147,368;23944,855;25,17996
 270,96; 6289,187;  207,769;23900,074;25,66832
 271,56; 6199,663;  182,770;23601,023;25,69318
 272,16; 6202,758;  177,569;23375,339;25,97314
 272,75; 6165,467;  187,969;23411,568;25,73890
 273,35; 6257,958;  190,969;23294,694;26,25978
 273,95; 6295,957;  185,769;23354,159;26,37295
 274,54; 6255,372;  158,572;23331,028;26,31055
 275,14; 6521,351;  192,569;23707,828;26,91351
 275,74; 6479,661;  153,369;23879,482;26,66384
 276,33; 6687,413;  203,970;24142,154;27,08410
 276,93; 6840,974;  188,772;24583,858;27,26862
 277,53; 6976,880;  192,571;25175,231;27,15607
 278,12; 7218,235;  166,570;25657,758;27,66315
 278,72; 7420,395;  205,171;26178,411;27,77945
 279,32; 7608,625;  164,571;26753,991;27,99630
 279,91; 7943,593;  171,371;27521,361;28,41764
 280,51; 8243,702;  184,971;28009,765;28,96241
 281,11; 8477,563;  196,371;28752,665;28,99953
 281,70; 8644,889;  168,771;29039,102;29,35927
 282,30; 9046,378;  164,370;29898,623;29,87130
 282,90; 9233,617;  162,570;30314,080;30,08489
 283,49; 9503,876;  190,569;30828,085;30,39837
 284,09; 9787,307;  203,370;31190,426;30,92884
 284,69;10101,517;  185,371;31498,658;31,66754
 285,28;10340,389;  210,370;31942,235;31,92380
 285,88;10694,855;  227,969;32156,996;32,78172
 286,47;10840,842;  177,970;32188,289;33,31073
 287,07;11093,135;  194,771;32347,001;33,89614
 287,67;11366,103;  195,172;32354,546;34,73616
 288,26;11529,614;  184,971;32405,315;35,20957
 288,86;11919,782;  186,570;32495,769;36,31539
 289,46;12262,859;  186,371;32680,542;37,16509
 290,05;12654,341;  179,172;32626,997;38,44686
 290,65;13038,739;  185,370;32941,526;39,23955
 291,24;13452,778;  194,771;32878,468;40,56459
 291,84;13860,123;  202,970;33219,118;41,36507
 292,44;14244,919;  169,373;33300,709;42,48409
 293,03;14666,191;  246,171;33547,421;43,30174
 293,63;15114,444;  186,770;33615,584;44,65511
 294,22;15545,435;  208,371;33698,513;45,79576
 294,82;15760,318;  182,368;33743,792;46,41624
 295,41;15942,460;  156,771;33498,702;47,34486
 296,01;16186,324;  227,569;33383,433;48,13253
 296,61;16322,844;  194,371;33207,630;48,85453
 297,20;16199,095;  196,769;32826,653;49,04193
 297,80;16344,642;  204,972;32694,780;49,67610
 298,39;16326,995;  175,570;32287,366;50,29748
 298,99;16348,789;  191,569;32103,970;50,62991
 299,58;16404,480;  202,372;31960,897;51,01656
 300,18;16387,764;  209,372;31811,026;51,19476
 300,78;16190,095;  171,771;31484,299;51,15628
 301,37;16261,291;  207,968;31547,997;51,22306
 301,97;16244,685;  187,571;31411,847;51,42510
 302,56;16370,387;  182,570;31378,165;51,89136
 303,16;16292,055;  154,770;31499,886;51,48261
 303,75;16351,131;  174,571;31460,900;51,70488
 304,35;16418,655;  188,573;31471,397;51,88177
 304,94;16546,221;  194,771;31687,381;51,92155
 305,54;16520,671;  187,371;31750,070;51,74874
 306,13;16373,078;  151,573;31621,627;51,54585
 306,73;16369,445;  159,173;31458,566;51,79101
 307,33;16335,664;  198,772;31266,869;51,94039
 307,92;16268,936;  181,971;31330,916;51,64530
 308,52;16449,774;  169,770;31983,457;51,17296
 309,11;16763,824;  176,969;32351,365;51,55296
 309,71;16759,919;  152,968;32616,552;51,15563
 310,30;16872,941;  174,971;32954,887;50,93964
 310,90;17065,798;  185,971;33262,687;51,03236
 311,49;17025,772;  183,771;33381,562;50,73229
 312,09;17005,938;  151,372;33501,122;50,53881
 312,68;17264,018;  211,971;33895,860;50,62375
 313,28;17191,365;  158,371;34163,316;50,08975
 313,87;17246,533;  155,571;34084,705;50,37252
 314,47;17243,824;  180,169;34410,101;49,85010
 315,06;17190,584;  167,171;34623,354;49,40597
 315,66;17127,223;  175,372;34781,722;48,98480
 316,25;17020,367;  155,370;34635,211;48,91263
 316,85;16946,300;  151,972;34745,960;48,54696
 317,44;16849,405;  158,569;34808,042;48,17053
 318,04;16774,791;  154,570;34964,575;47,74553
 318,63;16717,031;  152,173;34926,013;47,63598
 319,22;16573,091;  179,570;35223,088;46,78047
 319,82;16458,439;  169,770;35286,149;46,38482
 320,41;16278,229;  180,770;35143,517;46,04175
 321,01;16190,279;  184,572;35123,206;45,81091
 321,60;16224,832;  168,770;35341,283;45,64946
 322,20;15778,329;  157,971;35299,850;44,44941
 322,79;15901,171;  208,771;35313,402;44,70179
 323,39;15776,552;  169,373;35372,034;44,33523
 323,98;15571,385;  144,771;35282,670;43,90306
 324,58;15391,361;  178,970;35129,905;43,52499
 325,17;15208,918;  196,170;35027,392;43,10141
 325,76;14998,869;  188,171;34881,219;42,69068
 326,36;14726,090;  149,972;34539,463;42,38539
 326,95;14394,113;  188,371;34192,512;41,77651
 327,55;14120,490;  153,970;33899,863;41,38732
 328,14;13819,556;  170,972;33373,200;41,10743
 328,74;13517,755;  209,170;33084,174;40,48238
 329,33;13242,284;  182,972;32760,777;40,08653
 329,92;12928,359;  158,569;31966,499;40,14656
 330,52;12532,423;  188,172;31457,277;39,47747
 331,11;12262,562;  179,770;31131,730;39,03724
 331,71;11872,879;  183,571;30498,361;38,55975
 332,30;11653,650;  180,371;29967,981;38,51695
 332,89;11306,544;  211,371;29360,253;38,06380
 333,49;10983,271;  177,171;28810,559;37,73951
 334,08;10678,475;  185,570;28460,415;37,11039
 334,68;10524,235;  184,370;28111,558;37,02437
 335,27;10167,791;  194,572;27666,421;36,30341
 335,86;10009,991;  225,970;27437,330;35,95565
 336,46; 9782,184;  194,772;27302,755;35,36749
 337,05; 9623,246;  170,170;27101,835;35,10023
 337,65; 9499,393;  161,970;26927,606;34,88586
 338,24; 9375,768;  230,171;26958,727;34,21658
 338,83; 9293,717;  214,371;26752,013;34,21308
 339,43; 9163,902;  166,370;26752,745;33,84265
 340,02; 9054,800;  181,970;26565,382;33,63034
 340,61; 8994,997;  175,971;26737,307;33,20250
 341,21; 8888,469;  207,170;26763,374;32,69029
 341,80; 8751,444;  187,370;26798,720;32,18204
 342,40; 8771,087;  194,772;26864,163;32,15789
 342,99; 8663,830;  180,971;26944,253;31,69588
 343,58; 8706,856;  176,772;27133,577;31,64353
 344,18; 8683,198;  180,572;27216,597;31,44925
 344,77; 8688,040;  173,570;27606,039;31,03793
 345,36; 8635,828;  160,371;27912,912;30,53939
 345,96; 8693,172;  210,972;28078,872;30,43717
 346,55; 8726,945;  176,173;28447,768;30,24510
 347,14; 8742,704;  160,972;28783,106;29,98285
 347,74; 8742,494;  139,974;29189,920;29,61286
 348,33; 8932,886;  191,974;29817,918;29,50425
 348,92; 9063,439;  183,775;30549,105;29,24277
 349,52; 9114,081;  156,174;30955,103;29,08513
 350,11; 9180,841;  162,170;31210,819;29,04690
 350,70; 9131,666;  172,171;31120,364;28,94998
 351,29; 9006,249;  152,368;30924,689;28,77222
 351,89; 8907,094;  179,969;30993,518;28,32236
 352,48; 8861,762;  148,171;30885,421;28,34864
 353,07; 8910,454;  183,172;30877,907;28,43251
 353,67; 8827,083;  190,175;30820,573;28,19718
 354,26; 8660,005;  178,172;30601,753;27,87914
 354,85; 8636,775;  177,172;30468,703;27,92729
 355,45; 8472,072;  147,370;30439,404;27,48149
 356,04; 8408,939;  173,573;30375,327;27,26784
 356,63; 8402,078;  206,771;30066,646;27,44589
 357,22; 8232,949;  184,368;29905,512;27,08032
 357,82; 8214,083;  187,968;29668,706;27,22495
 358,41; 8151,889;  199,771;29572,438;27,07319
 359,00; 8140,346;  163,770;29435,592;27,25002
 359,60; 8049,467;  185,571;29456,479;26,86591
 360,19; 8022,771;  182,373;29120,338;27,09382
 360,78; 7925,791;  182,770;29146,310;26,73368
 361,37; 7893,996;  189,170;28916,701;26,82035
 361,97; 7873,848;  182,971;28635,265;27,03078
 362,56; 7772,478;  167,969;28360,780;26,97322
 363,15; 7744,796;  215,170;28158,481;26,94608
 363,74; 7603,186;  172,569;27752,539;26,94208
 364,34; 7549,841;  182,370;27352,554;27,11602
 364,93; 7426,677;  175,169;26963,065;27,07009
 365,52; 7309,991;  145,370;26728,130;26,95213
 366,11; 7319,076;  181,770;26167,240;27,46653
 366,71; 7167,377;  159,970;26022,688;27,09463
 367,30; 7108,654;  174,170;25559,416;27,31698
 367,89; 7120,412;  206,172;25401,865;27,44215
 368,48; 6991,595;  166,169;25075,721;27,40084
 369,07; 6936,523;  183,571;24633,164;27,61989
 369,67; 6877,728;  191,769;24284,979;27,75039
 370,26; 6787,074;  168,771;24087,545;27,66991
 370,85; 6723,547;  186,170;23838,483;27,63948
 371,44; 6684,185;  177,571;23618,579;27,75740
 372,03; 6667,856;  168,370;23337,002;28,05296
 372,63; 6625,476;  147,771;23093,550;28,23049
 373,22; 6549,497;  167,171;22783,439;28,22007
 373,81; 6536,960;  147,170;22461,635;28,63519
 374,40; 6457,000;  169,372;22139,047;28,61957
 374,99; 6433,434;  165,970;21953,443;28,76636
 375,59; 6403,515;  156,172;21667,828;29,04166
 376,18; 6456,858;  191,770;21468,872;29,44521
 376,77; 6483,655;  203,371;21364,952;29,67776
 377,36; 6458,644;  199,370;21278,940;29,69355
 377,95; 6423,785;  176,570;20936,669;30,09242
 378,55; 6371,851;  175,772;20880,606;29,92576
 379,14; 6437,200;  198,770;20761,892;30,33795
 379,73; 6432,337;  184,170;20648,651;30,53176
 380,32; 6513,721;  202,171;20712,913;30,77192
 380,91; 6483,906;  151,769;20583,445;30,99177
 381,50; 6528,254;  179,570;20550,771;31,16500
 382,10; 6510,007;  162,771;20394,913;31,37204
 382,69; 6598,868;  160,970;20364,549;31,86514
 383,28; 6688,244;  192,770;20401,829;32,14140
 383,87; 6665,785;  157,570;20188,334;32,49110
 384,46; 6670,935;  162,369;20195,735;32,48863
 385,05; 6741,381;  202,570;20207,523;32,68596
 385,64; 6757,933;  171,770;20158,440;32,95278
 386,24; 6797,955;  156,168;20099,553;33,30321
 386,83; 6923,807;  192,168;20144,447;33,73870
 387,42; 6997,199;  200,570;20295,621;33,82240
 388,01; 7123,917;  177,767;20546,811;34,10150
 388,60; 7288,941;  179,569;20726,841;34,60008
 389,19; 7426,746;  159,766;21010,611;34,85221
 389,78; 7546,154;  180,366;21128,927;35,16131
 390,37; 7788,418;  208,568;21641,549;35,36536
 390,96; 7918,991;  186,168;21815,620;35,75136
 391,56; 8014,964;  182,966;21914,379;36,03999
 392,15; 8167,584;  157,167;22239,463;36,27529
 392,74; 8323,725;  149,764;22406,546;36,72571
 393,33; 8442,499;  154,165;22663,977;36,82098
 393,92; 8715,861;  188,363;23131,835;37,16743
 394,51; 8822,678;  163,965;23327,444;37,38088
 395,10; 9028,023;  194,760;23569,872;37,78918
 395,69; 9069,442;  182,161;23573,066;37,99460
 396,28; 9181,735;  182,959;23658,331;38,33284
 396,87; 9346,010;  201,757;23993,409;38,43471
 397,46; 9471,838;  181,955;24041,473;38,93575
 398,06; 9547,390;  204,753;24189,344;38,95266
 398,65; 9688,389;  197,949;24189,052;39,55817
 399,24; 9836,729;  180,348;24500,131;39,70587
 399,83; 9853,764;  163,741;24445,460;39,90666
 400,42;10056,147;  206,135;24512,385;40,52461
 401,01;10141,718;  170,928;24724,112;40,60895
 401,60;10259,935;  181,918;24816,096;40,91071
 402,19;10311,728;  194,110;24662,362;41,34998
 402,78;10287,558;  219,099;24613,473;41,27369
 403,37;10327,445;  196,288;24505,274;41,67659
 403,96;10299,736;  187,674;24293,776;41,94814
 404,55;10417,488;  192,660;24133,732;42,70831
 405,14;10375,518;  184,247;24038,022;42,72394
 405,73;10446,834;  197,631;23981,267;43,09351
 406,32;10449,550;  191,621;24101,578;42,90233
 406,91;10362,445;  187,609;23737,316;43,20579
 407,50;10391,226;  185,002;23539,545;43,70124
 408,09;10312,864;  152,198;23115,950;44,24654
 408,68;10379,010;  182,995;23193,869;44,30955
 409,27;10321,300;  154,999;22857,262;44,78100
 409,86;10359,113;  157,808;22774,037;45,10612
 410,45;10396,810;  211,416;22694,697;45,30208
 411,04;10430,130;  212,624;22573,806;45,69305
 411,63;10284,027;  196,235;22229,067;45,78527
 412,22;10205,763;  191,644;22057,939;45,79705
 412,81;10205,174;  201,048;21784,907;46,35003
 413,40;10101,745;  210,252;21438,664;46,59554
 413,99;10044,702;  258,651;21227,216;46,67010
 414,58; 9837,790;  187,452;20694,737;47,05810
 415,17; 9812,521;  175,248;20501,298;47,41341
 415,76; 9822,150;  180,244;20395,432;47,69635
 416,35; 9685,889;  174,846;20161,732;47,58642
 416,94; 9876,020;  222,045;20313,714;48,04964
 417,53; 9941,598;  177,648;20493,672;48,06034
 418,12;10057,973;  174,049;20614,393;48,35498
 418,71;10236,103;  197,252;20941,732;48,39288
 419,30;10352,713;  181,049;21012,852;48,82757
 419,89;10461,190;  185,050;21163,001;48,98543
 420,48;10687,037;  199,052;21489,970;49,26037
 421,07;10782,610;  204,653;21596,176;49,44929
 421,66;10695,691;  164,255;21538,096;49,27255
 422,25;10892,807;  185,259;21534,257;50,15480
 422,84;10858,615;  208,860;21487,749;50,04845
 423,43;10831,463;  195,258;21191,232;50,65831
 424,02;10794,036;  218,859;20971,837;50,95740
 424,60;10517,118;  191,663;20564,538;50,68237
 425,19;10455,312;  209,061;20305,406;50,98564
 425,78;10470,455;  205,261;20207,342;51,32063
 426,37;10428,321;  206,063;20111,059;51,35524
 426,96;10405,811;  205,863;19945,049;51,67360
 427,55;10370,287;  188,865;19762,574;52,01580
 428,14;10241,835;  183,867;19519,125;52,01880
 428,73;10238,396;  208,464;19341,737;52,42141
 429,32;10253,448;  205,063;19425,276;52,28030
 429,91;10316,611;  228,464;19418,805;52,56888
 430,50;10282,211;  205,466;19183,005;53,09827
 431,08;10182,352;  226,467;18999,311;53,03344
 431,67;10230,926;  268,868;19016,987;53,13631
 432,26;10142,077;  281,070;18905,633;52,94625
 432,85;10009,719;  281,869;18476,831;53,46452
 433,44; 9820,340;  293,471;18078,520;53,56673
 434,03; 9653,034;  304,473;17738,947;53,62113
 434,62; 9420,713;  268,471;17308,235;53,71108
 435,21; 9323,801;  309,069;17213,975;53,32613
 435,79; 9269,216;  281,872;16934,179;53,97056
 436,38; 9263,660;  278,275;16896,072;54,07086
 436,97; 9207,513;  274,475;16729,837;54,28649
 437,56; 9183,123;  266,478;16623,825;54,51156
 438,15; 9103,845;  255,878;16496,161;54,48161
 438,74; 9210,744;  252,078;16499,268;55,13979
 439,33; 9206,932;  229,677;16456,341;55,32409
 439,91; 9314,216;  196,479;16520,581;55,85445
 440,50; 9336,635;  232,479;16621,240;55,55122
 441,09; 9414,037;  254,681;16749,826;55,52759
 441,68; 9436,721;  232,283;16730,041;55,79205
 442,27; 9437,234;  209,882;16687,816;55,99823
 442,86; 9426,662;  206,287;16651,772;56,06630
 443,44; 9540,130;  203,886;16753,004;56,41536
 444,03; 9623,673;  273,887;16791,849;56,60375
 444,62; 9580,658;  204,087;16619,601;57,12018
 445,21; 9503,595;  219,286;16471,340;57,12699
 445,80; 9441,891;  221,889;16363,863;57,11819
 446,39; 9367,171;  255,888;16196,422;57,15796
 446,97; 9197,290;  209,491;15841,813;57,49497
 447,56; 9131,498;  201,493;15706,886;57,59290
 448,15; 9004,927;  204,091;15505,975;57,51472
 448,74; 8932,086;  230,291;15290,758;57,77905
 449,33; 8887,426;  211,892;15142,083;58,10732
 449,91; 8784,804;  223,095;14894,015;58,35837
 450,50; 8577,405;  196,694;14714,040;57,72895
 451,09; 8546,324;  211,295;14708,166;57,49537
 451,68; 8580,423;  235,696;14536,163;58,35283
 452,26; 8492,788;  227,697;14402,943;58,30651
 452,85; 8529,700;  211,896;14299,357;59,04402
 453,44; 8475,554;  219,299;14312,838;58,58184
 454,03; 8491,095;  191,497;14305,367;58,80456
 454,61; 8475,223;  207,099;14368,230;58,38604
 455,20; 8608,332;  220,300;14521,704;58,65181
 455,79; 8622,654;  222,498;14447,995;59,05000
 456,38; 8636,719;  223,302;14552,908;58,71353
 456,97; 8736,529;  213,701;14622,094;59,15183
 457,55; 8806,272;  212,703;14558,695;59,90223
 458,14; 8776,666;  229,501;14553,453;59,67044
 458,73; 8688,083;  214,503;14483,287;59,38544
 459,31; 8769,823;  232,705;14529,387;59,71398
 459,90; 8907,871;  247,904;14600,360;60,33788
 460,49; 8959,416;  283,703;14696,165;60,19591
 461,08; 8966,891;  207,506;14867,089;59,75194
 461,66; 9081,241;  224,505;14888,910;60,39615
 462,25; 9094,092;  226,907;14940,115;60,26684
 462,84; 9121,846;  251,506;15011,281;60,09807
 463,43; 9037,326;  194,909;14974,511;59,82852
 464,01; 9079,349;  218,710;14995,271;59,96415
 464,60; 9113,355;  257,108;14803,201;60,88403
 465,19; 9034,600;  185,910;14720,475;60,88032
 465,77; 8971,108;  217,911;14554,854;61,05344
 466,36; 8976,770;  245,309;14525,559;61,14362
 466,95; 8804,485;  200,709;14226,494;61,34256
 467,53; 8614,417;  204,512;13914,149;61,34302
 468,12; 8510,922;  249,513;13740,122;61,23822
 468,71; 8374,443;  230,310;13415,162;61,76886
 469,29; 8210,096;  191,513;13187,353;61,70116
 469,88; 8078,711;  227,514;12883,731;62,03431
 470,47; 8217,904;  255,916;12949,820;62,72292
 471,06; 8120,786;  220,316;13005,744;61,79277
 471,64; 8131,469;  220,515;13189,379;60,99959
 472,23; 8218,901;  196,519;13015,701;62,58108
 472,81; 8244,703;  188,917;13223,040;61,80535
 473,40; 8408,595;  191,319;13326,682;62,55842
 473,99; 8546,911;  285,319;13423,177;62,88386
 474,57; 8588,140;  209,519;13701,757;62,09957
 475,16; 8710,918;  222,117;13824,843;62,40514
 475,75; 8816,169;  225,720;13942,558;62,62703
 476,33; 8847,764;  231,721;14015,988;62,50636
 476,92; 8912,861;  233,519;13987,799;63,10284
 477,51; 8928,660;  229,721;14118,754;62,63171
 478,09; 8972,293;  232,321;14143,545;62,82677
 478,68; 8904,402;  216,521;14012,349;62,97469
 479,27; 8995,894;  233,520;14178,435;62,83562
 479,85; 9005,534;  218,121;14165,872;63,00236
 480,44; 9073,158;  207,122;14306,392;62,88295
 481,02; 9871,273;  229,523;16077,972;60,83718
 481,61;11178,481;  254,923;17850,264;62,08211
 482,20;11984,207;  254,723;19118,411;62,18023
 482,78;12548,698;  260,922;19733,161;63,10408
 483,37;12812,472;  262,525;19948,568;63,75048
 483,95;13008,258;  295,325;20382,571;63,28858
 484,54;13135,098;  297,122;20576,671;63,30503
 485,13;13201,384;  258,327;20626,963;63,54405
 485,71;13142,704;  265,126;20428,959;63,86473
 486,30;13054,337;  288,926;20149,750;64,27433
 486,88;12790,343;  315,727;19817,991;63,96496
 487,47;12438,635;  305,527;19173,432;64,30554
 488,05;11868,846;  304,528;18210,999;64,58178
 488,64;11014,043;  297,729;16839,124;64,78482
 489,23; 9942,219;  293,128;14766,050;66,66996
 489,81; 8379,113;  292,329;12721,186;65,06458
 490,40; 7851,777;  236,929;12197,408;63,66675
 490,98; 7680,707;  233,530;11871,146;63,99229
 491,57; 7605,842;  277,529;11845,499;63,35004
 492,15; 7522,279;  261,530;11813,481;62,85301
 492,74; 7507,647;  257,928;11767,515;62,98853
 493,32; 7476,349;  259,930;11624,078;63,50163
 493,91; 7391,663;  231,331;11482,743;63,63941
 494,50; 7313,189;  245,333;11400,981;63,35675
 495,08; 7353,546;  225,733;11356,514;64,03696
 495,67; 7299,851;  241,930;11337,151;63,61226
 496,25; 7237,207;  210,132;11263,524;63,57392
 496,84; 7230,081;  202,730;11298,531;63,33342
 497,42; 7174,652;  197,532;11106,042;63,96034
 498,01; 7215,791;  219,131;11139,496;64,06984
 498,59; 7092,606;  203,133;11065,034;63,42788
 499,18; 7137,510;  202,331;11012,202;64,15599
 499,76; 7044,712;  205,132;10907,562;63,90679
 500,35; 6955,308;  203,734;10683,262;64,42632
 500,93; 6895,769;  187,332;10677,317;63,95087
 501,52; 6864,530;  200,133;10557,596;64,34391
 502,10; 6887,229;  208,535;10546,594;64,60298
 502,69; 6747,333;  196,336;10400,362;64,20012
 503,27; 6615,644;  190,133;10262,506;63,79341
 503,86; 6530,245;  209,735;10065,112;64,13261
 504,44; 6514,145;  182,936;10030,290;64,29351
 505,03; 6343,161;  162,736; 9694,137;64,84277
 505,61; 6281,247;  192,536; 9702,182;64,02668
 506,19; 6197,023;  204,136; 9472,108;64,66233
 506,78; 6071,445;  172,338; 9340,713;64,34191
 507,36; 5941,773;  183,936; 9137,175;64,31010
 507,95; 5819,886;  181,139; 9036,995;63,67252
 508,53; 5769,496;  187,138; 8897,027;64,09219
 509,12; 5635,095;  199,738; 8754,622;63,53513
 509,70; 5576,290;  204,739; 8637,406;63,69931
 510,29; 5463,741;  205,340; 8415,965;64,04385
 510,87; 5370,180;  174,738; 8270,731;64,17300
 511,46; 5264,155;  177,338; 8086,477;64,31569
 512,04; 5144,857;  186,939; 7957,770;63,80164
 512,62; 5067,217;  196,138; 7778,868;64,23911
 513,21; 4937,624;  171,140; 7678,090;63,49428
 513,79; 4844,033;  197,143; 7549,188;63,20542
 514,38; 4764,460;  181,142; 7320,047;64,20197
 514,96; 4708,724;  209,742; 7281,093;63,62267
 515,54; 4621,813;  181,542; 7104,679;64,13669
 516,13; 4574,451;  186,942; 7021,976;64,19147
 516,71; 4450,806;  192,944; 6926,813;63,23054
 517,30; 4368,757;  181,145; 6826,840;63,01240
 517,88; 4341,333;  188,345; 6746,811;63,32256
 518,46; 4238,539;  170,545; 6594,672;63,32368
 519,05; 4199,408;  179,746; 6495,754;63,64244
 519,63; 4166,228;  191,345; 6542,018;62,58996
 520,22; 4125,437;  217,947; 6442,155;62,77890
 520,80; 4058,585;  187,147; 6364,261;62,67389
 521,38; 4088,541;  210,146; 6401,013;62,64704
 521,97; 3978,883;  200,348; 6282,943;62,12044
 522,55; 3977,980;  199,748; 6282,800;62,11079
 523,13; 3975,257;  179,949; 6301,529;61,99883
 523,72; 3923,544;  168,345; 6249,243;61,75402
 524,30; 4043,019;  211,950; 6385,078;62,06042
 524,89; 4020,603;  176,548; 6358,449;62,18240
 525,47; 4103,218;  200,750; 6540,633;61,55427
 526,05; 4067,301;  161,550; 6521,777;61,40898
 526,64; 4172,618;  201,551; 6660,943;61,47742
 527,22; 4243,713;  202,350; 6749,594;61,72617
 527,80; 4282,720;  216,751; 6871,971;61,09444
 528,39; 4365,313;  197,351; 6962,595;61,60846
 528,97; 4441,971;  197,551; 7113,440;61,37201
 529,55; 4508,430;  203,749; 7325,624;60,44309
 530,14; 4683,840;  207,752; 7528,922;61,13897
 530,72; 4718,603;  185,551; 7652,030;60,71205
 531,30; 4798,845;  177,752; 7705,828;61,38479
 531,89; 4812,672;  197,552; 7831,933;60,45179
 532,47; 4942,867;  228,752; 7901,317;61,44118
 533,05; 4895,944;  233,151; 8000,980;60,02698
 533,63; 4956,281;  227,153; 8024,404;60,65121
 534,22; 4948,184;  184,953; 8097,148;60,20113
 534,80; 4987,044;  208,154; 8130,623;60,32071
 535,38; 5050,325;  261,952; 8300,477;59,56781
 535,97; 4949,244;  217,952; 8189,603;59,35147
 536,55; 5001,350;  239,754; 8349,577;58,71393
 537,13; 4959,804;  259,552; 8289,256;58,53581
 537,71; 4946,799;  298,752; 8354,350;57,69959
 538,30; 5002,965;  324,553; 8330,979;58,43321
 538,88; 5009,689;  370,155; 8471,232;57,27059
 539,46; 5139,855;  409,954; 8696,680;57,07804
 540,05; 5199,382;  418,554; 8885,743;56,46299
 540,63; 5309,918;  489,755; 8987,277;56,72434
 541,21; 5375,379;  514,355; 9101,578;56,60764
 541,79; 5425,348;  550,155; 9207,482;56,31291
 542,38; 5533,805;  583,154; 9437,837;55,90997
 542,96; 5546,254;  595,756; 9546,966;55,30534
 543,54; 5636,817;  618,955; 9809,719;54,59679
 544,12; 5720,890;  575,756; 9945,922;54,90974
 544,70; 5739,580;  567,556; 9959,138;55,07085
 545,29; 5869,882;  575,354;10202,475;54,99596
 545,87; 5829,348;  539,155;10182,482;54,85859
 546,45; 5828,524;  494,954;10226,408;54,80754
 547,03; 5847,215;  481,555;10286,689;54,72296
 547,62; 5937,879;  445,155;10398,845;55,18279
 548,20; 6026,263;  442,556;10554,508;55,21889
 548,78; 6042,917;  423,559;10673,898;54,82119
 549,36; 6122,202;  378,158;10871,763;54,73852
 549,94; 6223,033;  338,556;10875,057;55,84849
 550,53; 6288,911;  337,358;11173,922;54,92103
 551,11; 6382,474;  320,159;11369,121;54,86774
 551,69; 6526,794;  321,158;11645,981;54,79676
 552,27; 6584,374;  263,357;11964,718;54,01950
 552,85; 6766,127;  262,159;12227,130;54,35841
 553,44; 6897,146;  260,958;12593,143;53,81194
 554,02; 7073,295;  280,559;12963,584;53,55770
 554,60; 7220,036;  217,759;13196,779;53,95074
 555,18; 7400,172;  271,558;13667,468;53,21485
 555,76; 7562,453;  251,559;13974,632;53,27447
 556,34; 7724,533;  240,560;14358,681;53,00969
 556,93; 7906,182;  228,358;14680,944;53,12422
 557,51; 8092,625;  209,960;14982,768;53,35929
 558,09; 8261,850;  232,158;15343,801;53,13580
 558,67; 8391,974;  236,761;15780,364;52,46668
 559,25; 8494,177;  255,961;15964,284;52,44491
 559,83; 8632,062;  221,562;16289,350;52,34386
 560,41; 8753,124;  221,760;16657,165;51,90845
 561,00; 8940,433;  218,961;17034,859;51,86444
 561,58; 9002,114;  214,160;17279,088;51,49716
 562,16; 9213,235;  211,959;17477,464;52,13445
 562,74; 9237,055;  185,759;17965,327;50,90841
 563,32; 9381,001;  200,362;18437,359;50,34074
 563,90; 9578,132;  224,961;18787,212;50,38813
 564,48; 9731,858;  225,160;19233,648;50,01291
 565,06; 9912,428;  212,161;19645,953;49,91443
 565,65;10199,131;  215,363;20566,587;49,05734
 566,23;10536,193;  265,961;21284,202;48,86342
 566,81;10768,401;  220,561;21811,894;48,85220
 567,39;11191,996;  241,762;22814,523;48,51083
 567,97;11420,927;  243,961;23468,486;48,12571
 568,55;11785,164;  233,162;24299,977;47,99971
 569,13;12051,000;  208,961;24989,088;47,78845
 569,71;12373,031;  226,159;25929,073;47,25873
 570,29;12817,391;  262,958;26884,706;47,15856
 570,87;13261,760;  260,159;27621,986;47,51730
 571,45;13349,137;  260,561;28308,382;46,66521
 572,03;13493,028;  207,762;28687,954;46,64739
 572,61;13802,516;  205,562;29493,539;46,42504
 573,20;14086,748;  253,960;30196,149;46,19832
 573,78;14318,445;  237,562;30789,806;46,08788
 574,36;14520,020;  247,561;31220,242;46,08080
 574,94;14670,773;  271,162;31592,384;45,97397
 575,52;14626,261;  227,364;31876,615;45,49522
 576,10;14848,444;  291,163;32314,782;45,45795
 576,68;15101,553;  281,962;32978,611;45,32450
 577,26;15285,998;  282,765;33716,239;44,87488
 577,84;15475,648;  314,361;34175,662;44,77467
 578,42;15507,953;  332,563;34450,721;44,47892
 579,00;15405,603;  282,962;34449,854;44,26110
 579,58;15548,564;  314,963;34647,623;44,37058
 580,16;15460,652;  304,563;34683,208;44,08577
 580,74;15419,438;  320,163;35084,276;43,43351
 581,32;15530,473;  300,363;35042,672;43,83736
 581,90;15362,004;  308,963;35056,770;43,32084
 582,48;15315,810;  323,563;35155,656;43,04148
 583,06;15306,671;  327,563;35249,557;42,89305
 583,64;15318,314;  322,562;35423,889;42,72132
 584,22;15114,655;  320,164;35040,284;42,61071
 584,80;14818,616;  344,963;34743,607;42,07623
 585,38;14694,538;  333,160;34402,452;42,15344
 585,96;14594,159;  315,962;34409,142;41,87992
 586,54;14506,307;  351,964;34509,758;41,43811
 587,12;14452,168;  306,564;34596,659;41,25274
 587,70;14479,945;  333,362;34763,209;41,08814
 588,28;14474,107;  320,363;34823,468;41,02165
 588,86;14391,817;  312,964;35000,232;40,58796
 589,44;14270,714;  299,765;35002,445;40,25899
 590,02;14265,248;  311,965;35292,308;39,88893
 590,59;14253,374;  283,364;35307,920;39,88633
 591,17;14303,468;  275,567;35479,458;39,84759
 591,75;14248,404;  279,566;35627,726;39,51786
 592,33;14301,306;  292,366;35740,399;39,51965
 592,91;14221,604;  243,367;36020,216;39,07062
 593,49;14274,841;  253,767;36438,908;38,74815
 594,07;14187,336;  263,167;36604,270;38,31521
 594,65;14230,711;  294,964;36588,969;38,39683
 595,23;14272,570;  266,765;37001,975;38,12638
 595,81;14185,132;  254,965;37266,968;37,63689
 596,39;14069,173;  252,565;37293,740;37,30067
 596,97;14184,002;  251,967;37509,721;37,39365
 597,55;14082,987;  256,365;37318,563;37,30654
 598,12;13900,546;  237,968;37345,902;36,81848
 598,70;13845,967;  234,367;37422,990;36,60152
 599,28;13840,728;  257,567;37742,333;36,23648
 599,86;13723,671;  238,367;37792,313;35,90915
 600,44;13721,152;  205,967;37837,897;35,91414
 601,02;13635,253;  252,969;37871,236;35,57390
 601,60;13470,052;  247,766;38017,964;35,00719
 602,18;13430,791;  211,768;37952,129;35,02622
 602,75;13346,917;  231,365;37897,901;34,82017
 603,33;13281,330;  238,167;37944,028;34,59187
 603,91;13141,568;  235,169;37847,926;34,31389
 604,49;13068,753;  240,167;37988,858;33,98419
 605,07;12984,771;  267,166;37989,735;33,71352
 605,65;12940,474;  275,568;38103,299;33,48048
 606,23;12875,179;  313,964;38417,871;32,96569
 606,80;12886,744;  387,765;38345,005;32,92910
 607,38;12810,981;  416,568;38379,543;32,64869
 607,96;12767,953;  473,965;38471,967;32,35430
 608,54;12685,300;  556,368;38527,803;31,94225
 609,12;12579,647;  539,765;38612,748;31,62316
 609,70;12435,691;  566,567;38558,532;31,24114
 610,27;12412,106;  583,965;38723,908;31,01248
 610,85;12276,538;  613,567;38653,055;30,66017
 611,43;12236,952;  590,967;38701,742;30,55825
 612,01;12069,179;  553,366;38429,382;30,40397
 612,59;12009,533;  558,967;38572,284;30,12251
 613,16;11895,543;  545,364;38430,980;29,95907
 613,74;11808,233;  498,767;38313,171;29,90782
 614,32;11703,423;  441,568;38356,385;29,70304
 614,90;11525,277;  421,966;37970,909;29,57024
 615,48;11368,146;  377,365;37840,010;29,33797
 616,05;11277,491;  335,764;37790,131;29,21349
 616,63;11157,837;  347,564;37695,651;28,94465
 617,21;11079,805;  318,965;37566,661;28,88995
 617,79;10912,949;  321,566;37422,331;28,54761
 618,36;10841,455;  317,366;37454,440;28,33850
 618,94;10578,977;  270,365;37060,621;28,01995
 619,52;10572,445;  298,764;36965,252;28,01927
 620,10;10398,009;  269,565;36874,987;27,66925
 620,67;10325,455;  287,364;36807,394;27,48654
 621,25;10173,180;  299,566;36373,517;27,37048
 621,83;10077,707;  292,565;36417,269;27,08712
 622,41; 9982,411;  318,765;36510,592;26,70118
 622,98; 9924,903;  307,364;36334,213;26,69548
 623,56; 9828,837;  305,963;36379,316;26,39864
 624,14; 9685,818;  258,167;36056,749;26,33527
 624,72; 9540,932;  273,565;36110,078;25,86012
 625,29; 9494,311;  252,364;35955,259;25,88571
 625,87; 9435,265;  300,966;36094,026;25,51975
 626,45; 9308,805;  257,563;35941,085;25,36533
 627,02; 9204,893;  266,766;35895,646;25,08675
 627,60; 9140,361;  251,167;35822,259;24,98994
 628,18; 9098,076;  244,365;35763,548;24,92656
 628,76; 8977,118;  246,764;35870,280;24,50728
 629,33; 8977,589;  269,364;35839,123;24,48210
 629,91; 8872,724;  268,565;35889,587;24,15472
 630,49; 8880,558;  276,764;35956,892;24,11368
 631,06; 8860,919;  277,964;36097,795;23,96146
 631,64; 8835,020;  279,563;36138,753;23,85848
 632,22; 8660,631;  229,363;35886,519;23,64537
 632,79; 8752,248;  236,363;36219,263;23,66648
 633,37; 8664,557;  241,966;36164,868;23,44630
 633,95; 8618,270;  254,963;36379,551;23,15129
 634,52; 8553,855;  225,965;36519,239;22,94610
 635,10; 8482,448;  237,565;36531,728;22,71683
 635,68; 8558,932;  223,963;36626,567;22,89663
 636,25; 8449,292;  227,562;36805,065;22,47756
 636,83; 8413,547;  202,364;36852,080;22,40449
 637,41; 8374,615;  232,762;36929,937;22,18659
 637,98; 8383,717;  240,162;37154,764;22,06052
 638,56; 8317,169;  226,961;37210,748;21,87501
 639,13; 8266,766;  212,564;37252,383;21,74471
 639,71; 8281,710;  266,964;37549,434;21,49736
 640,29; 8092,007;  211,964;37153,267;21,33125
 640,86; 8068,382;  230,164;37489,945;21,03667
 641,44; 8088,756;  211,764;37365,822;21,20089
 642,02; 8029,989;  241,964;37456,499;20,92737
 642,59; 7994,078;  209,564;37651,177;20,79107
 643,17; 7948,453;  215,764;37740,454;20,60693
 643,74; 7902,685;  227,564;37589,132;20,54282
 644,32; 7882,060;  243,964;37598,009;20,44784
 644,89; 7802,434;  239,564;37716,287;20,18018
 645,47; 7829,666;  269,364;37663,564;20,21785
 646,05; 7755,327;  235,364;37667,042;20,08984
 646,62; 7662,416;  229,765;37442,319;19,97351
 647,20; 7630,934;  230,965;37713,197;19,74261
 647,77; 7564,737;  203,765;37561,474;19,70403
 648,35; 7539,827;  205,965;37397,551;19,71914
 648,92; 7405,344;  236,965;37432,229;19,27229
 649,50; 7350,005;  176,965;37285,506;19,32989
 650,08; 7307,094;  196,965;37310,984;19,15753
 650,65; 7351,040;  230,365;37572,261;19,06886
 651,23; 7418,558;  196,765;38502,139;18,85321
 651,80; 7527,647;  199,965;39424,016;18,68161
 652,38; 7545,308;  218,965;39698,694;18,55723
 652,95; 7598,683;  196,765;40069,171;18,56401
 653,53; 7612,629;  228,165;40138,648;18,50257
 654,10; 7691,004;  242,565;40354,726;18,56903
 654,68; 7555,379;  202,165;40204,403;18,38201
 655,25; 7550,897;  199,965;40496,681;18,24201
 655,83; 7620,414;  194,965;40659,958;18,35030
 656,40; 7533,218;  233,765;40666,636;18,05326
 656,98; 7472,878;  210,165;40604,713;17,97944
 657,55; 7424,396;  205,566;40348,391;17,98287
 658,13; 7286,914;  202,366;39910,468;17,84157
 658,70; 7216,717;  218,366;39739,745;17,70776
 659,28; 7112,664;  193,166;38768,623;17,93757
 659,85; 6891,467;  213,366;37923,300;17,70913
 660,43; 6838,271;  231,366;38173,578;17,41307
 661,00; 6788,931;  213,166;38140,655;17,33773
 661,58; 6859,449;  198,966;38531,533;17,37552
 662,15; 6866,967;  183,366;38548,410;17,42107
 662,73; 6922,770;  245,966;39044,488;17,20891
 663,30; 6901,288;  215,566;39303,365;17,10437
 663,88; 6857,377;  199,966;39299,442;17,02685
 664,45; 6798,895;  196,766;39619,720;16,74692
 665,03; 6890,984;  215,166;40113,397;16,73211
 665,60; 7038,645;  260,566;40505,075;16,84224
 666,17; 6913,020;  214,766;40460,152;16,64353
 666,75; 6994,109;  216,166;40839,830;16,68471
 667,32; 7067,198;  225,566;41222,107;16,68831
 667,90; 7019,430;  198,766;41635,185;16,46055
 668,47; 7098,662;  224,966;41620,662;16,60486
 669,05; 7091,465;  212,167;42125,139;16,41329
 669,62; 7101,697;  187,567;42222,417;16,44857
 670,19; 7089,215;  195,967;42072,294;16,46097
 670,77; 7153,590;  204,767;42438,372;16,45330
 671,34; 7093,536;  229,567;42484,249;16,24428
 671,92; 7073,197;  188,167;42555,727;16,25071
 672,49; 7117,858;  215,167;42680,604;16,25484
 673,06; 7034,947;  169,967;42731,482;16,12955
 673,64; 7044,607;  192,567;42741,559;16,10388
 674,21; 7016,982;  189,767;42651,636;16,07846
 674,79; 7041,214;  192,567;42965,714;16,01156
 675,36; 7085,303;  223,767;42944,591;16,06134
 675,93; 7045,107;  207,967;42904,469;16,01335
 676,51; 7046,339;  215,567;43098,746;15,92879
 677,08; 7024,428;  210,967;43232,024;15,83750
 677,65; 7028,374;  210,167;43365,901;15,79908
 678,23; 7071,749;  209,567;43610,179;15,81126
 678,80; 7095,839;  194,967;43687,256;15,86688
 679,38; 7040,928;  185,567;43810,733;15,71423
 679,95; 7136,445;  198,368;44029,211;15,82921
 680,52; 7108,392;  200,968;44211,488;15,69494
 681,10; 7227,767;  216,968;44679,566;15,76786
 681,67; 7210,427;  212,368;45044,843;15,60935
 682,24; 7142,231;  185,368;45052,921;15,50533
 682,82; 7298,034;  196,768;45621,998;15,63287
 683,39; 7426,266;  218,368;46011,476;15,74014
 683,96; 7425,213;  206,168;46193,953;15,69774
 684,54; 7408,587;  177,968;46633,031;15,56476
 685,11; 7459,819;  224,968;46853,308;15,51600
 685,68; 7550,480;  212,968;47257,785;15,59686
 686,25; 7537,426;  195,768;47467,063;15,53090
 686,83; 7565,516;  179,168;47447,340;15,62647
 687,40; 7647,890;  184,368;47926,018;15,63315
 687,97; 7727,265;  218,968;48281,895;15,62181
 688,55; 7654,497;  181,568;48410,373;15,49474
 689,12; 7716,158;  182,368;48523,650;15,58459
 689,69; 7749,676;  186,168;48757,928;15,57182
 690,26; 7744,193;  185,168;48923,805;15,50931
 690,84; 7786,425;  188,968;49088,882;15,53675
 691,41; 7793,086;  214,969;49135,360;15,49071
 691,98; 7904,890;  204,769;49439,637;15,63957
 692,56; 7831,122;  184,969;49458,515;15,51776
 693,13; 7899,925;  246,969;49461,192;15,55029
 693,70; 7926,300;  210,369;49672,870;15,59956
 694,27; 7880,961;  192,969;49684,347;15,53400
 694,84; 7928,907;  193,369;49844,425;15,57981
 695,42; 8053,425;  228,769;49975,702;15,72892
 695,99; 8003,942;  186,569;50355,379;15,58214
 696,56; 8011,460;  186,569;50230,457;15,63606
 697,13; 8128,835;  202,169;50660,334;15,70938
 697,71; 8188,781;  171,569;50584,612;15,90305
 698,28; 8174,870;  200,969;50862,089;15,73969
 698,85; 8035,960;  175,969;51010,167;15,46201
 699,42; 8174,620;  166,369;51064,844;15,73377
 699,99; 8260,995;  192,769;51126,522;15,84063
 700,57; 8279,227;  195,769;51344,599;15,80380
 701,14; 8262,459;  183,769;51441,476;15,76093
 701,71; 8325,834;  224,169;51729,554;15,72974
 702,28; 8327,780;  189,369;51685,431;15,80395
 702,85; 8350,870;  216,570;51676,309;15,80711
 703,43; 8360,102;  194,770;51904,386;15,79074
 704,00; 8405,334;  223,770;52188,864;15,74435
 704,57; 8413,566;  222,170;51968,341;15,82996
 705,14; 8445,369;  238,970;52528,019;15,69430
 705,71; 8562,458;  238,970;52596,096;15,89753
 706,28; 8547,405;  219,770;52301,373;15,98959
 706,86; 8571,922;  235,370;52719,051;15,88408
 707,43; 8607,154;  258,170;52483,928;15,98633
 708,00; 8659,386;  238,970;52641,806;16,06863
 708,57; 8553,618;  204,170;52481,083;15,97158
 709,14; 8677,850;  241,770;52773,961;16,05888
 709,71; 8661,940;  210,770;52768,438;16,07980
 710,28; 8704,600;  213,970;53039,716;16,07290
 710,86; 8770,975;  222,570;53179,193;16,14228
 711,43; 8828,493;  231,170;53178,870;16,23739
 712,00; 8860,439;  219,770;53330,348;16,26921
 712,57; 8880,528;  233,170;53295,225;16,29669
 713,14; 8933,189;  208,370;53449,903;16,38724
 713,71; 8923,564;  228,371;53334,380;16,37328
 714,28; 8955,510;  208,371;53302,258;16,47485
 714,85; 8979,028;  200,171;53229,935;16,55458
 715,42; 9006,689;  204,171;53233,813;16,59924
 716,00; 9116,349;  274,371;53582,890;16,58643
 716,57; 9128,010;  210,171;53702,167;16,67135
 717,14; 9120,385;  188,971;53671,045;16,69983
 717,71; 9151,045;  183,971;53611,322;16,78368
 718,28; 9246,706;  216,971;53832,000;16,84180
 718,85; 9221,509;  186,571;53962,077;16,80121
 719,42; 9307,170;  223,771;53933,555;16,91200
 719,99; 9343,116;  191,771;53690,232;17,10581
 720,56; 9391,348;  211,371;54167,910;17,01365
 721,13; 9421,723;  210,571;54121,387;17,08591
 721,70; 9442,241;  202,171;54006,865;17,17335
 722,27; 9445,044;  217,171;54134,942;17,11472
 722,84; 9499,276;  252,771;54232,419;17,12961
 723,41; 9552,366;  188,571;54242,497;17,32306
 723,98; 9602,169;  198,571;54586,774;17,28977
 724,55; 9676,972;  230,371;54513,652;17,40241
 725,12; 9607,347;  168,372;54409,729;17,40181
 725,69; 9727,722;  190,572;54631,407;17,51838
 726,27; 9759,383;  208,772;54839,084;17,48226
 726,84; 9887,615;  204,172;55140,362;17,62671
 727,41; 9901,133;  217,172;54813,639;17,73734
 727,98; 9956,793;  222,372;55353,716;17,65678
 728,55;10045,740;  250,572;55086,394;17,86272
 729,12;10010,257;  200,972;55243,871;17,82116
 729,69;10118,775;  219,772;55415,549;17,93435
 730,26;10160,721;  217,372;55694,226;17,92342
 730,82;10139,953;  209,772;55473,904;17,96858
 731,39;10161,043;  220,972;55566,181;17,96013
 731,96;10254,703;  181,972;55957,259;18,05949
 732,53;10338,507;  212,972;56028,336;18,14112
 733,10;10367,167;  208,972;56151,813;18,15817
 733,67;10475,114;  200,972;56541,291;18,23586
 734,24;10439,774;  206,972;55959,168;18,35408
 734,81;10563,292;  234,372;56280,646;18,42927
 735,38;10499,524;  216,372;56038,923;18,42114
 735,95;10493,327;  206,573;55793,401;18,50574
 736,52;10580,988;  239,973;56073,078;18,52130
 737,09;10527,934;  218,973;55695,556;18,58255
 737,66;10661,595;  269,173;55913,033;18,67667
 738,23;10662,827;  195,373;56021,110;18,75023
 738,80;10859,488;  237,773;56286,188;18,95096
 739,37;10841,720;  237,573;56592,065;18,81686
 739,94;10872,952;  213,573;56504,343;18,93628
 740,51;10971,612;  286,973;56571,020;18,98342
 741,07;10954,987;  199,373;56462,298;19,11670
 741,64;11082,076;  251,573;56792,775;19,15506
 742,21;10994,165;  215,973;56653,853;19,09744
 742,78;11076,969;  194,973;56474,130;19,33575
 743,35;11082,058;  214,173;56710,607;19,23641
 743,92;11180,433;  247,373;56925,485;19,28974
 744,49;11203,951;  237,973;56769,762;19,39790
 745,06;11242,897;  200,573;56655,440;19,55956
 745,63;11285,986;  189,373;56752,117;19,61824
 746,19;11329,218;  204,773;56975,195;19,59549
 746,76;11395,879;  210,973;56909,872;19,72685
 747,33;11425,397;  217,174;56688,150;19,84776
 747,90;11527,486;  227,974;57094,427;19,87026
 748,47;11521,861;  228,174;56888,104;19,93241
 749,04;11666,950;  228,574;56982,582;20,15431
 749,61;11728,325;  209,974;56797,859;20,35480
 750,17;11700,557;  212,374;56931,137;20,25464
 750,74;11875,932;  228,374;56910,214;20,54901
 751,31;11795,735;  194,174;56734,292;20,51917
 751,88;11815,253;  193,774;56596,569;20,60444
 752,45;11902,199;  213,974;56822,247;20,64756
 753,02;11937,717;  209,374;56688,524;20,76579
 753,58;12014,949;  193,974;56519,402;20,98692
 754,15;11965,467;  223,774;56777,479;20,76202
 754,72;11996,127;  193,574;56506,156;20,95900
 755,29;12012,788;  183,774;56333,834;21,06679
 755,86;12107,163;  222,374;56512,111;21,11360
 756,42;12193,538;  221,574;56376,989;21,31934
 756,99;12159,770;  191,974;56591,266;21,21976
 757,56;12175,430;  209,774;56331,544;21,32088
 758,13;12189,091;  176,174;56219,621;21,43501
 758,70;12281,180;  204,975;56289,899;21,53200
 759,26;12395,555;  198,175;56434,776;21,68940
 759,83;12417,787;  207,175;56603,453;21,65145
 760,40;12374,448;  204,575;56281,331;21,70217
 760,97;12379,965;  203,775;56472,208;21,63947
 761,53;12425,626;  192,375;56080,686;21,88875
 762,10;12472,144;  174,575;56038,363;22,01349
 762,67;12504,090;  221,575;56070,641;21,99234
 763,24;12412,465;  164,375;55565,118;22,10817
 763,80;12496,697;  199,575;55610,596;22,19256
 764,37;12531,500;  181,175;55604,673;22,28355
 764,94;12495,161;  178,175;55208,350;22,38224
 765,50;12452,393;  168,575;55191,628;22,32486
 766,07;12569,625;  210,375;55220,505;22,46723
 766,64;12542,143;  191,575;54901,983;22,57444
 767,21;12588,518;  189,975;54870,260;22,67461
 767,77;12540,893;  206,375;54707,338;22,63174
 768,34;12636,839;  210,775;54664,215;22,81961
 768,91;12602,071;  190,175;54295,093;22,94042
 769,47;12639,160;  192,376;54498,370;22,91972
 770,04;12697,106;  209,976;54468,247;23,01424
 770,61;12614,481;  187,176;54240,525;22,99082
 771,18;12649,856;  188,776;54080,402;23,12248
 771,74;12729,802;  210,576;54206,080;23,18568
 772,31;12764,463;  211,576;54057,757;23,31249
 772,88;12678,552;  178,176;53704,835;23,35355
 773,44;12705,499;  191,776;53520,312;23,46534
 774,01;12857,016;  189,776;53690,790;23,67664
 774,58;12851,534;  171,776;53432,467;23,80697
 775,14;12870,909;  184,376;53531,344;23,78117
 775,71;12943,141;  191,776;53402,422;23,96394
 776,27;12942,373;  233,976;53302,099;23,94733
 776,84;13007,605;  246,976;53488,977;23,96722
 777,41;13044,694;  207,976;53298,054;24,17913
 777,97;12974,926;  183,976;52923,332;24,25314
 778,54;13072,301;  206,176;53016,409;24,36294
 779,11;13097,247;  215,176;53045,287;24,38396
 779,67;13138,765;  192,776;52911,764;24,55660
 780,24;13154,569;  214,176;52651,841;24,67767
 780,80;13220,086;  222,577;52697,919;24,76879
 781,37;13227,033;  205,977;52485,196;24,90675
 781,94;13154,122;  194,577;52362,074;24,84218
 782,50;13242,782;  214,977;52273,751;25,02519
 783,07;13324,157;  247,977;52383,429;25,08117
 783,63;13369,104;  190,177;52079,106;25,39834
 784,20;13382,621;  232,777;52057,584;25,37365
 784,77;13329,425;  208,577;51928,461;25,36906
 785,33;13332,800;  187,177;51681,938;25,52808
 785,90;13344,746;  208,577;51654,016;25,53418
 786,46;13415,978;  222,377;51544,293;25,70754
 787,03;13435,924;  205,377;51364,371;25,86163
 787,59;13469,299;  209,177;51383,648;25,91160
 788,16;13477,246;  217,777;51273,726;25,97047
 788,73;13477,478;  223,577;50943,603;26,13149
 789,29;13403,995;  206,777;50617,081;26,17960
 789,86;13520,656;  211,977;50367,758;26,53469
 790,42;13455,745;  215,377;50497,636;26,33209
 790,99;13447,977;  224,977;50039,713;26,54435
 791,55;13367,638;  205,378;50188,990;26,33315
 792,12;13452,727;  231,378;50020,068;26,55493
 792,68;13448,388;  215,378;49785,745;26,69540
 793,25;13490,191;  217,578;49649,623;26,85022
 793,81;13447,709;  253,778;49135,900;26,99132
 794,38;13338,512;  193,378;49037,778;26,91227
 794,94;13414,601;  206,978;48908,855;27,11933
 795,51;13363,119;  218,978;48653,933;27,13772
 796,07;13348,208;  222,978;48389,010;27,24997
 796,64;13410,583;  246,778;48626,887;27,20913
 797,20;13297,530;  225,178;48034,365;27,34276
 797,77;13236,904;  201,978;47678,042;27,45579
 798,33;13280,851;  205,178;47540,320;27,62361
 798,90;13333,654;  246,378;47325,597;27,79841
 799,46;13243,743;  218,778;46887,675;27,90931
 800,03;13269,833;  210,378;46838,352;28,00777
 800,59;13226,350;  237,178;46681,230;27,96735
 801,15;13135,868;  239,978;46431,307;27,91842
 801,72;13136,814;  199,378;46248,184;28,09505
 802,28;13128,189;  240,778;45773,462;28,30365
 802,85;13202,850;  219,979;45820,939;28,47061
 803,41;13065,225;  207,179;45618,217;28,31480
 803,98;12974,028;  212,779;45104,294;28,42686
 804,54;13007,832;  228,979;44858,572;28,63314
 805,11;12991,921;  234,979;44625,249;28,73815
 805,67;12996,153;  240,379;44560,527;28,78098
 806,23;12852,099;  225,379;44110,804;28,77201
 806,80;12940,760;  243,379;44193,281;28,89058
 807,36;12947,135;  261,579;44025,959;28,98603
 807,93;12923,367;  239,779;43749,036;29,15147
 808,49;12882,027;  227,379;43464,914;29,26774
 809,05;12804,402;  210,779;43106,391;29,35877
 809,62;12843,206;  235,179;43062,269;29,43937
 810,18;12840,438;  228,779;43010,346;29,47919
 810,74;12828,384;  197,379;42687,824;29,72670
 811,31;12782,902;  216,579;42482,301;29,73171
 811,87;12846,848;  224,179;42432,978;29,90530
 812,44;12816,223;  258,979;42405,656;29,79415
 813,00;12780,884;  191,779;42067,533;30,06299
 813,56;12849,830;  243,779;42111,011;30,10959
 814,13;12881,633;  227,980;42001,088;30,29139
 814,69;12795,151;  229,380;41872,566;30,17486
 815,25;12715,240;  197,380;41443,443;30,34923
 815,82;12699,329;  234,380;41434,921;30,25434
 816,38;12773,990;  256,580;41108,398;30,64101
 816,94;12641,222;  230,780;40893,875;30,52016
 817,51;12615,026;  199,980;40628,753;30,70844
 818,07;12595,400;  213,380;40369,030;30,83506
 818,63;12535,632;  234,580;40002,908;30,93178
 819,20;12516,293;  236,180;40120,585;30,78926
 819,76;12413,668;  228,580;39577,863;30,96648
 820,32;12544,900;  245,380;39498,140;31,33415
 820,89;12452,703;  250,180;39362,218;31,19889
 821,45;12358,221;  210,580;39112,895;31,22601
 822,01;12278,596;  235,980;38901,573;31,14556
 822,57;12409,257;  232,780;38683,250;31,66795
 823,14;12260,346;  218,780;38618,327;31,35861
 823,70;12177,292;  216,780;38358,405;31,35816
 824,26;12183,524;  231,180;38082,482;31,57710
 824,82;12193,042;  225,781;37968,360;31,70759
 825,39;12197,845;  213,381;37732,437;31,94234
 825,95;12132,649;  237,781;37849,115;31,62575
 826,51;12146,309;  231,581;37278,792;32,16093
 827,08;12185,256;  271,781;37273,070;32,19746
 827,64;12125,059;  239,381;37244,347;32,11914
 828,20;12102,291;  216,581;36980,024;32,33024
 828,76;12191,809;  240,981;36879,502;32,61821
 829,32;12178,470;  245,581;36649,979;32,77870
 829,89;12105,130;  202,181;36605,657;32,69729
 830,45;12197,219;  208,181;36540,734;32,99806
 831,01;12114,880;  230,381;36315,412;32,93471
 831,57;12198,398;  233,181;36207,689;33,26026
 832,14;12118,630;  217,381;36185,367;33,08845
 832,70;12130,005;  208,181;35880,844;33,42005
 833,26;12186,665;  188,981;35790,321;33,70009
 833,82;12176,326;  222,181;35743,999;33,65296
 834,38;12188,415;  205,981;35722,676;33,73747
 834,95;12167,933;  211,581;35525,354;33,85747
 835,51;12116,165;  186,381;35588,031;33,69838
 836,07;12224,540;  222,182;35633,309;33,89431
 836,63;12387,343;  240,182;35589,986;34,36274
 837,19;12259,861;  231,582;35327,064;34,27301
 837,75;12224,950;  191,982;35086,541;34,48380
 838,32;12275,325;  236,782;35301,018;34,33283
 838,88;12354,700;  240,382;35185,096;34,66710
 839,44;12355,503;  203,782;34997,573;34,92497
 840,00;12325,450;  211,782;35115,651;34,70580
 840,56;12286,539;  215,182;34777,128;34,92673
 841,12;12342,628;  210,582;34765,406;35,10956
 841,68;12198,146;  193,182;34493,283;34,99979
 842,25;12240,521;  212,582;34672,761;34,90388
 842,81;12210,038;  203,782;34322,238;35,18992
 843,37;12213,985;  186,982;34411,115;35,14188
 843,93;12165,788;  219,182;34236,393;35,11930
 844,49;12194,020;  223,782;34377,670;35,04795
 845,05;12184,395;  191,582;34056,748;35,41342
 845,61;12257,627;  241,182;34182,225;35,40388
 846,17;12255,431;  207,782;34017,703;35,63347
 846,73;12212,520;  222,383;34085,180;35,40799
 847,29;12118,895;  202,783;33852,658;35,41205
 847,86;12132,412;  196,783;33641,935;35,68717
 848,42;12095,644;  190,383;33540,812;35,69748
 848,98;12176,448;  214,383;33519,890;35,91618
 849,54;12207,108;  204,183;33526,567;36,02061
 850,10;12178,769;  228,383;33345,045;36,08572
 850,66;12118,430;  184,783;33153,522;36,19686
 851,22;12128,233;  182,983;33056,000;36,33755
 851,78;12184,322;  239,983;33111,277;36,33669
 852,34;12110,269;  200,783;32939,555;36,37731
 852,90;12143,501;  212,183;32850,032;36,55669
 853,46;12057,733;  197,383;32641,709;36,55601
 854,02;12119,965;  213,983;32643,387;36,71354
 854,58;12105,054;  203,183;32336,464;37,03908
 855,14;12078,286;  186,583;32268,742;37,06640
 855,70;12085,661;  169,983;32086,819;37,33352
 856,26;12113,179;  216,383;31989,697;37,44273
 856,82;12043,696;  205,783;31857,374;37,40069
 857,38;12118,214;  224,383;31752,252;37,72482
 857,94;12027,732;  204,184;31631,129;37,62233
 858,50;12053,392;  220,984;31515,207;37,81020
 859,06;12057,053;  224,584;31482,284;37,85457
 859,62;11934,856;  213,384;31318,161;37,68383
 860,18;11991,231;  208,784;31074,239;38,17357
 860,74;11949,463;  168,984;30912,316;38,31881
 861,30;11870,553;  173,784;30831,794;38,15241
 861,86;12005,213;  221,584;30929,071;38,37380
 862,42;11914,017;  205,384;30590,949;38,53354
 862,98;11894,392;  225,784;30679,826;38,31546
 863,54;11770,195;  213,784;30401,504;38,28183
 864,10;11791,570;  199,384;30453,381;38,31621
 864,66;11739,945;  204,984;30147,458;38,52374
 865,22;11698,034;  204,984;30039,336;38,52287
 865,78;11717,409;  211,984;30028,813;38,58702
 866,34;11678,069;  201,784;29892,091;38,65331
 866,90;11686,873;  221,984;29758,968;38,81537
 867,45;11685,105;  222,184;29624,646;38,98626
 868,01;11657,766;  222,584;29528,523;39,02001
 868,57;11552,569;  194,184;29270,201;39,06445
 869,13;11549,658;  189,785;29094,678;39,30087
 869,69;11543,176;  202,185;29107,755;39,23462
 870,25;11533,836;  189,185;29104,833;39,23361
 870,81;11589,069;  215,785;28973,910;39,54807
 871,37;11513,158;  209,585;28797,588;39,53957
 871,93;11531,533;  224,185;28614,065;39,82880
 872,49;11486,050;  221,585;28385,943;39,99546
 873,04;11360,997;  200,185;28223,620;39,82671
 873,60;11378,943;  190,585;28096,698;40,09286
 874,16;11446,175;  210,585;28100,175;40,28596
 874,72;11428,746;  199,385;28028,775;40,35073
 875,28;11445,746;  209,785;27963,375;40,48471
 875,84;11432,889;  186,785;27807,375;40,71638
 876,40;11474,032;  206,985;27740,175;40,92169
 876,95;11479,461;  221,385;27739,775;40,91110
 877,51;11561,175;  255,785;27750,375;41,11860
 878,07;11566,604;  239,585;27763,975;41,15266
 878,63;11609,175;  218,585;27739,975;41,38813
 879,19;11719,889;  223,985;27668,175;41,88830
 879,75;11701,318;  217,185;27709,175;41,77265
 880,30;11699,032;  205,385;27794,575;41,65997
 880,86;11822,175;  255,185;27824,575;41,95592
 881,42;11810,746;  190,185;27869,775;41,98242
 881,98;11963,604;  224,585;28080,175;42,14242
 882,54;11925,175;  217,985;28017,575;42,11282
 883,09;12081,889;  226,985;28170,175;42,42502
 883,65;12092,461;  215,585;28300,375;42,28935
 884,21;12267,604;  239,585;28441,775;42,64924
 884,77;12321,175;  217,985;28552,975;42,71464
 885,32;12358,889;  211,185;28662,975;42,69575
 885,88;12472,175;  240,985;28801,975;42,82481
 886,44;12598,032;  212,785;28912,775;43,15419
 887,00;12569,461;  229,785;28898,775;43,04189
 887,56;12649,746;  221,785;29149,775;42,96172
 888,11;12673,461;  217,985;29168,175;43,02381
 888,67;12718,889;  240,185;29323,575;42,90664
 889,23;12778,746;  227,385;29229,775;43,27699
 889,79;12709,032;  208,785;29260,375;43,02776
 890,34;12719,889;  208,785;29149,575;43,23000
 890,90;12883,318;  250,985;29173,175;43,67696
 891,46;12833,746;  217,585;29233,975;43,47943
 892,01;12835,746;  240,585;29083,775;43,66771
 892,57;12876,032;  245,785;29088,775;43,78966
 893,13;12775,604;  226,185;28995,775;43,62043
 893,69;12784,175;  207,585;28903,575;43,82699
 894,24;12825,889;  218,185;28830,175;44,06441
 894,80;12752,032;  225,785;28553,575;44,21894
 895,36;12599,889;  207,385;28458,575;43,86542
 895,91;12670,175;  213,985;28280,375;44,38116
 896,47;12669,461;  230,185;28094,775;44,64188
 897,03;12607,461;  210,385;27903,775;44,76547
 897,58;12564,318;  217,785;27717,175;44,89748
 898,14;12525,604;  233,985;27673,575;44,79520
 898,70;12501,889;  197,385;27601,175;44,90074
 899,25;12461,032;  209,185;27406,375;45,04821
 899,81;12454,889;  238,185;27203,575;45,30513
 900,37;12336,461;  190,985;27044,375;45,22884
 900,92;12384,175;  220,185;26966,575;45,47900
 901,48;12275,461;  204,185;26834,575;45,32895
 902,03;12282,604;  199,385;26749,975;45,51017
 902,59;12262,889;  219,585;26734,975;45,42005
 903,15;12265,604;  242,585;26494,775;45,79815
 903,70;12118,032;  228,985;26272,975;45,64987
 904,26;12108,318;  195,185;26118,375;45,95550
 904,82;12137,175;  217,385;26110,975;46,03375
 905,37;12009,461;  215,585;26019,975;45,70492
 905,93;12006,604;  211,185;25899,975;45,91660
 906,48;12022,604;  230,185;25755,975;46,19806
 907,04;11952,604;  248,585;25767,175;45,86468
 907,60;11923,889;  205,985;25499,175;46,32830
 908,15;11914,746;  208,785;25448,375;46,37936
 908,71;11908,746;  251,385;25480,975;46,20512
 909,26;11802,032;  211,185;25169,375;46,44106
 909,82;11863,746;  237,185;25158,575;46,65294
 910,37;11844,604;  250,785;24900,975;47,03338
 910,93;11785,175;  206,785;24712,775;47,24718
 911,48;11724,889;  209,585;24621,375;47,17108
 912,04;11670,318;  203,585;24537,375;47,12268
 912,60;11796,175;  240,185;24691,775;47,26069
 913,15;11681,032;  233,585;24388,775;47,39125
 913,71;11691,032;  208,985;24185,975;47,88778
 914,26;11588,032;  207,785;24091,775;47,64802
 914,82;11649,746;  223,985;24053,375;47,94819
 915,37;11560,889;  209,785;23898,375;47,91802
 915,93;11577,889;  278,185;23892,775;47,85052
 916,48;11591,604;  215,785;23672,775;48,49650
 917,04;11536,889;  232,185;23553,975;48,47271
 917,59;11581,318;  251,985;23506,375;48,71911
 918,15;11441,604;  172,985;23242,175;48,84705
 918,70;11463,889;  194,585;23323,175;48,72456
 919,26;11464,461;  225,985;23132,575;49,06219
 919,81;11422,032;  191,385;23044,175;49,14344
 920,37;11368,318;  209,585;22783,375;49,43225
 920,92;11415,461;  215,385;22795,975;49,60046
 921,48;11301,746;  200,185;22586,375;49,59112
 922,03;11245,175;  214,985;22528,375;49,43305
 922,59;11246,604;  224,785;22401,375;49,70024
 923,14;11191,604;  210,185;22325,175;49,65600
 923,69;11159,604;  224,585;22390,575;49,33242
 924,25;11169,889;  234,585;22114,975;49,97765
 924,80;11096,604;  219,585;21933,575;50,09222
 925,36;11152,318;  216,585;21980,375;50,24737
 925,91;11090,032;  213,985;21765,175;50,46611
 926,47;11056,318;  192,985;21704,975;50,49897
 927,02;11178,032;  246,185;21669,975;51,02667
 927,57;10999,746;  217,385;21431,775;50,82570
 928,13;10978,032;  215,385;21399,175;50,80605
 928,68;10971,461;  214,385;21298,775;51,01915
 929,24;10887,032;  194,985;21056,975;51,25133
 929,79;10803,318;  195,185;20994,175;51,00312
 930,34;10839,032;  220,985;20909,175;51,32420
 930,90;10793,746;  200,585;20822,575;51,36828
 931,45;10817,318;  208,985;20760,775;51,61756
 932,01;10763,461;  226,985;20826,175;51,14995
 932,56;10753,746;  236,785;20657,975;51,50024
 933,11;10751,175;  224,785;20495,575;51,92886
 933,67;10622,746;  218,985;20367,175;51,63621
 934,22;10590,175;  224,385;20302,375;51,62763
 934,77;10614,461;  223,585;20152,375;52,14002
 935,33;10512,032;  228,985;20031,775;51,92726
 935,88;10476,318;  228,585;20037,175;51,73378
 936,43;10410,032;  224,785;19867,775;51,85182
 936,99;10448,604;  203,985;19779,775;52,33310
 937,54;10340,318;  199,385;19705,575;51,98828
 938,09;10382,032;  214,385;19494,375;52,73679
 938,65;10316,746;  212,785;19343,175;52,81629
 939,20;10264,746;  194,585;19422,175;52,37350
 939,75;10211,318;  197,185;19246,375;52,56986
 940,31;10225,604;  193,785;19051,175;53,19834
 940,86;10261,889;  203,585;19200,975;52,94572
 941,41;10322,889;  264,985;19011,775;53,65134
 941,96;10172,889;  207,185;18855,975;53,43888
 942,52;10097,746;  216,385;18838,175;53,06343
 943,07;10002,318;  193,785;18730,975;52,91273
 943,62; 9976,746;  201,585;18591,975;53,15364
 944,18;10049,175;  190,585;18531,975;53,75051
 944,73; 9885,032;  216,785;18403,975;53,15965
 945,28; 9864,604;  181,185;18284,575;53,48953
 945,83; 9886,318;  223,385;18173,575;53,83193
 946,39; 9828,889;  203,785;18154,575;53,61939
 946,94; 9844,889;  234,985;18027,775;54,01010
 947,49; 9801,746;  214,585;17934,375;54,10426
 948,04; 9739,461;  227,185;17990,975;53,54868
 948,59; 9755,746;  229,785;17823,975;54,14265
 949,15; 9681,318;  196,785;17696,575;54,19798
 949,70; 9657,604;  213,385;17583,375;54,37089
 950,25; 9604,461;  231,785;17544,775;54,13667
 950,80; 9620,604;  187,385;17522,775;54,41596
 951,36; 9536,604;  180,985;17437,175;54,21602
 951,91; 9599,175;  211,785;17414,175;54,57027
 952,46; 9521,318;  181,585;17155,375;55,02444
 953,01; 9543,604;  215,185;17166,975;55,02911
 953,56; 9446,889;  186,385;17089,975;54,78425
 954,11; 9468,889;  231,985;17015,775;55,03468
 954,67; 9476,032;  204,985;16958,175;55,33900
 955,22; 9401,889;  188,985;16687,775;55,83988
 955,77; 9429,461;  234,585;16719,375;55,77794
 956,32; 9378,461;  251,185;16646,375;55,67045
 956,87; 9395,175;  206,385;16472,775;56,48942
 957,42; 9353,461;  206,985;16494,775;56,15541
 957,98; 9292,175;  201,785;16257,375;56,61822
 958,53; 9354,032;  224,385;16301,175;56,78775
 959,08; 9305,318;  190,785;16218,575;56,86706
 959,63; 9237,318;  190,585;16122,175;56,78487
 960,18; 9225,032;  217,185;16053,375;56,88140
 960,73; 9282,175;  208,985;15932,375;57,70505
 961,28; 9213,746;  200,785;15844,375;57,61441
 961,83; 9243,746;  216,385;15855,775;57,72195
 962,39; 9182,318;  200,185;15688,175;57,99418
 962,94; 9128,889;  215,585;15571,575;58,04448
 963,49; 9068,032;  209,785;15532,375;57,81168
 964,04; 9039,746;  214,985;15423,175;58,02638
 964,59; 8999,461;  203,585;15309,575;58,22773
 965,14; 9037,461;  214,785;15274,375;58,58510
 965,69; 8941,318;  195,585;15175,975;58,38121
 966,24; 8898,318;  189,785;15058,575;58,56921
 966,79; 8834,889;  215,585;14974,175;58,40195
 967,34; 8754,889;  191,185;14867,575;58,35021
 967,89; 8709,889;  211,985;14773,375;58,35916
 968,44; 8715,461;  219,585;14791,175;58,30438
 968,99; 8696,318;  226,785;14619,175;58,84730
 969,55; 8649,604;  220,985;14511,975;58,97855
 970,10; 8662,461;  214,385;14446,775;59,35810
 970,65; 8640,461;  227,385;14262,975;59,94102
 971,20; 8500,318;  199,185;14271,175;58,99047
 971,75; 8433,604;  188,185;14090,175;59,31107
 972,30; 8428,604;  217,785;14004,775;59,55483
 972,85; 8369,318;  203,585;14013,975;59,12746
 973,40; 8419,461;  203,185;13823,575;60,32335
 973,95; 8339,461;  220,985;13810,175;59,74216
 974,50; 8307,175;  241,385;13734,375;59,77763
 975,05; 8269,318;  215,785;13633,775;60,02041
 975,60; 8279,604;  241,185;13571,975;60,29964
 976,15; 8264,746;  211,385;13443,575;60,86189
 976,70; 8133,604;  222,185;13370,975;60,16842
 977,25; 8137,318;  211,985;13416,975;60,01771
 977,80; 8100,604;  195,985;13126,975;61,12926
 978,35; 8017,604;  211,985;13055,175;60,77632
 978,89; 8007,604;  199,385;12930,375;61,33238
 979,44; 8020,889;  217,785;12903,375;61,51156
 979,99; 7877,746;  201,985;12765,375;61,09626
 980,54; 7867,889;  228,185;12675,975;61,37398
 981,09; 7835,889;  222,585;12618,175;61,41946
 981,64; 7748,461;  221,585;12389,575;61,85800
 982,19; 7784,604;  242,985;12345,775;62,31306
 982,74; 7740,032;  231,185;12263,975;62,40321
 983,29; 7608,318;  192,785;12115,775;62,19525
 983,84; 7575,318;  227,985;12057,575;62,10978
 984,39; 7635,746;  249,385;11963,175;63,05697
 984,94; 7478,604;  200,585;11862,975;62,40589
 985,49; 7510,889;  232,385;11793,175;62,95854
 986,03; 7444,175;  233,785;11663,975;63,08198
 986,58; 7401,746;  268,785;11628,175;62,79353
 987,13; 7304,889;  207,985;11411,575;63,34491
 987,68; 7259,461;  235,985;11312,375;63,40943
 988,23; 7224,318;  226,985;11250,175;63,47829
 988,78; 7141,032;  223,785;11109,775;63,54266
 989,33; 7036,461;  220,985;10968,775;63,41281
 989,88; 7041,461;  251,985;10965,975;63,37019
 990,42; 6969,889;  223,185;10787,175;63,86511
 990,97; 6860,746;  223,185;10681,175;63,46881
 991,52; 6899,318;  235,185;10688,575;63,75093
 992,07; 6862,604;  244,585;10498,775;64,53965
 992,62; 6739,318;  228,185;10449,775;63,69980
 993,17; 6718,032;  230,185;10255,775;64,71287
 993,71; 6629,461;  236,585;10236,375;63,93010
 994,26; 6628,318;  218,185;10051,175;65,19007
 994,81; 6556,889;  239,985;10001,575;64,71184
 995,36; 6497,175;  208,985; 9878,775;65,02923
 995,91; 6477,461;  227,185; 9840,775;65,01500
 996,45; 6384,461;  223,185; 9708,175;64,95817
 997,00; 6375,889;  208,785; 9556,175;65,97675
 997,55; 6290,889;  226,185; 9570,575;64,90209
 998,10; 6307,175;  235,785; 9334,575;66,72744
 998,65; 6252,461;  207,185; 9332,975;66,24386
 999,19; 6176,746;  234,585; 9289,775;65,62161
 999,74; 6070,604;  237,185; 9119,375;65,67545
1000,29; 6062,175;  247,185; 9050,575;66,05399
1000,84; 5975,461;  226,385; 8927,975;66,06926
1001,38; 5901,746;  225,985; 8722,975;66,79732
1001,93; 5892,175;  227,185; 8819,575;65,93032
1002,48; 5827,889;  213,185; 8628,775;66,71789
1003,03; 5829,604;  222,785; 8504,975;67,69729
1003,57; 5748,032;  232,985; 8453,975;67,08495
1004,12; 5711,175;  233,185; 8326,175;67,68809
1004,67; 5607,318;  223,985; 8297,175;66,68161
1005,22; 5564,032;  214,785; 8139,375;67,50188
1005,76; 5486,746;  212,585; 7986,175;67,84718
1006,31; 5453,746;  234,985; 7930,775;67,81320
1006,86; 5342,175;  221,985; 7767,575;67,85672
1007,40; 5295,032;  198,185; 7624,975;68,62786
1007,95; 5248,461;  230,385; 7621,375;67,89450
1008,50; 5192,032;  234,185; 7447,975;68,72736
1009,04; 5104,032;  218,385; 7419,175;67,84877
1009,59; 4986,461;  221,585; 7293,975;67,37292
1010,14; 4920,604;  215,585; 7124,575;68,09995
1010,68; 4871,889;  223,785; 7028,975;68,30234
1011,23; 4804,318;  189,385; 6898,975;68,78115
1011,78; 4736,175;  238,385; 6909,775;67,41908
1012,32; 4695,604;  221,385; 6682,575;69,24759
1012,87; 4651,461;  239,585; 6755,175;67,71260
1013,42; 4607,604;  212,185; 6570,975;69,12351
1013,96; 4589,032;  242,985; 6621,575;68,13492
1014,51; 4490,032;  182,185; 6500,175;68,18382
1015,06; 4507,461;  191,385; 6547,775;67,90137
1015,60; 4562,889;  264,385; 6593,375;67,91770
1016,15; 4520,318;  213,785; 6555,575;67,90721
1016,69; 4530,175;  226,585; 6498,375;68,61821
1017,24; 4533,604;  203,185; 6530,775;68,43709
1017,79; 4586,318;  249,985; 6580,175;68,50241
1018,33; 4558,318;  211,185; 6584,175;68,21183
1018,88; 4632,604;  248,185; 6615,975;68,85306
1019,42; 4655,032;  230,585; 6633,375;69,10186
1019,97; 4650,032;  199,585; 6670,375;68,77749
1020,51; 4711,461;  232,385; 6724,975;68,98750
1021,06; 4714,889;  201,185; 6703,975;69,41181
1021,61; 4666,746;  183,385; 6564,775;70,25682
1022,15; 4647,889;  170,385; 6554,375;70,13646
1022,70; 4718,604;  221,985; 6591,975;70,59067
1023,24; 4647,461;  185,985; 6595,975;69,60191
1023,79; 4666,604;  206,185; 6495,775;70,91748
1024,33; 4637,318;  206,185; 6476,975;70,66307
1024,88; 4581,032;  211,185; 6419,975;70,38162
1025,42; 4579,889;  214,785; 6222,175;72,66224
1025,97; 4454,175;  211,785; 6173,175;71,16444
1026,51; 4398,746;  175,985; 6033,175;72,09535
1027,06; 4412,604;  206,185; 6053,375;71,93915
1027,60; 4339,746;  205,585; 5935,175;72,15458
1028,15; 4269,889;  230,585; 5842,775;71,97376
1028,69; 4204,318;  196,985; 5694,375;72,89519
1029,24; 4144,604;  211,385; 5638,775;72,46980
1029,78; 4114,461;  208,385; 5525,175;73,46680
1030,33; 4008,032;  185,985; 5398,775;73,32057
1030,87; 3993,746;  212,385; 5365,775;73,37619
1031,42; 3894,032;  194,385; 5274,975;72,81924
1031,96; 3882,175;  216,985; 5209,175;73,41848
1032,51; 3791,318;  198,785; 5159,575;72,41856
1033,05; 3779,461;  216,785; 5094,375;73,04172
1033,60; 3646,032;  166,785; 4986,175;72,19269
1034,14; 3632,889;  200,185; 4900,775;73,02709
1034,69; 3615,318;  210,185; 4821,375;73,84499
1035,23; 3535,746;  205,985; 4730,975;73,58605
1035,77; 3502,032;  193,585; 4674,375;73,83625
1036,32; 3441,461;  169,185; 4629,175;73,36958
1036,86; 3425,175;  202,185; 4530,575;74,46164
1037,41; 3372,889;  219,585; 4518,575;73,34989
1037,95; 3341,604;  182,985; 4436,375;74,26120
1038,50; 3259,318;  194,985; 4351,775;73,71873
1039,04; 3252,318;  216,385; 4251,375;75,24016
1039,58; 3212,604;  195,985; 4206,575;75,21633
1040,13; 3153,604;  193,185; 4211,375;73,67543
1040,67; 3151,889;  232,985; 4143,575;74,64102
1041,21; 3109,604;  234,385; 4054,975;75,25588
1041,76; 3017,032;  189,585; 3998,975;74,22309
1042,30; 3022,461;  207,185; 3960,575;75,00621
1042,85; 2991,032;  205,185; 3900,775;75,38301
1043,39; 2941,175;  196,585; 3840,775;75,31413
1043,93; 2931,461;  213,185; 3768,575;76,45506
1044,48; 2882,604;  221,785; 3745,575;75,51013
1045,02; 2839,032;  194,985; 3677,575;75,92186
1045,56; 2845,175;  226,785; 3593,175;77,78035
1046,11; 2797,746;  209,985; 3566,175;77,10414
1046,65; 2735,175;  219,985; 3509,575;76,45907
1047,19; 2713,318;  187,785; 3480,975;76,68956
1047,74; 2655,318;  191,985; 3379,375;77,28370
1048,28; 2650,604;  214,785; 3427,975;75,80686
1048,82; 2665,318;  220,785; 3358,975;77,89627
1049,37; 2601,318;  215,385; 3284,775;77,73313
1049,91; 2562,604;  197,185; 3303,375;76,15177
1050,45; 2537,746;  224,985; 3245,375;76,57162
1050,99; 2473,032;  202,985; 3149,375;77,04503
1051,54; 2429,746;  207,185; 3100,375;76,82044
1052,08; 2448,461;  228,785; 3086,975;77,66019
1052,62; 2398,032;  223,985; 3023,975;77,64482
1053,16; 2341,746;  206,585; 2934,575;78,26867
1053,71; 2340,461;  218,585; 2966,975;77,20432
1054,25; 2311,889;  217,185; 2879,175;78,68941
1054,79; 2278,175;  222,585; 2843,975;78,41603
1055,33; 2212,889;  199,185; 2783,975;77,90591
1055,88; 2217,461;  232,185; 2776,975;78,01334
1056,42; 2216,889;  227,185; 2762,175;78,48963
1056,96; 2148,889;  234,585; 2692,975;77,86821
1057,50; 2151,604;  224,185; 2648,775;79,49462
1058,05; 2085,889;  222,785; 2621,975;77,65555
1058,59; 2080,604;  233,985; 2547,775;79,80926
1059,13; 2054,604;  201,585; 2473,175;81,57364
1059,67; 2036,032;  228,185; 2524,575;78,72561
1060,21; 1985,604;  215,385; 2451,775;79,15518
1060,76; 1982,746;  235,185; 2440,975;79,22610
1061,30; 1965,032;  244,385; 2377,175;80,67588
1061,84; 1964,461;  210,185; 2358,375;81,66297
1062,38; 1868,889;  199,585; 2303,775;79,33239
1062,92; 1909,889;  260,985; 2322,375;79,98992
1063,46; 1839,318;  242,585; 2245,575;79,71747
1064,01; 1817,175;  204,785; 2226,575;79,75062
1064,55; 1808,318;  229,585; 2221,575;79,25406
1065,09; 1752,175;  198,385; 2126,375;80,59119
1065,63; 1775,889;  230,785; 2131,775;81,27893
1066,17; 1778,889;  245,785; 2102,975;82,54967
1066,71; 1766,318;  231,785; 2098,775;82,19288
1067,25; 1704,318;  237,185; 2061,175;80,43536
1067,80; 1711,461;  238,385; 2045,975;81,49391
1068,34; 1723,746;  250,385; 2047,175;81,99965
1068,88; 1629,032;  217,585; 1981,175;80,03261
1069,42; 1673,746;  258,185; 1998,375;81,34522
1069,96; 1620,032;  225,385; 1939,175;81,37795
1070,50; 1651,032;  251,585; 1942,975;82,73947
1071,04; 1556,889;  203,185; 1908,175;79,39661
1071,58; 1574,889;  218,385; 1881,175;81,58001
1072,12; 1534,318;  218,785; 1812,975;82,52046
1072,66; 1521,461;  232,985; 1827,175;80,82322
1073,21; 1508,318;  235,985; 1839,175;79,36257
1073,75; 1474,746;  235,385; 1805,975;78,91056
1074,29; 1482,889;  240,585; 1778,575;80,77454
1074,83; 1470,175;  249,585; 1748,175;81,44923
1075,37; 1461,318;  243,785; 1726,975;82,08880
1075,91; 1438,746;  232,185; 1720,975;81,04309
1076,45; 1442,032;  228,385; 1687,775;83,16126
1076,99; 1390,746;  254,785; 1650,975;81,36152
1077,53; 1359,175;  222,185; 1646,575;79,82294
1078,07; 1371,318;  241,185; 1615,975;82,20404
1078,61; 1345,175;  218,785; 1609,375;81,00087
1079,15; 1312,032;  222,985; 1585,575;79,92479
1079,69; 1282,746;  223,985; 1549,175;79,89507
1080,23; 1314,175;  244,385; 1572,175;80,56922
1080,77; 1330,318;  246,985; 1569,375;81,92234
1081,31; 1258,175;  203,985; 1501,375;81,25467
1081,85; 1263,318;  245,185; 1514,175;80,23175
1082,39; 1239,604;  215,385; 1467,975;81,76806
1082,93; 1257,889;  210,785; 1449,975;84,49909
1083,47; 1200,461;  214,785; 1425,775;81,39421
1084,01; 1216,318;  250,185; 1426,975;82,09900
1084,55; 1194,175;  212,385; 1393,175;83,14688
1085,09; 1179,318;  242,585; 1387,375;81,82574
1085,63; 1176,032;  223,185; 1392,375;81,49635
1086,17; 1153,318;  220,585; 1358,775;81,94878
1086,71; 1145,175;  236,585; 1333,575;82,82573
1087,24; 1164,746;  248,585; 1347,175;83,39430
1087,78; 1136,318;  222,985; 1311,775;83,88513
1088,32; 1092,604;  213,785; 1278,575;82,53445
1088,86; 1120,175;  242,385; 1315,375;81,80785
1089,40; 1092,604;  219,785; 1272,175;82,93680
1089,94; 1058,604;  196,585; 1241,175;82,52219
1090,48; 1064,604;  226,985; 1241,775;82,54107
1091,02; 1066,175;  233,785; 1239,175;82,79275
1091,56; 1037,032;  234,985; 1212,175;82,07689
1092,10; 1009,175;  217,785; 1190,975;81,31917
1092,63; 1046,461;  248,985; 1209,575;83,01936
1093,17; 1016,175;  230,985; 1195,975;81,36768
1093,71; 1005,604;  227,385; 1151,775;84,18726
1094,25; 1025,746;  249,785; 1176,375;83,74377
1094,79;  975,318;  247,785; 1129,175;82,54381
1095,33;  991,604;  232,585; 1100,975;87,40526
1095,87;  988,604;  230,985; 1142,375;83,12781
1096,40;  940,461;  206,985; 1087,375;83,31259
1096,94;  959,889;  238,785; 1072,575;86,48512
1097,48;  937,032;  235,185; 1090,775;82,03078
1098,02;  926,461;  210,785; 1066,575;83,62749
1098,56;  874,032;  196,985;  999,175;84,39985
1099,10;  890,604;  211,585;  999,375;86,19284
1099,63;  867,461;  209,785; 1018,775;81,29590
1100,17;  888,746;  244,185; 1028,775;82,15264
1100,71;  901,889;  239,985; 1012,375;85,69561

