
Integration time [ms]: 130,000
Averaging Nr. [scans]: 7
Smoothing Nr. [pixels]: 0
Data measured with spectrometer [name]: 2009305U1
Wave   ;Sample   ;Dark     ;Reference;Reflectance
[nm]   ;[counts] ;[counts] ;[counts] ;[%]

 175,72;  208,122;  192,986;  201,498;177,83084
 176,32;  234,638;  222,384;  221,717; 0,00000
 176,92;  256,533;  241,385;  235,854; 0,00000
 177,52;  271,704;  259,786;  258,523; 0,00000
 178,12;  243,067;  246,984;  204,441; 0,00000
 178,72;  268,465;  250,783;  241,274; 0,00000
 179,32;  266,339;  247,384;  249,069;1124,81062
 179,92;  242,930;  231,385;  239,762;137,81831
 180,52;  260,806;  244,988;  241,098; 0,00000
 181,12;  267,334;  248,385;  229,716; 0,00000
 181,73;  268,089;  272,585;  262,308; 0,00000
 182,33;  366,786;  306,387;  321,281;405,52864
 182,93;  279,080;  256,186;  256,932; 0,00000
 183,53;  237,476;  246,183;  223,624; 0,00000
 184,13;  244,426;  236,383;  230,131; 0,00000
 184,73;  297,721;  249,982;  256,507;731,68229
 185,33;  290,209;  234,768;  346,100;49,79802
 185,93;  290,808;  232,166;  351,877;48,98610
 186,53;  303,100;  241,967;  348,122;57,58799
 187,13;  343,138;  257,569;  394,908;62,30502
 187,73;  292,615;  220,566;  335,660;62,59976
 188,33;  296,699;  254,365;  362,824;39,03221
 188,93;  308,613;  244,562;  398,475;41,61494
 189,53;  314,519;  258,559;  392,476;41,78689
 190,13;  336,558;  283,155;  430,284;36,29647
 190,73;  285,472;  220,558;  363,114;45,53555
 191,34;  327,659;  253,561;  378,621;59,24992
 191,94;  302,237;  240,364;  345,758;58,70645
 192,54;  298,563;  245,370;  399,729;34,46067
 193,14;  326,436;  248,969;  381,307;58,53717
 193,74;  317,927;  249,968;  364,047;59,57167
 194,34;  312,659;  227,969;  353,891;67,25608
 194,94;  284,384;  218,569;  355,716;47,98843
 195,54;  256,197;  215,168;  334,977;34,24515
 196,14;  279,857;  221,569;  355,380;43,55966
 196,74;  267,973;  216,167;  336,993;42,87646
 197,34;  249,345;  188,971;  344,465;38,82742
 197,94;  294,074;  220,769;  365,195;50,75610
 198,54;  288,273;  238,769;  365,333;39,11334
 199,14;  280,752;  213,971;  370,842;42,57067
 199,74;  258,804;  202,971;  374,033;32,63918
 200,34;  265,884;  199,372;  356,968;42,20423
 200,94;  303,045;  232,170;  410,644;39,71131
 201,54;  292,698;  216,571;  406,478;40,08663
 202,14;  322,796;  231,172;  444,781;42,89340
 202,74;  302,518;  223,371;  453,508;34,39117
 203,34;  288,867;  184,573;  446,416;39,83060
 203,94;  271,772;  173,772;  465,735;33,56566
 204,54;  343,295;  229,569;  530,605;37,77833
 205,14;  298,168;  190,571;  533,994;31,33058
 205,74;  359,048;  239,373;  624,034;31,11178
 206,34;  334,160;  210,772;  632,343;29,26854
 206,94;  370,885;  212,972;  703,417;32,19796
 207,54;  339,302;  188,772;  726,418;27,99795
 208,14;  380,368;  196,172;  794,506;30,78486
 208,74;  397,596;  217,771;  891,670;26,68420
 209,34;  411,221;  210,171;  960,509;26,79446
 209,94;  425,960;  204,571; 1037,280;26,58659
 210,54;  447,370;  213,973; 1112,879;25,96462
 211,14;  497,856;  204,571; 1236,499;28,42105
 211,73;  500,334;  197,971; 1326,867;26,78392
 212,33;  540,278;  206,770; 1438,453;27,07741
 212,93;  538,063;  203,171; 1522,488;25,38371
 213,53;  524,505;  174,371; 1562,260;25,22779
 214,13;  551,247;  205,174; 1652,697;23,90799
 214,73;  541,796;  195,372; 1657,381;23,69508
 215,33;  534,675;  168,771; 1707,080;23,78607
 215,93;  568,489;  206,573; 1816,158;22,48506
 216,53;  564,231;  162,571; 1892,659;23,21616
 217,13;  633,552;  227,173; 2126,822;21,39235
 217,73;  641,736;  196,373; 2281,539;21,35865
 218,33;  633,872;  148,574; 2495,337;20,67948
 218,93;  677,975;  192,576; 2756,037;18,93533
 219,53;  743,639;  185,774; 3043,728;19,51973
 220,13;  753,953;  168,574; 3315,721;18,60030
 220,73;  849,350;  196,771; 3663,262;18,82535
 221,32;  926,024;  176,771; 4002,670;19,58371
 221,92;  977,641;  167,774; 4489,701;18,73855
 222,52; 1078,165;  177,173; 4825,264;19,38414
 223,12; 1147,893;  176,973; 5207,436;19,30081
 223,72; 1268,660;  185,573; 5646,427;19,83365
 224,32; 1359,271;  194,973; 5979,694;20,12712
 224,92; 1417,816;  176,373; 6339,999;20,14144
 225,52; 1528,223;  191,372; 6688,408;20,57632
 226,12; 1618,058;  188,373; 6945,384;21,15855
 226,72; 1700,434;  156,572; 7238,269;21,80074
 227,31; 1824,694;  154,172; 7537,973;22,62414
 227,91; 1926,378;  179,172; 7960,806;22,45294
 228,51; 2094,163;  181,371; 8348,198;23,42148
 229,11; 2220,291;  177,972; 8762,344;23,79112
 229,71; 2349,842;  176,971; 9024,802;24,55823
 230,31; 2525,273;  169,774; 9523,192;25,18330
 230,91; 2704,743;  158,770; 9767,098;26,49757
 231,51; 2810,567;  158,573;10040,244;26,83751
 232,10; 3041,327;  173,574;10533,432;27,68139
 232,70; 3209,231;  168,769;10665,091;28,96693
 233,30; 3489,332;  186,173;11029,985;30,46124
 233,90; 3600,735;  172,773;11194,690;31,10132
 234,50; 3855,268;  170,773;11401,596;32,80699
 235,10; 4039,959;  166,173;11490,599;34,20735
 235,70; 4289,455;  186,972;11624,368;35,86904
 236,29; 4412,764;  179,571;11659,240;36,87556
 236,89; 4571,796;  160,370;11714,814;38,17948
 237,49; 4839,188;  180,372;11688,736;40,48200
 238,09; 4927,874;  182,372;11480,943;42,00090
 238,69; 5045,195;  195,970;11405,171;43,26111
 239,29; 5078,613;  172,372;11141,789;44,72654
 239,89; 5210,251;  182,770;10898,509;46,91679
 240,48; 5105,562;  159,372;10599,047;47,37877
 241,08; 5134,145;  180,972;10337,522;48,76826
 241,68; 5192,991;  189,772;10061,372;50,68296
 242,28; 5086,332;  164,373; 9819,061;50,97999
 242,88; 5040,442;  198,374; 9482,888;52,15210
 243,48; 5050,136;  203,372; 9250,746;53,57095
 244,07; 5006,494;  177,372; 9107,911;54,07426
 244,67; 4973,473;  195,772; 9009,487;54,20757
 245,27; 4939,191;  195,971; 8880,267;54,61836
 245,87; 4899,467;  209,373; 8777,534;54,73863
 246,47; 4919,360;  188,171; 8790,362;54,99981
 247,06; 4875,029;  173,372; 8816,141;54,39989
 247,66; 4773,057;  172,972; 8941,810;52,45945
 248,26; 4867,607;  208,171; 9026,468;52,83828
 248,86; 4856,464;  197,971; 9181,944;51,85337
 249,46; 4864,372;  165,373; 9444,253;50,64188
 250,05; 4938,744;  195,972; 9783,266;49,46935
 250,65; 4955,930;  149,571;10138,313;48,11776
 251,25; 5107,339;  171,372;10609,388;47,28837
 251,85; 5183,783;  159,770;11118,766;45,84374
 252,44; 5299,712;  132,971;11710,174;44,62858
 253,04; 5395,065;  197,371;12463,062;42,37587
 253,64; 5428,942;  163,171;13112,912;40,66314
 254,24; 5649,120;  193,572;13970,475;39,59923
 254,84; 5739,801;  183,973;14890,853;37,77707
 255,43; 5794,973;  191,571;15757,603;35,99762
 256,03; 5917,527;  183,971;16591,684;34,94427
 256,63; 5973,913;  198,570;17660,118;33,07463
 257,23; 5972,316;  169,170;18345,547;31,92686
 257,82; 6054,479;  190,769;19251,922;30,76262
 258,42; 5957,100;  152,769;19951,490;29,31670
 259,02; 5977,428;  194,171;20729,623;28,16230
 259,62; 5796,708;  163,369;21428,059;26,49152
 260,21; 5682,297;  194,771;21896,222;25,28645
 260,81; 5521,526;  172,972;22326,403;24,14323
 261,41; 5311,245;  167,369;22570,864;22,96015
 262,01; 5181,602;  206,768;23108,504;21,72252
 262,60; 4907,459;  168,170;23373,147;20,42359
 263,20; 4708,840;  156,371;23500,628;19,50145
 263,80; 4542,537;  205,368;23599,066;18,53990
 264,40; 4301,006;  160,968;23819,858;17,49887
 264,99; 4154,381;  182,368;23843,294;16,78722
 265,59; 3992,866;  167,567;24059,513;16,01083
 266,19; 3810,875;  146,568;24172,257;15,25162
 266,78; 3723,728;  210,768;24316,185;14,57332
 267,38; 3605,686;  183,967;24330,944;14,17038
 267,98; 3484,832;  157,568;24150,966;13,86742
 268,58; 3401,660;  184,567;24217,448;13,38621
 269,17; 3283,550;  164,966;24285,346;12,92925
 269,77; 3258,612;  198,370;24085,497;12,81126
 270,37; 3176,887;  147,368;23944,855;12,73041
 270,96; 3139,466;  207,769;23900,074;12,37405
 271,56; 3066,173;  182,770;23601,023;12,31263
 272,16; 3034,101;  177,569;23375,339;12,31382
 272,75; 3065,933;  187,969;23411,568;12,39241
 273,35; 3070,207;  190,969;23294,694;12,46222
 273,95; 3140,414;  185,769;23354,159;12,75291
 274,54; 3117,964;  158,572;23331,028;12,77116
 275,14; 3253,441;  192,569;23707,828;13,01654
 275,74; 3293,569;  153,369;23879,482;13,23520
 276,33; 3431,859;  203,970;24142,154;13,48427
 276,93; 3576,784;  188,772;24583,858;13,88809
 277,53; 3706,673;  192,571;25175,231;14,06616
 278,12; 3847,395;  166,570;25657,758;14,43960
 278,72; 4103,789;  205,171;26178,411;15,01013
 279,32; 4294,906;  164,571;26753,991;15,53375
 279,91; 4481,086;  171,371;27521,361;15,75765
 280,51; 4728,193;  184,971;28009,765;16,32796
 281,11; 4979,202;  196,371;28752,665;16,74878
 281,70; 5184,708;  168,771;29039,102;17,37402
 282,30; 5472,173;  164,370;29898,623;17,85080
 282,90; 5752,276;  162,570;30314,080;18,53873
 283,49; 6032,974;  190,569;30828,085;19,06945
 284,09; 6363,292;  203,370;31190,426;19,87902
 284,69; 6596,386;  185,371;31498,658;20,47378
 285,28; 6918,525;  210,370;31942,235;21,14012
 285,88; 7300,348;  227,969;32156,996;22,15031
 286,47; 7528,367;  177,970;32188,289;22,96259
 287,07; 7921,425;  194,771;32347,001;24,03147
 287,67; 8260,279;  195,172;32354,546;25,07856
 288,26; 8598,918;  184,971;32405,315;26,11377
 288,86; 8973,617;  186,570;32495,769;27,19673
 289,46; 9469,904;  186,371;32680,542;28,56984
 290,05; 9914,001;  179,172;32626,997;30,00149
 290,65;10499,158;  185,370;32941,526;31,48656
 291,24;10981,322;  194,771;32878,468;33,00285
 291,84;11552,199;  202,970;33219,118;34,37478
 292,44;12062,059;  169,373;33300,709;35,89558
 293,03;12785,737;  246,171;33547,421;37,65494
 293,63;13164,107;  186,770;33615,584;38,82081
 294,22;13774,215;  208,371;33698,513;40,50698
 294,82;14234,383;  182,368;33743,792;41,86954
 295,41;14592,994;  156,771;33498,702;43,29750
 296,01;15019,139;  227,569;33383,433;44,61223
 296,61;15362,685;  194,371;33207,630;45,94613
 297,20;15443,594;  196,769;32826,653;46,72657
 297,80;15829,951;  204,972;32694,780;48,09194
 298,39;15975,926;  175,570;32287,366;49,20421
 298,99;16226,921;  191,569;32103,970;50,24803
 299,58;16445,421;  202,372;31960,897;51,14548
 300,18;16700,690;  209,372;31811,026;52,18498
 300,78;16742,713;  171,771;31484,299;52,92112
 301,37;17021,509;  207,968;31547,997;53,64877
 301,97;17300,735;  187,571;31411,847;54,80724
 302,56;17454,795;  182,570;31378,165;55,36751
 303,16;17605,248;  154,770;31499,886;55,67208
 303,75;17895,987;  174,571;31460,900;56,64268
 304,35;18271,114;  188,573;31471,397;57,80341
 304,94;18441,970;  194,771;31687,381;57,94121
 305,54;18560,881;  187,371;31750,070;58,21274
 306,13;18752,660;  151,573;31621,627;59,10726
 306,73;18767,734;  159,173;31458,566;59,45343
 307,33;18904,434;  198,772;31266,869;60,20859
 307,92;19076,192;  181,971;31330,916;60,65766
 308,52;19553,702;  169,770;31983,457;60,92954
 309,11;19999,956;  176,969;32351,365;61,61106
 309,71;20315,901;  152,968;32616,552;62,10939
 310,30;20597,075;  174,971;32954,887;62,30066
 310,90;20949,646;  185,971;33262,687;62,77429
 311,49;21079,788;  183,771;33381,562;62,94400
 312,09;21307,430;  151,372;33501,122;63,43693
 312,68;21657,648;  211,971;33895,860;63,66746
 313,28;21862,049;  158,371;34163,316;63,82506
 313,87;21973,256;  155,571;34084,705;64,30369
 314,47;22132,179;  180,169;34410,101;64,13104
 315,06;22326,257;  167,171;34623,354;64,31091
 315,66;22439,288;  175,372;34781,722;64,33477
 316,25;22555,248;  155,370;34635,211;64,96514
 316,85;22612,210;  151,972;34745,960;64,92526
 317,44;22776,515;  158,569;34808,042;65,27645
 318,04;22618,445;  154,570;34964,575;64,53281
 318,63;22716,747;  152,173;34926,013;64,88951
 319,22;22864,807;  179,570;35223,088;64,73448
 319,82;22781,876;  169,770;35286,149;64,39191
 320,41;22681,639;  180,770;35143,517;64,35670
 321,01;22780,378;  184,572;35123,206;64,67284
 321,60;22754,681;  168,770;35341,283;64,21467
 322,20;22528,426;  157,971;35299,850;63,65754
 322,79;22559,699;  208,771;35313,402;63,66946
 323,39;22546,048;  169,373;35372,034;63,56529
 323,98;22489,881;  144,771;35282,670;63,59262
 324,58;22435,000;  178,970;35129,905;63,67793
 325,17;22210,781;  196,170;35027,392;63,20367
 325,76;21986,463;  188,171;34881,219;62,83187
 326,36;21757,767;  149,972;34539,463;62,83255
 326,95;21484,656;  188,371;34192,512;62,62851
 327,55;21080,797;  153,970;33899,863;62,01296
 328,14;20665,978;  170,972;33373,200;61,72780
 328,74;20378,457;  209,170;33084,174;61,35144
 329,33;20085,689;  182,972;32760,777;61,09287
 329,92;19686,191;  158,569;31966,499;61,39231
 330,52;19144,965;  188,172;31457,277;60,62468
 331,11;18771,266;  179,770;31131,730;60,06565
 331,71;18305,800;  183,571;30498,361;59,78016
 332,30;17871,112;  180,371;29967,981;59,38960
 332,89;17537,403;  211,371;29360,253;59,43978
 333,49;16938,383;  177,171;28810,559;58,53730
 334,08;16635,499;  185,570;28460,415;58,17867
 334,68;16209,395;  184,370;28111,558;57,38145
 335,27;15927,564;  194,572;27666,421;57,26950
 335,86;15686,694;  225,970;27437,330;56,81717
 336,46;15377,798;  194,772;27302,755;56,00943
 337,05;15112,383;  170,170;27101,835;55,48195
 337,65;14892,837;  161,970;26927,606;55,03649
 338,24;14764,985;  230,171;26958,727;54,37935
 338,83;14563,778;  214,371;26752,013;54,07190
 339,43;14418,197;  166,370;26752,745;53,60576
 340,02;14269,417;  181,970;26565,382;53,39509
 340,61;14132,387;  175,971;26737,307;52,54410
 341,21;13983,028;  207,170;26763,374;51,87435
 341,80;13909,330;  187,370;26798,720;51,56431
 342,40;13840,472;  194,772;26864,163;51,16615
 342,99;13741,117;  180,971;26944,253;50,66698
 343,58;13666,832;  176,772;27133,577;50,04324
 344,18;13608,858;  180,572;27216,597;49,66812
 344,77;13574,806;  173,570;27606,039;48,85173
 345,36;13589,370;  160,371;27912,912;48,38836
 345,96;13595,144;  210,972;28078,872;48,02720
 346,55;13555,425;  176,173;28447,768;47,32401
 347,14;13565,511;  160,972;28783,106;46,83277
 347,74;13564,822;  139,974;29189,920;46,21299
 348,33;13782,405;  191,974;29817,918;45,87341
 348,92;13853,605;  183,775;30549,105;45,01789
 349,52;13847,343;  156,174;30955,103;44,45339
 350,11;13800,922;  162,170;31210,819;43,92704
 350,70;13735,205;  172,171;31120,364;43,82496
 351,29;13413,273;  152,368;30924,689;43,09361
 351,89;13324,229;  179,969;30993,518;42,65740
 352,48;13145,594;  148,171;30885,421;42,28558
 353,07;12893,071;  183,172;30877,907;41,40742
 353,67;12675,074;  190,175;30820,573;40,75983
 354,26;12447,667;  178,172;30601,753;40,32890
 354,85;12183,106;  177,172;30468,703;39,63462
 355,45;11886,848;  147,370;30439,404;38,75434
 356,04;11661,669;  173,573;30375,327;38,03784
 356,63;11438,604;  206,771;30066,646;37,61514
 357,22;11237,276;  184,368;29905,512;37,18870
 357,82;10960,019;  187,968;29668,706;36,53928
 358,41;10784,359;  199,771;29572,438;36,03550
 359,00;10494,353;  163,770;29435,592;35,29190
 359,60;10317,115;  185,571;29456,479;34,61302
 360,19;10110,891;  182,373;29120,338;34,30966
 360,78; 9857,810;  182,770;29146,310;33,40420
 361,37; 9634,291;  189,170;28916,701;32,87829
 361,97; 9471,060;  182,971;28635,265;32,64443
 362,56; 9207,000;  167,969;28360,780;32,06147
 363,15; 9037,550;  215,170;28158,481;31,57242
 363,74; 8711,815;  172,569;27752,539;30,96177
 364,34; 8500,145;  182,370;27352,554;30,61361
 364,93; 8204,804;  175,169;26963,065;29,97486
 365,52; 7888,409;  145,370;26728,130;29,12804
 366,11; 7724,509;  181,770;26167,240;29,02675
 366,71; 7558,950;  159,970;26022,688;28,60867
 367,30; 7332,630;  174,170;25559,416;28,19929
 367,89; 7193,184;  206,172;25401,865;27,73098
 368,48; 6901,634;  166,169;25075,721;27,03969
 369,07; 6665,919;  183,571;24633,164;26,51311
 369,67; 6527,440;  191,769;24284,979;26,29650
 370,26; 6346,024;  168,771;24087,545;25,82596
 370,85; 6234,396;  186,170;23838,483;25,57139
 371,44; 6008,267;  177,571;23618,579;24,87391
 372,03; 5854,586;  168,370;23337,002;24,54274
 372,63; 5655,435;  147,771;23093,550;24,00295
 373,22; 5565,919;  167,171;22783,439;23,87108
 373,81; 5426,954;  147,170;22461,635;23,66081
 374,40; 5247,419;  169,372;22139,047;23,11389
 374,99; 5120,199;  165,970;21953,443;22,73889
 375,59; 5000,107;  156,172;21667,828;22,51772
 376,18; 4915,174;  191,770;21468,872;22,19947
 376,77; 4809,852;  203,371;21364,952;21,76813
 377,36; 4764,642;  199,370;21278,940;21,65733
 377,95; 4662,626;  176,570;20936,669;21,60903
 378,55; 4570,092;  175,772;20880,606;21,22364
 379,14; 4530,772;  198,770;20761,892;21,06685
 379,73; 4464,159;  184,170;20648,651;20,91423
 380,32; 4449,358;  202,171;20712,913;20,70714
 380,91; 4373,063;  151,769;20583,445;20,66054
 381,50; 4309,766;  179,570;20550,771;20,27468
 382,10; 4305,644;  162,771;20394,913;20,47669
 382,69; 4209,590;  160,970;20364,549;20,03912
 383,28; 4249,715;  192,770;20401,829;20,07489
 383,87; 4163,118;  157,570;20188,334;19,99698
 384,46; 4159,708;  162,369;20195,735;19,95341
 385,05; 4167,753;  202,570;20207,523;19,82101
 385,64; 4114,509;  171,770;20158,440;19,72684
 386,24; 4123,889;  156,168;20099,553;19,89492
 386,83; 4166,784;  192,168;20144,447;19,92061
 387,42; 4172,327;  200,570;20295,621;19,76485
 388,01; 4195,012;  177,767;20546,811;19,72230
 388,60; 4243,670;  179,569;20726,841;19,77927
 389,19; 4300,899;  159,766;21010,611;19,86074
 389,78; 4356,369;  180,366;21128,927;19,93455
 390,37; 4525,353;  208,568;21641,549;20,14085
 390,96; 4546,084;  186,168;21815,620;20,15731
 391,56; 4618,662;  182,966;21914,379;20,41145
 392,15; 4692,020;  157,167;22239,463;20,53615
 392,74; 4695,170;  149,764;22406,546;20,42257
 393,33; 4823,960;  154,165;22663,977;20,74560
 393,92; 4986,970;  188,363;23131,835;20,91491
 394,51; 5015,154;  163,965;23327,444;20,94327
 395,10; 5088,810;  194,760;23569,872;20,93701
 395,69; 5209,981;  182,161;23573,066;21,49477
 396,28; 5255,063;  182,959;23658,331;21,60606
 396,87; 5330,528;  201,757;23993,409;21,55702
 397,46; 5408,050;  181,955;24041,473;21,90361
 398,06; 5548,258;  204,753;24189,344;22,27891
 398,65; 5566,021;  197,949;24189,052;22,37526
 399,24; 5717,301;  180,348;24500,131;22,76728
 399,83; 5746,710;  163,741;24445,460;22,99248
 400,42; 5864,410;  206,135;24512,385;23,27910
 401,01; 5939,260;  170,928;24724,112;23,49322
 401,60; 6050,405;  181,918;24816,096;23,82254
 402,19; 6103,187;  194,110;24662,362;24,14997
 402,78; 6169,227;  219,099;24613,473;24,39139
 403,37; 6199,738;  196,288;24505,274;24,69643
 403,96; 6176,718;  187,674;24293,776;24,84451
 404,55; 6241,701;  192,660;24133,732;25,26638
 405,14; 6295,030;  184,247;24038,022;25,61768
 405,73; 6352,098;  197,631;23981,267;25,87690
 406,32; 6442,679;  191,621;24101,578;26,14416
 406,91; 6445,575;  187,609;23737,316;26,57343
 407,50; 6496,249;  185,002;23539,545;27,02363
 408,09; 6482,168;  152,198;23115,950;27,56505
 408,68; 6605,979;  182,995;23193,869;27,91282
 409,27; 6549,083;  154,999;22857,262;28,16496
 409,86; 6617,170;  157,808;22774,037;28,56074
 410,45; 6731,949;  211,416;22694,697;29,00170
 411,04; 6870,586;  212,624;22573,806;29,77464
 411,63; 6788,162;  196,235;22229,067;29,91865
 412,22; 6839,692;  191,644;22057,939;30,40317
 412,81; 6819,804;  201,048;21784,907;30,66531
 413,40; 6809,677;  210,252;21438,664;31,08770
 413,99; 6838,265;  258,651;21227,216;31,37847
 414,58; 6708,128;  187,452;20694,737;31,79688
 415,17; 6741,714;  175,248;20501,298;32,30567
 415,76; 6780,598;  180,244;20395,432;32,65047
 416,35; 6770,845;  174,846;20161,732;33,00163
 416,94; 6912,110;  222,045;20313,714;33,29771
 417,53; 7041,716;  177,648;20493,672;33,78647
 418,12; 7151,435;  174,049;20614,393;34,13537
 418,71; 7339,145;  197,252;20941,732;34,42792
 419,30; 7537,944;  181,049;21012,852;35,31569
 419,89; 7632,079;  185,050;21163,001;35,49932
 420,48; 7860,782;  199,052;21489,970;35,98590
 421,07; 7913,877;  204,653;21596,176;36,03869
 421,66; 8094,722;  164,255;21538,096;37,10361
 422,25; 8114,720;  185,259;21534,257;37,14208
 422,84; 8152,751;  208,860;21487,749;37,33227
 423,43; 8168,598;  195,258;21191,232;37,97557
 424,02; 8175,979;  218,859;20971,837;38,34206
 424,60; 8073,307;  191,663;20564,538;38,68695
 425,19; 8064,110;  209,061;20305,406;39,08695
 425,78; 8150,476;  205,261;20207,342;39,72194
 426,37; 8141,058;  206,063;20111,059;39,86434
 426,96; 8145,824;  205,863;19945,049;40,22436
 427,55; 8119,347;  188,865;19762,574;40,51599
 428,14; 8169,744;  183,867;19519,125;41,30215
 428,73; 8143,289;  208,464;19341,737;41,47134
 429,32; 8249,965;  205,063;19425,276;41,85647
 429,91; 8330,757;  228,464;19418,805;42,22068
 430,50; 8322,013;  205,466;19183,005;42,76923
 431,08; 8325,528;  226,467;18999,311;43,14243
 431,67; 8325,068;  268,868;19016,987;42,97071
 432,26; 8282,205;  281,070;18905,633;42,96012
 432,85; 8317,372;  281,869;18476,831;44,16334
 433,44; 8224,539;  293,471;18078,520;44,59402
 434,03; 8135,476;  304,473;17738,947;44,91677
 434,62; 7995,306;  268,471;17308,235;45,34590
 435,21; 7952,113;  309,069;17213,975;45,21199
 435,79; 8014,315;  281,872;16934,179;46,43466
 436,38; 7967,304;  278,275;16896,072;46,26984
 436,97; 8020,215;  274,475;16729,837;47,07122
 437,56; 7977,354;  266,478;16623,825;47,14014
 438,15; 7998,310;  255,878;16496,161;47,67424
 438,74; 8037,117;  252,078;16499,268;47,91622
 439,33; 8151,140;  229,677;16456,341;48,81757
 439,91; 8209,306;  196,479;16520,581;49,08587
 440,50; 8306,969;  232,479;16621,240;49,26846
 441,09; 8382,151;  254,681;16749,826;49,27189
 441,68; 8424,307;  232,283;16730,041;49,65538
 442,27; 8485,327;  209,882;16687,816;50,22138
 442,86; 8463,771;  206,287;16651,772;50,21125
 443,44; 8602,467;  203,886;16753,004;50,74942
 444,03; 8699,473;  273,887;16791,849;51,00863
 444,62; 8677,317;  204,087;16619,601;51,61721
 445,21; 8611,249;  219,286;16471,340;51,63632
 445,80; 8658,641;  221,889;16363,863;52,26593
 446,39; 8599,171;  255,888;16196,422;52,34005
 446,97; 8499,734;  209,491;15841,813;53,03270
 447,56; 8387,565;  201,493;15706,886;52,79500
 448,15; 8413,811;  204,091;15505,975;53,65170
 448,74; 8321,904;  230,291;15290,758;53,72750
 449,33; 8277,303;  211,892;15142,083;54,02081
 449,91; 8155,928;  223,095;14894,015;54,07182
 450,50; 8104,081;  196,694;14714,040;54,46854
 451,09; 8088,356;  211,295;14708,166;54,33628
 451,68; 8131,063;  235,696;14536,163;55,21055
 452,26; 8097,589;  227,697;14402,943;55,51856
 452,85; 8132,806;  211,896;14299,357;56,22667
 453,44; 8125,995;  219,299;14312,838;56,10157
 454,03; 8126,295;  191,497;14305,367;56,21986
 454,61; 8139,750;  207,099;14368,230;56,01707
 455,20; 8323,873;  220,300;14521,704;56,66278
 455,79; 8341,680;  222,498;14447,995;57,07485
 456,38; 8461,534;  223,302;14552,908;57,49099
 456,97; 8532,621;  213,701;14622,094;57,73663
 457,55; 8528,448;  212,703;14558,695;57,96564
 458,14; 8588,008;  229,501;14553,453;58,35336
 458,73; 8546,631;  214,503;14483,287;58,39410
 459,31; 8607,592;  232,705;14529,387;58,57924
 459,90; 8727,338;  247,904;14600,360;59,08002
 460,49; 8899,464;  283,703;14696,165;59,77994
 461,08; 8843,702;  207,506;14867,089;58,91161
 461,66; 9011,890;  224,505;14888,910;59,92323
 462,25; 9065,681;  226,907;14940,115;60,07374
 462,84; 9164,599;  251,506;15011,281;60,38773
 463,43; 9127,799;  194,909;14974,511;60,44067
 464,01; 9179,441;  218,710;14995,271;60,64152
 464,60; 9222,587;  257,108;14803,201;61,63496
 465,19; 9041,977;  185,910;14720,475;60,93108
 465,77; 9139,789;  217,911;14554,854;62,22999
 466,36; 9081,955;  245,309;14525,559;61,88019
 466,95; 8956,892;  200,709;14226,494;62,42918
 467,53; 8868,797;  204,512;13914,149;63,19850
 468,12; 8664,370;  249,513;13740,122;62,37567
 468,71; 8526,044;  230,310;13415,162;62,91867
 469,29; 8381,047;  191,513;13187,353;63,01658
 469,88; 8263,871;  227,514;12883,731;63,49731
 470,47; 8366,324;  255,916;12949,820;63,89215
 471,06; 8243,467;  220,316;13005,744;62,75231
 471,64; 8442,282;  220,515;13189,379;63,39620
 472,23; 8443,227;  196,519;13015,701;64,33100
 472,81; 8480,463;  188,917;13223,040;63,61414
 473,40; 8576,903;  191,319;13326,682;63,83976
 473,99; 8788,358;  285,319;13423,177;64,72165
 474,57; 8888,331;  209,519;13701,757;64,32448
 475,16; 8995,582;  222,117;13824,843;64,49784
 475,75; 9118,015;  225,720;13942,558;64,82758
 476,33; 9211,816;  231,721;14015,988;65,14743
 476,92; 9325,372;  233,519;13987,799;66,10200
 477,51; 9370,163;  229,721;14118,754;65,81050
 478,09; 9377,501;  232,321;14143,545;65,73958
 478,68; 9412,608;  216,521;14012,349;66,65846
 479,27; 9445,859;  233,520;14178,435;66,06236
 479,85; 9483,192;  218,121;14165,872;66,42699
 480,44; 9560,781;  207,122;14306,392;66,34144
 481,02;10511,009;  229,523;16077,972;64,87377
 481,61;11888,071;  254,923;17850,264;66,11494
 482,20;12829,932;  254,723;19118,411;66,66358
 482,78;13380,961;  260,922;19733,161;67,37817
 483,37;13747,424;  262,525;19948,568;68,49980
 483,95;14000,544;  295,325;20382,571;68,22846
 484,54;14194,602;  297,122;20576,671;68,52953
 485,13;14178,125;  258,327;20626,963;68,33937
 485,71;14222,875;  265,126;20428,959;69,22170
 486,30;14092,927;  288,926;20149,750;69,50367
 486,88;13902,969;  315,727;19817,991;69,67007
 487,47;13400,867;  305,527;19173,432;69,40538
 488,05;12864,327;  304,528;18210,999;70,14111
 488,64;11972,154;  297,729;16839,124;70,57703
 489,23;10778,173;  293,128;14766,050;72,44595
 489,81; 9107,812;  292,329;12721,186;70,92754
 490,40; 8549,970;  236,929;12197,408;69,50425
 490,98; 8477,312;  233,530;11871,146;70,83738
 491,57; 8305,746;  277,529;11845,499;69,40040
 492,15; 8325,248;  261,530;11813,481;69,80395
 492,74; 8237,665;  257,928;11767,515;69,33122
 493,32; 8157,558;  259,930;11624,078;69,49600
 493,91; 8115,591;  231,331;11482,743;70,07351
 494,50; 8139,321;  245,333;11400,981;70,76225
 495,08; 8065,853;  225,733;11356,514;70,43639
 495,67; 8115,979;  241,930;11337,151;70,96793
 496,25; 8001,391;  210,132;11263,524;70,48749
 496,84; 8041,809;  202,730;11298,531;70,64906
 497,42; 7968,134;  197,532;11106,042;71,23431
 498,01; 8030,863;  219,131;11139,496;71,53362
 498,59; 7964,746;  203,133;11065,034;71,45723
 499,18; 7933,540;  202,331;11012,202;71,51990
 499,76; 7894,170;  205,132;10907,562;71,84385
 500,35; 7709,559;  203,734;10683,262;71,62369
 500,93; 7721,705;  187,332;10677,317;71,82444
 501,52; 7690,681;  200,133;10557,596;72,32030
 502,10; 7745,501;  208,535;10546,594;72,90504
 502,69; 7615,377;  196,336;10400,362;72,70699
 503,27; 7513,751;  190,133;10262,506;72,70995
 503,86; 7448,244;  209,735;10065,112;73,44731
 504,44; 7368,354;  182,936;10030,290;72,96801
 505,03; 7228,653;  162,736; 9694,137;74,13303
 505,61; 7102,261;  192,536; 9702,182;72,66016
 506,19; 7047,964;  204,136; 9472,108;73,84385
 506,78; 6832,327;  172,338; 9340,713;72,64088
 507,36; 6804,872;  183,936; 9137,175;73,95019
 507,95; 6647,696;  181,139; 9036,995;73,02012
 508,53; 6594,248;  187,138; 8897,027;73,56133
 509,12; 6471,265;  199,738; 8754,622;73,30932
 509,70; 6389,060;  204,739; 8637,406;73,33767
 510,29; 6342,845;  205,340; 8415,965;74,75077
 510,87; 6192,222;  174,738; 8270,731;74,32669
 511,46; 6039,095;  177,338; 8086,477;74,11371
 512,04; 5903,543;  186,939; 7957,770;73,56489
 512,62; 5881,576;  196,138; 7778,868;74,97877
 513,21; 5720,132;  171,140; 7678,090;73,91806
 513,79; 5622,800;  197,143; 7549,188;73,79793
 514,38; 5487,767;  181,142; 7320,047;74,33389
 514,96; 5445,506;  209,742; 7281,093;74,04193
 515,54; 5358,861;  181,542; 7104,679;74,78285
 516,13; 5298,304;  186,942; 7021,976;74,78181
 516,71; 5198,351;  192,944; 6926,813;74,33181
 517,30; 5056,176;  181,145; 6826,840;73,35622
 517,88; 5048,058;  188,345; 6746,811;74,09833
 518,46; 4964,698;  170,545; 6594,672;74,62731
 519,05; 4859,781;  179,746; 6495,754;74,09799
 519,63; 4883,285;  191,345; 6542,018;73,88099
 520,22; 4812,037;  217,947; 6442,155;73,81003
 520,80; 4749,999;  187,147; 6364,261;73,86705
 521,38; 4755,730;  210,146; 6401,013;73,42404
 521,97; 4670,796;  200,348; 6282,943;73,49574
 522,55; 4668,614;  199,748; 6282,800;73,46421
 523,13; 4674,723;  179,949; 6301,529;73,42506
 523,72; 4652,295;  168,345; 6249,243;73,73829
 524,30; 4742,286;  211,950; 6385,078;73,38802
 524,89; 4754,473;  176,548; 6358,449;74,05367
 525,47; 4843,964;  200,750; 6540,633;73,23816
 526,05; 4868,991;  161,550; 6521,777;74,01372
 526,64; 5000,890;  201,551; 6660,943;74,30018
 527,22; 5051,041;  202,350; 6749,594;74,05698
 527,80; 5213,020;  216,751; 6871,971;75,07293
 528,39; 5257,154;  197,351; 6962,595;74,79114
 528,97; 5405,048;  197,551; 7113,440;75,29758
 529,55; 5476,606;  203,749; 7325,624;74,03748
 530,14; 5652,988;  207,752; 7528,922;74,37658
 530,72; 5731,528;  185,551; 7652,030;74,27834
 531,30; 5774,807;  177,752; 7705,828;74,34908
 531,89; 5935,495;  197,552; 7831,933;75,15925
 532,47; 5941,433;  228,752; 7901,317;74,45595
 533,05; 5979,110;  233,151; 8000,980;73,97124
 533,63; 6018,786;  227,153; 8024,404;74,27787
 534,22; 6048,682;  184,953; 8097,148;74,11002
 534,80; 6101,651;  208,154; 8130,623;74,38964
 535,38; 6200,380;  261,952; 8300,477;73,87460
 535,97; 6134,512;  217,952; 8189,603;74,22000
 536,55; 6206,626;  239,754; 8349,577;73,57586
 537,13; 6109,508;  259,552; 8289,256;72,85394
 537,71; 6144,974;  298,752; 8354,350;72,57341
 538,30; 6199,490;  324,553; 8330,979;73,37777
 538,88; 6257,294;  370,155; 8471,232;72,67107
 539,46; 6405,897;  409,954; 8696,680;72,35600
 540,05; 6442,525;  418,554; 8885,743;71,14488
 540,63; 6616,331;  489,755; 8987,277;72,09839
 541,21; 6669,739;  514,355; 9101,578;71,68072
 541,79; 6754,284;  550,155; 9207,482;71,66333
 542,38; 6882,706;  583,154; 9437,837;71,14373
 542,96; 6926,355;  595,756; 9546,966;70,72339
 543,54; 7109,647;  618,955; 9809,719;70,62189
 544,12; 7220,052;  575,756; 9945,922;70,90905
 544,70; 7223,940;  567,556; 9959,138;70,87607
 545,29; 7404,486;  575,354;10202,475;70,93638
 545,87; 7405,712;  539,155;10182,482;71,20527
 546,45; 7383,017;  494,954;10226,408;70,78144
 547,03; 7506,541;  481,555;10286,689;71,64600
 547,62; 7519,350;  445,155;10398,845;71,07107
 548,20; 7723,263;  442,556;10554,508;72,00101
 548,78; 7711,124;  423,559;10673,898;71,09584
 549,36; 7769,616;  378,158;10871,763;70,43774
 549,94; 7891,417;  338,556;10875,057;71,68282
 550,53; 8114,717;  337,358;11173,922;71,76961
 551,11; 8129,127;  320,159;11369,121;70,67603
 551,69; 8422,511;  321,158;11645,981;71,53624
 552,27; 8548,610;  263,357;11964,718;70,80589
 552,85; 8824,218;  262,159;12227,130;71,55938
 553,44; 8980,018;  260,958;12593,143;70,70166
 554,02; 9222,059;  280,559;12963,584;70,49974
 554,60; 9369,933;  217,759;13196,779;70,51514
 555,18; 9643,875;  271,558;13667,468;69,96402
 555,76; 9849,644;  251,559;13974,632;69,94122
 556,34;10145,186;  240,560;14358,681;70,15541
 556,93;10399,720;  228,358;14680,944;70,37745
 557,51;10496,264;  209,960;14982,768;69,62999
 558,09;10823,252;  232,158;15343,801;70,08566
 558,67;11027,698;  236,761;15780,364;69,42365
 559,25;11206,163;  255,961;15964,284;69,70955
 559,83;11410,481;  221,562;16289,350;69,63572
 560,41;11611,717;  221,760;16657,165;69,30134
 561,00;11842,581;  218,961;17034,859;69,12280
 561,58;11943,729;  214,160;17279,088;68,73495
 562,16;12127,595;  211,959;17477,464;69,01412
 562,74;12368,956;  185,759;17965,327;68,52358
 563,32;12608,286;  200,362;18437,359;68,03710
 563,90;12814,711;  224,961;18787,212;67,82448
 564,48;13074,818;  225,160;19233,648;67,59958
 565,06;13431,619;  212,161;19645,953;68,02305
 565,65;13830,671;  215,363;20566,587;66,90167
 566,23;14276,192;  265,961;21284,202;66,65748
 566,81;14741,110;  220,561;21811,894;67,25175
 567,39;15230,483;  241,762;22814,523;66,40181
 567,97;15634,436;  243,961;23468,486;66,26820
 568,55;16114,039;  233,162;24299,977;65,98662
 569,13;16433,984;  208,961;24989,088;65,47595
 569,71;16997,400;  226,159;25929,073;65,25035
 570,29;17630,655;  262,958;26884,706;65,23875
 570,87;18100,905;  260,159;27621,986;65,20305
 571,45;18405,736;  260,561;28308,382;64,69371
 572,03;18732,017;  207,762;28687,954;65,04259
 572,61;19114,260;  205,562;29493,539;64,56130
 573,20;19490,369;  253,960;30196,149;64,24516
 573,78;19809,728;  237,562;30789,806;64,06130
 574,36;20050,674;  247,561;31220,242;63,93735
 574,94;20201,409;  271,162;31592,384;63,63176
 575,52;20304,341;  227,364;31876,615;63,43587
 576,10;20632,259;  291,163;32314,782;63,51904
 576,68;20912,835;  281,962;32978,611;63,09782
 577,26;21303,190;  282,765;33716,239;62,87239
 577,84;21486,415;  314,361;34175,662;62,52581
 578,42;21683,476;  332,563;34450,721;62,57933
 579,00;21690,027;  282,962;34449,854;62,65441
 579,58;21681,331;  314,963;34647,623;62,23336
 580,16;21652,257;  304,563;34683,208;62,09580
 580,74;21645,440;  320,163;35084,276;61,34279
 581,32;21827,904;  300,363;35042,672;61,96347
 581,90;21552,335;  308,963;35056,770;61,13586
 582,48;21575,699;  323,563;35155,656;61,01309
 583,06;21644,994;  327,563;35249,557;61,04300
 583,64;21646,668;  322,562;35423,889;60,75014
 584,22;21362,798;  320,164;35040,284;60,60645
 584,80;21259,698;  344,963;34743,607;60,80104
 585,38;20845,783;  333,160;34402,452;60,20854
 585,96;20783,093;  315,962;34409,142;60,03292
 586,54;20714,809;  351,964;34509,758;59,61405
 587,12;20630,961;  306,564;34596,659;59,27192
 587,70;20757,847;  333,362;34763,209;59,32203
 588,28;20610,052;  320,363;34823,468;58,80540
 588,86;20636,820;  312,964;35000,232;58,59169
 589,44;20591,285;  299,765;35002,445;58,47249
 590,02;20609,503;  311,965;35292,308;58,02555
 590,59;20555,601;  283,364;35307,920;57,88007
 591,17;20585,751;  275,567;35479,458;57,69301
 591,75;20624,380;  279,566;35627,726;57,55551
 592,33;20612,975;  292,366;35740,399;57,32507
 592,91;20678,566;  243,367;36020,216;57,11850
 593,49;20754,312;  253,767;36438,908;56,65459
 594,07;20795,246;  263,167;36604,270;56,49823
 594,65;20729,745;  294,964;36588,969;56,30346
 595,23;20838,555;  266,765;37001,975;56,00020
 595,81;20800,583;  254,965;37266,968;55,51069
 596,39;20787,883;  252,565;37293,740;55,43916
 596,97;20778,826;  251,967;37509,721;55,09419
 597,55;20593,202;  256,365;37318,563;54,87218
 598,12;20514,197;  237,968;37345,902;54,64122
 598,70;20574,568;  234,367;37422,990;54,69469
 599,28;20546,607;  257,567;37742,333;54,12610
 599,86;20373,723;  238,367;37792,313;53,61715
 600,44;20371,090;  205,967;37837,897;53,58514
 601,02;20294,115;  252,969;37871,236;53,27504
 601,60;20208,446;  247,766;38017,964;52,84770
 602,18;20025,184;  211,768;37952,129;52,49927
 602,75;19930,258;  231,365;37897,901;52,29813
 603,33;19833,633;  238,167;37944,028;51,96928
 603,91;19685,474;  235,169;37847,926;51,71199
 604,49;19669,179;  240,167;37988,858;51,46937
 605,07;19602,471;  267,166;37989,735;51,25660
 605,65;19432,507;  275,568;38103,299;50,64258
 606,23;19496,885;  313,964;38417,871;50,34371
 606,80;19383,232;  387,765;38345,005;50,04438
 607,38;19178,525;  416,568;38379,543;49,42172
 607,96;19175,595;  473,965;38471,967;49,21740
 608,54;18954,623;  556,368;38527,803;48,45288
 609,12;18939,414;  539,765;38612,748;48,32731
 609,70;18802,905;  566,567;38558,532;48,00051
 610,27;18726,503;  583,965;38723,908;47,56834
 610,85;18660,631;  613,567;38653,055;47,44297
 611,43;18580,984;  590,967;38701,742;47,20454
 612,01;18317,639;  553,366;38429,382;46,90111
 612,59;18190,749;  558,967;38572,284;46,38317
 613,16;18110,109;  545,364;38430,980;46,36257
 613,74;17924,244;  498,767;38313,171;46,08158
 614,32;17825,871;  441,568;38356,385;45,85095
 614,90;17689,616;  421,966;37970,909;45,98705
 615,48;17375,501;  377,365;37840,010;45,37356
 616,05;17272,537;  335,764;37790,131;45,21975
 616,63;17066,858;  347,564;37695,651;44,76613
 617,21;17026,062;  318,965;37566,661;44,85404
 617,79;16968,935;  321,566;37422,331;44,87069
 618,36;16671,159;  317,366;37454,440;44,03630
 618,94;16416,722;  270,365;37060,621;43,88759
 619,52;16216,561;  298,764;36965,252;43,41238
 620,10;16023,479;  269,565;36874,987;43,03711
 620,67;15901,040;  287,364;36807,394;42,75373
 621,25;15786,718;  299,566;36373,517;42,93168
 621,83;15742,736;  292,565;36417,269;42,76899
 622,41;15563,748;  318,765;36510,592;42,12272
 622,98;15410,079;  307,364;36334,213;41,92072
 623,56;15327,207;  305,963;36379,316;41,64083
 624,14;15117,812;  258,167;36056,749;41,50903
 624,72;14969,969;  273,565;36110,078;41,00958
 625,29;14836,532;  252,364;35955,259;40,84870
 625,87;14707,675;  300,966;36094,026;40,25001
 626,45;14582,388;  257,563;35941,085;40,14409
 627,02;14425,702;  266,766;35895,646;39,74005
 627,60;14273,882;  251,167;35822,259;39,42166
 628,18;14261,985;  244,365;35763,548;39,46493
 628,76;14204,690;  246,764;35870,280;39,18178
 629,33;14056,434;  269,364;35839,123;38,76065
 629,91;13906,050;  268,565;35889,587;38,28494
 630,49;13876,757;  276,764;35956,892;38,11644
 631,06;13863,743;  277,964;36097,795;37,92809
 631,64;13781,570;  279,563;36138,753;37,65285
 632,22;13601,917;  229,363;35886,519;37,50314
 632,79;13637,670;  236,363;36219,263;37,24354
 633,37;13582,860;  241,966;36164,868;37,13757
 633,95;13478,011;  254,963;36379,551;36,60401
 634,52;13453,190;  225,965;36519,239;36,44539
 635,10;13345,959;  237,565;36531,728;36,11708
 635,68;13340,930;  223,963;36626,567;36,03305
 636,25;13223,534;  227,562;36805,065;35,52996
 636,83;13189,976;  202,364;36852,080;35,43714
 637,41;13184,396;  232,762;36929,937;35,29327
 637,98;13063,525;  240,162;37154,764;34,73791
 638,56;13024,350;  226,961;37210,748;34,60270
 639,13;12880,819;  212,564;37252,383;34,20172
 639,71;12883,808;  266,964;37549,434;33,84122
 640,29;12677,960;  211,964;37153,267;33,74542
 640,86;12634,465;  230,164;37489,945;33,29139
 641,44;12542,826;  211,764;37365,822;33,18900
 642,02;12491,474;  241,964;37456,499;32,91593
 642,59;12423,549;  209,564;37651,177;32,62142
 643,17;12362,625;  215,764;37740,454;32,37032
 643,74;12273,701;  227,564;37589,132;32,24205
 644,32;12141,349;  243,964;37598,009;31,85032
 644,89;12117,424;  239,564;37716,287;31,69397
 645,47;11975,929;  269,364;37663,564;31,30583
 646,05;11901,719;  235,364;37667,042;31,16706
 646,62;11734,652;  229,765;37442,319;30,91668
 647,20;11715,871;  230,965;37713,197;30,64093
 647,77;11601,375;  203,765;37561,474;30,50939
 648,35;11431,594;  205,965;37397,551;30,18325
 648,92;11391,099;  236,965;37432,229;29,98805
 649,50;11281,032;  176,965;37285,506;29,92321
 650,08;11154,107;  196,965;37310,984;29,52292
 650,65;11119,183;  230,365;37572,261;29,15979
 651,23;11193,116;  196,765;38502,139;28,70707
 651,80;11378,049;  199,965;39424,016;28,49804
 652,38;11440,697;  218,965;39698,694;28,42403
 652,95;11466,773;  196,765;40069,171;28,26518
 653,53;11461,991;  228,165;40138,648;28,14756
 654,10;11399,067;  242,565;40354,726;27,81327
 654,68;11308,429;  202,165;40204,403;27,76411
 655,25;11230,648;  199,965;40496,681;27,37365
 655,83;11161,152;  194,965;40659,958;27,10043
 656,40;11126,228;  233,765;40666,636;26,93962
 656,98;11036,447;  210,165;40604,713;26,80134
 657,55;10910,380;  205,566;40348,391;26,66682
 658,13;10790,456;  202,366;39910,468;26,66481
 658,70;10612,960;  218,366;39739,745;26,30119
 659,28;10279,322;  193,166;38768,623;26,14656
 659,85; 9944,969;  213,366;37923,300;25,80647
 660,43; 9858,188;  231,366;38173,578;25,37233
 661,00; 9811,549;  213,166;38140,655;25,30719
 661,58; 9817,340;  198,966;38531,533;25,09191
 662,15; 9746,701;  183,366;38548,410;24,92721
 662,73; 9841,920;  245,966;39044,488;24,73278
 663,30; 9793,853;  215,566;39303,365;24,50454
 663,88; 9756,500;  199,966;39299,442;24,44159
 664,45; 9660,433;  196,766;39619,720;24,00547
 665,03; 9689,795;  215,166;40113,397;23,74699
 665,60; 9779,157;  260,566;40505,075;23,65190
 666,17; 9697,804;  214,766;40460,152;23,56304
 666,75; 9653,451;  216,166;40839,830;23,23100
 667,32; 9731,956;  225,566;41222,107;23,18827
 667,90; 9679,889;  198,766;41635,185;22,88113
 668,47; 9657,679;  224,966;41620,662;22,78670
 669,05; 9668,326;  212,167;42125,139;22,56141
 669,62; 9577,545;  187,567;42222,417;22,33856
 670,19; 9578,478;  195,967;42072,294;22,40529
 670,77; 9545,268;  204,767;42438,372;22,11628
 671,34; 9500,773;  229,567;42484,249;21,94125
 671,92; 9482,706;  188,167;42555,727;21,93787
 672,49; 9429,496;  215,167;42680,604;21,69842
 673,06; 9374,858;  169,967;42731,482;21,62726
 673,64; 9265,933;  192,567;42741,559;21,32452
 674,21; 9224,724;  189,767;42651,636;21,27781
 674,79; 9205,228;  192,567;42965,714;21,07084
 675,36; 9144,304;  223,767;42944,591;20,88100
 675,93; 9021,951;  207,967;42904,469;20,64334
 676,51; 9047,599;  215,567;43098,746;20,59556
 677,08; 8991,246;  210,967;43232,024;20,40926
 677,65; 8906,750;  210,167;43365,901;20,15163
 678,23; 8895,826;  209,567;43610,179;20,01414
 678,80; 8787,759;  194,967;43687,256;19,75705
 679,38; 8779,549;  185,567;43810,733;19,69960
 679,95; 8733,625;  198,368;44029,211;19,47318
 680,52; 8697,844;  200,968;44211,488;19,30647
 681,10; 8760,063;  216,968;44679,566;19,21412
 681,67; 8720,853;  212,368;45044,843;18,97840
 682,24; 8585,358;  185,368;45052,921;18,72175
 682,82; 8744,291;  196,768;45621,998;18,81669
 683,39; 8722,224;  218,368;46011,476;18,57017
 683,96; 8716,300;  206,168;46193,953;18,50520
 684,54; 8679,375;  177,968;46633,031;18,30028
 685,11; 8685,166;  224,968;46853,308;18,14390
 685,68; 8722,813;  212,968;47257,785;18,08880
 686,25; 8702,032;  195,768;47467,063;17,99456
 686,83; 8710,679;  179,168;47447,340;18,04917
 687,40; 8703,612;  184,368;47926,018;17,84447
 687,97; 8713,402;  218,968;48281,895;17,67357
 688,55; 8578,335;  181,568;48410,373;17,41027
 689,12; 8550,411;  182,368;48523,650;17,31035
 689,69; 8497,344;  186,168;48757,928;17,11113
 690,26; 8490,420;  185,168;48923,805;17,04039
 690,84; 8480,210;  188,968;49088,882;16,95553
 691,41; 8402,286;  214,969;49135,360;16,73600
 691,98; 8480,933;  204,769;49439,637;16,80956
 692,56; 8393,438;  184,969;49458,515;16,65898
 693,13; 8432,371;  246,969;49461,192;16,63219
 693,70; 8291,161;  210,369;49672,870;16,33721
 694,27; 8257,094;  192,969;49684,347;16,29400
 694,84; 8230,027;  193,369;49844,425;16,18628
 695,42; 8248,246;  228,769;49975,702;16,12055
 695,99; 8218,322;  186,569;50355,379;16,00945
 696,56; 8141,683;  186,569;50230,457;15,89628
 697,13; 8168,188;  202,169;50660,334;15,78737
 697,71; 8058,407;  171,569;50584,612;15,64444
 698,28; 8045,483;  200,969;50862,089;15,48429
 698,85; 7997,987;  175,969;51010,167;15,38731
 699,42; 7943,777;  166,369;51064,844;15,28024
 699,99; 7974,282;  192,769;51126,522;15,27771
 700,57; 7921,215;  195,769;51344,599;15,10386
 701,14; 7910,148;  183,769;51441,476;15,07359
 701,71; 7893,367;  224,169;51729,554;14,89009
 702,28; 7858,300;  189,369;51685,431;14,89227
 702,85; 7835,661;  216,570;51676,309;14,80593
 703,43; 7806,023;  194,770;51904,386;14,71922
 704,00; 7862,099;  223,770;52188,864;14,69896
 704,57; 7743,175;  222,170;51968,341;14,53442
 705,14; 7733,393;  238,970;52528,019;14,33268
 705,71; 7727,183;  238,970;52596,096;14,30219
 706,28; 7618,545;  219,770;52301,373;14,20612
 706,86; 7662,907;  235,370;52719,051;14,15209
 707,43; 7587,840;  258,170;52483,928;14,03459
 708,00; 7592,773;  238,970;52641,806;14,03322
 708,57; 7471,849;  204,170;52481,083;13,90227
 709,14; 7495,496;  241,770;52773,961;13,80815
 709,71; 7470,715;  210,770;52768,438;13,81329
 710,28; 7502,362;  213,970;53039,716;13,79705
 710,86; 7446,438;  222,570;53179,193;13,64110
 711,43; 7449,085;  231,170;53178,870;13,63216
 712,00; 7409,875;  219,770;53330,348;13,53799
 712,57; 7433,094;  233,170;53295,225;13,56887
 713,14; 7436,742;  208,370;53449,903;13,57656
 713,71; 7366,532;  228,371;53334,380;13,44134
 714,28; 7345,322;  208,371;53302,258;13,44213
 714,85; 7249,112;  200,171;53229,935;13,29242
 715,42; 7349,045;  204,171;53233,813;13,47336
 716,00; 7305,407;  274,371;53582,890;13,18933
 716,57; 7352,911;  210,171;53702,167;13,35291
 717,14; 7227,559;  188,971;53671,045;13,16065
 717,71; 7274,634;  183,971;53611,322;13,27160
 718,28; 7314,139;  216,971;53832,000;13,23727
 718,85; 7255,929;  186,571;53962,077;13,14606
 719,42; 7247,005;  223,771;53933,555;13,07627
 719,99; 7196,795;  191,771;53690,232;13,09388
 720,56; 7254,442;  211,371;54167,910;13,05323
 721,13; 7198,661;  210,571;54121,387;12,96232
 721,70; 7201,737;  202,171;54006,865;13,00921
 722,27; 7216,384;  217,171;54134,942;12,98127
 722,84; 7272,746;  252,771;54232,419;13,00485
 723,41; 7126,965;  188,571;54242,497;12,83606
 723,98; 7169,326;  198,571;54586,774;12,81667
 724,55; 7133,402;  230,371;54513,652;12,71668
 725,12; 7101,764;  168,372;54409,729;12,78248
 725,69; 7139,983;  190,572;54631,407;12,76507
 726,27; 7118,201;  208,772;54839,084;12,64761
 726,84; 7160,706;  204,172;55140,362;12,66294
 727,41; 7136,639;  217,172;54813,639;12,67384
 727,98; 7126,858;  222,372;55353,716;12,52370
 728,55; 7168,791;  250,572;55086,394;12,61624
 729,12; 7086,295;  200,972;55243,871;12,50901
 729,69; 7092,800;  219,772;55415,549;12,45209
 730,26; 7145,018;  217,372;55694,226;12,48745
 730,82; 7098,237;  209,772;55473,904;12,46462
 731,39; 7048,313;  220,972;55566,181;12,33592
 731,96; 7129,532;  181,972;55957,259;12,45634
 732,53; 7110,751;  212,972;56028,336;12,35821
 733,10; 7134,969;  208,972;56151,813;12,38049
 733,67; 7169,902;  200,972;56541,291;12,36935
 734,24; 7117,550;  206,972;55959,168;12,39517
 734,81; 7152,340;  234,372;56280,646;12,34331
 735,38; 7169,416;  216,372;56038,923;12,45562
 735,95; 7156,634;  206,573;55793,401;12,50307
 736,52; 7135,567;  239,973;56073,078;12,35037
 737,09; 7134,501;  218,973;55695,556;12,46567
 737,66; 7222,719;  269,173;55913,033;12,49652
 738,23; 7168,938;  195,373;56021,110;12,49167
 738,80; 7291,728;  237,773;56286,188;12,58547
 739,37; 7220,233;  237,573;56592,065;12,39060
 739,94; 7239,737;  213,573;56504,343;12,48191
 740,51; 7338,384;  286,973;56571,020;12,52826
 741,07; 7220,175;  199,373;56462,298;12,47856
 741,64; 7315,822;  251,573;56792,775;12,49398
 742,21; 7297,898;  215,973;56653,853;12,54818
 742,78; 7204,831;  194,973;56474,130;12,45551
 743,35; 7317,764;  214,173;56710,607;12,57352
 743,92; 7350,840;  247,373;56925,485;12,53300
 744,49; 7406,487;  237,973;56769,762;12,68050
 745,06; 7373,992;  200,573;56655,440;12,70647
 745,63; 7319,639;  189,373;56752,117;12,60594
 746,19; 7384,858;  204,773;56975,195;12,64758
 746,76; 7359,934;  210,973;56909,872;12,60864
 747,33; 7362,295;  217,174;56688,150;12,65273
 747,90; 7395,371;  227,974;57094,427;12,60391
 748,47; 7436,447;  228,174;56888,104;12,72199
 749,04; 7474,380;  228,574;56982,582;12,76704
 749,61; 7443,170;  209,974;56797,859;12,78223
 750,17; 7520,246;  212,374;56931,137;12,88440
 750,74; 7501,608;  228,374;56910,214;12,83168
 751,31; 7441,255;  194,174;56734,292;12,81759
 751,88; 7497,045;  193,774;56596,569;12,94842
 752,45; 7546,693;  213,974;56822,247;12,95344
 753,02; 7527,768;  209,374;56688,524;12,95769
 753,58; 7555,416;  193,974;56519,402;13,06948
 754,15; 7555,920;  223,774;56777,479;12,96493
 754,72; 7505,139;  193,574;56506,156;12,98389
 755,29; 7489,215;  183,774;56333,834;13,01057
 755,86; 7555,148;  222,374;56512,111;13,02684
 756,42; 7627,652;  221,574;56376,989;13,18854
 756,99; 7562,443;  191,974;56591,266;13,06837
 757,56; 7635,376;  209,774;56331,544;13,23123
 758,13; 7615,451;  176,174;56219,621;13,27412
 758,70; 7717,956;  204,975;56289,899;13,39572
 759,26; 7776,746;  198,175;56434,776;13,47623
 759,83; 7737,822;  207,175;56603,453;13,35309
 760,40; 7794,041;  204,575;56281,331;13,53407
 760,97; 7735,831;  203,775;56472,208;13,38594
 761,53; 7742,335;  192,375;56080,686;13,50902
 762,10; 7750,697;  174,575;56038,363;13,56178
 762,67; 7858,201;  221,575;56070,641;13,67369
 763,24; 7785,135;  164,375;55565,118;13,75570
 763,80; 7841,496;  199,575;55610,596;13,79134
 764,37; 7866,858;  181,175;55604,673;13,86719
 764,94; 7816,648;  178,175;55208,350;13,88052
 765,50; 7877,010;  168,575;55191,628;14,00946
 766,07; 7912,085;  210,375;55220,505;14,00053
 766,64; 7894,161;  191,575;54901,983;14,07883
 767,21; 7911,237;  189,975;54870,260;14,12074
 767,77; 7958,313;  206,375;54707,338;14,22349
 768,34; 7923,532;  210,775;54664,215;14,16395
 768,91; 7936,322;  190,175;54295,093;14,31690
 769,47; 8028,827;  192,376;54498,370;14,43018
 770,04; 7994,474;  209,976;54468,247;14,34712
 770,61; 7980,978;  187,176;54240,525;14,41872
 771,18; 7992,483;  188,776;54080,402;14,48037
 771,74; 8070,702;  210,576;54206,080;14,55700
 772,31; 8047,206;  211,576;54057,757;14,55188
 772,88; 8064,996;  178,176;53704,835;14,73438
 773,44; 8031,215;  191,776;53520,312;14,70027
 774,01; 8136,434;  189,776;53690,790;14,85328
 774,58; 8123,224;  171,776;53432,467;14,92930
 775,14; 8135,871;  184,376;53531,344;14,90524
 775,71; 8141,233;  191,776;53402,422;14,93960
 776,27; 8267,023;  233,976;53302,099;15,13724
 776,84; 8343,813;  246,976;53488,977;15,20761
 777,41; 8269,318;  207,976;53298,054;15,18427
 777,97; 8256,822;  183,976;52923,332;15,30706
 778,54; 8251,469;  206,176;53016,409;15,23435
 779,11; 8311,260;  215,176;53045,287;15,32475
 779,67; 8384,907;  192,776;52911,764;15,53924
 780,24; 8426,697;  214,176;52651,841;15,66149
 780,80; 8414,773;  222,577;52697,919;15,61152
 781,37; 8403,135;  205,977;52485,196;15,67957
 781,94; 8380,068;  194,577;52362,074;15,69079
 782,50; 8454,001;  214,977;52273,751;15,82639
 783,07; 8430,648;  247,977;52383,429;15,69502
 783,63; 8437,724;  190,177;52079,106;15,89462
 784,20; 8492,657;  232,777;52057,584;15,93808
 784,77; 8502,733;  208,577;51928,461;16,03669
 785,33; 8517,666;  187,177;51681,938;16,17735
 785,90; 8550,313;  208,577;51654,016;16,21472
 786,46; 8600,246;  222,377;51544,293;16,32415
 787,03; 8538,751;  205,377;51364,371;16,28917
 787,59; 8645,255;  209,177;51383,648;16,48493
 788,16; 8627,474;  217,777;51273,726;16,47153
 788,73; 8666,264;  223,577;50943,603;16,64567
 789,29; 8654,483;  206,777;50617,081;16,75789
 789,86; 8664,987;  211,977;50367,758;16,85351
 790,42; 8684,492;  215,377;50497,636;16,84315
 790,99; 8665,853;  224,977;50039,713;16,94454
 791,55; 8755,929;  205,378;50188,990;17,10671
 792,12; 8783,005;  231,378;50020,068;17,17584
 792,68; 8789,367;  215,378;49785,745;17,29660
 793,25; 8797,443;  217,578;49649,623;17,35689
 793,81; 8845,376;  253,778;49135,900;17,57616
 794,38; 8737,452;  193,378;49037,778;17,49243
 794,94; 8749,099;  206,978;48908,855;17,53961
 795,51; 8845,746;  218,978;48653,933;17,81104
 796,07; 8843,108;  222,978;48389,010;17,89670
 796,64; 8878,184;  246,778;48626,887;17,84081
 797,20; 8889,974;  225,178;48034,365;18,12370
 797,77; 8792,764;  201,978;47678,042;18,09498
 798,33; 8802,840;  205,178;47540,320;18,16338
 798,90; 8831,344;  246,378;47325,597;18,23515
 799,46; 8814,706;  218,778;46887,675;18,41897
 800,03; 8855,211;  210,378;46838,352;18,54001
 800,59; 8903,286;  237,178;46681,230;18,65924
 801,15; 8923,648;  239,978;46431,307;18,79935
 801,72; 8838,010;  199,378;46248,184;18,75973
 802,28; 8865,800;  240,778;45773,462;18,94248
 802,85; 8881,447;  219,979;45820,939;18,99405
 803,41; 8902,380;  207,179;45618,217;19,14777
 803,98; 8880,313;  212,779;45104,294;19,30773
 804,54; 8845,961;  228,979;44858,572;19,30778
 805,11; 8864,751;  234,979;44625,249;19,44068
 805,67; 8924,255;  240,379;44560,527;19,59352
 806,23; 8855,188;  225,379;44110,804;19,66441
 806,80; 8892,121;  243,379;44193,281;19,67864
 807,36; 8967,197;  261,579;44025,959;19,89202
 807,93; 9019,130;  239,779;43749,036;20,17812
 808,49; 8900,206;  227,379;43464,914;20,05856
 809,05; 8971,711;  210,779;43106,391;20,42384
 809,62; 8978,644;  235,179;43062,269;20,41573
 810,18; 9014,719;  228,779;43010,346;20,53674
 810,74; 8972,653;  197,379;42687,824;20,65235
 811,31; 8965,157;  216,579;42482,301;20,69899
 811,87; 9008,090;  224,179;42432,978;20,81061
 812,44; 8980,880;  258,979;42405,656;20,69416
 813,00; 8974,528;  191,779;42067,533;20,97335
 813,56; 9047,032;  243,779;42111,011;21,02659
 814,13; 9096,965;  227,980;42001,088;21,23133
 814,69; 9045,041;  229,380;41872,566;21,16952
 815,25; 9014,974;  197,380;41443,443;21,37803
 815,82; 9025,050;  234,380;41434,921;21,33630
 816,38; 9036,697;  256,580;41108,398;21,49260
 816,94; 8939,916;  230,780;40893,875;21,41779
 817,51; 8999,563;  199,980;40628,753;21,76565
 818,07; 8925,782;  213,380;40369,030;21,69658
 818,63; 8936,858;  234,580;40002,908;21,88243
 819,20; 9026,219;  236,180;40120,585;22,03879
 819,76; 8900,438;  228,580;39577,863;22,03816
 820,32; 8964,086;  245,380;39498,140;22,21170
 820,89; 8907,161;  250,180;39362,218;22,13380
 821,45; 8865,666;  210,580;39112,895;22,24825
 822,01; 8924,742;  235,980;38901,573;22,47156
 822,57; 8957,532;  232,780;38683,250;22,69088
 823,14; 8911,465;  218,780;38618,327;22,63747
 823,70; 8873,398;  216,780;38358,405;22,69599
 824,26; 8871,474;  231,180;38082,482;22,82694
 824,82; 8940,121;  225,781;37968,360;23,08889
 825,39; 8950,769;  213,381;37732,437;23,28787
 825,95; 8992,416;  237,781;37849,115;23,27659
 826,51; 8979,920;  231,581;37278,792;23,61403
 827,08; 9004,996;  271,781;37273,070;23,60246
 827,64; 9046,501;  239,381;37244,347;23,79983
 828,20; 9014,148;  216,581;36980,024;23,93020
 828,76; 9064,938;  240,981;36879,502;24,08383
 829,32; 9045,728;  245,581;36649,979;24,17331
 829,89; 9048,233;  202,181;36605,657;24,30002
 830,45; 9152,880;  208,181;36540,734;24,61897
 831,01; 9091,099;  230,381;36315,412;24,55511
 831,57; 9092,603;  233,181;36207,689;24,62695
 832,14; 9082,679;  217,381;36185,367;24,64775
 832,70; 9123,041;  208,181;35880,844;24,99073
 833,26; 9094,831;  188,981;35790,321;25,01549
 833,82; 9137,478;  222,181;35743,999;25,09809
 834,38; 9154,126;  205,981;35722,676;25,19419
 834,95; 9204,487;  211,581;35525,354;25,46572
 835,51; 9187,992;  186,381;35588,031;25,42709
 836,07; 9228,925;  222,182;35633,309;25,43478
 836,63; 9270,287;  240,182;35589,986;25,54499
 837,19; 9279,362;  231,582;35327,064;25,78047
 837,75; 9236,438;  191,982;35086,541;25,91939
 838,32; 9334,086;  236,782;35301,018;25,94468
 838,88; 9415,304;  240,382;35185,096;26,25554
 839,44; 9462,380;  203,782;34997,573;26,60992
 840,00; 9397,742;  211,782;35115,651;26,31788
 840,56; 9403,961;  215,182;34777,128;26,58640
 841,12; 9442,322;  210,582;34765,406;26,71621
 841,68; 9456,255;  193,182;34493,283;27,00596
 842,25; 9462,045;  212,582;34672,761;26,84102
 842,81; 9499,693;  203,782;34322,238;27,24599
 843,37; 9522,912;  186,982;34411,115;27,27879
 843,93; 9535,416;  219,182;34236,393;27,38682
 844,49; 9628,635;  223,782;34377,670;27,53670
 845,05; 9607,996;  191,582;34056,748;27,80560
 845,61; 9732,358;  241,182;34182,225;27,96371
 846,17; 9659,005;  207,782;34017,703;27,95399
 846,73; 9626,224;  222,383;34085,180;27,77042
 847,29; 9667,157;  202,783;33852,658;28,12603
 847,86; 9777,804;  196,783;33641,935;28,64697
 848,42; 9758,452;  190,383;33540,812;28,68949
 848,98; 9778,670;  214,383;33519,890;28,71684
 849,54; 9802,889;  204,183;33526,567;28,80558
 850,10; 9829,965;  228,383;33345,045;28,99321
 850,66; 9848,898;  184,783;33153,522;29,31297
 851,22; 9810,260;  182,983;33056,000;29,28626
 851,78; 9925,193;  239,983;33111,277;29,46404
 852,34; 9819,554;  200,783;32939,555;29,38037
 852,90; 9872,916;  212,183;32850,032;29,59978
 853,46; 9845,135;  197,383;32641,709;29,73633
 854,02; 9895,211;  213,983;32643,387;29,85324
 854,58; 9865,144;  203,183;32336,464;30,06839
 855,14; 9891,648;  186,583;32268,742;30,25066
 855,70; 9817,010;  169,983;32086,819;30,22551
 856,26; 9896,086;  216,383;31989,697;30,46488
 856,82; 9836,304;  205,783;31857,374;30,42666
 857,38; 9876,237;  224,383;31752,252;30,61372
 857,94; 9791,028;  204,184;31631,129;30,50517
 858,50; 9881,961;  220,984;31515,207;30,87144
 859,06; 9856,751;  224,584;31482,284;30,81534
 859,62; 9810,255;  213,384;31318,161;30,85337
 860,18; 9858,045;  208,784;31074,239;31,26233
 860,74; 9926,693;  168,984;30912,316;31,73927
 861,30; 9814,626;  173,784;30831,794;31,44641
 861,86; 9900,559;  221,584;30929,071;31,51992
 862,42; 9928,206;  205,384;30590,949;31,99816
 862,98; 9887,568;  225,784;30679,826;31,72578
 863,54; 9880,215;  213,784;30401,504;32,02107
 864,10; 9906,148;  199,384;30453,381;32,08424
 864,66; 9862,796;  204,984;30147,458;32,25455
 865,22; 9865,157;  204,984;30039,336;32,37936
 865,78; 9918,519;  211,984;30028,813;32,55388
 866,34; 9932,880;  201,784;29892,091;32,77533
 866,90; 9970,099;  221,984;29758,968;33,00308
 867,45; 9965,604;  222,184;29624,646;33,13811
 868,01; 9947,251;  222,584;29528,523;33,18326
 868,57; 9916,184;  194,184;29270,201;33,43649
 869,13; 9867,117;  189,785;29094,678;33,47991
 869,69; 9865,479;  202,185;29107,755;33,43056
 870,25; 9876,983;  189,185;29104,833;33,50365
 870,81; 9933,202;  215,785;28973,910;33,79016
 871,37; 9992,992;  209,585;28797,588;34,22207
 871,93; 9983,496;  224,185;28614,065;34,37602
 872,49; 9947,001;  221,585;28385,943;34,53093
 873,04; 9897,220;  200,185;28223,620;34,60330
 873,60; 9804,010;  190,585;28096,698;34,44917
 874,16; 9805,371;  210,585;28100,175;34,40275
 874,72; 9901,514;  199,385;28028,775;34,86289
 875,28; 9919,514;  209,785;27963,375;34,98549
 875,84; 9819,657;  186,785;27807,375;34,87569
 876,40; 9925,657;  206,985;27740,175;35,29802
 876,95; 9992,371;  221,385;27739,775;35,50712
 877,51;10024,657;  255,785;27750,375;35,53016
 878,07;10024,943;  239,585;27763,975;35,55159
 878,63;10045,514;  218,585;27739,975;35,70652
 879,19;10138,086;  223,985;27668,175;36,12459
 879,75;10166,229;  217,185;27709,175;36,18888
 880,30;10164,943;  205,385;27794,575;36,09949
 880,86;10265,800;  255,185;27824,575;36,31061
 881,42;10289,514;  190,185;27869,775;36,48656
 881,98;10311,086;  224,585;28080,175;36,20997
 882,54;10411,086;  217,985;28017,575;36,66637
 883,09;10614,657;  226,985;28170,175;37,17425
 883,65;10676,943;  215,585;28300,375;37,24919
 884,21;10751,086;  239,585;28441,775;37,27193
 884,77;10728,371;  217,985;28552,975;37,09331
 885,32;10894,514;  211,185;28662,975;37,54888
 885,88;11057,657;  240,985;28801,975;37,87219
 886,44;11133,800;  212,785;28912,775;38,05233
 887,00;11173,800;  229,785;28898,775;38,17370
 887,56;11230,514;  221,785;29149,775;38,05563
 888,11;11296,229;  217,985;29168,175;38,26657
 888,67;11451,229;  240,185;29323,575;38,54793
 889,23;11469,371;  227,385;29229,775;38,76228
 889,79;11477,800;  208,785;29260,375;38,78967
 890,34;11553,800;  208,785;29149,575;39,20078
 890,90;11621,086;  250,985;29173,175;39,31272
 891,46;11603,943;  217,585;29233,975;39,24112
 892,01;11605,800;  240,585;29083,775;39,40346
 892,57;11695,657;  245,785;29088,775;39,69724
 893,13;11605,943;  226,185;28995,775;39,55481
 893,69;11662,943;  207,585;28903,575;39,91972
 894,24;11638,943;  218,185;28830,175;39,91599
 894,80;11707,800;  225,785;28553,575;40,53269
 895,36;11641,657;  207,385;28458,575;40,47359
 895,91;11600,943;  213,985;28280,375;40,57151
 896,47;11629,657;  230,185;28094,775;40,91025
 897,03;11557,086;  210,385;27903,775;40,97260
 897,58;11503,800;  217,785;27717,175;41,04096
 898,14;11508,514;  233,985;27673,575;41,08855
 898,70;11476,514;  197,385;27601,175;41,15901
 899,25;11599,800;  209,185;27406,375;41,88159
 899,81;11524,514;  238,185;27203,575;41,85487
 900,37;11418,086;  190,985;27044,375;41,80888
 900,92;11489,371;  220,185;26966,575;42,13349
 901,48;11442,514;  204,185;26834,575;42,20114
 902,03;11482,371;  199,385;26749,975;42,49618
 902,59;11418,514;  219,585;26734,975;42,23558
 903,15;11425,086;  242,585;26494,775;42,59645
 903,70;11322,657;  228,985;26272,975;42,59590
 904,26;11332,800;  195,185;26118,375;42,96391
 904,82;11416,229;  217,385;26110,975;43,24948
 905,37;11388,229;  215,585;26019,975;43,29745
 905,93;11374,514;  211,185;25899,975;43,45603
 906,48;11454,371;  230,185;25755,975;43,97195
 907,04;11498,943;  248,585;25767,175;44,08691
 907,60;11441,229;  205,985;25499,175;44,42003
 908,15;11313,943;  208,785;25448,375;43,99896
 908,71;11520,086;  251,385;25480,975;44,66462
 909,26;11423,943;  211,185;25169,375;44,92617
 909,82;11405,371;  237,185;25158,575;44,81366
 910,37;11403,371;  250,785;24900,975;45,24341
 910,93;11339,943;  206,785;24712,775;45,43035
 911,48;11286,229;  209,585;24621,375;45,37416
 912,04;11291,086;  203,585;24537,375;45,56422
 912,60;11353,229;  240,185;24691,775;45,44917
 913,15;11288,371;  233,585;24388,775;45,76568
 913,71;11211,657;  208,985;24185,975;45,88846
 914,26;11214,514;  207,785;24091,775;46,08413
 914,82;11203,657;  223,985;24053,375;46,07618
 915,37;11240,229;  209,785;23898,375;46,56437
 915,93;11226,514;  278,185;23892,775;46,36256
 916,48;11162,800;  215,785;23672,775;46,66846
 917,04;11165,086;  232,185;23553,975;46,87848
 917,59;11110,943;  251,985;23506,375;46,69638
 918,15;11033,657;  172,985;23242,175;47,07869
 918,70;10983,229;  194,585;23323,175;46,64635
 919,26;10957,800;  225,985;23132,575;46,85034
 919,81;10915,800;  191,385;23044,175;46,92825
 920,37;10966,371;  209,585;22783,375;47,65166
 920,92;10972,514;  215,385;22795,975;47,63883
 921,48;10846,657;  200,185;22586,375;47,55821
 922,03;10916,514;  214,985;22528,375;47,96012
 922,59;10885,514;  224,785;22401,375;48,07200
 923,14;10859,371;  210,185;22325,175;48,15370
 923,69;10829,657;  224,585;22390,575;47,84389
 924,25;10880,800;  234,585;22114,975;48,65642
 924,80;10804,086;  219,585;21933,575;48,74508
 925,36;10762,086;  216,585;21980,375;48,45434
 925,91;10739,657;  213,985;21765,175;48,84033
 926,47;10750,371;  192,985;21704,975;49,07675
 927,02;10839,229;  246,185;21669,975;49,44524
 927,57;10690,514;  217,385;21431,775;49,36804
 928,13;10769,371;  215,385;21399,175;49,82105
 928,68;10750,229;  214,385;21298,775;49,96988
 929,24;10720,800;  194,985;21056,975;50,45451
 929,79;10599,514;  195,185;20994,175;50,02324
 930,34;10576,800;  220,985;20909,175;50,05665
 930,90;10620,943;  200,585;20822,575;50,53032
 931,45;10657,657;  208,985;20760,775;50,84069
 932,01;10625,514;  226,985;20826,175;50,48028
 932,56;10609,943;  236,785;20657,975;50,79605
 933,11;10632,657;  224,785;20495,575;51,34419
 933,67;10522,229;  218,985;20367,175;51,13732
 934,22;10585,514;  224,385;20302,375;51,60442
 934,77;10512,086;  223,585;20152,375;51,62632
 935,33;10452,943;  228,985;20031,775;51,62888
 935,88;10534,229;  228,585;20037,175;52,02613
 936,43;10516,086;  224,785;19867,775;52,39172
 936,99;10457,514;  203,985;19779,775;52,37862
 937,54;10440,657;  199,385;19705,575;52,50268
 938,09;10389,943;  214,385;19494,375;52,77782
 938,65;10427,086;  212,785;19343,175;53,39306
 939,20;10399,086;  194,585;19422,175;53,07218
 939,75;10328,229;  197,185;19246,375;53,18359
 940,31;10330,943;  193,785;19051,175;53,75695
 940,86;10330,086;  203,585;19200,975;53,30469
 941,41;10377,371;  264,985;19011,775;53,94196
 941,96;10306,086;  207,185;18855,975;54,15312
 942,52;10282,229;  216,385;18838,175;54,05411
 943,07;10247,800;  193,785;18730,975;54,23700
 943,62;10250,657;  201,585;18591,975;54,64306
 944,18;10160,943;  190,585;18531,975;54,35988
 944,73;10170,086;  216,785;18403,975;54,72698
 945,28;10083,514;  181,185;18284,575;54,69876
 945,83;10123,800;  223,385;18173,575;55,15493
 946,39;10130,086;  203,785;18154,575;55,29729
 946,94;10134,514;  234,985;18027,775;55,63787
 947,49;10094,086;  214,585;17934,375;55,75405
 948,04;10147,229;  227,185;17990,975;55,84418
 948,59;10113,371;  229,785;17823,975;56,17529
 949,15;10035,371;  196,785;17696,575;56,22117
 949,70;10074,657;  213,385;17583,375;56,77189
 950,25;10103,800;  231,785;17544,775;57,02086
 950,80;10051,514;  187,385;17522,775;56,90169
 951,36; 9944,086;  180,985;17437,175;56,57738
 951,91;10035,086;  211,785;17414,175;57,10428
 952,46; 9906,657;  181,585;17155,375;57,29464
 953,01; 9968,086;  215,185;17166,975;57,53316
 953,56; 9842,514;  186,385;17089,975;57,12472
 954,11; 9878,800;  231,985;17015,775;57,47698
 954,67; 9964,371;  204,985;16958,175;58,25390
 955,22; 9832,943;  188,985;16687,775;58,45252
 955,77; 9842,800;  234,585;16719,375;58,28533
 956,32; 9858,657;  251,185;16646,375;58,59933
 956,87; 9807,943;  206,385;16472,775;59,02697
 957,42; 9782,514;  206,985;16494,775;58,78962
 957,98; 9753,371;  201,785;16257,375;59,49072
 958,53; 9778,800;  224,385;16301,175;59,42987
 959,08; 9698,943;  190,785;16218,575;59,32295
 959,63; 9734,229;  190,585;16122,175;59,90390
 960,18; 9765,086;  217,185;16053,375;60,29165
 960,73; 9752,229;  208,985;15932,375;60,69457
 961,28; 9608,086;  200,785;15844,375;60,13518
 961,83; 9690,514;  216,385;15855,775;60,57864
 962,39; 9643,800;  200,185;15688,175;60,97379
 962,94; 9630,657;  215,585;15571,575;61,31205
 963,49; 9583,086;  209,785;15532,375;61,17308
 964,04; 9599,229;  214,985;15423,175;61,70520
 964,59; 9564,800;  203,585;15309,575;61,97022
 965,14; 9475,657;  214,785;15274,375;61,49485
 965,69; 9493,086;  195,585;15175,975;62,06448
 966,24; 9443,800;  189,785;15058,575;62,23785
 966,79; 9397,943;  215,585;14974,175;62,21704
 967,34; 9377,514;  191,185;14867,575;62,59257
 967,89; 9395,086;  211,985;14773,375;63,06473
 968,44; 9349,086;  219,585;14791,175;62,65274
 968,99; 9382,657;  226,785;14619,175;63,61606
 969,55; 9285,657;  220,985;14511,975;63,42928
 970,10; 9273,514;  214,385;14446,775;63,65150
 970,65; 9302,229;  227,385;14262,975;64,65595
 971,20; 9188,086;  199,185;14271,175;63,87796
 971,75; 9141,943;  188,185;14090,175;64,40630
 972,30; 9140,800;  217,785;14004,775;64,72054
 972,85; 9131,514;  203,585;14013,975;64,64647
 973,40; 9024,371;  203,185;13823,575;64,76457
 973,95; 9043,943;  220,985;13810,175;64,92630
 974,50; 9022,371;  241,385;13734,375;65,07814
 975,05; 9013,086;  215,785;13633,775;65,56348
 975,60; 8996,514;  241,185;13571,975;65,67750
 976,15; 8909,086;  211,385;13443,575;65,73138
 976,70; 8844,943;  222,185;13370,975;65,57834
 977,25; 8855,371;  211,985;13416,975;65,45546
 977,80; 8810,371;  195,985;13126,975;66,61815
 978,35; 8747,229;  211,985;13055,175;66,45735
 978,89; 8725,943;  199,385;12930,375;66,97482
 979,44; 8745,800;  217,785;12903,375;67,22600
 979,99; 8661,514;  201,985;12765,375;67,33477
 980,54; 8641,943;  228,185;12675,975;67,59238
 981,09; 8696,800;  222,585;12618,175;68,36476
 981,64; 8606,514;  221,585;12389,575;68,90973
 982,19; 8530,371;  242,985;12345,775;68,47501
 982,74; 8492,943;  231,185;12263,975;68,66037
 983,29; 8425,800;  192,785;12115,775;69,05160
 983,84; 8429,229;  227,985;12057,575;69,32821
 984,39; 8403,943;  249,385;11963,175;69,61503
 984,94; 8321,943;  200,585;11862,975;69,63717
 985,49; 8315,229;  232,385;11793,175;69,91601
 986,03; 8324,229;  233,785;11663,975;70,78136
 986,58; 8236,514;  268,785;11628,175;70,14223
 987,13; 8129,229;  207,985;11411,575;70,70273
 987,68; 8103,943;  235,985;11312,375;71,03359
 988,23; 8056,086;  226,985;11250,175;71,02391
 988,78; 8039,800;  223,785;11109,775;71,79884
 989,33; 7911,371;  220,985;10968,775;71,55319
 989,88; 7941,229;  251,985;10965,975;71,76825
 990,42; 7795,657;  223,185;10787,175;71,68193
 990,97; 7728,229;  223,185;10681,175;71,76373
 991,52; 7737,371;  235,185;10688,575;71,76798
 992,07; 7654,514;  244,585;10498,775;72,26245
 992,62; 7549,657;  228,185;10449,775;71,62753
 993,17; 7568,943;  230,185;10255,775;73,20026
 993,71; 7475,514;  236,585;10236,375;72,39081
 994,26; 7369,800;  218,185;10051,175;72,73083
 994,81; 7340,371;  239,985;10001,575;72,73801
 995,36; 7294,657;  208,985; 9878,775;73,27638
 995,91; 7240,514;  227,185; 9840,775;72,95224
 996,45; 7188,657;  223,185; 9708,175;73,43679
 997,00; 7095,514;  208,785; 9556,175;73,67542
 997,55; 7096,800;  226,185; 9570,575;73,52663
 998,10; 7059,657;  235,785; 9334,575;74,99758
 998,65; 7016,514;  207,185; 9332,975;74,61633
 999,19; 6876,800;  234,585; 9289,775;73,35257
 999,74; 6835,086;  237,185; 9119,375;74,28236
1000,29; 6781,229;  247,185; 9050,575;74,22190
1000,84; 6739,943;  226,385; 8927,975;74,85480
1001,38; 6640,800;  225,985; 8722,975;75,49515
1001,93; 6646,229;  227,185; 8819,575;74,70615
1002,48; 6514,086;  213,185; 8628,775;74,87176
1003,03; 6557,657;  222,785; 8504,975;76,48789
1003,57; 6444,371;  232,985; 8453,975;75,55521
1004,12; 6476,229;  233,185; 8326,175;77,14137
1004,67; 6369,371;  223,985; 8297,175;76,12092
1005,22; 6226,657;  214,785; 8139,375;75,86351
1005,76; 6170,657;  212,585; 7986,175;76,64505
1006,31; 6155,229;  234,985; 7930,775;76,92834
1006,86; 6028,800;  221,985; 7767,575;76,95641
1007,40; 5951,657;  198,185; 7624,975;77,46916
1007,95; 5939,800;  230,385; 7621,375;77,24831
1008,50; 5816,514;  234,185; 7447,975;77,38414
1009,04; 5721,943;  218,385; 7419,175;76,42992
1009,59; 5685,943;  221,585; 7293,975;77,26324
1010,14; 5644,086;  215,585; 7124,575;78,57155
1010,68; 5559,800;  223,785; 7028,975;78,41096
1011,23; 5463,371;  189,385; 6898,975;78,60371
1011,78; 5412,800;  238,385; 6909,775;77,56127
1012,32; 5360,657;  221,385; 6682,575;79,54064
1012,87; 5351,086;  239,585; 6755,175;78,45031
1013,42; 5244,229;  212,185; 6570,975;79,13524
1013,96; 5272,086;  242,985; 6621,575;78,84345
1014,51; 5173,514;  182,185; 6500,175;79,00185
1015,06; 5211,086;  191,385; 6547,775;78,97094
1015,60; 5256,657;  264,385; 6593,375;78,87944
1016,15; 5240,086;  213,785; 6555,575;79,25681
1016,69; 5263,371;  226,585; 6498,375;80,30859
1017,24; 5213,943;  203,185; 6530,775;79,18904
1017,79; 5328,371;  249,985; 6580,175;80,22487
1018,33; 5330,657;  211,185; 6584,175;80,33077
1018,88; 5388,086;  248,185; 6615,975;80,71718
1019,42; 5408,657;  230,585; 6633,375;80,87212
1019,97; 5425,086;  199,585; 6670,375;80,75522
1020,51; 5493,657;  232,385; 6724,975;81,03503
1021,06; 5439,371;  201,185; 6703,975;80,55291
1021,61; 5489,800;  183,385; 6564,775;83,15453
1022,15; 5431,514;  170,385; 6554,375;82,41130
1022,70; 5436,657;  221,985; 6591,975;81,86311
1023,24; 5425,943;  185,985; 6595,975;81,74674
1023,79; 5364,657;  206,185; 6495,775;82,01603
1024,33; 5358,229;  206,185; 6476,975;82,15940
1024,88; 5336,229;  211,185; 6419,975;82,54497
1025,42; 5227,943;  214,785; 6222,175;83,44985
1025,97; 5223,657;  211,785; 6173,175;84,07221
1026,51; 5038,943;  175,985; 6033,175;83,02544
1027,06; 5015,943;  206,185; 6053,375;82,25759
1027,60; 4980,800;  205,585; 5935,175;83,34305
1028,15; 4943,086;  230,585; 5842,775;83,96902
1028,69; 4834,514;  196,985; 5694,375;84,35875
1029,24; 4762,086;  211,385; 5638,775;83,84695
1029,78; 4680,800;  208,385; 5525,175;84,11871
1030,33; 4639,514;  185,985; 5398,775;85,43466
1030,87; 4626,086;  212,385; 5365,775;85,64655
1031,42; 4513,943;  194,385; 5274,975;85,02079
1031,96; 4496,371;  216,985; 5209,175;85,72163
1032,51; 4429,800;  198,785; 5159,575;85,28914
1033,05; 4394,943;  216,785; 5094,375;85,66029
1033,60; 4304,657;  166,785; 4986,175;85,85884
1034,14; 4228,086;  200,185; 4900,775;85,68926
1034,69; 4188,943;  210,185; 4821,375;86,28484
1035,23; 4161,229;  205,985; 4730,975;87,40889
1035,77; 4124,800;  193,585; 4674,375;87,73486
1036,32; 4030,657;  169,185; 4629,175;86,58029
1036,86; 3985,657;  202,185; 4530,575;87,41061
1037,41; 3911,514;  219,585; 4518,575;85,87899
1037,95; 3890,229;  182,985; 4436,375;87,15974
1038,50; 3894,086;  194,985; 4351,775;88,98936
1039,04; 3795,943;  216,385; 4251,375;88,71293
1039,58; 3751,657;  195,985; 4206,575;88,65708
1040,13; 3691,514;  193,185; 4211,375;87,06232
1040,67; 3687,943;  232,985; 4143,575;88,34876
1041,21; 3640,086;  234,385; 4054,975;89,14070
1041,76; 3565,657;  189,585; 3998,975;88,62501
1042,30; 3567,229;  207,185; 3960,575;89,52024
1042,85; 3470,800;  205,185; 3900,775;88,36519
1043,39; 3438,800;  196,585; 3840,775;88,96943
1043,93; 3409,086;  213,185; 3768,575;89,88889
1044,48; 3359,086;  221,785; 3745,575;89,03200
1045,02; 3312,086;  194,985; 3677,575;89,50525
1045,56; 3287,943;  226,785; 3593,175;90,93295
1046,11; 3251,943;  209,985; 3566,175;90,63724
1046,65; 3197,086;  219,985; 3509,575;90,50066
1047,19; 3168,514;  187,785; 3480,975;90,51191
1047,74; 3106,371;  191,985; 3379,375;91,43489
1048,28; 3090,514;  214,785; 3427,975;89,49764
1048,82; 3042,371;  220,785; 3358,975;89,91127
1049,37; 2998,371;  215,385; 3284,775;90,66904
1049,91; 2961,229;  197,185; 3303,375;88,98501
1050,45; 2970,086;  224,985; 3245,375;90,88564
1050,99; 2895,800;  202,985; 3149,375;91,39371
1051,54; 2874,800;  207,185; 3100,375;92,20324
1052,08; 2851,657;  228,785; 3086,975;91,76689
1052,62; 2793,657;  223,985; 3023,975;91,77433
1053,16; 2770,943;  206,585; 2934,575;94,00173
1053,71; 2737,229;  218,585; 2966,975;91,64069
1054,25; 2677,514;  217,185; 2879,175;92,42444
1054,79; 2645,514;  222,585; 2843,975;92,42918
1055,33; 2562,229;  199,185; 2783,975;91,42110
1055,88; 2579,800;  232,185; 2776,975;92,25182
1056,42; 2607,943;  227,185; 2762,175;93,91587
1056,96; 2525,800;  234,585; 2692,975;93,19982
1057,50; 2486,514;  224,185; 2648,775;93,30771
1058,05; 2440,514;  222,785; 2621,975;92,43658
1058,59; 2451,514;  233,985; 2547,775;95,83970
1059,13; 2355,086;  201,585; 2473,175;94,80147
1059,67; 2355,800;  228,185; 2524,575;92,65042
1060,21; 2276,229;  215,385; 2451,775;92,15046
1060,76; 2322,657;  235,185; 2440,975;94,63603
1061,30; 2257,657;  244,385; 2377,175;94,39617
1061,84; 2228,943;  210,185; 2358,375;93,97483
1062,38; 2166,514;  199,585; 2303,775;93,47679
1062,92; 2203,371;  260,985; 2322,375;94,22702
1063,46; 2117,229;  242,585; 2245,575;93,59226
1064,01; 2086,086;  204,785; 2226,575;93,05124
1064,55; 2071,514;  229,585; 2221,575;92,46679
1065,09; 2041,800;  198,385; 2126,375;95,61331
1065,63; 2039,229;  230,785; 2131,775;95,13167
1066,17; 2066,943;  245,785; 2102,975;98,05986
1066,71; 2014,800;  231,785; 2098,775;95,50212
1067,25; 1953,514;  237,185; 2061,175;94,09752
1067,80; 1951,371;  238,385; 2045,975;94,76631
1068,34; 1944,943;  250,385; 2047,175;94,31029
1068,88; 1892,371;  217,585; 1981,175;94,96461
1069,42; 1931,800;  258,185; 1998,375;96,17427
1069,96; 1858,229;  225,385; 1939,175;95,27676
1070,50; 1910,800;  251,585; 1942,975;98,09772
1071,04; 1806,514;  203,185; 1908,175;94,03746
1071,58; 1846,086;  218,385; 1881,175;97,88973
1072,12; 1801,229;  218,785; 1812,975;99,26317
1072,66; 1823,800;  232,985; 1827,175;99,78829
1073,21; 1766,657;  235,985; 1839,175;95,47665
1073,75; 1745,229;  235,385; 1805,975;96,13225
1074,29; 1746,943;  240,585; 1778,575;97,94328
1074,83; 1733,086;  249,585; 1748,175;98,99310
1075,37; 1717,086;  243,785; 1726,975;99,33324
1075,91; 1690,086;  232,185; 1720,975;97,92521
1076,45; 1657,229;  228,385; 1687,775;97,90690
1076,99; 1661,943;  254,785; 1650,975;100,78556
1077,53; 1611,371;  222,185; 1646,575;97,52852
1078,07; 1616,800;  241,185; 1615,975;100,06001
1078,61; 1584,943;  218,785; 1609,375;98,24304
1079,15; 1565,086;  222,985; 1585,575;98,49630
1079,69; 1558,657;  223,985; 1549,175;100,71553
1080,23; 1563,229;  244,385; 1572,175;99,32622
1080,77; 1556,229;  246,985; 1569,375;99,00586
1081,31; 1480,086;  203,985; 1501,375;98,35907
1081,85; 1491,229;  245,185; 1514,175;98,19176
1082,39; 1462,943;  215,385; 1467,975;99,59826
1082,93; 1452,657;  210,785; 1449,975;100,21644
1083,47; 1405,800;  214,785; 1425,775;98,35052
1084,01; 1433,514;  250,185; 1426,975;100,55569
1084,55; 1390,371;  212,385; 1393,175;99,76257
1085,09; 1406,514;  242,585; 1387,375;101,67186
1085,63; 1383,086;  223,185; 1392,375;99,20549
1086,17; 1356,514;  220,585; 1358,775;99,80138
1086,71; 1326,657;  236,585; 1333,575;99,36938
1087,24; 1354,943;  248,585; 1347,175;100,70708
1087,78; 1357,943;  222,985; 1311,775;104,24029
1088,32; 1320,371;  213,785; 1278,575;103,92532
1088,86; 1289,086;  242,385; 1315,375;97,54990
1089,40; 1293,800;  219,785; 1272,175;102,05485
1089,94; 1242,371;  196,585; 1241,175;100,11454
1090,48; 1275,800;  226,985; 1241,775;103,35291
1091,02; 1271,086;  233,785; 1239,175;103,17396
1091,56; 1240,371;  234,985; 1212,175;102,88546
1092,10; 1216,800;  217,785; 1190,975;102,65364
1092,63; 1228,229;  248,985; 1209,575;101,94189
1093,17; 1217,086;  230,985; 1195,975;102,18766
1093,71; 1205,657;  227,385; 1151,775;105,82894
1094,25; 1184,086;  249,785; 1176,375;100,83216
1094,79; 1171,943;  247,785; 1129,175;104,85232
1095,33; 1145,371;  232,585; 1100,975;105,11250
1095,87; 1148,229;  230,985; 1142,375;100,64227
1096,40; 1129,943;  206,985; 1087,375;104,83511
1096,94; 1110,371;  238,785; 1072,575;104,53309
1097,48; 1108,943;  235,185; 1090,775;102,12343
1098,02; 1092,371;  210,785; 1066,575;103,01434
1098,56; 1062,086;  196,985;  999,175;107,84237
1099,10; 1060,943;  211,585;  999,375;107,81526
1099,63; 1054,800;  209,785; 1018,775;104,45308
1100,17; 1038,800;  244,185; 1028,775;101,27774
1100,71; 1045,800;  239,985; 1012,375;104,32748

