
Integration time [ms]: 130,000
Averaging Nr. [scans]: 7
Smoothing Nr. [pixels]: 0
Data measured with spectrometer [name]: 2009305U1
Wave   ;Sample   ;Dark     ;Reference;Reflectance
[nm]   ;[counts] ;[counts] ;[counts] ;[%]

 175,72;  210,378;  192,986;  201,498;204,33124
 176,32;  224,151;  222,384;  221,717; 0,00000
 176,92;  263,516;  241,385;  235,854; 0,00000
 177,52;  268,651;  259,786;  258,523; 0,00000
 178,12;  238,900;  246,984;  204,441; 0,00000
 178,72;  272,056;  250,783;  241,274; 0,00000
 179,32;  271,278;  247,384;  249,069;1417,84725
 179,92;  261,780;  231,385;  239,762;362,82917
 180,52;  252,096;  244,988;  241,098; 0,00000
 181,12;  266,817;  248,385;  229,716; 0,00000
 181,73;  283,934;  272,585;  262,308; 0,00000
 182,33;  385,131;  306,387;  321,281;528,69465
 182,93;  279,158;  256,186;  256,932; 0,00000
 183,53;  247,220;  246,183;  223,624; 0,00000
 184,13;  245,293;  236,383;  230,131; 0,00000
 184,73;  280,640;  249,982;  256,507;469,89103
 185,33;  290,403;  234,768;  346,100;49,97230
 185,93;  281,513;  232,166;  351,877;41,22211
 186,53;  319,857;  241,967;  348,122;73,37334
 187,13;  331,861;  257,569;  394,908;54,09398
 187,73;  303,266;  220,566;  335,660;71,85454
 188,33;  286,287;  254,365;  362,824;29,43227
 188,93;  311,931;  244,562;  398,475;43,77040
 189,53;  317,547;  258,559;  392,476;44,04795
 190,13;  349,185;  283,155;  430,284;44,87915
 190,73;  280,624;  220,558;  363,114;42,13474
 191,34;  322,080;  253,561;  378,621;54,78910
 191,94;  285,448;  240,364;  345,758;42,77689
 192,54;  320,075;  245,370;  399,729;48,39656
 193,14;  324,523;  248,969;  381,307;57,09180
 193,74;  314,466;  249,968;  364,047;56,53793
 194,34;  299,757;  227,969;  353,891;57,00973
 194,94;  288,887;  218,569;  355,716;51,27213
 195,54;  246,421;  215,168;  334,977;26,08607
 196,14;  278,959;  221,569;  355,380;42,88841
 196,74;  265,330;  216,167;  336,993;40,68916
 197,34;  258,578;  188,971;  344,465;44,76513
 197,94;  290,387;  220,769;  365,195;48,20309
 198,54;  297,943;  238,769;  365,333;46,75393
 199,14;  269,786;  213,971;  370,842;35,58024
 199,74;  267,279;  202,971;  374,033;37,59349
 200,34;  263,016;  199,372;  356,968;40,38447
 200,94;  304,888;  232,170;  410,644;40,74391
 201,54;  288,619;  216,571;  406,478;37,93856
 202,14;  312,109;  231,172;  444,781;37,89030
 202,74;  294,102;  223,371;  453,508;30,73424
 203,34;  283,036;  184,573;  446,416;37,60381
 203,94;  254,431;  173,772;  465,735;27,62652
 204,54;  340,232;  229,569;  530,605;36,76062
 205,14;  298,913;  190,571;  533,994;31,54760
 205,74;  346,907;  239,373;  624,034;27,95552
 206,34;  325,172;  210,772;  632,343;27,13649
 206,94;  328,656;  212,972;  703,417;23,58761
 207,54;  322,423;  188,772;  726,418;24,85853
 208,14;  366,286;  196,172;  794,506;28,43134
 208,74;  370,879;  217,771;  891,670;22,71966
 209,34;  384,583;  210,171;  960,509;23,24442
 209,94;  426,153;  204,571; 1037,280;26,60967
 210,54;  417,818;  213,973; 1112,879;22,67704
 211,14;  464,166;  204,571; 1236,499;25,15634
 211,73;  462,916;  197,971; 1326,867;23,46944
 212,33;  478,395;  206,770; 1438,453;22,05309
 212,93;  502,178;  203,171; 1522,488;22,66379
 213,53;  477,800;  174,371; 1562,260;21,86262
 214,13;  538,069;  205,174; 1652,697;22,99758
 214,73;  505,109;  195,372; 1657,381;21,18572
 215,33;  495,010;  168,771; 1707,080;21,20759
 215,93;  538,175;  206,573; 1816,158;20,60169
 216,53;  514,319;  162,571; 1892,659;20,33122
 217,13;  581,295;  227,173; 2126,822;18,64145
 217,73;  585,875;  196,373; 2281,539;18,67966
 218,33;  591,345;  148,574; 2495,337;18,86731
 218,93;  656,824;  192,576; 2756,037;18,11023
 219,53;  685,838;  185,774; 3043,728;17,49728
 220,13;  695,007;  168,574; 3315,721;16,72732
 220,73;  741,567;  196,771; 3663,262;15,71606
 221,32;  789,164;  176,771; 4002,670;16,00652
 221,92;  881,227;  167,774; 4489,701;16,50774
 222,52;  925,481;  177,173; 4825,264;16,09925
 223,12;  996,531;  176,973; 5207,436;16,29190
 223,72; 1037,738;  185,573; 5646,427;15,60498
 224,32; 1125,535;  194,973; 5979,694;16,08655
 224,92; 1133,932;  176,373; 6339,999;15,53564
 225,52; 1216,292;  191,372; 6688,408;15,77520
 226,12; 1254,357;  188,373; 6945,384;15,77598
 226,72; 1306,258;  156,572; 7238,269;16,23461
 227,31; 1374,655;  154,172; 7537,973;16,52919
 227,91; 1507,668;  179,172; 7960,806;17,07220
 228,51; 1567,210;  181,371; 8348,198;16,96913
 229,11; 1653,510;  177,972; 8762,344;17,18865
 229,71; 1737,510;  176,971; 9024,802;17,63753
 230,31; 1849,387;  169,774; 9523,192;17,95721
 230,91; 1915,020;  158,770; 9767,098;18,27841
 231,51; 2038,414;  158,573;10040,244;19,02352
 232,10; 2166,806;  173,574;10533,432;19,23995
 232,70; 2342,757;  168,769;10665,091;20,71190
 233,30; 2483,553;  186,173;11029,985;21,18609
 233,90; 2594,092;  172,773;11194,690;21,96822
 234,50; 2753,684;  170,773;11401,596;22,99841
 235,10; 2882,360;  166,173;11490,599;23,98521
 235,70; 3041,302;  186,972;11624,368;24,95612
 236,29; 3188,162;  179,571;11659,240;26,20799
 236,89; 3304,690;  160,370;11714,814;27,21308
 237,49; 3431,913;  180,372;11688,736;28,25371
 238,09; 3569,886;  182,372;11480,943;29,98179
 238,69; 3644,595;  195,970;11405,171;30,76602
 239,29; 3807,421;  172,372;11141,789;33,13803
 239,89; 3789,865;  182,770;10898,509;33,66165
 240,48; 3860,425;  159,372;10599,047;35,45180
 241,08; 3909,910;  180,972;10337,522;36,71461
 241,68; 3974,602;  189,772;10061,372;38,34059
 242,28; 3961,518;  164,373; 9819,061;39,32955
 242,88; 4006,133;  198,374; 9482,888;41,01194
 243,48; 4009,420;  203,372; 9250,746;42,06798
 244,07; 3967,921;  177,372; 9107,911;42,44480
 244,67; 3975,987;  195,772; 9009,487;42,89014
 245,27; 4030,059;  195,971; 8880,267;44,14967
 245,87; 4035,811;  209,373; 8777,534;44,65880
 246,47; 4061,377;  188,171; 8790,362;45,02581
 247,06; 4071,548;  173,372; 8816,141;45,10332
 247,66; 4162,111;  172,972; 8941,810;45,49222
 248,26; 4159,826;  208,171; 9026,468;44,81200
 248,86; 4260,935;  197,971; 9181,944;45,22458
 249,46; 4297,350;  165,373; 9444,253;44,53099
 250,05; 4393,153;  195,972; 9783,266;43,77858
 250,65; 4491,451;  149,571;10138,313;43,46774
 251,25; 4643,225;  171,372;10609,388;42,84199
 251,85; 4833,245;  159,770;11118,766;42,64510
 252,44; 4883,704;  132,971;11710,174;41,03523
 253,04; 5111,710;  197,371;12463,062;40,06573
 253,64; 5232,685;  163,171;13112,912;39,14761
 254,24; 5470,375;  193,572;13970,475;38,30181
 254,84; 5666,207;  183,973;14890,853;37,27666
 255,43; 5839,134;  191,571;15757,603;36,28133
 256,03; 5932,021;  183,971;16591,684;35,03261
 256,63; 6118,515;  198,570;17660,118;33,90275
 257,23; 6195,374;  169,170;18345,547;33,15404
 257,82; 6322,812;  190,769;19251,922;32,17037
 258,42; 6277,847;  152,769;19951,490;30,93674
 259,02; 6340,058;  194,171;20729,623;29,92818
 259,62; 6326,078;  163,369;21428,059;28,98095
 260,21; 6242,720;  194,771;21896,222;27,86887
 260,81; 6100,800;  172,972;22326,403;26,75806
 261,41; 5946,379;  167,369;22570,864;25,79513
 262,01; 5832,275;  206,768;23108,504;24,56367
 262,60; 5599,660;  168,170;23373,147;23,40657
 263,20; 5400,836;  156,371;23500,628;22,46576
 263,80; 5280,623;  205,368;23599,066;21,69497
 264,40; 5071,026;  160,968;23819,858;20,75354
 264,99; 4825,001;  182,368;23843,294;19,62152
 265,59; 4655,350;  167,567;24059,513;18,78366
 266,19; 4430,973;  146,568;24172,257;17,83260
 266,78; 4327,447;  210,768;24316,185;17,07782
 267,38; 4104,976;  183,967;24330,944;16,23809
 267,98; 3947,719;  157,568;24150,966;15,79664
 268,58; 3841,229;  184,567;24217,448;15,21525
 269,17; 3672,649;  164,966;24285,346;14,54240
 269,77; 3539,824;  198,370;24085,497;13,98852
 270,37; 3419,635;  147,368;23944,855;13,75047
 270,96; 3361,367;  207,769;23900,074;13,31064
 271,56; 3165,483;  182,770;23601,023;12,73670
 272,16; 3056,202;  177,569;23375,339;12,40909
 272,75; 3007,347;  187,969;23411,568;12,14014
 273,35; 2967,862;  190,969;23294,694;12,01924
 273,95; 2901,125;  185,769;23354,159;11,72009
 274,54; 2839,787;  158,572;23331,028;11,57070
 275,14; 2874,689;  192,569;23707,828;11,40587
 275,74; 2837,679;  153,369;23879,482;11,31373
 276,33; 2923,062;  203,970;24142,154;11,35881
 276,93; 2921,127;  188,772;24583,858;11,20043
 277,53; 3008,512;  192,571;25175,231;11,27158
 278,12; 3053,791;  166,570;25657,758;11,32635
 278,72; 3236,017;  205,171;26178,411;11,66911
 279,32; 3281,522;  164,571;26753,991;11,72252
 279,91; 3430,467;  171,371;27521,361;11,91626
 280,51; 3518,625;  184,971;28009,765;11,98088
 281,11; 3696,007;  196,371;28752,665;12,25522
 281,70; 3789,606;  168,771;29039,102;12,54172
 282,30; 3998,768;  164,370;29898,623;12,89556
 282,90; 4152,292;  162,570;30314,080;13,23224
 283,49; 4325,498;  190,569;30828,085;13,49629
 284,09; 4527,874;  203,370;31190,426;13,95584
 284,69; 4657,409;  185,371;31498,658;14,28160
 285,28; 4858,095;  210,370;31942,235;14,64687
 285,88; 5077,439;  227,969;32156,996;15,18828
 286,47; 5207,370;  177,970;32188,289;15,71181
 287,07; 5452,172;  194,771;32347,001;16,35159
 287,67; 5684,134;  195,172;32354,546;17,06800
 288,26; 5880,075;  184,971;32405,315;17,67549
 288,86; 6162,493;  186,570;32495,769;18,49604
 289,46; 6570,453;  186,371;32680,542;19,64685
 290,05; 6891,732;  179,172;32626,997;20,68724
 290,65; 7221,112;  185,370;32941,526;21,47915
 291,24; 7653,683;  194,771;32878,468;22,82151
 291,84; 8020,086;  202,970;33219,118;23,67665
 292,44; 8391,677;  169,373;33300,709;24,81730
 293,03; 8937,667;  246,171;33547,421;26,09961
 293,63; 9277,545;  186,770;33615,584;27,19443
 294,22; 9811,451;  208,371;33698,513;28,67435
 294,82;10113,281;  182,368;33743,792;29,59026
 295,41;10391,892;  156,771;33498,702;30,69745
 296,01;10762,896;  227,569;33383,433;31,77515
 296,61;11073,746;  194,371;33207,630;32,95456
 297,20;11160,962;  196,769;32826,653;33,60169
 297,80;11444,342;  204,972;32694,780;34,59353
 298,39;11625,674;  175,570;32287,366;35,65700
 298,99;11976,685;  191,569;32103,970;36,92958
 299,58;12079,494;  202,372;31960,897;37,39822
 300,18;12354,735;  209,372;31811,026;38,43268
 300,78;12488,595;  171,771;31484,299;39,33513
 301,37;12658,202;  207,968;31547,997;39,72630
 301,97;12974,278;  187,571;31411,847;40,95117
 302,56;13183,621;  182,570;31378,165;41,67592
 303,16;13306,408;  154,770;31499,886;41,95753
 303,75;13514,219;  174,571;31460,900;42,63731
 304,35;13893,450;  188,573;31471,397;43,80959
 304,94;14149,105;  194,771;31687,381;44,30987
 305,54;14259,879;  187,371;31750,070;44,58588
 306,13;14423,738;  151,573;31621,627;45,35158
 306,73;14572,915;  159,173;31458,566;46,05119
 307,33;14730,544;  198,772;31266,869;46,77394
 307,92;14934,271;  181,971;31330,916;47,36051
 308,52;15406,120;  169,770;31983,457;47,89244
 309,11;15697,384;  176,969;32351,365;48,23840
 309,71;16031,863;  152,968;32616,552;48,91294
 310,30;16319,697;  174,971;32954,887;49,25188
 310,90;16689,412;  185,971;33262,687;49,89444
 311,49;16921,234;  183,771;33381,562;50,41740
 312,09;17026,481;  151,372;33501,122;50,60041
 312,68;17384,657;  211,971;33895,860;50,98190
 313,28;17626,556;  158,371;34163,316;51,36954
 313,87;17839,711;  155,571;34084,705;52,12081
 314,47;18020,407;  180,169;34410,101;52,11882
 315,06;18230,351;  167,171;34623,354;52,42362
 315,66;18235,767;  175,372;34781,722;52,18810
 316,25;18367,442;  155,370;34635,211;52,81948
 316,85;18470,562;  151,972;34745,960;52,95310
 317,44;18671,260;  158,569;34808,042;53,42849
 318,04;18671,038;  154,570;34964,575;53,19295
 318,63;18640,074;  152,173;34926,013;53,16612
 319,22;18823,032;  179,570;35223,088;53,20089
 319,82;18822,141;  169,770;35286,149;53,11587
 320,41;18794,177;  180,770;35143,517;53,23783
 321,01;18817,382;  184,572;35123,206;53,33011
 321,60;18909,254;  168,770;35341,283;53,28162
 322,20;18786,098;  157,971;35299,850;53,00834
 322,79;18902,510;  208,771;35313,402;53,25149
 323,39;18943,193;  169,373;35372,034;53,33068
 323,98;18764,307;  144,771;35282,670;52,98990
 324,58;18681,279;  178,970;35129,905;52,93795
 325,17;18627,571;  196,170;35027,392;52,91632
 325,76;18551,757;  188,171;34881,219;52,93160
 326,36;18330,048;  149,972;34539,463;52,86521
 326,95;18078,113;  188,371;34192,512;52,61048
 327,55;17865,330;  153,970;33899,863;52,48449
 328,14;17572,123;  170,972;33373,200;52,40959
 328,74;17344,843;  209,170;33084,174;52,12371
 329,33;17054,380;  182,972;32760,777;51,78804
 329,92;16755,354;  158,569;31966,499;52,17814
 330,52;16311,427;  188,172;31457,277;51,56289
 331,11;16044,127;  179,770;31131,730;51,25477
 331,71;15655,753;  183,571;30498,361;51,03840
 332,30;15376,105;  180,371;29967,981;51,01361
 332,89;15059,917;  211,371;29360,253;50,94036
 333,49;14688,843;  177,171;28810,559;50,68095
 334,08;14417,028;  185,570;28460,415;50,33258
 334,68;13983,934;  184,370;28111,558;49,41265
 335,27;13820,671;  194,572;27666,421;49,60022
 335,86;13576,127;  225,970;27437,330;49,06097
 336,46;13317,641;  194,772;27302,755;48,40961
 337,05;13164,523;  170,170;27101,835;48,24935
 337,65;13065,093;  161,970;26927,606;48,20779
 338,24;12982,545;  230,171;26958,727;47,71067
 338,83;12751,356;  214,371;26752,013;47,24227
 339,43;12669,841;  166,370;26752,745;47,02962
 340,02;12592,726;  181,970;26565,382;47,04000
 340,61;12483,478;  175,971;26737,307;46,33618
 341,21;12500,843;  207,170;26763,374;46,29303
 341,80;12287,282;  187,370;26798,720;45,46899
 342,40;12329,095;  194,772;26864,163;45,49906
 342,99;12235,632;  180,971;26944,253;45,04179
 343,58;12300,809;  176,772;27133,577;44,97579
 344,18;12220,732;  180,572;27216,597;44,53377
 344,77;12212,392;  173,570;27606,039;43,88530
 345,36;12199,542;  160,371;27912,912;43,38043
 345,96;12260,555;  210,972;28078,872;43,23822
 346,55;12363,163;  176,173;28447,768;43,10683
 347,14;12309,144;  160,972;28783,106;42,44328
 347,74;12366,526;  139,974;29189,920;42,08804
 348,33;12588,188;  191,974;29817,918;41,84243
 348,92;12693,527;  183,775;30549,105;41,19748
 349,52;12789,565;  156,174;30955,103;41,01893
 350,11;12798,896;  162,170;31210,819;40,69976
 350,70;12774,287;  172,171;31120,364;40,72004
 351,29;12496,129;  152,368;30924,689;40,11320
 351,89;12395,368;  179,969;30993,518;39,64295
 352,48;12275,667;  148,171;30885,421;39,45537
 353,07;12141,768;  183,172;30877,907;38,95976
 353,67;11927,610;  190,175;30820,573;38,31956
 354,26;11769,017;  178,172;30601,753;38,09823
 354,85;11572,324;  177,172;30468,703;37,61828
 355,45;11421,326;  147,370;30439,404;37,21756
 356,04;11273,120;  173,573;30375,327;36,75133
 356,63;11102,797;  206,771;30066,646;36,49053
 357,22;10890,729;  184,368;29905,512;36,02271
 357,82;10590,756;  187,968;29668,706;35,28673
 358,41;10476,200;  199,771;29572,438;34,98637
 359,00;10223,142;  163,770;29435,592;34,36538
 359,60;10148,100;  185,571;29456,479;34,03560
 360,19; 9942,251;  182,373;29120,338;33,72690
 360,78; 9814,632;  182,770;29146,310;33,25513
 361,37; 9612,839;  189,170;28916,701;32,80362
 361,97; 9439,150;  182,971;28635,265;32,53228
 362,56; 9192,816;  167,969;28360,780;32,01116
 363,15; 9081,773;  215,170;28158,481;31,73068
 363,74; 8802,059;  172,569;27752,539;31,28897
 364,34; 8624,062;  182,370;27352,554;31,06969
 364,93; 8339,860;  175,169;26963,065;30,47903
 365,52; 8094,841;  145,370;26728,130;29,90461
 366,11; 7918,444;  181,770;26167,240;29,77308
 366,71; 7715,175;  159,970;26022,688;29,21273
 367,30; 7492,938;  174,170;25559,416;28,83079
 367,89; 7362,672;  206,172;25401,865;28,40367
 368,48; 7147,331;  166,169;25075,721;28,02604
 369,07; 6918,715;  183,571;24633,164;27,54706
 369,67; 6820,192;  191,769;24284,979;27,51158
 370,26; 6530,559;  168,771;24087,545;26,59746
 370,85; 6440,254;  186,170;23838,483;26,44174
 371,44; 6291,339;  177,571;23618,579;26,08151
 372,03; 6086,221;  168,370;23337,002;25,54251
 372,63; 5937,051;  147,771;23093,550;25,23026
 373,22; 5819,538;  167,171;22783,439;24,99248
 373,81; 5602,523;  147,170;22461,635;24,44761
 374,40; 5501,854;  169,372;22139,047;24,27201
 374,99; 5353,549;  165,970;21953,443;23,80992
 375,59; 5199,644;  156,172;21667,828;23,44530
 376,18; 5152,837;  191,770;21468,872;23,31646
 376,77; 5027,532;  203,371;21364,952;22,79679
 377,36; 4939,206;  199,370;21278,940;22,48545
 377,95; 4814,161;  176,570;20936,669;22,33896
 378,55; 4705,954;  175,772;20880,606;21,87983
 379,14; 4602,761;  198,770;20761,892;21,41694
 379,73; 4583,861;  184,170;20648,651;21,49916
 380,32; 4509,023;  202,171;20712,913;20,99803
 380,91; 4449,508;  151,769;20583,445;21,03468
 381,50; 4334,309;  179,570;20550,771;20,39516
 382,10; 4253,737;  162,771;20394,913;20,22013
 382,69; 4220,284;  160,970;20364,549;20,09205
 383,28; 4206,742;  192,770;20401,829;19,86224
 383,87; 4095,852;  157,570;20188,334;19,66117
 384,46; 4102,330;  162,369;20195,735;19,66700
 385,05; 4090,721;  202,570;20207,523;19,43595
 385,64; 3983,158;  171,770;20158,440;19,06965
 386,24; 3919,915;  156,168;20099,553;18,87216
 386,83; 3939,466;  192,168;20144,447;18,78130
 387,42; 3921,002;  200,570;20295,621;18,51417
 388,01; 3927,058;  177,767;20546,811;18,40681
 388,60; 3922,779;  179,569;20726,841;18,21755
 389,19; 3928,626;  159,766;21010,611;18,07534
 389,78; 3970,492;  180,366;21128,927;18,09253
 390,37; 4063,186;  208,568;21641,549;17,98452
 390,96; 4067,660;  186,168;21815,620;17,94540
 391,56; 4032,805;  182,966;21914,379;17,71555
 392,15; 4103,228;  157,167;22239,463;17,86980
 392,74; 4112,122;  149,764;22406,546;17,80293
 393,33; 4213,752;  154,165;22663,977;18,03474
 393,92; 4224,891;  188,363;23131,835;17,59336
 394,51; 4263,782;  163,965;23327,444;17,69949
 395,10; 4321,393;  194,760;23569,872;17,65396
 395,69; 4319,277;  182,161;23573,066;17,68686
 396,28; 4373,589;  182,959;23658,331;17,85117
 396,87; 4373,366;  201,757;23993,409;17,53392
 397,46; 4382,769;  181,955;24041,473;17,60645
 398,06; 4409,144;  204,753;24189,344;17,52955
 398,65; 4428,021;  197,949;24189,052;17,63184
 399,24; 4521,141;  180,348;24500,131;17,84881
 399,83; 4496,558;  163,741;24445,460;17,84395
 400,42; 4621,393;  206,135;24512,385;18,16511
 401,01; 4624,758;  170,928;24724,112;18,13952
 401,60; 4666,119;  181,918;24816,096;18,20317
 402,19; 4687,517;  194,110;24662,362;18,36423
 402,78; 4716,010;  219,099;24613,473;18,43422
 403,37; 4658,901;  196,288;24505,274;18,35787
 403,96; 4707,597;  187,674;24293,776;18,75012
 404,55; 4738,189;  192,660;24133,732;18,98632
 405,14; 4713,041;  184,247;24038,022;18,98565
 405,73; 4711,831;  197,631;23981,267;18,98027
 406,32; 4765,756;  191,621;24101,578;19,13067
 406,91; 4757,861;  187,609;23737,316;19,40683
 407,50; 4766,663;  185,002;23539,545;19,61786
 408,09; 4720,196;  152,198;23115,950;19,89221
 408,68; 4786,780;  182,995;23193,869;20,00700
 409,27; 4789,713;  154,999;22857,262;20,41521
 409,86; 4787,647;  157,808;22774,037;20,47131
 410,45; 4862,193;  211,416;22694,697;20,68549
 411,04; 4898,236;  212,624;22573,806;20,95422
 411,63; 4840,789;  196,235;22229,067;21,08015
 412,22; 4891,665;  191,644;22057,939;21,49436
 412,81; 4885,088;  201,048;21784,907;21,70159
 413,40; 4860,475;  210,252;21438,664;21,90565
 413,99; 4874,598;  258,651;21227,216;22,01365
 414,58; 4809,049;  187,452;20694,737;22,53637
 415,17; 4787,010;  175,248;20501,298;22,68892
 415,76; 4779,878;  180,244;20395,432;22,75336
 416,35; 4818,358;  174,846;20161,732;23,23279
 416,94; 4895,678;  222,045;20313,714;23,26155
 417,53; 4948,827;  177,648;20493,672;23,48481
 418,12; 5071,565;  174,049;20614,393;23,96005
 418,71; 5206,986;  197,252;20941,732;24,14972
 419,30; 5227,622;  181,049;21012,852;24,22533
 419,89; 5384,452;  185,050;21163,001;24,78508
 420,48; 5611,638;  199,052;21489,970;25,42204
 421,07; 5583,134;  204,653;21596,176;25,14305
 421,66; 5631,965;  164,255;21538,096;25,58132
 422,25; 5766,558;  185,259;21534,257;26,14314
 422,84; 5773,151;  208,860;21487,749;26,14935
 423,43; 5739,853;  195,258;21191,232;26,40789
 424,02; 5786,777;  218,859;20971,837;26,82949
 424,60; 5691,836;  191,663;20564,538;26,99753
 425,19; 5727,106;  209,061;20305,406;27,45795
 425,78; 5755,986;  205,261;20207,342;27,75074
 426,37; 5754,712;  206,063;20111,059;27,87566
 426,96; 5827,205;  205,863;19945,049;28,47809
 427,55; 5776,337;  188,865;19762,574;28,54580
 428,14; 5777,415;  183,867;19519,125;28,92927
 428,73; 5781,215;  208,464;19341,737;29,12597
 429,32; 5873,674;  205,063;19425,276;29,49297
 429,91; 5917,584;  228,464;19418,805;29,64574
 430,50; 5927,016;  205,466;19183,005;30,14906
 431,08; 5948,988;  226,467;18999,311;30,48297
 431,67; 5964,243;  268,868;19016,987;30,37838
 432,26; 5978,496;  281,070;18905,633;30,59093
 432,85; 5959,819;  281,869;18476,831;31,20617
 433,44; 5946,739;  293,471;18078,520;31,78663
 434,03; 5842,358;  304,473;17738,947;31,76399
 434,62; 5771,124;  268,471;17308,235;32,29301
 435,21; 5735,492;  309,069;17213,975;32,09969
 435,79; 5740,604;  281,872;16934,179;32,78064
 436,38; 5765,111;  278,275;16896,072;33,01783
 436,97; 5744,421;  274,475;16729,837;33,24112
 437,56; 5740,339;  266,478;16623,825;33,46423
 438,15; 5782,553;  255,878;16496,161;34,03066
 438,74; 5842,912;  252,078;16499,268;34,41108
 439,33; 5902,487;  229,677;16456,341;34,95980
 439,91; 5999,338;  196,479;16520,581;35,54780
 440,50; 5979,342;  232,479;16621,240;35,06588
 441,09; 6161,918;  254,681;16749,826;35,81197
 441,68; 6173,210;  232,283;16730,041;36,01051
 442,27; 6186,219;  209,882;16687,816;36,26873
 442,86; 6237,177;  206,287;16651,772;36,67201
 443,44; 6331,709;  203,886;16753,004;37,02810
 444,03; 6465,195;  273,887;16791,849;37,48228
 444,62; 6391,893;  204,087;16619,601;37,69487
 445,21; 6431,213;  219,286;16471,340;38,22241
 445,80; 6415,149;  221,889;16363,863;38,36743
 446,39; 6385,964;  255,888;16196,422;38,45590
 446,97; 6341,464;  209,491;15841,813;39,22625
 447,56; 6248,851;  201,493;15706,886;39,00165
 448,15; 6252,527;  204,091;15505,975;39,52739
 448,74; 6189,851;  230,291;15290,758;39,57088
 449,33; 6198,175;  211,892;15142,083;40,09515
 449,91; 6142,047;  223,095;14894,015;40,34479
 450,50; 6072,320;  196,694;14714,040;40,47314
 451,09; 6117,264;  211,295;14708,166;40,73962
 451,68; 6093,449;  235,696;14536,163;40,96197
 452,26; 6100,762;  227,697;14402,943;41,43184
 452,85; 6102,047;  211,896;14299,357;41,81130
 453,44; 6070,035;  219,299;14312,838;41,51360
 454,03; 6090,415;  191,497;14305,367;41,79518
 454,61; 6153,152;  207,099;14368,230;41,98854
 455,20; 6289,640;  220,300;14521,704;42,43877
 455,79; 6359,368;  222,498;14447,995;43,13993
 456,38; 6387,035;  223,302;14552,908;43,01397
 456,97; 6482,084;  213,701;14622,094;43,50508
 457,55; 6523,374;  212,703;14558,695;43,98909
 458,14; 6555,470;  229,501;14553,453;44,16357
 458,73; 6534,634;  214,503;14483,287;44,29341
 459,31; 6596,970;  232,705;14529,387;44,51568
 459,90; 6685,641;  247,904;14600,360;44,85460
 460,49; 6784,990;  283,703;14696,165;45,10879
 461,08; 6796,980;  207,506;14867,089;44,94994
 461,66; 6802,238;  224,505;14888,910;44,85510
 462,25; 6907,685;  226,907;14940,115;45,40667
 462,84; 6958,668;  251,506;15011,281;45,44217
 463,43; 6921,678;  194,909;14974,511;45,51387
 464,01; 7014,639;  218,710;14995,271;45,99128
 464,60; 7045,643;  257,108;14803,201;46,66913
 465,19; 6935,939;  185,910;14720,475;46,44122
 465,77; 6978,395;  217,911;14554,854;47,15429
 466,36; 6934,551;  245,309;14525,559;46,84261
 466,95; 6855,002;  200,709;14226,494;47,44328
 467,53; 6762,950;  204,512;13914,149;47,83816
 468,12; 6626,625;  249,513;13740,122;47,27075
 468,71; 6547,088;  230,310;13415,162;47,90936
 469,29; 6453,251;  191,513;13187,353;48,18263
 469,88; 6358,797;  227,514;12883,731;48,44484
 470,47; 6504,003;  255,916;12949,820;49,22116
 471,06; 6434,323;  220,316;13005,744;48,60226
 471,64; 6549,817;  220,515;13189,379;48,80383
 472,23; 6507,991;  196,519;13015,701;49,23459
 472,81; 6631,073;  188,917;13223,040;49,42531
 473,40; 6675,120;  191,319;13326,682;49,36141
 473,99; 6891,009;  285,319;13423,177;50,27981
 474,57; 6902,800;  209,519;13701,757;49,60838
 475,16; 7070,035;  222,117;13824,843;50,34225
 475,75; 7135,661;  225,720;13942,558;50,37561
 476,33; 7177,381;  231,721;14015,988;50,38831
 476,92; 7268,985;  233,519;13987,799;51,15111
 477,51; 7224,507;  229,721;14118,754;50,36193
 478,09; 7348,571;  232,321;14143,545;51,15474
 478,68; 7340,300;  216,521;14012,349;51,63720
 479,27; 7377,250;  233,520;14178,435;51,22821
 479,85; 7391,139;  218,121;14165,872;51,42777
 480,44; 7435,824;  207,122;14306,392;51,27005
 481,02; 8167,047;  229,523;16077,972;50,08392
 481,61; 9258,065;  254,923;17850,264;51,16776
 482,20; 9935,556;  254,723;19118,411;51,31994
 482,78;10366,770;  260,922;19733,161;51,89874
 483,37;10611,559;  262,525;19948,568;52,57041
 483,95;10843,664;  295,325;20382,571;52,51262
 484,54;11001,948;  297,122;20576,671;52,78631
 485,13;11028,642;  258,327;20626,963;52,87696
 485,71;11004,770;  265,126;20428,959;53,26192
 486,30;10938,691;  288,926;20149,750;53,62197
 486,88;10739,020;  315,727;19817,991;53,44658
 487,47;10445,349;  305,527;19173,432;53,74111
 488,05; 9985,621;  304,528;18210,999;54,06477
 488,64; 9390,659;  297,729;16839,124;54,97076
 489,23; 8418,742;  293,128;14766,050;56,14356
 489,81; 7179,817;  292,329;12721,186;55,41530
 490,40; 6709,365;  236,929;12197,408;54,11519
 490,98; 6568,207;  233,530;11871,146;54,43277
 491,57; 6557,525;  277,529;11845,499;54,28780
 492,15; 6551,801;  261,530;11813,481;54,45202
 492,74; 6508,434;  257,928;11767,515;54,30696
 493,32; 6455,839;  259,930;11624,078;54,52154
 493,91; 6443,534;  231,331;11482,743;55,21265
 494,50; 6449,855;  245,333;11400,981;55,61777
 495,08; 6401,201;  225,733;11356,514;55,48100
 495,67; 6363,417;  241,930;11337,151;55,17228
 496,25; 6347,471;  210,132;11263,524;55,52449
 496,84; 6339,351;  202,730;11298,531;55,30579
 497,42; 6296,675;  197,532;11106,042;55,91179
 498,01; 6356,661;  219,131;11139,496;56,20261
 498,59; 6267,078;  203,133;11065,034;55,82766
 499,18; 6302,967;  202,331;11012,202;56,43579
 499,76; 6292,266;  205,132;10907,562;56,87619
 500,35; 6186,174;  203,734;10683,262;57,08692
 500,93; 6157,355;  187,332;10677,317;56,91164
 501,52; 6100,997;  200,133;10557,596;56,97211
 502,10; 6147,043;  208,535;10546,594;57,44316
 502,69; 6065,939;  196,336;10400,362;57,52243
 503,27; 5922,318;  190,133;10262,506;56,90998
 503,86; 5930,675;  209,735;10065,112;58,04892
 504,44; 5864,222;  182,936;10030,290;57,69353
 505,03; 5719,809;  162,736; 9694,137;58,30279
 505,61; 5696,006;  192,536; 9702,182;57,87250
 506,19; 5584,093;  204,136; 9472,108;58,04891
 506,78; 5519,826;  172,338; 9340,713;58,32536
 507,36; 5431,694;  183,936; 9137,175;58,61296
 507,95; 5377,054;  181,139; 9036,995;58,67208
 508,53; 5305,015;  187,138; 8897,027;58,75938
 509,12; 5236,380;  199,738; 8754,622;58,87446
 509,70; 5164,042;  204,739; 8637,406;58,81061
 510,29; 5078,289;  205,340; 8415,965;59,34931
 510,87; 4915,268;  174,738; 8270,731;58,55403
 511,46; 4892,136;  177,338; 8086,477;59,61202
 512,04; 4799,781;  186,939; 7957,770;59,36099
 512,62; 4698,486;  196,138; 7778,868;59,37635
 513,21; 4653,609;  171,140; 7678,090;59,71092
 513,79; 4530,559;  197,143; 7549,188;58,94164
 514,38; 4399,469;  181,142; 7320,047;59,08927
 514,96; 4364,289;  209,742; 7281,093;58,75182
 515,54; 4327,005;  181,542; 7104,679;59,87838
 516,13; 4271,375;  186,942; 7021,976;59,75732
 516,71; 4223,407;  192,944; 6926,813;59,85360
 517,30; 4150,308;  181,145; 6826,840;59,72532
 517,88; 4082,305;  188,345; 6746,811;59,37304
 518,46; 3991,843;  170,545; 6594,672;59,48354
 519,05; 4019,215;  179,746; 6495,754;60,78948
 519,63; 3966,568;  191,345; 6542,018;59,44603
 520,22; 3945,790;  217,947; 6442,155;59,89265
 520,80; 3850,525;  187,147; 6364,261;59,30565
 521,38; 3887,648;  210,146; 6401,013;59,40205
 521,97; 3815,039;  200,348; 6282,943;59,42678
 522,55; 3820,705;  199,748; 6282,800;59,52533
 523,13; 3807,182;  179,949; 6301,529;59,25323
 523,72; 3841,556;  168,345; 6249,243;60,40573
 524,30; 3931,870;  211,950; 6385,078;60,25989
 524,89; 3920,059;  176,548; 6358,449;60,55598
 525,47; 3974,244;  200,750; 6540,633;59,51994
 526,05; 4010,060;  161,550; 6521,777;60,50899
 526,64; 4064,565;  201,551; 6660,943;59,80461
 527,22; 4184,592;  202,350; 6749,594;60,82318
 527,80; 4250,515;  216,751; 6871,971;60,61053
 528,39; 4312,453;  197,351; 6962,595;60,82711
 528,97; 4443,364;  197,551; 7113,440;61,39216
 529,55; 4525,786;  203,749; 7325,624;60,68679
 530,14; 4638,164;  207,752; 7528,922;60,51509
 530,72; 4711,143;  185,551; 7652,030;60,61213
 531,30; 4753,613;  177,752; 7705,828;60,78394
 531,89; 4866,438;  197,552; 7831,933;61,15606
 532,47; 4932,672;  228,752; 7901,317;61,30831
 533,05; 4928,879;  233,151; 8000,980;60,45097
 533,63; 4972,250;  227,153; 8024,404;60,85602
 534,22; 5026,870;  184,953; 8097,148;61,19562
 534,80; 5061,696;  208,154; 8130,623;61,26300
 535,38; 5185,539;  261,952; 8300,477;61,24988
 535,97; 5093,483;  217,952; 8189,603;61,16087
 536,55; 5126,447;  239,754; 8349,577;60,25647
 537,13; 5125,134;  259,552; 8289,256;60,59479
 537,71; 5129,971;  298,752; 8354,350;59,97344
 538,30; 5148,977;  324,553; 8330,979;60,25689
 538,88; 5235,726;  370,155; 8471,232;60,06079
 539,46; 5404,219;  409,954; 8696,680;60,26825
 540,05; 5432,238;  418,554; 8885,743;59,21309
 540,63; 5514,208;  489,755; 8987,277;59,12846
 541,21; 5629,022;  514,355; 9101,578;59,56137
 541,79; 5699,990;  550,155; 9207,482;59,48527
 542,38; 5809,075;  583,154; 9437,837;59,01873
 542,96; 5909,700;  595,756; 9546,966;59,36564
 543,54; 6047,018;  618,955; 9809,719;59,05997
 544,12; 6142,266;  575,756; 9945,922;59,40674
 544,70; 6169,607;  567,556; 9959,138;59,64970
 545,29; 6286,013;  575,354;10202,475;59,31845
 545,87; 6282,990;  539,155;10182,482;59,56279
 546,45; 6268,502;  494,954;10226,408;59,32873
 547,03; 6369,963;  481,555;10286,689;60,05434
 547,62; 6417,533;  445,155;10398,845;60,00165
 548,20; 6542,124;  442,556;10554,508;60,32038
 548,78; 6590,715;  423,559;10673,898;60,16538
 549,36; 6678,549;  378,158;10871,763;60,04029
 549,94; 6784,860;  338,556;10875,057;61,18069
 550,53; 6941,221;  337,358;11173,922;60,94056
 551,11; 7026,601;  320,159;11369,121;60,69748
 551,69; 7184,849;  321,158;11645,981;60,60749
 552,27; 7382,920;  263,357;11964,718;60,84389
 552,85; 7555,108;  262,159;12227,130;60,95250
 553,44; 7694,769;  260,958;12593,143;60,27975
 554,02; 7934,097;  280,559;12963,584;60,34474
 554,60; 8076,605;  217,759;13196,779;60,55038
 555,18; 8369,374;  271,558;13667,468;60,44992
 555,76; 8546,685;  251,559;13974,632;60,44656
 556,34; 8798,471;  240,560;14358,681;60,61650
 556,93; 9068,393;  228,358;14680,944;61,16576
 557,51; 9151,854;  209,960;14982,768;60,52941
 558,09; 9446,344;  232,158;15343,801;60,97408
 558,67; 9616,414;  236,761;15780,364;60,34414
 559,25; 9882,434;  255,961;15964,284;61,28263
 559,83;10040,844;  221,562;16289,350;61,11160
 560,41;10217,749;  221,760;16657,165;60,81985
 561,00;10479,446;  218,961;17034,859;61,01658
 561,58;10528,302;  214,160;17279,088;60,44058
 562,16;10759,363;  211,959;17477,464;61,08946
 562,74;10957,860;  185,759;17965,327;60,58697
 563,32;11199,493;  200,362;18437,359;60,31219
 563,90;11364,573;  224,961;18787,212;60,01218
 564,48;11633,597;  225,160;19233,648;60,01760
 565,06;11926,283;  212,161;19645,953;60,27708
 565,65;12332,875;  215,363;20566,587;59,54193
 566,23;12801,923;  265,961;21284,202;59,64325
 566,81;13215,512;  220,561;21811,894;60,18596
 567,39;13672,375;  241,762;22814,523;59,49920
 567,97;14018,915;  243,961;23468,486;59,31210
 568,55;14500,222;  233,162;24299,977;59,28105
 569,13;14893,020;  208,961;24989,088;59,25740
 569,71;15460,299;  226,159;25929,073;59,27009
 570,29;16061,883;  262,958;26884,706;59,34594
 570,87;16461,007;  260,159;27621,986;59,20967
 571,45;16722,428;  260,561;28308,382;58,69214
 572,03;17043,430;  207,762;28687,954;59,11360
 572,61;17458,427;  205,562;29493,539;58,90767
 573,20;17764,268;  253,960;30196,149;58,48039
 573,78;18072,510;  237,562;30789,806;58,37525
 574,36;18363,485;  247,561;31220,242;58,49001
 574,94;18485,485;  271,162;31592,384;58,15329
 575,52;18616,686;  227,364;31876,615;58,10350
 576,10;18896,383;  291,163;32314,782;58,09843
 576,68;19194,524;  281,962;32978,611;57,84251
 577,26;19531,339;  282,765;33716,239;57,57276
 577,84;19940,694;  314,361;34175,662;57,96095
 578,42;20029,702;  332,563;34450,721;57,73213
 579,00;20014,811;  282,962;34449,854;57,75137
 579,58;20175,279;  314,963;34647,623;57,84672
 580,16;20097,709;  304,563;34683,208;57,57395
 580,74;20280,649;  320,163;35084,276;57,41693
 581,32;20362,919;  300,363;35042,672;57,74676
 581,90;20274,914;  308,963;35056,770;57,45960
 582,48;20316,725;  323,563;35155,656;57,39868
 583,06;20166,106;  327,563;35249,557;56,80816
 583,64;20359,452;  322,562;35423,889;57,08300
 584,22;20149,250;  320,164;35040,284;57,11122
 584,80;20059,085;  344,963;34743,607;57,31075
 585,38;19714,184;  333,160;34402,452;56,88707
 585,96;19676,103;  315,962;34409,142;56,78597
 586,54;19658,163;  351,964;34509,758;56,52062
 587,12;19687,830;  306,564;34596,659;56,52147
 587,70;19768,329;  333,362;34763,209;56,44802
 588,28;19723,766;  320,363;34823,468;56,23668
 588,86;19666,504;  312,964;35000,232;55,79436
 589,44;19702,978;  299,765;35002,445;55,91272
 590,02;19768,331;  311,965;35292,308;55,62085
 590,59;19825,082;  283,364;35307,920;55,79434
 591,17;19907,451;  275,567;35479,458;55,76623
 591,75;19851,725;  279,566;35627,726;55,36967
 592,33;19827,443;  292,366;35740,399;55,10906
 592,91;19999,265;  243,367;36020,216;55,21978
 593,49;20065,143;  253,767;36438,908;54,75003
 594,07;20222,348;  263,167;36604,270;54,92178
 594,65;20106,151;  294,964;36588,969;54,58529
 595,23;20260,790;  266,765;37001,975;54,42741
 595,81;20168,674;  254,965;37266,968;53,80338
 596,39;20357,724;  252,565;37293,740;54,27786
 596,97;20305,376;  251,967;37509,721;53,82345
 597,55;20240,749;  256,365;37318,563;53,92121
 598,12;20208,599;  237,968;37345,902;53,81768
 598,70;20165,654;  234,367;37422,990;53,59512
 599,28;20244,131;  257,567;37742,333;53,31916
 599,86;20157,778;  238,367;37792,313;53,04213
 600,44;20093,441;  205,967;37837,897;52,84734
 601,02;20113,144;  252,969;37871,236;52,79396
 601,60;20068,234;  247,766;38017,964;52,47647
 602,18;20021,691;  211,768;37952,129;52,49002
 602,75;19956,162;  231,365;37897,901;52,36690
 603,33;19941,877;  238,167;37944,028;52,25636
 603,91;19840,537;  235,169;37847,926;52,12425
 604,49;19906,736;  240,167;37988,858;52,09868
 605,07;19708,518;  267,166;37989,735;51,53772
 605,65;19848,922;  275,568;38103,299;51,74340
 606,23;19797,871;  313,964;38417,871;51,13362
 606,80;19858,273;  387,765;38345,005;51,29590
 607,38;19798,927;  416,568;38379,543;51,05595
 607,96;19875,764;  473,965;38471,967;51,06005
 608,54;19657,890;  556,368;38527,803;50,30498
 609,12;19652,893;  539,765;38612,748;50,20129
 609,70;19646,221;  566,567;38558,532;50,22023
 610,27;19644,902;  583,965;38723,908;49,97631
 610,85;19609,631;  613,567;38653,055;49,93775
 611,43;19484,780;  590,967;38701,742;49,57604
 612,01;19272,053;  553,366;38429,382;49,42095
 612,59;19266,348;  558,967;38572,284;49,21270
 613,16;19114,282;  545,364;38430,980;49,01311
 613,74;19084,925;  498,767;38313,171;49,15100
 614,32;18977,161;  441,568;38356,385;48,88747
 614,90;18891,906;  421,966;37970,909;49,18897
 615,48;18565,479;  377,365;37840,010;48,55000
 616,05;18516,213;  335,764;37790,131;48,54027
 616,63;18300,233;  347,564;37695,651;48,06851
 617,21;18292,315;  318,965;37566,661;48,25359
 617,79;18106,788;  321,566;37422,331;47,93762
 618,36;18043,057;  317,366;37454,440;47,73045
 618,94;17790,468;  270,365;37060,621;47,62158
 619,52;17644,142;  298,764;36965,252;47,30581
 620,10;17509,116;  269,565;36874,987;47,09562
 620,67;17301,138;  287,364;36807,394;46,58751
 621,25;17183,218;  299,566;36373,517;46,80289
 621,83;17072,627;  292,565;36417,269;46,45038
 622,41;17063,465;  318,765;36510,592;46,26653
 622,98;16953,152;  307,364;36334,213;46,20384
 623,56;16804,639;  305,963;36379,316;45,73646
 624,14;16658,325;  258,167;36056,749;45,81231
 624,72;16542,276;  273,565;36110,078;45,39703
 625,29;16454,973;  252,364;35955,259;45,38178
 625,87;16502,392;  300,966;36094,026;45,26415
 626,45;16258,013;  257,563;35941,085;44,83988
 627,02;16220,602;  266,766;35895,646;44,77782
 627,60;16133,932;  251,167;35822,259;44,65076
 628,18;16001,750;  244,365;35763,548;44,36303
 628,76;16003,378;  246,764;35870,280;44,23093
 629,33;15922,330;  269,364;35839,123;44,00639
 629,91;15878,116;  268,565;35889,587;43,82118
 630,49;15842,276;  276,764;35956,892;43,62516
 631,06;15849,476;  277,964;36097,795;43,47176
 631,64;15772,667;  279,563;36138,753;43,20539
 632,22;15727,507;  229,363;35886,519;43,46433
 632,79;15689,555;  236,363;36219,263;42,94593
 633,37;15718,006;  241,966;36164,868;43,08126
 633,95;15657,900;  254,963;36379,551;42,63837
 634,52;15554,196;  225,965;36519,239;42,23436
 635,10;15444,540;  237,565;36531,728;41,89923
 635,68;15447,666;  223,963;36626,567;41,82037
 636,25;15350,800;  227,562;36805,065;41,34574
 636,83;15319,235;  202,364;36852,080;41,24690
 637,41;15247,326;  232,762;36929,937;40,91477
 637,98;15270,275;  240,162;37154,764;40,71590
 638,56;15147,505;  226,961;37210,748;40,34347
 639,13;15172,293;  212,564;37252,383;40,38823
 639,71;15072,414;  266,964;37549,434;39,71156
 640,29;14874,711;  211,964;37153,267;39,69201
 640,86;14951,091;  230,164;37489,945;39,50889
 641,44;14871,613;  211,764;37365,822;39,45692
 642,02;14712,135;  241,964;37456,499;38,88312
 642,59;14778,800;  209,564;37651,177;38,91188
 643,17;14638,608;  215,764;37740,454;38,43561
 643,74;14573,559;  227,564;37589,132;38,39773
 644,32;14523,224;  243,964;37598,009;38,22681
 644,89;14517,318;  239,564;37716,287;38,09766
 645,47;14479,269;  269,364;37663,564;38,00029
 646,05;14272,505;  235,364;37667,042;37,50070
 646,62;14132,456;  229,765;37442,319;37,36022
 647,20;14092,550;  230,965;37713,197;36,98175
 647,77;13943,644;  203,765;37561,474;36,77923
 648,35;13815,738;  205,965;37397,551;36,59369
 648,92;13900,974;  236,965;37432,229;36,73588
 649,50;13712,211;  176,965;37285,506;36,47474
 650,08;13638,733;  196,965;37310,984;36,21750
 650,65;13574,255;  230,365;37572,261;35,73437
 651,23;13802,778;  196,765;38502,139;35,51985
 651,80;14035,443;  199,965;39424,016;35,27294
 652,38;14156,679;  218,965;39698,694;35,30347
 652,95;14290,487;  196,765;40069,171;35,34706
 653,53;14206,867;  228,165;40138,648;35,02514
 654,10;14255,675;  242,565;40354,726;34,93482
 654,68;14138,197;  202,165;40204,403;34,83813
 655,25;14083,719;  199,965;40496,681;34,45381
 655,83;14091,956;  194,965;40659,958;34,34324
 656,40;14059,621;  233,765;40666,636;34,19459
 656,98;13936,429;  210,165;40604,713;33,98049
 657,55;13793,666;  205,566;40348,391;33,84939
 658,13;13556,188;  202,366;39910,468;33,62997
 658,70;13426,710;  218,366;39739,745;33,42076
 659,28;13110,375;  193,166;38768,623;33,48556
 659,85;12636,898;  213,366;37923,300;32,94498
 660,43;12616,563;  231,366;38173,578;32,64226
 661,00;12501,085;  213,166;38140,655;32,39845
 661,58;12510,607;  198,966;38531,533;32,11797
 662,15;12524,844;  183,366;38548,410;32,16855
 662,73;12556,795;  245,966;39044,488;31,73015
 663,30;12606,889;  215,566;39303,365;31,70125
 663,88;12484,554;  199,966;39299,442;31,41880
 664,45;12524,505;  196,766;39619,720;31,27046
 665,03;12504,027;  215,166;40113,397;30,80052
 665,60;12681,978;  260,566;40505,075;30,86486
 666,17;12602,929;  214,766;40460,152;30,78157
 666,75;12611,451;  216,166;40839,830;30,51247
 667,32;12671,116;  225,566;41222,107;30,35756
 667,90;12635,210;  198,766;41635,185;30,01332
 668,47;12666,732;  224,966;41620,662;30,05570
 669,05;12617,112;  212,167;42125,139;29,59691
 669,62;12603,348;  187,567;42222,417;29,53688
 670,19;12501,870;  195,967;42072,294;29,38630
 670,77;12537,393;  204,767;42438,372;29,20098
 671,34;12420,058;  229,567;42484,249;28,85004
 671,92;12377,723;  188,167;42555,727;28,77097
 672,49;12347,531;  215,167;42680,604;28,56997
 673,06;12261,339;  169,967;42731,482;28,40917
 673,64;12177,147;  192,567;42741,559;28,16654
 674,21;12101,955;  189,767;42651,636;28,05385
 674,79;12145,477;  192,567;42965,714;27,94489
 675,36;12023,571;  223,767;42944,591;27,62073
 675,93;11852,808;  207,967;42904,469;27,27352
 676,51;11917,187;  215,567;43098,746;27,28720
 677,08;11868,709;  210,967;43232,024;27,09776
 677,65;11863,660;  210,167;43365,901;27,00335
 678,23;11794,325;  209,567;43610,179;26,69261
 678,80;11761,705;  194,967;43687,256;26,59492
 679,38;11732,227;  185,567;43810,733;26,46789
 679,95;11767,749;  198,368;44029,211;26,39553
 680,52;11694,129;  200,968;44211,488;26,11458
 681,10;11848,651;  216,968;44679,566;26,16060
 681,67;11797,745;  212,368;45044,843;25,84148
 682,24;11746,553;  185,368;45052,921;25,76736
 682,82;11797,075;  196,768;45621,998;25,53715
 683,39;11914,883;  218,368;46011,476;25,54209
 683,96;11819,977;  206,168;46193,953;25,25412
 684,54;11937,214;  177,968;46633,031;25,31316
 685,11;11907,593;  224,968;46853,308;25,05477
 685,68;11969,687;  212,968;47257,785;24,99047
 686,25;11897,352;  195,768;47467,063;24,75410
 686,83;11863,588;  179,168;47447,340;24,71942
 687,40;11901,396;  184,368;47926,018;24,54257
 687,97;11977,204;  218,968;48281,895;24,46425
 688,55;11892,012;  181,568;48410,373;24,28102
 689,12;11858,678;  182,368;48523,650;24,15391
 689,69;11815,343;  186,168;48757,928;23,94225
 690,26;11834,579;  185,168;48923,805;23,90180
 690,84;11776,387;  188,968;49088,882;23,69619
 691,41;11747,481;  214,969;49135,360;23,57404
 691,98;11755,718;  204,769;49439,637;23,46091
 692,56;11672,383;  184,969;49458,515;23,31355
 693,13;11694,619;  246,969;49461,192;23,26086
 693,70;11595,856;  210,369;49672,870;23,01842
 694,27;11550,664;  192,969;49684,347;22,94884
 694,84;11591,186;  193,369;49844,425;22,95584
 695,42;11556,423;  228,769;49975,702;22,77056
 695,99;11488,374;  186,569;50355,379;22,52755
 696,56;11372,182;  186,569;50230,457;22,35161
 697,13;11457,847;  202,169;50660,334;22,30695
 697,71;11415,369;  171,569;50584,612;22,30336
 698,28;11439,891;  200,969;50862,089;22,18451
 698,85;11271,557;  175,969;51010,167;21,82701
 699,42;11300,936;  166,369;51064,844;21,87603
 699,99;11335,030;  192,769;51126,522;21,87599
 700,57;11256,409;  195,769;51344,599;21,62442
 701,14;11232,503;  183,769;51441,476;21,55526
 701,71;11178,025;  224,169;51729,554;21,26740
 702,28;11132,690;  189,369;51685,431;21,25079
 702,85;11135,498;  216,570;51676,309;21,21839
 703,43;11113,878;  194,770;51904,386;21,11620
 704,00;11147,543;  223,770;52188,864;21,02137
 704,57;11084,637;  222,170;51968,341;20,99183
 705,14;11117,588;  238,970;52528,019;20,80477
 705,71;11066,824;  238,970;52596,096;20,68077
 706,28;10980,775;  219,770;52301,373;20,66182
 706,86;11041,583;  235,370;52719,051;20,58966
 707,43;10992,534;  258,170;52483,928;20,55377
 708,00;10961,770;  238,970;52641,806;20,46225
 708,57;10863,007;  204,170;52481,083;20,38919
 709,14;10873,244;  241,770;52773,961;20,23802
 709,71;10850,909;  210,770;52768,438;20,24469
 710,28;10835,145;  213,970;53039,716;20,10606
 710,86;10806,239;  222,570;53179,193;19,98554
 711,43;10787,190;  231,170;53178,870;19,93669
 712,00;10808,284;  219,770;53330,348;19,93673
 712,57;10795,949;  233,170;53295,225;19,90646
 713,14;10701,185;  208,370;53449,903;19,70795
 713,71;10728,279;  228,371;53334,380;19,77160
 714,28;10750,373;  208,371;53302,258;19,85540
 714,85;10574,324;  200,171;53229,935;19,56289
 715,42;10602,560;  204,171;53233,813;19,60864
 716,00;10662,654;  274,371;53582,890;19,48710
 716,57;10581,462;  210,171;53702,167;19,38849
 717,14;10528,984;  188,971;53671,045;19,33361
 717,71;10439,078;  183,971;53611,322;19,19449
 718,28;10479,886;  216,971;53832,000;19,14186
 718,85;10421,408;  186,571;53962,077;19,03253
 719,42;10432,216;  223,771;53933,555;19,00668
 719,99;10363,453;  191,771;53690,232;19,01304
 720,56;10394,832;  211,371;54167,910;18,87345
 721,13;10370,212;  210,571;54121,387;18,84527
 721,70;10320,163;  202,171;54006,865;18,80504
 722,27;10272,685;  217,171;54134,942;18,64972
 722,84;10365,493;  252,771;54232,419;18,73432
 723,41;10229,587;  188,571;54242,497;18,57592
 723,98;10314,680;  198,571;54586,774;18,59982
 724,55;10377,060;  230,371;54513,652;18,69211
 725,12;10226,296;  168,372;54409,729;18,54291
 725,69;10261,819;  190,572;54631,407;18,49944
 726,27;10281,627;  208,772;54839,084;18,43822
 726,84;10265,292;  204,172;55140,362;18,31419
 727,41;10263,243;  217,172;54813,639;18,40059
 727,98;10329,051;  222,372;55353,716;18,33200
 728,55;10275,716;  250,572;55086,394;18,28211
 729,12;10214,952;  200,972;55243,871;18,19305
 729,69;10247,475;  219,772;55415,549;18,16752
 730,26;10241,283;  217,372;55694,226;18,06864
 730,82;10320,805;  209,772;55473,904;18,29583
 731,39;10270,327;  220,972;55566,181;18,15759
 731,96;10292,278;  181,972;55957,259;18,12686
 732,53;10345,943;  212,972;56028,336;18,15445
 733,10;10274,466;  208,972;56151,813;17,99246
 733,67;10320,845;  200,972;56541,291;17,96204
 734,24;10181,939;  206,972;55959,168;17,89161
 734,81;10282,604;  234,372;56280,646;17,92846
 735,38;10148,983;  216,372;56038,923;17,79319
 735,95;10220,649;  206,573;55793,401;18,01520
 736,52;10187,314;  239,973;56073,078;17,81621
 737,09;10159,265;  218,973;55695,556;17,91800
 737,66;10213,073;  269,173;55913,033;17,87061
 738,23;10172,738;  195,373;56021,110;17,87234
 738,80;10213,117;  237,773;56286,188;17,79773
 739,37;10255,925;  237,573;56592,065;17,77738
 739,94;10164,162;  213,573;56504,343;17,67712
 740,51;10260,541;  286,973;56571,020;17,72006
 741,07;10201,635;  199,373;56462,298;17,77771
 741,64;10214,443;  251,573;56792,775;17,62055
 742,21;10240,965;  215,973;56653,853;17,76288
 742,78;10248,202;  194,973;56474,130;17,86315
 743,35;10197,438;  214,173;56710,607;17,67061
 743,92;10289,675;  247,373;56925,485;17,71813
 744,49;10219,912;  237,973;56769,762;17,65721
 745,06;10184,148;  200,573;56655,440;17,68417
 745,63;10169,528;  189,373;56752,117;17,64440
 746,19;10224,907;  204,773;56975,195;17,65027
 746,76;10224,144;  210,973;56909,872;17,66026
 747,33;10218,666;  217,174;56688,150;17,71085
 747,90;10296,760;  227,974;57094,427;17,70602
 748,47;10215,139;  228,174;56888,104;17,62615
 749,04;10209,518;  228,574;56982,582;17,58633
 749,61;10278,612;  209,974;56797,859;17,79292
 750,17;10299,420;  212,374;56931,137;17,78432
 750,74;10319,657;  228,374;56910,214;17,80338
 751,31;10281,322;  194,174;56734,292;17,84069
 751,88;10234,987;  193,774;56596,569;17,80269
 752,45;10285,938;  213,974;56822,247;17,79239
 753,02;10273,746;  209,374;56688,524;17,81962
 753,58;10240,983;  193,974;56519,402;17,83743
 754,15;10309,648;  223,774;56777,479;17,83415
 754,72;10249,027;  193,574;56506,156;17,85649
 755,29;10236,121;  183,774;56333,834;17,90265
 755,86;10259,215;  222,374;56512,111;17,83068
 756,42;10341,308;  221,574;56376,989;18,02094
 756,99;10261,831;  191,974;56591,266;17,85458
 757,56;10306,924;  209,774;56331,544;17,99150
 758,13;10263,018;  176,174;56219,621;17,99826
 758,70;10346,255;  204,975;56289,899;18,08201
 759,26;10301,634;  198,175;56434,776;17,96599
 759,83;10371,728;  207,175;56603,453;18,02345
 760,40;10365,393;  204,575;56281,331;18,11948
 760,97;10374,344;  203,775;56472,208;18,07509
 761,53;10331,438;  192,375;56080,686;18,14165
 762,10;10369,960;  174,575;56038,363;18,25044
 762,67;10420,482;  221,575;56070,641;18,26155
 763,24;10277,576;  164,375;55565,118;18,25463
 763,80;10390,527;  199,575;55610,596;18,39156
 764,37;10358,335;  181,175;55604,673;18,36254
 764,94;10304,571;  178,175;55208,350;18,40153
 765,50;10297,951;  168,575;55191,628;18,40933
 766,07;10387,330;  210,375;55220,505;18,50015
 766,64;10327,710;  191,575;54901,983;18,52689
 767,21;10362,232;  189,975;54870,260;18,60315
 767,77;10336,754;  206,375;54707,338;18,58752
 768,34;10390,419;  210,775;54664,215;18,69422
 768,91;10398,085;  190,175;54295,093;18,86688
 769,47;10448,178;  192,376;54498,370;18,88521
 770,04;10419,986;  209,976;54468,247;18,81743
 770,61;10412,366;  187,176;54240,525;18,91685
 771,18;10423,174;  188,776;54080,402;18,99070
 771,74;10485,839;  210,576;54206,080;19,02985
 772,31;10513,933;  211,576;54057,757;19,13294
 772,88;10436,455;  178,176;53704,835;19,16480
 773,44;10400,977;  191,776;53520,312;19,14397
 774,01;10496,071;  189,776;53690,790;19,26374
 774,58;10478,165;  171,776;53432,467;19,35084
 775,14;10541,544;  184,376;53531,344;19,41473
 775,71;10597,352;  191,776;53402,422;19,55544
 776,27;10678,731;  233,976;53302,099;19,68179
 776,84;10716,682;  246,976;53488,977;19,66437
 777,41;10651,919;  207,976;53298,054;19,67212
 777,97;10650,441;  183,976;52923,332;19,84564
 778,54;10678,964;  206,176;53016,409;19,83098
 779,11;10763,486;  215,176;53045,287;19,96647
 779,67;10791,865;  192,776;52911,764;20,10488
 780,24;10790,245;  214,176;52651,841;20,16884
 780,80;10775,338;  222,577;52697,919;20,10994
 781,37;10835,146;  205,977;52485,196;20,33154
 781,94;10792,526;  194,577;52362,074;20,31523
 782,50;10897,620;  214,977;52273,751;20,52035
 783,07;10886,428;  247,977;52383,429;20,40541
 783,63;10915,807;  190,177;52079,106;20,67036
 784,20;10958,472;  232,777;52057,584;20,69606
 784,77;10909,423;  208,577;51928,461;20,69000
 785,33;10997,802;  187,177;51681,938;20,99364
 785,90;11105,468;  208,577;51654,016;21,18145
 786,46;11020,561;  222,377;51544,293;21,04010
 787,03;11041,369;  205,377;51364,371;21,18101
 787,59;11032,892;  209,177;51383,648;21,15061
 788,16;11102,271;  217,777;51273,726;21,31876
 788,73;11066,793;  223,577;50943,603;21,37857
 789,29;11060,601;  206,777;50617,081;21,53096
 789,86;11146,409;  211,977;50367,758;21,80094
 790,42;11167,932;  215,377;50497,636;21,78214
 790,99;11136,597;  224,977;50039,713;21,90440
 791,55;11183,119;  205,378;50188,990;21,96268
 792,12;11247,927;  231,378;50020,068;22,12661
 792,68;11165,592;  215,378;49785,745;22,09024
 793,25;11213,115;  217,578;49649,623;22,24374
 793,81;11208,065;  253,778;49135,900;22,40960
 794,38;11182,016;  193,378;49037,778;22,49723
 794,94;11196,681;  206,978;48908,855;22,56526
 795,51;11230,347;  218,978;48653,933;22,73434
 796,07;11149,298;  222,978;48389,010;22,68470
 796,64;11321,248;  246,778;48626,887;22,89054
 797,20;11254,628;  225,178;48034,365;23,06973
 797,77;11175,722;  201,978;47678,042;23,11427
 798,33;11251,101;  205,178;47540,320;23,33557
 798,90;11245,052;  246,378;47325,597;23,36206
 799,46;11223,574;  218,778;46887,675;23,58058
 800,03;11227,811;  210,378;46838,352;23,62837
 800,59;11189,619;  237,178;46681,230;23,58201
 801,15;11268,855;  239,978;46431,307;23,87651
 801,72;11200,092;  199,378;46248,184;23,88925
 802,28;11253,186;  240,778;45773,462;24,18572
 802,85;11183,708;  219,979;45820,939;24,04276
 803,41;11204,944;  207,179;45618,217;24,21827
 803,98;11161,181;  212,779;45104,294;24,38858
 804,54;11025,989;  228,979;44858,572;24,19249
 805,11;11110,226;  234,979;44625,249;24,49917
 805,67;11161,891;  240,379;44560,527;24,64232
 806,23;11106,699;  225,379;44110,804;24,79484
 806,80;11180,793;  243,379;44193,281;24,88609
 807,36;11201,458;  261,579;44025,959;24,99722
 807,93;11175,694;  239,779;43749,036;25,13469
 808,49;11124,217;  227,379;43464,914;25,20226
 809,05;11160,739;  210,779;43106,391;25,52699
 809,62;11206,547;  235,179;43062,269;25,61782
 810,18;11192,212;  228,779;43010,346;25,62653
 810,74;11209,734;  197,379;42687,824;25,91725
 811,31;11252,685;  216,579;42482,301;26,11124
 811,87;11246,779;  224,179;42432,978;26,11446
 812,44;11397,158;  258,979;42405,656;26,42718
 813,00;11367,109;  191,779;42067,533;26,68687
 813,56;11369,917;  243,779;42111,011;26,57481
 814,13;11448,154;  227,980;42001,088;26,85980
 814,69;11505,819;  229,380;41872,566;27,07871
 815,25;11347,484;  197,380;41443,443;27,03314
 815,82;11443,006;  234,380;41434,921;27,20505
 816,38;11465,957;  256,580;41108,398;27,43912
 816,94;11408,051;  230,780;40893,875;27,48751
 817,51;11405,430;  199,980;40628,753;27,71652
 818,07;11354,953;  213,380;40369,030;27,74597
 818,63;11379,904;  234,580;40002,908;28,02563
 819,20;11438,997;  236,180;40120,585;28,08821
 819,76;11347,805;  228,580;39577,863;28,25776
 820,32;11378,185;  245,380;39498,140;28,36184
 820,89;11360,136;  250,180;39362,218;28,40546
 821,45;11294,372;  210,580;39112,895;28,49134
 822,01;11248,037;  235,980;38901,573;28,48025
 822,57;11312,988;  232,780;38683,250;28,81683
 823,14;11192,939;  218,780;38618,327;28,57888
 823,70;11146,747;  216,780;38358,405;28,65627
 824,26;11215,841;  231,180;38082,482;29,02056
 824,82;11218,220;  225,781;37968,360;29,12477
 825,39;11167,028;  213,381;37732,437;29,19489
 825,95;11294,122;  237,781;37849,115;29,39630
 826,51;11228,930;  231,581;37278,792;29,68469
 827,08;11220,167;  271,781;37273,070;29,58920
 827,64;11257,975;  239,381;37244,347;29,77599
 828,20;11237,068;  216,581;36980,024;29,97676
 828,76;11360,448;  240,981;36879,502;30,34911
 829,32;11282,399;  245,581;36649,979;30,31726
 829,89;11186,921;  202,181;36605,657;30,17498
 830,45;11285,015;  208,181;36540,734;30,48735
 831,01;11333,965;  230,381;36315,412;30,77061
 831,57;11258,345;  233,181;36207,689;30,64716
 832,14;11368,581;  217,381;36185,367;31,00313
 832,70;11377,818;  208,181;35880,844;31,31147
 833,26;11322,198;  188,981;35790,321;31,27190
 833,82;11374,006;  222,181;35743,999;31,39429
 834,38;11454,242;  205,981;35722,676;31,67035
 834,95;11414,479;  211,581;35525,354;31,72388
 835,51;11400,287;  186,381;35588,031;31,67622
 836,07;11506,238;  222,182;35633,309;31,86585
 836,63;11574,760;  240,182;35589,986;32,06405
 837,19;11576,139;  231,582;35327,064;32,32484
 837,75;11511,804;  191,982;35086,541;32,44008
 838,32;11619,612;  236,782;35301,018;32,46279
 838,88;11650,992;  240,382;35185,096;32,65332
 839,44;11682,657;  203,782;34997,573;32,99116
 840,00;11664,322;  211,782;35115,651;32,81166
 840,56;11656,416;  215,182;34777,128;33,10356
 841,12;11687,510;  210,582;34765,406;33,21368
 841,68;11587,746;  193,182;34493,283;33,22021
 842,25;11696,983;  212,582;34672,761;33,32659
 842,81;11723,791;  203,782;34322,238;33,76474
 843,37;11716,313;  186,982;34411,115;33,68772
 843,93;11696,264;  219,182;34236,393;33,73904
 844,49;11869,072;  223,782;34377,670;34,09653
 845,05;11761,737;  191,582;34056,748;34,16536
 845,61;11935,259;  241,182;34182,225;34,45409
 846,17;11928,925;  207,782;34017,703;34,66776
 846,73;11894,875;  222,383;34085,180;34,46996
 847,29;11906,826;  202,783;33852,658;34,78183
 847,86;11991,777;  196,783;33641,935;35,26668
 848,42;11975,871;  190,383;33540,812;35,33834
 848,98;11996,250;  214,383;33519,890;35,37513
 849,54;12077,630;  204,183;33526,567;35,63204
 850,10;12047,152;  228,383;33345,045;35,68829
 850,66;12058,246;  184,783;33153,522;36,01431
 851,22;12111,768;  182,983;33056,000;36,28747
 851,78;12145,290;  239,983;33111,277;36,21795
 852,34;12060,098;  200,783;32939,555;36,22407
 852,90;12060,335;  212,183;32850,032;36,30188
 853,46;12006,714;  197,383;32641,709;36,39876
 854,02;12132,808;  213,983;32643,387;36,75314
 854,58;12022,902;  203,183;32336,464;36,78342
 855,14;12037,281;  186,583;32268,742;36,93859
 855,70;12057,946;  169,983;32086,819;37,24668
 856,26;12049,326;  216,383;31989,697;37,24176
 856,82;12067,705;  205,783;31857,374;37,47654
 857,38;12077,085;  224,383;31752,252;37,59436
 857,94;12089,607;  204,184;31631,129;37,81921
 858,50;12102,272;  220,984;31515,207;37,96640
 859,06;12072,794;  224,584;31482,284;37,90493
 859,62;12159,602;  213,384;31318,161;38,40638
 860,18;12106,982;  208,784;31074,239;38,54859
 860,74;12101,504;  168,984;30912,316;38,81336
 861,30;12100,312;  173,784;30831,794;38,90183
 861,86;12224,263;  221,584;30929,071;39,08714
 862,42;12180,643;  205,384;30590,949;39,41101
 862,98;12224,308;  225,784;30679,826;39,39879
 863,54;12211,401;  213,784;30401,504;39,74337
 864,10;12226,924;  199,384;30453,381;39,75521
 864,66;12188,732;  204,984;30147,458;40,02257
 865,22;12240,968;  204,984;30039,336;40,34270
 865,78;12249,919;  211,984;30028,813;40,37295
 866,34;12257,299;  201,784;29892,091;40,60421
 866,90;12253,821;  221,984;29758,968;40,73482
 867,45;12204,486;  222,184;29624,646;40,75272
 868,01;12192,865;  222,584;29528,523;40,84592
 868,57;12126,245;  194,184;29270,201;41,03747
 869,13;12161,196;  189,785;29094,678;41,41656
 869,69;12179,432;  202,185;29107,755;41,43578
 870,25;12161,526;  189,185;29104,833;41,40437
 870,81;12195,620;  215,785;28973,910;41,65722
 871,37;12163,142;  209,585;28797,588;41,81319
 871,93;12195,236;  224,185;28614,065;42,16661
 872,49;12069,187;  221,585;28385,943;42,06594
 873,04;12069,280;  200,185;28223,620;42,35418
 873,60;12013,088;  190,585;28096,698;42,36528
 874,16;12060,039;  210,585;28100,175;42,48701
 874,72;12009,039;  199,385;28028,775;42,43591
 875,28;12119,325;  209,785;27963,375;42,91171
 875,84;12087,896;  186,785;27807,375;43,08782
 876,40;12017,896;  206,985;27740,175;42,89700
 876,95;12053,468;  221,385;27739,775;42,99700
 877,51;12142,039;  255,785;27750,375;43,23125
 878,07;12089,754;  239,585;27763,975;43,05334
 878,63;12177,325;  218,585;27739,975;43,45253
 879,19;12285,325;  223,985;27668,175;43,94861
 879,75;12320,754;  217,185;27709,175;44,02580
 880,30;12380,039;  205,385;27794,575;44,12835
 880,86;12503,754;  255,185;27824,575;44,42815
 881,42;12500,325;  190,185;27869,775;44,47371
 881,98;12628,468;  224,585;28080,175;44,52924
 882,54;12682,325;  217,985;28017,575;44,83642
 883,09;12839,754;  226,985;28170,175;45,13718
 883,65;12840,468;  215,585;28300,375;44,95274
 884,21;13039,611;  239,585;28441,775;45,38664
 884,77;13085,754;  217,985;28552,975;45,41300
 885,32;13105,468;  211,185;28662,975;45,31976
 885,88;13250,611;  240,985;28801,975;45,55033
 886,44;13345,039;  212,785;28912,775;45,75700
 887,00;13375,754;  229,785;28898,775;45,85431
 887,56;13467,468;  221,785;29149,775;45,78847
 888,11;13562,039;  217,985;29168,175;46,09315
 888,67;13692,468;  240,185;29323,575;46,25418
 889,23;13751,182;  227,385;29229,775;46,62994
 889,79;13710,039;  208,785;29260,375;46,47337
 890,34;13711,468;  208,785;29149,575;46,65623
 890,90;13942,611;  250,985;29173,175;47,33952
 891,46;13865,182;  217,585;29233,975;47,03410
 892,01;13991,754;  240,585;29083,775;47,67562
 892,57;13918,611;  245,785;29088,775;47,40433
 893,13;13900,896;  226,185;28995,775;47,53183
 893,69;13901,468;  207,585;28903,575;47,72055
 894,24;13919,754;  218,185;28830,175;47,88751
 894,80;13921,039;  225,785;28553,575;48,34565
 895,36;13959,896;  207,385;28458,575;48,67941
 895,91;13840,468;  213,985;28280,375;48,55089
 896,47;13921,754;  230,185;28094,775;49,13608
 897,03;13903,896;  210,385;27903,775;49,44686
 897,58;13885,182;  217,785;27717,175;49,70073
 898,14;13813,182;  233,985;27673,575;49,48761
 898,70;13750,325;  197,385;27601,175;49,45644
 899,25;13801,039;  209,185;27406,375;49,97522
 899,81;13784,754;  238,185;27203,575;50,23687
 900,37;13696,896;  190,985;27044,375;50,29500
 900,92;13699,754;  220,185;26966,575;50,39771
 901,48;13720,468;  204,185;26834,575;50,75511
 902,03;13685,039;  199,385;26749,975;50,79230
 902,59;13628,325;  219,585;26734,975;50,56965
 903,15;13692,754;  242,585;26494,775;51,23446
 903,70;13550,754;  228,985;26272,975;51,15103
 904,26;13499,325;  195,185;26118,375;51,32138
 904,82;13558,182;  217,385;26110,975;51,52162
 905,37;13514,754;  215,585;26019,975;51,53840
 905,93;13465,611;  211,185;25899,975;51,59615
 906,48;13410,468;  230,185;25755,975;51,63516
 907,04;13449,182;  248,585;25767,175;51,72934
 907,60;13510,611;  205,985;25499,175;52,60161
 908,15;13402,325;  208,785;25448,375;52,27319
 908,71;13396,896;  251,385;25480,975;52,10355
 909,26;13359,325;  211,185;25169,375;52,68066
 909,82;13374,039;  237,185;25158,575;52,71317
 910,37;13394,754;  250,785;24900,975;53,32198
 910,93;13279,182;  206,785;24712,775;53,34368
 911,48;13240,896;  209,585;24621,375;53,38122
 912,04;13263,182;  203,585;24537,375;53,66857
 912,60;13283,896;  240,185;24691,775;53,34504
 913,15;13192,611;  233,585;24388,775;53,64903
 913,71;13157,611;  208,985;24185,975;54,00438
 914,26;13106,039;  207,785;24091,775;54,00377
 914,82;13155,039;  223,985;24053,375;54,26515
 915,37;13128,468;  209,785;23898,375;54,53547
 915,93;13131,896;  278,185;23892,775;54,43123
 916,48;13051,468;  215,785;23672,775;54,72008
 917,04;13049,039;  232,185;23553,975;54,95656
 917,59;13114,182;  251,985;23506,375;55,31083
 918,15;12901,039;  172,985;23242,175;55,17339
 918,70;13011,611;  194,585;23323,175;55,41637
 919,26;12938,325;  225,985;23132,575;55,49643
 919,81;12834,611;  191,385;23044,175;55,32465
 920,37;12908,039;  209,585;22783,375;56,25309
 920,92;12821,039;  215,385;22795,975;55,82518
 921,48;12789,182;  200,185;22586,375;56,23555
 922,03;12757,896;  214,985;22528,375;56,21249
 922,59;12737,468;  224,785;22401,375;56,42293
 923,14;12668,896;  210,185;22325,175;56,33605
 923,69;12677,325;  224,585;22390,575;56,17949
 924,25;12712,611;  234,585;22114,975;57,02835
 924,80;12644,896;  219,585;21933,575;57,22261
 925,36;12622,754;  216,585;21980,375;57,00371
 925,91;12580,896;  213,985;21765,175;57,38389
 926,47;12526,325;  192,985;21704,975;57,33240
 927,02;12635,468;  246,185;21669,975;57,82956
 927,57;12598,754;  217,385;21431,775;58,36307
 928,13;12504,611;  215,385;21399,175;58,01240
 928,68;12567,182;  214,385;21298,775;58,58741
 929,24;12449,039;  194,985;21056,975;58,73866
 929,79;12423,896;  195,185;20994,175;58,79474
 930,34;12377,182;  220,985;20909,175;58,75911
 930,90;12376,468;  200,585;20822,575;59,04320
 931,45;12447,182;  208,985;20760,775;59,54808
 932,01;12451,754;  226,985;20826,175;59,34587
 932,56;12405,182;  236,785;20657,975;59,58711
 933,11;12436,611;  224,785;20495,575;60,24346
 933,67;12283,896;  218,985;20367,175;59,88087
 934,22;12275,754;  224,385;20302,375;60,02278
 934,77;12328,896;  223,585;20152,375;60,74283
 935,33;12300,182;  228,985;20031,775;60,95705
 935,88;12302,182;  228,585;20037,175;60,95132
 936,43;12295,325;  224,785;19867,775;61,44961
 936,99;12243,325;  203,985;19779,775;61,50117
 937,54;12184,182;  199,385;19705,575;61,44099
 938,09;12217,039;  214,385;19494,375;62,25446
 938,65;12196,182;  212,785;19343,175;62,64063
 939,20;12154,611;  194,585;19422,175;62,20242
 939,75;12188,325;  197,185;19246,375;62,94829
 940,31;12088,468;  193,785;19051,175;63,07704
 940,86;12078,754;  203,585;19200,975;62,50947
 941,41;12073,039;  264,985;19011,775;62,98707
 941,96;12081,182;  207,185;18855,975;63,67168
 942,52;11953,611;  216,385;18838,175;63,02952
 943,07;11921,896;  193,785;18730,975;63,26801
 943,62;11877,468;  201,585;18591,975;63,48904
 944,18;11869,039;  190,585;18531,975;63,67268
 944,73;11856,039;  216,785;18403,975;63,99699
 945,28;11751,896;  181,185;18284,575;63,91461
 945,83;11784,325;  223,385;18173,575;64,40567
 946,39;11785,896;  203,785;18154,575;64,52146
 946,94;11761,611;  234,985;18027,775;64,78256
 947,49;11708,468;  214,585;17934,375;64,86467
 948,04;11739,754;  227,185;17990,975;64,80919
 948,59;11659,754;  229,785;17823,975;64,96445
 949,15;11595,325;  196,785;17696,575;65,13530
 949,70;11560,182;  213,385;17583,375;65,32414
 950,25;11611,325;  231,785;17544,775;65,72833
 950,80;11617,896;  187,385;17522,775;65,93743
 951,36;11492,039;  180,985;17437,175;65,54781
 951,91;11534,039;  211,785;17414,175;65,81791
 952,46;11423,325;  181,585;17155,375;66,22999
 953,01;11512,611;  215,185;17166,975;66,64444
 953,56;11445,468;  186,385;17089,975;66,60764
 954,11;11456,611;  231,985;17015,775;66,87778
 954,67;11459,611;  204,985;16958,175;67,17900
 955,22;11323,896;  188,985;16687,775;67,48926
 955,77;11382,468;  234,585;16719,375;67,62526
 956,32;11413,039;  251,185;16646,375;68,08005
 956,87;11280,611;  206,385;16472,775;68,08041
 957,42;11328,039;  206,985;16494,775;68,27847
 957,98;11312,611;  201,785;16257,375;69,20223
 958,53;11266,611;  224,385;16301,175;68,68427
 959,08;11189,039;  190,785;16218,575;68,61991
 959,63;11227,182;  190,585;16122,175;69,27493
 960,18;11183,754;  217,185;16053,375;69,25004
 960,73;11142,039;  208,985;15932,375;69,53370
 961,28;11116,182;  200,785;15844,375;69,77553
 961,83;11142,039;  216,385;15855,775;69,85985
 962,39;11068,896;  200,185;15688,175;70,17509
 962,94;11105,896;  215,585;15571,575;70,91898
 963,49;10994,611;  209,785;15532,375;70,38514
 964,04;11067,468;  214,985;15423,175;71,35946
 964,59;10976,182;  203,585;15309,575;71,31341
 965,14;11016,754;  214,785;15274,375;71,72817
 965,69;10941,896;  195,585;15175,975;71,73586
 966,24;10948,039;  189,785;15058,575;72,35461
 966,79;10912,896;  215,585;14974,175;72,48193
 967,34;10793,754;  191,185;14867,575;72,24235
 967,89;10831,182;  211,985;14773,375;72,92708
 968,44;10793,611;  219,585;14791,175;72,56604
 968,99;10806,039;  226,785;14619,175;73,50589
 969,55;10794,325;  220,985;14511,975;73,98606
 970,10;10730,611;  214,385;14446,775;73,88939
 970,65;10687,325;  227,385;14262,975;74,52441
 971,20;10628,896;  199,185;14271,175;74,11682
 971,75;10502,182;  188,185;14090,175;74,19080
 972,30;10483,611;  217,785;14004,775;74,46024
 972,85;10416,611;  203,585;14013,975;73,95175
 973,40;10351,182;  203,185;13823,575;74,50592
 973,95;10437,325;  220,985;13810,175;75,17990
 974,50;10371,896;  241,385;13734,375;75,07981
 975,05;10401,325;  215,785;13633,775;75,90958
 975,60;10363,896;  241,185;13571,975;75,93482
 976,15;10244,468;  211,385;13443,575;75,82330
 976,70;10185,896;  222,185;13370,975;75,77664
 977,25;10154,325;  211,985;13416,975;75,29229
 977,80;10107,468;  195,985;13126,975;76,64906
 978,35;10038,325;  211,985;13055,175;76,51012
 978,89; 9999,468;  199,385;12930,375;76,97817
 979,44; 9955,754;  217,785;12903,375;76,76402
 979,99; 9879,325;  201,985;12765,375;77,02810
 980,54; 9801,754;  228,185;12675,975;76,90979
 981,09; 9783,896;  222,585;12618,175;77,13478
 981,64; 9679,611;  221,585;12389,575;77,72874
 982,19; 9687,754;  242,985;12345,775;78,03794
 982,74; 9592,039;  231,185;12263,975;77,79455
 983,29; 9520,468;  192,785;12115,775;78,23275
 983,84; 9419,182;  227,985;12057,575;77,69667
 984,39; 9475,325;  249,385;11963,175;78,76136
 984,94; 9347,896;  200,585;11862,975;78,43428
 985,49; 9308,039;  232,385;11793,175;78,50376
 986,03; 9281,039;  233,785;11663,975;79,15227
 986,58; 9220,039;  268,785;11628,175;78,80048
 987,13; 9110,611;  207,985;11411,575;79,46226
 987,68; 9074,182;  235,985;11312,375;79,79312
 988,23; 9013,611;  226,985;11250,175;79,71037
 988,78; 8960,468;  223,785;11109,775;80,25621
 989,33; 8850,611;  220,985;10968,775;80,29209
 989,88; 8874,039;  251,985;10965,975;80,47473
 990,42; 8731,754;  223,185;10787,175;80,54313
 990,97; 8593,039;  223,185;10681,175;80,03311
 991,52; 8631,325;  235,185;10688,575;80,31978
 992,07; 8588,039;  244,585;10498,775;81,36629
 992,62; 8512,182;  228,185;10449,775;81,04411
 993,17; 8436,325;  230,185;10255,775;81,85194
 993,71; 8359,039;  236,585;10236,375;81,22625
 994,26; 8277,896;  218,185;10051,175;81,96603
 994,81; 8252,039;  239,985;10001,575;82,07735
 995,36; 8109,611;  208,985; 9878,775;81,70421
 995,91; 8155,325;  227,185; 9840,775;82,46805
 996,45; 8062,611;  223,185; 9708,175;82,65086
 997,00; 7923,039;  208,785; 9556,175;82,52843
 997,55; 7872,468;  226,185; 9570,575;81,82752
 998,10; 7804,182;  235,785; 9334,575;83,18026
 998,65; 7718,325;  207,185; 9332,975;82,30674
 999,19; 7620,754;  234,585; 9289,775;81,56834
 999,74; 7590,468;  237,185; 9119,375;82,78682
1000,29; 7567,468;  247,185; 9050,575;83,15300
1000,84; 7424,611;  226,385; 8927,975;82,72311
1001,38; 7338,325;  225,985; 8722,975;83,70423
1001,93; 7311,182;  227,185; 8819,575;82,44501
1002,48; 7215,754;  213,185; 8628,775;83,20948
1003,03; 7238,039;  222,785; 8504,975;84,70289
1003,57; 7176,611;  232,985; 8453,975;84,46216
1004,12; 7117,325;  233,185; 8326,175;85,06300
1004,67; 7008,754;  223,985; 8297,175;84,04074
1005,22; 6934,611;  214,785; 8139,375;84,79714
1005,76; 6822,896;  212,585; 7986,175;85,03550
1006,31; 6812,182;  234,985; 7930,775;85,46487
1006,86; 6724,182;  221,985; 7767,575;86,17215
1007,40; 6637,896;  198,185; 7624,975;86,70922
1007,95; 6623,611;  230,385; 7621,375;86,50026
1008,50; 6509,896;  234,185; 7447,975;86,99604
1009,04; 6438,468;  218,385; 7419,175;86,38056
1009,59; 6319,896;  221,585; 7293,975;86,22702
1010,14; 6304,039;  215,585; 7124,575;88,12365
1010,68; 6252,039;  223,785; 7028,975;88,58319
1011,23; 6091,611;  189,385; 6898,975;87,96701
1011,78; 6099,039;  238,385; 6909,775;87,84757
1012,32; 5993,611;  221,385; 6682,575;89,33688
1012,87; 5974,896;  239,585; 6755,175;88,02444
1013,42; 5877,182;  212,185; 6570,975;89,08923
1013,96; 5874,182;  242,985; 6621,575;88,28279
1014,51; 5782,468;  182,185; 6500,175;88,64026
1015,06; 5828,468;  191,385; 6547,775;88,68372
1015,60; 5861,896;  264,385; 6593,375;88,44241
1016,15; 5826,325;  213,785; 6555,575;88,50088
1016,69; 5850,611;  226,585; 6498,375;89,67178
1017,24; 5860,754;  203,185; 6530,775;89,41111
1017,79; 5975,468;  249,985; 6580,175;90,44725
1018,33; 5932,754;  211,185; 6584,175;89,77840
1018,88; 6017,468;  248,185; 6615,975;90,60102
1019,42; 6043,468;  230,585; 6633,375;90,78672
1019,97; 6015,325;  199,585; 6670,375;89,87682
1020,51; 6065,896;  232,385; 6724,975;89,84876
1021,06; 6054,468;  201,185; 6703,975;90,01187
1021,61; 6070,754;  183,385; 6564,775;92,25840
1022,15; 6014,896;  170,385; 6554,375;91,54951
1022,70; 6037,754;  221,985; 6591,975;91,29949
1023,24; 5975,611;  185,985; 6595,975;90,32191
1023,79; 5961,182;  206,185; 6495,775;91,50035
1024,33; 5951,182;  206,185; 6476,975;91,61521
1024,88; 5894,611;  211,185; 6419,975;91,53838
1025,42; 5783,182;  214,785; 6222,175;92,69245
1025,97; 5758,754;  211,785; 6173,175;93,04824
1026,51; 5675,468;  175,985; 6033,175;93,89285
1027,06; 5589,182;  206,185; 6053,375;92,06127
1027,60; 5513,039;  205,585; 5935,175;92,63236
1028,15; 5466,896;  230,585; 5842,775;93,30246
1028,69; 5354,325;  196,985; 5694,375;93,81434
1029,24; 5287,611;  211,385; 5638,775;93,52978
1029,78; 5193,611;  208,385; 5525,175;93,76383
1030,33; 5084,611;  185,985; 5398,775;93,97320
1030,87; 5099,468;  212,385; 5365,775;94,83239
1031,42; 4967,325;  194,385; 5274,975;93,94460
1031,96; 4962,182;  216,985; 5209,175;95,05241
1032,51; 4850,039;  198,785; 5159,575;93,76035
1033,05; 4868,039;  216,785; 5094,375;95,35968
1033,60; 4746,182;  166,785; 4986,175;95,02026
1034,14; 4704,325;  200,185; 4900,775;95,82074
1034,69; 4651,182;  210,185; 4821,375;96,30913
1035,23; 4602,754;  205,985; 4730,975;97,16637
1035,77; 4505,039;  193,585; 4674,375;96,22085
1036,32; 4485,896;  169,185; 4629,175;96,78747
1036,86; 4466,039;  202,185; 4530,575;98,50901
1037,41; 4316,182;  219,585; 4518,575;95,29208
1037,95; 4292,325;  182,985; 4436,375;96,61329
1038,50; 4272,468;  194,985; 4351,775;98,09211
1039,04; 4251,039;  216,385; 4251,375;99,99168
1039,58; 4193,896;  195,985; 4206,575;99,68387
1040,13; 4128,182;  193,185; 4211,375;97,92959
1040,67; 4077,039;  232,985; 4143,575;98,29858
1041,21; 4046,182;  234,385; 4054,975;99,76986
1041,76; 3964,325;  189,585; 3998,975;99,09041
1042,30; 3969,325;  207,185; 3960,575;100,23312
1042,85; 3873,754;  205,185; 3900,775;99,26882
1043,39; 3836,754;  196,585; 3840,775;99,88965
1043,93; 3762,039;  213,185; 3768,575;99,81617
1044,48; 3718,468;  221,785; 3745,575;99,23074
1045,02; 3647,754;  194,985; 3677,575;99,14370
1045,56; 3696,182;  226,785; 3593,175;103,05987
1046,11; 3648,182;  209,985; 3566,175;102,44346
1046,65; 3539,039;  219,985; 3509,575;100,89568
1047,19; 3480,468;  187,785; 3480,975;99,98460
1047,74; 3444,896;  191,985; 3379,375;102,05565
1048,28; 3424,611;  214,785; 3427,975;99,89530
1048,82; 3401,182;  220,785; 3358,975;101,34495
1049,37; 3329,325;  215,385; 3284,775;101,45143
1049,91; 3297,754;  197,185; 3303,375;99,81902
1050,45; 3269,468;  224,985; 3245,375;100,79767
1050,99; 3218,754;  202,985; 3149,375;102,35470
1051,54; 3154,611;  207,185; 3100,375;101,87460
1052,08; 3144,468;  228,785; 3086,975;102,01151
1052,62; 3106,182;  223,985; 3023,975;102,93598
1053,16; 3021,325;  206,585; 2934,575;103,18000
1053,71; 3037,468;  218,585; 2966,975;102,56488
1054,25; 2990,468;  217,185; 2879,175;104,18081
1054,79; 2937,182;  222,585; 2843,975;103,55564
1055,33; 2885,468;  199,185; 2783,975;103,92654
1055,88; 2852,039;  232,185; 2776,975;102,94972
1056,42; 2824,896;  227,185; 2762,175;102,47423
1056,96; 2845,182;  234,585; 2692,975;106,19133
1057,50; 2769,182;  224,185; 2648,775;104,96608
1058,05; 2715,325;  222,785; 2621,975;103,89090
1058,59; 2693,468;  233,985; 2547,775;106,29672
1059,13; 2620,182;  201,585; 2473,175;106,47155
1059,67; 2616,039;  228,185; 2524,575;103,98296
1060,21; 2555,182;  215,385; 2451,775;104,62384
1060,76; 2532,896;  235,185; 2440,975;104,16728
1061,30; 2546,325;  244,385; 2377,175;107,93093
1061,84; 2495,896;  210,185; 2358,375;106,40173
1062,38; 2421,896;  199,585; 2303,775;105,61363
1062,92; 2451,325;  260,985; 2322,375;106,25549
1063,46; 2373,039;  242,585; 2245,575;106,36370
1064,01; 2344,611;  204,785; 2226,575;105,83818
1064,55; 2293,896;  229,585; 2221,575;103,63061
1065,09; 2234,611;  198,385; 2126,375;105,61391
1065,63; 2273,754;  230,785; 2131,775;107,46866
1066,17; 2253,896;  245,785; 2102,975;108,12633
1066,71; 2236,039;  231,785; 2098,775;107,35217
1067,25; 2177,039;  237,185; 2061,175;106,35224
1067,80; 2153,468;  238,385; 2045,975;105,94675
1068,34; 2134,754;  250,385; 2047,175;104,87417
1068,88; 2086,182;  217,585; 1981,175;105,95417
1069,42; 2078,754;  258,185; 1998,375;104,61895
1069,96; 2035,468;  225,385; 1939,175;105,61871
1070,50; 2021,611;  251,585; 1942,975;104,64918
1071,04; 1991,182;  203,185; 1908,175;104,86848
1071,58; 1984,325;  218,385; 1881,175;106,20343
1072,12; 1932,182;  218,785; 1812,975;107,47760
1072,66; 1894,325;  232,985; 1827,175;104,21217
1073,21; 1934,182;  235,985; 1839,175;105,92613
1073,75; 1883,468;  235,385; 1805,975;104,93400
1074,29; 1857,754;  240,585; 1778,575;105,14819
1074,83; 1869,754;  249,585; 1748,175;108,11286
1075,37; 1824,754;  243,785; 1726,975;106,59245
1075,91; 1839,754;  232,185; 1720,975;107,97820
1076,45; 1787,896;  228,385; 1687,775;106,86050
1076,99; 1779,468;  254,785; 1650,975;109,20311
1077,53; 1709,611;  222,185; 1646,575;104,42545
1078,07; 1749,896;  241,185; 1615,975;109,74123
1078,61; 1687,039;  218,785; 1609,375;105,58499
1079,15; 1688,325;  222,985; 1585,575;107,54079
1079,69; 1654,896;  223,985; 1549,175;107,97783
1080,23; 1665,468;  244,385; 1572,175;107,02618
1080,77; 1690,754;  246,985; 1569,375;109,17873
1081,31; 1607,182;  203,985; 1501,375;108,15538
1081,85; 1616,896;  245,185; 1514,175;108,09474
1082,39; 1558,754;  215,385; 1467,975;107,24727
1082,93; 1573,468;  210,785; 1449,975;109,96561
1083,47; 1549,896;  214,785; 1425,775;110,24958
1084,01; 1529,039;  250,185; 1426,975;108,67311
1084,55; 1509,611;  212,385; 1393,175;109,86083
1085,09; 1518,039;  242,585; 1387,375;111,41382
1085,63; 1450,611;  223,185; 1392,375;104,98086
1086,17; 1449,611;  220,585; 1358,775;107,98072
1086,71; 1420,896;  236,585; 1333,575;107,96009
1087,24; 1453,182;  248,585; 1347,175;109,64938
1087,78; 1427,325;  222,985; 1311,775;110,61270
1088,32; 1374,611;  213,785; 1278,575;109,01922
1088,86; 1393,182;  242,385; 1315,375;107,25143
1089,40; 1378,039;  219,785; 1272,175;110,05942
1089,94; 1302,182;  196,585; 1241,175;105,84030
1090,48; 1349,182;  226,985; 1241,775;110,58417
1091,02; 1324,896;  233,785; 1239,175;108,52619
1091,56; 1298,611;  234,985; 1212,175;108,84533
1092,10; 1281,182;  217,785; 1190,975;109,26922
1092,63; 1286,896;  248,985; 1209,575;108,04937
1093,17; 1248,754;  230,985; 1195,975;105,46934
1093,71; 1250,754;  227,385; 1151,775;110,70745
1094,25; 1252,182;  249,785; 1176,375;108,18130
1094,79; 1207,611;  247,785; 1129,175;108,89909
1095,33; 1201,182;  232,585; 1100,975;111,53942
1095,87; 1175,039;  230,985; 1142,375;103,58401
1096,40; 1146,611;  206,985; 1087,375;106,72835
1096,94; 1163,182;  238,785; 1072,575;110,86690
1097,48; 1162,325;  235,185; 1090,775;108,36265
1098,02; 1139,039;  210,785; 1066,575;108,46753
1098,56; 1088,182;  196,985;  999,175;111,09552
1099,10; 1081,611;  211,585;  999,375;110,43879
1099,63; 1072,182;  209,785; 1018,775;106,60171
1100,17; 1074,754;  244,185; 1028,775;105,86020
1100,71; 1100,182;  239,985; 1012,375;111,36824

