
Integration time [ms]: 130,000
Averaging Nr. [scans]: 7
Smoothing Nr. [pixels]: 0
Data measured with spectrometer [name]: 2009305U1
Wave   ;Sample   ;Dark     ;Reference;Reflectance
[nm]   ;[counts] ;[counts] ;[counts] ;[%]

 175,72;  208,821;  192,986;  201,498;186,03614
 176,32;  235,352;  222,384;  221,717; 0,00000
 176,92;  259,741;  241,385;  235,854; 0,00000
 177,52;  268,191;  259,786;  258,523; 0,00000
 178,12;  243,539;  246,984;  204,441; 0,00000
 178,72;  259,629;  250,783;  241,274; 0,00000
 179,32;  267,050;  247,384;  249,069;1166,94819
 179,92;  268,930;  231,385;  239,762;448,18189
 180,52;  250,808;  244,988;  241,098; 0,00000
 181,12;  238,984;  248,385;  229,716; 0,00000
 181,73;  282,264;  272,585;  262,308; 0,00000
 182,33;  376,883;  306,387;  321,281;473,32218
 182,93;  279,124;  256,186;  256,932; 0,00000
 183,53;  246,043;  246,183;  223,624; 0,00000
 184,13;  233,863;  236,383;  230,131; 0,00000
 184,73;  286,433;  249,982;  256,507;558,67288
 185,33;  306,932;  234,768;  346,100;64,81877
 185,93;  295,584;  232,166;  351,877;52,97621
 186,53;  309,162;  241,967;  348,122;63,29924
 187,13;  328,210;  257,569;  394,908;51,43530
 187,73;  300,076;  220,566;  335,660;69,08244
 188,33;  302,858;  254,365;  362,824;44,71121
 188,93;  320,766;  244,562;  398,475;49,51064
 189,53;  319,861;  258,559;  392,476;45,77614
 190,13;  351,832;  283,155;  430,284;46,67792
 190,73;  292,387;  220,558;  363,114;50,38674
 191,34;  318,398;  253,561;  378,621;51,84476
 191,94;  300,774;  240,364;  345,758;57,31809
 192,54;  325,703;  245,370;  399,729;52,04298
 193,14;  312,568;  248,969;  381,307;48,05837
 193,74;  322,193;  249,968;  364,047;63,31128
 194,34;  319,130;  227,969;  353,891;72,39447
 194,94;  275,358;  218,569;  355,716;41,40724
 195,54;  263,959;  215,168;  334,977;40,72376
 196,14;  280,372;  221,569;  355,380;43,94435
 196,74;  272,397;  216,167;  336,993;46,53801
 197,34;  262,962;  188,971;  344,465;47,58440
 197,94;  293,883;  220,769;  365,195;50,62402
 198,54;  291,926;  238,769;  365,333;42,00021
 199,14;  283,376;  213,971;  370,842;44,24304
 199,74;  258,443;  202,971;  374,033;32,42818
 200,34;  267,204;  199,372;  356,968;43,04163
 200,94;  306,529;  232,170;  410,644;41,66343
 201,54;  286,177;  216,571;  406,478;36,65290
 202,14;  328,060;  231,172;  444,781;45,35777
 202,74;  312,400;  223,371;  453,508;38,68508
 203,34;  281,208;  184,573;  446,416;36,90561
 203,94;  282,256;  173,772;  465,735;37,15687
 204,54;  338,600;  229,569;  530,605;36,21843
 205,14;  320,359;  190,571;  533,994;37,79229
 205,74;  364,501;  239,373;  624,034;32,52933
 206,34;  338,404;  210,772;  632,343;30,27540
 206,94;  360,291;  212,972;  703,417;30,03779
 207,54;  333,075;  188,772;  726,418;26,83978
 208,14;  375,818;  196,172;  794,506;30,02440
 208,74;  394,315;  217,771;  891,670;26,19741
 209,34;  387,041;  210,171;  960,509;23,57204
 209,94;  453,889;  204,571; 1037,280;29,94054
 210,54;  443,235;  213,973; 1112,879;25,50454
 211,14;  461,039;  204,571; 1236,499;24,85327
 211,73;  486,032;  197,971; 1326,867;25,51707
 212,33;  513,032;  206,770; 1438,453;24,86532
 212,93;  530,608;  203,171; 1522,488;24,81868
 213,53;  511,669;  174,371; 1562,260;24,30291
 214,13;  544,588;  205,174; 1652,697;23,44791
 214,73;  529,203;  195,372; 1657,381;22,83373
 215,33;  521,175;  168,771; 1707,080;22,90848
 215,93;  578,760;  206,573; 1816,158;23,12317
 216,53;  567,170;  162,571; 1892,659;23,38603
 217,13;  642,571;  227,173; 2126,822;21,86711
 217,73;  700,467;  196,373; 2281,539;24,17524
 218,33;  734,600;  148,574; 2495,337;24,97166
 218,93;  821,688;  192,576; 2756,037;24,54152
 219,53;  905,382;  185,774; 3043,728;25,17913
 220,13;  962,161;  168,574; 3315,721;25,21607
 220,73; 1094,882;  196,771; 3663,262;25,90834
 221,32; 1179,315;  176,771; 4002,670;26,20414
 221,92; 1303,798;  167,774; 4489,701;26,28512
 222,52; 1424,225;  177,173; 4825,264;26,82933
 223,12; 1572,285;  176,973; 5207,436;27,73725
 223,72; 1744,496;  185,573; 5646,427;28,54723
 224,32; 1836,304;  194,973; 5979,694;28,37356
 224,92; 1967,413;  176,373; 6339,999;29,05822
 225,52; 2131,644;  191,372; 6688,408;29,86396
 226,12; 2263,058;  188,373; 6945,384;30,70419
 226,72; 2395,518;  156,572; 7238,269;31,61595
 227,31; 2535,055;  154,172; 7537,973;32,24468
 227,91; 2690,288;  179,172; 7960,806;32,26978
 228,51; 2885,582;  181,371; 8348,198;33,11214
 229,11; 3091,332;  177,972; 8762,344;33,93794
 229,71; 3186,507;  176,971; 9024,802;34,01439
 230,31; 3405,050;  169,774; 9523,192;34,58924
 230,91; 3582,766;  158,770; 9767,098;35,63571
 231,51; 3740,862;  158,573;10040,244;36,25185
 232,10; 3961,348;  173,574;10533,432;36,56202
 232,70; 4154,416;  168,769;10665,091;37,97184
 233,30; 4367,414;  186,173;11029,985;38,55877
 233,90; 4506,666;  172,773;11194,690;39,32068
 234,50; 4690,273;  170,773;11401,596;40,24193
 235,10; 4782,699;  166,173;11490,599;40,76609
 235,70; 4983,061;  186,972;11624,368;41,93340
 236,29; 5024,591;  179,571;11659,240;42,20522
 236,89; 5029,592;  160,370;11714,814;42,14155
 237,49; 5151,041;  180,372;11688,736;43,19179
 238,09; 5107,833;  182,372;11480,943;43,59366
 238,69; 5168,725;  195,970;11405,171;44,36316
 239,29; 5088,780;  172,372;11141,789;44,81923
 239,89; 5037,769;  182,770;10898,509;45,30717
 240,48; 4843,370;  159,372;10599,047;44,86728
 241,08; 4728,400;  180,972;10337,522;44,77335
 241,68; 4625,557;  189,772;10061,372;44,93481
 242,28; 4434,370;  164,373; 9819,061;44,22719
 242,88; 4316,370;  198,374; 9482,888;44,35338
 243,48; 4204,116;  203,372; 9250,746;44,21995
 244,07; 3995,969;  177,372; 9107,911;42,75886
 244,67; 3882,097;  195,772; 9009,487;41,82487
 245,27; 3763,889;  195,971; 8880,267;41,08472
 245,87; 3654,745;  209,373; 8777,534;40,21133
 246,47; 3498,637;  188,171; 8790,362;38,48399
 247,06; 3406,477;  173,372; 8816,141;37,40821
 247,66; 3354,356;  172,972; 8941,810;36,28056
 248,26; 3322,674;  208,171; 9026,468;35,31864
 248,86; 3276,630;  197,971; 9181,944;34,26835
 249,46; 3167,365;  165,373; 9444,253;32,35296
 250,05; 3188,521;  195,972; 9783,266;31,21369
 250,65; 3127,693;  149,571;10138,313;29,81479
 251,25; 3178,281;  171,372;10609,388;28,80729
 251,85; 3148,575;  159,770;11118,766;27,27261
 252,44; 3163,853;  132,971;11710,174;26,17974
 253,04; 3233,739;  197,371;12463,062;24,75496
 253,64; 3227,909;  163,171;13112,912;23,66641
 254,24; 3354,310;  193,572;13970,475;22,94230
 254,84; 3381,651;  183,973;14890,853;21,74274
 255,43; 3474,577;  191,571;15757,603;21,09083
 256,03; 3525,112;  183,971;16591,684;20,36324
 256,63; 3587,986;  198,570;17660,118;19,41074
 257,23; 3611,853;  169,170;18345,547;18,94042
 257,82; 3734,210;  190,769;19251,922;18,58985
 258,42; 3700,203;  152,769;19951,490;17,91749
 259,02; 3816,940;  194,171;20729,623;17,64153
 259,62; 3881,551;  163,369;21428,059;17,48524
 260,21; 3885,298;  194,771;21896,222;17,00590
 260,81; 3878,779;  172,972;22326,403;16,72792
 261,41; 3954,762;  167,369;22570,864;16,90537
 262,01; 3995,285;  206,768;23108,504;16,54249
 262,60; 3997,710;  168,170;23373,147;16,50310
 263,20; 4086,804;  156,371;23500,628;16,83683
 263,80; 4123,343;  205,368;23599,066;16,74799
 264,40; 4107,196;  160,968;23819,858;16,67968
 264,99; 4230,997;  182,368;23843,294;17,11103
 265,59; 4308,373;  167,567;24059,513;17,33139
 266,19; 4392,697;  146,568;24172,257;17,67329
 266,78; 4524,821;  210,768;24316,185;17,89661
 267,38; 4582,167;  183,967;24330,944;18,21429
 267,98; 4636,528;  157,568;24150,966;18,66747
 268,58; 4767,133;  184,567;24217,448;19,06790
 269,17; 4888,463;  164,966;24285,346;19,58301
 269,77; 4969,553;  198,370;24085,497;19,97387
 270,37; 5057,484;  147,368;23944,855;20,63292
 270,96; 5196,907;  207,769;23900,074;21,05805
 271,56; 5231,381;  182,770;23601,023;21,55844
 272,16; 5289,004;  177,569;23375,339;22,03416
 272,75; 5392,014;  187,969;23411,568;22,40843
 273,35; 5501,270;  190,969;23294,694;22,98461
 273,95; 5664,653;  185,769;23354,159;23,64810
 274,54; 5793,722;  158,572;23331,028;24,31831
 275,14; 5949,674;  192,569;23707,828;24,48242
 275,74; 6109,055;  153,369;23879,482;25,10182
 276,33; 6415,074;  203,970;24142,154;25,94643
 276,93; 6603,944;  188,772;24583,858;26,29698
 277,53; 6844,373;  192,571;25175,231;26,62568
 278,12; 7092,998;  166,570;25657,758;27,17185
 278,72; 7491,439;  205,171;26178,411;28,05298
 279,32; 7782,647;  164,571;26753,991;28,65078
 279,91; 8137,424;  171,371;27521,361;29,12635
 280,51; 8459,206;  184,971;28009,765;29,73691
 281,11; 8856,391;  196,371;28752,665;30,32613
 281,70; 9172,834;  168,771;29039,102;31,18794
 282,30; 9557,238;  164,370;29898,623;31,58939
 282,90; 9926,759;  162,570;30314,080;32,38375
 283,49;10334,195;  190,569;30828,085;33,10851
 284,09;10665,664;  203,370;31190,426;33,76343
 284,69;11109,100;  185,371;31498,658;34,88528
 285,28;11385,596;  210,370;31942,235;35,21768
 285,88;11750,525;  227,969;32156,996;36,08803
 286,47;12072,405;  177,970;32188,289;37,15813
 287,07;12349,008;  194,771;32347,001;37,80216
 287,67;12749,402;  195,172;32354,546;39,03754
 288,26;13070,335;  184,971;32405,315;39,99139
 288,86;13432,144;  186,570;32495,769;40,99629
 289,46;13873,703;  186,371;32680,542;42,12242
 290,05;14431,213;  179,172;32626,997;43,92295
 290,65;14898,563;  185,370;32941,526;44,91734
 291,24;15364,674;  194,771;32878,468;46,41428
 291,84;15903,701;  202,970;33219,118;47,55470
 292,44;16410,387;  169,373;33300,709;49,02010
 293,03;16993,228;  246,171;33547,421;50,28958
 293,63;17323,868;  186,770;33615,584;51,26445
 294,22;17840,265;  208,371;33698,513;52,64801
 294,82;18110,886;  182,368;33743,792;53,42001
 295,41;18274,834;  156,771;33498,702;54,34017
 296,01;18620,111;  227,569;33383,433;55,47297
 296,61;18742,875;  194,371;33207,630;56,18501
 297,20;18806,759;  196,769;32826,653;57,03358
 297,80;18964,276;  204,972;32694,780;57,73904
 298,39;19001,575;  175,570;32287,366;58,62645
 298,99;19124,655;  191,569;32103,970;59,32830
 299,58;19136,315;  202,372;31960,897;59,61846
 300,18;19100,509;  209,372;31811,026;59,77895
 300,78;19117,753;  171,771;31484,299;60,50608
 301,37;19263,179;  207,968;31547,997;60,80151
 301,97;19269,240;  187,571;31411,847;61,11165
 302,56;19314,933;  182,570;31378,165;61,33034
 303,16;19344,122;  154,770;31499,886;61,21959
 303,75;19489,395;  174,571;31460,900;61,73567
 304,35;19668,629;  188,573;31471,397;62,27077
 304,94;19665,788;  194,771;31687,381;61,82726
 305,54;19764,744;  187,371;31750,070;62,02693
 306,13;19726,353;  151,573;31621,627;62,20129
 306,73;19525,051;  159,173;31458,566;61,87301
 307,33;19636,232;  198,772;31266,869;62,56405
 307,92;19654,976;  181,971;31330,916;62,51578
 308,52;19926,398;  169,770;31983,457;62,10103
 309,11;20201,873;  176,969;32351,365;62,23863
 309,71;20313,874;  152,968;32616,552;62,10314
 310,30;20542,824;  174,971;32954,887;62,13516
 310,90;20755,395;  185,971;33262,687;62,18702
 311,49;20869,066;  183,771;33381,562;62,30925
 312,09;20851,400;  151,372;33501,122;62,06951
 312,68;21088,812;  211,971;33895,860;61,97871
 313,28;21001,833;  158,371;34163,316;61,29539
 313,87;21033,117;  155,571;34084,705;61,53280
 314,47;21140,062;  180,169;34410,101;61,23265
 315,06;21138,632;  167,171;34623,354;60,86414
 315,66;21185,971;  175,372;34781,722;60,71313
 316,25;20867,737;  155,370;34635,211;60,07095
 316,85;20957,199;  151,972;34745,960;60,14116
 317,44;20860,757;  158,569;34808,042;59,74748
 318,04;20755,936;  154,570;34964,575;59,18231
 318,63;20562,353;  152,173;34926,013;58,69407
 319,22;20559,621;  179,570;35223,088;58,15641
 319,82;20339,209;  169,770;35286,149;57,43599
 320,41;20097,488;  180,770;35143,517;56,96554
 321,01;19964,717;  184,572;35123,206;56,61396
 321,60;19828,042;  168,770;35341,283;55,89385
 322,20;19637,952;  157,971;35299,850;55,43238
 322,79;19474,221;  208,771;35313,402;54,88008
 323,39;19299,929;  169,373;35372,034;54,34406
 323,98;19036,887;  144,771;35282,670;53,76564
 324,58;18860,844;  178,970;35129,905;53,45171
 325,17;18603,873;  196,170;35027,392;52,84828
 325,76;18325,158;  188,171;34881,219;52,27845
 326,36;17842,237;  149,972;34539,463;51,44672
 326,95;17637,623;  188,371;34192,512;51,31508
 327,55;17247,393;  153,970;33899,863;50,65334
 328,14;16793,068;  170,972;33373,200;50,06319
 328,74;16504,151;  209,170;33084,174;49,56648
 329,33;16070,850;  182,972;32760,777;48,76903
 329,92;15584,421;  158,569;31966,499;48,49687
 330,52;15115,809;  188,172;31457,277;47,73925
 331,11;14737,059;  179,770;31131,730;47,03188
 331,71;14263,996;  183,571;30498,361;46,44738
 332,30;13983,502;  180,371;29967,981;46,33850
 332,89;13559,949;  211,371;29360,253;45,79448
 333,49;13108,497;  177,171;28810,559;45,16170
 334,08;12675,376;  185,570;28460,415;44,17285
 334,68;12379,427;  184,370;28111,558;43,66733
 335,27;11985,930;  194,572;27666,421;42,92160
 335,86;11828,059;  225,970;27437,330;42,63693
 336,46;11447,048;  194,772;27302,755;41,50909
 337,05;11179,025;  170,170;27101,835;40,87699
 337,65;10999,730;  161,970;26927,606;40,49132
 338,24;10729,979;  230,171;26958,727;39,28311
 338,83;10598,652;  214,371;26752,013;39,13038
 339,43;10472,856;  166,370;26752,745;38,76605
 340,02;10264,728;  181,970;26565,382;38,21628
 340,61;10182,615;  175,971;26737,307;37,67372
 341,21; 9992,151;  207,170;26763,374;36,84631
 341,80; 9774,914;  187,370;26798,720;36,02802
 342,40; 9684,196;  194,772;26864,163;35,58170
 342,99; 9590,235;  180,971;26944,253;35,15736
 343,58; 9436,707;  176,772;27133,577;34,35101
 344,18; 9424,356;  180,572;27216,597;34,19062
 344,77; 9322,820;  173,570;27606,039;33,35190
 345,36; 9280,194;  160,371;27912,912;32,86122
 345,96; 9258,884;  210,972;28078,872;32,46715
 346,55; 9163,762;  176,173;28447,768;31,79017
 347,14; 9078,104;  160,972;28783,106;31,15467
 347,74; 9028,234;  139,974;29189,920;30,59648
 348,33; 9128,307;  191,974;29817,918;30,16387
 348,92; 9187,580;  183,775;30549,105;29,65160
 349,52; 9150,582;  156,174;30955,103;29,20364
 350,11; 9143,742;  162,170;31210,819;28,92742
 350,70; 9012,565;  172,171;31120,364;28,56514
 351,29; 8774,930;  152,368;30924,689;28,02051
 351,89; 8605,142;  179,969;30993,518;27,34243
 352,48; 8526,514;  148,171;30885,421;27,25795
 353,07; 8329,031;  183,172;30877,907;26,53829
 353,67; 8197,960;  190,175;30820,573;26,14326
 354,26; 7995,835;  178,172;30601,753;25,69606
 354,85; 7850,107;  177,172;30468,703;25,33030
 355,45; 7668,088;  147,370;30439,404;24,82738
 356,04; 7506,537;  173,573;30375,327;24,27993
 356,63; 7397,027;  206,771;30066,646;24,08000
 357,22; 7278,576;  184,368;29905,512;23,86923
 357,82; 7112,070;  187,968;29668,706;23,48687
 358,41; 6987,451;  199,771;29572,438;23,10883
 359,00; 6787,873;  163,770;29435,592;22,62962
 359,60; 6740,676;  185,571;29456,479;22,39461
 360,19; 6571,825;  182,373;29120,338;22,07983
 360,78; 6465,267;  182,770;29146,310;21,69105
 361,37; 6376,621;  189,170;28916,701;21,53840
 361,97; 6254,676;  182,971;28635,265;21,33995
 362,56; 6080,372;  167,969;28360,780;20,97131
 363,15; 6011,829;  215,170;28158,481;20,74435
 363,74; 5867,433;  172,569;27752,539;20,64855
 364,34; 5732,788;  182,370;27352,554;20,42834
 364,93; 5543,975;  175,169;26963,065;20,04191
 365,52; 5415,202;  145,370;26728,130;19,82424
 366,11; 5336,175;  181,770;26167,240;19,83572
 366,71; 5196,335;  159,970;26022,688;19,47346
 367,30; 5111,446;  174,170;25559,416;19,44939
 367,89; 5099,736;  206,172;25401,865;19,42223
 368,48; 4935,568;  166,169;25075,721;19,14687
 369,07; 4829,993;  183,571;24633,164;19,00409
 369,67; 4795,587;  191,769;24284,979;19,10836
 370,26; 4716,843;  168,771;24087,545;19,01465
 370,85; 4645,471;  186,170;23838,483;18,85355
 371,44; 4547,575;  177,571;23618,579;18,64256
 372,03; 4482,091;  168,370;23337,002;18,61880
 372,63; 4425,565;  147,771;23093,550;18,64306
 373,22; 4411,807;  167,171;22783,439;18,76806
 373,81; 4348,739;  147,170;22461,635;18,82890
 374,40; 4283,942;  169,372;22139,047;18,72840
 374,99; 4263,459;  165,970;21953,443;18,80663
 375,59; 4202,864;  156,172;21667,828;18,81163
 376,18; 4210,611;  191,770;21468,872;18,88810
 376,77; 4207,921;  203,371;21364,952;18,92368
 377,36; 4214,420;  199,370;21278,940;19,04711
 377,95; 4168,614;  176,570;20936,669;19,22941
 378,55; 4162,145;  175,772;20880,606;19,25335
 379,14; 4178,688;  198,770;20761,892;19,35464
 379,73; 4175,464;  184,170;20648,651;19,50352
 380,32; 4227,550;  202,171;20712,913;19,62571
 380,91; 4224,040;  151,769;20583,445;19,93116
 381,50; 4274,297;  179,570;20550,771;20,10057
 382,10; 4280,265;  162,771;20394,913;20,35125
 382,69; 4279,495;  160,970;20364,549;20,38512
 383,28; 4424,887;  192,770;20401,829;20,94169
 383,87; 4361,282;  157,570;20188,334;20,98628
 384,46; 4395,222;  162,369;20195,735;21,12902
 385,05; 4448,423;  202,570;20207,523;21,22401
 385,64; 4519,033;  171,770;20158,440;21,75081
 386,24; 4508,658;  156,168;20099,553;21,82423
 386,83; 4679,622;  192,168;20144,447;22,49093
 387,42; 4728,168;  200,570;20295,621;22,53091
 388,01; 4812,262;  177,767;20546,811;22,75264
 388,60; 5015,544;  179,569;20726,841;23,53585
 389,19; 5043,846;  159,766;21010,611;23,42389
 389,78; 5210,027;  180,366;21128,927;24,00958
 390,37; 5471,733;  208,568;21641,549;24,55639
 390,96; 5494,539;  186,168;21815,620;24,54233
 391,56; 5634,124;  182,966;21914,379;25,08424
 392,15; 5742,216;  157,167;22239,463;25,29198
 392,74; 5905,559;  149,764;22406,546;25,86086
 393,33; 6066,626;  154,165;22663,977;26,26615
 393,92; 6281,242;  188,363;23131,835;26,55605
 394,51; 6418,650;  163,965;23327,444;27,00236
 395,10; 6597,638;  194,760;23569,872;27,39186
 395,69; 6652,989;  182,161;23573,066;27,66386
 396,28; 6832,740;  182,959;23658,331;28,32663
 396,87; 6918,005;  201,757;23993,409;28,22943
 397,46; 7068,401;  181,955;24041,473;28,86247
 398,06; 7258,588;  204,753;24189,344;29,40986
 398,65; 7393,886;  197,949;24189,052;29,99419
 399,24; 7472,066;  180,348;24500,131;29,98266
 399,83; 7562,965;  163,741;24445,460;30,47241
 400,42; 7801,642;  206,135;24512,385;31,24919
 401,01; 7897,328;  170,928;24724,112;31,46802
 401,60; 7966,631;  181,918;24816,096;31,60127
 402,19; 8124,587;  194,110;24662,362;32,41129
 402,78; 8231,099;  219,099;24613,473;32,84364
 403,37; 8262,351;  196,288;24505,274;33,18141
 403,96; 8340,230;  187,674;24293,776;33,81947
 404,55; 8433,857;  192,660;24133,732;34,42284
 405,14; 8489,019;  184,247;24038,022;34,81534
 405,73; 8595,616;  197,631;23981,267;35,30993
 406,32; 8662,258;  191,621;24101,578;35,42724
 406,91; 8657,640;  187,609;23737,316;35,96661
 407,50; 8727,996;  185,002;23539,545;36,57958
 408,09; 8762,541;  152,198;23115,950;37,49537
 408,68; 8856,257;  182,995;23193,869;37,69201
 409,27; 8848,572;  154,999;22857,262;38,29386
 409,86; 8955,257;  157,808;22774,037;38,89883
 410,45; 8947,987;  211,416;22694,697;38,85808
 411,04; 9090,660;  212,624;22573,806;39,70289
 411,63; 9039,364;  196,235;22229,067;40,13615
 412,22; 9097,439;  191,644;22057,939;40,72841
 412,81; 9066,181;  201,048;21784,907;41,07297
 413,40; 8984,123;  210,252;21438,664;41,33079
 413,99; 9027,404;  258,651;21227,216;41,81857
 414,58; 8872,653;  187,452;20694,737;42,35179
 415,17; 8906,534;  175,248;20501,298;42,95614
 415,76; 8920,333;  180,244;20395,432;43,23526
 416,35; 8905,850;  174,846;20161,732;43,68366
 416,94; 9098,211;  222,045;20313,714;44,17834
 417,53; 9210,665;  177,648;20493,672;44,46252
 418,12; 9419,342;  174,049;20614,393;45,23062
 418,71; 9654,217;  197,252;20941,732;45,58786
 419,30; 9669,575;  181,049;21012,852;45,54827
 419,89; 9915,906;  185,050;21163,001;46,38611
 420,48;10126,731;  199,052;21489,970;46,62870
 421,07;10162,297;  204,653;21596,176;46,54949
 421,66;10353,749;  164,255;21538,096;47,67273
 422,25;10403,841;  185,259;21534,257;47,86446
 422,84;10514,080;  208,860;21487,749;48,42932
 423,43;10481,769;  195,258;21191,232;48,99278
 424,02;10496,192;  218,859;20971,837;49,52221
 424,60;10289,255;  191,663;20564,538;49,56390
 425,19;10196,874;  209,061;20305,406;49,69965
 425,78;10346,348;  205,261;20207,342;50,70016
 426,37;10250,803;  206,063;20111,059;50,46341
 426,96;10369,728;  205,863;19945,049;51,49080
 427,55;10363,675;  188,865;19762,574;51,98203
 428,14;10218,433;  183,867;19519,125;51,89776
 428,73;10194,601;  208,464;19341,737;52,19252
 429,32;10293,311;  205,063;19425,276;52,48770
 429,91;10377,124;  228,464;19418,805;52,88421
 430,50;10376,397;  205,466;19183,005;53,59457
 431,08;10354,636;  226,467;18999,311;53,95117
 431,67;10425,722;  268,868;19016,987;54,17532
 432,26;10362,085;  281,070;18905,633;54,12752
 432,85;10241,516;  281,869;18476,831;54,73849
 433,44;10112,317;  293,471;18078,520;55,20843
 434,03; 9951,160;  304,473;17738,947;55,33110
 434,62; 9801,571;  268,471;17308,235;55,94619
 435,21; 9716,066;  309,069;17213,975;55,64655
 435,79; 9703,609;  281,872;16934,179;56,57917
 436,38; 9651,048;  278,275;16896,072;56,40202
 436,97; 9664,961;  274,475;16729,837;57,06642
 437,56; 9659,209;  266,478;16623,825;57,42209
 438,15; 9583,623;  255,878;16496,161;57,43585
 438,74; 9703,444;  252,078;16499,268;58,17231
 439,33; 9718,403;  229,677;16456,341;58,47613
 439,91; 9820,116;  196,479;16520,581;58,95355
 440,50; 9873,564;  232,479;16621,240;58,82742
 441,09; 9929,183;  254,681;16749,826;58,65060
 441,68;10006,811;  232,283;16730,041;59,24762
 442,27;10047,311;  209,882;16687,816;59,70062
 442,86;10064,253;  206,287;16651,772;59,94330
 443,44;10261,273;  203,886;16753,004;60,77295
 444,03;10267,422;  273,887;16791,849;60,50102
 444,62;10206,405;  204,087;16619,601;60,93210
 445,21;10219,103;  219,286;16471,340;61,52956
 445,80;10152,123;  221,889;16363,863;61,51809
 446,39; 9999,184;  255,888;16196,422;61,12277
 446,97; 9953,083;  209,491;15841,813;62,32978
 447,56; 9789,804;  201,493;15706,886;61,83856
 448,15; 9764,142;  204,091;15505,975;62,47630
 448,74; 9632,062;  230,291;15290,758;62,42682
 449,33; 9531,378;  211,892;15142,083;62,42041
 449,91; 9371,188;  223,095;14894,015;62,35528
 450,50; 9347,273;  196,694;14714,040;63,03204
 451,09; 9268,672;  211,295;14708,166;62,47816
 451,68; 9314,376;  235,696;14536,163;63,48520
 452,26; 9284,359;  227,697;14402,943;63,89069
 452,85; 9262,584;  211,896;14299,357;64,24641
 453,44; 9271,154;  219,299;14312,838;64,22699
 454,03; 9275,932;  191,497;14305,367;64,36531
 454,61; 9234,578;  207,099;14368,230;63,74829
 455,20; 9428,737;  220,300;14521,704;64,38834
 455,79; 9403,573;  222,498;14447,995;64,53957
 456,38; 9504,007;  223,302;14552,908;64,76595
 456,97; 9588,293;  213,701;14622,094;65,06341
 457,55; 9554,995;  212,703;14558,695;65,12127
 458,14; 9629,783;  229,501;14553,453;65,62631
 458,73; 9569,990;  214,503;14483,287;65,56611
 459,31; 9629,650;  232,705;14529,387;65,72815
 459,90; 9677,508;  247,904;14600,360;65,70028
 460,49; 9860,515;  283,703;14696,165;66,44813
 461,08; 9835,034;  207,506;14867,089;65,67396
 461,66; 9874,623;  224,505;14888,910;65,80641
 462,25;10001,678;  226,907;14940,115;66,43535
 462,84;10075,458;  251,506;15011,281;66,55895
 463,43; 9998,871;  194,909;14974,511;66,33441
 464,01;10041,204;  218,710;14995,271;66,47348
 464,60;10029,481;  257,108;14803,201;67,18212
 465,19; 9873,558;  185,910;14720,475;66,65248
 465,77; 9982,397;  217,911;14554,854;68,10717
 466,36; 9870,316;  245,309;14525,559;67,40083
 466,95; 9629,933;  200,709;14226,494;67,22778
 467,53; 9448,920;  204,512;13914,149;67,43000
 468,12; 9348,479;  249,513;13740,122;67,44666
 468,71; 9162,587;  230,310;13415,162;67,74650
 469,29; 8992,273;  191,513;13187,353;67,71982
 469,88; 8831,328;  227,514;12883,731;67,98093
 470,47; 8932,129;  255,916;12949,820;68,34944
 471,06; 8861,458;  220,316;13005,744;67,58586
 471,64; 8889,332;  220,515;13189,379;66,84331
 472,23; 8885,413;  196,519;13015,701;67,78041
 472,81; 8970,765;  188,917;13223,040;67,37582
 473,40; 9104,977;  191,319;13326,682;67,86000
 473,99; 9279,439;  285,319;13423,177;68,45956
 474,57; 9363,505;  209,519;13701,757;67,84631
 475,16; 9509,762;  222,117;13824,843;68,27782
 475,75; 9588,778;  225,720;13942,558;68,25959
 476,33; 9692,346;  231,721;14015,988;68,63350
 476,92; 9709,873;  233,519;13987,799;68,89749
 477,51; 9831,269;  229,721;14118,754;69,13043
 478,09; 9792,765;  232,321;14143,545;68,72468
 478,68; 9753,547;  216,521;14012,349;69,12978
 479,27; 9820,376;  233,520;14178,435;68,74804
 479,85; 9746,235;  218,121;14165,872;68,31290
 480,44; 9870,842;  207,122;14306,392;68,54057
 481,02;10779,466;  229,523;16077,972;66,56767
 481,61;12167,147;  254,923;17850,264;67,70101
 482,20;13085,551;  254,723;19118,411;68,01866
 482,78;13715,905;  260,922;19733,161;69,09828
 483,37;13898,589;  262,525;19948,568;69,26767
 483,95;14261,015;  295,325;20382,571;69,52516
 484,54;14410,009;  297,122;20576,671;69,59172
 485,13;14331,568;  258,327;20626,963;69,09270
 485,71;14321,072;  265,126;20428,959;69,70870
 486,30;14105,711;  288,926;20149,750;69,56804
 486,88;13963,936;  315,727;19817,991;69,98269
 487,47;13468,733;  305,527;19173,432;69,76506
 488,05;12873,928;  304,528;18210,999;70,19474
 488,64;11988,531;  297,729;16839,124;70,67603
 489,23;10785,371;  293,128;14766,050;72,49568
 489,81; 9146,630;  292,329;12721,186;71,23987
 490,40; 8588,206;  236,929;12197,408;69,82394
 490,98; 8365,107;  233,530;11871,146;69,87322
 491,57; 8273,458;  277,529;11845,499;69,12129
 492,15; 8254,153;  261,530;11813,481;69,18851
 492,74; 8182,468;  257,928;11767,515;68,85165
 493,32; 8072,298;  259,930;11624,078;68,74575
 493,91; 8067,668;  231,331;11482,743;69,64759
 494,50; 8003,943;  245,333;11400,981;69,54871
 495,08; 7922,848;  225,733;11356,514;69,15162
 495,67; 7950,244;  241,930;11337,151;69,47418
 496,25; 7877,006;  210,132;11263,524;69,36219
 496,84; 7831,596;  202,730;11298,531;68,75452
 497,42; 7766,544;  197,532;11106,042;69,38630
 498,01; 7820,937;  219,131;11139,496;69,61128
 498,59; 7677,824;  203,133;11065,034;68,81568
 499,18; 7745,544;  202,331;11012,202;69,78079
 499,76; 7648,948;  205,132;10907,562;69,55258
 500,35; 7481,751;  203,734;10683,262;69,44985
 500,93; 7436,357;  187,332;10677,317;69,10424
 501,52; 7473,025;  200,133;10557,596;70,21886
 502,10; 7395,145;  208,535;10546,594;69,51605
 502,69; 7291,697;  196,336;10400,362;69,53491
 503,27; 7181,272;  190,133;10262,506;69,40906
 503,86; 7130,397;  209,735;10065,112;70,22219
 504,44; 6993,595;  182,936;10030,290;69,16233
 505,03; 6892,326;  162,736; 9694,137;70,60441
 505,61; 6770,631;  192,536; 9702,182;69,17287
 506,19; 6662,459;  204,136; 9472,108;69,68432
 506,78; 6476,514;  172,338; 9340,713;68,76002
 507,36; 6376,912;  183,936; 9137,175;69,17024
 507,95; 6257,821;  181,139; 9036,995;68,61767
 508,53; 6171,841;  187,138; 8897,027;68,71159
 509,12; 6074,691;  199,738; 8754,622;68,67367
 509,70; 6001,681;  204,739; 8637,406;68,74387
 510,29; 5880,586;  205,340; 8415,965;69,12075
 510,87; 5716,807;  174,738; 8270,731;68,45447
 511,46; 5660,284;  177,338; 8086,477;69,32418
 512,04; 5548,308;  186,939; 7957,770;68,99350
 512,62; 5368,923;  196,138; 7778,868;68,21798
 513,21; 5322,915;  171,140; 7678,090;68,62674
 513,79; 5216,851;  197,143; 7549,188;68,27635
 514,38; 5085,238;  181,142; 7320,047;68,69536
 514,96; 5045,471;  209,742; 7281,093;68,38480
 515,54; 4955,388;  181,542; 7104,679;68,95496
 516,13; 4827,921;  186,942; 7021,976;67,89987
 516,71; 4737,351;  192,944; 6926,813;67,48583
 517,30; 4650,637;  181,145; 6826,840;67,25394
 517,88; 4607,198;  188,345; 6746,811;67,37633
 518,46; 4496,929;  170,545; 6594,672;67,34587
 519,05; 4527,379;  179,746; 6495,754;68,83514
 519,63; 4464,549;  191,345; 6542,018;67,28742
 520,22; 4383,652;  217,947; 6442,155;66,92747
 520,80; 4351,403;  187,147; 6364,261;67,41426
 521,38; 4346,113;  210,146; 6401,013;66,80756
 521,97; 4280,424;  200,348; 6282,943;67,07788
 522,55; 4256,373;  199,748; 6282,800;66,68733
 523,13; 4251,341;  179,949; 6301,529;66,50885
 523,72; 4233,634;  168,345; 6249,243;66,85343
 524,30; 4317,958;  211,950; 6385,078;66,51423
 524,89; 4295,746;  176,548; 6358,449;66,63319
 525,47; 4372,367;  200,750; 6540,633;65,79960
 526,05; 4376,060;  161,550; 6521,777;66,26351
 526,64; 4497,043;  201,551; 6660,943;66,49994
 527,22; 4540,283;  202,350; 6749,594;66,25586
 527,80; 4616,125;  216,751; 6871,971;66,10412
 528,39; 4647,984;  197,351; 6962,595;65,78674
 528,97; 4730,861;  197,551; 7113,440;65,54920
 529,55; 4880,375;  203,749; 7325,624;65,66566
 530,14; 5007,025;  207,752; 7528,922;65,55336
 530,72; 5050,929;  185,551; 7652,030;65,16294
 531,30; 5108,633;  177,752; 7705,828;65,49988
 531,89; 5188,742;  197,552; 7831,933;65,37779
 532,47; 5260,303;  228,752; 7901,317;65,57848
 533,05; 5285,629;  233,151; 8000,980;65,04363
 533,63; 5280,618;  227,153; 8024,404;64,81085
 534,22; 5266,526;  184,953; 8097,148;64,22457
 534,80; 5342,755;  208,154; 8130,623;64,81062
 535,38; 5450,006;  261,952; 8300,477;64,53987
 535,97; 5364,691;  217,952; 8189,603;64,56302
 536,55; 5432,523;  239,754; 8349,577;64,03060
 537,13; 5388,858;  259,552; 8289,256;63,87914
 537,71; 5357,822;  298,752; 8354,350;62,80192
 538,30; 5408,104;  324,553; 8330,979;63,49339
 538,88; 5446,747;  370,155; 8471,232;62,66565
 539,46; 5537,847;  409,954; 8696,680;61,88081
 540,05; 5654,363;  418,554; 8885,743;61,83644
 540,63; 5710,910;  489,755; 8987,277;61,44327
 541,21; 5766,938;  514,355; 9101,578;61,16743
 541,79; 5876,333;  550,155; 9207,482;61,52220
 542,38; 5971,612;  583,154; 9437,837;60,85433
 542,96; 6003,996;  595,756; 9546,966;60,41909
 543,54; 6108,776;  618,955; 9809,719;59,73193
 544,12; 6199,345;  575,756; 9945,922;60,01590
 544,70; 6218,914;  567,556; 9959,138;60,17471
 545,29; 6326,268;  575,354;10202,475;59,73659
 545,87; 6337,190;  539,155;10182,482;60,12484
 546,45; 6254,745;  494,954;10226,408;59,18737
 547,03; 6380,268;  481,555;10286,689;60,15943
 547,62; 6396,176;  445,155;10398,845;59,78708
 548,20; 6476,977;  442,556;10554,508;59,67612
 548,78; 6505,520;  423,559;10673,898;59,33425
 549,36; 6638,474;  378,158;10871,763;59,65839
 549,94; 6693,962;  338,556;10875,057;60,31800
 550,53; 6838,535;  337,358;11173,922;59,99298
 551,11; 6879,309;  320,159;11369,121;59,36440
 551,69; 7062,767;  321,158;11645,981;59,52949
 552,27; 7211,610;  263,357;11964,718;59,37988
 552,85; 7395,527;  262,159;12227,130;59,61877
 553,44; 7489,397;  260,958;12593,143;58,61442
 554,02; 7737,765;  280,559;12963,584;58,79674
 554,60; 7903,757;  217,759;13196,779;59,21863
 555,18; 8120,726;  271,558;13667,468;58,59377
 555,76; 8327,925;  251,559;13974,632;58,85246
 556,34; 8509,285;  240,560;14358,681;58,56816
 556,93; 8722,896;  228,358;14680,944;58,77521
 557,51; 8878,243;  209,960;14982,768;58,67729
 558,09; 9113,273;  232,158;15343,801;58,77002
 558,67; 9251,877;  236,761;15780,364;57,99888
 559,25; 9406,711;  255,961;15964,284;58,25415
 559,83; 9562,938;  221,562;16289,350;58,13729
 560,41; 9745,246;  221,760;16657,165;57,94494
 561,00; 9899,340;  218,961;17034,859;57,56683
 561,58; 9992,648;  214,160;17279,088;57,30167
 562,16;10081,646;  211,959;17477,464;57,16419
 562,74;10287,673;  185,759;17965,327;56,81754
 563,32;10522,441;  200,362;18437,359;56,59967
 563,90;10700,751;  224,961;18787,212;56,43599
 564,48;10893,207;  225,160;19233,648;56,12255
 565,06;11082,018;  212,161;19645,953;55,93276
 565,65;11429,368;  215,363;20566,587;55,10236
 566,23;11765,248;  265,961;21284,202;54,71098
 566,81;12084,643;  220,561;21811,894;54,94835
 567,39;12522,354;  241,762;22814,523;54,40447
 567,97;12819,924;  243,961;23468,486;54,14949
 568,55;13254,449;  233,162;24299,977;54,10474
 569,13;13582,349;  208,961;24989,088;53,96820
 569,71;14017,292;  226,159;25929,073;53,65591
 570,29;14564,382;  262,958;26884,706;53,72083
 570,87;14895,406;  260,159;27621,986;53,48783
 571,45;15155,456;  260,561;28308,382;53,10535
 572,03;15307,719;  207,762;28687,954;53,01916
 572,61;15635,364;  205,562;29493,539;52,68306
 573,20;15967,522;  253,960;30196,149;52,47967
 573,78;16250,172;  237,562;30789,806;52,41059
 574,36;16411,403;  247,561;31220,242;52,18741
 574,94;16479,085;  271,162;31592,384;51,74741
 575,52;16494,009;  227,364;31876,615;51,39662
 576,10;16857,075;  291,163;32314,782;51,73029
 576,68;17000,669;  281,962;32978,611;51,13278
 577,26;17289,440;  282,765;33716,239;50,86721
 577,84;17467,623;  314,361;34175,662;50,65742
 578,42;17566,629;  332,563;34450,721;50,51289
 579,00;17526,189;  282,962;34449,854;50,46765
 579,58;17593,455;  314,963;34647,623;50,32669
 580,16;17584,087;  304,563;34683,208;50,26238
 580,74;17544,896;  320,163;35084,276;49,54745
 581,32;17441,828;  300,363;35042,672;49,33888
 581,90;17449,145;  308,963;35056,770;49,32738
 582,48;17422,532;  323,563;35155,656;49,08970
 583,06;17376,002;  327,563;35249,557;48,81863
 583,64;17368,337;  322,562;35423,889;48,56162
 584,22;17212,031;  320,164;35040,284;48,65152
 584,80;16997,017;  344,963;34743,607;48,40904
 585,38;16846,989;  333,160;34402,452;48,47130
 585,96;16648,504;  315,962;34409,142;47,90560
 586,54;16646,774;  351,964;34509,758;47,70451
 587,12;16683,673;  306,564;34596,659;47,76047
 587,70;16679,456;  333,362;34763,209;47,47652
 588,28;16631,748;  320,363;34823,468;47,27512
 588,86;16476,518;  312,964;35000,232;46,59794
 589,44;16536,863;  299,765;35002,445;46,78918
 590,02;16570,890;  311,965;35292,308;46,48017
 590,59;16560,404;  283,364;35307,920;46,47322
 591,17;16517,351;  275,567;35479,458;46,13633
 591,75;16560,957;  279,566;35627,726;46,06008
 592,33;16587,059;  292,366;35740,399;45,96784
 592,91;16622,126;  243,367;36020,216;45,78033
 593,49;16708,223;  253,767;36438,908;45,47296
 594,07;16618,852;  263,167;36604,270;45,00602
 594,65;16623,205;  294,964;36588,969;44,98881
 595,23;16673,343;  266,765;37001,975;44,66172
 595,81;16614,694;  254,965;37266,968;44,20114
 596,39;16624,040;  252,565;37293,740;44,19804
 596,97;16549,949;  251,967;37509,721;43,74387
 597,55;16523,984;  256,365;37318,563;43,89276
 598,12;16421,145;  237,968;37345,902;43,61110
 598,70;16342,400;  234,367;37422,990;43,31441
 599,28;16336,165;  257,567;37742,333;42,89369
 599,86;16246,802;  238,367;37792,313;42,62784
 600,44;16219,363;  205,967;37837,897;42,55268
 601,02;16155,679;  252,969;37871,236;42,27390
 601,60;15998,042;  247,766;38017,964;41,70027
 602,18;15978,227;  211,768;37952,129;41,77612
 602,75;15881,028;  231,365;37897,901;41,54792
 603,33;15698,913;  238,167;37944,028;41,00356
 603,91;15675,718;  235,169;37847,926;41,05136
 604,49;15621,637;  240,167;37988,858;40,74703
 605,07;15550,032;  267,166;37989,735;40,51385
 605,65;15573,148;  275,568;38103,299;40,44012
 606,23;15477,888;  313,964;38417,871;39,79624
 606,80;15358,280;  387,765;38345,005;39,44047
 607,38;15316,370;  416,568;38379,543;39,24825
 607,96;15235,052;  473,965;38471,967;38,84701
 608,54;15169,685;  556,368;38527,803;38,48503
 609,12;15033,045;  539,765;38612,748;38,06710
 609,70;15072,666;  566,567;38558,532;38,18202
 610,27;15003,176;  583,965;38723,908;37,80606
 610,85;14936,497;  613,567;38653,055;37,65279
 611,43;14684,097;  590,967;38701,742;36,97938
 612,01;14597,693;  553,366;38429,382;37,07974
 612,59;14549,221;  558,967;38572,284;36,80356
 613,16;14479,493;  545,364;38430,980;36,77947
 613,74;14267,821;  498,767;38313,171;36,41219
 614,32;14127,535;  441,568;38356,385;36,09662
 614,90;14067,020;  421,966;37970,909;36,33938
 615,48;13775,144;  377,365;37840,010;35,76304
 616,05;13675,977;  335,764;37790,131;35,61724
 616,63;13613,096;  347,564;37695,651;35,51864
 617,21;13459,444;  318,965;37566,661;35,27864
 617,79;13339,536;  321,566;37422,331;35,08815
 618,36;13186,427;  317,366;37454,440;34,65287
 618,94;13005,147;  270,365;37060,621;34,61455
 619,52;12910,452;  298,764;36965,252;34,39568
 620,10;12823,844;  269,565;36874,987;34,29623
 620,67;12674,290;  287,364;36807,394;33,91817
 621,25;12591,025;  299,566;36373,517;34,07295
 621,83;12458,878;  292,565;36417,269;33,67865
 622,41;12451,708;  318,765;36510,592;33,52399
 622,98;12209,012;  307,364;36334,213;33,03550
 623,56;12178,336;  305,963;36379,316;32,91175
 624,14;11990,318;  258,167;36056,749;32,77267
 624,72;11906,239;  273,565;36110,078;32,46040
 625,29;11912,958;  252,364;35955,259;32,66008
 625,87;11829,570;  300,966;36094,026;32,20905
 626,45;11693,685;  257,563;35941,085;32,04875
 627,02;11537,362;  266,766;35895,646;31,63331
 627,60;11462,278;  251,167;35822,259;31,51748
 628,18;11375,759;  244,365;35763,548;31,33910
 628,76;11350,249;  246,764;35870,280;31,16898
 629,33;11206,687;  269,364;35839,123;30,74894
 629,91;11237,987;  268,565;35889,587;30,79480
 630,49;11131,750;  276,764;35956,892;30,42306
 631,06;11096,074;  277,964;36097,795;30,20146
 631,64;11035,351;  279,563;36138,753;29,99451
 632,22;10859,416;  229,363;35886,519;29,81184
 632,79;10962,324;  236,363;36219,263;29,80850
 633,37;10887,652;  241,966;36164,868;29,63482
 633,95;10844,566;  254,963;36379,551;29,31411
 634,52;10763,297;  225,965;36519,239;29,03384
 635,10;10701,110;  237,565;36531,728;28,82983
 635,68;10671,291;  223,963;36626,567;28,69940
 636,25;10671,620;  227,562;36805,065;28,55323
 636,83;10616,249;  202,364;36852,080;28,41464
 637,41;10633,211;  232,762;36929,937;28,34128
 637,98;10623,293;  240,162;37154,764;28,12744
 638,56;10554,296;  226,961;37210,748;27,92395
 639,13;10473,859;  212,564;37252,383;27,70342
 639,71;10499,016;  266,964;37549,434;27,44467
 640,29;10310,885;  211,964;37153,267;27,33775
 640,86;10289,555;  230,164;37489,945;26,99799
 641,44;10245,940;  211,764;37365,822;27,00694
 642,02;10229,324;  241,964;37456,499;26,83725
 642,59;10177,851;  209,564;37651,177;26,62355
 643,17; 9982,664;  215,764;37740,454;26,02793
 643,74;10011,334;  227,564;37589,132;26,18672
 644,32; 9907,433;  243,964;37598,009;25,86994
 644,89; 9813,103;  239,564;37716,287;25,54529
 645,47; 9821,058;  269,364;37663,564;25,54325
 646,05; 9727,871;  235,364;37667,042;25,35955
 646,62; 9612,684;  229,765;37442,319;25,21439
 647,20; 9636,211;  230,965;37713,197;25,09255
 647,77; 9475,881;  203,765;37561,474;24,81982
 648,35; 9358,551;  205,965;37397,551;24,60929
 648,92; 9299,935;  236,965;37432,229;24,36593
 649,50; 9275,748;  176,965;37285,506;24,51938
 650,08; 9151,990;  196,965;37310,984;24,12842
 650,65; 9130,231;  230,365;37572,261;23,83346
 651,23; 9289,473;  196,765;38502,139;23,73742
 651,80; 9434,286;  199,965;39424,016;23,54250
 652,38; 9435,956;  218,965;39698,694;23,34613
 652,95; 9527,197;  196,765;40069,171;23,40072
 653,53; 9497,581;  228,165;40138,648;23,22552
 654,10; 9516,680;  242,565;40354,726;23,12046
 654,68; 9428,493;  202,165;40204,403;23,06453
 655,25; 9329,877;  199,965;40496,681;22,65671
 655,83; 9268,119;  194,965;40659,958;22,42223
 656,40; 9318,931;  233,765;40666,636;22,46975
 656,98; 9218,887;  210,165;40604,713;22,30183
 657,55; 9098,986;  205,566;40348,391;22,15445
 658,13; 9067,513;  202,366;39910,468;22,32579
 658,70; 8954,040;  218,366;39739,745;22,10367
 659,28; 8657,282;  193,166;38768,623;21,94171
 659,85; 8406,666;  213,366;37923,300;21,72717
 660,43; 8371,622;  231,366;38173,578;21,45435
 661,00; 8299,577;  213,166;38140,655;21,32071
 661,58; 8338,676;  198,966;38531,533;21,23445
 662,15; 8301,774;  183,366;38548,410;21,16095
 662,73; 8349,159;  245,966;39044,488;20,88531
 663,30; 8340,400;  215,566;39303,365;20,78611
 663,88; 8355,642;  199,966;39299,442;20,85878
 664,45; 8285,455;  196,766;39619,720;20,51771
 665,03; 8350,125;  215,166;40113,397;20,38927
 665,60; 8432,223;  260,566;40505,075;20,30502
 666,17; 8372,179;  214,766;40460,152;20,26919
 666,75; 8372,563;  216,166;40839,830;20,07795
 667,32; 8414,090;  225,566;41222,107;19,97369
 667,90; 8408,332;  198,766;41635,185;19,81244
 668,47; 8505,859;  224,966;41620,662;20,00424
 669,05; 8414,958;  212,167;42125,139;19,57101
 669,62; 8357,056;  187,567;42222,417;19,43504
 670,19; 8343,012;  195,967;42072,294;19,45501
 670,77; 8386,253;  204,767;42438,372;19,37198
 671,34; 8332,638;  229,567;42484,249;19,17674
 671,92; 8299,593;  188,167;42555,727;19,14537
 672,49; 8319,406;  215,167;42680,604;19,08432
 673,06; 8201,076;  169,967;42731,482;18,86942
 673,64; 8289,032;  192,567;42741,559;19,02857
 674,21; 8227,416;  189,767;42651,636;18,92910
 674,79; 8255,086;  192,567;42965,714;18,84949
 675,36; 8255,185;  223,767;42944,591;18,79977
 675,93; 8166,855;  207,967;42904,469;18,64061
 676,51; 8127,382;  215,567;43098,746;18,44969
 677,08; 8103,338;  210,967;43232,024;18,34537
 677,65; 8091,436;  210,167;43365,901;18,26239
 678,23; 8054,106;  209,567;43610,179;18,07472
 678,80; 8058,634;  194,967;43687,256;18,08060
 679,38; 8027,018;  185,567;43810,733;17,97460
 679,95; 8030,259;  198,368;44029,211;17,86845
 680,52; 8075,501;  200,968;44211,488;17,89239
 681,10; 8106,456;  216,968;44679,566;17,74410
 681,67; 8103,555;  212,368;45044,843;17,60150
 682,24; 8073,796;  185,368;45052,921;17,58159
 682,82; 8115,466;  196,768;45621,998;17,43238
 683,39; 8172,279;  218,368;46011,476;17,36923
 683,96; 8175,807;  206,168;46193,953;17,32990
 684,54; 8161,762;  177,968;46633,031;17,18606
 685,11; 8321,289;  224,968;46853,308;17,36352
 685,68; 8308,388;  212,968;47257,785;17,20789
 686,25; 8256,915;  195,768;47467,063;17,05294
 686,83; 8356,157;  179,168;47447,340;17,29914
 687,40; 8260,255;  184,368;47926,018;16,91581
 687,97; 8378,497;  218,968;48281,895;16,97676
 688,55; 8377,881;  181,568;48410,373;16,99464
 689,12; 8297,122;  182,368;48523,650;16,78639
 689,69; 8321,935;  186,168;48757,928;16,74999
 690,26; 8318,177;  185,168;48923,805;16,68698
 690,84; 8298,418;  188,968;49088,882;16,58377
 691,41; 8264,231;  214,969;49135,360;16,45380
 691,98; 8389,758;  204,769;49439,637;16,62438
 692,56; 8306,142;  184,969;49458,515;16,48181
 693,13; 8344,384;  246,969;49461,192;16,45340
 693,70; 8322,197;  210,369;49672,870;16,39996
 694,27; 8298,438;  192,969;49684,347;16,37754
 694,84; 8308,965;  193,369;49844,425;16,34526
 695,42; 8384,064;  228,769;49975,702;16,39356
 695,99; 8353,877;  186,569;50355,379;16,27965
 696,56; 8288,690;  186,569;50230,457;16,19003
 697,13; 8436,503;  202,169;50660,334;16,31913
 697,71; 8382,458;  171,569;50584,612;16,28723
 698,28; 8442,700;  200,969;50862,089;16,26835
 698,85; 8396,227;  175,969;51010,167;16,17072
 699,42; 8434,326;  166,369;51064,844;16,24402
 699,99; 8493,996;  192,769;51126,522;16,29809
 700,57; 8552,951;  195,769;51344,599;16,33895
 701,14; 8458,907;  183,769;51441,476;16,14418
 701,71; 8519,006;  224,169;51729,554;16,10479
 702,28; 8484,533;  189,369;51685,431;16,10834
 702,85; 8448,060;  216,570;51676,309;15,99598
 703,43; 8538,873;  194,770;51904,386;16,13646
 704,00; 8538,543;  223,770;52188,864;16,00069
 704,57; 8502,499;  222,170;51968,341;16,00182
 705,14; 8561,597;  238,970;52528,019;15,91658
 705,71; 8566,696;  238,970;52596,096;15,90562
 706,28; 8514,794;  219,770;52301,373;15,92698
 706,86; 8557,607;  235,370;52719,051;15,85681
 707,43; 8597,420;  258,170;52483,928;15,96770
 708,00; 8579,376;  238,970;52641,806;15,91594
 708,57; 8503,617;  204,170;52481,083;15,87593
 709,14; 8581,716;  241,770;52773,961;15,87588
 709,71; 8607,957;  210,770;52768,438;15,97709
 710,28; 8619,627;  213,970;53039,716;15,91205
 710,86; 8670,297;  222,570;53179,193;15,95216
 711,43; 8715,539;  231,170;53178,870;16,02405
 712,00; 8663,494;  219,770;53330,348;15,89839
 712,57; 8763,307;  233,170;53295,225;16,07578
 713,14; 8776,835;  208,370;53449,903;16,09357
 713,71; 8870,505;  228,371;53334,380;16,27336
 714,28; 8805,317;  208,371;53302,258;16,19197
 714,85; 8744,559;  200,171;53229,935;16,11244
 715,42; 8813,657;  204,171;53233,813;16,23523
 716,00; 8897,899;  274,371;53582,890;16,17664
 716,57; 8875,855;  210,171;53702,167;16,19996
 717,14; 8892,953;  188,971;53671,045;16,27458
 717,71; 8861,052;  183,971;53611,322;16,24090
 718,28; 8918,293;  216,971;53832,000;16,22926
 718,85; 8916,249;  186,571;53962,077;16,23356
 719,42; 8990,062;  223,771;53933,555;16,32159
 719,99; 8928,589;  191,771;53690,232;16,33097
 720,56; 9026,830;  211,371;54167,910;16,33807
 721,13; 8963,786;  210,571;54121,387;16,23647
 721,70; 8991,885;  202,171;54006,865;16,33633
 722,27; 9008,840;  217,171;54134,942;16,30570
 722,84; 9143,511;  252,771;54232,419;16,47054
 723,41; 8993,323;  188,571;54242,497;16,28883
 723,98; 9101,279;  198,571;54586,774;16,36882
 724,55; 9130,235;  230,371;54513,652;16,39522
 725,12; 9090,905;  168,372;54409,729;16,44969
 725,69; 9202,146;  190,572;54631,407;16,55297
 726,27; 9233,388;  208,772;54839,084;16,51943
 726,84; 9309,343;  204,172;55140,362;16,57409
 727,41; 9333,156;  217,172;54813,639;16,69702
 727,98; 9368,684;  222,372;55353,716;16,59004
 728,55; 9423,925;  250,572;55086,394;16,72876
 729,12; 9415,024;  200,972;55243,871;16,73976
 729,69; 9489,122;  219,772;55415,549;16,79359
 730,26; 9562,506;  217,372;55694,226;16,84511
 730,82; 9516,462;  209,772;55473,904;16,84038
 731,39; 9547,418;  220,972;55566,181;16,85141
 731,96; 9660,088;  181,972;55957,259;16,99340
 732,53; 9805,187;  212,972;56028,336;17,18562
 733,10; 9801,285;  208,972;56151,813;17,14663
 733,67; 9901,098;  200,972;56541,291;17,21702
 734,24; 9795,339;  206,972;55959,168;17,19819
 734,81; 9879,581;  234,372;56280,646;17,20937
 735,38; 9836,251;  216,372;56038,923;17,23296
 735,95; 9833,492;  206,573;55793,401;17,31871
 736,52; 9944,877;  239,973;56073,078;17,38199
 737,09; 9835,261;  218,973;55695,556;17,33396
 737,66; 9968,217;  269,173;55913,033;17,43057
 738,23; 9985,030;  195,373;56021,110;17,53610
 738,80;10145,128;  237,773;56286,188;17,67642
 739,37;10146,512;  237,573;56592,065;17,58323
 739,94;10194,325;  213,573;56504,343;17,73071
 740,51;10305,281;  286,973;56571,020;17,79955
 741,07;10234,951;  199,373;56462,298;17,83693
 741,64;10370,907;  251,573;56792,775;17,89727
 742,21;10406,434;  215,973;56653,853;18,05607
 742,78;10338,961;  194,973;56474,130;18,02441
 743,35;10456,203;  214,173;56710,607;18,12863
 743,92;10557,730;  247,373;56925,485;18,19107
 744,49;10574,543;  237,973;56769,762;18,28453
 745,06;10579,213;  200,573;56655,440;18,38396
 745,63;10593,597;  189,373;56752,117;18,39413
 746,19;10675,981;  204,773;56975,195;18,44483
 746,76;10750,651;  210,973;56909,872;18,58886
 747,33;10769,464;  217,174;56688,150;18,68622
 747,90;10902,706;  227,974;57094,427;18,77158
 748,47;10948,661;  228,174;56888,104;18,92076
 749,04;11024,760;  228,574;56982,582;19,02277
 749,61;11116,573;  209,974;56797,859;19,27373
 750,17;11099,243;  212,374;56931,137;19,19448
 750,74;11112,198;  228,374;56910,214;19,20161
 751,31;11073,726;  194,174;56734,292;19,24218
 751,88;11162,539;  193,774;56596,569;19,44720
 752,45;11233,351;  213,974;56822,247;19,46602
 753,02;11227,164;  209,374;56688,524;19,50771
 753,58;11272,977;  193,974;56519,402;19,66963
 754,15;11381,790;  223,774;56777,479;19,72995
 754,72;11378,746;  193,574;56506,156;19,86265
 755,29;11359,416;  183,774;56333,834;19,90317
 755,86;11359,371;  222,374;56512,111;19,78513
 756,42;11482,899;  221,574;56376,989;20,05385
 756,99;11427,854;  191,974;56591,266;19,92202
 757,56;11464,810;  209,774;56331,544;20,05467
 758,13;11461,194;  176,174;56219,621;20,13620
 758,70;11538,864;  204,975;56289,899;20,20844
 759,26;11632,106;  198,175;56434,776;20,33183
 759,83;11684,633;  207,175;56603,453;20,35145
 760,40;11719,874;  204,575;56281,331;20,53489
 760,97;11717,830;  203,775;56472,208;20,46273
 761,53;11646,072;  192,375;56080,686;20,49390
 762,10;11745,313;  174,575;56038,363;20,71241
 762,67;11834,412;  221,575;56070,641;20,79325
 763,24;11713,939;  164,375;55565,118;20,84731
 763,80;11826,609;  199,575;55610,596;20,98325
 764,37;11851,707;  181,175;55604,673;21,05701
 764,94;11802,235;  178,175;55208,350;21,12306
 765,50;11909,190;  168,575;55191,628;21,33763
 766,07;12010,575;  210,375;55220,505;21,45096
 766,64;11906,959;  191,575;54901,983;21,41345
 767,21;11912,200;  189,975;54870,260;21,43775
 767,77;11937,442;  206,375;54707,338;21,52451
 768,34;12052,112;  210,775;54664,215;21,74580
 768,91;12009,353;  190,175;54295,093;21,84492
 769,47;12083,452;  192,376;54498,370;21,89643
 770,04;12114,836;  209,976;54468,247;21,94110
 770,61;12143,220;  187,176;54240,525;22,11897
 771,18;12163,462;  188,776;54080,402;22,21994
 771,74;12279,846;  210,576;54206,080;22,35236
 772,31;12231,802;  211,576;54057,757;22,32327
 772,88;12246,329;  178,176;53704,835;22,54606
 773,44;12222,571;  191,776;53520,312;22,55977
 774,01;12354,098;  189,776;53690,790;22,73662
 774,58;12330,482;  171,776;53432,467;22,82867
 775,14;12438,866;  184,376;53531,344;22,97130
 775,71;12411,679;  191,776;53402,422;22,96515
 776,27;12554,635;  233,976;53302,099;23,21668
 776,84;12700,734;  246,976;53488,977;23,39085
 777,41;12574,975;  207,976;53298,054;23,29437
 777,97;12578,216;  183,976;52923,332;23,50093
 778,54;12615,744;  206,176;53016,409;23,49841
 779,11;12615,128;  215,176;53045,287;23,47137
 779,67;12616,369;  192,776;52911,764;23,56569
 780,24;12722,896;  214,176;52651,841;23,85446
 780,80;12760,709;  222,577;52697,919;23,89338
 781,37;12796,808;  205,977;52485,196;24,08382
 781,94;12846,049;  194,577;52362,074;24,25164
 782,50;12811,148;  214,977;52273,751;24,19606
 783,07;12874,675;  247,977;52383,429;24,21903
 783,63;12922,917;  190,177;52079,106;24,53845
 784,20;12963,729;  232,777;52057,584;24,56536
 784,77;12958,542;  208,577;51928,461;24,65196
 785,33;12966,069;  187,177;51681,938;24,81591
 785,90;13026,025;  208,577;51654,016;24,91464
 786,46;13069,981;  222,377;51544,293;25,03337
 787,03;13056,508;  205,377;51364,371;25,11998
 787,59;13076,178;  209,177;51383,648;25,14340
 788,16;13139,848;  217,777;51273,726;25,30963
 788,73;13216,518;  223,577;50943,603;25,61698
 789,29;13256,902;  206,777;50617,081;25,88781
 789,86;13269,001;  211,977;50367,758;26,03294
 790,42;13254,528;  215,377;50497,636;25,93191
 790,99;13261,770;  224,977;50039,713;26,17055
 791,55;13262,440;  205,378;50188,990;26,12269
 792,12;13357,681;  231,378;50020,068;26,36403
 792,68;13357,637;  215,378;49785,745;26,51233
 793,25;13396,735;  217,578;49649,623;26,66116
 793,81;13305,977;  253,778;49135,900;26,70138
 794,38;13243,361;  193,378;49037,778;26,71746
 794,94;13358,460;  206,978;48908,855;27,00406
 795,51;13351,130;  218,978;48653,933;27,11296
 796,07;13323,371;  222,978;48389,010;27,19841
 796,64;13412,327;  246,778;48626,887;27,21273
 797,20;13329,997;  225,178;48034,365;27,41067
 797,77;13180,238;  201,978;47678,042;27,33643
 798,33;13251,480;  205,178;47540,320;27,56156
 798,90;13327,293;  246,378;47325,597;27,78490
 799,46;13194,963;  218,778;46887,675;27,80478
 800,03;13238,490;  210,378;46838,352;27,94055
 800,59;13144,303;  237,178;46681,230;27,79069
 801,15;13185,687;  239,978;46431,307;28,02627
 801,72;13149,357;  199,378;46248,184;28,12229
 802,28;13118,456;  240,778;45773,462;28,28227
 802,85;13118,269;  219,979;45820,939;28,28513
 803,41;12984,653;  207,179;45618,217;28,13738
 803,98;13001,323;  212,779;45104,294;28,48766
 804,54;12961,707;  228,979;44858,572;28,52979
 805,11;12969,663;  234,979;44625,249;28,68801
 805,67;12957,619;  240,379;44560,527;28,69404
 806,23;12893,717;  225,379;44110,804;28,86685
 806,80;12966,959;  243,379;44193,281;28,95019
 807,36;12983,343;  261,579;44025,959;29,06876
 807,93;12956,299;  239,779;43749,036;29,22716
 808,49;12880,969;  227,379;43464,914;29,26529
 809,05;12891,210;  210,779;43106,391;29,56114
 809,62;12966,023;  235,179;43062,269;29,72615
 810,18;12883,265;  228,779;43010,346;29,57929
 810,74;12854,220;  197,379;42687,824;29,78750
 811,31;12932,176;  216,579;42482,301;30,08489
 811,87;12931,132;  224,179;42432,978;30,10498
 812,44;12992,945;  258,979;42405,656;30,21345
 813,00;12919,615;  191,779;42067,533;30,39428
 813,56;12926,570;  243,779;42111,011;30,29288
 814,13;13063,669;  227,980;42001,088;30,72716
 814,69;13041,339;  229,380;41872,566;30,76604
 815,25;12959,580;  197,380;41443,443;30,94162
 815,82;12970,108;  234,380;41434,921;30,91155
 816,38;13036,920;  256,580;41108,398;31,28463
 816,94;12878,448;  230,780;40893,875;31,10355
 817,51;12960,689;  199,980;40628,753;31,56343
 818,07;12882,359;  213,380;40369,030;31,54968
 818,63;12877,886;  234,580;40002,908;31,79240
 819,20;12978,413;  236,180;40120,585;31,94791
 819,76;12840,083;  228,580;39577,863;32,05015
 820,32;12880,753;  245,380;39498,140;32,18977
 820,89;12869,995;  250,180;39362,218;32,26581
 821,45;12750,522;  210,580;39112,895;32,23444
 822,01;12799,049;  235,980;38901,573;32,49160
 822,57;12789,719;  232,780;38683,250;32,65744
 823,14;12756,246;  218,780;38618,327;32,65004
 823,70;12620,345;  216,780;38358,405;32,51976
 824,26;12727,586;  231,180;38082,482;33,01447
 824,82;12747,399;  225,781;37968,360;33,17637
 825,39;12625,355;  213,381;37732,437;33,08179
 825,95;12655,454;  237,781;37849,115;33,01577
 826,51;12573,695;  231,581;37278,792;33,31456
 827,08;12706,794;  271,781;37273,070;33,60697
 827,64;12593,035;  239,381;37244,347;33,38377
 828,20;12593,991;  216,581;36980,024;33,66771
 828,76;12624,661;  240,981;36879,502;33,79962
 829,32;12616,902;  245,581;36649,979;33,98304
 829,89;12614,715;  202,181;36605,657;34,09711
 830,45;12591,385;  208,181;36540,734;34,08294
 831,01;12606,055;  230,381;36315,412;34,29587
 831,57;12577,297;  233,181;36207,689;34,31351
 832,14;12785,109;  217,381;36185,367;34,94143
 832,70;12628,637;  208,181;35880,844;34,81785
 833,26;12670,307;  188,981;35790,321;35,05858
 833,82;12743,262;  222,181;35743,999;35,24899
 834,38;12729,504;  205,981;35722,676;35,26095
 834,95;12765,888;  211,581;35525,354;35,55074
 835,51;12692,272;  186,381;35588,031;35,32573
 836,07;12755,657;  222,182;35633,309;35,39417
 836,63;12871,184;  240,182;35589,986;35,73146
 837,19;12829,140;  231,582;35327,064;35,89510
 837,75;12791,667;  191,982;35086,541;36,10788
 838,32;12887,765;  236,782;35301,018;36,07945
 838,88;12912,293;  240,382;35185,096;36,26274
 839,44;13000,677;  203,782;34997,573;36,77925
 840,00;12944,633;  211,782;35115,651;36,47977
 840,56;12929,445;  215,182;34777,128;36,78689
 841,12;12895,973;  210,582;34765,406;36,71091
 841,68;12866,071;  193,182;34493,283;36,94709
 842,25;12911,598;  212,582;34672,761;36,85128
 842,81;12887,125;  203,782;34322,238;37,17444
 843,37;12963,081;  186,982;34411,115;37,33067
 843,93;12900,894;  219,182;34236,393;37,28028
 844,49;13019,278;  223,782;34377,670;37,46424
 845,05;12941,948;  191,582;34056,748;37,65039
 845,61;13102,761;  241,182;34182,225;37,89388
 846,17;13035,431;  207,782;34017,703;37,94049
 846,73;13107,101;  222,383;34085,180;38,04978
 847,29;13039,628;  202,783;33852,658;38,14827
 847,86;13115,156;  196,783;33641,935;38,62555
 848,42;13072,683;  190,383;33540,812;38,62709
 848,98;13149,067;  214,383;33519,890;38,83647
 849,54;13204,166;  204,183;33526,567;39,01276
 850,10;13119,979;  228,383;33345,045;38,92782
 850,66;13104,934;  184,783;33153,522;39,18910
 851,22;13073,604;  182,983;33056,000;39,21338
 851,78;13251,274;  239,983;33111,277;39,58253
 852,34;13141,516;  200,783;32939,555;39,52724
 852,90;13106,186;  212,183;32850,032;39,50629
 853,46;13082,713;  197,383;32641,709;39,71520
 854,02;13142,669;  213,983;32643,387;39,86717
 854,58;13069,482;  203,183;32336,464;40,04041
 855,14;13124,866;  186,583;32268,742;40,32859
 855,70;13011,964;  169,983;32086,819;40,23576
 856,26;13050,920;  216,383;31989,697;40,39408
 856,82;13103,876;  205,783;31857,374;40,75022
 857,38;13090,974;  224,383;31752,252;40,81022
 857,94;13054,073;  204,184;31631,129;40,88813
 858,50;13089,315;  220,984;31515,207;41,12047
 859,06;13112,127;  224,584;31482,284;41,22998
 859,62;13176,512;  213,384;31318,161;41,67568
 860,18;13092,039;  208,784;31074,239;41,74005
 860,74;13065,995;  168,984;30912,316;41,95059
 861,30;13055,379;  173,784;30831,794;42,01706
 861,86;13147,335;  221,584;30929,071;42,09316
 862,42;13135,433;  205,384;30590,949;42,55326
 862,98;13137,818;  225,784;30679,826;42,39842
 863,54;13086,059;  213,784;30401,504;42,64077
 864,10;13178,015;  199,384;30453,381;42,89890
 864,66;13062,256;  204,984;30147,458;42,93991
 865,22;13056,926;  204,984;30039,336;43,07766
 865,78;13021,882;  211,984;30028,813;42,96197
 866,34;13173,409;  201,784;29892,091;43,68976
 866,90;13136,508;  221,984;29758,968;43,72323
 867,45;13047,749;  222,184;29624,646;43,62072
 868,01;13050,991;  222,584;29528,523;43,77408
 868,57;13001,518;  194,184;29270,201;44,04776
 869,13;12984,331;  189,785;29094,678;44,26429
 869,69;12990,715;  202,185;29107,755;44,24244
 870,25;13011,242;  189,185;29104,833;44,34297
 870,81;13076,769;  215,785;28973,910;44,72122
 871,37;13068,296;  209,585;28797,588;44,97940
 871,93;13090,538;  224,185;28614,065;45,32021
 872,49;12925,208;  221,585;28385,943;45,10532
 873,04;12915,021;  200,185;28223,620;45,37215
 873,60;12944,976;  190,585;28096,698;45,70465
 874,16;12811,789;  210,585;28100,175;45,18247
 874,72;12837,646;  199,385;28028,775;45,41336
 875,28;12890,646;  209,785;27963,375;45,69089
 875,84;12859,504;  186,785;27807,375;45,88142
 876,40;12861,932;  206,985;27740,175;45,96252
 876,95;12980,932;  221,385;27739,775;46,36735
 877,51;12947,075;  255,785;27750,375;46,15923
 878,07;13052,932;  239,585;27763,975;46,55270
 878,63;13122,218;  218,585;27739,975;46,88583
 879,19;13187,789;  223,985;27668,175;47,23697
 879,75;13157,789;  217,185;27709,175;47,07045
 880,30;13259,218;  205,385;27794,575;47,31503
 880,86;13335,504;  255,185;27824,575;47,44508
 881,42;13376,504;  190,185;27869,775;47,63914
 881,98;13520,218;  224,585;28080,175;47,73057
 882,54;13632,789;  217,985;28017,575;48,25540
 883,09;13654,932;  226,985;28170,175;48,05445
 883,65;13790,932;  215,585;28300,375;48,33701
 884,21;13989,504;  239,585;28441,775;48,75479
 884,77;14083,218;  217,985;28552,975;48,93325
 885,32;14125,218;  211,185;28662,975;48,90389
 885,88;14278,361;  240,985;28801,975;49,14877
 886,44;14380,789;  212,785;28912,775;49,36589
 887,00;14412,932;  229,785;28898,775;49,47209
 887,56;14487,789;  221,785;29149,775;49,31557
 888,11;14531,932;  217,985;29168,175;49,44336
 888,67;14647,932;  240,185;29323,575;49,53944
 889,23;14711,361;  227,385;29229,775;49,94063
 889,79;14699,789;  208,785;29260,375;49,88025
 890,34;14748,646;  208,785;29149,575;50,24003
 890,90;14906,932;  250,985;29173,175;50,67371
 891,46;14854,075;  217,585;29233,975;50,44215
 892,01;14901,361;  240,585;29083,775;50,82925
 892,57;14769,218;  245,785;29088,775;50,35342
 893,13;14793,075;  226,185;28995,775;50,63294
 893,69;14806,932;  207,585;28903,575;50,87591
 894,24;14804,932;  218,185;28830,175;50,98124
 894,80;14818,932;  225,785;28553,575;51,51530
 895,36;14743,218;  207,385;28458,575;51,45211
 895,91;14693,789;  213,985;28280,375;51,59126
 896,47;14788,075;  230,185;28094,775;52,24513
 897,03;14651,075;  210,385;27903,775;52,14490
 897,58;14640,218;  217,785;27717,175;52,44637
 898,14;14600,218;  233,985;27673,575;52,35586
 898,70;14502,646;  197,385;27601,175;52,20176
 899,25;14647,646;  209,185;27406,375;53,08806
 899,81;14601,361;  238,185;27203,575;53,26523
 900,37;14383,646;  190,985;27044,375;52,85240
 900,92;14487,218;  220,185;26966,575;53,34190
 901,48;14482,932;  204,185;26834,575;53,61824
 902,03;14349,789;  199,385;26749,975;53,29601
 902,59;14467,504;  219,585;26734,975;53,73452
 903,15;14484,075;  242,585;26494,775;54,24877
 903,70;14384,504;  228,985;26272,975;54,35234
 904,26;14335,218;  195,185;26118,375;54,54588
 904,82;14409,646;  217,385;26110,975;54,80994
 905,37;14290,932;  215,585;26019,975;54,54633
 905,93;14360,075;  211,185;25899,975;55,07807
 906,48;14331,932;  230,185;25755,975;55,24510
 907,04;14354,932;  248,585;25767,175;55,27871
 907,60;14243,646;  205,985;25499,175;55,49977
 908,15;14291,075;  208,785;25448,375;55,79445
 908,71;14274,218;  251,385;25480,975;55,58090
 909,26;14210,361;  211,185;25169,375;56,09051
 909,82;14255,218;  237,185;25158,575;56,24900
 910,37;14217,504;  250,785;24900,975;56,65968
 910,93;14126,932;  206,785;24712,775;56,80304
 911,48;14030,789;  209,585;24621,375;56,61692
 912,04;14073,361;  203,585;24537,375;56,99801
 912,60;14122,646;  240,185;24691,775;56,77529
 913,15;14115,504;  233,585;24388,775;57,46971
 913,71;14085,789;  208,985;24185,975;57,87551
 914,26;14070,361;  207,785;24091,775;58,04129
 914,82;14038,504;  223,985;24053,375;57,97261
 915,37;13932,218;  209,785;23898,375;57,92845
 915,93;14097,504;  278,185;23892,775;58,52026
 916,48;13924,218;  215,785;23672,775;58,44072
 917,04;13903,504;  232,185;23553,975;58,62037
 917,59;13908,932;  251,985;23506,375;58,72847
 918,15;13773,646;  172,985;23242,175;58,95596
 918,70;13876,504;  194,585;23323,175;59,15587
 919,26;13869,646;  225,985;23132,575;59,56217
 919,81;13822,646;  191,385;23044,175;59,64813
 920,37;13856,504;  209,585;22783,375;60,45471
 920,92;13785,789;  215,385;22795,975;60,09765
 921,48;13654,361;  200,185;22586,375;60,10034
 922,03;13637,789;  214,985;22528,375;60,15583
 922,59;13686,646;  224,785;22401,375;60,70303
 923,14;13541,646;  210,185;22325,175;60,28247
 923,69;13558,075;  224,585;22390,575;60,15292
 924,25;13641,504;  234,585;22114,975;61,27367
 924,80;13493,932;  219,585;21933,575;61,13269
 925,36;13552,361;  216,585;21980,375;61,27506
 925,91;13461,218;  213,985;21765,175;61,46868
 926,47;13400,789;  192,985;21704,975;61,39741
 927,02;13483,218;  246,185;21669,975;61,78661
 927,57;13398,932;  217,385;21431,775;62,13493
 928,13;13359,646;  215,385;21399,175;62,04868
 928,68;13348,218;  214,385;21298,775;62,29174
 929,24;13221,218;  194,985;21056,975;62,44003
 929,79;13215,075;  195,185;20994,175;62,59866
 930,34;13239,646;  220,985;20909,175;62,92799
 930,90;13168,075;  200,585;20822,575;62,88186
 931,45;13243,218;  208,985;20760,775;63,42140
 932,01;13209,218;  226,985;20826,175;63,02303
 932,56;13139,646;  236,785;20657,975;63,18369
 933,11;13113,218;  224,785;20495,575;63,58131
 933,67;13108,789;  218,985;20367,175;63,97500
 934,22;13002,646;  224,385;20302,375;63,64313
 934,77;12989,646;  223,585;20152,375;64,05839
 935,33;12959,218;  228,985;20031,775;64,28505
 935,88;12881,361;  228,585;20037,175;63,87520
 936,43;12913,932;  224,785;19867,775;64,59886
 936,99;12874,218;  203,985;19779,775;64,72399
 937,54;12756,789;  199,385;19705,575;64,37651
 938,09;12764,504;  214,385;19494,375;65,09401
 938,65;12729,075;  212,785;19343,175;65,42621
 939,20;12711,646;  194,585;19422,175;65,09948
 939,75;12660,504;  197,185;19246,375;65,42703
 940,31;12636,789;  193,785;19051,175;65,98476
 940,86;12749,218;  203,585;19200,975;66,03872
 941,41;12626,789;  264,985;19011,775;65,94091
 941,96;12548,504;  207,185;18855,975;66,17758
 942,52;12480,504;  216,385;18838,175;65,85897
 943,07;12507,646;  193,785;18730,975;66,42788
 943,62;12436,932;  201,585;18591,975;66,53120
 944,18;12449,504;  190,585;18531,975;66,83746
 944,73;12425,789;  216,785;18403,975;67,12969
 945,28;12283,932;  181,185;18284,575;66,85349
 945,83;12365,218;  223,385;18173,575;67,64181
 946,39;12341,504;  203,785;18154,575;67,61663
 946,94;12332,361;  234,985;18027,775;67,99032
 947,49;12297,218;  214,585;17934,375;68,18722
 948,04;12262,646;  227,185;17990,975;67,75278
 948,59;12291,361;  229,785;17823,975;68,55431
 949,15;12140,932;  196,785;17696,575;68,25309
 949,70;12162,218;  213,385;17583,375;68,79010
 950,25;12103,075;  231,785;17544,775;68,56869
 950,80;12113,932;  187,385;17522,775;68,79884
 951,36;12070,504;  180,985;17437,175;68,90002
 951,91;12051,932;  211,785;17414,175;68,82850
 952,46;12019,361;  181,585;17155,375;69,74150
 953,01;12067,504;  215,185;17166,975;69,91780
 953,56;11951,075;  186,385;17089,975;69,59877
 954,11;11987,361;  231,985;17015,775;70,04005
 954,67;11845,504;  204,985;16958,175;69,48240
 955,22;11859,932;  188,985;16687,775;70,73820
 955,77;11907,789;  234,585;16719,375;70,81197
 956,32;11796,361;  251,185;16646,375;70,41807
 956,87;11757,504;  206,385;16472,775;71,01218
 957,42;11745,218;  206,985;16494,775;70,83977
 957,98;11708,218;  201,785;16257,375;71,66621
 958,53;11749,361;  224,385;16301,175;71,68705
 959,08;11675,789;  190,785;16218,575;71,65682
 959,63;11689,646;  190,585;16122,175;72,17774
 960,18;11621,075;  217,185;16053,375;72,01158
 960,73;11648,361;  208,985;15932,375;72,75388
 961,28;11611,361;  200,785;15844,375;72,94090
 961,83;11557,218;  216,385;15855,775;72,51455
 962,39;11573,932;  200,185;15688,175;73,43591
 962,94;11614,646;  215,585;15571,575;74,23202
 963,49;11413,075;  209,785;15532,375;73,11616
 964,04;11496,789;  214,985;15423,175;74,18243
 964,59;11488,218;  203,585;15309,575;74,70303
 965,14;11407,504;  214,785;15274,375;74,32286
 965,69;11332,504;  195,585;15175,975;74,34332
 966,24;11305,646;  189,785;15058,575;74,75969
 966,79;11353,932;  215,585;14974,175;75,47027
 967,34;11193,075;  191,185;14867,575;74,96319
 967,89;11161,504;  211,985;14773,375;75,19556
 968,44;11097,932;  219,585;14791,175;74,65450
 968,99;11095,789;  226,785;14619,175;75,51911
 969,55;11011,932;  220,985;14511,975;75,50874
 970,10;10948,932;  214,385;14446,775;75,42336
 970,65;10930,646;  227,385;14262,975;76,25801
 971,20;10923,075;  199,185;14271,175;76,20735
 971,75;10799,361;  188,185;14090,175;76,32847
 972,30;10768,218;  217,785;14004,775;76,52456
 972,85;10700,504;  203,585;14013,975;76,00740
 973,40;10572,218;  203,185;13823,575;76,12875
 973,95;10595,789;  220,985;13810,175;76,34601
 974,50;10598,646;  241,385;13734,375;76,76031
 975,05;10511,218;  215,785;13633,775;76,72858
 975,60;10439,789;  241,185;13571,975;76,50413
 976,15;10400,789;  211,385;13443,575;77,00467
 976,70;10397,218;  222,185;13370,975;77,38380
 977,25;10367,504;  211,985;13416,975;76,90667
 977,80;10297,932;  195,985;13126,975;78,12199
 978,35;10171,361;  211,985;13055,175;77,54597
 978,89;10161,789;  199,385;12930,375;78,25318
 979,44;10157,075;  217,785;12903,375;78,35103
 979,99;10088,361;  201,985;12765,375;78,69194
 980,54;10056,504;  228,185;12675,975;78,95633
 981,09;10022,932;  222,585;12618,175;79,06318
 981,64; 9946,646;  221,585;12389,575;79,92332
 982,19; 9914,361;  242,985;12345,775;79,91030
 982,74; 9786,789;  231,185;12263,975;79,41304
 983,29; 9770,218;  192,785;12115,775;80,32744
 983,84; 9700,361;  227,985;12057,575;80,07358
 984,39; 9715,789;  249,385;11963,175;80,81419
 984,94; 9513,361;  200,585;11862,975;79,85306
 985,49; 9482,504;  232,385;11793,175;80,01286
 986,03; 9419,504;  233,785;11663,975;80,36366
 986,58; 9338,932;  268,785;11628,175;79,84713
 987,13; 9248,932;  207,985;11411,575;80,69688
 987,68; 9200,504;  235,985;11312,375;80,93358
 988,23; 9203,789;  226,985;11250,175;81,43563
 988,78; 9101,646;  223,785;11109,775;81,55309
 989,33; 9022,504;  220,985;10968,775;81,89143
 989,88; 9009,361;  251,985;10965,975;81,73776
 990,42; 8881,504;  223,185;10787,175;81,96069
 990,97; 8755,646;  223,185;10681,175;81,58797
 991,52; 8783,646;  235,185;10688,575;81,77693
 992,07; 8747,789;  244,585;10498,775;82,92419
 992,62; 8644,932;  228,185;10449,775;82,34284
 993,17; 8627,218;  230,185;10255,775;83,75600
 993,71; 8591,646;  236,585;10236,375;83,55237
 994,26; 8439,218;  218,185;10051,175;83,60664
 994,81; 8470,075;  239,985;10001,575;84,31096
 995,36; 8311,504;  208,985; 9878,775;83,79208
 995,91; 8325,075;  227,185; 9840,775;84,23378
 996,45; 8234,075;  223,185; 9708,175;84,45860
 997,00; 8113,646;  208,785; 9556,175;84,56758
 997,55; 8125,218;  226,185; 9570,575;84,53235
 998,10; 8048,218;  235,785; 9334,575;85,86233
 998,65; 8083,218;  207,185; 9332,975;86,30522
 999,19; 7922,932;  234,585; 9289,775;84,90542
 999,74; 7882,075;  237,185; 9119,375;86,06988
1000,29; 7771,075;  247,185; 9050,575;85,46583
1000,84; 7705,218;  226,385; 8927,975;85,94789
1001,38; 7631,932;  225,985; 8722,975;87,15965
1001,93; 7619,218;  227,185; 8819,575;86,03000
1002,48; 7424,646;  213,185; 8628,775;85,69169
1003,03; 7475,075;  222,785; 8504,975;87,56488
1003,57; 7373,075;  232,985; 8453,975;86,85195
1004,12; 7327,075;  233,185; 8326,175;87,65475
1004,67; 7262,932;  223,985; 8297,175;87,18917
1005,22; 7127,789;  214,785; 8139,375;87,23485
1005,76; 7059,504;  212,585; 7986,175;88,07923
1006,31; 7028,789;  234,985; 7930,775;88,27949
1006,86; 6909,361;  221,985; 7767,575;88,62628
1007,40; 6805,504;  198,185; 7624,975;88,96601
1007,95; 6722,932;  230,385; 7621,375;87,84408
1008,50; 6679,646;  234,185; 7447,975;89,34917
1009,04; 6614,361;  218,385; 7419,175;88,82325
1009,59; 6497,218;  221,585; 7293,975;88,73426
1010,14; 6451,218;  215,585; 7124,575;90,25390
1010,68; 6313,218;  223,785; 7028,975;89,48219
1011,23; 6218,504;  189,385; 6898,975;89,85823
1011,78; 6170,646;  238,385; 6909,775;88,92092
1012,32; 6103,504;  221,385; 6682,575;91,03770
1012,87; 6099,361;  239,585; 6755,175;89,93469
1013,42; 5938,932;  212,185; 6570,975;90,06033
1013,96; 6015,218;  242,985; 6621,575;90,49387
1014,51; 5898,218;  182,185; 6500,175;90,47233
1015,06; 5907,361;  191,385; 6547,775;89,92487
1015,60; 5970,075;  264,385; 6593,375;90,15167
1016,15; 5901,789;  213,785; 6555,575;89,69083
1016,69; 5956,646;  226,585; 6498,375;91,36246
1017,24; 6006,646;  203,185; 6530,775;91,71677
1017,79; 6032,932;  249,985; 6580,175;91,35503
1018,33; 6010,361;  211,185; 6584,175;90,99615
1018,88; 6103,789;  248,185; 6615,975;91,95662
1019,42; 6108,789;  230,585; 6633,375;91,80692
1019,97; 6144,361;  199,585; 6670,375;91,87094
1020,51; 6207,075;  232,385; 6724,975;92,02321
1021,06; 6171,075;  201,185; 6703,975;91,80506
1021,61; 6146,218;  183,385; 6564,775;93,44097
1022,15; 6113,218;  170,385; 6554,375;93,08963
1022,70; 6173,932;  221,985; 6591,975;93,43731
1023,24; 6076,075;  185,985; 6595,975;91,88922
1023,79; 6049,361;  206,185; 6495,775;92,90233
1024,33; 5977,932;  206,185; 6476,975;92,04179
1024,88; 5934,504;  211,185; 6419,975;92,18090
1025,42; 5843,646;  214,785; 6222,175;93,69895
1025,97; 5792,218;  211,785; 6173,175;93,60959
1026,51; 5691,932;  175,985; 6033,175;94,17395
1027,06; 5643,504;  206,185; 6053,375;92,99028
1027,60; 5549,361;  205,585; 5935,175;93,26628
1028,15; 5524,361;  230,585; 5842,775;94,32638
1028,69; 5364,932;  196,985; 5694,375;94,00729
1029,24; 5327,646;  211,385; 5638,775;94,26744
1029,78; 5245,361;  208,385; 5525,175;94,73716
1030,33; 5161,075;  185,985; 5398,775;95,44006
1030,87; 5073,075;  212,385; 5365,775;94,32024
1031,42; 5038,075;  194,385; 5274,975;95,33716
1031,96; 4995,932;  216,985; 5209,175;95,72847
1032,51; 4945,218;  198,785; 5159,575;95,67897
1033,05; 4884,789;  216,785; 5094,375;95,70309
1033,60; 4746,932;  166,785; 4986,175;95,03583
1034,14; 4744,646;  200,185; 4900,775;96,67853
1034,69; 4682,218;  210,185; 4821,375;96,98219
1035,23; 4610,361;  205,985; 4730,975;97,33449
1035,77; 4578,646;  193,585; 4674,375;97,86358
1036,32; 4505,932;  169,185; 4629,175;97,23670
1036,86; 4458,361;  202,185; 4530,575;98,33161
1037,41; 4423,075;  219,585; 4518,575;97,77855
1037,95; 4363,361;  182,985; 4436,375;98,28339
1038,50; 4324,504;  194,985; 4351,775;99,34393
1039,04; 4290,075;  216,385; 4251,375;100,95911
1039,58; 4195,075;  195,985; 4206,575;99,71326
1040,13; 4192,932;  193,185; 4211,375;99,54102
1040,67; 4146,789;  232,985; 4143,575;100,08219
1041,21; 4063,361;  234,385; 4054,975;100,21949
1041,76; 3996,361;  189,585; 3998,975;99,93137
1042,30; 3984,932;  207,185; 3960,575;100,64894
1042,85; 3936,789;  205,185; 3900,775;100,97452
1043,39; 3872,646;  196,585; 3840,775;100,87458
1043,93; 3817,361;  213,185; 3768,575;101,37216
1044,48; 3753,504;  221,785; 3745,575;100,22500
1045,02; 3714,932;  194,985; 3677,575;101,07268
1045,56; 3720,646;  226,785; 3593,175;103,78659
1046,11; 3614,789;  209,985; 3566,175;101,44850
1046,65; 3620,504;  219,985; 3509,575;103,37211
1047,19; 3497,361;  187,785; 3480,975;100,49756
1047,74; 3496,789;  191,985; 3379,375;103,68371
1048,28; 3413,361;  214,785; 3427,975;99,54518
1048,82; 3415,932;  220,785; 3358,975;101,81497
1049,37; 3347,789;  215,385; 3284,775;102,05299
1049,91; 3285,361;  197,185; 3303,375;99,42005
1050,45; 3288,646;  224,985; 3245,375;101,43264
1050,99; 3223,504;  202,985; 3149,375;102,51591
1051,54; 3200,789;  207,185; 3100,375;103,47071
1052,08; 3160,932;  228,785; 3086,975;102,58755
1052,62; 3132,932;  223,985; 3023,975;103,89134
1053,16; 3047,075;  206,585; 2934,575;104,12392
1053,71; 3032,218;  218,585; 2966,975;102,37386
1054,25; 2992,932;  217,185; 2879,175;104,27339
1054,79; 2972,789;  222,585; 2843,975;104,91397
1055,33; 2879,646;  199,185; 2783,975;103,70132
1055,88; 2884,646;  232,185; 2776,975;104,23105
1056,42; 2841,789;  227,185; 2762,175;103,14062
1056,96; 2808,504;  234,585; 2692,975;104,69936
1057,50; 2758,075;  224,185; 2648,775;104,50798
1058,05; 2730,932;  222,785; 2621,975;104,54141
1058,59; 2688,361;  233,985; 2547,775;106,07599
1059,13; 2620,646;  201,585; 2473,175;106,49199
1059,67; 2600,789;  228,185; 2524,575;103,31887
1060,21; 2574,789;  215,385; 2451,775;105,50057
1060,76; 2543,932;  235,185; 2440,975;104,66759
1061,30; 2515,218;  244,385; 2377,175;106,47241
1061,84; 2495,646;  210,185; 2358,375;106,39010
1062,38; 2390,932;  199,585; 2303,775;104,14208
1062,92; 2443,075;  260,985; 2322,375;105,85527
1063,46; 2388,504;  242,585; 2245,575;107,13576
1064,01; 2353,932;  204,785; 2226,575;106,29923
1064,55; 2300,504;  229,585; 2221,575;103,96230
1065,09; 2245,932;  198,385; 2126,375;106,20113
1065,63; 2243,504;  230,785; 2131,775;105,87739
1066,17; 2235,361;  245,785; 2102,975;107,12828
1066,71; 2190,789;  231,785; 2098,775;104,92848
1067,25; 2152,218;  237,185; 2061,175;104,99141
1067,80; 2139,646;  238,385; 2045,975;105,18212
1068,34; 2166,361;  250,385; 2047,175;106,63326
1068,88; 2059,075;  217,585; 1981,175;104,41713
1069,42; 2095,646;  258,185; 1998,375;105,58970
1069,96; 2056,789;  225,385; 1939,175;106,86282
1070,50; 2062,075;  251,585; 1942,975;107,04155
1071,04; 2004,504;  203,185; 1908,175;105,64980
1071,58; 1964,932;  218,385; 1881,175;105,03714
1072,12; 1930,646;  218,785; 1812,975;107,38127
1072,66; 1929,789;  232,985; 1827,175;106,43677
1073,21; 1934,646;  235,985; 1839,175;105,95509
1073,75; 1903,361;  235,385; 1805,975;106,20058
1074,29; 1864,932;  240,585; 1778,575;105,61494
1074,83; 1878,075;  249,585; 1748,175;108,66815
1075,37; 1854,789;  243,785; 1726,975;108,61753
1075,91; 1823,218;  232,185; 1720,975;106,86751
1076,45; 1780,218;  228,385; 1687,775;106,33435
1076,99; 1769,075;  254,785; 1650,975;108,45873
1077,53; 1739,789;  222,185; 1646,575;106,54415
1078,07; 1735,361;  241,185; 1615,975;108,68392
1078,61; 1685,932;  218,785; 1609,375;105,50537
1079,15; 1670,361;  222,985; 1585,575;106,22239
1079,69; 1660,789;  223,985; 1549,175;108,42251
1080,23; 1646,932;  244,385; 1572,175;105,63019
1080,77; 1679,932;  246,985; 1569,375;108,36040
1081,31; 1617,646;  203,985; 1501,375;108,96195
1081,85; 1639,504;  245,185; 1514,175;109,87625
1082,39; 1581,789;  215,385; 1467,975;109,08632
1082,93; 1556,218;  210,785; 1449,975;108,57357
1083,47; 1529,789;  214,785; 1425,775;108,58919
1084,01; 1561,361;  250,185; 1426,975;111,41969
1084,55; 1511,218;  212,385; 1393,175;109,99694
1085,09; 1513,932;  242,585; 1387,375;111,05505
1085,63; 1507,789;  223,185; 1392,375;109,87130
1086,17; 1468,218;  220,585; 1358,775;109,61552
1086,71; 1447,646;  236,585; 1333,575;110,39858
1087,24; 1465,646;  248,585; 1347,175;110,78395
1087,78; 1427,361;  222,985; 1311,775;110,61598
1088,32; 1381,504;  213,785; 1278,575;109,66656
1088,86; 1416,218;  242,385; 1315,375;109,39830
1089,40; 1392,218;  219,785; 1272,175;111,40669
1089,94; 1357,361;  196,585; 1241,175;111,12261
1090,48; 1321,932;  226,985; 1241,775;107,89889
1091,02; 1325,075;  233,785; 1239,175;108,54395
1091,56; 1323,646;  234,985; 1212,175;111,40734
1092,10; 1274,932;  217,785; 1190,975;108,62700
1092,63; 1304,075;  248,985; 1209,575;109,83770
1093,17; 1288,218;  230,985; 1195,975;109,55894
1093,71; 1276,789;  227,385; 1151,775;113,52398
1094,25; 1278,361;  249,785; 1176,375;111,00656
1094,79; 1231,361;  247,785; 1129,175;111,59370
1095,33; 1232,504;  232,585; 1100,975;115,14626
1095,87; 1212,932;  230,985; 1142,375;107,74171
1096,40; 1173,504;  206,985; 1087,375;109,78300
1096,94; 1188,646;  238,785; 1072,575;113,92094
1097,48; 1178,075;  235,185; 1090,775;110,20349
1098,02; 1143,789;  210,785; 1066,575;109,02257
1098,56; 1125,075;  196,985;  999,175;115,69454
1099,10; 1104,646;  211,585;  999,375;113,36288
1099,63; 1085,932;  209,785; 1018,775;108,30136
1100,17; 1131,504;  244,185; 1028,775;113,09328
1100,71; 1118,218;  239,985; 1012,375;113,70329

