
Integration time [ms]: 130,000
Averaging Nr. [scans]: 7
Smoothing Nr. [pixels]: 0
Data measured with spectrometer [name]: 2009305U1
Wave   ;Sample   ;Dark     ;Reference;Reflectance
[nm]   ;[counts] ;[counts] ;[counts] ;[%]

 175,72;  208,435;  192,986;  201,498;181,51035
 176,32;  233,443;  222,384;  221,717; 0,00000
 176,92;  270,228;  241,385;  235,854; 0,00000
 177,52;  265,876;  259,786;  258,523; 0,00000
 178,12;  240,414;  246,984;  204,441; 0,00000
 178,72;  266,167;  250,783;  241,274; 0,00000
 179,32;  258,290;  247,384;  249,069;647,14277
 179,92;  255,582;  231,385;  239,762;288,84089
 180,52;  271,856;  244,988;  241,098; 0,00000
 181,12;  268,075;  248,385;  229,716; 0,00000
 181,73;  272,476;  272,585;  262,308; 0,00000
 182,33;  359,879;  306,387;  321,281;359,15003
 182,93;  270,978;  256,186;  256,932; 0,00000
 183,53;  238,436;  246,183;  223,624; 0,00000
 184,13;  243,993;  236,383;  230,131; 0,00000
 184,73;  279,206;  249,982;  256,507;447,91345
 185,33;  291,789;  234,768;  346,100;51,21733
 185,93;  274,085;  232,166;  351,877;35,01660
 186,53;  290,224;  241,967;  348,122;45,45863
 187,13;  311,237;  257,569;  394,908;39,07682
 187,73;  286,814;  220,566;  335,660;57,55951
 188,33;  282,919;  254,365;  362,824;26,32673
 188,93;  299,965;  244,562;  398,475;35,99638
 189,53;  283,484;  258,559;  392,476;18,61204
 190,13;  328,180;  283,155;  430,284;30,60250
 190,73;  280,829;  220,558;  363,114;42,27905
 191,34;  310,725;  253,561;  378,621;45,70912
 191,94;  278,502;  240,364;  345,758;36,18615
 192,54;  298,506;  245,370;  399,729;34,42386
 193,14;  303,305;  248,969;  381,307;41,05868
 193,74;  308,330;  249,968;  364,047;51,15880
 194,34;  294,109;  227,969;  353,891;52,52402
 194,94;  262,121;  218,569;  355,716;31,75566
 195,54;  242,321;  215,168;  334,977;22,66398
 196,14;  263,748;  221,569;  355,380;31,52133
 196,74;  261,518;  216,167;  336,993;37,53393
 197,34;  248,585;  188,971;  344,465;38,33864
 197,94;  277,013;  220,769;  365,195;38,94344
 198,54;  286,167;  238,769;  365,333;37,44943
 199,14;  262,219;  213,971;  370,842;30,75638
 199,74;  246,689;  202,971;  374,033;25,55673
 200,34;  233,693;  199,372;  356,968;21,77822
 200,94;  275,090;  232,170;  410,644;24,04833
 201,54;  267,550;  216,571;  406,478;26,84436
 202,14;  301,590;  231,172;  444,781;32,96572
 202,74;  274,575;  223,371;  453,508;22,24931
 203,34;  255,553;  184,573;  446,416;27,10784
 203,94;  230,226;  173,772;  465,735;19,33579
 204,54;  311,046;  229,569;  530,605;27,06564
 205,14;  276,494;  190,571;  533,994;25,01961
 205,74;  317,042;  239,373;  624,034;20,19142
 206,34;  284,538;  210,772;  632,343;17,49791
 206,94;  302,350;  212,972;  703,417;18,22382
 207,54;  278,710;  188,772;  726,418;16,72809
 208,14;  297,418;  196,172;  794,506;16,92131
 208,74;  319,666;  217,771;  891,670;15,12023
 209,34;  331,935;  210,171;  960,509;16,22788
 209,94;  362,414;  204,571; 1037,280;18,95528
 210,54;  373,188;  213,973; 1112,879;17,71217
 211,14;  370,617;  204,571; 1236,499;16,09079
 211,73;  374,231;  197,971; 1326,867;15,61352
 212,33;  413,192;  206,770; 1438,453;16,75930
 212,93;  426,012;  203,171; 1522,488;16,89062
 213,53;  387,279;  174,371; 1562,260;15,34040
 214,13;  419,595;  205,174; 1652,697;14,81295
 214,73;  419,733;  195,372; 1657,381;15,34605
 215,33;  396,557;  168,771; 1707,080;14,80750
 215,93;  439,081;  206,573; 1816,158;14,44522
 216,53;  418,347;  162,571; 1892,659;14,78400
 217,13;  461,648;  227,173; 2126,822;12,34309
 217,73;  468,164;  196,373; 2281,539;13,03449
 218,33;  451,007;  148,574; 2495,337;12,88723
 218,93;  492,529;  192,576; 2756,037;11,70111
 219,53;  536,334;  185,774; 3043,728;12,26612
 220,13;  519,382;  168,574; 3315,721;11,14684
 220,73;  567,782;  196,771; 3663,262;10,70278
 221,32;  610,095;  176,771; 4002,670;11,32606
 221,92;  655,390;  167,774; 4489,701;11,28237
 222,52;  666,992;  177,173; 4825,264;10,53807
 223,12;  713,259;  176,973; 5207,436;10,66077
 223,72;  757,586;  185,573; 5646,427;10,47479
 224,32;  780,588;  194,973; 5979,694;10,12348
 224,92;  792,425;  176,373; 6339,999; 9,99495
 225,52;  856,105;  191,372; 6688,408;10,23134
 226,12;  881,596;  188,373; 6945,384;10,25932
 226,72;  884,727;  156,572; 7238,269;10,28220
 227,31;  908,992;  154,172; 7537,973;10,22264
 227,91;  998,745;  179,172; 7960,806;10,53215
 228,51; 1020,012;  181,371; 8348,198;10,26887
 229,11; 1087,613;  177,972; 8762,344;10,59647
 229,71; 1110,521;  176,971; 9024,802;10,55118
 230,31; 1157,044;  169,774; 9523,192;10,55518
 230,91; 1202,339;  158,770; 9767,098;10,86108
 231,51; 1268,429;  158,573;10040,244;11,23146
 232,10; 1350,170;  173,574;10533,432;11,35726
 232,70; 1455,537;  168,769;10665,091;12,25923
 233,30; 1523,528;  186,173;11029,985;12,33289
 233,90; 1573,364;  172,773;11194,690;12,70733
 234,50; 1697,847;  170,773;11401,596;13,59717
 235,10; 1764,996;  166,173;11490,599;14,11836
 235,70; 1862,408;  186,972;11624,368;14,64875
 236,29; 2013,144;  179,571;11659,240;15,97235
 236,89; 2031,780;  160,370;11714,814;16,19645
 237,49; 2168,157;  180,372;11688,736;17,27252
 238,09; 2253,967;  182,372;11480,943;18,33501
 238,69; 2397,647;  195,970;11405,171;19,64170
 239,29; 2392,902;  172,372;11141,789;20,24292
 239,89; 2550,800;  182,770;10898,509;22,09862
 240,48; 2556,660;  159,372;10599,047;22,96324
 241,08; 2627,615;  180,972;10337,522;24,08931
 241,68; 2685,631;  189,772;10061,372;25,28323
 242,28; 2741,986;  164,373; 9819,061;26,69804
 242,88; 2848,636;  198,374; 9482,888;28,54498
 243,48; 2868,544;  203,372; 9250,746;29,45797
 244,07; 2910,724;  177,372; 9107,911;30,60680
 244,67; 2954,501;  195,772; 9009,487;31,30041
 245,27; 3017,803;  195,971; 8880,267;32,49350
 245,87; 3061,143;  209,373; 8777,534;33,28334
 246,47; 3121,681;  188,171; 8790,362;34,10189
 247,06; 3187,321;  173,372; 8816,141;34,87249
 247,66; 3271,540;  172,972; 8941,810;35,33613
 248,26; 3343,449;  208,171; 9026,468;35,55423
 248,86; 3435,335;  197,971; 9181,944;36,03488
 249,46; 3559,102;  165,373; 9444,253;36,57477
 250,05; 3656,720;  195,972; 9783,266;36,09724
 250,65; 3748,881;  149,571;10138,313;36,03367
 251,25; 3898,256;  171,372;10609,388;35,70491
 251,85; 4057,769;  159,770;11118,766;35,56895
 252,44; 4251,645;  132,971;11710,174;35,57573
 253,04; 4462,782;  197,371;12463,062;34,77514
 253,64; 4619,950;  163,171;13112,912;34,41597
 254,24; 4854,536;  193,572;13970,475;33,83173
 254,84; 5006,244;  183,973;14890,853;32,78922
 255,43; 5206,167;  191,571;15757,603;32,21499
 256,03; 5432,074;  183,971;16591,684;31,98559
 256,63; 5620,902;  198,570;17660,118;31,05298
 257,23; 5735,138;  169,170;18345,547;30,62199
 257,82; 5849,991;  190,769;19251,922;29,68982
 258,42; 5827,177;  152,769;19951,490;28,66048
 259,02; 5973,016;  194,171;20729,623;28,14082
 259,62; 5972,866;  163,369;21428,059;27,31992
 260,21; 5914,799;  194,771;21896,222;26,35781
 260,81; 5750,085;  172,972;22326,403;25,17494
 261,41; 5699,376;  167,369;22570,864;24,69261
 262,01; 5645,870;  206,768;23108,504;23,74974
 262,60; 5455,852;  168,170;23373,147;22,78684
 263,20; 5318,465;  156,371;23500,628;22,11291
 263,80; 5157,961;  205,368;23599,066;21,17063
 264,40; 4948,792;  160,968;23819,858;20,23689
 264,99; 4772,123;  182,368;23843,294;19,39803
 265,59; 4598,694;  167,567;24059,513;18,54653
 266,19; 4414,431;  146,568;24172,257;17,76375
 266,78; 4300,491;  210,768;24316,185;16,96599
 267,38; 4109,719;  183,967;24330,944;16,25774
 267,98; 3912,431;  157,568;24150,966;15,64957
 268,58; 3804,126;  184,567;24217,448;15,06086
 269,17; 3612,304;  164,966;24285,346;14,29222
 269,77; 3433,264;  198,370;24085,497;13,54242
 270,37; 3291,642;  147,368;23944,855;13,21263
 270,96; 3204,552;  207,769;23900,074;12,64876
 271,56; 3030,024;  182,770;23601,023;12,15827
 272,16; 2884,119;  177,569;23375,339;11,66728
 272,75; 2779,783;  187,969;23411,568;11,16026
 273,35; 2710,115;  190,969;23294,694;10,90363
 273,95; 2594,253;  185,769;23354,159;10,39556
 274,54; 2542,669;  158,572;23331,028;10,28849
 275,14; 2536,473;  192,569;23707,828; 9,96759
 275,74; 2453,293;  153,369;23879,482; 9,69364
 276,33; 2497,662;  203,970;24142,154; 9,58173
 276,93; 2526,979;  188,772;24583,858; 9,58475
 277,53; 2502,329;  192,571;25175,231; 9,24544
 278,12; 2531,457;  166,570;25657,758; 9,27727
 278,72; 2625,194;  205,171;26178,411; 9,31737
 279,32; 2609,774;  164,571;26753,991; 9,19615
 279,91; 2649,463;  171,371;27521,361; 9,06067
 280,51; 2766,401;  184,971;28009,765; 9,27745
 281,11; 2844,300;  196,371;28752,665; 9,27266
 281,70; 2863,848;  168,771;29039,102; 9,33511
 282,30; 2978,024;  164,370;29898,623; 9,46267
 282,90; 3079,707;  162,570;30314,080; 9,67493
 283,49; 3170,013;  190,569;30828,085; 9,72482
 284,09; 3329,602;  203,370;31190,426;10,08883
 284,69; 3413,130;  185,371;31498,658;10,30795
 285,28; 3554,275;  210,370;31942,235;10,53800
 285,88; 3673,374;  227,969;32156,996;10,79082
 286,47; 3759,094;  177,970;32188,289;11,18741
 287,07; 3934,447;  194,771;32347,001;11,63116
 287,67; 4110,402;  195,172;32354,546;12,17446
 288,26; 4265,813;  184,971;32405,315;12,66542
 288,86; 4437,061;  186,570;32495,769;13,15567
 289,46; 4714,975;  186,371;32680,542;13,93666
 290,05; 4943,215;  179,172;32626,997;14,68217
 290,65; 5268,929;  185,370;32941,526;15,51940
 291,24; 5657,734;  194,771;32878,468;16,71464
 291,84; 5939,045;  202,970;33219,118;17,37354
 292,44; 6275,282;  169,373;33300,709;18,42941
 293,03; 6720,153;  246,171;33547,421;19,44066
 293,63; 7025,829;  186,770;33615,584;20,45858
 294,22; 7379,881;  208,371;33698,513;21,41380
 294,82; 7745,007;  182,368;33743,792;22,53372
 295,41; 7931,562;  156,771;33498,702;23,31836
 296,01; 8226,779;  227,569;33383,433;24,12608
 296,61; 8542,540;  194,371;33207,630;25,28732
 297,20; 8658,485;  196,769;32826,653;25,93241
 297,80; 8899,515;  204,972;32694,780;26,76083
 298,39; 9008,341;  175,570;32287,366;27,50631
 298,99; 9273,144;  191,569;32103,970;28,45782
 299,58; 9495,888;  202,372;31960,897;29,26306
 300,18; 9653,594;  209,372;31811,026;29,88521
 300,78; 9775,331;  171,771;31484,299;30,67002
 301,37; 9935,742;  207,968;31547,997;31,03945
 301,97;10218,240;  187,571;31411,847;32,12458
 302,56;10317,552;  182,570;31378,165;32,48850
 303,16;10469,659;  154,770;31499,886;32,90749
 303,75;10679,977;  174,571;31460,900;33,57826
 304,35;10969,636;  188,573;31471,397;34,46320
 304,94;11153,169;  194,771;31687,381;34,79673
 305,54;11264,523;  187,371;31750,070;35,09571
 306,13;11461,443;  151,573;31621,627;35,93852
 306,73;11451,251;  159,173;31458,566;36,07763
 307,33;11678,727;  198,772;31266,869;36,95094
 307,92;11822,173;  181,971;31330,916;37,36949
 308,52;12167,709;  169,770;31983,457;37,71314
 309,11;12579,491;  176,969;32351,365;38,54780
 309,71;12723,309;  152,968;32616,552;38,72136
 310,30;12962,080;  174,971;32954,887;39,00898
 310,90;13295,937;  185,971;33262,687;39,63503
 311,49;13480,966;  183,771;33381,562;40,05446
 312,09;13671,186;  151,372;33501,122;40,53948
 312,68;13963,993;  211,971;33895,860;40,82671
 313,28;14110,173;  158,371;34163,316;41,02875
 313,87;14315,140;  155,571;34084,705;41,73277
 314,47;14494,924;  180,169;34410,101;41,81941
 315,06;14703,368;  167,171;34623,354;42,18748
 315,66;14836,186;  175,372;34781,722;42,36452
 316,25;14815,773;  155,370;34635,211;42,51877
 316,85;14933,238;  151,972;34745,960;42,72785
 317,44;15137,595;  158,569;34808,042;43,23017
 318,04;15114,442;  154,570;34964,575;42,97578
 318,63;15211,261;  152,173;34926,013;43,30580
 319,22;15329,163;  179,570;35223,088;43,23080
 319,82;15386,927;  169,770;35286,149;43,33350
 320,41;15343,827;  180,770;35143,517;43,36918
 321,01;15484,459;  184,572;35123,206;43,79074
 321,60;15517,856;  168,770;35341,283;43,63944
 322,20;15543,103;  157,971;35299,850;43,78005
 322,79;15572,521;  208,771;35313,402;43,76559
 323,39;15559,756;  169,373;35372,034;43,71937
 323,98;15538,952;  144,771;35282,670;43,81076
 324,58;15610,291;  178,970;35129,905;44,15138
 325,17;15498,713;  196,170;35027,392;43,93341
 325,76;15476,650;  188,171;34881,219;44,06784
 326,36;15239,714;  149,972;34539,463;43,87893
 326,95;15122,092;  188,371;34192,512;43,91736
 327,55;14898,150;  153,970;33899,863;43,69178
 328,14;14776,650;  170,972;33373,200;43,99005
 328,74;14572,368;  209,170;33084,174;43,69033
 329,33;14426,080;  182,972;32760,777;43,72028
 329,92;14208,707;  158,569;31966,499;44,17181
 330,52;13887,896;  188,172;31457,277;43,81233
 331,11;13634,724;  179,770;31131,730;43,47044
 331,71;13345,035;  183,571;30498,361;43,41598
 332,30;13153,598;  180,371;29967,981;43,55243
 332,89;12937,538;  211,371;29360,253;43,65919
 333,49;12668,246;  177,171;28810,559;43,62416
 334,08;12472,854;  185,570;28460,415;43,45659
 334,68;12160,600;  184,370;28111,558;42,88376
 335,27;12004,573;  194,572;27666,421;42,98947
 335,86;11919,724;  225,970;27437,330;42,97379
 336,46;11727,789;  194,772;27302,755;42,54472
 337,05;11588,132;  170,170;27101,835;42,39605
 337,65;11438,753;  161,970;26927,606;42,13157
 338,24;11433,635;  230,171;26958,727;41,91571
 338,83;11397,554;  214,371;26752,013;42,14083
 339,43;11351,560;  166,370;26752,745;42,07114
 340,02;11199,823;  181,970;26565,382;41,76053
 340,61;11209,358;  175,971;26737,307;41,53928
 341,21;11124,796;  207,170;26763,374;41,11140
 341,80;11096,691;  187,370;26798,720;40,99499
 342,40;11081,244;  194,772;26864,163;40,82010
 342,99;11157,824;  180,971;26944,253;41,01460
 343,58;11120,938;  176,772;27133,577;40,59890
 344,18;11157,929;  180,572;27216,597;40,60271
 344,77;11181,078;  173,570;27606,039;40,12584
 345,36;11204,950;  160,371;27912,912;39,79664
 345,96;11334,815;  210,972;28078,872;39,91633
 346,55;11378,257;  176,173;28447,768;39,62311
 347,14;11429,561;  160,972;28783,106;39,37019
 347,74;11495,736;  139,974;29189,920;39,09047
 348,33;11721,232;  191,974;29817,918;38,91609
 348,92;11884,756;  183,775;30549,105;38,53402
 349,52;11989,750;  156,174;30955,103;38,42204
 350,11;12030,943;  162,170;31210,819;38,22638
 350,70;12078,612;  172,171;31120,364;38,47217
 351,29;11774,899;  152,368;30924,689;37,76943
 351,89;11770,338;  179,969;30993,518;37,61452
 352,48;11647,438;  148,171;30885,421;37,41150
 353,07;11521,636;  183,172;30877,907;36,93944
 353,67;11471,044;  190,175;30820,573;36,82900
 354,26;11308,571;  178,172;30601,753;36,58478
 354,85;11167,412;  177,172;30468,703;36,28156
 355,45;11136,678;  147,370;30439,404;36,27788
 356,04;10900,913;  173,573;30375,327;35,51893
 356,63;10773,879;  206,771;30066,646;35,38899
 357,22;10648,611;  184,368;29905,512;35,20808
 357,82;10488,945;  187,968;29668,706;34,94138
 358,41;10395,852;  199,771;29572,438;34,71282
 359,00;10248,142;  163,770;29435,592;34,45078
 359,60;10164,339;  185,571;29456,479;34,09108
 360,19; 9992,803;  182,373;29120,338;33,90159
 360,78; 9796,875;  182,770;29146,310;33,19382
 361,37; 9595,345;  189,170;28916,701;32,74272
 361,97; 9550,728;  182,971;28635,265;32,92444
 362,56; 9366,177;  167,969;28360,780;32,62607
 363,15; 9232,496;  215,170;28158,481;32,27007
 363,74; 8997,833;  172,569;27752,539;31,99882
 364,34; 8782,519;  182,370;27352,554;31,65289
 364,93; 8579,736;  175,169;26963,065;31,37449
 365,52; 8281,295;  145,370;26728,130;30,60602
 366,11; 8170,724;  181,770;26167,240;30,74393
 366,71; 7928,448;  159,970;26022,688;30,03736
 367,30; 7799,643;  174,170;25559,416;30,03899
 367,89; 7626,217;  206,172;25401,865;29,44966
 368,48; 7479,487;  166,169;25075,721;29,35949
 369,07; 7270,041;  183,571;24633,164;28,98400
 369,67; 7102,817;  191,769;24284,979;28,68463
 370,26; 6985,981;  168,771;24087,545;28,50150
 370,85; 6806,714;  186,170;23838,483;27,99110
 371,44; 6727,237;  177,571;23618,579;27,94106
 372,03; 6559,672;  168,370;23337,002;27,58601
 372,63; 6356,144;  147,771;23093,550;27,05671
 373,22; 6257,784;  167,171;22783,439;26,93023
 373,81; 6099,989;  147,170;22461,635;26,67695
 374,40; 5990,946;  169,372;22139,047;26,49822
 374,99; 5853,301;  165,970;21953,443;26,10368
 375,59; 5694,526;  156,172;21667,828;25,74583
 376,18; 5677,252;  191,770;21468,872;25,78115
 376,77; 5509,790;  203,371;21364,952;25,07572
 377,36; 5463,825;  199,370;21278,940;24,97421
 377,95; 5287,531;  176,570;20936,669;24,61916
 378,55; 5232,888;  175,772;20880,606;24,42481
 379,14; 5153,672;  198,770;20761,892;24,09606
 379,73; 5096,900;  184,170;20648,651;24,00613
 380,32; 5059,024;  202,171;20712,913;23,67956
 380,91; 5002,173;  151,769;20583,445;23,73963
 381,50; 4932,361;  179,570;20550,771;23,33093
 382,10; 4887,596;  162,771;20394,913;23,35306
 382,69; 4803,070;  160,970;20364,549;22,97662
 383,28; 4763,405;  192,770;20401,829;22,61676
 383,87; 4651,241;  157,570;20188,334;22,43385
 384,46; 4631,038;  162,369;20195,735;22,30613
 385,05; 4589,779;  202,570;20207,523;21,93062
 385,64; 4555,295;  171,770;20158,440;21,93224
 386,24; 4520,812;  156,168;20099,553;21,88517
 386,83; 4511,758;  192,168;20144,447;21,64961
 387,42; 4487,378;  200,570;20295,621;21,33266
 388,01; 4514,578;  177,767;20546,811;21,29118
 388,60; 4540,520;  179,569;20726,841;21,22399
 389,19; 4562,157;  159,766;21010,611;21,11373
 389,78; 4598,530;  180,366;21128,927;21,09054
 390,37; 4697,160;  208,568;21641,549;20,94245
 390,96; 4644,740;  186,168;21815,620;20,61343
 391,56; 4667,772;  182,966;21914,379;20,63744
 392,15; 4684,534;  157,167;22239,463;20,50225
 392,74; 4694,394;  149,764;22406,546;20,41908
 393,33; 4771,126;  154,165;22663,977;20,51088
 393,92; 4853,614;  188,363;23131,835;20,33367
 394,51; 4825,482;  163,965;23327,444;20,12442
 395,10; 4894,395;  194,760;23569,872;20,10529
 395,69; 4896,443;  182,161;23573,066;20,15434
 396,28; 4888,950;  182,959;23658,331;20,04650
 396,87; 4936,429;  201,757;23993,409;19,90056
 397,46; 4979,290;  181,955;24041,473;20,10659
 398,06; 4994,817;  204,753;24189,344;19,97142
 398,65; 4984,412;  197,949;24189,052;19,95099
 399,24; 5082,815;  180,348;24500,131;20,15835
 399,83; 5009,349;  163,741;24445,460;19,95579
 400,42; 5086,937;  206,135;24512,385;20,08044
 401,01; 5103,396;  170,928;24724,112;20,08892
 401,60; 5069,772;  181,918;24816,096;19,84176
 402,19; 5089,610;  194,110;24662,362;20,00756
 402,78; 5139,978;  219,099;24613,473;20,17219
 403,37; 5075,204;  196,288;24505,274;20,07042
 403,96; 5054,765;  187,674;24293,776;20,19028
 404,55; 5045,371;  192,660;24133,732;20,26940
 405,14; 5014,041;  184,247;24038,022;20,24750
 405,73; 5066,437;  197,631;23981,267;20,47124
 406,32; 5079,655;  191,621;24101,578;20,44351
 406,91; 5031,825;  187,609;23737,316;20,57018
 407,50; 5059,249;  185,002;23539,545;20,87066
 408,09; 4974,653;  152,198;23115,950;21,00029
 408,68; 4967,131;  182,995;23193,869;20,79076
 409,27; 4959,291;  154,999;22857,262;21,16217
 409,86; 4992,075;  157,808;22774,037;21,37521
 410,45; 5001,426;  211,416;22694,697;21,30476
 411,04; 4999,004;  212,624;22573,806;21,40486
 411,63; 4973,053;  196,235;22229,067;21,68046
 412,22; 4954,790;  191,644;22057,939;21,78305
 412,81; 4936,449;  201,048;21784,907;21,93955
 413,40; 4911,993;  210,252;21438,664;22,14834
 413,99; 4901,562;  258,651;21227,216;22,14225
 414,58; 4789,016;  187,452;20694,737;22,43868
 415,17; 4766,776;  175,248;20501,298;22,58938
 415,76; 4806,947;  180,244;20395,432;22,88726
 416,35; 4796,469;  174,846;20161,732;23,12328
 416,94; 4817,349;  222,045;20313,714;22,87169
 417,53; 4840,975;  177,648;20493,672;22,95394
 418,12; 4890,429;  174,049;20614,393;23,07388
 418,71; 5042,567;  197,252;20941,732;23,35713
 419,30; 5064,547;  181,049;21012,852;23,44251
 419,89; 5173,019;  185,050;21163,001;23,77720
 420,48; 5317,333;  199,052;21489,970;24,03974
 421,07; 5343,203;  204,653;21596,176;24,02143
 421,66; 5344,145;  164,255;21538,096;24,23472
 422,25; 5385,853;  185,259;21534,257;24,35990
 422,84; 5409,356;  208,860;21487,749;24,43970
 423,43; 5410,420;  195,258;21191,232;24,83887
 424,02; 5448,432;  218,859;20971,837;25,19915
 424,60; 5386,796;  191,663;20564,538;25,50024
 425,19; 5301,889;  209,061;20305,406;25,34206
 425,78; 5389,321;  205,261;20207,342;25,91761
 426,37; 5369,829;  206,063;20111,059;25,94206
 426,96; 5376,871;  205,863;19945,049;26,19666
 427,55; 5366,609;  188,865;19762,574;26,45254
 428,14; 5356,373;  183,867;19519,125;26,75168
 428,73; 5371,000;  208,464;19341,737;26,98198
 429,32; 5413,672;  205,063;19425,276;27,09964
 429,91; 5499,287;  228,464;19418,805;27,46602
 430,50; 5482,708;  205,466;19183,005;27,80783
 431,08; 5478,822;  226,467;18999,311;27,97847
 431,67; 5497,844;  268,868;19016,987;27,89067
 432,26; 5458,771;  281,070;18905,633;27,80039
 432,85; 5498,622;  281,869;18476,831;28,67142
 433,44; 5429,826;  293,471;18078,520;28,88018
 434,03; 5320,183;  304,473;17738,947;28,76892
 434,62; 5260,267;  268,471;17308,235;29,29498
 435,21; 5200,442;  309,069;17213,975;28,93464
 435,79; 5209,290;  281,872;16934,179;29,59000
 436,38; 5193,860;  278,275;16896,072;29,58025
 436,97; 5222,672;  274,475;16729,837;30,07042
 437,56; 5263,180;  266,478;16623,825;30,54714
 438,15; 5231,553;  255,878;16496,161;30,63786
 438,74; 5300,253;  252,078;16499,268;31,07106
 439,33; 5359,561;  229,677;16456,341;31,61391
 439,91; 5391,394;  196,479;16520,581;31,82359
 440,50; 5420,580;  232,479;16621,240;31,65646
 441,09; 5515,593;  254,681;16749,826;31,89370
 441,68; 5597,271;  232,283;16730,041;32,51950
 442,27; 5603,267;  209,882;16687,816;32,73095
 442,86; 5610,953;  206,287;16651,772;32,86414
 443,44; 5685,775;  203,886;16753,004;33,12496
 444,03; 5769,486;  273,887;16791,849;33,27044
 444,62; 5729,475;  204,087;16619,601;33,65955
 445,21; 5732,282;  219,286;16471,340;33,92184
 445,80; 5733,374;  221,889;16363,863;34,14382
 446,39; 5758,173;  255,888;16196,422;34,51757
 446,97; 5640,485;  209,491;15841,813;34,74208
 447,56; 5634,417;  201,493;15706,886;35,03893
 448,15; 5632,719;  204,091;15505,975;35,47686
 448,74; 5556,733;  230,291;15290,758;35,36705
 449,33; 5521,554;  211,892;15142,083;35,56325
 449,91; 5472,890;  223,095;14894,015;35,78368
 450,50; 5439,188;  196,694;14714,040;36,11193
 451,09; 5484,234;  211,295;14708,166;36,37295
 451,68; 5502,934;  235,696;14536,163;36,83263
 452,26; 5486,431;  227,697;14402,943;37,09801
 452,85; 5463,124;  211,896;14299,357;37,27590
 453,44; 5505,219;  219,299;14312,838;37,50598
 454,03; 5507,932;  191,497;14305,367;37,66816
 454,61; 5531,906;  207,099;14368,230;37,60157
 455,20; 5638,567;  220,300;14521,704;37,88626
 455,79; 5653,943;  222,498;14447,995;38,18105
 456,38; 5746,137;  223,302;14552,908;38,54143
 456,97; 5784,240;  213,701;14622,094;38,66176
 457,55; 5827,518;  212,703;14558,695;39,13856
 458,14; 5872,468;  229,501;14553,453;39,39532
 458,73; 5896,777;  214,503;14483,287;39,82311
 459,31; 5945,728;  232,705;14529,387;39,96048
 459,90; 6036,506;  247,904;14600,360;40,33179
 460,49; 6081,384;  283,703;14696,165;40,22686
 461,08; 6074,122;  207,506;14867,089;40,01898
 461,66; 6228,339;  224,505;14888,910;40,94154
 462,25; 6271,840;  226,907;14940,115;41,08508
 462,84; 6319,523;  251,506;15011,281;41,11185
 463,43; 6323,315;  194,909;14974,511;41,46530
 464,01; 6367,678;  218,710;14995,271;41,61299
 464,60; 6373,895;  257,108;14803,201;42,05106
 465,19; 6290,473;  185,910;14720,475;42,00031
 465,77; 6361,542;  217,911;14554,854;42,85175
 466,36; 6364,040;  245,309;14525,559;42,84751
 466,95; 6267,187;  200,709;14226,494;43,25232
 467,53; 6130,766;  204,512;13914,149;43,22692
 468,12; 6093,536;  249,513;13740,122;43,31919
 468,71; 5955,324;  230,310;13415,162;43,42114
 469,29; 5918,704;  191,513;13187,353;44,06942
 469,88; 5872,412;  227,514;12883,731;44,60178
 470,47; 5962,901;  255,916;12949,820;44,95848
 471,06; 5871,158;  220,316;13005,744;44,19752
 471,64; 5971,272;  220,515;13189,379;44,34280
 472,23; 5952,996;  196,519;13015,701;44,90518
 472,81; 6017,457;  188,917;13223,040;44,71754
 473,40; 6111,079;  191,319;13326,682;45,06735
 473,99; 6295,528;  285,319;13423,177;45,74725
 474,57; 6303,679;  209,519;13701,757;45,16789
 475,16; 6454,749;  222,117;13824,843;45,81899
 475,75; 6502,528;  225,720;13942,558;45,75988
 476,33; 6557,899;  231,721;14015,988;45,89419
 476,92; 6650,880;  233,519;13987,799;46,65719
 477,51; 6717,725;  229,721;14118,754;46,71315
 478,09; 6730,909;  232,321;14143,545;46,71471
 478,68; 6725,276;  216,521;14012,349;47,17915
 479,27; 6803,632;  233,520;14178,435;47,11475
 479,85; 6767,315;  218,121;14165,872;46,95520
 480,44; 6901,837;  207,122;14306,392;47,48271
 481,02; 7547,124;  229,523;16077,972;46,17234
 481,61; 8540,349;  254,923;17850,264;47,08875
 482,20; 9236,461;  254,723;19118,411;47,61390
 482,78; 9675,812;  260,922;19733,161;48,35032
 483,37; 9864,381;  262,525;19948,568;48,77494
 483,95;10017,673;  295,325;20382,571;48,40060
 484,54;10215,519;  297,122;20576,671;48,90837
 485,13;10220,067;  258,327;20626,963;48,90725
 485,71;10169,700;  265,126;20428,959;49,12049
 486,30;10188,885;  288,926;20149,750;49,84667
 486,88;10052,514;  315,727;19817,991;49,92645
 487,47; 9733,429;  305,527;19173,432;49,96793
 488,05; 9326,676;  304,528;18210,999;50,38485
 488,64; 8756,925;  297,729;16839,124;51,13955
 489,23; 7873,407;  293,128;14766,050;52,37559
 489,81; 6699,914;  292,329;12721,186;51,55410
 490,40; 6265,266;  236,929;12197,408;50,40214
 490,98; 6152,563;  233,530;11871,146;50,86122
 491,57; 6100,349;  277,529;11845,499;50,33571
 492,15; 6091,567;  261,530;11813,481;50,46799
 492,74; 6046,260;  257,928;11767,515;50,29140
 493,32; 6037,989;  259,930;11624,078;50,84463
 493,91; 5993,834;  231,331;11482,743;51,21582
 494,50; 5998,939;  245,333;11400,981;51,57572
 495,08; 5949,937;  225,733;11356,514;51,42679
 495,67; 5951,290;  241,930;11337,151;51,45782
 496,25; 5916,549;  210,132;11263,524;51,62594
 496,84; 5900,441;  202,730;11298,531;51,35015
 497,42; 5921,711;  197,532;11106,042;52,47443
 498,01; 5912,538;  219,131;11139,496;52,13569
 498,59; 5821,398;  203,133;11065,034;51,72451
 499,18; 5827,021;  202,331;11012,202;52,03290
 499,76; 5858,601;  205,132;10907,562;52,82416
 500,35; 5754,980;  203,734;10683,262;52,97229
 500,93; 5737,597;  187,332;10677,317;52,91013
 501,52; 5744,203;  200,133;10557,596;53,52730
 502,10; 5720,467;  208,535;10546,594;53,31690
 502,69; 5661,074;  196,336;10400,362;53,55472
 503,27; 5588,910;  190,133;10262,506;53,59985
 503,86; 5510,486;  209,735;10065,112;53,78537
 504,44; 5462,337;  182,936;10030,290;53,61238
 505,03; 5372,919;  162,736; 9694,137;54,66335
 505,61; 5281,352;  192,536; 9702,182;53,51214
 506,19; 5254,826;  204,136; 9472,108;54,49617
 506,78; 5158,613;  172,338; 9340,713;54,38559
 507,36; 5081,039;  183,936; 9137,175;54,69644
 507,95; 4973,729;  181,139; 9036,995;54,11775
 508,53; 4942,551;  187,138; 8897,027;54,59786
 509,12; 4871,531;  199,738; 8754,622;54,60965
 509,70; 4776,334;  204,739; 8637,406;54,21292
 510,29; 4720,411;  205,340; 8415,965;54,99059
 510,87; 4635,387;  174,738; 8270,731;55,09700
 511,46; 4516,996;  177,338; 8086,477;54,86891
 512,04; 4409,860;  186,939; 7957,770;54,34323
 512,62; 4399,038;  196,138; 7778,868;55,42726
 513,21; 4294,525;  171,140; 7678,090;54,92757
 513,79; 4191,462;  197,143; 7549,188;54,32936
 514,38; 4127,730;  181,142; 7320,047;55,28283
 514,96; 4114,666;  209,742; 7281,093;55,22176
 515,54; 4065,116;  181,542; 7104,679;56,09558
 516,13; 3983,497;  186,942; 7021,976;55,54551
 516,71; 3902,466;  192,944; 6926,813;55,08753
 517,30; 3833,545;  181,145; 6826,840;54,95889
 517,88; 3790,452;  188,345; 6746,811;54,92301
 518,46; 3715,645;  170,545; 6594,672;55,18415
 519,05; 3715,475;  179,746; 6495,754;55,98044
 519,63; 3685,111;  191,345; 6542,018;55,01410
 520,22; 3662,467;  217,947; 6442,155;55,34070
 520,80; 3650,950;  187,147; 6364,261;56,07477
 521,38; 3659,662;  210,146; 6401,013;55,71943
 521,97; 3564,352;  200,348; 6282,943;55,30540
 522,55; 3646,606;  199,748; 6282,800;56,66330
 523,13; 3601,658;  179,949; 6301,529;55,89586
 523,72; 3569,551;  168,345; 6249,243;55,93264
 524,30; 3684,131;  211,950; 6385,078;56,24671
 524,89; 3673,406;  176,548; 6358,449;56,56605
 525,47; 3730,841;  200,750; 6540,633;55,68070
 526,05; 3806,375;  161,550; 6521,777;57,30653
 526,64; 3849,690;  201,551; 6660,943;56,47806
 527,22; 3955,361;  202,350; 6749,594;57,32199
 527,80; 4043,709;  216,751; 6871,971;57,50310
 528,39; 4091,781;  197,351; 6962,595;57,56526
 528,97; 4177,500;  197,551; 7113,440;57,54790
 529,55; 4268,965;  203,749; 7325,624;57,08069
 530,14; 4392,187;  207,752; 7528,922;57,15528
 530,72; 4480,113;  185,551; 7652,030;57,51789
 531,30; 4528,813;  177,752; 7705,828;57,79778
 531,89; 4620,649;  197,552; 7831,933;57,93655
 532,47; 4651,738;  228,752; 7901,317;57,64677
 533,05; 4705,239;  233,151; 8000,980;57,57192
 533,63; 4755,589;  227,153; 8024,404;58,07734
 534,22; 4732,049;  184,953; 8097,148;57,46947
 534,80; 4794,070;  208,154; 8130,623;57,88493
 535,38; 4933,469;  261,952; 8300,477;58,11411
 535,97; 4788,943;  217,952; 8189,603;57,34058
 536,55; 4841,706;  239,754; 8349,577;56,74540
 537,13; 4817,403;  259,552; 8289,256;56,76238
 537,71; 4829,063;  298,752; 8354,350;56,23805
 538,30; 4845,577;  324,553; 8330,979;56,46744
 538,88; 4897,946;  370,155; 8471,232;55,89123
 539,46; 5034,896;  409,954; 8696,680;55,81145
 540,05; 5076,735;  418,554; 8885,743;55,01449
 540,63; 5189,950;  489,755; 8987,277;55,31254
 541,21; 5253,412;  514,355; 9101,578;55,18731
 541,79; 5289,249;  550,155; 9207,482;54,74084
 542,38; 5438,395;  583,154; 9437,837;54,83247
 542,96; 5520,439;  595,756; 9546,966;55,01696
 543,54; 5652,083;  618,955; 9809,719;54,76289
 544,12; 5688,518;  575,756; 9945,922;54,56426
 544,70; 5768,421;  567,556; 9959,138;55,37794
 545,29; 5806,018;  575,354;10202,475;54,33259
 545,87; 5837,963;  539,155;10182,482;54,94792
 546,45; 5850,302;  494,954;10226,408;55,03133
 547,03; 5954,058;  481,555;10286,689;55,81263
 547,62; 5961,414;  445,155;10398,845;55,41924
 548,20; 6091,110;  442,556;10554,508;55,86018
 548,78; 6154,776;  423,559;10673,898;55,91246
 549,36; 6186,771;  378,158;10871,763;55,35384
 549,94; 6310,236;  338,556;10875,057;56,67612
 550,53; 6358,142;  337,358;11173,922;55,55990
 551,11; 6451,202;  320,159;11369,121;55,48977
 551,69; 6649,546;  321,158;11645,981;55,88067
 552,27; 6735,204;  263,357;11964,718;55,30850
 552,85; 6965,590;  262,159;12227,130;56,02546
 553,44; 7143,923;  260,958;12593,143;55,81302
 554,02; 7314,981;  280,559;12963,584;55,46328
 554,60; 7467,103;  217,759;13196,779;55,85432
 555,18; 7719,465;  271,558;13667,468;55,59837
 555,76; 7856,420;  251,559;13974,632;55,41660
 556,34; 8082,497;  240,560;14358,681;55,54518
 556,93; 8303,569;  228,358;14680,944;55,87381
 557,51; 8432,273;  209,960;14982,768;55,65843
 558,09; 8701,680;  232,158;15343,801;56,04633
 558,67; 8815,042;  236,761;15780,364;55,18850
 559,25; 8996,932;  255,961;15964,284;55,64547
 559,83; 9208,062;  221,562;16289,350;55,92867
 560,41; 9350,124;  221,760;16657,165;55,54085
 561,00; 9557,634;  218,961;17034,859;55,53478
 561,58; 9625,592;  214,160;17279,088;55,15073
 562,16; 9829,519;  211,959;17477,464;55,70390
 562,74;10004,440;  185,759;17965,327;55,22452
 563,32;10203,878;  200,362;18437,359;54,85287
 563,90;10472,052;  224,961;18787,212;55,20392
 564,48;10545,323;  225,160;19233,648;54,29239
 565,06;10960,294;  212,161;19645,953;55,30641
 565,65;11296,460;  215,363;20566,587;54,44929
 566,23;11667,522;  265,961;21284,202;54,24603
 566,81;11978,462;  220,561;21811,894;54,45658
 567,39;12532,833;  241,762;22814,523;54,45090
 567,97;12787,578;  243,961;23468,486;54,01022
 568,55;13291,938;  233,162;24299,977;54,26051
 569,13;13665,441;  208,961;24989,088;54,30351
 569,71;14121,335;  226,159;25929,073;54,06070
 570,29;14656,803;  262,958;26884,706;54,06799
 570,87;15036,055;  260,159;27621,986;54,00186
 571,45;15266,816;  260,561;28308,382;53,50239
 572,03;15494,715;  207,762;28687,954;53,67574
 572,61;15895,315;  205,562;29493,539;53,57063
 573,20;16150,642;  253,960;30196,149;53,09125
 573,78;16478,460;  237,562;30789,806;53,15779
 574,36;16727,648;  247,561;31220,242;53,20846
 574,94;16819,597;  271,162;31592,384;52,83457
 575,52;16913,614;  227,364;31876,615;52,72242
 576,10;17231,440;  291,163;32314,782;52,89932
 576,68;17419,827;  281,962;32978,611;52,41474
 577,26;17746,687;  282,765;33716,239;52,23484
 577,84;17957,926;  314,361;34175,662;52,10539
 578,42;18094,390;  332,563;34450,721;52,05975
 579,00;18017,613;  282,962;34449,854;51,90595
 579,58;18110,506;  314,963;34647,623;51,83270
 580,16;18058,384;  304,563;34683,208;51,64200
 580,74;18132,672;  320,163;35084,276;51,23821
 581,32;18136,448;  300,363;35042,672;51,33823
 581,90;17981,046;  308,963;35056,770;50,85813
 582,48;18048,680;  323,563;35155,656;50,88731
 583,06;18114,007;  327,563;35249,557;50,93193
 583,64;18014,005;  322,562;35423,889;50,40106
 584,22;17931,119;  320,164;35040,284;50,72262
 584,80;17762,452;  344,963;34743,607;50,63423
 585,38;17461,546;  333,160;34402,452;50,27515
 585,96;17424,607;  315,962;34409,142;50,18202
 586,54;17315,645;  351,964;34509,758;49,66269
 587,12;17425,401;  306,564;34596,659;49,92356
 587,70;17422,895;  333,362;34763,209;49,63581
 588,28;17245,931;  320,363;34823,468;49,05520
 588,86;17373,314;  312,964;35000,232;49,18332
 589,44;17318,842;  299,765;35002,445;49,04254
 590,02;17365,192;  311,965;35292,308;48,75088
 590,59;17366,879;  283,364;35307,920;48,77582
 591,17;17407,656;  275,567;35479,458;48,66533
 591,75;17426,741;  279,566;35627,726;48,50938
 592,33;17479,764;  292,366;35740,399;48,48618
 592,91;17521,456;  243,367;36020,216;48,29405
 593,49;17576,959;  253,767;36438,908;47,87377
 594,07;17702,050;  263,167;36604,270;47,98666
 594,65;17584,678;  294,964;36588,969;47,63793
 595,23;17754,405;  266,765;37001,975;47,60457
 595,81;17696,453;  254,965;37266,968;47,12387
 596,39;17738,292;  252,565;37293,740;47,20619
 596,97;17766,435;  251,967;37509,721;47,00892
 597,55;17663,012;  256,365;37318,563;46,96604
 598,12;17613,435;  237,968;37345,902;46,82413
 598,70;17604,226;  234,367;37422,990;46,70745
 599,28;17643,685;  257,567;37742,333;46,38182
 599,86;17616,122;  238,367;37792,313;46,27411
 600,44;17594,354;  205,967;37837,897;46,20647
 601,02;17559,786;  252,969;37871,236;46,00642
 601,60;17433,221;  247,766;38017,964;45,50004
 602,18;17420,597;  211,768;37952,129;45,59794
 602,75;17332,308;  231,365;37897,901;45,40089
 603,33;17364,849;  238,167;37944,028;45,42180
 603,91;17145,936;  235,169;37847,926;44,96019
 604,49;17188,228;  240,167;37988,858;44,89708
 605,07;17121,414;  267,166;37989,735;44,67948
 605,65;17055,286;  275,568;38103,299;44,35825
 606,23;17088,937;  313,964;38417,871;44,02429
 606,80;16959,287;  387,765;38345,005;43,65840
 607,38;16896,065;  416,568;38379,543;43,40939
 607,96;16910,950;  473,965;38471,967;43,25750
 608,54;16861,551;  556,368;38527,803;42,94066
 609,12;16760,461;  539,765;38612,748;42,60422
 609,70;16743,039;  566,567;38558,532;42,57867
 610,27;16665,763;  583,965;38723,908;42,16524
 610,85;16633,793;  613,567;38653,055;42,11473
 611,43;16555,787;  590,967;38701,742;41,89057
 612,01;16416,350;  553,366;38429,382;41,88134
 612,59;16366,600;  558,967;38572,284;41,58446
 613,16;16209,854;  545,364;38430,980;41,34680
 613,74;16042,737;  498,767;38313,171;41,10595
 614,32;15974,205;  441,568;38356,385;40,96720
 614,90;15823,613;  421,966;37970,909;41,01752
 615,48;15604,879;  377,365;37840,010;40,64719
 616,05;15458,198;  335,764;37790,131;40,37562
 616,63;15412,088;  347,564;37695,651;40,33546
 617,21;15243,182;  318,965;37566,661;40,06749
 617,79;15181,190;  321,566;37422,331;40,05207
 618,36;14982,965;  317,366;37454,440;39,49045
 618,94;14844,055;  270,365;37060,621;39,61291
 619,52;14630,448;  298,764;36965,252;39,08660
 620,10;14517,370;  269,565;36874,987;38,92266
 620,67;14500,405;  287,364;36807,394;38,91848
 621,25;14286,068;  299,566;36373,517;38,77175
 621,83;14159,208;  292,565;36417,269;38,38549
 622,41;14084,962;  318,765;36510,592;38,03676
 622,98;13913,036;  307,364;36334,213;37,76537
 623,56;13819,512;  305,963;36379,316;37,46131
 624,14;13758,453;  258,167;36056,749;37,71179
 624,72;13641,596;  273,565;36110,078;37,30282
 625,29;13579,543;  252,364;35955,259;37,32801
 625,87;13501,211;  300,966;36094,026;36,87934
 626,45;13294,345;  257,563;35941,085;36,53446
 627,02;13260,060;  266,766;35895,646;36,46843
 627,60;13036,731;  251,167;35822,259;35,94369
 628,18;13016,461;  244,365;35763,548;35,95830
 628,76;12976,038;  246,764;35870,280;35,73279
 629,33;12902,028;  269,364;35839,123;35,51518
 629,91;12790,227;  268,565;35889,587;35,15245
 630,49;12778,146;  276,764;35956,892;35,03738
 631,06;12636,622;  277,964;36097,795;34,50228
 631,64;12680,918;  279,563;36138,753;34,58348
 632,22;12511,601;  229,363;35886,519;34,44537
 632,79;12580,061;  236,363;36219,263;34,30434
 633,37;12472,697;  241,966;36164,868;34,04717
 633,95;12426,558;  254,963;36379,551;33,69338
 634,52;12415,830;  225,965;36519,239;33,58712
 635,10;12314,184;  237,565;36531,728;33,27427
 635,68;12291,754;  223,963;36626,567;33,15090
 636,25;12238,075;  227,562;36805,065;32,83579
 636,83;12266,181;  202,364;36852,080;32,91654
 637,41;12148,872;  232,762;36929,937;32,47146
 637,98;12242,319;  240,162;37154,764;32,51330
 638,56;12138,702;  226,961;37210,748;32,20801
 639,13;12072,657;  212,564;37252,383;32,01985
 639,71;12170,245;  266,964;37549,434;31,92729
 640,29;11923,396;  211,964;37153,267;31,70281
 640,86;11911,742;  230,164;37489,945;31,35171
 641,44;11842,516;  211,764;37365,822;31,30412
 642,02;11781,719;  241,964;37456,499;31,00873
 642,59;11771,351;  209,564;37651,177;30,87951
 643,17;11674,840;  215,764;37740,454;30,53743
 643,74;11618,328;  227,564;37589,132;30,48792
 644,32;11520,246;  243,964;37598,009;30,18758
 644,89;11479,878;  239,564;37716,287;29,99279
 645,47;11436,509;  269,364;37663,564;29,86331
 646,05;11351,569;  235,364;37667,042;29,69732
 646,62;11260,487;  229,765;37442,319;29,64248
 647,20;11223,833;  230,965;37713,197;29,32821
 647,77;11003,179;  203,765;37561,474;28,90813
 648,35;10937,668;  205,965;37397,551;28,85519
 648,92;10858,871;  236,965;37432,229;28,55715
 649,50;10798,217;  176,965;37285,506;28,62212
 650,08;10694,134;  196,965;37310,984;28,28357
 650,65;10595,766;  230,365;37572,261;27,75810
 651,23;10734,397;  196,765;38502,139;27,50954
 651,80;10938,458;  199,965;39424,016;27,37732
 652,38;10963,232;  218,965;39698,694;27,21464
 652,95;10951,292;  196,765;40069,171;26,97236
 653,53;10978,496;  228,165;40138,648;26,93611
 654,10;10913,556;  242,565;40354,726;26,60288
 654,68;10823,045;  202,165;40204,403;26,55071
 655,25;10812,391;  199,965;40496,681;26,33571
 655,83;10757,451;  194,965;40659,958;26,10277
 656,40;10746,940;  233,765;40666,636;26,00155
 656,98;10605,286;  210,165;40604,713;25,73397
 657,55;10544,917;  205,566;40348,391;25,75641
 658,13;10325,263;  202,366;39910,468;25,49328
 658,70;10241,895;  218,366;39739,745;25,36230
 659,28; 9946,098;  193,166;38768,623;25,28274
 659,85; 9621,158;  213,366;37923,300;24,94778
 660,43; 9566,361;  231,366;38173,578;24,60319
 661,00; 9508,850;  213,166;38140,655;24,50909
 661,58; 9565,625;  198,966;38531,533;24,43525
 662,15; 9533,399;  183,366;38548,410;24,37123
 662,73; 9578,317;  245,966;39044,488;24,05337
 663,30; 9535,948;  215,566;39303,365;23,84474
 663,88; 9454,723;  199,966;39299,442;23,66977
 664,45; 9470,926;  196,766;39619,720;23,52477
 665,03; 9518,701;  215,166;40113,397;23,31816
 665,60; 9648,189;  260,566;40505,075;23,32647
 666,17; 9523,964;  214,766;40460,152;23,13109
 666,75; 9528,596;  216,166;40839,830;22,92366
 667,32; 9512,084;  225,566;41222,107;22,65196
 667,90; 9534,287;  198,766;41635,185;22,52975
 668,47; 9554,919;  224,966;41620,662;22,53846
 669,05; 9521,265;  212,167;42125,139;22,21054
 669,62; 9485,754;  187,567;42222,417;22,12019
 670,19; 9447,528;  195,967;42072,294;22,09258
 670,77; 9445,874;  204,767;42438,372;21,88094
 671,34; 9348,220;  229,567;42484,249;21,58022
 671,92; 9370,852;  188,167;42555,727;21,67386
 672,49; 9239,341;  215,167;42680,604;21,25063
 673,06; 9296,830;  169,967;42731,482;21,44393
 673,64; 9153,176;  192,567;42741,559;21,05951
 674,21; 9127,236;  189,767;42651,636;21,04822
 674,79; 9104,439;  192,567;42965,714;20,83520
 675,36; 9037,499;  223,767;42944,591;20,63100
 675,93; 8973,560;  207,967;42904,469;20,53000
 676,51; 8885,763;  215,567;43098,746;20,21817
 677,08; 8867,966;  210,967;43232,024;20,12270
 677,65; 8863,312;  210,167;43365,901;20,05097
 678,23; 8810,086;  209,567;43610,179;19,81658
 678,80; 8778,575;  194,967;43687,256;19,73593
 679,38; 8634,921;  185,567;43810,733;19,36807
 679,95; 8735,267;  198,368;44029,211;19,47692
 680,52; 8696,327;  200,968;44211,488;19,30302
 681,10; 8765,816;  216,968;44679,566;19,22706
 681,67; 8702,733;  212,368;45044,843;18,93798
 682,24; 8724,508;  185,368;45052,921;19,03188
 682,82; 8751,425;  196,768;45621,998;18,83239
 683,39; 8837,771;  218,368;46011,476;18,82249
 683,96; 8798,260;  206,168;46193,953;18,68342
 684,54; 8802,892;  177,968;46633,031;18,56617
 685,11; 8767,381;  224,968;46853,308;18,32022
 685,68; 8779,727;  212,968;47257,785;18,20978
 686,25; 8736,644;  195,768;47467,063;18,06779
 686,83; 8717,419;  179,168;47447,340;18,06342
 687,40; 8736,336;  184,368;47926,018;17,91301
 687,97; 8831,110;  218,968;48281,895;17,91847
 688,55; 8684,314;  181,568;48410,373;17,63001
 689,12; 8733,660;  182,368;48523,650;17,68942
 689,69; 8714,577;  186,168;48757,928;17,55837
 690,26; 8632,780;  185,168;48923,805;17,33247
 690,84; 8655,412;  188,968;49088,882;17,31382
 691,41; 8700,329;  214,969;49135,360;17,34524
 691,98; 8675,389;  204,769;49439,637;17,20452
 692,56; 8552,164;  184,969;49458,515;16,98111
 693,13; 8635,653;  246,969;49461,192;17,04524
 693,70; 8532,570;  210,369;49672,870;16,82527
 694,27; 8449,773;  192,969;49684,347;16,68332
 694,84; 8435,976;  193,369;49844,425;16,60107
 695,42; 8468,608;  228,769;49975,702;16,56351
 695,99; 8418,954;  186,569;50355,379;16,40937
 696,56; 8331,157;  186,569;50230,457;16,27489
 697,13; 8358,074;  202,169;50660,334;16,16370
 697,71; 8306,278;  171,569;50584,612;16,13612
 698,28; 8269,052;  200,969;50862,089;15,92559
 698,85; 8264,541;  175,969;51010,167;15,91167
 699,42; 8192,887;  166,369;51064,844;15,76966
 699,99; 8235,233;  192,769;51126,522;15,79005
 700,57; 8160,007;  195,769;51344,599;15,57071
 701,14; 8132,210;  183,769;51441,476;15,50682
 701,71; 8094,128;  224,169;51729,554;15,27988
 702,28; 8082,331;  189,369;51685,431;15,32731
 702,85; 8037,963;  216,570;51676,309;15,19905
 703,43; 8035,594;  194,770;51904,386;15,16318
 704,00; 8004,797;  223,770;52188,864;14,97357
 704,57; 7962,572;  222,170;51968,341;14,95841
 705,14; 7968,204;  238,970;52528,019;14,78174
 705,71; 7955,978;  238,970;52596,096;14,73917
 706,28; 7946,181;  219,770;52301,373;14,83520
 706,86; 7859,527;  235,370;52719,051;14,52672
 707,43; 7835,159;  258,170;52483,928;14,50815
 708,00; 7786,648;  238,970;52641,806;14,40319
 708,57; 7727,565;  204,170;52481,083;14,39143
 709,14; 7737,340;  241,770;52773,961;14,26853
 709,71; 7719,114;  210,770;52768,438;14,28592
 710,28; 7715,032;  213,970;53039,716;14,19963
 710,86; 7675,663;  222,570;53179,193;14,07396
 711,43; 7718,295;  231,170;53178,870;14,14060
 712,00; 7573,069;  219,770;53330,348;13,84526
 712,57; 7600,987;  233,170;53295,225;13,88528
 713,14; 7606,333;  208,370;53449,903;13,89510
 713,71; 7583,393;  228,371;53334,380;13,84970
 714,28; 7551,310;  208,371;53302,258;13,83010
 714,85; 7494,514;  200,171;53229,935;13,75519
 715,42; 7429,145;  204,171;53233,813;13,62441
 716,00; 7520,920;  274,371;53582,890;13,59360
 716,57; 7441,409;  210,171;53702,167;13,51835
 717,14; 7423,897;  188,971;53671,045;13,52776
 717,71; 7376,529;  183,971;53611,322;13,46231
 718,28; 7369,446;  216,971;53832,000;13,34043
 718,85; 7284,507;  186,571;53962,077;13,19920
 719,42; 7334,567;  223,771;53933,555;13,23929
 719,99; 7282,770;  191,771;53690,232;13,25458
 720,56; 7277,259;  211,371;54167,910;13,09552
 721,13; 7255,176;  210,571;54121,387;13,06715
 721,70; 7209,951;  202,171;54006,865;13,02448
 722,27; 7173,154;  217,171;54134,942;12,90109
 722,84; 7208,786;  252,771;54232,419;12,88636
 723,41; 7122,560;  188,571;54242,497;12,82791
 723,98; 7094,906;  198,571;54586,774;12,67984
 724,55; 7072,966;  230,371;54513,652;12,60535
 725,12; 6990,598;  168,372;54409,729;12,57754
 725,69; 6969,944;  190,572;54631,407;12,45273
 726,27; 7036,861;  208,772;54839,084;12,49872
 726,84; 6976,922;  204,172;55140,362;12,32839
 727,41; 7026,839;  217,172;54813,639;12,47273
 727,98; 7058,471;  222,372;55353,716;12,39966
 728,55; 6997,817;  250,572;55086,394;12,30445
 729,12; 6936,591;  200,972;55243,871;12,23704
 729,69; 6955,937;  219,772;55415,549;12,20413
 730,26; 6947,997;  217,372;55694,226;12,13231
 730,82; 6926,200;  209,772;55473,904;12,15332
 731,39; 6923,404;  220,972;55566,181;12,11023
 731,96; 6939,750;  181,972;55957,259;12,11608
 732,53; 6923,667;  212,972;56028,336;12,02302
 733,10; 6887,727;  208,972;56151,813;11,93853
 733,67; 6931,359;  200,972;56541,291;11,94595
 734,24; 6835,419;  206,972;55959,168;11,88912
 734,81; 6915,622;  234,372;56280,646;11,92095
 735,38; 6873,682;  216,372;56038,923;11,92584
 735,95; 6891,600;  206,573;55793,401;12,02628
 736,52; 6779,089;  239,973;56073,078;11,71190
 737,09; 6822,720;  218,973;55695,556;11,90367
 737,66; 6836,923;  269,173;55913,033;11,80319
 738,23; 6761,698;  195,373;56021,110;11,76218
 738,80; 6863,473;  237,773;56286,188;11,82139
 739,37; 6858,533;  237,573;56592,065;11,74877
 739,94; 6838,593;  213,573;56504,343;11,76928
 740,51; 6884,796;  286,973;56571,020;11,72237
 741,07; 6879,285;  199,373;56462,298;11,87267
 741,64; 6784,774;  251,573;56792,775;11,55476
 742,21; 6805,120;  215,973;56653,853;11,67504
 742,78; 6713,323;  194,973;56474,130;11,58217
 743,35; 6779,097;  214,173;56710,607;11,62007
 743,92; 6859,015;  247,373;56925,485;11,66525
 744,49; 6826,789;  237,973;56769,762;11,65506
 745,06; 6727,992;  200,573;56655,440;11,56219
 745,63; 6747,767;  189,373;56752,117;11,59490
 746,19; 6717,113;  204,773;56975,195;11,47136
 746,76; 6735,030;  210,973;56909,872;11,50650
 747,33; 6735,805;  217,174;56688,150;11,54333
 747,90; 6764,008;  227,974;57094,427;11,49366
 748,47; 6715,068;  228,174;56888,104;11,44882
 749,04; 6780,986;  228,574;56982,582;11,54528
 749,61; 6729,189;  209,974;56797,859;11,52051
 750,17; 6759,535;  212,374;56931,137;11,54320
 750,74; 6723,738;  228,374;56910,214;11,45934
 751,31; 6694,798;  194,174;56734,292;11,49737
 751,88; 6668,287;  193,774;56596,569;11,47906
 752,45; 6704,776;  213,974;56822,247;11,46617
 753,02; 6679,264;  209,374;56688,524;11,45536
 753,58; 6699,896;  193,974;56519,402;11,55060
 754,15; 6700,528;  223,774;56777,479;11,45240
 754,72; 6668,159;  193,574;56506,156;11,49758
 755,29; 6655,363;  183,774;56333,834;11,52552
 755,86; 6709,994;  222,374;56512,111;11,52540
 756,42; 6700,197;  221,574;56376,989;11,53695
 756,99; 6644,400;  191,974;56591,266;11,44062
 757,56; 6684,175;  209,774;56331,544;11,53634
 758,13; 6662,092;  176,174;56219,621;11,57302
 758,70; 6715,724;  204,975;56289,899;11,60873
 759,26; 6727,927;  198,175;56434,776;11,61121
 759,83; 6730,130;  207,175;56603,453;11,56629
 760,40; 6720,191;  204,575;56281,331;11,61910
 760,97; 6673,394;  203,775;56472,208;11,49778
 761,53; 6692,025;  192,375;56080,686;11,62971
 762,10; 6690,943;  174,575;56038,363;11,66474
 762,67; 6702,289;  221,575;56070,641;11,60398
 763,24; 6617,492;  164,375;55565,118;11,64807
 763,80; 6644,981;  199,575;55610,596;11,63199
 764,37; 6659,327;  181,175;55604,673;11,68846
 764,94; 6585,101;  178,175;55208,350;11,64257
 765,50; 6603,733;  168,575;55191,628;11,69538
 766,07; 6644,936;  210,375;55220,505;11,69705
 766,64; 6625,425;  191,575;54901,983;11,75983
 767,21; 6552,628;  189,975;54870,260;11,63610
 767,77; 6605,831;  206,375;54707,338;11,74191
 768,34; 6598,748;  210,775;54664,215;11,73107
 768,91; 6629,951;  190,175;54295,093;11,90239
 769,47; 6651,012;  192,376;54498,370;11,89304
 770,04; 6619,929;  209,976;54468,247;11,81378
 770,61; 6603,989;  187,176;54240,525;11,87126
 771,18; 6593,192;  188,776;54080,402;11,88388
 771,74; 6585,681;  210,576;54206,080;11,80673
 772,31; 6601,456;  211,576;54057,757;11,86691
 772,88; 6599,659;  178,176;53704,835;11,99679
 773,44; 6499,291;  191,776;53520,312;11,82765
 774,01; 6592,065;  189,776;53690,790;11,96667
 774,58; 6629,554;  171,776;53432,467;12,12485
 775,14; 6553,471;  184,376;53531,344;11,93900
 775,71; 6545,246;  191,776;53402,422;11,94022
 776,27; 6644,735;  233,976;53302,099;12,08024
 776,84; 6666,081;  246,976;53488,977;12,05647
 777,41; 6661,855;  207,976;53298,054;12,15647
 777,97; 6610,773;  183,976;52923,332;12,18596
 778,54; 6638,261;  206,176;53016,409;12,17962
 779,11; 6669,893;  215,176;53045,287;12,21787
 779,67; 6613,096;  192,776;52911,764;12,17838
 780,24; 6668,299;  214,176;52651,841;12,30818
 780,80; 6722,217;  222,577;52697,919;12,38608
 781,37; 6683,420;  205,977;52485,196;12,39009
 781,94; 6666,766;  194,577;52362,074;12,40655
 782,50; 6707,397;  214,977;52273,751;12,47133
 783,07; 6722,315;  247,977;52383,429;12,41830
 783,63; 6691,089;  190,177;52079,106;12,52852
 784,20; 6722,721;  232,777;52057,584;12,52285
 784,77; 6705,638;  208,577;51928,461;12,56202
 785,33; 6662,127;  187,177;51681,938;12,57400
 785,90; 6789,616;  208,577;51654,016;12,79227
 786,46; 6770,676;  222,377;51544,293;12,75926
 787,03; 6801,165;  205,377;51364,371;12,89272
 787,59; 6807,225;  209,177;51383,648;12,89324
 788,16; 6798,857;  217,777;51273,726;12,88994
 788,73; 6800,917;  223,577;50943,603;12,96794
 789,29; 6780,120;  206,777;50617,081;13,03968
 789,86; 6833,895;  211,977;50367,758;13,20270
 790,42; 6881,955;  215,377;50497,636;13,25831
 790,99; 6815,015;  224,977;50039,713;13,22909
 791,55; 6879,218;  205,378;50188,990;13,35206
 792,12; 6883,850;  231,378;50020,068;13,36141
 792,68; 6876,196;  215,378;49785,745;13,43710
 793,25; 6848,542;  217,578;49649,623;13,41430
 793,81; 6900,031;  253,778;49135,900;13,59649
 794,38; 6811,377;  193,378;49037,778;13,54915
 794,94; 6869,866;  206,978;48908,855;13,68097
 795,51; 6888,212;  218,978;48653,933;13,76946
 796,07; 6778,272;  222,978;48389,010;13,60979
 796,64; 6860,761;  246,778;48626,887;13,67087
 797,20; 6839,678;  225,178;48034,365;13,83521
 797,77; 6747,453;  201,978;47678,042;13,78689
 798,33; 6740,227;  205,178;47540,320;13,80591
 798,90; 6842,430;  246,378;47325,597;14,01054
 799,46; 6759,348;  218,778;46887,675;14,01484
 800,03; 6778,837;  210,378;46838,352;14,08695
 800,59; 6761,754;  237,178;46681,230;14,04825
 801,15; 6813,386;  239,978;46431,307;14,23083
 801,72; 6716,589;  199,378;46248,184;14,15283
 802,28; 6807,078;  240,778;45773,462;14,42107
 802,85; 6775,709;  219,979;45820,939;14,37630
 803,41; 6748,198;  207,179;45618,217;14,40403
 803,98; 6750,973;  212,779;45104,294;14,56443
 804,54; 6753,604;  228,979;44858,572;14,61950
 805,11; 6706,093;  234,979;44625,249;14,57778
 805,67; 6720,868;  240,379;44560,527;14,62199
 806,23; 6692,642;  225,379;44110,804;14,73670
 806,80; 6747,417;  243,379;44193,281;14,79875
 807,36; 6793,905;  261,579;44025,959;14,92613
 807,93; 6743,680;  239,779;43749,036;14,94832
 808,49; 6690,740;  227,379;43464,914;14,94850
 809,05; 6678,515;  210,779;43106,391;15,07785
 809,62; 6714,575;  235,179;43062,269;15,12920
 810,18; 6751,778;  228,779;43010,346;15,24722
 810,74; 6741,267;  197,379;42687,824;15,40085
 811,31; 6715,756;  216,579;42482,301;15,37694
 811,87; 6753,530;  224,179;42432,978;15,46917
 812,44; 6828,876;  258,979;42405,656;15,58817
 813,00; 6741,651;  191,779;42067,533;15,64120
 813,56; 6854,140;  243,779;42111,011;15,78886
 814,13; 6848,200;  227,980;42001,088;15,84804
 814,69; 6815,260;  229,380;41872,566;15,81503
 815,25; 6795,177;  197,380;41443,443;15,99619
 815,82; 6846,809;  234,380;41434,921;16,04938
 816,38; 6845,727;  256,580;41108,398;16,12938
 816,94; 6786,358;  230,780;40893,875;16,12169
 817,51; 6770,418;  199,980;40628,753;16,25189
 818,07; 6776,764;  213,380;40369,030;16,34486
 818,63; 6761,396;  234,580;40002,908;16,41210
 819,20; 6772,028;  236,180;40120,585;16,38698
 819,76; 6767,231;  228,580;39577,863;16,61695
 820,32; 6845,577;  245,380;39498,140;16,81461
 820,89; 6787,351;  250,180;39362,218;16,71396
 821,45; 6725,269;  210,580;39112,895;16,74627
 822,01; 6716,758;  235,980;38901,573;16,76110
 822,57; 6790,675;  232,780;38683,250;17,05543
 823,14; 6714,735;  218,780;38618,327;16,91675
 823,70; 6779,510;  216,780;38358,405;17,20621
 824,26; 6747,856;  231,180;38082,482;17,21652
 824,82; 6760,630;  225,781;37968,360;17,31426
 825,39; 6676,691;  213,381;37732,437;17,22674
 825,95; 6769,751;  237,781;37849,115;17,36703
 826,51; 6711,382;  231,581;37278,792;17,49066
 827,08; 6780,300;  271,781;37273,070;17,58998
 827,64; 6774,646;  239,381;37244,347;17,66051
 828,20; 6787,420;  216,581;36980,024;17,87330
 828,76; 6831,909;  240,981;36879,502;17,98907
 829,32; 6833,255;  245,581;36649,979;18,09582
 829,89; 6789,458;  202,181;36605,657;18,09519
 830,45; 6855,233;  208,181;36540,734;18,29503
 831,01; 6805,293;  230,381;36315,412;18,22061
 831,57; 6848,210;  233,181;36207,689;18,38810
 832,14; 6854,556;  217,381;36185,367;18,45301
 832,70; 6809,759;  208,181;35880,844;18,50599
 833,26; 6851,534;  188,981;35790,321;18,71433
 833,82; 6854,023;  222,181;35743,999;18,66977
 834,38; 6914,655;  205,981;35722,676;18,88879
 834,95; 6884,286;  211,581;35525,354;18,89547
 835,51; 6890,204;  186,381;35588,031;18,93647
 836,07; 6992,978;  222,182;35633,309;19,12053
 836,63; 7032,896;  240,182;35589,986;19,21570
 837,19; 6984,813;  231,582;35327,064;19,24245
 837,75; 6929,016;  191,982;35086,541;19,30683
 838,32; 7048,648;  236,782;35301,018;19,42682
 838,88; 7007,279;  240,382;35185,096;19,36458
 839,44; 7042,768;  203,782;34997,573;19,65577
 840,00; 7094,971;  211,782;35115,651;19,72042
 840,56; 7008,746;  215,182;34777,128;19,65620
 841,12; 7090,377;  210,582;34765,406;19,90980
 841,68; 7013,723;  193,182;34493,283;19,88490
 842,25; 7063,784;  212,582;34672,761;19,88150
 842,81; 7000,273;  203,782;34322,238;19,92028
 843,37; 7095,047;  186,982;34411,115;20,18478
 843,93; 7078,679;  219,182;34236,393;20,16478
 844,49; 7132,739;  223,782;34377,670;20,22890
 845,05; 7084,228;  191,582;34056,748;20,35320
 845,61; 7200,002;  241,182;34182,225;20,50267
 846,17; 7188,491;  207,782;34017,703;20,64692
 846,73; 7211,694;  222,383;34085,180;20,64009
 847,29; 7167,040;  202,783;33852,658;20,69624
 847,86; 7204,243;  196,783;33641,935;20,95210
 848,42; 7161,018;  190,383;33540,812;20,90119
 848,98; 7233,364;  214,383;33519,890;21,07454
 849,54; 7282,281;  204,183;33526,567;21,24127
 850,10; 7334,341;  228,383;33345,045;21,45735
 850,66; 7240,973;  184,783;33153,522;21,40267
 851,22; 7272,319;  182,983;33056,000;21,56582
 851,78; 7369,094;  239,983;33111,277;21,68795
 852,34; 7361,725;  200,783;32939,555;21,87297
 852,90; 7353,500;  212,183;32850,032;21,88048
 853,46; 7376,274;  197,383;32641,709;22,12680
 854,02; 7443,477;  213,983;32643,387;22,29302
 854,58; 7408,395;  203,183;32336,464;22,42289
 855,14; 7379,027;  186,583;32268,742;22,41883
 855,70; 7403,944;  169,983;32086,819;22,66503
 856,26; 7398,433;  216,383;31989,697;22,60403
 856,82; 7446,064;  205,783;31857,374;22,87494
 857,38; 7433,125;  224,383;31752,252;22,86466
 857,94; 7387,042;  204,184;31631,129;22,85573
 858,50; 7457,817;  220,984;31515,207;23,12514
 859,06; 7397,305;  224,584;31482,284;22,94706
 859,62; 7411,794;  213,384;31318,161;23,14246
 860,18; 7429,712;  208,784;31074,239;23,39485
 860,74; 7375,915;  168,984;30912,316;23,44226
 861,30; 7381,546;  173,784;30831,794;23,51021
 861,86; 7479,321;  221,584;30929,071;23,63507
 862,42; 7388,095;  205,384;30590,949;23,63857
 862,98; 7469,013;  225,784;30679,826;23,78413
 863,54; 7422,645;  213,784;30401,504;23,88011
 864,10; 7474,562;  199,384;30453,381;24,04700
 864,66; 7440,051;  204,984;30147,458;24,16322
 865,22; 7485,111;  204,984;30039,336;24,40183
 865,78; 7455,743;  211,984;30028,813;24,29419
 866,34; 7473,232;  201,784;29892,091;24,49098
 866,90; 7396,149;  221,984;29758,968;24,28875
 867,45; 7442,352;  222,184;29624,646;24,55634
 868,01; 7457,269;  222,584;29528,523;24,68675
 868,57; 7450,901;  194,184;29270,201;24,95774
 869,13; 7409,676;  189,785;29094,678;24,97809
 869,69; 7421,879;  202,185;29107,755;24,97683
 870,25; 7413,653;  189,185;29104,833;24,98463
 870,81; 7476,285;  215,785;28973,910;25,24678
 871,37; 7445,917;  209,585;28797,588;25,31248
 871,93; 7485,977;  224,185;28614,065;25,57880
 872,49; 7496,037;  221,585;28385,943;25,82857
 873,04; 7378,240;  200,185;28223,620;25,61447
 873,60; 7429,158;  190,585;28096,698;25,93902
 874,16; 7419,932;  210,585;28100,175;25,84960
 874,72; 7403,646;  199,385;28028,775;25,88724
 875,28; 7477,218;  209,785;27963,375;26,18556
 875,84; 7461,932;  186,785;27807,375;26,33958
 876,40; 7460,789;  206,985;27740,175;26,34567
 876,95; 7531,075;  221,385;27739,775;26,56293
 877,51; 7570,218;  255,785;27750,375;26,60317
 878,07; 7593,789;  239,585;27763,975;26,71886
 878,63; 7571,789;  218,585;27739,975;26,71814
 879,19; 7641,075;  223,985;27668,175;27,02608
 879,75; 7669,218;  217,185;27709,175;27,10620
 880,30; 7729,218;  205,385;27794,575;27,27095
 880,86; 7827,932;  255,185;27824,575;27,46795
 881,42; 7816,218;  190,185;27869,775;27,55110
 881,98; 7899,504;  224,585;28080,175;27,55253
 882,54; 8001,646;  217,985;28017,575;27,99920
 883,09; 8025,504;  226,985;28170,175;27,90848
 883,65; 8094,075;  215,585;28300,375;28,05252
 884,21; 8144,646;  239,585;28441,775;28,02996
 884,77; 8196,932;  217,985;28552,975;28,15934
 885,32; 8300,932;  211,185;28662,975;28,43317
 885,88; 8389,504;  240,985;28801,975;28,53024
 886,44; 8396,789;  212,785;28912,775;28,51570
 887,00; 8472,932;  229,785;28898,775;28,75283
 887,56; 8532,504;  221,785;29149,775;28,72899
 888,11; 8566,504;  217,985;29168,175;28,83753
 888,67; 8631,932;  240,185;29323,575;28,85409
 889,23; 8713,789;  227,385;29229,775;29,26105
 889,79; 8686,218;  208,785;29260,375;29,18062
 890,34; 8718,075;  208,785;29149,575;29,40241
 890,90; 8873,504;  250,985;29173,175;29,81281
 891,46; 8782,218;  217,585;29233,975;29,51653
 892,01; 8862,789;  240,585;29083,775;29,89338
 892,57; 8847,646;  245,785;29088,775;29,82306
 893,13; 8899,361;  226,185;28995,775;30,14703
 893,69; 8886,075;  207,585;28903,575;30,24287
 894,24; 8908,504;  218,185;28830,175;30,37300
 894,80; 8844,218;  225,785;28553,575;30,42395
 895,36; 8877,504;  207,385;28458,575;30,68939
 895,91; 8842,504;  213,985;28280,375;30,74324
 896,47; 8826,361;  230,185;28094,775;30,84982
 897,03; 8816,789;  210,385;27903,775;31,07747
 897,58; 8811,361;  217,785;27717,175;31,25006
 898,14; 8856,218;  233,985;27673,575;31,42260
 898,70; 8772,646;  197,385;27601,175;31,29225
 899,25; 8842,504;  209,185;27406,375;31,74342
 899,81; 8786,646;  238,185;27203,575;31,70161
 900,37; 8814,218;  190,985;27044,375;32,11227
 900,92; 8798,932;  220,185;26966,575;32,07441
 901,48; 8820,361;  204,185;26834,575;32,35467
 902,03; 8773,075;  199,385;26749,975;32,29190
 902,59; 8786,075;  219,585;26734,975;32,30761
 903,15; 8797,361;  242,585;26494,775;32,58690
 903,70; 8793,075;  228,985;26272,975;32,88317
 904,26; 8788,075;  195,185;26118,375;33,14750
 904,82; 8758,075;  217,385;26110,975;32,98380
 905,37; 8765,361;  215,585;26019,975;33,13303
 905,93; 8761,218;  211,185;25899,975;33,28313
 906,48; 8788,789;  230,185;25755,975;33,52924
 907,04; 8826,218;  248,585;25767,175;33,61327
 907,60; 8734,504;  205,985;25499,175;33,71864
 908,15; 8732,504;  208,785;25448,375;33,77122
 908,71; 8744,361;  251,385;25480,975;33,66276
 909,26; 8710,075;  211,185;25169,375;34,05251
 909,82; 8703,075;  237,185;25158,575;33,97038
 910,37; 8768,932;  250,785;24900,975;34,55611
 910,93; 8662,075;  206,785;24712,775;34,50295
 911,48; 8571,075;  209,585;24621,375;34,25185
 912,04; 8594,075;  203,585;24537,375;34,48082
 912,60; 8613,789;  240,185;24691,775;34,24564
 913,15; 8591,789;  233,585;24388,775;34,60211
 913,71; 8509,361;  208,985;24185,975;34,61809
 914,26; 8564,218;  207,785;24091,775;34,98759
 914,82; 8574,218;  223,985;24053,375;35,04174
 915,37; 8537,218;  209,785;23898,375;35,15377
 915,93; 8544,504;  278,185;23892,775;35,00513
 916,48; 8491,075;  215,785;23672,775;35,27857
 917,04; 8524,075;  232,185;23553,975;35,55426
 917,59; 8519,361;  251,985;23506,375;35,55189
 918,15; 8411,075;  172,985;23242,175;35,71036
 918,70; 8368,646;  194,585;23323,175;35,34181
 919,26; 8448,504;  225,985;23132,575;35,89586
 919,81; 8396,932;  191,385;23044,175;35,90611
 920,37; 8414,789;  209,585;22783,375;36,34837
 920,92; 8454,646;  215,385;22795,975;36,48825
 921,48; 8413,504;  200,185;22586,375;36,68922
 922,03; 8435,075;  214,985;22528,375;36,83927
 922,59; 8404,789;  224,785;22401,375;36,88576
 923,14; 8381,646;  210,185;22325,175;36,94988
 923,69; 8386,504;  224,585;22390,575;36,82181
 924,25; 8403,075;  234,585;22114,975;37,33247
 924,80; 8328,789;  219,585;21933,575;37,34553
 925,36; 8335,218;  216,585;21980,375;37,30340
 925,91; 8304,075;  213,985;21765,175;37,53895
 926,47; 8296,932;  192,985;21704,975;37,67177
 927,02; 8329,504;  246,185;21669,975;37,73057
 927,57; 8303,218;  217,385;21431,775;38,11485
 928,13; 8255,075;  215,385;21399,175;37,95209
 928,68; 8221,361;  214,385;21298,775;37,97585
 929,24; 8146,218;  194,985;21056,975;38,11349
 929,79; 8200,218;  195,185;20994,175;38,48760
 930,34; 8107,361;  220,985;20909,175;38,12018
 930,90; 8114,504;  200,585;20822,575;38,37611
 931,45; 8138,218;  208,985;20760,775;38,58171
 932,01; 8092,361;  226,985;20826,175;38,18294
 932,56; 8083,504;  236,785;20657,975;38,42439
 933,11; 8048,075;  224,785;20495,575;38,59391
 933,67; 8018,789;  218,985;20367,175;38,71218
 934,22; 8047,075;  224,385;20302,375;38,96152
 934,77; 8093,789;  223,585;20152,375;39,49163
 935,33; 8050,075;  228,985;20031,775;39,49489
 935,88; 7989,932;  228,585;20037,175;39,18172
 936,43; 7989,932;  224,785;19867,775;39,53139
 936,99; 8017,646;  203,985;19779,775;39,91492
 937,54; 7938,932;  199,385;19705,575;39,67739
 938,09; 7963,789;  214,385;19494,375;40,19403
 938,65; 7888,932;  212,785;19343,175;40,12541
 939,20; 7875,075;  194,585;19422,175;39,94515
 939,75; 7869,361;  197,185;19246,375;40,27560
 940,31; 7876,075;  193,785;19051,175;40,73888
 940,86; 7853,504;  203,585;19200,975;40,26826
 941,41; 7897,789;  264,985;19011,775;40,71526
 941,96; 7803,075;  207,185;18855,975;40,73128
 942,52; 7798,218;  216,385;18838,175;40,71484
 943,07; 7768,504;  193,785;18730,975;40,86228
 943,62; 7798,789;  201,585;18591,975;41,31073
 944,18; 7776,361;  190,585;18531,975;41,35878
 944,73; 7827,218;  216,785;18403,975;41,84502
 945,28; 7745,504;  181,185;18284,575;41,78399
 945,83; 7763,789;  223,385;18173,575;42,00738
 946,39; 7792,932;  203,785;18154,575;42,27751
 946,94; 7765,361;  234,985;18027,775;42,32262
 947,49; 7834,361;  214,585;17934,375;43,00150
 948,04; 7793,361;  227,185;17990,975;42,59325
 948,59; 7863,504;  229,785;17823,975;43,38772
 949,15; 7745,789;  196,785;17696,575;43,13768
 949,70; 7844,361;  213,385;17583,375;43,93195
 950,25; 7837,504;  231,785;17544,775;43,93071
 950,80; 7744,361;  187,385;17522,775;43,59276
 951,36; 7766,932;  180,985;17437,175;43,96073
 951,91; 7795,218;  211,785;17414,175;44,08360
 952,46; 7693,075;  181,585;17155,375;44,25346
 953,01; 7798,932;  215,185;17166,975;44,73715
 953,56; 7679,504;  186,385;17089,975;44,32856
 954,11; 7694,646;  231,985;17015,775;44,46351
 954,67; 7702,932;  204,985;16958,175;44,75534
 955,22; 7594,646;  188,985;16687,775;44,88609
 955,77; 7614,789;  234,585;16719,375;44,76978
 956,32; 7661,789;  251,185;16646,375;45,19987
 956,87; 7566,361;  206,385;16472,775;45,24652
 957,42; 7582,361;  206,985;16494,775;45,28162
 957,98; 7586,504;  201,785;16257,375;45,99469
 958,53; 7576,789;  224,385;16301,175;45,73304
 959,08; 7529,504;  190,785;16218,575;45,78746
 959,63; 7469,932;  190,585;16122,175;45,69128
 960,18; 7515,504;  217,185;16053,375;46,08633
 960,73; 7488,361;  208,985;15932,375;46,29648
 961,28; 7423,932;  200,785;15844,375;46,17321
 961,83; 7453,789;  216,385;15855,775;46,27677
 962,39; 7411,361;  200,185;15688,175;46,55979
 962,94; 7400,504;  215,585;15571,575;46,78903
 963,49; 7373,361;  209,785;15532,375;46,75173
 964,04; 7390,789;  214,985;15423,175;47,18382
 964,59; 7362,361;  203,585;15309,575;47,39031
 965,14; 7358,218;  214,785;15274,375;47,43444
 965,69; 7283,361;  195,585;15175,975;47,31369
 966,24; 7300,932;  189,785;15058,575;47,82600
 966,79; 7300,504;  215,585;14974,175;48,00539
 967,34; 7205,932;  191,185;14867,575;47,79613
 967,89; 7234,646;  211,985;14773,375;48,22796
 968,44; 7191,646;  219,585;14791,175;47,84695
 968,99; 7199,075;  226,785;14619,175;48,44428
 969,55; 7168,646;  220,985;14511,975;48,61568
 970,10; 7180,932;  214,385;14446,775;48,94854
 970,65; 7118,361;  227,385;14262,975;49,09644
 971,20; 7069,932;  199,185;14271,175;48,82570
 971,75; 7023,932;  188,185;14090,175;49,17100
 972,30; 7061,789;  217,785;14004,775;49,64103
 972,85; 6977,361;  203,585;14013,975;49,04840
 973,40; 6953,932;  203,185;13823,575;49,56354
 973,95; 6899,932;  220,985;13810,175;49,14897
 974,50; 6908,075;  241,385;13734,375;49,40854
 975,05; 6867,932;  215,785;13633,775;49,57633
 975,60; 6834,361;  241,185;13571,975;49,45825
 976,15; 6806,789;  211,385;13443,575;49,84363
 976,70; 6765,218;  222,185;13370,975;49,76148
 977,25; 6772,218;  211,985;13416,975;49,67995
 977,80; 6733,646;  195,985;13126,975;50,55809
 978,35; 6667,361;  211,985;13055,175;50,26302
 978,89; 6614,789;  199,385;12930,375;50,39203
 979,44; 6680,218;  217,785;12903,375;50,94310
 979,99; 6569,932;  201,985;12765,375;50,68654
 980,54; 6565,646;  228,185;12675,975;50,91234
 981,09; 6542,218;  222,585;12618,175;50,98291
 981,64; 6446,789;  221,585;12389,575;51,16050
 982,19; 6514,932;  242,985;12345,775;51,82232
 982,74; 6462,075;  231,185;12263,975;51,78259
 983,29; 6394,932;  192,785;12115,775;52,01839
 983,84; 6338,361;  227,985;12057,575;51,65332
 984,39; 6400,789;  249,385;11963,175;52,51421
 984,94; 6326,789;  200,585;11862,975;52,52958
 985,49; 6233,361;  232,385;11793,175;51,90801
 986,03; 6268,932;  233,785;11663,975;52,80006
 986,58; 6204,361;  268,785;11628,175;52,25259
 987,13; 6086,504;  207,985;11411,575;52,46995
 987,68; 6099,789;  235,985;11312,375;52,93967
 988,23; 6115,218;  226,985;11250,175;53,41678
 988,78; 6012,646;  223,785;11109,775;53,17717
 989,33; 6006,646;  220,985;10968,775;53,83117
 989,88; 5992,504;  251,985;10965,975;53,57965
 990,42; 5915,504;  223,185;10787,175;53,88417
 990,97; 5780,789;  223,185;10681,175;53,14218
 991,52; 5833,932;  235,185;10688,575;53,55915
 992,07; 5824,218;  244,585;10498,775;54,41320
 992,62; 5751,075;  228,185;10449,775;54,03161
 993,17; 5710,218;  230,185;10255,775;54,66045
 993,71; 5665,075;  236,585;10236,375;54,28604
 994,26; 5635,789;  218,185;10051,175;55,09620
 994,81; 5598,646;  239,985;10001,575;54,89537
 995,36; 5569,218;  208,985; 9878,775;55,43277
 995,91; 5558,218;  227,185; 9840,775;55,45309
 996,45; 5496,646;  223,185; 9708,175;55,59797
 997,00; 5460,075;  208,785; 9556,175;56,17921
 997,55; 5498,075;  226,185; 9570,575;56,41770
 998,10; 5427,218;  235,785; 9334,575;57,05630
 998,65; 5464,932;  207,185; 9332,975;57,61416
 999,19; 5431,932;  234,585; 9289,775;57,39633
 999,74; 5339,932;  237,185; 9119,375;57,44920
1000,29; 5292,789;  247,185; 9050,575;57,31433
1000,84; 5237,504;  226,385; 8927,975;57,58854
1001,38; 5229,932;  225,985; 8722,975;58,89082
1001,93; 5131,218;  227,185; 8819,575;57,07414
1002,48; 5055,646;  213,185; 8628,775;57,54156
1003,03; 5076,361;  222,785; 8504,975;58,60256
1003,57; 4997,361;  232,985; 8453,975;57,95380
1004,12; 4989,504;  233,185; 8326,175;58,77084
1004,67; 4924,504;  223,985; 8297,175;58,22381
1005,22; 4840,789;  214,785; 8139,375;58,37531
1005,76; 4808,218;  212,585; 7986,175;59,11854
1006,31; 4735,789;  234,985; 7930,775;58,48398
1006,86; 4628,932;  221,985; 7767,575;58,40428
1007,40; 4583,504;  198,185; 7624,975;59,04729
1007,95; 4567,789;  230,385; 7621,375;58,68502
1008,50; 4482,218;  234,185; 7447,975;58,88767
1009,04; 4486,789;  218,385; 7419,175;59,27689
1009,59; 4350,361;  221,585; 7293,975;58,37879
1010,14; 4331,646;  215,585; 7124,575;59,57544
1010,68; 4217,932;  223,785; 7028,975;58,69266
1011,23; 4189,789;  189,385; 6898,975;59,62219
1011,78; 4175,218;  238,385; 6909,775;59,01068
1012,32; 4133,789;  221,385; 6682,575;60,55238
1012,87; 4133,504;  239,585; 6755,175;59,76310
1013,42; 4045,932;  212,185; 6570,975;60,29051
1013,96; 4044,075;  242,985; 6621,575;59,59138
1014,51; 3989,504;  182,185; 6500,175;60,26155
1015,06; 3978,075;  191,385; 6547,775;59,57297
1015,60; 4073,789;  264,385; 6593,375;60,18977
1016,15; 4020,932;  213,785; 6555,575;60,03269
1016,69; 4074,646;  226,585; 6498,375;61,35507
1017,24; 4029,646;  203,185; 6530,775;60,47265
1017,79; 4137,218;  249,985; 6580,175;61,40784
1018,33; 4101,218;  211,185; 6584,175;61,03937
1018,88; 4137,218;  248,185; 6615,975;61,07351
1019,42; 4178,361;  230,585; 6633,375;61,65712
1019,97; 4198,789;  199,585; 6670,375;61,80396
1020,51; 4229,218;  232,385; 6724,975;61,55991
1021,06; 4198,646;  201,185; 6703,975;61,47302
1021,61; 4195,361;  183,385; 6564,775;62,86993
1022,15; 4176,218;  170,385; 6554,375;62,74811
1022,70; 4191,932;  221,985; 6591,975;62,32266
1023,24; 4190,218;  185,985; 6595,975;62,46863
1023,79; 4144,932;  206,185; 6495,775;62,62327
1024,33; 4131,218;  206,185; 6476,975;62,59232
1024,88; 4067,361;  211,185; 6419,975;62,10833
1025,42; 4032,932;  214,785; 6222,175;63,55750
1025,97; 3984,218;  211,785; 6173,175;63,28109
1026,51; 3899,932;  175,985; 6033,175;63,57907
1027,06; 3908,361;  206,185; 6053,375;63,31547
1027,60; 3850,218;  205,585; 5935,175;63,61071
1028,15; 3823,361;  230,585; 5842,775;64,01736
1028,69; 3697,361;  196,985; 5694,375;63,67341
1029,24; 3686,075;  211,385; 5638,775;64,02138
1029,78; 3607,361;  208,385; 5525,175;63,92909
1030,33; 3571,932;  185,985; 5398,775;64,95460
1030,87; 3537,789;  212,385; 5365,775;64,52848
1031,42; 3471,075;  194,385; 5274,975;64,49428
1031,96; 3459,504;  216,985; 5209,175;64,95183
1032,51; 3417,075;  198,785; 5159,575;64,87455
1033,05; 3378,789;  216,785; 5094,375;64,82718
1033,60; 3317,646;  166,785; 4986,175;65,37884
1034,14; 3263,218;  200,185; 4900,775;65,16273
1034,69; 3264,646;  210,185; 4821,375;66,24020
1035,23; 3233,075;  205,985; 4730,975;66,89716
1035,77; 3214,075;  193,585; 4674,375;67,40976
1036,32; 3168,075;  169,185; 4629,175;67,23984
1036,86; 3136,218;  202,185; 4530,575;67,78578
1037,41; 3099,075;  219,585; 4518,575;66,98062
1037,95; 3043,218;  182,985; 4436,375;67,24596
1038,50; 3013,646;  194,985; 4351,775;67,80861
1039,04; 3029,075;  216,385; 4251,375;69,70748
1039,58; 2966,504;  195,985; 4206,575;69,08007
1040,13; 2923,932;  193,185; 4211,375;67,95963
1040,67; 2931,504;  232,985; 4143,575;69,00541
1041,21; 2884,361;  234,385; 4054,975;69,36038
1041,76; 2792,789;  189,585; 3998,975;68,33651
1042,30; 2778,218;  207,185; 3960,575;68,49895
1042,85; 2758,789;  205,185; 3900,775;69,09869
1043,39; 2721,361;  196,585; 3840,775;69,28222
1043,93; 2685,789;  213,185; 3768,575;69,54523
1044,48; 2674,646;  221,785; 3745,575;69,60862
1045,02; 2630,218;  194,985; 3677,575;69,92591
1045,56; 2614,075;  226,785; 3593,175;70,91543
1046,11; 2582,361;  209,985; 3566,175;70,68657
1046,65; 2504,932;  219,985; 3509,575;69,45994
1047,19; 2480,218;  187,785; 3480,975;69,61131
1047,74; 2423,932;  191,985; 3379,375;70,02429
1048,28; 2413,075;  214,785; 3427,975;68,41457
1048,82; 2427,646;  220,785; 3358,975;70,32275
1049,37; 2380,932;  215,385; 3284,775;70,55301
1049,91; 2352,504;  197,185; 3303,375;69,38785
1050,45; 2333,932;  224,985; 3245,375;69,82367
1050,99; 2276,218;  202,985; 3149,375;70,36519
1051,54; 2210,075;  207,185; 3100,375;69,22774
1052,08; 2270,504;  228,785; 3086,975;71,43397
1052,62; 2234,932;  223,985; 3023,975;71,81980
1053,16; 2211,789;  206,585; 2934,575;73,50483
1053,71; 2178,504;  218,585; 2966,975;71,31152
1054,25; 2144,361;  217,185; 2879,175;72,39605
1054,79; 2129,789;  222,585; 2843,975;72,75546
1055,33; 2048,789;  199,185; 2783,975;71,55724
1055,88; 2066,075;  232,185; 2776,975;72,06449
1056,42; 2007,789;  227,185; 2762,175;70,24108
1056,96; 2019,646;  234,585; 2692,975;72,61099
1057,50; 1983,646;  224,185; 2648,775;72,56738
1058,05; 1953,075;  222,785; 2621,975;72,11976
1058,59; 1956,646;  233,985; 2547,775;74,45194
1059,13; 1873,789;  201,585; 2473,175;73,61382
1059,67; 1902,361;  228,185; 2524,575;72,90468
1060,21; 1832,361;  215,385; 2451,775;72,30294
1060,76; 1827,075;  235,185; 2440,975;72,16870
1061,30; 1828,361;  244,385; 2377,175;74,26778
1061,84; 1771,075;  210,185; 2358,375;72,66071
1062,38; 1730,504;  199,585; 2303,775;72,75572
1062,92; 1788,361;  260,985; 2322,375;74,09446
1063,46; 1709,789;  242,585; 2245,575;73,25070
1064,01; 1687,932;  204,785; 2226,575;73,35812
1064,55; 1666,361;  229,585; 2221,575;72,12766
1065,09; 1634,218;  198,385; 2126,375;74,47304
1065,63; 1657,075;  230,785; 2131,775;75,02880
1066,17; 1629,646;  245,785; 2102,975;74,51372
1066,71; 1633,932;  231,785; 2098,775;75,10202
1067,25; 1588,218;  237,185; 2061,175;74,07019
1067,80; 1577,932;  238,385; 2045,975;74,10680
1068,34; 1592,218;  250,385; 2047,175;74,67945
1068,88; 1513,361;  217,585; 1981,175;73,47375
1069,42; 1547,504;  258,185; 1998,375;74,09068
1069,96; 1490,646;  225,385; 1939,175;73,82827
1070,50; 1520,646;  251,585; 1942,975;75,03068
1071,04; 1460,932;  203,185; 1908,175;73,76859
1071,58; 1455,789;  218,385; 1881,175;74,41735
1072,12; 1453,361;  218,785; 1812,975;77,44219
1072,66; 1465,218;  232,985; 1827,175;77,29523
1073,21; 1456,789;  235,985; 1839,175;76,14845
1073,75; 1386,932;  235,385; 1805,975;73,31940
1074,29; 1378,504;  240,585; 1778,575;73,98738
1074,83; 1393,361;  249,585; 1748,175;76,32346
1075,37; 1352,646;  243,785; 1726,975;74,76193
1075,91; 1352,504;  232,185; 1720,975;75,25028
1076,45; 1359,075;  228,385; 1687,775;77,47689
1076,99; 1311,504;  254,785; 1650,975;75,68587
1077,53; 1302,504;  222,185; 1646,575;75,84430
1078,07; 1269,218;  241,185; 1615,975;74,77745
1078,61; 1244,789;  218,785; 1609,375;73,78194
1079,15; 1259,932;  222,985; 1585,575;76,10119
1079,69; 1251,075;  223,985; 1549,175;77,50511
1080,23; 1266,504;  244,385; 1572,175;76,97893
1080,77; 1279,646;  246,985; 1569,375;78,09054
1081,31; 1209,218;  203,985; 1501,375;77,48116
1081,85; 1208,075;  245,185; 1514,175;75,87845
1082,39; 1197,504;  215,385; 1467,975;78,40703
1082,93; 1185,361;  210,785; 1449,975;78,64619
1083,47; 1147,075;  214,785; 1425,775;76,98577
1084,01; 1154,932;  250,185; 1426,975;76,88263
1084,55; 1142,789;  212,385; 1393,175;78,79507
1085,09; 1126,646;  242,585; 1387,375;77,22477
1085,63; 1125,218;  223,185; 1392,375;77,15024
1086,17; 1103,504;  220,585; 1358,775;77,57216
1086,71; 1082,789;  236,585; 1333,575;77,13874
1087,24; 1111,646;  248,585; 1347,175;78,56083
1087,78; 1086,218;  222,985; 1311,775;79,28369
1088,32; 1031,361;  213,785; 1278,575;76,78281
1088,86; 1072,504;  242,385; 1315,375;77,36499
1089,40; 1057,361;  219,785; 1272,175;79,58796
1089,94; 1012,075;  196,585; 1241,175;78,06795
1090,48; 1027,789;  226,985; 1241,775;78,91330
1091,02; 1045,361;  233,785; 1239,175;80,72248
1091,56; 1002,932;  234,985; 1212,175;78,58729
1092,10;  989,646;  217,785; 1190,975;79,31251
1092,63; 1009,646;  248,985; 1209,575;79,18690
1093,17;  993,504;  230,985; 1195,975;79,01829
1093,71;  962,361;  227,385; 1151,775;79,50927
1094,25;  956,361;  249,785; 1176,375;76,25549
1094,79;  942,932;  247,785; 1129,175;78,86942
1095,33;  936,646;  232,585; 1100,975;81,07664
1095,87;  917,932;  230,985; 1142,375;75,37357
1096,40;  891,932;  206,985; 1087,375;77,80042
1096,94;  914,932;  238,785; 1072,575;81,09322
1097,48;  889,075;  235,185; 1090,775;76,42562
1098,02;  865,218;  210,785; 1066,575;76,47120
1098,56;  838,932;  196,985;  999,175;80,02433
1099,10;  864,932;  211,585;  999,375;82,93418
1099,63;  839,789;  209,785; 1018,775;77,87541
1100,17;  849,075;  244,185; 1028,775;77,09632
1100,71;  869,646;  239,985; 1012,375;81,52118

