
Integration time [ms]: 140,000
Averaging Nr. [scans]: 13
Smoothing Nr. [pixels]: 0
Data measured with spectrometer [name]: 2009305U1
Wave   ;Sample   ;Dark     ;Reference;Reflectance
[nm]   ;[counts] ;[counts] ;[counts] ;[%]

 175,72;  211,258;  202,783;  223,076;41,76239
 176,32;  227,445;  235,325;  233,183; 0,00000
 176,92;  267,344;  268,169;  269,200;-79,91761
 177,52;  271,132;  268,091;  262,076; 0,00000
 178,12;  247,750;  257,324;  243,700; 0,00000
 178,72;  264,050;  265,095;  258,217; 0,00000
 179,32;  255,585;  268,863;  252,136; 0,00000
 179,92;  253,801;  265,631;  267,970;-505,89796
 180,52;  264,792;  242,858;  269,559;82,14630
 181,12;  271,229;  264,246;  270,140;118,47546
 181,73;  276,188;  278,015;  276,393; 0,00000
 182,33;  375,579;  376,706;  385,901;-12,25253
 182,93;  282,616;  282,630;  284,119;-0,94355
 183,53;  238,537;  252,787;  239,042; 0,00000
 184,13;  240,086;  254,095;  245,230; 0,00000
 184,73;  291,581;  287,018;  290,658;125,38138
 185,33;  279,494;  245,652;  366,512;28,00125
 185,93;  275,897;  240,884;  362,674;28,74845
 186,53;  292,561;  262,499;  382,538;25,04370
 187,13;  318,531;  282,650;  413,897;27,33860
 187,73;  280,757;  248,500;  374,807;25,53868
 188,33;  278,654;  249,501;  377,832;22,71674
 188,93;  294,987;  266,120;  368,764;28,12336
 189,53;  299,668;  262,277;  393,555;28,48280
 190,13;  346,088;  296,435;  419,072;40,48759
 190,73;  283,511;  227,586;  359,537;42,38264
 191,34;  310,686;  271,352;  391,243;32,80816
 191,94;  285,427;  246,733;  373,358;30,55784
 192,54;  306,398;  264,572;  390,298;33,26740
 193,14;  307,320;  262,112;  410,063;30,55590
 193,74;  290,631;  267,728;  401,768;17,08653
 194,34;  299,468;  265,958;  394,183;26,13373
 194,94;  260,496;  225,420;  368,414;24,52969
 195,54;  232,862;  199,036;  342,674;23,54939
 196,14;  262,896;  234,957;  373,055;20,23108
 196,74;  249,714;  238,575;  362,324; 9,00139
 197,34;  237,070;  200,263;  355,217;23,75342
 197,94;  253,152;  232,342;  391,563;13,06959
 198,54;  278,959;  239,265;  407,700;23,56641
 199,14;  254,407;  217,032;  395,974;20,88698
 199,74;  246,308;  208,186;  379,854;22,20723
 200,34;  241,693;  205,108;  400,093;18,76265
 200,94;  279,834;  241,418;  444,773;18,89143
 201,54;  265,130;  224,801;  446,157;18,21899
 202,14;  310,887;  252,185;  507,021;23,03540
 202,74;  262,004;  220,186;  489,414;15,53250
 203,34;  253,856;  206,876;  509,469;15,52578
 203,94;  226,316;  177,569;  523,345;14,09768
 204,54;  302,924;  251,804;  597,516;14,78684
 205,14;  265,932;  210,570;  593,619;14,45294
 205,74;  318,515;  248,030;  688,863;15,98917
 206,34;  278,588;  218,877;  712,170;12,10451
 206,94;  298,995;  224,493;  773,666;13,56620
 207,54;  273,591;  194,262;  814,576;12,78849
 208,14;  286,577;  212,338;  885,999;11,02012
 208,74;  300,781;  216,647;  970,102;11,16640
 209,34;  313,215;  210,032; 1064,247;12,07930
 209,94;  330,245;  223,416; 1142,978;11,61737
 210,54;  338,414;  216,877; 1246,089;11,80880
 211,14;  360,366;  209,955; 1381,448;12,83928
 211,73;  369,897;  219,109; 1508,743;11,69228
 212,33;  392,087;  231,956; 1610,123;11,61913
 212,93;  396,594;  216,109; 1698,572;12,17470
 213,53;  376,298;  181,647; 1761,367;12,32182
 214,13;  425,627;  222,952; 1870,209;12,30380
 214,73;  404,118;  185,954; 1909,790;12,65573
 215,33;  403,630;  179,186; 1934,593;12,78587
 215,93;  457,455;  211,184; 2074,162;13,21922
 216,53;  428,625;  162,801; 2134,072;13,48487
 217,13;  521,148;  225,953; 2347,307;13,91537
 217,73;  520,796;  204,338; 2559,692;13,43569
 218,33;  528,292;  161,336; 2756,969;14,13741
 218,93;  620,564;  202,873; 3086,277;14,48606
 219,53;  654,577;  209,336; 3414,311;13,89218
 220,13;  655,747;  170,028; 3703,166;13,74753
 220,73;  752,124;  187,878; 4085,892;14,47523
 221,32;  800,627;  195,109; 4505,948;14,04642
 221,92;  885,954;  192,721; 5000,632;14,41859
 222,52;  938,177;  178,184; 5377,901;14,61606
 223,12; 1012,727;  189,030; 5845,465;14,56212
 223,72; 1063,551;  197,260; 6327,192;14,13214
 224,32; 1157,666;  209,106; 6727,234;14,55264
 224,92; 1168,408;  182,568; 7030,294;14,39660
 225,52; 1217,819;  212,723; 7406,315;13,97209
 226,12; 1233,156;  189,953; 7683,610;13,92114
 226,72; 1276,719;  171,723; 8090,059;13,95491
 227,31; 1311,538;  166,338; 8448,196;13,82781
 227,91; 1397,223;  195,185; 8938,251;13,74847
 228,51; 1423,263;  182,417; 9244,174;13,69321
 229,11; 1484,338;  189,108; 9710,850;13,60287
 229,71; 1525,897;  184,032; 9960,751;13,72510
 230,31; 1561,655;  160,260;10437,610;13,63576
 230,91; 1583,986;  168,495;10697,503;13,44372
 231,51; 1615,230;  183,415;11064,521;13,15873
 232,10; 1668,012;  172,875;11342,525;13,38571
 232,70; 1711,237;  198,958;11545,952;13,32758
 233,30; 1722,521;  214,492;11780,828;13,03809
 233,90; 1700,417;  192,799;11954,734;12,81777
 234,50; 1730,601;  186,799;12056,551;13,00618
 235,10; 1724,793;  175,260;12065,525;13,03194
 235,70; 1714,693;  208,724;12036,862;12,73209
 236,29; 1720,119;  203,417;12020,602;12,83472
 236,89; 1643,884;  168,495;11895,824;12,58078
 237,49; 1668,681;  201,338;11816,486;12,63301
 238,09; 1601,665;  181,339;11438,324;12,61729
 238,69; 1603,951;  224,957;11167,550;12,60207
 239,29; 1534,544;  186,185;10841,999;12,65374
 239,89; 1493,219;  196,802;10545,226;12,52767
 240,48; 1449,714;  176,492;10114,692;12,81139
 241,08; 1390,813;  177,185; 9764,264;12,65900
 241,68; 1374,634;  213,415; 9396,209;12,64560
 242,28; 1328,370;  178,723; 8995,542;13,03925
 242,88; 1340,759;  219,721; 8679,166;13,25191
 243,48; 1308,241;  225,954; 8415,452;13,21555
 244,07; 1286,272;  209,339; 8129,234;13,59782
 244,67; 1291,763;  207,338; 7988,298;13,93691
 245,27; 1296,743;  208,109; 7823,974;14,29429
 245,87; 1322,561;  210,260; 7761,226;14,73059
 246,47; 1344,924;  196,109; 7668,914;15,37328
 247,06; 1348,453;  181,416; 7757,721;15,40378
 247,66; 1386,934;  185,646; 7774,213;15,83023
 248,26; 1491,877;  215,955; 7894,268;16,61722
 248,86; 1560,496;  207,725; 8133,290;17,06845
 249,46; 1614,559;  159,953; 8304,717;17,85940
 250,05; 1741,989;  204,262; 8681,392;18,13971
 250,65; 1849,545;  184,263; 9076,110;18,72819
 251,25; 1975,410;  178,031; 9575,474;19,12625
 251,85; 2153,947;  186,264;10085,469;19,87718
 252,44; 2286,061;  157,878;10815,700;19,96828
 253,04; 2507,817;  208,493;11581,892;20,21668
 253,64; 2722,103;  152,725;12308,123;21,13775
 254,24; 2986,626;  196,339;13277,281;21,33094
 254,84; 3249,867;  177,184;14242,179;21,84632
 255,43; 3536,185;  190,801;15248,200;22,21754
 256,03; 3816,807;  196,956;16293,995;22,48768
 256,63; 4174,703;  204,341;17391,115;23,10126
 257,23; 4405,826;  177,495;18380,307;23,22900
 257,82; 4740,649;  194,496;19349,209;23,73386
 258,42; 5004,026;  155,496;20233,042;24,14901
 259,02; 5307,825;  210,262;21264,273;24,21184
 259,62; 5483,845;  187,189;22043,709;24,23376
 260,21; 5693,229;  199,878;22644,055;24,47562
 260,81; 5892,277;  193,646;23073,388;24,90688
 261,41; 6068,786;  172,265;23729,055;25,03109
 262,01; 6248,820;  209,497;24161,474;25,21430
 262,60; 6332,519;  163,649;24635,307;25,20822
 263,20; 6457,905;  179,802;24886,046;25,41100
 263,80; 6602,675;  212,651;25112,931;25,66246
 264,40; 6571,941;  168,189;25329,644;25,45064
 264,99; 6693,202;  198,574;25487,905;25,68130
 265,59; 6675,000;  180,191;25693,956;25,45610
 266,19; 6731,191;  181,035;25895,888;25,47227
 266,78; 6818,519;  221,190;26007,807;25,58431
 267,38; 6778,797;  200,268;26049,674;25,44944
 267,98; 6793,167;  181,575;26073,568;25,53528
 268,58; 6760,692;  196,037;26109,273;25,33321
 269,17; 6766,378;  195,653;26127,166;25,33876
 269,77; 6704,467;  204,957;25881,747;25,31278
 270,37; 6591,441;  165,420;25820,286;25,04796
 270,96; 6571,096;  232,111;25659,008;24,93024
 271,56; 6469,829;  184,033;25321,482;25,00570
 272,16; 6388,635;  181,496;25124,230;24,88556
 272,75; 6316,836;  191,265;25101,268;24,59081
 273,35; 6214,813;  189,726;25037,080;24,24840
 273,95; 6216,968;  188,419;25027,841;24,27008
 274,54; 6197,305;  169,185;25041,157;24,23660
 275,14; 6288,371;  216,496;25396,256;24,11411
 275,74; 6195,138;  168,419;25453,756;23,83484
 276,33; 6308,656;  213,649;25923,068;23,70729
 276,93; 6332,947;  196,031;26222,952;23,57911
 277,53; 6420,789;  186,032;26759,098;23,46270
 278,12; 6515,444;  174,418;27305,491;23,37182
 278,72; 6727,919;  227,801;27881,948;23,50504
 279,32; 6771,663;  182,955;28489,106;23,27659
 279,91; 6931,713;  165,494;29258,003;23,25760
 280,51; 7097,347;  191,724;29692,657;23,40815
 281,11; 7283,224;  186,494;30550,063;23,37252
 281,70; 7343,389;  171,417;30892,465;23,34547
 282,30; 7497,675;  182,572;31552,097;23,31914
 282,90; 7619,557;  186,264;31954,418;23,39857
 283,49; 7764,638;  202,572;32544,115;23,38189
 284,09; 7948,406;  210,417;33120,456;23,51255
 284,69; 8067,106;  213,340;33350,085;23,70108
 285,28; 8142,274;  206,341;33762,422;23,64976
 285,88; 8341,748;  248,188;33983,397;23,99143
 286,47; 8327,733;  187,187;34005,615;24,07133
 287,07; 8486,224;  220,263;34062,995;24,42463
 287,67; 8606,395;  209,415;34281,991;24,64439
 288,26; 8677,911;  182,878;34188,713;24,98110
 288,86; 8782,447;  179,956;34213,674;25,27638
 289,46; 8961,977;  205,340;34318,149;25,66964
 290,05; 9095,278;  177,493;34392,670;26,06383
 290,65; 9373,129;  194,803;34598,709;26,67815
 291,24; 9497,570;  195,186;34663,653;26,98810
 291,84; 9620,164;  216,495;34767,653;27,21665
 292,44; 9807,615;  194,569;34984,204;27,63192
 293,03;10116,094;  266,417;35057,914;28,31059
 293,63;10166,607;  184,495;35259,170;28,45960
 294,22;10375,545;  214,417;35324,264;28,94096
 294,82;10406,652;  191,727;35373,820;29,03444
 295,41;10378,697;  176,802;35114,234;29,20047
 296,01;10462,990;  229,265;34972,568;29,45524
 296,61;10491,732;  217,571;34673,495;29,81827
 297,20;10328,014;  195,496;34283,409;29,72467
 297,80;10325,599;  199,031;34159,264;29,81890
 298,39;10151,101;  177,418;33729,931;29,72559
 298,99;10133,432;  207,880;33549,640;29,76913
 299,58;10063,401;  210,415;33295,880;29,78041
 300,18; 9966,094;  225,416;33137,170;29,59635
 300,78; 9758,289;  187,186;32737,294;29,40421
 301,37; 9710,964;  209,497;32747,285;29,20133
 301,97; 9629,949;  208,417;32702,747;28,99439
 302,56; 9538,274;  199,418;32668,944;28,76191
 303,16; 9472,772;  171,341;32483,179;28,78645
 303,75; 9437,962;  187,570;32527,127;28,60395
 304,35; 9462,197;  181,030;32758,768;28,48929
 304,94; 9393,122;  206,340;32808,922;28,17808
 305,54; 9346,473;  218,801;32760,717;28,04897
 306,13; 9218,012;  161,799;32549,192;27,96216
 306,73; 9079,189;  166,876;32358,217;27,68543
 307,33; 9060,335;  206,261;32238,521;27,64111
 307,92; 8937,122;  215,878;32305,469;27,17780
 308,52; 9005,264;  173,495;32763,140;27,09992
 309,11; 9079,259;  188,650;33278,833;26,86781
 309,71; 9098,757;  180,728;33595,521;26,68887
 310,30; 9047,537;  184,648;33756,969;26,39939
 310,90; 9150,921;  221,263;34201,739;26,27879
 311,49; 9073,078;  201,955;34294,529;26,02069
 312,09; 9076,352;  170,800;34375,033;26,03640
 312,68; 9212,067;  253,955;34837,982;25,90245
 313,28; 9054,507;  162,878;34973,469;25,54288
 313,87; 9051,042;  162,955;35103,286;25,43790
 314,47; 9056,105;  191,188;35314,764;25,23922
 315,06; 9005,344;  176,032;35427,858;25,04640
 315,66; 9000,044;  170,954;35644,803;24,88901
 316,25; 8851,769;  159,034;35543,003;24,56687
 316,85; 8817,420;  148,493;35519,422;24,50862
 317,44; 8831,166;  183,266;35761,610;24,30664
 318,04; 8779,431;  174,495;35684,512;24,23242
 318,63; 8673,279;  161,030;35697,110;23,95382
 319,22; 8675,599;  183,341;35919,858;23,76353
 319,82; 8622,653;  182,341;35890,217;23,63712
 320,41; 8588,722;  206,187;35837,512;23,52575
 321,01; 8540,915;  201,878;35853,636;23,39026
 321,60; 8494,057;  196,879;35932,315;23,21835
 322,20; 8361,372;  181,417;35834,568;22,94315
 322,79; 8353,743;  206,186;35983,059;22,77325
 323,39; 8391,977;  177,876;36015,401;22,92039
 323,98; 8281,089;  168,109;35860,333;22,73039
 324,58; 8200,970;  175,495;35863,803;22,48769
 325,17; 8157,571;  188,111;35597,918;22,50637
 325,76; 8044,499;  208,186;35442,927;22,24030
 326,36; 7957,105;  178,416;35062,418;22,29873
 326,95; 7895,796;  207,494;34654,585;22,31916
 327,55; 7767,109;  165,341;34435,627;22,18181
 328,14; 7648,008;  176,954;33976,875;22,10376
 328,74; 7539,450;  209,649;33581,833;21,96380
 329,33; 7462,869;  194,262;33143,444;22,06005
 329,92; 7258,048;  177,496;32534,162;21,88282
 330,52; 7159,838;  187,954;31833,499;22,03117
 331,11; 7051,070;  181,879;31384,670;22,01467
 331,71; 6899,021;  180,033;30840,773;21,91398
 332,30; 6801,891;  201,263;30513,538;21,77543
 332,89; 6746,179;  251,339;29853,004;21,94079
 333,49; 6594,886;  193,725;29360,170;21,94701
 334,08; 6486,634;  191,879;28852,042;21,96343
 334,68; 6394,290;  183,879;28470,875;21,95500
 335,27; 6335,706;  207,646;28061,551;22,00072
 335,86; 6328,070;  242,264;27758,670;22,11701
 336,46; 6244,648;  198,954;27412,880;22,21544
 337,05; 6203,428;  184,956;27302,884;22,19370
 337,65; 6183,996;  173,264;27034,230;22,37720
 338,24; 6273,817;  222,955;27085,038;22,52566
 338,83; 6217,053;  204,801;26985,781;22,44971
 339,43; 6265,250;  176,264;27007,948;22,69327
 340,02; 6232,030;  172,418;26819,350;22,74037
 340,61; 6250,100;  199,263;26869,734;22,68740
 341,21; 6313,296;  221,726;26907,986;22,82662
 341,80; 6377,376;  192,418;26842,333;23,20817
 342,40; 6387,228;  190,108;26908,012;23,19463
 342,99; 6427,564;  183,262;27124,927;23,17712
 343,58; 6559,484;  174,416;27215,521;23,61245
 344,18; 6616,355;  202,031;27425,670;23,56159
 344,77; 6782,758;  168,342;27631,055;24,08508
 345,36; 6870,949;  170,187;27880,046;24,18187
 345,96; 7008,896;  209,878;28225,999;24,26824
 346,55; 7123,996;  160,414;28529,653;24,54624
 347,14; 7281,500;  170,415;28847,768;24,79686
 347,74; 7446,921;  151,567;29286,025;25,04029
 348,33; 7659,094;  183,259;29809,653;25,23370
 348,92; 7927,511;  191,412;30461,670;25,55676
 349,52; 8116,934;  163,028;30981,773;25,80866
 350,11; 8264,811;  178,495;31156,136;26,10372
 350,70; 8354,520;  172,955;31370,055;26,22540
 351,29; 8326,799;  167,652;30998,482;26,46425
 351,89; 8428,399;  189,035;31043,016;26,70438
 352,48; 8527,248;  165,263;31080,991;27,04767
 353,07; 8628,557;  199,877;31018,525;27,34929
 353,67; 8675,164;  208,720;30924,636;27,56370
 354,26; 8660,360;  182,492;30742,969;27,74128
 354,85; 8707,769;  191,185;30553,794;28,04958
 355,45; 8737,477;  167,879;30387,704;28,35754
 356,04; 8844,813;  176,107;30300,521;28,77635
 356,63; 8877,430;  215,340;30143,683;28,94276
 357,22; 8928,246;  184,651;30004,914;29,32099
 357,82; 8969,493;  184,881;29789,615;29,67300
 358,41; 9025,158;  207,109;29677,551;29,92167
 359,00; 9063,340;  180,264;29523,687;30,27280
 359,60; 9103,957;  188,647;29385,452;30,53522
 360,19; 9167,892;  205,415;29244,627;30,86336
 360,78; 9232,969;  184,264;29115,982;31,27607
 361,37; 9224,332;  188,187;28952,632;31,41429
 361,97; 9269,532;  189,109;28871,525;31,65850
 362,56; 9293,434;  180,034;28572,824;32,09759
 363,15; 9353,076;  252,264;28254,174;32,50068
 363,74; 9315,404;  192,265;27927,153;32,89409
 364,34; 9299,964;  213,341;27511,914;33,28607
 364,93; 9196,074;  173,573;27122,042;33,48057
 365,52; 9139,917;  144,571;26657,209;33,92852
 366,11; 9074,046;  182,803;26510,580;33,77134
 366,71; 9049,829;  182,726;26033,397;34,30125
 367,30; 9005,845;  202,264;25600,875;34,66166
 367,89; 9055,701;  220,031;25410,251;35,07579
 368,48; 9011,514;  196,957;25136,221;35,34409
 369,07; 8931,366;  201,417;24677,978;35,66657
 369,67; 8909,223;  219,342;24411,221;35,92065
 370,26; 8818,784;  180,417;24057,200;36,17894
 370,85; 8831,134;  189,341;23916,469;36,42157
 371,44; 8791,757;  192,802;23630,935;36,68788
 372,03; 8797,209;  167,726;23441,884;37,07753
 372,63; 8716,095;  160,494;23097,204;37,30091
 373,22; 8677,600;  185,186;22806,076;37,54235
 373,81; 8636,889;  157,648;22493,499;37,96247
 374,40; 8646,945;  178,416;22326,768;38,23548
 374,99; 8553,238;  178,110;21951,247;38,46542
 375,59; 8521,613;  171,877;21685,465;38,81145
 376,18; 8553,977;  212,187;21588,978;39,02265
 376,77; 8510,460;  201,109;21345,961;39,29728
 377,36; 8583,939;  220,648;21386,559;39,51302
 377,95; 8527,016;  206,495;21008,080;39,99946
 378,55; 8493,915;  175,185;20865,482;40,20595
 379,14; 8541,848;  198,341;20764,435;40,56924
 379,73; 8563,126;  188,341;20679,533;40,87017
 380,32; 8645,545;  199,648;20785,187;41,02830
 380,91; 8613,204;  168,265;20505,662;41,52419
 381,50; 8662,028;  197,726;20493,781;41,70417
 382,10; 8623,545;  188,033;20415,495;41,70327
 382,69; 8681,730;  166,187;20415,140;42,05424
 383,28; 8726,428;  212,957;20278,243;42,42886
 383,87; 8727,786;  180,803;20158,687;42,78222
 384,46; 8719,540;  164,035;20098,191;42,91882
 385,05; 8721,475;  202,188;20130,657;42,74933
 385,64; 8730,662;  191,111;20107,273;42,87749
 386,24; 8825,661;  157,881;20034,508;43,60790
 386,83; 8855,246;  202,035;20097,307;43,49381
 387,42; 8924,618;  198,034;20214,495;43,59704
 388,01; 9079,220;  204,421;20376,102;43,99633
 388,60; 9182,724;  191,573;20645,700;43,95763
 389,19; 9344,916;  173,731;20876,619;44,29906
 389,78; 9452,872;  179,730;21079,542;44,36950
 390,37; 9758,873;  245,651;21567,854;44,61650
 390,96; 9791,103;  187,497;21720,102;44,60030
 391,56; 9916,832;  195,116;21867,529;44,85756
 392,15;10035,564;  177,961;22123,550;44,91838
 392,74;10134,674;  165,656;22259,956;45,12032
 393,33;10330,620;  183,347;22620,311;45,22570
 393,92;10573,645;  189,427;22947,576;45,62857
 394,51;10646,678;  169,347;23210,674;45,47191
 395,10;10819,338;  202,353;23428,230;45,71188
 395,69;10875,815;  187,122;23572,315;45,70710
 396,28;10996,416;  193,046;23641,657;46,07254
 396,87;11058,850;  200,741;23763,072;46,08249
 397,46;11127,393;  198,128;23866,734;46,17621
 398,06;11248,766;  212,746;24134,695;46,13345
 398,65;11291,063;  191,828;24181,618;46,26649
 399,24;11431,012;  208,906;24321,503;46,54043
 399,83;11365,783;  171,684;24319,059;46,35742
 400,42;11495,225;  215,999;24455,828;46,53179
 401,01;11559,477;  189,315;24579,165;46,61842
 401,60;11615,447;  200,942;24618,383;46,74735
 402,19;11575,261;  214,489;24606,438;46,57591
 402,78;11556,352;  214,888;24515,643;46,67124
 403,37;11530,389;  204,440;24392,169;46,82519
 403,96;11474,924;  205,994;24258,463;46,85145
 404,55;11444,364;  213,319;24201,147;46,81977
 405,14;11343,973;  189,797;24097,719;46,65473
 405,73;11312,153;  211,200;24017,330;46,63065
 406,32;11303,624;  210,366;23847,172;46,93213
 406,91;11186,646;  205,150;23610,749;46,91824
 407,50;11170,445;  210,619;23473,501;47,11293
 408,09;11055,441;  179,317;23120,120;47,40952
 408,68;11006,121;  198,628;23067,402;47,25873
 409,27;10915,624;  183,854;22837,885;47,37245
 409,86;10827,144;  192,997;22744,676;47,15457
 410,45;10809,769;  221,449;22600,509;47,31352
 411,04;10776,312;  227,516;22570,531;47,21295
 411,63;10597,852;  214,426;22318,946;46,97422
 412,22;10569,148;  220,876;22082,741;47,33481
 412,81;10415,224;  216,872;21846,497;47,14992
 413,40;10235,159;  232,559;21486,489;47,06235
 413,99;10104,688;  276,330;21131,343;47,12707
 414,58; 9889,893;  198,868;20717,382;47,23064
 415,17; 9783,971;  202,718;20540,377;47,11089
 415,76; 9675,215;  198,723;20346,860;47,03408
 416,35; 9550,718;  185,874;20116,937;46,98617
 416,94; 9632,428;  225,568;20175,971;47,15123
 417,53; 9690,655;  207,257;20432,621;46,88864
 418,12; 9739,706;  206,948;20476,583;47,02975
 418,71; 9897,966;  218,021;20830,454;46,96168
 419,30; 9949,395;  200,024;21000,647;46,87057
 419,89; 9992,359;  184,639;21139,429;46,80419
 420,48;10158,804;  222,405;21442,613;46,82517
 421,07;10186,572;  216,251;21448,407;46,95859
 421,66;10192,254;  184,941;21541,095;46,85915
 422,25;10204,961;  205,167;21438,937;47,09382
 422,84;10178,120;  224,397;21543,476;46,68927
 423,43;10057,322;  212,168;21238,301;46,82342
 424,02; 9902,168;  231,628;21043,172;46,46719
 424,60; 9705,124;  201,392;20533,831;46,74172
 425,19; 9549,228;  211,703;20236,510;46,62979
 425,78; 9466,612;  217,626;20175,442;46,34268
 426,37; 9396,872;  232,085;20050,925;46,24280
 426,96; 9356,388;  206,624;19918,959;46,41644
 427,55; 9262,781;  199,467;19767,762;46,31632
 428,14; 9144,090;  195,158;19549,673;46,23692
 428,73; 9032,831;  216,929;19338,557;46,10435
 429,32; 9046,320;  218,470;19324,100;46,20549
 429,91; 9023,793;  226,160;19366,831;45,96303
 430,50; 8989,250;  228,466;19204,852;46,16677
 431,08; 8876,910;  231,772;19005,087;46,05014
 431,67; 8818,294;  263,463;18962,207;45,75083
 432,26; 8801,015;  269,923;18770,057;46,11367
 432,85; 8608,669;  291,770;18411,160;45,90055
 433,44; 8418,478;  305,845;18063,668;45,68484
 434,03; 8302,631;  316,149;17727,545;45,86928
 434,62; 8021,453;  271,614;17264,989;45,60506
 435,21; 7952,229;  287,923;17079,211;45,64454
 435,79; 7833,336;  290,535;16870,613;45,49316
 436,38; 7774,009;  276,994;16773,698;45,44553
 436,97; 7775,055;  282,686;16719,515;45,58282
 437,56; 7673,617;  278,143;16522,498;45,52642
 438,15; 7592,525;  260,837;16400,241;45,42725
 438,74; 7604,228;  274,067;16463,122;45,27850
 439,33; 7586,269;  249,683;16410,092;45,39852
 439,91; 7597,468;  217,450;16527,489;45,24832
 440,50; 7671,715;  264,835;16518,258;45,57120
 441,09; 7715,070;  270,832;16642,156;45,47120
 441,68; 7646,087;  245,445;16657,322;45,09321
 442,27; 7647,371;  230,908;16633,609;45,21489
 442,86; 7593,459;  205,057;16680,985;44,84362
 443,44; 7687,548;  221,288;16739,976;45,19887
 444,03; 7708,750;  301,826;16785,378;44,93525
 444,62; 7587,506;  224,441;16606,793;44,94510
 445,21; 7515,298;  230,442;16478,895;44,83415
 445,80; 7489,325;  261,747;16379,635;44,84197
 446,39; 7407,218;  281,055;16095,117;45,06219
 446,97; 7239,726;  220,128;15973,656;44,55890
 447,56; 7110,010;  225,126;15675,759;44,56053
 448,15; 7025,427;  227,205;15514,190;44,47065
 448,74; 6949,440;  236,128;15319,861;44,50697
 449,33; 6872,279;  225,588;15159,938;44,50606
 449,91; 6745,406;  221,893;14881,259;44,50065
 450,50; 6634,818;  218,893;14701,182;44,30187
 451,09; 6591,258;  228,662;14577,224;44,34309
 451,68; 6533,369;  246,815;14526,502;44,02445
 452,26; 6502,591;  243,891;14416,541;44,16041
 452,85; 6413,308;  232,045;14236,357;44,13828
 453,44; 6406,706;  249,734;14298,998;43,82416
 454,03; 6369,403;  215,659;14234,959;43,89480
 454,61; 6370,434;  215,426;14233,712;43,90699
 455,20; 6445,298;  237,194;14401,613;43,82886
 455,79; 6399,695;  247,196;14396,801;43,48177
 456,38; 6466,716;  239,115;14480,917;43,72762
 456,97; 6451,599;  231,885;14521,528;43,52603
 457,55; 6429,748;  217,114;14533,011;43,39675
 458,14; 6465,569;  253,039;14534,934;43,49934
 458,73; 6423,860;  238,575;14474,263;43,44915
 459,31; 6389,518;  268,650;14548,340;42,86415
 459,90; 6477,283;  266,190;14576,024;43,40437
 460,49; 6527,363;  332,190;14714,566;43,07475
 461,08; 6437,294;  225,418;14821,831;42,55755
 461,66; 6496,534;  233,881;14804,485;42,98142
 462,25; 6532,933;  237,571;14858,391;43,05752
 462,84; 6542,791;  271,341;14942,699;42,74621
 463,43; 6489,137;  203,107;14914,396;42,72929
 464,01; 6488,872;  227,875;14922,900;42,60624
 464,60; 6498,396;  289,108;14916,310;42,45028
 465,19; 6344,814;  203,644;14633,323;42,55930
 465,77; 6340,420;  234,488;14644,208;42,37370
 466,36; 6331,997;  253,876;14500,596;42,66330
 466,95; 6126,304;  235,491;14160,297;42,30445
 467,53; 6029,001;  231,256;13904,259;42,40286
 468,12; 5896,607;  264,718;13623,195;42,15967
 468,71; 5746,876;  232,643;13386,361;41,92148
 469,29; 5661,173;  209,102;13108,374;42,26650
 469,88; 5538,798;  221,793;12873,810;42,02496
 470,47; 5599,068;  281,329;13000,088;41,81020
 471,06; 5529,835;  237,022;12947,067;41,64276
 471,64; 5582,269;  233,792;13032,571;41,78897
 472,23; 5561,927;  217,710;13049,729;41,64752
 472,81; 5574,319;  210,405;13158,182;41,42730
 473,40; 5614,191;  228,710;13282,644;41,25562
 473,99; 5798,372;  320,172;13507,891;41,54017
 474,57; 5731,809;  231,864;13569,434;41,23649
 475,16; 5779,511;  244,173;13707,849;41,11313
 475,75; 5874,190;  246,093;13878,533;41,28459
 476,33; 5858,540;  249,861;13953,439;40,92857
 476,92; 5858,685;  256,018;14004,336;40,75166
 477,51; 5874,859;  251,939;14140,131;40,48706
 478,09; 5868,760;  247,631;14150,857;40,43039
 478,68; 5819,471;  258,938;14016,819;40,41708
 479,27; 5868,250;  283,401;14136,618;40,31446
 479,85; 5824,565;  253,092;14043,426;40,40129
 480,44; 5860,558;  230,937;14183,015;40,34969
 481,02; 6335,068;  256,397;15469,503;39,95680
 481,61; 7118,538;  276,706;17579,866;39,54094
 482,20; 7598,136;  254,936;18794,122;39,60908
 482,78; 7912,454;  289,553;19617,836;39,43910
 483,37; 8119,829;  275,010;20203,289;39,36526
 483,95; 8204,790;  300,395;20526,956;39,07929
 484,54; 8304,349;  310,629;20749,998;39,10943
 485,13; 8178,283;  271,931;20638,075;38,82105
 485,71; 8070,265;  248,932;20437,114;38,74213
 486,30; 8002,243;  292,932;20118,225;38,88624
 486,88; 7872,272;  339,393;19756,357;38,79535
 487,47; 7607,071;  305,469;18999,951;39,05752
 488,05; 7202,079;  299,930;18136,204;38,69726
 488,64; 6686,610;  282,236;16822,511;38,71988
 489,23; 6014,592;  309,545;14968,763;38,91781
 489,81; 5055,188;  293,544;12807,451;38,05081
 490,40; 4790,424;  247,698;12153,204;38,15651
 490,98; 4664,615;  242,851;11883,187;37,98657
 491,57; 4660,894;  268,775;11811,644;38,05049
 492,15; 4585,538;  249,774;11741,426;37,72969
 492,74; 4551,285;  269,622;11602,755;37,78004
 493,32; 4489,731;  278,159;11485,375;37,57911
 493,91; 4449,265;  253,927;11425,618;37,55330
 494,50; 4406,883;  258,078;11390,601;37,26743
 495,08; 4361,845;  238,001;11299,943;37,27957
 495,67; 4385,999;  266,389;11347,058;37,17835
 496,25; 4252,775;  210,002;11181,105;36,84928
 496,84; 4257,897;  223,158;11147,524;36,93340
 497,42; 4247,326;  213,232;11127,631;36,96121
 498,01; 4199,944;  252,004;11103,571;36,38129
 498,59; 4169,593;  216,232;11009,652;36,62750
 499,18; 4120,435;  219,850;10958,695;36,32221
 499,76; 4117,074;  243,310;10887,110;36,39456
 500,35; 4009,654;  235,923;10681,110;36,12890
 500,93; 3957,406;  225,617;10649,729;35,79959
 501,52; 3924,447;  227,463;10557,033;35,79030
 502,10; 3920,708;  229,922;10562,332;35,72048
 502,69; 3833,004;  226,536;10390,879;35,48156
 503,27; 3749,342;  213,308;10160,811;35,54695
 503,86; 3726,952;  226,690;10117,319;35,38968
 504,44; 3592,731;  198,920; 9980,832;34,69476
 505,03; 3540,745;  189,612; 9763,187;35,00399
 505,61; 3477,413;  214,305; 9626,644;34,66841
 506,19; 3409,775;  228,305; 9506,148;34,29106
 506,78; 3311,174;  197,995; 9318,823;34,13264
 507,36; 3260,910;  202,305; 9169,435;34,10908
 507,95; 3210,849;  206,609; 8967,935;34,28979
 508,53; 3138,015;  200,457; 8839,080;34,00494
 509,12; 3065,627;  219,917; 8732,153;33,43081
 509,70; 3051,159;  233,301; 8577,503;33,77025
 510,29; 2989,664;  242,531; 8439,392;33,51445
 510,87; 2850,911;  205,533; 8183,986;33,15652
 511,46; 2847,682;  189,533; 8086,332;33,66110
 512,04; 2744,590;  205,686; 7932,627;32,85782
 512,62; 2719,968;  209,918; 7792,058;33,10477
 513,21; 2653,507;  196,454; 7627,370;33,06528
 513,79; 2596,660;  203,297; 7534,648;32,64560
 514,38; 2531,892;  191,990; 7356,845;32,65805
 514,96; 2534,387;  225,683; 7260,366;32,81888
 515,54; 2433,977;  189,990; 7101,935;32,46535
 516,13; 2405,831;  216,759; 7077,247;31,90841
 516,71; 2368,607;  199,219; 6900,285;32,37378
 517,30; 2268,073;  189,602; 6777,909;31,54787
 517,88; 2283,488;  217,833; 6696,640;31,88326
 518,46; 2197,004;  189,756; 6589,999;31,36206
 519,05; 2182,371;  202,139; 6529,725;31,29522
 519,63; 2157,237;  208,063; 6461,883;31,16773
 520,22; 2164,444;  236,291; 6396,901;31,29808
 520,80; 2085,320;  208,599; 6356,563;30,52589
 521,38; 2102,695;  249,677; 6324,495;30,50326
 521,97; 2030,148;  209,598; 6288,674;29,94782
 522,55; 2057,800;  221,444; 6249,687;30,46253
 523,13; 2028,431;  193,905; 6226,473;30,41036
 523,72; 2002,803;  201,756; 6181,499;30,11915
 524,30; 2045,779;  226,366; 6308,794;29,91261
 524,89; 1977,871;  189,905; 6273,875;29,38814
 525,47; 2035,188;  223,134; 6436,029;29,16601
 526,05; 2013,286;  185,826; 6496,311;28,95911
 526,64; 2021,544;  235,903; 6544,114;28,30662
 527,22; 2053,042;  223,904; 6686,717;28,30251
 527,80; 2096,610;  252,441; 6790,704;28,20579
 528,39; 2067,269;  215,440; 6899,738;27,70415
 528,97; 2095,475;  217,518; 7022,426;27,59710
 529,55; 2163,689;  229,520; 7231,490;27,62321
 530,14; 2188,611;  228,209; 7420,922;27,25540
 530,72; 2168,145;  213,672; 7478,076;26,90480
 531,30; 2172,334;  183,747; 7650,123;26,63389
 531,89; 2196,076;  206,363; 7726,644;26,45796
 532,47; 2257,685;  243,593; 7835,225;26,53042
 533,05; 2260,247;  239,903; 7874,131;26,46429
 533,63; 2238,056;  234,747; 7890,418;26,16765
 534,22; 2231,097;  205,131; 7928,713;26,23091
 534,80; 2261,095;  238,822; 8044,909;25,90636
 535,38; 2353,943;  320,516; 8141,619;25,99924
 535,97; 2228,844;  210,516; 8068,277;25,68579
 536,55; 2254,293;  273,514; 8157,157;25,12517
 537,13; 2216,631;  276,440; 8150,866;24,63914
 537,71; 2264,139;  310,132; 8166,896;24,87038
 538,30; 2248,489;  325,669; 8256,648;24,24442
 538,88; 2294,671;  354,052; 8327,755;24,33774
 539,46; 2338,054;  408,899; 8514,845;23,79926
 540,05; 2339,935;  403,975; 8620,114;23,56289
 540,63; 2376,647;  457,975; 8814,059;22,96137
 541,21; 2407,212;  482,589; 8956,486;22,71236
 541,79; 2439,261;  507,436; 9126,469;22,41348
 542,38; 2461,059;  539,360; 9204,913;22,17630
 542,96; 2496,686;  556,588; 9376,337;21,99720
 543,54; 2547,657;  570,282; 9579,255;21,94895
 544,12; 2525,387;  529,435; 9696,845;21,77226
 544,70; 2558,389;  511,204; 9855,285;21,90890
 545,29; 2579,358;  522,668; 9943,533;21,83123
 545,87; 2593,877;  520,743; 9958,777;21,96573
 546,45; 2531,782;  476,206; 9995,260;21,59433
 547,03; 2530,399;  450,282;10089,230;21,58033
 547,62; 2544,635;  417,974;10221,298;21,69326
 548,20; 2581,977;  428,819;10364,644;21,67065
 548,78; 2594,581;  388,124;10462,580;21,90150
 549,36; 2596,274;  369,740;10717,879;21,51628
 549,94; 2580,541;  330,820;10753,931;21,58397
 550,53; 2608,244;  327,432;11007,285;21,35621
 551,11; 2619,106;  309,508;11176,781;21,25278
 551,69; 2672,087;  320,355;11465,273;21,10139
 552,27; 2667,918;  271,818;11710,093;20,94809
 552,85; 2727,281;  280,585;12103,593;20,69437
 553,44; 2765,711;  286,663;12378,961;20,50105
 554,02; 2811,356;  300,124;12654,093;20,32733
 554,60; 2771,891;  233,585;12918,320;20,01072
 555,18; 2886,862;  265,355;13307,016;20,10102
 555,76; 2943,601;  260,893;13653,371;20,03145
 556,34; 2976,206;  275,430;13991,273;19,69092
 556,93; 3039,768;  262,201;14388,948;19,66176
 557,51; 3063,365;  232,891;14755,170;19,49056
 558,09; 3138,650;  265,740;15098,345;19,36889
 558,67; 3177,265;  261,429;15430,691;19,22201
 559,25; 3184,629;  270,968;15672,170;18,91840
 559,83; 3244,394;  237,582;16057,644;19,00632
 560,41; 3274,712;  243,199;16329,657;18,84512
 561,00; 3319,985;  255,967;16659,478;18,67904
 561,58; 3362,959;  238,584;16947,418;18,69894
 562,16; 3379,685;  242,969;17243,768;18,45040
 562,74; 3387,628;  223,508;17582,388;18,22767
 563,32; 3456,647;  210,043;18026,918;18,22207
 563,90; 3507,202;  249,583;18359,508;17,98804
 564,48; 3566,141;  249,200;18754,734;17,92405
 565,06; 3640,263;  242,506;19298,508;17,83038
 565,65; 3767,631;  246,888;19959,760;17,86012
 566,23; 3891,719;  296,736;20662,926;17,65172
 566,81; 3967,112;  245,660;21389,059;17,60101
 567,39; 4111,847;  256,197;22319,811;17,47515
 567,97; 4213,917;  266,198;22873,619;17,46205
 568,55; 4372,075;  280,582;23783,234;17,40865
 569,13; 4462,032;  243,813;24431,824;17,43930
 569,71; 4594,323;  243,893;25404,965;17,29032
 570,29; 4769,623;  278,893;26342,713;17,22974
 570,87; 4864,260;  285,354;27066,849;17,09727
 571,45; 4909,617;  267,198;27717,085;16,91234
 572,03; 4931,489;  235,274;28116,067;16,84391
 572,61; 5030,468;  222,274;28951,153;16,73645
 573,20; 5148,398;  257,430;29551,008;16,69638
 573,78; 5205,507;  243,890;30118,426;16,60818
 574,36; 5282,306;  262,505;30688,687;16,49829
 574,94; 5352,055;  321,427;31016,324;16,38913
 575,52; 5278,309;  249,810;31214,294;16,23957
 576,10; 5398,243;  303,887;31765,832;16,19212
 576,68; 5451,371;  298,581;32340,773;16,08127
 577,26; 5500,429;  307,963;33090,559;15,83909
 577,84; 5605,177;  313,198;33542,837;15,92548
 578,42; 5639,420;  358,965;33877,397;15,75388
 579,00; 5561,520;  313,197;33915,396;15,61899
 579,58; 5591,508;  358,042;34096,174;15,51202
 580,16; 5489,637;  308,195;34110,435;15,32869
 580,74; 5487,213;  316,195;34375,401;15,18244
 581,32; 5468,426;  322,273;34369,747;15,11464
 581,90; 5430,030;  329,272;34303,123;15,01377
 582,48; 5381,650;  328,272;34453,713;14,80824
 583,06; 5364,066;  318,273;34590,426;14,72272
 583,64; 5338,720;  324,889;34648,614;14,60748
 584,22; 5237,712;  342,040;34468,170;14,34582
 584,80; 5162,733;  336,965;34092,063;14,29641
 585,38; 5093,852;  355,353;33784,696;14,17467
 585,96; 5003,506;  315,735;33751,666;14,02016
 586,54; 4952,581;  348,733;33736,897;13,78886
 587,12; 4921,842;  309,118;33973,303;13,70217
 587,70; 4913,468;  337,812;34128,093;13,54134
 588,28; 4876,172;  313,272;34026,730;13,53436
 588,86; 4900,603;  321,502;34187,085;13,52140
 589,44; 4805,274;  299,423;34186,969;13,29648
 590,02; 4797,294;  309,347;34351,666;13,18343
 590,59; 4751,974;  284,964;34578,662;13,02575
 591,17; 4742,407;  303,729;34693,392;12,90701
 591,75; 4732,430;  278,884;34799,016;12,90130
 592,33; 4753,164;  308,962;35008,140;12,80780
 592,91; 4697,300;  255,499;35236,029;12,69792
 593,49; 4735,535;  267,883;35565,798;12,65699
 594,07; 4719,544;  287,883;35788,794;12,48323
 594,65; 4745,122;  300,271;35772,234;12,53060
 595,23; 4696,275;  283,270;36175,414;12,29518
 595,81; 4704,444;  296,116;36321,884;12,23660
 596,39; 4689,378;  287,423;36461,525;12,16880
 596,97; 4712,965;  275,576;36559,935;12,22948
 597,55; 4652,753;  274,194;36480,627;12,09332
 598,12; 4597,475;  245,497;36512,422;11,99985
 598,70; 4604,061;  245,191;36662,042;11,96938
 599,28; 4611,563;  283,268;36867,952;11,83090
 599,86; 4611,693;  254,499;36829,033;11,91319
 600,44; 4590,225;  241,883;36966,538;11,84039
 601,02; 4600,643;  294,496;36932,542;11,75321
 601,60; 4558,422;  272,500;36973,021;11,67810
 602,18; 4517,387;  247,113;36930,397;11,64093
 602,75; 4475,714;  250,654;37065,533;11,47650
 603,33; 4507,437;  264,960;37078,508;11,52423
 603,91; 4439,518;  243,035;37002,533;11,41605
 604,49; 4442,330;  282,883;37014,085;11,32402
 605,07; 4418,221;  284,884;37183,136;11,20199
 605,65; 4429,821;  295,267;37189,832;11,20640
 606,23; 4440,979;  350,041;37287,012;11,07546
 606,80; 4407,148;  384,885;37392,670;10,86869
 607,38; 4379,197;  421,958;37380,170;10,70733
 607,96; 4393,002;  461,808;37486,820;10,61767
 608,54; 4431,486;  524,959;37474,354;10,57264
 609,12; 4409,497;  539,270;37559,580;10,45433
 609,70; 4404,121;  571,960;37639,811;10,33823
 610,27; 4380,601;  564,655;37785,358;10,25222
 610,85; 4388,753;  585,114;37749,956;10,23451
 611,43; 4358,509;  582,806;37736,841;10,16229
 612,01; 4298,024;  548,577;37484,273;10,15128
 612,59; 4265,108;  556,806;37576,841;10,01701
 613,16; 4248,663;  524,194;37437,341;10,08982
 613,74; 4206,632;  490,268;37386,495;10,07248
 614,32; 4198,134;  458,882;37316,730;10,14506
 614,90; 4183,982;  435,038;37231,995;10,18819
 615,48; 4146,382;  373,040;36866,751;10,33971
 616,05; 4111,745;  343,348;36856,845;10,32056
 616,63; 4078,493;  365,733;36721,862;10,21220
 617,21; 4056,357;  348,193;36611,311;10,22572
 617,79; 4060,356;  343,885;36569,405;10,25926
 618,36; 4027,578;  342,807;36469,119;10,19969
 618,94; 3917,769;  295,886;36158,627;10,09929
 619,52; 3941,627;  312,425;35846,388;10,21333
 620,10; 3878,027;  292,039;35860,123;10,08204
 620,67; 3880,150;  298,349;35807,388;10,08701
 621,25; 3906,869;  324,807;35706,204;10,12414
 621,83; 3833,398;  303,117;35599,982;10,00169
 622,41; 3890,569;  359,501;35657,281;10,00365
 622,98; 3817,732;  317,503;35302,550;10,00493
 623,56; 3807,340;  318,272;35275,700; 9,98090
 624,14; 3774,339;  306,191;35161,063; 9,95025
 624,72; 3733,574;  301,424;35078,179; 9,86909
 625,29; 3777,458;  285,810;35174,072;10,00809
 625,87; 3787,384;  332,731;35105,191; 9,93503
 626,45; 3728,312;  287,042;34915,213; 9,93778
 627,02; 3698,562;  292,346;34950,879; 9,82793
 627,60; 3718,003;  271,267;34878,764; 9,95950
 628,18; 3668,728;  258,270;34918,965; 9,83955
 628,76; 3694,924;  265,041;34954,439; 9,88741
 629,33; 3690,012;  292,963;34885,867; 9,82007
 629,91; 3700,796;  276,962;34917,431; 9,88391
 630,49; 3709,215;  291,117;35059,687; 9,83100
 631,06; 3712,130;  289,195;35196,452; 9,80580
 631,64; 3706,889;  288,888;35120,640; 9,81289
 632,22; 3658,824;  248,811;35036,563; 9,80234
 632,79; 3753,788;  282,427;35309,704; 9,91045
 633,37; 3711,183;  252,577;35401,709; 9,83981
 633,95; 3715,370;  262,657;35488,114; 9,80176
 634,52; 3732,198;  246,578;35618,944; 9,85408
 635,10; 3749,472;  264,039;35689,738; 9,83871
 635,68; 3750,068;  264,504;35817,610; 9,80383
 636,25; 3746,677;  248,351;35772,503; 9,84774
 636,83; 3743,924;  228,964;35999,593; 9,82639
 637,41; 3755,580;  249,273;36041,354; 9,79632
 637,98; 3801,953;  283,504;36243,636; 9,78431
 638,56; 3795,644;  264,044;36299,657; 9,80031
 639,13; 3829,301;  242,349;36295,589; 9,94904
 639,71; 3894,660;  312,810;36469,841; 9,90637
 640,29; 3792,132;  224,194;36269,643; 9,89844
 640,86; 3834,211;  241,348;36562,378; 9,89196
 641,44; 3821,060;  240,810;36416,421; 9,89686
 642,02; 3851,217;  268,117;36501,617; 9,88891
 642,59; 3826,297;  241,117;36507,968; 9,88556
 643,17; 3843,069;  242,656;36583,780; 9,90727
 643,74; 3869,918;  243,425;36595,976; 9,97590
 644,32; 3859,691;  270,809;36562,865; 9,88889
 644,89; 3896,924;  263,963;36575,523;10,00497
 645,47; 3883,312;  266,886;36564,951; 9,96314
 646,05; 3875,776;  263,502;36439,147; 9,98538
 646,62; 3896,702;  248,117;36521,421;10,05860
 647,20; 3920,705;  254,732;36625,464;10,07946
 647,77; 3909,477;  233,271;36563,429;10,11888
 648,35; 3912,019;  230,886;36454,011;10,16238
 648,92; 3920,253;  254,040;36523,592;10,10824
 649,50; 3881,025;  220,886;36442,327;10,10490
 650,08; 3892,181;  220,886;36275,985;10,18246
 650,65; 3951,338;  236,039;36535,335;10,23518
 651,23; 3994,880;  213,193;37329,378;10,18878
 651,80; 4165,652;  217,193;38230,959;10,38692
 652,38; 4225,501;  230,809;38683,233;10,38866
 652,95; 4301,196;  216,885;39039,891;10,52034
 653,53; 4364,199;  243,116;39355,241;10,53659
 654,10; 4406,433;  269,347;39470,284;10,55354
 654,68; 4375,436;  215,885;39351,865;10,62846
 655,25; 4329,746;  215,577;39531,139;10,46448
 655,83; 4347,442;  211,654;39701,489;10,47304
 656,40; 4407,137;  262,347;39471,994;10,57084
 656,98; 4404,524;  218,116;39510,806;10,65442
 657,55; 4353,835;  228,039;39312,694;10,55605
 658,13; 4326,223;  223,423;38933,891;10,59868
 658,70; 4335,610;  250,500;38701,780;10,62412
 659,28; 4236,613;  231,192;37787,977;10,66497
 659,85; 4139,078;  247,962;36911,327;10,61309
 660,43; 4183,311;  245,577;37010,600;10,71054
 661,00; 4185,930;  217,038;37113,336;10,75688
 661,58; 4219,163;  226,808;37430,224;10,73115
 662,15; 4219,397;  214,038;37623,575;10,70679
 662,73; 4355,938;  296,269;37994,771;10,76878
 663,30; 4330,788;  233,346;38122,814;10,81420
 663,88; 4367,944;  238,115;38285,165;10,85453
 664,45; 4423,640;  221,192;38475,515;10,98555
 665,03; 4473,489;  225,192;38934,096;10,97499
 665,60; 4630,799;  315,961;39296,524;11,06920
 666,17; 4568,341;  231,730;39435,643;11,06168
 666,75; 4646,497;  237,884;39837,917;11,13285
 667,32; 4710,500;  257,422;40136,652;11,16641
 667,90; 4721,426;  248,576;40373,925;11,14719
 668,47; 4829,583;  254,268;40711,507;11,30901
 669,05; 4828,509;  238,422;41041,319;11,24941
 669,62; 4863,820;  215,268;41094,207;11,37151
 670,19; 4887,361;  207,576;41221,096;11,41035
 670,77; 4917,518;  225,191;41436,831;11,38593
 671,34; 4959,598;  222,653;41280,489;11,53725
 671,92; 5024,139;  223,268;41671,994;11,58268
 672,49; 5005,835;  249,114;41653,036;11,48857
 673,06; 5008,607;  180,576;41684,848;11,63261
 673,64; 5036,456;  209,037;41721,814;11,62875
 674,21; 5049,613;  198,806;41601,780;11,71608
 674,79; 5165,539;  237,498;41879,361;11,83434
 675,36; 5164,618;  243,345;41950,096;11,79971
 675,93; 5186,314;  207,883;41798,447;11,97010
 676,51; 5210,086;  233,883;41996,797;11,91536
 677,08; 5237,473;  238,267;42145,609;11,92919
 677,65; 5254,707;  227,344;42244,575;11,96500
 678,23; 5340,941;  235,806;42378,002;12,11407
 678,80; 5334,405;  226,344;42468,276;12,09239
 679,38; 5407,562;  215,421;42651,934;12,23508
 679,95; 5485,411;  226,498;42874,669;12,33092
 680,52; 5497,337;  226,806;43211,404;12,26144
 681,10; 5638,802;  242,344;43619,908;12,44067
 681,67; 5668,112;  240,652;43908,336;12,42901
 682,24; 5689,961;  205,882;43960,840;12,53362
 682,82; 5817,734;  215,113;44518,267;12,64610
 683,39; 5919,352;  261,805;44947,541;12,66074
 683,96; 5968,509;  228,113;45163,353;12,77482
 684,54; 6019,896;  214,882;45566,549;12,80000
 685,11; 6129,668;  261,574;45995,977;12,83081
 685,68; 6197,056;  220,343;46347,635;12,95700
 686,25; 6187,367;  209,574;46329,678;12,96136
 686,83; 6303,831;  224,266;46587,182;13,11299
 687,40; 6312,757;  205,805;46909,071;13,07607
 687,97; 6516,837;  262,882;47309,114;13,29321
 688,55; 6478,840;  212,266;47325,926;13,30097
 689,12; 6533,381;  191,728;47588,045;13,38006
 689,69; 6585,615;  201,497;47694,703;13,44217
 690,26; 6626,156;  218,035;47746,208;13,48278
 690,84; 6643,467;  217,112;48066,327;13,43043
 691,41; 6707,316;  228,343;48172,062;13,51371
 691,98; 6787,473;  228,189;48503,951;13,58712
 692,56; 6782,245;  220,650;48556,763;13,57493
 693,13; 6898,786;  276,573;48519,652;13,72676
 693,70; 6877,943;  239,343;48637,233;13,71671
 694,27; 6912,715;  216,419;48796,430;13,78406
 694,84; 6964,565;  213,189;48898,011;13,86752
 695,42; 7093,721;  261,650;49019,361;14,01229
 695,99; 7104,417;  217,727;49180,327;14,06520
 696,56; 7097,035;  216,496;49034,062;14,09439
 697,13; 7195,038;  232,650;49420,720;14,15463
 697,71; 7275,579;  209,727;49394,686;14,36588
 698,28; 7310,505;  217,727;49714,037;14,32991
 698,85; 7307,200;  199,727;49725,003;14,35120
 699,42; 7379,665;  202,342;49934,584;14,43193
 699,99; 7450,360;  240,803;50030,319;14,48007
 700,57; 7511,440;  232,342;50115,362;14,59234
 701,14; 7563,058;  206,573;50235,712;14,70440
 701,71; 7601,061;  232,803;50426,062;14,67978
 702,28; 7646,218;  229,034;50475,259;14,76167
 702,85; 7687,606;  224,495;50574,686;14,82241
 703,43; 7766,916;  251,342;50838,037;14,85682
 704,00; 7834,765;  245,726;50977,849;14,95904
 704,57; 7882,922;  235,188;51011,738;15,06155
 705,14; 7951,541;  252,880;51250,088;15,09624
 705,71; 8003,697;  259,880;51277,054;15,17884
 706,28; 7988,623;  231,880;51163,327;15,22977
 706,86; 8066,395;  260,187;51476,755;15,24157
 707,43; 8131,783;  289,957;51421,721;15,33651
 708,00; 8146,171;  259,803;51456,071;15,40419
 708,57; 8128,943;  234,956;51246,421;15,47493
 709,14; 8252,407;  261,879;51501,926;15,59430
 709,71; 8267,487;  241,572;51586,738;15,63130
 710,28; 8392,182;  236,418;51710,165;15,84451
 710,86; 8432,262;  244,725;51954,054;15,83377
 711,43; 8469,804;  267,495;51845,866;15,90261
 712,00; 8505,960;  249,494;51973,447;15,96256
 712,57; 8562,733;  261,802;52051,182;16,02825
 713,14; 8623,966;  234,417;52193,994;16,14630
 713,71; 8672,431;  246,802;52137,652;16,23721
 714,28; 8712,741;  235,033;52217,926;16,30865
 714,85; 8713,667;  221,110;51842,968;16,45148
 715,42; 8782,132;  225,417;52187,396;16,46726
 716,00; 8889,827;  300,033;52292,977;16,52108
 716,57; 8871,215;  233,263;52374,943;16,56631
 717,14; 8882,064;  211,725;52272,447;16,65428
 717,71; 8955,144;  212,725;52283,874;16,78937
 718,28; 9086,454;  265,955;52493,917;16,88846
 718,85; 9050,534;  204,955;52412,575;16,94308
 719,42; 9136,845;  241,878;52662,080;16,96859
 719,99; 9174,617;  219,571;52385,892;17,16634
 720,56; 9259,081;  243,417;52752,242;17,16981
 721,13; 9305,238;  217,032;52790,823;17,28657
 721,70; 9337,087;  203,724;52633,174;17,42029
 722,27; 9347,398;  232,186;52831,601;17,32949
 722,84; 9482,939;  288,493;52843,721;17,49483
 723,41; 9463,481;  208,032;52888,686;17,56897
 723,98; 9553,099;  221,570;53198,268;17,61440
 724,55; 9602,025;  256,724;53259,772;17,63163
 725,12; 9611,105;  181,185;53261,738;17,76530
 725,69; 9723,185;  208,570;53273,627;17,93009
 726,27; 9750,342;  221,570;53351,208;17,93495
 726,84; 9855,498;  233,031;53717,558;17,99112
 727,41; 9947,578;  241,262;53692,986;18,15903
 727,98; 9937,043;  235,493;53909,259;18,07503
 728,55;10071,892;  274,339;53881,456;18,27659
 729,12;10076,125;  209,185;54031,575;18,33241
 729,69;10171,821;  235,339;54118,464;18,44080
 730,26;10233,901;  239,108;54533,507;18,40852
 730,82;10279,134;  229,569;54254,781;18,60162
 731,39;10314,906;  229,031;54317,746;18,64691
 731,96;10378,832;  214,800;54680,251;18,66143
 732,53;10448,912;  236,185;54873,678;18,69179
 733,10;10524,761;  243,031;54889,028;18,81516
 733,67;10581,457;  236,184;55261,302;18,80100
 734,24;10548,537;  217,031;54871,499;18,90331
 734,81;10641,386;  259,492;54910,464;18,99672
 735,38;10616,389;  232,954;54665,661;19,07573
 735,95;10682,392;  228,107;54563,473;19,24029
 736,52;10718,856;  236,723;54779,823;19,21807
 737,09;10733,705;  248,646;54388,712;19,36654
 737,66;10845,708;  286,030;54600,140;19,44187
 738,23;10811,326;  226,030;54758,721;19,41092
 738,80;11005,175;  307,722;55002,148;19,55858
 739,37;11007,332;  261,645;55128,652;19,58497
 739,94;11085,874;  236,953;55163,387;19,75173
 740,51;11265,800;  366,338;55300,507;19,84095
 741,07;11168,341;  233,722;55208,781;19,89015
 741,64;11275,652;  273,107;55394,054;19,96073
 742,21;11342,732;  238,722;55571,558;20,06767
 742,78;11348,504;  213,030;55299,755;20,21444
 743,35;11436,507;  232,183;55646,105;20,21933
 743,92;11584,202;  280,876;55889,379;20,32661
 744,49;11565,820;  273,183;55738,191;20,35993
 745,06;11620,131;  230,568;55709,695;20,52946
 745,63;11574,441;  223,029;55595,276;20,50018
 746,19;11653,137;  227,183;55560,858;20,64919
 746,76;11670,063;  236,798;55580,516;20,65865
 747,33;11715,450;  243,183;55549,020;20,74332
 747,90;11802,453;  263,798;55781,140;20,78388
 748,47;11855,610;  240,875;55719,336;20,93558
 749,04;11892,536;  244,567;55769,148;20,97804
 749,61;11960,616;  279,183;55687,729;21,08237
 750,17;11960,080;  265,413;55746,234;21,07876
 750,74;12014,853;  251,875;55801,200;21,17573
 751,31;12042,548;  232,413;55590,319;21,33414
 751,88;11950,935;  216,336;55543,208;21,20958
 752,45;12092,092;  231,490;55604,251;21,41956
 753,02;12118,403;  260,413;55423,140;21,49638
 753,58;12124,713;  232,490;55410,875;21,55232
 754,15;12171,870;  219,028;55610,918;21,57869
 754,72;12175,719;  230,028;55382,806;21,65927
 755,29;12178,107;  221,721;55210,541;21,74330
 755,86;12232,417;  253,490;55419,430;21,71435
 756,42;12338,036;  251,336;55133,781;22,02289
 756,99;12295,193;  215,182;55231,285;21,95723
 757,56;12309,426;  229,874;55230,405;21,96261
 758,13;12312,122;  179,951;55113,447;22,08520
 758,70;12473,278;  215,489;55279,875;22,26083
 759,26;12514,435;  202,643;55239,687;22,37001
 759,83;12594,823;  227,028;55372,883;22,42742
 760,40;12648,903;  210,566;55218,311;22,61197
 760,97;12599,213;  206,489;55244,353;22,51672
 761,53;12582,831;  185,643;54956,396;22,63469
 762,10;12641,219;  186,412;54850,362;22,78432
 762,67;12689,145;  214,489;54907,097;22,80867
 763,24;12616,148;  173,874;54437,601;22,92927
 763,80;12646,766;  207,797;54611,798;22,86407
 764,37;12680,538;  211,181;54580,148;22,93470
 764,94;12587,464;  197,258;54198,499;22,94430
 765,50;12672,775;  205,335;54206,695;23,08727
 766,07;12764,778;  237,489;54177,507;23,22448
 766,64;12709,473;  214,719;53884,319;23,28088
 767,21;12708,322;  213,873;53796,977;23,31789
 767,77;12716,325;  234,719;53682,943;23,35270
 768,34;12726,636;  223,950;53621,448;23,41437
 768,91;12763,100;  233,719;53493,260;23,52514
 769,47;12769,026;  232,488;53468,072;23,54917
 770,04;12767,337;  245,719;53389,037;23,56198
 770,61;12791,417;  219,180;53037,695;23,80271
 771,18;12783,189;  211,334;53017,969;23,80734
 771,74;12808,654;  226,873;53148,935;23,77417
 772,31;12802,426;  236,103;52924,131;23,85043
 772,88;12780,659;  205,796;52656,174;23,97478
 773,44;12813,124;  202,565;52564,832;24,08329
 774,01;12881,358;  233,796;52605,952;24,14940
 774,58;12817,438;  215,642;52376,456;24,15951
 775,14;12953,902;  208,411;52458,191;24,39339
 775,71;12882,905;  210,795;52348,926;24,30488
 776,27;12975,831;  273,641;52254,661;24,43621
 776,84;12977,603;  312,180;52286,243;24,36874
 777,41;12921,914;  226,411;52017,901;24,51272
 777,97;12864,378;  215,795;51779,713;24,52991
 778,54;12948,843;  231,641;52002,294;24,56450
 779,11;12943,615;  260,641;51813,490;24,60189
 779,67;12967,695;  216,487;51780,072;24,72909
 780,24;12939,467;  231,949;51504,576;24,78422
 780,80;13027,316;  235,949;51658,234;24,87514
 781,37;13019,627;  237,795;51581,200;24,89479
 781,94;12993,322;  230,948;51445,858;24,91925
 782,50;13013,402;  228,179;51259,670;25,05359
 783,07;13168,020;  257,564;51261,097;25,31287
 783,63;13083,946;  221,871;51107,909;25,27624
 784,20;13106,257;  248,179;51014,798;25,32782
 784,77;13090,183;  232,410;50773,302;25,44034
 785,33;13030,416;  210,102;50667,037;25,40843
 785,90;13126,573;  228,102;50623,926;25,59433
 786,46;13132,653;  256,102;50497,815;25,62920
 787,03;13082,271;  228,102;50236,243;25,70415
 787,59;13091,428;  232,563;50226,978;25,72060
 788,16;13142,893;  235,871;50217,020;25,82378
 788,73;13126,742;  236,409;50094,217;25,85419
 789,29;13060,283;  230,640;49793,875;25,88540
 789,86;13126,901;  258,178;49607,226;26,07694
 790,42;13124,058;  238,101;49520,038;26,14742
 790,99;12969,600;  241,871;49234,388;25,97892
 791,55;13084,449;  233,255;49198,969;26,24529
 792,12;13139,067;  270,794;49232,320;26,28242
 792,68;13068,608;  239,178;48915,901;26,35640
 793,25;13084,688;  249,409;48664,020;26,51117
 793,81;13119,768;  318,486;48265,909;26,69858
 794,38;12948,079;  209,870;48136,952;26,57831
 794,94;13009,159;  239,870;48136,610;26,66004
 795,51;12948,469;  243,255;47862,730;26,68071
 796,07;12882,011;  234,101;47650,696;26,67402
 796,64;12970,937;  262,870;47746,046;26,76330
 797,20;12900,632;  246,178;47193,089;26,95482
 797,77;12853,020;  215,408;46881,670;27,08083
 798,33;12812,484;  244,177;46734,251;27,03439
 798,90;12843,333;  251,485;46698,063;27,11039
 799,46;12804,336;  221,947;46181,798;27,37691
 800,03;12763,570;  244,100;46101,918;27,30062
 800,59;12728,265;  259,254;45974,191;27,27557
 801,15;12703,653;  253,023;45733,850;27,37556
 801,72;12599,963;  240,946;45340,585;27,40380
 802,28;12606,274;  267,946;45057,089;27,54759
 802,85;12617,661;  238,254;44917,132;27,70752
 803,41;12601,587;  228,562;44717,636;27,81138
 803,98;12493,898;  231,946;44265,909;27,84658
 804,54;12540,055;  234,331;44154,568;28,01835
 805,11;12543,058;  247,715;43862,841;28,19055
 805,67;12498,061;  262,254;43846,653;28,07382
 806,23;12379,064;  249,177;43371,003;28,12934
 806,80;12437,451;  260,023;43244,277;28,32997
 807,36;12423,454;  258,253;43238,243;28,30434
 807,93;12409,457;  267,176;43079,055;28,36194
 808,49;12305,691;  233,561;42628,559;28,47536
 809,05;12321,001;  231,561;42517,909;28,58946
 809,62;12331,158;  264,407;42372,183;28,65682
 810,18;12373,315;  250,638;42348,149;28,79666
 810,74;12296,549;  218,022;41992,576;28,91360
 811,31;12267,321;  227,407;41870,234;28,91234
 811,87;12321,093;  254,330;41773,046;29,06343
 812,44;12346,173;  268,176;41687,781;29,16010
 813,00;12264,868;  204,637;41421,439;29,26047
 813,56;12387,025;  255,176;41486,559;29,42382
 814,13;12377,874;  234,945;41479,140;29,44155
 814,69;12322,954;  243,099;41172,414;29,51394
 815,25;12234,418;  209,022;40779,533;29,64073
 815,82;12223,652;  260,637;40770,038;29,53145
 816,38;12247,578;  289,637;40586,696;29,67448
 816,94;12161,196;  226,637;40272,969;29,80188
 817,51;12055,584;  220,637;40085,166;29,68791
 818,07;12060,818;  221,022;39734,670;29,96381
 818,63;11976,821;  234,021;39568,482;29,85372
 819,20;11985,516;  245,329;39580,525;29,84652
 819,76;11878,750;  223,483;39195,260;29,90694
 820,32;11930,445;  248,252;39074,764;30,08818
 820,89;11881,755;  247,021;38918,807;30,08585
 821,45;11787,451;  217,406;38530,927;30,19833
 822,01;11744,761;  252,867;38313,739;30,19346
 822,57;11716,764;  252,559;38158,628;30,24372
 823,14;11671,536;  216,867;37916,132;30,38433
 823,70;11570,386;  220,021;37639,482;30,33278
 824,26;11564,388;  219,482;37478,602;30,44867
 824,82;11540,468;  256,867;37394,875;30,38289
 825,39;11451,394;  228,251;37042,534;30,48584
 825,95;11534,013;  238,328;37083,730;30,65697
 826,51;11399,708;  239,790;36697,234;30,61081
 827,08;11531,403;  270,251;36758,662;30,86227
 827,64;11431,098;  252,097;36598,781;30,75659
 828,20;11323,101;  214,867;36265,901;30,81253
 828,76;11398,027;  253,866;36258,636;30,95190
 829,32;11357,030;  261,251;36200,987;30,87329
 829,89;11277,341;  209,789;35935,106;30,97958
 830,45;11315,344;  237,482;36000,687;30,97558
 831,01;11288,578;  232,712;35591,269;31,26786
 831,57;11216,811;  240,328;35661,388;30,98858
 832,14;11277,199;  221,020;35632,585;31,22194
 832,70;11250,356;  219,558;35308,551;31,43663
 833,26;11171,051;  199,020;35184,824;31,36138
 833,82;11208,515;  229,404;35104,636;31,48111
 834,38;11240,211;  222,558;35095,140;31,59403
 834,95;11228,675;  213,635;35052,260;31,61732
 835,51;11217,216;  190,635;34868,072;31,79757
 836,07;11286,527;  234,173;34910,423;31,87298
 836,63;11312,607;  244,866;34946,158;31,89432
 837,19;11285,994;  234,558;34790,893;31,98093
 837,75;11118,305;  204,481;34431,166;31,88689
 838,32;11257,462;  244,942;34548,901;32,10277
 838,88;11318,849;  241,481;34645,175;32,19820
 839,44;11242,160;  248,865;34467,987;32,12617
 840,00;11298,548;  241,404;34451,337;32,32144
 840,56;11194,320;  222,404;34168,149;32,32192
 841,12;11227,630;  218,634;34182,961;32,41341
 841,68;11095,787;  196,173;33923,004;32,31734
 842,25;11169,252;  232,557;33917,970;32,46715
 842,81;11087,332;  204,942;33732,782;32,45777
 843,37;11172,719;  200,634;33731,594;32,72225
 843,93;11169,645;  227,557;33568,329;32,81894
 844,49;11208,417;  237,788;33657,910;32,82642
 845,05;11128,266;  187,557;33455,260;32,88688
 845,61;11293,885;  245,095;33466,918;33,25763
 846,17;11212,580;  222,172;33305,653;33,22023
 846,73;11197,198;  230,634;33273,542;33,18886
 847,29;11218,740;  211,326;33127,123;33,44113
 847,86;11158,050;  210,249;33033,859;33,35344
 848,42;11140,053;  223,095;32902,594;33,40614
 848,98;11133,441;  228,403;32852,098;33,42674
 849,54;11214,982;  214,633;32873,756;33,68232
 850,10;11151,754;  232,403;32833,183;33,49414
 850,66;11173,834;  212,326;32636,534;33,80656
 851,22;11134,068;  196,864;32571,269;33,78349
 851,78;11207,917;  250,018;32602,235;33,87063
 852,34;11167,689;  232,710;32403,047;33,99088
 852,90;11096,308;  216,556;32242,782;33,97138
 853,46;11069,310;  213,402;32069,671;34,07778
 854,02;11102,698;  231,787;32082,329;34,13101
 854,58;11029,855;  227,171;31738,910;34,28146
 855,14;11001,781;  217,941;31687,953;34,26704
 855,70;10915,861;  177,633;31580,226;34,19535
 856,26;11006,171;  226,171;31551,500;34,41305
 856,82;10982,020;  220,633;31325,773;34,59681
 857,38;10949,023;  247,940;31349,508;34,40689
 857,94;10911,488;  217,786;31077,320;34,65283
 858,50;10865,798;  258,940;31058,594;34,43824
 859,06;10798,494;  215,479;30823,713;34,57571
 859,62;10848,343;  231,709;30848,525;34,67582
 860,18;10821,346;  224,786;30541,876;34,95243
 860,74;10732,503;  197,325;30524,072;34,73890
 861,30;10707,967;  191,171;30301,807;34,92718
 861,86;10737,662;  272,632;30376,235;34,76338
 862,42;10640,050;  219,709;30222,431;34,73132
 862,98;10742,822;  257,247;30116,705;35,11643
 863,54;10622,671;  222,170;29941,901;34,99527
 864,10;10698,597;  223,093;30022,636;35,15324
 864,66;10633,446;  204,016;29791,295;35,24971
 865,22;10574,834;  215,939;29593,491;35,26126
 865,78;10559,914;  222,862;29471,842;35,34158
 866,34;10589,917;  213,170;29417,038;35,53210
 866,90;10617,150;  236,555;29302,158;35,71436
 867,45;10497,846;  230,785;29035,970;35,64310
 868,01;10469,695;  229,324;28878,936;35,74349
 868,57;10391,236;  217,862;28688,363;35,73303
 869,13;10444,008;  205,708;28673,560;35,96443
 869,69;10363,780;  214,400;28441,756;35,95583
 870,25;10394,783;  186,785;28315,337;36,29052
 870,81;10323,632;  220,400;28380,765;35,87749
 871,37;10381,558;  230,862;28330,577;36,12384
 871,93;10336,407;  238,939;28173,081;36,14741
 872,49;10260,257;  262,246;27799,893;36,30670
 873,04;10199,260;  205,477;27732,782;36,30498
 873,60;10140,493;  205,708;27540,440;36,34492
 874,16;10125,573;  232,400;27473,483;36,31711
 874,72;10141,265;  212,938;27433,175;36,47407
 875,28;10116,573;  219,708;27361,713;36,46328
 875,84;10105,496;  230,246;27350,483;36,41285
 876,40;10108,881;  211,631;27344,867;36,47648
 876,95;10091,265;  223,323;27303,098;36,44027
 877,51;10158,958;  246,323;27297,637;36,64382
 878,07;10182,419;  263,400;27292,483;36,69758
 878,63;10201,419;  222,169;27272,867;36,89091
 879,19;10212,496;  240,400;27318,867;36,82666
 879,75;10280,727;  207,554;27394,790;37,05111
 880,30;10336,573;  226,554;27456,252;37,12865
 880,86;10429,958;  267,246;27557,790;37,23895
 881,42;10408,035;  217,938;27581,175;37,24010
 881,98;10476,265;  227,785;27704,867;37,29829
 882,54;10622,804;  216,246;27817,637;37,70302
 883,09;10648,727;  237,400;27976,790;37,53265
 883,65;10697,958;  203,169;28121,944;37,59043
 884,21;10839,496;  251,323;28417,021;37,59244
 884,77;10851,112;  211,631;28439,637;37,69122
 885,32;11001,573;  221,938;28643,483;37,92769
 885,88;11061,804;  263,323;28852,944;37,77063
 886,44;11153,342;  227,015;28875,021;38,13992
 887,00;11185,035;  250,477;28933,944;38,12146
 887,56;11312,265;  225,323;29002,329;38,52709
 888,11;11320,188;  221,785;29072,483;38,46841
 888,67;11444,650;  256,785;29292,867;38,53090
 889,23;11410,188;  226,015;29292,867;38,47741
 889,79;11354,342;  210,323;29163,252;38,49013
 890,34;11399,496;  231,862;29147,252;38,62177
 890,90;11519,496;  299,554;29313,098;38,67140
 891,46;11493,650;  230,477;29165,790;38,92535
 892,01;11519,804;  241,631;29178,713;38,97481
 892,57;11502,496;  246,785;29092,252;39,02073
 893,13;11331,112;  211,400;28971,021;38,66432
 893,69;11312,958;  202,631;28899,713;38,71588
 894,24;11323,496;  230,400;28829,175;38,78871
 894,80;11301,112;  234,169;28582,867;39,03863
 895,36;11215,573;  226,477;28442,175;38,94675
 895,91;11108,112;  225,169;28280,560;38,79091
 896,47;11166,188;  242,708;28191,329;39,08415
 897,03;11124,958;  219,092;27945,252;39,33421
 897,58;11088,035;  244,246;27851,483;39,27879
 898,14;11007,650;  234,708;27640,483;39,30902
 898,70;10916,804;  202,092;27523,637;39,21708
 899,25;10970,188;  230,785;27537,021;39,32949
 899,81;10891,650;  245,477;27311,175;39,33456
 900,37;10786,650;  209,785;27044,790;39,41443
 900,92;10854,650;  231,938;27062,560;39,59175
 901,48;10758,342;  212,477;26888,790;39,53269
 902,03;10743,650;  222,477;26758,098;39,64924
 902,59;10732,650;  225,477;26678,944;39,71946
 903,15;10723,727;  239,477;26485,560;39,94596
 903,70;10570,804;  227,477;26196,021;39,83021
 904,26;10542,573;  227,400;26080,175;39,89967
 904,82;10545,727;  229,938;26143,560;39,80836
 905,37;10558,342;  234,708;26013,175;40,04751
 905,93;10451,881;  210,631;25805,867;40,01233
 906,48;10454,342;  231,708;25697,175;40,14313
 907,04;10447,958;  239,785;25643,637;40,18356
 907,60;10394,881;  240,708;25437,021;40,30023
 908,15;10372,881;  218,554;25329,021;40,43862
 908,71;10365,188;  249,246;25351,021;40,29971
 909,26;10304,419;  223,938;25228,867;40,31398
 909,82;10240,496;  235,169;25071,637;40,28482
 910,37;10300,496;  273,015;25014,175;40,52955
 910,93;10164,419;  216,631;24674,021;40,67396
 911,48;10150,881;  212,785;24616,867;40,72309
 912,04;10043,804;  213,631;24466,637;40,53177
 912,60;10091,958;  231,938;24515,560;40,60358
 913,15;10029,188;  239,092;24347,329;40,60893
 913,71; 9948,342;  215,092;24093,252;40,76214
 914,26; 9941,419;  190,938;24063,406;40,84404
 914,82; 9950,112;  229,785;23958,329;40,96470
 915,37; 9887,496;  214,323;23861,329;40,90655
 915,93; 9912,650;  270,169;23812,637;40,95782
 916,48; 9876,650;  216,938;23582,560;41,34156
 917,04; 9838,881;  237,169;23521,021;41,23764
 917,59; 9824,419;  257,631;23477,713;41,20049
 918,15; 9685,573;  197,323;23245,021;41,16789
 918,70; 9681,188;  219,092;23222,175;41,13404
 919,26; 9637,265;  236,862;23058,560;41,19064
 919,81; 9592,958;  207,862;22928,175;41,30707
 920,37; 9626,804;  218,938;22839,483;41,58992
 920,92; 9600,573;  261,400;22781,021;41,47127
 921,48; 9475,342;  199,785;22525,637;41,54627
 922,03; 9499,573;  205,477;22530,098;41,63160
 922,59; 9442,035;  225,246;22402,483;41,55968
 923,14; 9360,881;  224,785;22233,406;41,51144
 923,69; 9373,265;  250,015;22170,252;41,62022
 924,25; 9360,188;  245,938;22132,098;41,64390
 924,80; 9269,650;  219,862;21961,790;41,62367
 925,36; 9234,727;  207,631;21846,406;41,71722
 925,91; 9232,342;  224,015;21753,175;41,84245
 926,47; 9186,804;  202,323;21673,637;41,84411
 927,02; 9225,188;  285,862;21626,944;41,88788
 927,57; 9133,727;  214,092;21334,329;42,23265
 928,13; 9045,035;  210,092;21322,713;41,84673
 928,68; 9031,881;  229,092;21243,560;41,88918
 929,24; 8949,188;  191,092;21028,867;42,02990
 929,79; 8928,958;  206,323;20950,252;42,04910
 930,34; 8895,035;  220,477;20785,021;42,18211
 930,90; 8901,342;  214,015;20762,790;42,27662
 931,45; 8854,804;  226,554;20754,021;42,03271
 932,01; 8835,342;  234,785;20661,098;42,10529
 932,56; 8807,112;  246,246;20478,175;42,31364
 933,11; 8776,035;  252,169;20502,867;42,09171
 933,67; 8704,958;  219,092;20311,867;42,23342
 934,22; 8710,727;  216,477;20255,790;42,38793
 934,77; 8659,419;  252,708;20143,560;42,26421
 935,33; 8646,727;  227,092;20010,944;42,55812
 935,88; 8582,727;  235,862;19929,021;42,38459
 936,43; 8539,804;  227,862;19856,175;42,34670
 936,99; 8563,188;  232,554;19695,560;42,80241
 937,54; 8430,188;  212,169;19608,867;42,36814
 938,09; 8452,881;  239,554;19555,637;42,52067
 938,65; 8418,035;  232,400;19423,175;42,65401
 939,20; 8339,650;  206,323;19300,175;42,59657
 939,75; 8304,727;  204,323;19170,329;42,71012
 940,31; 8286,804;  211,246;19116,713;42,71546
 940,86; 8353,727;  227,015;19065,944;43,13786
 941,41; 8314,804;  313,400;19135,406;42,51090
 941,96; 8244,342;  210,477;18889,329;43,01049
 942,52; 8167,112;  217,631;18806,790;42,76407
 943,07; 8115,958;  201,785;18710,637;42,75885
 943,62; 8088,265;  212,477;18644,637;42,72852
 944,18; 8149,342;  203,323;18555,406;43,29764
 944,73; 8065,265;  220,477;18409,175;43,13002
 945,28; 7995,342;  191,554;18242,944;43,23096
 945,83; 8059,419;  207,323;18343,175;43,29599
 946,39; 8034,496;  213,246;18264,790;43,32732
 946,94; 7992,727;  245,246;18136,175;43,30396
 947,49; 7964,958;  209,169;18047,329;43,47864
 948,04; 7996,881;  256,554;17943,329;43,76336
 948,59; 7928,188;  240,169;17960,867;43,38440
 949,15; 7914,881;  203,400;17842,867;43,71720
 949,70; 7870,342;  214,092;17716,252;43,74460
 950,25; 7841,342;  239,169;17592,329;43,80858
 950,80; 7799,727;  185,323;17440,483;44,12827
 951,36; 7790,342;  193,015;17370,175;44,22924
 951,91; 7770,881;  233,477;17399,098;43,90988
 952,46; 7706,573;  199,554;17230,098;44,07974
 953,01; 7695,573;  226,631;17255,406;43,86071
 953,56; 7636,958;  195,169;17099,021;44,02422
 954,11; 7655,035;  222,554;17028,406;44,22555
 954,67; 7652,419;  214,862;16967,560;44,39618
 955,22; 7583,265;  200,015;16814,560;44,43847
 955,77; 7560,496;  248,400;16765,560;44,26969
 956,32; 7537,419;  270,400;16704,406;44,21940
 956,87; 7480,035;  207,092;16558,944;44,47779
 957,42; 7448,419;  215,631;16537,944;44,31228
 957,98; 7414,958;  208,554;16381,713;44,55780
 958,53; 7471,650;  245,938;16348,790;44,87225
 959,08; 7319,496;  204,708;16229,175;44,39953
 959,63; 7294,727;  212,246;16089,483;44,60777
 960,18; 7287,112;  223,708;16043,560;44,64899
 960,73; 7283,419;  225,169;16017,560;44,69399
 961,28; 7202,650;  193,554;15881,175;44,67915
 961,83; 7198,035;  243,323;15852,098;44,55642
 962,39; 7161,881;  196,938;15762,329;44,74634
 962,94; 7127,881;  235,400;15630,944;44,76932
 963,49; 7080,727;  215,785;15523,713;44,84566
 964,04; 7102,265;  235,785;15473,329;45,06291
 964,59; 7018,188;  194,015;15376,175;44,94863
 965,14; 7018,573;  239,554;15334,713;44,90856
 965,69; 6967,265;  219,015;15295,098;44,76130
 966,24; 6944,112;  206,631;15172,560;45,01879
 966,79; 6884,342;  224,323;15031,790;44,97744
 967,34; 6825,650;  190,169;14944,867;44,97199
 967,89; 6831,112;  216,400;14881,867;45,10399
 968,44; 6781,419;  218,400;14821,252;44,94341
 968,99; 6744,112;  226,862;14712,790;44,99021
 969,55; 6714,496;  218,554;14667,406;44,95819
 970,10; 6729,804;  226,708;14514,637;45,51462
 970,65; 6672,650;  239,092;14459,329;45,24227
 971,20; 6605,650;  211,631;14306,867;45,36298
 971,75; 6558,496;  197,169;14216,021;45,37695
 972,30; 6537,573;  219,092;14145,175;45,37156
 972,85; 6504,958;  204,554;14088,021;45,38062
 973,40; 6468,496;  203,708;13950,560;45,57253
 973,95; 6457,342;  227,554;13891,406;45,59321
 974,50; 6459,035;  248,323;13904,406;45,47945
 975,05; 6382,881;  211,785;13704,483;45,73656
 975,60; 6338,650;  228,862;13682,175;45,41475
 976,15; 6312,342;  212,477;13600,944;45,56060
 976,70; 6297,035;  226,862;13493,637;45,75470
 977,25; 6305,496;  235,246;13457,867;45,90807
 977,80; 6251,727;  208,554;13293,098;46,18558
 978,35; 6218,342;  234,708;13092,175;46,53821
 978,89; 6158,035;  201,169;13054,560;46,34470
 979,44; 6120,496;  223,862;13040,021;46,00937
 979,99; 6042,804;  212,169;12829,867;46,20997
 980,54; 6067,958;  246,785;12840,637;46,22234
 981,09; 6018,727;  242,938;12647,713;46,56101
 981,64; 5940,727;  228,708;12520,406;46,47055
 982,19; 5976,188;  270,246;12500,713;46,65351
 982,74; 5911,419;  234,477;12373,713;46,76523
 983,29; 5844,496;  200,092;12258,944;46,80714
 983,84; 5818,804;  232,554;12145,329;46,89294
 984,39; 5836,573;  298,862;12130,406;46,80464
 984,94; 5716,650;  205,323;11949,867;46,92670
 985,49; 5745,496;  245,862;11916,483;47,12375
 986,03; 5643,881;  243,015;11837,252;46,58233
 986,58; 5599,727;  282,477;11682,944;46,64063
 987,13; 5546,496;  212,015;11573,252;46,95335
 987,68; 5477,727;  241,554;11430,098;46,79941
 988,23; 5498,188;  243,477;11445,406;46,90899
 988,78; 5410,573;  210,400;11289,560;46,93653
 989,33; 5406,804;  248,477;11125,483;47,42414
 989,88; 5370,419;  258,169;11165,790;46,86861
 990,42; 5302,958;  230,708;10973,713;47,21444
 990,97; 5195,265;  213,092;10828,329;46,93417
 991,52; 5233,804;  241,246;10779,329;47,37634
 992,07; 5199,342;  258,631;10725,790;47,20203
 992,62; 5092,650;  235,554;10580,175;46,95287
 993,17; 5101,419;  240,092;10459,483;47,56964
 993,71; 5046,496;  243,092;10406,483;47,26183
 994,26; 4983,881;  219,092;10208,944;47,69629
 994,81; 4974,496;  253,323;10201,021;47,45996
 995,36; 4900,804;  215,785;10082,483;47,48315
 995,91; 4831,958;  230,246; 9978,713;47,20446
 996,45; 4814,188;  232,631; 9855,867;47,60932
 997,00; 4737,958;  200,708; 9710,098;47,71336
 997,55; 4706,650;  244,938; 9694,021;47,21846
 998,10; 4685,112;  249,323; 9601,713;47,42946
 998,65; 4632,727;  228,323; 9486,098;47,57519
 999,19; 4596,958;  248,246; 9399,483;47,52048
 999,74; 4540,573;  259,708; 9297,560;47,36596
1000,29; 4537,804;  239,246; 9177,790;48,09013
1000,84; 4461,419;  226,938; 9035,790;48,07075
1001,38; 4402,112;  233,169; 8965,175;47,74324
1001,93; 4412,958;  245,554; 8920,790;48,03793
1002,48; 4316,035;  206,400; 8758,098;48,05636
1003,03; 4333,650;  239,938; 8675,252;48,53064
1003,57; 4269,342;  242,554; 8621,483;48,05851
1004,12; 4293,419;  260,631; 8573,406;48,51314
1004,67; 4191,804;  224,246; 8447,790;48,24632
1005,22; 4115,419;  221,400; 8250,406;48,49940
1005,76; 4077,419;  210,554; 8124,329;48,86246
1006,31; 4052,112;  243,938; 8095,790;48,50032
1006,86; 3974,419;  216,246; 7914,713;48,81716
1007,40; 3955,342;  211,246; 7821,021;49,20114
1007,95; 3897,265;  227,708; 7688,483;49,18467
1008,50; 3840,573;  238,323; 7620,637;48,79568
1009,04; 3794,958;  230,246; 7458,483;49,31648
1009,59; 3725,573;  232,015; 7371,252;48,93461
1010,14; 3696,727;  220,169; 7282,713;49,22529
1010,68; 3639,958;  233,708; 7158,560;49,18878
1011,23; 3574,419;  235,092; 7054,790;48,96591
1011,78; 3567,419;  253,246; 6960,713;49,41020
1012,32; 3514,265;  252,400; 6872,252;49,27399
1012,87; 3525,496;  257,246; 6859,790;49,49986
1013,42; 3427,650;  220,169; 6710,021;49,42302
1013,96; 3457,573;  254,708; 6728,944;49,47094
1014,51; 3405,035;  192,938; 6595,790;50,16665
1015,06; 3415,188;  199,938; 6633,406;49,97694
1015,60; 3465,112;  276,477; 6714,790;49,52593
1016,15; 3475,650;  222,631; 6685,406;50,33471
1016,69; 3479,496;  226,400; 6689,867;50,33051
1017,24; 3487,727;  203,554; 6703,637;50,52510
1017,79; 3572,573;  266,938; 6809,637;50,52403
1018,33; 3523,804;  225,323; 6806,406;50,12064
1018,88; 3599,727;  242,323; 6915,021;50,31554
1019,42; 3601,727;  235,708; 6899,560;50,51162
1019,97; 3599,112;  222,015; 6909,098;50,50179
1020,51; 3666,573;  259,400; 7042,944;50,22703
1021,06; 3661,881;  198,631; 6987,560;51,01320
1021,61; 3613,804;  185,938; 6998,406;50,31753
1022,15; 3605,496;  176,862; 6896,175;51,02656
1022,70; 3644,035;  222,323; 6941,560;50,92411
1023,24; 3605,419;  209,169; 6894,560;50,80107
1023,79; 3584,958;  234,246; 6823,175;50,85366
1024,33; 3587,958;  225,554; 6770,098;51,37720
1024,88; 3559,342;  233,477; 6724,021;51,24170
1025,42; 3509,881;  234,400; 6536,021;51,97838
1025,97; 3421,881;  214,400; 6473,713;51,24333
1026,51; 3354,573;  196,400; 6368,867;51,16549
1027,06; 3363,342;  216,631; 6318,252;51,57173
1027,60; 3283,958;  228,631; 6212,713;51,05757
1028,15; 3253,188;  241,785; 6148,329;50,98419
1028,69; 3142,573;  198,708; 5937,483;51,29780
1029,24; 3125,342;  219,323; 5908,329;51,08132
1029,78; 3102,881;  204,708; 5835,560;51,46953
1030,33; 3029,496;  197,323; 5678,790;51,66816
1030,87; 3015,035;  208,862; 5635,637;51,70977
1031,42; 2959,573;  192,862; 5513,867;51,99603
1031,96; 2932,035;  236,785; 5473,098;51,47228
1032,51; 2869,265;  203,938; 5401,867;51,27671
1033,05; 2860,573;  216,400; 5335,790;51,65016
1033,60; 2777,112;  198,938; 5221,406;51,33280
1034,14; 2731,958;  221,400; 5148,098;50,95822
1034,69; 2705,342;  213,785; 5084,867;51,14998
1035,23; 2718,342;  214,708; 5009,944;52,21087
1035,77; 2660,804;  220,092; 4922,944;51,89854
1036,32; 2596,496;  197,477; 4838,790;51,68837
1036,86; 2580,804;  223,169; 4806,021;51,44470
1037,41; 2579,958;  232,400; 4710,483;52,42328
1037,95; 2492,496;  191,092; 4640,175;51,72760
1038,50; 2471,804;  209,323; 4594,790;51,59041
1039,04; 2478,958;  231,246; 4555,713;51,97661
1039,58; 2387,112;  200,477; 4461,252;51,32011
1040,13; 2407,804;  210,246; 4394,790;52,51606
1040,67; 2395,188;  244,323; 4399,637;51,76181
1041,21; 2362,419;  247,554; 4267,867;52,60449
1041,76; 2298,419;  202,554; 4193,175;52,51978
1042,30; 2272,727;  207,631; 4173,713;52,06891
1042,85; 2223,804;  215,323; 4094,175;51,78029
1043,39; 2205,881;  195,323; 3985,944;53,04032
1043,93; 2215,112;  242,015; 3993,637;52,59316
1044,48; 2161,112;  227,015; 3932,483;52,19574
1045,02; 2146,496;  211,785; 3880,021;52,74228
1045,56; 2148,419;  240,708; 3851,021;52,84061
1046,11; 2096,188;  227,554; 3785,406;52,52143
1046,65; 2080,112;  229,477; 3706,406;53,22613
1047,19; 2023,035;  212,938; 3668,637;52,38004
1047,74; 1987,265;  195,862; 3568,944;53,10880
1048,28; 1980,958;  224,400; 3561,252;52,64116
1048,82; 1984,265;  249,938; 3558,790;52,41476
1049,37; 1940,496;  236,400; 3450,867;53,01333
1049,91; 1919,804;  225,092; 3414,560;53,13463
1050,45; 1880,650;  239,169; 3391,637;52,06972
1050,99; 1871,727;  219,246; 3353,483;52,72355
1051,54; 1825,035;  213,169; 3251,175;53,05669
1052,08; 1823,342;  249,938; 3258,098;52,30453
1052,62; 1792,496;  241,323; 3228,790;51,92268
1053,16; 1766,496;  220,554; 3136,867;53,01016
1053,71; 1744,727;  226,092; 3101,252;52,81914
1054,25; 1729,804;  244,169; 3059,867;52,76257
1054,79; 1702,727;  237,246; 3008,252;52,88624
1055,33; 1628,342;  200,092; 2939,637;52,13458
1055,88; 1665,419;  239,400; 2941,098;52,78233
1056,42; 1651,112;  237,477; 2872,252;53,65295
1056,96; 1632,573;  247,015; 2844,483;53,34264
1057,50; 1609,573;  230,477; 2794,098;53,79485
1058,05; 1575,496;  230,015; 2762,252;53,13409
1058,59; 1586,035;  247,938; 2739,252;53,71047
1059,13; 1498,881;  213,708; 2670,175;52,31794
1059,67; 1536,881;  235,015; 2639,175;54,15054
1060,21; 1498,496;  232,092; 2573,098;54,09657
1060,76; 1506,881;  239,554; 2571,329;54,35031
1061,30; 1481,958;  259,400; 2576,329;52,76630
1061,84; 1462,496;  232,938; 2493,406;54,39396
1062,38; 1416,650;  217,477; 2432,329;54,14236
1062,92; 1448,112;  267,708; 2475,637;53,46204
1063,46; 1383,188;  250,323; 2372,560;53,38073
1064,01; 1381,112;  219,169; 2363,944;54,17549
1064,55; 1346,419;  244,477; 2310,790;53,32890
1065,09; 1318,958;  210,400; 2239,329;54,63758
1065,63; 1367,496;  252,554; 2300,790;54,43426
1066,17; 1340,650;  258,323; 2235,637;54,73725
1066,71; 1315,727;  252,015; 2232,252;53,71639
1067,25; 1285,727;  233,169; 2154,790;54,77446
1067,80; 1286,188;  250,554; 2176,867;53,76252
1068,34; 1294,804;  262,323; 2144,560;54,85393
1068,88; 1243,265;  220,246; 2092,483;54,64156
1069,42; 1242,419;  250,246; 2101,252;53,60184
1069,96; 1222,958;  231,092; 2018,713;55,48521
1070,50; 1244,804;  260,092; 2062,713;54,62665
1071,04; 1186,804;  223,169; 1975,252;54,99938
1071,58; 1181,958;  233,092; 1960,560;54,92812
1072,12; 1165,496;  234,554; 1946,560;54,37729
1072,66; 1161,188;  241,785; 1936,021;54,26656
1073,21; 1160,573;  253,246; 1939,098;53,82008
1073,75; 1161,188;  239,862; 1893,790;55,70535
1074,29; 1125,112;  239,708; 1876,637;54,08933
1074,83; 1139,650;  262,092; 1872,329;54,49868
1075,37; 1128,958;  259,631; 1832,483;55,27074
1075,91; 1125,496;  247,631; 1794,790;56,74045
1076,45; 1095,958;  247,785; 1770,790;55,69073
1076,99; 1083,419;  258,938; 1749,483;55,31408
1077,53; 1064,650;  231,323; 1710,790;56,32615
1078,07; 1071,573;  243,477; 1723,560;55,94932
1078,61; 1040,727;  241,400; 1669,637;55,96600
1079,15; 1030,650;  234,246; 1688,867;54,74992
1079,69; 1035,804;  240,785; 1637,944;56,90253
1080,23; 1034,419;  253,323; 1646,867;56,05105
1080,77; 1071,496;  301,938; 1673,175;56,12144
1081,31;  998,035;  230,092; 1598,175;56,13274
1081,85;  995,958;  247,323; 1598,560;55,40367
1082,39;  981,188;  235,631; 1560,329;56,28133
1082,93;  972,188;  250,554; 1558,867;55,15762
1083,47;  940,804;  225,938; 1506,867;55,80836
1084,01;  965,881;  253,938; 1542,560;55,24838
1084,55;  932,958;  232,554; 1488,713;55,75755
1085,09;  935,496;  255,938; 1486,175;55,23797
1085,63;  937,496;  252,477; 1455,944;56,92047
1086,17;  909,573;  235,708; 1415,021;57,14048
1086,71;  896,419;  219,246; 1411,175;56,81321
1087,24;  930,650;  262,938; 1429,406;57,24220
1087,78;  912,188;  251,092; 1379,944;58,56358
1088,32;  857,188;  232,554; 1339,021;56,45306
1088,86;  881,650;  253,554; 1374,944;56,01048
1089,40;  862,496;  249,477; 1351,944;55,60430
1089,94;  841,573;  218,092; 1316,560;56,75916
1090,48;  841,265;  249,631; 1314,713;55,54823
1091,02;  851,188;  255,015; 1325,867;55,67278
1091,56;  826,496;  245,400; 1297,560;55,22890
1092,10;  808,727;  220,785; 1261,329;56,50335
1092,63;  848,650;  260,862; 1278,713;57,74793
1093,17;  806,188;  253,246; 1245,252;55,73983
1093,71;  787,342;  226,246; 1209,637;57,05732
1094,25;  816,112;  260,092; 1220,021;57,92296
1094,79;  779,650;  245,631; 1188,944;56,61100
1095,33;  786,342;  252,246; 1185,790;57,21166
1095,87;  772,650;  239,631; 1191,252;56,01170
1096,40;  736,112;  224,862; 1149,944;55,26533
1096,94;  770,496;  245,169; 1150,021;58,05667
1097,48;  766,188;  254,169; 1153,483;56,93446
1098,02;  741,958;  244,477; 1105,483;57,77903
1098,56;  712,881;  217,862; 1080,021;57,41619
1099,10;  715,727;  213,938; 1066,790;58,83653
1099,63;  706,881;  221,323; 1071,175;57,13439
1100,17;  730,265;  239,708; 1075,329;58,70575
1100,71;  751,881;  261,169; 1095,329;58,82706

