
Integration time [ms]: 140,000
Averaging Nr. [scans]: 13
Smoothing Nr. [pixels]: 0
Data measured with spectrometer [name]: 2009305U1
Wave   ;Sample   ;Dark     ;Reference;Reflectance
[nm]   ;[counts] ;[counts] ;[counts] ;[%]

 175,72;  191,987;  185,479;  195,256;66,56811
 176,32;  225,070;  214,863;  213,589; 0,00000
 176,92;  251,721;  238,402;  244,147;231,82747
 177,52;  262,093;  239,171;  255,101;143,89333
 178,12;  223,437;  218,325;  215,567; 0,00000
 178,72;  261,211;  248,709;  238,776; 0,00000
 179,32;  241,973;  248,094;  241,542; 0,00000
 179,92;  248,897;  235,094;  233,146; 0,00000
 180,52;  242,611;  229,480;  243,972;90,60786
 181,12;  261,747;  244,710;  253,779;187,86137
 181,73;  270,002;  269,479;  266,724; 0,00000
 182,33;  340,242;  325,403;  327,235;809,95799
 182,93;  257,015;  264,325;  263,605; 0,00000
 183,53;  227,454;  235,709;  223,292; 0,00000
 184,13;  236,307;  236,093;  221,711; 0,00000
 184,73;  269,447;  251,478;  257,984;276,19959
 185,33;  271,259;  223,703;  341,427;40,39650
 185,93;  288,184;  228,779;  366,740;43,05902
 186,53;  297,088;  248,010;  359,067;44,19193
 187,13;  325,013;  274,472;  411,352;36,92315
 187,73;  292,208;  238,933;  352,642;46,85211
 188,33;  288,072;  238,856;  363,204;39,57943
 188,93;  305,621;  245,547;  371,130;47,83632
 189,53;  310,090;  249,392;  378,224;47,11396
 190,13;  331,988;  273,390;  396,734;47,50787
 190,73;  291,640;  223,776;  357,743;50,65753
 191,34;  311,487;  262,315;  381,146;41,37942
 191,94;  290,838;  235,624;  353,574;46,81145
 192,54;  302,119;  242,088;  410,064;35,73780
 193,14;  308,682;  255,626;  389,518;39,62576
 193,74;  301,771;  251,934;  380,684;38,70842
 194,34;  296,576;  243,165;  382,870;38,23118
 194,94;  269,450;  214,165;  356,176;38,93047
 195,54;  238,376;  209,241;  329,743;24,17813
 196,14;  274,507;  217,550;  352,435;42,22693
 196,74;  261,867;  216,472;  355,469;32,65932
 197,34;  252,532;  190,627;  347,445;39,47556
 197,94;  274,360;  220,165;  381,711;33,54776
 198,54;  283,257;  222,703;  386,849;36,89026
 199,14;  263,449;  222,781;  387,587;24,67632
 199,74;  253,527;  196,320;  389,699;29,58299
 200,34;  261,840;  191,781;  399,400;33,74379
 200,94;  293,564;  212,858;  445,923;34,62825
 201,54;  276,423;  205,396;  445,617;29,56742
 202,14;  302,293;  216,397;  481,328;32,42189
 202,74;  283,236;  214,089;  491,643;24,91322
 203,34;  275,636;  199,243;  512,548;24,38299
 203,94;  252,835;  171,089;  515,499;23,73491
 204,54;  327,536;  235,472;  607,818;24,72530
 205,14;  293,353;  201,243;  625,848;21,69314
 205,74;  351,712;  225,936;  717,479;25,58800
 206,34;  321,888;  196,166;  752,632;22,59292
 206,94;  343,036;  197,781;  803,742;23,97096
 207,54;  331,828;  181,935;  836,884;22,88623
 208,14;  350,429;  196,166;  931,384;20,98196
 208,74;  361,370;  213,243; 1002,408;18,77016
 209,34;  375,490;  187,704; 1131,861;19,88928
 209,94;  399,931;  214,396; 1205,746;18,71535
 210,54;  416,454;  211,320; 1331,090;18,31933
 211,14;  439,391;  212,550; 1444,831;18,40820
 211,73;  443,555;  205,396; 1570,587;17,44508
 212,33;  481,640;  217,781; 1692,428;17,89308
 212,93;  475,446;  198,550; 1777,647;17,53505
 213,53;  472,063;  179,627; 1863,519;17,36667
 214,13;  501,438;  180,167; 1947,134;18,18207
 214,73;  494,446;  186,704; 1956,174;17,39176
 215,33;  504,392;  160,858; 1986,361;18,81862
 215,93;  544,671;  193,628; 2151,394;17,93083
 216,53;  541,040;  156,858; 2213,685;18,67839
 217,13;  633,666;  203,551; 2475,000;18,93574
 217,73;  645,827;  187,320; 2705,924;18,20480
 218,33;  659,481;  139,013; 2915,972;18,74238
 218,93;  770,289;  178,937; 3285,822;19,03361
 219,53;  850,405;  189,397; 3601,083;19,37480
 220,13;  901,144;  162,628; 3919,631;19,65704
 220,73; 1016,855;  187,627; 4345,430;19,94391
 221,32; 1115,447;  177,781; 4807,485;20,25326
 221,92; 1232,815;  169,705; 5226,097;21,02506
 222,52; 1334,040;  170,320; 5728,902;20,93556
 223,12; 1452,812;  178,166; 6210,697;21,12953
 223,72; 1566,505;  189,705; 6609,886;21,44488
 224,32; 1672,161;  185,090; 7038,082;21,69959
 224,92; 1780,353;  176,013; 7429,681;22,11764
 225,52; 1910,729;  194,551; 7914,699;22,22986
 226,12; 1967,646;  189,320; 8156,380;22,32098
 226,72; 2083,971;  153,089; 8544,829;23,00931
 227,31; 2196,009;  151,397; 8937,273;23,27157
 227,91; 2309,167;  173,781; 9431,250;23,06663
 228,51; 2462,260;  178,242; 9836,402;23,64858
 229,11; 2571,757;  175,705;10277,773;23,71843
 229,71; 2689,252;  173,935;10569,057;24,19709
 230,31; 2819,938;  164,936;10971,690;24,56799
 230,91; 2939,306;  158,704;11316,961;24,91968
 231,51; 3041,788;  165,782;11651,599;25,03963
 232,10; 3173,058;  152,244;11950,374;25,60418
 232,70; 3260,499;  182,934;12128,177;25,76393
 233,30; 3401,592;  207,551;12409,368;26,17677
 233,90; 3445,784;  177,705;12542,581;26,43035
 234,50; 3547,461;  175,705;12624,090;27,08589
 235,10; 3607,045;  175,936;12587,604;27,64423
 235,70; 3633,147;  192,012;12589,246;27,75728
 236,29; 3705,119;  189,396;12470,908;28,62614
 236,89; 3674,597;  161,781;12355,974;28,80729
 237,49; 3711,704;  179,012;12190,487;29,41097
 238,09; 3586,042;  177,474;11885,708;29,11257
 238,69; 3594,893;  191,550;11608,161;29,81045
 239,29; 3465,500;  167,243;11324,076;29,56266
 239,89; 3355,482;  185,934;10841,376;29,74581
 240,48; 3234,464;  171,089;10430,461;29,85929
 241,08; 3152,612;  164,550; 9925,725;30,61171
 241,68; 3033,293;  193,704; 9670,747;29,96282
 242,28; 2893,379;  166,243; 9327,389;29,76850
 242,88; 2796,439;  200,551; 8918,630;29,77591
 243,48; 2685,626;  205,858; 8599,299;29,54412
 244,07; 2598,590;  186,320; 8384,233;29,42542
 244,67; 2504,277;  192,705; 8187,529;28,91336
 245,27; 2430,863;  202,012; 8095,587;28,23627
 245,87; 2377,820;  194,474; 7980,459;28,04199
 246,47; 2301,055;  192,781; 7916,835;27,29492
 247,06; 2248,634;  177,243; 7990,336;26,51179
 247,66; 2250,929;  177,474; 8048,290;26,34358
 248,26; 2282,963;  214,473; 8269,036;25,68096
 248,86; 2276,749;  189,012; 8400,903;25,42334
 249,46; 2249,941;  144,551; 8617,949;24,84706
 250,05; 2341,309;  196,243; 9060,084;24,20019
 250,65; 2349,397;  167,858; 9437,415;23,53445
 251,25; 2416,861;  178,320; 9988,396;22,81880
 251,85; 2508,193;  171,858;10651,004;22,29510
 252,44; 2592,254;  140,627;11248,852;22,07038
 253,04; 2733,009;  195,781;12089,583;21,33236
 253,64; 2853,067;  142,242;12890,197;21,26478
 254,24; 3049,308;  194,627;13790,358;20,99689
 254,84; 3205,403;  169,089;14803,334;20,74800
 255,43; 3361,121;  179,396;15864,429;20,28510
 256,03; 3564,838;  190,396;16954,300;20,12921
 256,63; 3779,174;  182,088;18131,034;20,04065
 257,23; 3967,579;  168,319;18989,457;20,18613
 257,82; 4131,466;  182,703;20170,973;19,75540
 258,42; 4286,937;  146,242;20962,190;19,89194
 259,02; 4555,605;  187,627;21970,194;20,05263
 259,62; 4691,970;  170,934;22616,087;20,14260
 260,21; 4819,428;  188,243;23208,899;20,11752
 260,81; 4981,414;  174,935;23814,389;20,33244
 261,41; 5122,039;  165,626;24249,895;20,57946
 262,01; 5289,021;  206,780;24823,697;20,64532
 262,60; 5344,272;  166,088;25190,303;20,69269
 263,20; 5513,150;  174,473;25501,198;21,07922
 263,80; 5609,462;  190,934;25666,154;21,26980
 264,40; 5702,486;  162,011;25910,561;21,51762
 264,99; 5845,229;  187,703;26077,975;21,85194
 265,59; 5937,320;  167,779;26263,178;22,10942
 266,19; 6046,309;  155,703;26358,343;22,48096
 266,78; 6176,199;  211,241;26526,645;22,66717
 267,38; 6245,748;  182,856;26574,819;22,97249
 267,98; 6322,046;  174,933;26521,482;23,33176
 268,58; 6422,632;  183,549;26637,110;23,58504
 269,17; 6445,709;  172,010;26578,078;23,75855
 269,77; 6504,129;  184,627;26360,820;24,14218
 270,37; 6491,286;  154,395;26285,663;24,25022
 270,96; 6537,215;  216,088;26114,464;24,40743
 271,56; 6573,597;  183,011;25847,017;24,90097
 272,16; 6582,980;  177,242;25662,532;25,13504
 272,75; 6659,000;  170,319;25533,878;25,58269
 273,35; 6697,622;  189,934;25558,768;25,65229
 273,95; 6737,309;  176,473;25489,682;25,91863
 274,54; 6804,443;  152,012;25534,849;26,20838
 275,14; 6986,450;  193,550;26005,943;26,31643
 275,74; 7013,576;  158,472;26014,058;26,51305
 276,33; 7264,379;  197,242;26447,525;26,92214
 276,93; 7420,102;  182,858;26857,798;27,13125
 277,53; 7609,350;  180,935;27406,403;27,28480
 278,12; 7849,294;  159,781;27918,410;27,70134
 278,72; 8153,021;  202,935;28556,100;28,03950
 279,32; 8337,922;  173,319;29138,181;28,18796
 279,91; 8635,263;  163,473;29950,309;28,44139
 280,51; 8896,794;  178,243;30461,040;28,79044
 281,11; 9256,609;  177,781;31261,061;29,20808
 281,70; 9448,760;  161,012;31734,847;29,41596
 282,30; 9851,520;  157,704;32402,786;30,06293
 282,90;10072,692;  169,781;32829,260;30,32171
 283,49;10350,392;  186,319;33285,956;30,70751
 284,09;10655,643;  205,704;33770,223;31,13389
 284,69;10937,325;  200,627;34065,929;31,70413
 285,28;11223,488;  185,858;34456,727;32,20703
 285,88;11477,460;  214,319;34623,622;32,73284
 286,47;11678,768;  180,396;34740,226;33,27092
 287,07;11969,845;  205,627;34790,839;34,01517
 287,67;12184,549;  186,089;34931,222;34,53278
 288,26;12455,882;  187,242;34812,403;35,43273
 288,86;12791,085;  168,396;34889,979;36,35401
 289,46;13180,034;  190,242;35024,454;37,29033
 290,05;13530,630;  176,320;35064,746;38,27719
 290,65;13906,150;  171,627;35334,474;39,05976
 291,24;14428,501;  183,858;35382,728;40,46904
 291,84;14774,789;  195,550;35559,419;41,22637
 292,44;15197,167;  176,474;35643,051;42,35169
 293,03;15633,482;  237,166;35704,989;43,40925
 293,63;15985,961;  174,011;35930,474;44,22124
 294,22;16308,705;  201,012;36147,108;44,81069
 294,82;16618,852;  173,780;36066,967;45,81670
 295,41;16666,375;  160,627;35770,539;46,35156
 296,01;16820,765;  215,934;35568,408;46,96936
 296,61;16939,481;  189,242;35304,185;47,70117
 297,20;16832,709;  185,934;34895,865;47,95969
 297,80;16878,346;  192,474;34654,879;48,41761
 298,39;16771,886;  161,011;34265,466;48,70588
 298,99;16798,716;  188,242;34203,943;48,83179
 299,58;16786,584;  194,935;33946,341;49,15839
 300,18;16713,035;  208,474;33765,785;49,18321
 300,78;16577,083;  167,089;33266,446;49,57798
 301,37;16593,859;  187,241;33370,355;49,44267
 301,97;16573,149;  187,473;33330,898;49,43869
 302,56;16473,863;  178,242;33182,632;49,37410
 303,16;16379,876;  163,627;33180,943;49,11438
 303,75;16487,414;  176,243;33163,819;49,44641
 304,35;16604,715;  169,397;33468,616;49,35647
 304,94;16454,131;  182,396;33377,843;49,01797
 305,54;16474,216;  196,473;33270,715;49,21577
 306,13;16246,812;  152,782;33197,809;48,70334
 306,73;16185,648;  160,089;32978,372;48,83119
 307,33;16132,124;  185,243;32896,675;48,75018
 307,92;16038,290;  189,319;32981,544;48,33149
 308,52;16203,163;  165,627;33521,982;48,07940
 309,11;16481,647;  169,780;34004,442;48,21052
 309,71;16428,040;  153,395;34272,898;47,69895
 310,30;16501,115;  163,089;34384,044;47,74275
 310,90;16585,346;  192,935;34746,275;47,44089
 311,49;16549,132;  189,089;34846,296;47,20531
 312,09;16583,459;  158,550;35067,187;47,05113
 312,68;16707,140;  214,704;35454,057;46,80119
 313,28;16582,751;  158,781;35637,775;46,29210
 313,87;16603,421;  146,627;35637,822;46,36867
 314,47;16591,113;  169,934;35921,682;45,93112
 315,06;16539,925;  157,704;36088,779;45,59346
 315,66;16519,382;  163,858;36229,648;45,34913
 316,25;16316,244;  145,550;36163,538;44,89616
 316,85;16222,863;  141,935;36211,499;44,58310
 317,44;16182,456;  162,319;36309,758;44,31887
 318,04;16049,885;  151,627;36276,585;44,00907
 318,63;15923,436;  146,935;36258,419;43,68832
 319,22;15889,130;  172,857;36442,469;43,33179
 319,82;15684,141;  169,473;36451,752;42,76101
 320,41;15540,920;  175,473;36422,431;42,39100
 321,01;15393,706;  184,935;36415,404;41,97785
 321,60;15299,430;  178,704;36469,158;41,66585
 322,20;15099,041;  168,781;36444,181;41,15808
 322,79;15044,560;  208,781;36518,826;40,85861
 323,39;14922,789;  175,397;36502,710;40,59588
 323,98;14746,678;  162,935;36368,639;40,28024
 324,58;14623,029;  174,242;36243,259;40,05872
 325,17;14397,553;  182,165;36086,068;39,59288
 325,76;14131,074;  181,396;35892,001;39,06312
 326,36;13873,955;  155,320;35319,109;39,01353
 326,95;13645,374;  190,012;35150,659;38,48717
 327,55;13418,870;  155,473;34758,932;38,32969
 328,14;13085,830;  178,858;34183,029;37,95702
 328,74;12920,554;  195,627;33785,675;37,88303
 329,33;12553,531;  182,935;33325,981;37,32486
 329,92;12247,706;  162,626;32790,233;37,03943
 330,52;11907,562;  167,935;32078,807;36,78880
 331,11;11699,911;  179,088;31670,667;36,58382
 331,71;11297,878;  175,396;31085,078;35,98381
 332,30;11028,515;  180,627;30673,381;35,57530
 332,89;10785,087;  217,627;30068,310;35,40107
 333,49;10507,778;  191,550;29441,783;35,26888
 334,08;10192,313;  173,242;29024,115;34,72710
 334,68; 9986,832;  179,165;28619,410;34,48517
 335,27; 9818,413;  193,397;28249,166;34,30673
 335,86; 9638,604;  210,550;28048,513;33,86761
 336,46; 9423,933;  188,012;27722,418;33,54320
 337,05; 9289,411;  163,011;27538,804;33,33748
 337,65; 9240,467;  151,704;27324,227;33,44836
 338,24; 9200,235;  212,550;27404,497;33,05274
 338,83; 9061,582;  199,935;27215,933;32,80148
 339,43; 8964,302;  161,780;27137,636;32,63111
 340,02; 8881,915;  174,550;27034,345;32,41784
 340,61; 8803,906;  156,935;27081,655;32,11536
 341,21; 8816,554;  207,165;27127,136;31,98142
 341,80; 8736,889;  167,858;27089,021;31,83009
 342,40; 8726,294;  173,243;27183,858;31,66552
 342,99; 8734,779;  173,858;27301,771;31,55761
 343,58; 8712,300;  174,550;27407,135;31,35123
 344,18; 8713,322;  180,397;27534,054;31,19482
 344,77; 8756,857;  167,934;27938,512;30,92814
 345,36; 8827,067;  156,012;28227,505;30,88918
 345,96; 8936,108;  186,320;28591,921;30,80304
 346,55; 8946,078;  163,320;28765,731;30,70636
 347,14; 9053,583;  150,858;29104,307;30,74841
 347,74; 9165,505;  142,859;29570,951;30,65998
 348,33; 9357,790;  173,782;30201,656;30,58494
 348,92; 9549,961;  181,705;30830,675;30,56630
 349,52; 9624,684;  156,475;31299,084;30,40275
 350,11; 9699,066;  164,934;31503,823;30,42269
 350,70; 9721,847;  166,627;31565,591;30,43164
 351,29; 9636,698;  162,933;31400,551;30,32807
 351,89; 9676,858;  181,472;31358,164;30,45668
 352,48; 9639,020;  152,781;31379,912;30,37820
 353,07; 9661,529;  170,397;31238,987;30,54896
 353,67; 9621,694;  189,552;31219,948;30,39646
 354,26; 9553,525;  174,397;31035,354;30,39157
 354,85; 9571,460;  171,704;30735,640;30,75440
 355,45; 9540,598;  157,781;30675,316;30,74566
 356,04; 9523,858;  168,320;30625,906;30,71661
 356,63; 9476,587;  194,781;30333,526;30,79692
 357,22; 9458,151;  178,318;30260,522;30,84825
 357,82; 9400,428;  190,780;30082,839;30,80968
 358,41; 9526,303;  188,781;29928,010;31,39800
 359,00; 9417,399;  172,473;29705,068;31,30414
 359,60; 9485,523;  186,243;29656,681;31,55461
 360,19; 9429,419;  184,935;29499,090;31,53590
 360,78; 9449,274;  175,550;29240,517;31,90688
 361,37; 9433,967;  169,473;29133,628;31,98607
 361,97; 9481,070;  174,627;29018,138;32,26529
 362,56; 9428,430;  161,088;28693,973;32,47951
 363,15; 9421,792;  205,396;28486,786;32,58820
 363,74; 9334,364;  166,857;28089,840;32,83140
 364,34; 9361,609;  180,396;27703,756;33,35790
 364,93; 9231,139;  156,626;27300,575;33,43107
 365,52; 9125,604;  151,781;26868,590;33,58868
 366,11; 9144,803;  167,704;26571,115;33,99977
 366,71; 9103,745;  165,550;26184,315;34,35288
 367,30; 9033,413;  174,319;25850,334;34,50338
 367,89; 9076,440;  204,012;25716,866;34,77630
 368,48; 9015,366;  185,396;25321,601;35,12849
 369,07; 8922,078;  179,396;24872,053;35,40600
 369,67; 8944,023;  194,703;24613,370;35,83046
 370,26; 8879,387;  164,319;24353,198;36,02923
 370,85; 8844,123;  175,473;24095,389;36,24030
 371,44; 8894,185;  176,088;23840,471;36,84058
 372,03; 8838,860;  151,780;23549,187;37,12838
 372,63; 8801,779;  144,627;23282,740;37,41512
 373,22; 8768,634;  169,012;22976,843;37,70469
 373,81; 8760,642;  157,011;22684,188;38,19223
 374,40; 8747,541;  164,858;22480,076;38,46112
 374,99; 8662,233;  161,781;22210,782;38,55255
 375,59; 8685,212;  159,781;21936,080;39,15004
 376,18; 8769,485;  191,858;21756,744;39,77590
 376,77; 8776,956;  185,858;21535,420;40,24016
 377,36; 8793,141;  196,781;21526,787;40,30173
 377,95; 8791,439;  179,319;21289,692;40,79568
 378,55; 8828,706;  159,320;21111,250;41,37751
 379,14; 8844,276;  180,627;20965,432;41,68261
 379,73; 8899,364;  179,319;20953,453;41,97549
 380,32; 9015,090;  185,396;20940,031;42,54324
 380,91; 9017,272;  169,473;20815,426;42,85488
 381,50; 9087,508;  185,627;20802,238;43,17820
 382,10; 9073,705;  168,089;20598,415;43,59018
 382,69; 9171,833;  152,319;20565,906;44,18388
 383,28; 9221,550;  193,627;20570,546;44,30465
 383,87; 9215,665;  166,780;20416,760;44,68589
 384,46; 9285,372;  154,857;20365,570;45,17661
 385,05; 9402,027;  189,550;20403,037;45,57589
 385,64; 9455,957;  159,242;20407,576;45,91348
 386,24; 9527,832;  153,780;20326,347;46,46931
 386,83; 9635,386;  195,472;20434,684;46,64171
 387,42; 9786,343;  193,396;20531,183;47,16810
 388,01; 9945,635;  173,318;20707,785;47,58983
 388,60;10153,510;  174,857;20882,232;48,18888
 389,19;10339,012;  148,779;21179,223;48,45467
 389,78;10560,095;  158,933;21399,147;48,96920
 390,37;10877,994;  218,010;21923,000;49,11306
 390,96;11012,158;  177,703;21992,095;49,66655
 391,56;11154,253;  178,471;22222,132;49,79110
 392,15;11363,331;  166,856;22451,233;50,24361
 392,74;11517,332;  137,163;22602,095;50,65748
 393,33;11787,153;  165,086;22937,837;51,03497
 393,92;12057,409;  182,624;23340,175;51,27824
 394,51;12260,863;  154,856;23532,431;51,78470
 395,10;12464,875;  196,161;23799,208;51,97936
 395,69;12621,229;  183,238;23859,141;52,53439
 396,28;12776,239;  179,930;24003,788;52,87267
 396,87;12918,748;  185,698;24106,506;53,23002
 397,46;13064,658;  187,082;24267,319;53,47778
 398,06;13210,137;  196,158;24457,662;53,64045
 398,65;13329,543;  181,311;24429,499;54,22356
 399,24;13566,159;  195,156;24635,459;54,70883
 399,83;13587,055;  159,846;24668,156;54,78635
 400,42;13705,275;  209,151;24840,145;54,79326
 401,01;13898,148;  177,917;24927,239;55,43679
 401,60;13947,585;  200,529;24993,593;55,44718
 402,19;14045,909;  205,911;24794,712;56,28578
 402,78;14065,436;  203,214;24936,973;56,04576
 403,37;14080,994;  195,209;24678,939;56,71434
 403,96;14060,668;  182,204;24613,057;56,80712
 404,55;14059,021;  188,198;24449,022;57,17375
 405,14;14055,826;  192,270;24342,339;57,40587
 405,73;14043,642;  205,956;24282,307;57,47418
 406,32;14109,715;  204,336;24197,053;57,95667
 406,91;14036,525;  198,716;23854,300;58,49701
 407,50;13902,167;  182,637;23730,657;58,26193
 408,09;13839,635;  171,404;23428,345;58,77054
 408,68;13831,379;  198,480;23218,852;59,22102
 409,27;13812,865;  173,712;23079,496;59,54458
 409,86;13775,769;  182,331;22935,458;59,74316
 410,45;13760,144;  212,181;22859,844;59,82058
 411,04;13788,483;  219,645;22790,649;60,11624
 411,63;13601,028;  193,803;22535,929;60,00872
 412,22;13499,071;  196,730;22251,126;60,31605
 412,81;13357,312;  209,578;21999,350;60,33902
 413,40;13183,671;  210,349;21628,426;60,57183
 413,99;13056,028;  241,425;21414,048;60,52440
 414,58;12820,103;  185,964;20959,934;60,81716
 415,17;12803,775;  187,886;20722,461;61,43730
 415,76;12717,756;  191,499;20613,014;61,33853
 416,35;12614,795;  178,731;20458,633;61,32211
 416,94;12706,580;  216,807;20504,127;61,56443
 417,53;12937,031;  182,116;20743,475;62,03342
 418,12;12942,414;  182,963;20812,130;61,85151
 418,71;13253,019;  197,349;21237,931;62,04995
 419,30;13303,094;  192,809;21266,041;62,21298
 419,89;13398,552;  189,579;21507,440;61,96200
 420,48;13690,424;  207,503;21793,397;62,46172
 421,07;13761,516;  208,041;21857,039;62,60555
 421,66;13768,884;  170,888;21773,423;62,94630
 422,25;13803,096;  178,505;21775,810;63,08468
 422,84;13787,689;  227,275;21774,119;62,93457
 423,43;13639,675;  192,813;21469,018;63,20141
 424,02;13569,690;  215,967;21168,507;63,73319
 424,60;13227,514;  189,507;20824,096;63,18520
 425,19;13090,485;  203,045;20477,464;63,56503
 425,78;13105,336;  209,814;20391,473;63,89724
 426,37;13013,658;  207,968;20246,882;63,90411
 426,96;12939,582;  199,045;20218,916;63,63946
 427,55;12858,096;  192,585;19960,493;64,07108
 428,14;12734,754;  191,124;19793,329;63,99092
 428,73;12623,884;  205,354;19583,055;64,08670
 429,32;12652,172;  211,122;19584,749;64,21642
 429,91;12692,694;  233,892;19529,175;64,56916
 430,50;12586,779;  218,662;19366,276;64,59351
 431,08;12487,825;  230,432;19301,206;64,27318
 431,67;12458,850;  264,740;19215,174;64,34739
 432,26;12304,085;  273,971;18971,642;64,34018
 432,85;12161,885;  291,586;18493,128;65,21590
 433,44;11884,287;  295,587;18235,717;64,59652
 434,03;11653,970;  302,357;17860,136;64,65290
 434,62;11407,578;  266,126;17454,038;64,82144
 435,21;11271,428;  289,663;17279,103;64,63877
 435,79;11159,798;  269,126;17147,510;64,52437
 436,38;11115,268;  274,742;17013,446;64,76323
 436,97;11026,909;  269,666;16897,955;64,69243
 437,56;10919,481;  268,744;16698,406;64,82627
 438,15;10878,347;  246,897;16649,840;64,81428
 438,74;10890,892;  260,513;16620,721;64,97704
 439,33;10899,864;  238,359;16702,690;64,75516
 439,91;10898,222;  210,667;16714,475;64,75812
 440,50;11004,649;  250,052;16805,245;64,96208
 441,09;11100,727;  256,130;16853,992;65,33732
 441,68;11036,904;  238,977;16900,162;64,80888
 442,27;11080,559;  214,130;16875,370;65,21981
 442,86;11065,687;  203,132;16871,062;65,17039
 443,44;11097,822;  209,670;16929,052;65,12294
 444,03;11166,650;  269,670;16947,455;65,33829
 444,62;11077,400;  212,901;16741,408;65,73188
 445,21;10982,235;  230,285;16662,740;65,43118
 445,80;10897,496;  246,133;16529,484;65,41260
 446,39;10730,660;  270,748;16293,581;65,28129
 446,97;10572,061;  216,441;16023,894;65,51100
 447,56;10466,718;  201,980;15930,231;65,26306
 448,15;10328,118;  210,595;15658,197;65,49575
 448,74;10186,373;  232,057;15404,330;65,60860
 449,33;10084,287;  223,134;15306,025;65,37973
 449,91; 9919,470;  209,904;15043,812;65,45521
 450,50; 9774,268;  210,596;14809,734;65,50847
 451,09; 9727,351;  228,212;14737,085;65,47124
 451,68; 9629,851;  245,520;14670,903;65,05430
 452,26; 9586,430;  231,674;14547,251;65,34669
 452,85; 9526,821;  223,059;14474,527;65,28283
 453,44; 9568,154;  233,598;14477,789;65,53237
 454,03; 9474,828;  208,751;14409,440;65,25090
 454,61; 9515,485;  194,368;14394,196;65,64247
 455,20; 9628,795;  242,753;14645,484;65,16849
 455,79; 9627,988;  233,829;14545,669;65,63907
 456,38; 9657,003;  240,753;14664,252;65,28409
 456,97; 9692,550;  215,138;14693,862;65,45751
 457,55; 9717,174;  219,369;14753,117;65,35000
 458,14; 9685,253;  243,907;14678,960;65,40569
 458,73; 9614,736;  227,292;14572,523;65,43947
 459,31; 9715,313;  261,908;14695,757;65,49469
 459,90; 9709,100;  266,062;14768,901;65,11165
 460,49; 9823,261;  291,600;14853,519;65,45607
 461,08; 9823,698;  212,986;14904,789;65,41547
 461,66; 9870,581;  223,370;14996,133;65,30404
 462,25; 9899,581;  218,294;15105,889;65,02922
 462,84; 9979,337;  250,909;15144,195;65,32090
 463,43; 9889,374;  192,910;15112,974;64,98943
 464,01; 9931,239;  227,295;15124,710;65,13844
 464,60; 9929,244;  262,910;15008,810;65,55269
 465,19; 9712,693;  206,372;14735,058;65,43139
 465,77; 9717,348;  231,219;14816,098;65,04085
 466,36; 9658,086;  234,602;14635,482;65,43686
 466,95; 9408,860;  213,910;14334,107;65,11913
 467,53; 9207,834;  225,373;13996,613;65,22623
 468,12; 9054,551;  251,681;13737,703;65,27403
 468,71; 8895,447;  222,372;13525,250;65,19698
 469,29; 8751,056;  218,142;13284,806;65,30293
 469,88; 8571,381;  216,912;13029,244;65,20647
 470,47; 8678,398;  273,451;13158,601;65,22972
 471,06; 8582,612;  229,990;13148,888;64,65429
 471,64; 8625,640;  234,066;13269,622;64,37450
 472,23; 8684,885;  203,529;13264,171;64,93828
 472,81; 8698,889;  211,144;13426,775;64,22505
 473,40; 8804,117;  215,298;13491,086;64,69536
 473,99; 8984,541;  295,299;13668,872;64,97323
 474,57; 9006,596;  215,529;13761,338;64,89880
 475,16; 9113,012;  223,221;14021,827;64,42528
 475,75; 9179,758;  241,222;14083,900;64,57230
 476,33; 9216,017;  252,992;14178,270;64,36515
 476,92; 9242,816;  237,683;14238,856;64,31699
 477,51; 9311,466;  238,069;14284,269;64,59681
 478,09; 9281,544;  239,376;14291,303;64,34824
 478,68; 9248,074;  255,530;14172,497;64,61569
 479,27; 9274,029;  267,145;14274,601;64,30064
 479,85; 9271,342;  240,223;14264,334;64,39709
 480,44; 9352,856;  224,684;14440,310;64,21224
 481,02;10283,688;  238,685;16174,261;63,03508
 481,61;11585,504;  268,531;18120,700;63,39271
 482,20;12295,247;  251,608;19269,034;63,32949
 482,78;12852,273;  266,069;20038,514;63,65528
 483,37;13243,997;  275,147;20557,589;63,94126
 483,95;13297,043;  289,917;20826,718;63,33570
 484,54;13448,634;  306,300;20939,986;63,69359
 485,13;13338,767;  269,840;20848,071;63,50851
 485,71;13231,544;  258,302;20600,108;63,77625
 486,30;13058,391;  292,225;20289,066;63,84091
 486,88;12751,457;  318,148;19848,199;63,66245
 487,47;12291,908;  301,840;19068,101;63,89162
 488,05;11689,595;  290,302;18135,509;63,87874
 488,64;10877,509;  296,149;16826,665;64,01107
 489,23; 9642,353;  299,533;14648,069;65,11340
 489,81; 8216,150;  292,533;12727,450;63,72071
 490,40; 7835,503;  262,918;12174,203;63,57488
 490,98; 7649,861;  241,687;12001,033;62,99818
 491,57; 7581,780;  267,610;11920,719;62,76582
 492,15; 7579,636;  240,841;11848,427;63,22412
 492,74; 7517,502;  248,302;11756,522;63,16528
 493,32; 7428,359;  269,380;11664,759;62,82352
 493,91; 7332,131;  247,611;11538,005;62,74821
 494,50; 7282,759;  253,920;11551,377;62,21612
 495,08; 7196,949;  237,920;11464,411;61,98757
 495,67; 7236,030;  258,534;11410,599;62,56686
 496,25; 7149,964;  202,535;11338,494;62,38734
 496,84; 7084,778;  218,688;11293,372;61,99807
 497,42; 7078,762;  205,227;11275,329;62,09099
 498,01; 6991,188;  235,380;11233,343;61,42782
 498,59; 6931,555;  206,919;11143,273;61,48883
 499,18; 6925,327;  202,457;11113,159;61,61720
 499,76; 6893,599;  221,611;11029,806;61,73082
 500,35; 6719,638;  213,612;10794,348;61,48935
 500,93; 6695,318;  209,996;10775,504;61,38202
 501,52; 6615,304;  206,535;10692,500;61,11759
 502,10; 6580,582;  218,536;10608,342;61,23354
 502,69; 6468,600;  212,459;10452,275;61,09623
 503,27; 6333,588;  189,766;10305,740;60,73387
 503,86; 6266,611;  203,305;10219,637;60,53420
 504,44; 6181,936;  181,152;10105,382;60,46599
 505,03; 6021,879;  184,305; 9814,353;60,61833
 505,61; 5915,237;  193,151; 9686,655;60,27369
 506,19; 5801,474;  210,152; 9553,006;59,84597
 506,78; 5654,089;  181,152; 9330,300;59,81909
 507,36; 5598,184;  190,305; 9200,216;60,02145
 507,95; 5429,298;  197,383; 9079,567;58,90348
 508,53; 5395,896;  188,998; 8945,710;59,46178
 509,12; 5290,427;  198,845; 8786,400;59,29024
 509,70; 5205,167;  214,230; 8617,135;59,39537
 510,29; 5099,339;  226,922; 8521,180;58,74446
 510,87; 4980,472;  190,614; 8322,616;58,90134
 511,46; 4868,730;  194,614; 8135,117;58,86423
 512,04; 4831,270;  195,922; 8010,260;59,31849
 512,62; 4702,039;  201,076; 7840,767;58,91551
 513,21; 4573,245;  175,845; 7675,851;58,63195
 513,79; 4518,631;  196,231; 7565,749;58,65240
 514,38; 4419,072;  184,385; 7423,098;58,50055
 514,96; 4335,684;  215,769; 7305,234;58,11319
 515,54; 4233,754;  176,693; 7155,496;58,13406
 516,13; 4186,124;  209,616; 7052,501;58,11157
 516,71; 4079,437;  194,693; 6922,234;57,74389
 517,30; 4021,112;  187,078; 6804,706;57,93668
 517,88; 3968,322;  212,770; 6736,359;57,56879
 518,46; 3864,256;  178,540; 6619,488;57,22318
 519,05; 3835,157;  190,156; 6566,140;57,16767
 519,63; 3779,975;  196,309; 6533,682;56,54814
 520,22; 3759,934;  211,541; 6472,086;56,67866
 520,80; 3689,380;  200,541; 6413,441;56,15476
 521,38; 3678,507;  221,156; 6378,678;56,14841
 521,97; 3605,820;  184,464; 6303,939;55,90931
 522,55; 3593,762;  200,772; 6314,105;55,50147
 523,13; 3553,429;  181,541; 6333,124;54,81334
 523,72; 3535,004;  197,540; 6271,219;54,94963
 524,30; 3616,195;  211,542; 6450,215;54,57335
 524,89; 3574,804;  180,772; 6416,601;54,42792
 525,47; 3618,606;  202,696; 6547,297;53,83964
 526,05; 3610,072;  171,619; 6550,887;53,90043
 526,64; 3683,428;  203,773; 6701,691;53,55032
 527,22; 3730,432;  202,157; 6795,446;53,51312
 527,80; 3764,042;  233,234; 6919,050;52,81042
 528,39; 3765,594;  192,081; 7006,777;52,43833
 528,97; 3827,029;  202,388; 7150,926;52,16407
 529,55; 3895,776;  209,926; 7310,064;51,91237
 530,14; 4018,623;  215,081; 7543,808;51,89908
 530,72; 3988,183;  196,927; 7637,114;50,95646
 531,30; 4058,222;  183,004; 7742,240;51,26468
 531,89; 4100,337;  198,389; 7837,915;51,07579
 532,47; 4127,385;  227,620; 7895,267;50,86000
 533,05; 4117,426;  230,157; 7966,554;50,24650
 533,63; 4156,447;  228,312; 8043,921;50,26013
 534,22; 4152,659;  198,004; 8116,293;49,94331
 534,80; 4204,146;  219,774; 8110,030;50,49737
 535,38; 4283,111;  296,004; 8220,505;50,31366
 535,97; 4188,809;  223,697; 8181,626;49,82593
 536,55; 4226,534;  257,313; 8293,586;49,39132
 537,13; 4184,374;  265,312; 8221,060;49,26076
 537,71; 4228,313;  304,389; 8292,475;49,12221
 538,30; 4250,572;  324,928; 8378,768;48,74252
 538,88; 4263,053;  358,005; 8484,878;48,05106
 539,46; 4387,011;  402,313; 8679,350;48,14160
 540,05; 4429,429;  415,236; 8811,236;47,81078
 540,63; 4484,411;  474,313; 9016,258;46,94597
 541,21; 4572,235;  497,313; 9124,994;47,23079
 541,79; 4615,119;  543,852; 9286,054;46,57027
 542,38; 4684,984;  566,313; 9436,804;46,43115
 542,96; 4736,274;  586,621; 9648,923;45,79027
 543,54; 4800,039;  585,544; 9774,071;45,86693
 544,12; 4847,239;  554,544; 9925,738;45,80734
 544,70; 4840,046;  541,852;10034,565;45,27888
 545,29; 4915,388;  552,928;10167,424;45,37378
 545,87; 4936,657;  520,775;10175,823;45,73651
 546,45; 4884,963;  469,543;10213,458;45,31464
 547,03; 4905,841;  460,313;10338,275;45,00451
 547,62; 4944,353;  440,159;10371,653;45,35263
 548,20; 4987,309;  429,621;10649,692;44,59547
 548,78; 4984,534;  392,545;10726,633;44,43536
 549,36; 5061,683;  360,391;10947,316;44,40658
 549,94; 5083,629;  322,929;11006,747;44,55991
 550,53; 5185,924;  324,622;11243,183;44,52329
 551,11; 5175,448;  301,699;11440,296;43,75550
 551,69; 5259,758;  316,314;11775,094;43,14110
 552,27; 5368,701;  258,468;12019,913;43,44903
 552,85; 5443,293;  273,776;12331,800;42,87201
 553,44; 5561,277;  266,084;12661,243;42,71985
 554,02; 5664,189;  283,699;13009,915;42,27879
 554,60; 5717,105;  228,699;13317,373;41,93248
 555,18; 5885,029;  264,391;13670,068;41,92729
 555,76; 6028,208;  237,545;13982,808;42,12843
 556,34; 6072,643;  247,930;14373,251;41,23597
 556,93; 6203,607;  235,545;14761,461;41,08562
 557,51; 6302,914;  214,238;15113,995;40,86426
 558,09; 6422,087;  248,699;15461,243;40,58091
 558,67; 6547,314;  246,931;15807,594;40,48917
 559,25; 6631,920;  245,623;16052,149;40,40291
 559,83; 6698,231;  225,470;16360,625;40,11589
 560,41; 6808,560;  229,007;16748,020;39,83018
 561,00; 6899,584;  232,315;17058,150;39,62519
 561,58; 6981,212;  228,469;17273,626;39,61678
 562,16; 7079,506;  220,930;17603,283;39,45712
 562,74; 7117,401;  205,545;17974,133;38,89930
 563,32; 7270,922;  193,854;18466,437;38,73053
 563,90; 7412,487;  226,931;18797,564;38,69311
 564,48; 7511,400;  234,392;19240,173;38,28839
 565,06; 7707,830;  222,085;19811,180;38,21384
 565,65; 7915,774;  222,470;20536,897;37,87114
 566,23; 8160,027;  270,469;21375,060;37,38313
 566,81; 8437,919;  223,777;21991,961;37,73462
 567,39; 8719,871;  236,700;22887,870;37,45136
 567,97; 8875,866;  238,238;23568,060;37,02398
 568,55; 9199,152;  248,085;24331,907;37,16630
 569,13; 9434,143;  219,931;25091,035;37,04786
 569,71; 9729,351;  221,545;26028,403;36,84217
 570,29;10078,356;  258,468;26992,073;36,73238
 570,87;10278,597;  253,161;27666,210;36,57176
 571,45;10392,774;  249,931;28319,910;36,13413
 572,03;10511,684;  213,008;28803,973;36,02074
 572,61;10725,285;  209,008;29491,672;35,91298
 573,20;10954,992;  237,392;30208,755;35,75947
 573,78;11143,173;  222,008;30773,869;35,74632
 574,36;11239,685;  242,777;31246,514;35,46962
 574,94;11342,574;  284,316;31638,691;35,26863
 575,52;11296,319;  237,163;31890,279;34,93860
 576,10;11525,459;  301,316;32476,509;34,88446
 576,68;11600,857;  280,393;33059,293;34,53583
 577,26;11855,486;  290,778;33663,469;34,65321
 577,84;11936,630;  299,392;34257,356;34,26954
 578,42;11950,526;  337,470;34447,841;34,04553
 579,00;11884,961;  296,623;34622,839;33,75944
 579,58;11908,595;  321,470;34793,157;33,61345
 580,16;11816,127;  302,470;34834,726;33,34174
 580,74;11791,475;  314,316;34963,385;33,12400
 581,32;11739,329;  297,778;35007,191;32,96383
 581,90;11651,876;  325,624;35003,337;32,66147
 582,48;11621,684;  324,009;35042,081;32,54120
 583,06;11580,961;  329,701;35222,640;32,24509
 583,64;11489,382;  313,931;35325,674;31,91915
 584,22;11307,460;  323,701;35070,002;31,61130
 584,80;11101,027;  335,393;34670,124;31,35494
 585,38;10913,622;  333,007;34418,597;31,04131
 585,96;10828,562;  316,316;34450,724;30,79663
 586,54;10734,146;  330,470;34470,574;30,47347
 587,12;10681,577;  295,086;34696,133;30,19237
 587,70;10664,680;  331,162;34753,613;30,01970
 588,28;10539,653;  318,470;34764,330;29,67318
 588,86;10515,217;  315,701;34867,916;29,51914
 589,44;10362,271;  292,163;34889,572;29,10654
 590,02;10378,396;  309,548;35182,730;28,87276
 590,59;10313,049;  279,547;35275,416;28,67053
 591,17;10317,555;  284,241;35504,999;28,48693
 591,75;10186,918;  279,317;35586,313;28,06130
 592,33;10251,582;  293,086;35815,051;28,03475
 592,91;10223,488;  252,779;35952,788;27,92915
 593,49;10217,235;  259,472;36396,482;27,55558
 594,07;10186,985;  273,010;36539,862;27,33619
 594,65;10124,322;  278,932;36458,604;27,21249
 595,23;10142,260;  267,163;36971,785;26,90423
 595,81;10104,461;  264,933;37058,179;26,74276
 596,39;10073,232;  259,009;37120,051;26,62492
 596,97;10034,834;  260,856;37369,541;26,33879
 597,55; 9969,215;  251,163;37243,691;26,27031
 598,12; 9863,205;  243,626;37252,491;25,99264
 598,70; 9846,591;  238,395;37384,802;25,86575
 599,28; 9825,418;  252,702;37532,327;25,67814
 599,86; 9785,473;  251,087;37624,562;25,51110
 600,44; 9735,982;  218,164;37634,990;25,43727
 601,02; 9696,503;  261,473;37607,537;25,26379
 601,60; 9590,938;  249,010;37692,240;24,94958
 602,18; 9492,434;  227,087;37760,235;24,68577
 602,75; 9478,651;  228,086;37816,367;24,61024
 603,33; 9443,380;  244,856;37813,806;24,48438
 603,91; 9367,988;  228,472;37735,988;24,36716
 604,49; 9344,093;  255,549;37919,537;24,13059
 605,07; 9223,995;  258,087;37892,202;23,82388
 605,65; 9193,082;  263,087;37828,516;23,77184
 606,23; 9232,699;  345,009;38089,766;23,54682
 606,80; 9158,535;  375,394;38053,273;23,31113
 607,38; 9110,271;  420,088;38173,625;23,01820
 607,96; 9077,361;  460,856;38192,653;22,83619
 608,54; 9015,813;  528,318;38274,038;22,48598
 609,12; 8975,978;  537,702;38322,952;22,33220
 609,70; 8895,318;  574,087;38394,109;22,00218
 610,27; 8889,550;  572,471;38341,038;22,02117
 610,85; 8842,662;  583,010;38466,100;21,80301
 611,43; 8780,110;  580,549;38473,524;21,63874
 612,01; 8625,529;  557,010;38197,877;21,43553
 612,59; 8620,529;  540,164;38279,216;21,41115
 613,16; 8526,652;  514,163;38255,019;21,23028
 613,74; 8457,438;  475,933;38005,563;21,26721
 614,32; 8419,353;  446,318;38048,722;21,20352
 614,90; 8302,481;  421,779;37967,523;20,98960
 615,48; 8214,311;  369,471;37642,276;21,04709
 616,05; 8098,533;  333,624;37708,292;20,77586
 616,63; 8000,139;  337,778;37300,539;20,72995
 617,21; 7936,454;  335,855;37342,529;20,53845
 617,79; 7857,925;  325,471;37239,624;20,40533
 618,36; 7769,263;  323,779;37037,877;20,27963
 618,94; 7643,872;  255,394;36831,614;20,20022
 619,52; 7554,008;  285,701;36580,373;20,02582
 620,10; 7521,383;  280,009;36601,034;19,93714
 620,67; 7464,966;  278,547;36485,988;19,84791
 621,25; 7421,534;  311,010;36332,193;19,73984
 621,83; 7308,507;  285,086;36254,353;19,52617
 622,41; 7345,236;  323,471;36257,268;19,54084
 622,98; 7191,734;  299,778;36033,766;19,28684
 623,56; 7108,365;  295,086;35950,300;19,10879
 624,14; 7114,294;  271,164;35808,053;19,25641
 624,72; 7032,660;  283,086;35743,165;19,03429
 625,29; 6991,038;  268,624;35732,595;18,95562
 625,87; 6944,580;  308,010;35786,641;18,70582
 626,45; 6839,551;  265,624;35596,350;18,60683
 627,02; 6817,217;  263,010;35574,791;18,56096
 627,60; 6722,731;  258,626;35490,755;18,34719
 628,18; 6670,978;  244,240;35594,183;18,18033
 628,76; 6636,390;  259,547;35594,347;18,04692
 629,33; 6627,403;  269,317;35636,853;17,97718
 629,91; 6585,075;  256,009;35550,649;17,93209
 630,49; 6604,897;  277,471;35666,134;17,87981
 631,06; 6571,989;  271,317;35835,899;17,71614
 631,64; 6537,516;  264,855;35698,240;17,70269
 632,22; 6443,195;  239,239;35773,392;17,45913
 632,79; 6495,561;  258,470;36012,918;17,44424
 633,37; 6421,338;  234,471;36065,005;17,26702
 633,95; 6399,031;  257,547;36057,791;17,15487
 634,52; 6399,486;  224,702;36271,469;17,12993
 635,10; 6403,110;  223,625;36225,572;17,16431
 635,68; 6394,599;  239,470;36398,362;17,02245
 636,25; 6335,522;  225,931;36481,485;16,85146
 636,83; 6353,544;  212,240;36640,886;16,85845
 637,41; 6349,555;  215,701;36642,490;16,83886
 637,98; 6341,553;  249,162;36838,310;16,65081
 638,56; 6316,054;  245,085;37009,638;16,51310
 639,13; 6277,098;  224,470;37001,112;16,45780
 639,71; 6335,548;  269,394;37268,903;16,39523
 640,29; 6197,254;  200,394;37032,628;16,28155
 640,86; 6210,521;  214,086;37229,056;16,20003
 641,44; 6147,095;  222,317;37145,176;16,04637
 642,02; 6182,746;  238,471;37227,218;16,07050
 642,59; 6152,859;  210,163;37250,569;16,04382
 643,17; 6119,972;  216,624;37360,919;15,89301
 643,74; 6092,547;  213,317;37234,731;15,88062
 644,32; 6105,814;  251,548;37263,082;15,81741
 644,89; 6084,311;  233,086;37256,971;15,80392
 645,47; 6064,424;  262,317;37298,860;15,66590
 646,05; 6041,306;  226,009;37154,057;15,74764
 646,62; 5948,035;  230,855;37231,484;15,45157
 647,20; 6017,609;  238,932;37420,758;15,54167
 647,77; 5926,645;  210,009;37197,954;15,45540
 648,35; 5919,143;  213,086;37083,689;15,47590
 648,92; 5900,640;  241,009;37129,425;15,34257
 649,50; 5831,599;  203,778;37099,929;15,25314
 650,08; 5866,174;  198,317;37006,356;15,39842
 650,65; 5856,748;  201,471;37262,092;15,25953
 651,23; 5932,092;  207,548;38161,904;15,08271
 651,80; 6102,897;  209,779;39002,254;15,19140
 652,38; 6177,472;  215,394;39431,451;15,20315
 652,95; 6194,354;  196,932;39754,571;15,16122
 653,53; 6275,928;  219,702;39976,998;15,23299
 654,10; 6283,810;  243,932;40173,964;15,12615
 654,68; 6203,000;  211,086;40104,007;15,01999
 655,25; 6198,575;  201,702;40172,896;15,00299
 655,83; 6209,072;  206,394;40271,246;14,98240
 656,40; 6258,416;  227,394;40136,674;15,11183
 656,98; 6176,298;  207,471;40074,255;14,97193
 657,55; 6164,719;  212,702;39932,682;14,98494
 658,13; 6054,524;  201,702;39496,571;14,89462
 658,70; 5997,483;  232,086;39202,922;14,79413
 659,28; 5806,750;  222,010;38260,888;14,68166
 659,85; 5678,940;  218,856;37545,777;14,62774
 660,43; 5699,053;  228,856;37693,743;14,60086
 661,00; 5713,089;  211,856;37842,786;14,61891
 661,58; 5680,356;  199,856;38096,290;14,46178
 662,15; 5726,699;  195,548;38274,641;14,52543
 662,73; 5820,428;  255,779;38669,760;14,48600
 663,30; 5838,694;  216,087;38896,649;14,53600
 663,88; 5879,346;  216,779;39132,077;14,55100
 664,45; 5869,074;  207,702;39339,350;14,46750
 665,03; 5898,572;  216,010;39734,162;14,37962
 665,60; 6052,069;  273,933;40079,436;14,51592
 666,17; 6012,644;  218,164;40213,633;14,48784
 666,75; 6086,526;  210,010;40594,291;14,55149
 667,32; 6157,716;  226,548;40927,949;14,57239
 667,90; 6137,059;  213,471;41280,069;14,42435
 668,47; 6210,249;  229,625;41381,727;14,53297
 669,05; 6252,978;  208,087;41795,539;14,53537
 669,62; 6273,398;  185,395;41861,736;14,60782
 670,19; 6292,819;  204,087;41920,856;14,59541
 670,77; 6320,624;  216,241;42237,283;14,52697
 671,34; 6329,660;  204,856;42056,634;14,63451
 671,92; 6392,773;  201,856;42458,907;14,65061
 672,49; 6353,271;  232,010;42329,565;14,54066
 673,06; 6333,614;  171,472;42392,685;14,59490
 673,64; 6358,343;  187,625;42370,959;14,62833
 674,21; 6369,225;  191,087;42297,848;14,67256
 674,79; 6414,030;  211,241;42510,506;14,66406
 675,36; 6448,451;  224,626;42634,395;14,67545
 675,93; 6416,179;  185,395;42558,822;14,70446
 676,51; 6450,600;  231,472;42655,250;14,65953
 677,08; 6483,174;  211,856;42699,062;14,76049
 677,65; 6521,133;  204,933;42771,259;14,83849
 678,23; 6554,400;  209,395;43135,224;14,78132
 678,80; 6547,667;  195,780;43281,960;14,74228
 679,38; 6576,626;  207,933;43472,695;14,72028
 679,95; 6662,124;  217,626;43720,276;14,81403
 680,52; 6694,544;  206,318;43988,780;14,81924
 681,10; 6772,119;  218,472;44433,439;14,82224
 681,67; 6828,847;  219,164;44791,097;14,82925
 682,24; 6851,268;  191,857;44849,909;14,91201
 682,82; 6958,227;  199,626;45425,798;14,94400
 683,39; 7062,647;  238,857;45725,302;15,00181
 683,96; 7093,683;  202,780;45906,730;15,07726
 684,54; 7157,796;  195,395;46337,080;15,08918
 685,11; 7247,678;  224,318;46704,200;15,11054
 685,68; 7328,484;  214,087;47093,627;15,17591
 686,25; 7359,289;  195,857;47210,209;15,23669
 686,83; 7446,402;  202,857;47313,175;15,37571
 687,40; 7494,207;  189,241;47709,294;15,37239
 687,97; 7618,320;  227,241;48147,183;15,42381
 688,55; 7609,279;  191,472;48144,688;15,46884
 689,12; 7646,546;  186,318;48370,731;15,48266
 689,69; 7701,120;  179,780;48471,696;15,57474
 690,26; 7758,387;  210,395;48612,355;15,59439
 690,84; 7812,577;  194,934;48750,474;15,68851
 691,41; 7874,921;  207,703;48757,671;15,79243
 691,98; 7963,726;  211,703;49097,099;15,85754
 692,56; 7979,762;  184,472;49191,141;15,90659
 693,13; 8097,798;  249,549;49151,953;16,04880
 693,70; 8092,219;  224,934;49352,304;16,01406
 694,27; 8089,101;  206,549;49474,193;15,99945
 694,84; 8131,060;  199,780;49548,005;16,07207
 695,42; 8212,865;  233,703;49732,125;16,12003
 695,99; 8241,286;  217,472;49894,398;16,15199
 696,56; 8237,245;  192,396;49755,595;16,23150
 697,13; 8356,358;  209,549;50070,792;16,33896
 697,71; 8406,855;  186,934;50102,065;16,46779
 698,28; 8470,122;  199,242;50599,416;16,41042
 698,85; 8504,312;  166,088;50532,536;16,55512
 699,42; 8539,348;  185,549;50656,348;16,55175
 699,99; 8645,230;  218,626;50743,006;16,67829
 700,57; 8702,805;  206,857;50905,049;16,75789
 701,14; 8726,456;  192,396;51031,092;16,78654
 701,71; 8765,107;  219,319;51123,596;16,78796
 702,28; 8846,297;  203,703;51221,716;16,94028
 702,85; 8857,949;  208,242;51270,682;16,93947
 703,43; 8948,062;  222,396;51474,417;17,02502
 704,00; 9058,559;  230,627;51701,844;17,15120
 704,57; 9110,672;  214,165;51713,964;17,27484
 705,14; 9173,708;  242,242;52035,391;17,24449
 705,71; 9201,975;  248,396;51984,357;17,30630
 706,28; 9211,857;  217,011;51819,246;17,43112
 706,86; 9399,124;  240,627;52259,212;17,60620
 707,43; 9396,083;  266,165;52100,947;17,61350
 708,00; 9440,196;  244,704;52080,529;17,73965
 708,57; 9413,540;  209,319;52025,495;17,76322
 709,14; 9490,730;  242,550;52156,076;17,81459
 709,71; 9531,996;  223,627;52259,580;17,88834
 710,28; 9610,494;  219,550;52565,623;17,94011
 710,86; 9711,299;  227,242;52586,358;18,11348
 711,43; 9817,412;  244,165;52668,709;18,26100
 712,00; 9859,602;  229,935;52860,752;18,29663
 712,57; 9948,023;  239,935;52817,564;18,46429
 713,14;10039,212;  218,550;53009,683;18,60286
 713,71;10059,633;  226,012;52880,957;18,67559
 714,28;10133,900;  224,012;52901,077;18,81253
 714,85;10112,090;  196,627;52665,427;18,89783
 715,42;10208,356;  215,627;52958,316;18,94619
 716,00;10321,162;  254,396;53062,897;19,06277
 716,57;10349,659;  206,089;53119,248;19,17022
 717,14;10320,234;  200,165;53041,752;19,15171
 717,71;10414,962;  192,858;53116,180;19,31493
 718,28;10513,767;  225,550;53222,453;19,41286
 718,85;10567,342;  194,935;53175,342;19,57782
 719,42;10617,839;  223,396;53318,154;19,57715
 719,99;10633,260;  195,704;53138,120;19,71492
 720,56;10759,604;  222,089;53585,702;19,74663
 721,13;10814,101;  202,012;53579,437;19,88123
 721,70;10854,137;  192,166;53442,864;20,02222
 722,27;10917,250;  219,166;53494,446;20,08077
 722,84;11026,825;  247,396;53590,565;20,20770
 723,41;11019,476;  191,243;53629,608;20,26303
 723,98;11134,589;  201,243;53860,420;20,37554
 724,55;11237,317;  238,320;53924,848;20,48744
 725,12;11242,430;  158,627;53764,737;20,67638
 725,69;11392,697;  196,781;54047,395;20,79069
 726,27;11433,348;  207,858;54041,976;20,85200
 726,84;11629,923;  204,627;54414,634;21,07599
 727,41;11646,113;  223,550;54344,370;21,10567
 727,98;11785,149;  224,935;54713,797;21,21574
 728,55;11885,185;  240,166;54539,301;21,44605
 729,12;11955,298;  190,935;54672,806;21,59317
 729,69;12055,257;  232,012;54866,079;21,64079
 730,26;12113,293;  237,320;55057,584;21,66347
 730,82;12129,406;  206,935;54970,703;21,77073
 731,39;12166,980;  210,551;54992,592;21,82545
 731,96;12398,401;  203,397;55354,174;22,11212
 732,53;12495,437;  223,166;55482,293;22,20859
 733,10;12582,473;  231,243;55594,952;22,30925
 733,67;12657,509;  230,397;55848,148;22,34379
 734,24;12717,622;  216,858;55370,191;22,66547
 734,81;12808,812;  229,012;55575,696;22,72909
 735,38;12784,309;  215,320;55266,508;22,83146
 735,95;12785,192;  205,166;55096,550;22,91803
 736,52;12895,920;  235,089;55317,593;22,98521
 737,09;12958,417;  228,397;55024,636;23,23156
 737,66;13059,915;  262,243;55225,910;23,28388
 738,23;13137,028;  206,397;55259,568;23,48753
 738,80;13329,218;  258,243;55575,226;23,62923
 739,37;13338,485;  241,474;55747,961;23,59546
 739,94;13490,674;  218,859;55748,235;23,90053
 740,51;13589,326;  305,474;55838,432;23,92066
 741,07;13567,977;  224,859;55750,474;24,03056
 741,64;13691,859;  240,551;55956,363;24,14271
 742,21;13767,203;  217,166;56078,637;24,25650
 742,78;13863,008;  201,243;55809,218;24,56800
 743,35;13941,583;  212,551;56235,107;24,50626
 743,92;14025,927;  264,013;56241,073;24,58492
 744,49;14044,655;  228,013;56096,501;24,73065
 745,06;14131,845;  210,013;56166,697;24,87966
 745,63;14217,727;  207,090;56169,586;25,03576
 746,19;14303,609;  209,551;56107,168;25,21406
 746,76;14351,722;  230,551;56238,749;25,21269
 747,33;14452,143;  217,859;56054,484;25,49274
 747,90;14554,256;  240,397;56400,219;25,48772
 748,47;14603,445;  222,244;56178,493;25,70080
 749,04;14666,789;  226,782;56162,305;25,81545
 749,61;14757,287;  248,244;56187,732;25,93703
 750,17;14830,477;  238,244;56351,544;26,00494
 750,74;14896,513;  231,859;56209,510;26,19734
 751,31;14961,702;  220,244;56066,092;26,39670
 751,88;14968,969;  201,167;56004,750;26,46390
 752,45;15148,621;  221,013;56076,562;26,72538
 753,02;15080,734;  235,013;55992,758;26,62540
 753,58;15141,770;  207,474;55871,724;26,82924
 754,15;15287,729;  215,936;56093,767;26,97276
 754,72;15291,303;  207,167;55855,195;27,10633
 755,29;15277,955;  199,705;55814,468;27,11195
 755,86;15395,375;  221,167;55911,973;27,24724
 756,42;15546,642;  227,244;55749,323;27,59154
 756,99;15539,216;  196,859;55730,289;27,62725
 757,56;15619,945;  197,398;55635,024;27,81964
 758,13;15655,135;  170,705;55714,529;27,87786
 758,70;15720,094;  187,321;55711,879;27,97460
 759,26;15800,053;  197,090;55807,076;28,05784
 759,83;15892,243;  198,090;55915,426;28,16745
 760,40;15936,279;  184,321;55664,008;28,39230
 760,97;16035,776;  177,936;55709,897;28,55624
 761,53;15972,197;  175,167;55292,862;28,66054
 762,10;16038,079;  171,321;55418,675;28,71949
 762,67;16094,653;  208,706;55261,102;28,85605
 763,24;16052,074;  154,552;55011,376;28,98003
 763,80;16155,033;  190,706;55073,418;29,08808
 764,37;16176,608;  192,859;54953,307;29,18849
 764,94;16161,721;  183,090;54539,889;29,39583
 765,50;16145,372;  178,398;54532,855;29,37565
 766,07;16288,331;  221,936;54550,974;29,57239
 766,64;16287,983;  181,321;54185,171;29,82502
 767,21;16308,172;  189,629;54028,368;29,93856
 767,77;16319,131;  206,475;54018,180;29,94266
 768,34;16340,706;  207,937;53990,223;29,99644
 768,91;16421,434;  214,013;53849,189;30,21789
 769,47;16481,778;  210,937;53857,308;30,32981
 770,04;16518,583;  202,783;53783,428;30,45092
 770,61;16504,619;  202,475;53440,009;30,62152
 771,18;16470,194;  187,629;53325,744;30,64197
 771,74;16625,845;  202,552;53585,249;30,76520
 772,31;16677,881;  210,706;53371,599;30,97611
 772,88;16591,840;  184,167;53081,873;31,01774
 773,44;16593,030;  197,860;52800,070;31,16822
 774,01;16757,066;  210,860;53040,959;31,31966
 774,58;16756,564;  196,168;52673,232;31,55740
 775,14;16788,061;  189,014;52862,506;31,51309
 775,71;16776,251;  190,552;52706,241;31,58237
 776,27;16909,441;  237,937;52611,361;31,83199
 776,84;17003,015;  254,706;52651,711;31,96425
 777,41;16971,128;  217,860;52505,216;32,04076
 777,97;16969,164;  199,629;52204,258;32,24624
 778,54;16985,277;  203,322;52232,301;32,25502
 779,11;17117,775;  232,322;52317,729;32,41878
 779,67;17117,349;  192,398;52169,925;32,56205
 780,24;17080,232;  215,552;51941,430;32,60395
 780,80;17162,575;  230,552;51913,242;32,76150
 781,37;17231,534;  215,399;51974,054;32,87592
 781,94;17192,109;  213,783;51672,020;32,99438
 782,50;17307,145;  219,706;51698,678;33,19305
 783,07;17372,565;  237,014;51642,875;33,33385
 783,63;17342,217;  190,322;51544,302;33,39935
 784,20;17459,176;  235,553;51440,268;33,63679
 784,77;17441,750;  214,322;51211,388;33,78122
 785,33;17448,556;  196,937;51066,508;33,91343
 785,90;17464,669;  212,476;51080,397;33,91566
 786,46;17566,320;  234,553;50914,132;34,19872
 787,03;17563,510;  197,783;50790,867;34,32431
 787,59;17650,238;  208,322;50631,140;34,59132
 788,16;17647,274;  216,706;50664,568;34,55165
 788,73;17687,387;  223,399;50437,380;34,77914
 789,29;17610,962;  205,168;50103,192;34,88273
 789,86;17702,536;  231,245;50010,466;35,09756
 790,42;17733,495;  213,168;49875,124;35,27917
 790,99;17663,839;  228,553;49488,321;35,39458
 791,55;17699,106;  209,168;49533,286;35,45920
 792,12;17754,757;  231,476;49512,406;35,55794
 792,68;17706,408;  208,937;49095,680;35,79185
 793,25;17720,983;  226,937;48901,569;35,94079
 793,81;17735,096;  268,937;48494,612;36,21755
 794,38;17603,363;  196,322;48275,962;36,20460
 794,94;17691,399;  198,476;48162,005;36,47130
 795,51;17661,973;  230,938;47886,279;36,57730
 796,07;17586,086;  218,476;47564,168;36,68256
 796,64;17693,814;  226,399;47808,672;36,70992
 797,20;17484,004;  224,015;47354,022;36,62208
 797,77;17494,348;  205,015;46997,065;36,94930
 798,33;17452,538;  222,245;46805,723;36,98799
 798,90;17485,574;  243,861;46821,074;37,01749
 799,46;17378,071;  220,015;46297,578;37,23734
 800,03;17400,954;  220,861;46275,929;37,30337
 800,59;17410,759;  235,476;45994,818;37,53394
 801,15;17367,795;  230,476;45830,245;37,58203
 801,72;17246,292;  230,322;45478,057;37,60624
 802,28;17247,713;  259,399;45207,562;37,79535
 802,85;17188,980;  228,784;45054,297;37,83603
 803,41;17269,554;  218,092;44878,263;38,18047
 803,98;17127,052;  215,553;44497,306;38,19067
 804,54;17113,396;  229,015;44161,733;38,43236
 805,11;17063,585;  224,784;44049,161;38,42337
 805,67;17078,545;  250,323;43958,357;38,50144
 806,23;17026,196;  230,169;43495,939;38,82059
 806,80;17062,463;  247,476;43403,212;38,96350
 807,36;17021,730;  239,630;43432,563;38,85381
 807,93;16985,073;  233,630;43096,836;39,08117
 808,49;16895,955;  205,169;42759,648;39,22216
 809,05;16899,607;  191,092;42576,537;39,42041
 809,62;16983,797;  232,092;42497,119;39,63491
 810,18;16951,525;  229,553;42374,084;39,67768
 810,74;16883,792;  199,015;42189,589;39,73458
 811,31;16844,905;  195,784;41949,555;39,87453
 811,87;16861,633;  217,554;41813,598;40,01361
 812,44;16991,823;  237,630;41883,564;40,23008
 813,00;16847,628;  181,092;41517,683;40,31909
 813,56;16997,972;  232,861;41640,265;40,48820
 814,13;17013,239;  225,861;41665,077;40,51085
 814,69;16968,813;  229,554;41382,735;40,67549
 815,25;16849,157;  200,400;40900,778;40,90566
 815,82;16892,116;  230,631;40897,513;40,97065
 816,38;16881,075;  252,092;40699,633;41,11247
 816,94;16825,957;  206,477;40456,060;41,29106
 817,51;16755,378;  201,400;40201,795;41,38454
 818,07;16688,183;  203,169;39878,530;41,54975
 818,63;16559,911;  229,708;39651,188;41,42463
 819,20;16637,640;  224,938;39564,231;41,72089
 819,76;16425,445;  207,246;39142,813;41,65394
 820,32;16471,404;  256,169;39117,471;41,72592
 820,89;16446,440;  243,323;38874,668;41,94293
 821,45;16340,322;  212,785;38522,018;42,09830
 822,01;16262,051;  239,015;38368,753;42,02241
 822,57;16274,548;  236,939;38122,411;42,33182
 823,14;16175,276;  209,246;38010,685;42,23657
 823,70;16146,159;  211,477;37733,420;42,46763
 824,26;16149,118;  211,015;37560,001;42,67345
 824,82;16167,461;  228,708;37415,813;42,86097
 825,39;16070,267;  217,708;37118,241;42,96024
 825,95;16096,610;  232,477;37037,976;43,10262
 826,51;15971,800;  230,016;36661,711;43,20904
 827,08;16091,682;  246,554;36741,062;43,41784
 827,64;16006,872;  231,785;36610,028;43,36407
 828,20;15836,062;  206,554;36350,070;43,24291
 828,76;15939,098;  235,708;36260,344;43,59070
 829,32;15858,057;  241,862;36114,079;43,53284
 829,89;15862,170;  203,631;35993,507;43,75131
 830,45;15825,822;  215,785;35818,396;43,84520
 831,01;15828,011;  216,554;35771,515;43,90796
 831,57;15805,663;  223,477;35624,789;44,01584
 832,14;15844,314;  218,477;35559,832;44,21403
 832,70;15745,735;  210,862;35379,029;44,17311
 833,26;15777,463;  184,939;35228,994;44,49406
 833,82;15755,653;  221,016;35148,960;44,47624
 834,38;15797,227;  204,785;35247,772;44,49519
 834,95;15761,110;  209,400;35016,815;44,67930
 835,51;15711,761;  182,401;34926,781;44,69604
 836,07;15797,951;  223,785;35040,593;44,73174
 836,63;15839,141;  231,708;35020,098;44,86391
 837,19;15848,254;  219,401;34756,987;45,25172
 837,75;15729,982;  185,708;34560,029;45,22060
 838,32;15803,018;  231,554;34622,841;45,27735
 838,88;15865,208;  238,016;34675,500;45,37844
 839,44;15875,782;  219,401;34458,235;45,72697
 840,00;15879,972;  222,324;34399,278;45,81347
 840,56;15821,624;  203,862;34165,551;45,98641
 841,12;15855,814;  199,862;34099,825;46,18280
 841,68;15825,850;  190,324;33935,483;46,33413
 842,25;15864,578;  200,708;33989,449;46,35825
 842,81;15767,306;  189,708;33763,569;46,39799
 843,37;15820,035;  186,939;33641,996;46,72865
 843,93;15846,455;  202,709;33671,808;46,74086
 844,49;15926,491;  213,555;33658,697;46,98122
 845,05;15786,296;  179,016;33464,586;46,88903
 845,61;15897,102;  226,785;33565,552;47,00329
 846,17;15846,445;  206,632;33410,441;47,10247
 846,73;15960,097;  211,093;33349,099;47,52550
 847,29;15918,979;  198,555;33127,527;47,74040
 847,86;15870,323;  209,170;33115,185;47,59359
 848,42;15839,051;  195,401;32856,920;47,89627
 848,98;15894,318;  205,632;32878,732;48,01713
 849,54;15849,046;  203,247;32831,467;47,95174
 850,10;15857,005;  216,478;32745,279;48,08209
 850,66;15796,810;  199,478;32511,168;48,27148
 851,22;15798,616;  191,016;32407,211;48,44644
 851,78;15855,421;  239,786;32581,485;48,28329
 852,34;15798,380;  219,324;32270,451;48,60689
 852,90;15693,954;  207,478;32195,570;48,41325
 853,46;15692,144;  188,247;31920,459;48,85854
 854,02;15670,873;  216,401;31898,425;48,77994
 854,58;15652,832;  205,401;31641,468;49,13920
 855,14;15651,175;  193,940;31606,511;49,20716
 855,70;15566,750;  166,555;31445,400;49,23518
 856,26;15553,171;  224,709;31435,827;49,11218
 856,82;15547,053;  194,709;31250,563;49,43462
 857,38;15589,935;  230,017;31264,144;49,49364
 857,94;15492,279;  211,555;31077,110;49,50737
 858,50;15523,238;  213,324;30971,845;49,77454
 859,06;15411,812;  204,786;30794,119;49,71349
 859,62;15419,848;  214,171;30736,161;49,81876
 860,18;15389,038;  208,171;30545,666;50,03995
 860,74;15312,382;  177,325;30374,247;50,12119
 861,30;15255,341;  176,094;30279,598;50,09134
 861,86;15383,454;  231,248;30364,948;50,28326
 862,42;15338,490;  210,709;30084,991;50,63814
 862,98;15354,064;  235,325;30010,880;50,77568
 863,54;15253,254;  206,325;29777,692;50,88344
 864,10;15351,290;  200,632;29861,504;51,07961
 864,66;15197,019;  177,786;29653,008;50,95545
 865,22;15183,824;  209,632;29465,590;51,18339
 865,78;15137,783;  211,786;29383,402;51,16616
 866,34;15191,357;  207,017;29318,368;51,47250
 866,90;15198,163;  226,017;29252,410;51,58114
 867,45;15031,352;  221,786;28986,223;51,48568
 868,01;15001,388;  213,171;28949,573;51,46162
 868,57;14993,501;  209,556;28593,231;52,08609
 869,13;14868,230;  190,248;28553,351;51,75027
 869,69;14904,420;  189,402;28412,317;52,13855
 870,25;14920,609;  194,940;28284,052;52,42483
 870,81;14906,261;  213,786;28210,941;52,47846
 871,37;14774,528;  207,171;28206,676;52,02719
 871,93;14761,410;  226,863;27964,181;52,40069
 872,49;14719,446;  223,094;27773,531;52,61750
 873,04;14628,790;  203,402;27623,651;52,60852
 873,60;14625,210;  197,556;27409,694;53,01919
 874,16;14636,092;  207,017;27378,121;53,10449
 874,72;14533,015;  194,248;27259,121;52,97925
 875,28;14626,092;  209,479;27254,583;53,30582
 875,84;14663,323;  207,787;27177,429;53,59929
 876,40;14635,708;  203,094;27136,583;53,58613
 876,95;14681,862;  220,094;27097,275;53,80686
 877,51;14689,323;  234,633;27088,583;53,82705
 878,07;14712,015;  242,017;27203,967;53,66822
 878,63;14708,015;  203,787;27116,967;53,89266
 879,19;14814,631;  226,171;27111,044;54,26271
 879,75;14916,785;  205,479;27221,660;54,45368
 880,30;14951,400;  204,710;27218,813;54,58886
 880,86;15134,400;  235,787;27351,352;54,94487
 881,42;15139,631;  192,710;27380,737;54,97612
 881,98;15237,477;  231,248;27497,737;55,03543
 882,54;15404,323;  207,787;27677,813;55,32043
 883,09;15430,323;  222,556;27728,890;55,28824
 883,65;15582,246;  189,863;27895,967;55,55593
 884,21;15798,169;  234,479;28106,967;55,83890
 884,77;15854,400;  204,479;28148,198;56,00515
 885,32;16030,092;  208,017;28301,967;56,31844
 885,88;16217,938;  248,633;28505,121;56,51554
 886,44;16293,246;  220,479;28639,429;56,55651
 887,00;16383,708;  237,402;28713,352;56,70155
 887,56;16524,477;  208,633;28820,737;57,02427
 888,11;16583,554;  208,556;28820,660;57,23102
 888,67;16771,938;  237,402;29049,583;57,38731
 889,23;16774,708;  213,633;29155,737;57,22139
 889,79;16763,246;  197,556;28932,198;57,65059
 890,34;16767,400;  210,863;28913,044;57,68390
 890,90;16899,092;  264,710;29075,352;57,73694
 891,46;16825,323;  194,402;28963,967;57,80734
 892,01;16884,323;  233,402;29017,660;57,84732
 892,57;16865,246;  239,633;28921,813;57,96496
 893,13;16766,708;  209,402;28708,275;58,09811
 893,69;16752,554;  199,787;28602,583;58,27865
 894,24;16660,554;  226,479;28535,967;58,05147
 894,80;16561,169;  229,171;28394,275;57,98664
 895,36;16575,785;  217,787;28279,198;58,29357
 895,91;16500,323;  210,402;27991,890;58,63588
 896,47;16464,169;  227,710;27950,352;58,56750
 897,03;16365,323;  203,556;27715,429;58,74470
 897,58;16419,862;  228,556;27554,275;59,25299
 898,14;16310,246;  224,094;27410,737;59,16932
 898,70;16166,708;  184,863;27270,583;59,00469
 899,25;16248,092;  208,248;27270,583;59,26999
 899,81;16144,862;  227,017;27002,352;59,44966
 900,37;16071,246;  183,863;26745,967;59,81222
 900,92;16169,938;  222,402;26673,737;60,29010
 901,48;15996,092;  206,633;26537,429;59,96575
 902,03;15937,246;  206,479;26396,737;60,06343
 902,59;15931,169;  209,402;26331,275;60,18622
 903,15;15911,323;  229,479;26172,352;60,44760
 903,70;15837,785;  215,556;25943,121;60,72175
 904,26;15751,554;  203,402;25826,737;60,67966
 904,82;15776,938;  216,248;25825,506;60,76197
 905,37;15644,631;  219,710;25617,660;60,73294
 905,93;15643,785;  206,633;25516,275;60,99317
 906,48;15583,015;  214,787;25397,813;61,02614
 907,04;15592,169;  231,556;25286,275;61,30826
 907,60;15478,477;  210,094;25075,044;61,40524
 908,15;15444,400;  195,710;24944,660;61,61348
 908,71;15436,246;  240,479;25003,737;61,36417
 909,26;15369,092;  195,556;24794,044;61,68483
 909,82;15290,169;  223,017;24712,506;61,52498
 910,37;15338,400;  248,325;24564,660;62,05736
 910,93;15243,708;  199,094;24395,275;62,17764
 911,48;15159,477;  203,479;24242,583;62,21529
 912,04;15121,554;  207,633;24199,275;62,16299
 912,60;15138,862;  209,710;24197,352;62,23685
 913,15;15068,477;  214,863;23988,813;62,47853
 913,71;14955,862;  200,940;23847,506;62,39773
 914,26;14949,246;  193,479;23809,506;62,48201
 914,82;14887,246;  209,863;23623,352;62,68772
 915,37;14915,708;  200,940;23601,813;62,88127
 915,93;14847,785;  245,940;23394,660;63,07841
 916,48;14767,631;  204,094;23331,275;62,97152
 917,04;14669,631;  227,325;23243,583;62,74828
 917,59;14670,862;  242,248;23199,275;62,85053
 918,15;14483,938;  186,402;22993,352;62,68938
 918,70;14447,785;  202,940;22793,198;63,05747
 919,26;14467,708;  209,787;22780,121;63,17107
 919,81;14296,400;  203,248;22632,583;62,83357
 920,37;14334,015;  201,940;22625,583;63,02310
 920,92;14349,631;  221,633;22410,660;63,67110
 921,48;14266,015;  192,017;22187,121;63,98696
 922,03;14259,169;  211,402;22143,967;64,04981
 922,59;14150,938;  206,094;22018,583;63,93055
 923,14;14157,862;  202,556;21817,813;64,56229
 923,69;14113,631;  222,248;21830,967;64,28601
 924,25;14138,400;  218,017;21819,660;64,44132
 924,80;13979,785;  220,094;21615,275;64,31210
 925,36;14034,554;  208,094;21564,198;64,74243
 925,91;13956,015;  207,248;21413,583;64,83330
 926,47;13915,938;  194,633;21391,813;64,73175
 927,02;13859,400;  244,325;21247,429;64,82411
 927,57;13783,092;  203,479;21142,121;64,85432
 928,13;13745,169;  196,710;21022,044;65,05758
 928,68;13781,785;  199,710;20910,198;65,58066
 929,24;13650,554;  180,171;20668,967;65,74512
 929,79;13644,785;  192,094;20609,813;65,88733
 930,34;13571,092;  203,940;20470,044;65,95817
 930,90;13611,862;  195,710;20437,890;66,27819
 931,45;13521,015;  210,248;20363,121;66,04898
 932,01;13502,169;  220,940;20308,275;66,11743
 932,56;13450,400;  223,094;20166,044;66,32572
 933,11;13418,554;  222,248;20138,506;66,25896
 933,67;13377,631;  207,940;19942,352;66,73465
 934,22;13316,708;  206,940;19883,121;66,62760
 934,77;13268,708;  238,248;19814,660;66,56204
 935,33;13190,169;  229,248;19655,890;66,71725
 935,88;13228,938;  219,094;19545,737;67,31559
 936,43;13133,169;  201,863;19378,275;67,43340
 936,99;13151,323;  213,633;19397,275;67,44126
 937,54;13024,169;  190,248;19157,660;67,66301
 938,09;13031,169;  218,863;19201,429;67,49512
 938,65;12981,554;  204,479;19017,121;67,91749
 939,20;12911,938;  198,787;19036,890;67,48637
 939,75;12878,785;  197,710;18855,583;67,96635
 940,31;12814,169;  190,633;18727,890;68,09819
 940,86;12845,785;  206,556;18781,352;68,04505
 941,41;12865,631;  260,171;18636,506;68,59616
 941,96;12774,862;  202,094;18465,583;68,84100
 942,52;12714,708;  205,094;18439,506;68,60443
 943,07;12667,169;  183,325;18308,429;68,87599
 943,62;12580,092;  204,248;18210,967;68,72903
 944,18;12533,092;  193,402;18141,121;68,75353
 944,73;12541,169;  211,171;18004,121;69,29710
 945,28;12407,400;  171,940;17833,506;69,27732
 945,83;12444,708;  210,171;17933,275;69,03157
 946,39;12458,631;  203,479;17847,198;69,45901
 946,94;12389,708;  221,325;17754,890;69,40050
 947,49;12307,169;  199,402;17674,890;69,28429
 948,04;12321,631;  225,325;17612,275;69,57118
 948,59;12338,477;  225,863;17549,275;69,92049
 949,15;12229,015;  193,710;17439,044;69,78876
 949,70;12206,631;  194,940;17307,737;70,19128
 950,25;12119,246;  221,710;17227,583;69,96134
 950,80;12091,938;  177,094;17162,583;70,14720
 951,36;12081,938;  168,633;17053,813;70,55480
 951,91;12109,938;  216,017;17033,660;70,72288
 952,46;11953,862;  186,710;16851,198;70,61214
 953,01;11976,785;  220,017;16874,429;70,59251
 953,56;11834,400;  190,710;16723,813;70,42652
 954,11;11887,938;  210,017;16666,429;70,96274
 954,67;11840,631;  190,325;16595,660;71,01535
 955,22;11707,862;  176,940;16448,506;70,86547
 955,77;11772,169;  226,710;16405,967;71,35964
 956,32;11697,631;  240,863;16313,429;71,28151
 956,87;11634,169;  192,248;16185,506;71,54215
 957,42;11621,631;  200,710;16126,352;71,71404
 957,98;11553,477;  191,171;16080,890;71,50728
 958,53;11504,708;  219,171;15989,044;71,56390
 959,08;11424,323;  188,710;15911,044;71,46275
 959,63;11343,862;  189,940;15775,121;71,56748
 960,18;11388,708;  210,402;15762,737;71,87542
 960,73;11386,323;  216,325;15724,198;72,02792
 961,28;11300,785;  184,710;15541,352;72,38610
 961,83;11279,785;  214,633;15585,737;71,98671
 962,39;11253,092;  191,171;15382,429;72,81768
 962,94;11235,862;  219,017;15371,967;72,70429
 963,49;11169,323;  210,402;15196,352;73,12797
 964,04;11126,246;  219,940;15130,352;73,14557
 964,59;11058,708;  176,633;15055,660;73,13701
 965,14;11043,169;  215,479;15025,198;73,11206
 965,69;10997,246;  204,787;14934,583;73,26958
 966,24;10941,323;  200,633;14815,352;73,49228
 966,79;10890,938;  218,863;14717,506;73,60741
 967,34;10795,323;  185,094;14596,506;73,62380
 967,89;10850,554;  202,787;14507,044;74,43775
 968,44;10782,862;  198,017;14452,967;74,25382
 968,99;10765,708;  213,863;14338,198;74,70684
 969,55;10724,554;  202,094;14296,506;74,65696
 970,10;10664,631;  205,940;14232,660;74,56263
 970,65;10554,862;  220,094;14076,890;74,58266
 971,20;10548,708;  196,402;14068,506;74,62679
 971,75;10439,785;  188,094;13866,813;74,94627
 972,30;10404,477;  201,787;13871,352;74,63800
 972,85;10335,400;  190,325;13710,044;75,03910
 973,40;10253,400;  195,940;13601,583;75,02408
 973,95;10282,015;  212,633;13533,275;75,59232
 974,50;10257,708;  232,787;13453,737;75,82603
 975,05;10196,323;  204,248;13365,967;75,91770
 975,60;10168,169;  219,094;13343,660;75,80499
 976,15;10147,323;  199,325;13193,429;76,55778
 976,70;10078,246;  219,094;13112,890;76,46431
 977,25;10071,708;  205,633;13075,890;76,65794
 977,80; 9973,015;  194,633;12895,121;76,99218
 978,35; 9854,169;  215,171;12774,583;76,74721
 978,89; 9830,092;  183,325;12760,737;76,69915
 979,44; 9853,015;  209,017;12666,967;77,41240
 979,99; 9720,015;  185,325;12527,506;77,25288
 980,54; 9665,323;  232,325;12426,352;77,35753
 981,09; 9570,708;  216,248;12317,967;77,29860
 981,64; 9475,554;  213,094;12252,506;76,93449
 982,19; 9497,169;  238,633;12166,275;77,62252
 982,74; 9429,938;  226,787;12040,660;77,90123
 983,29; 9334,015;  202,556;11867,198;78,28324
 983,84; 9237,938;  215,633;11817,506;77,76594
 984,39; 9192,862;  255,171;11742,737;77,80317
 984,94; 9113,631;  189,402;11602,583;78,19230
 985,49; 9067,631;  232,402;11616,737;77,60865
 986,03; 9056,631;  235,863;11483,737;78,42165
 986,58; 8995,554;  250,248;11272,583;79,34168
 987,13; 8875,862;  217,940;11179,121;78,98712
 987,68; 8802,477;  224,863;11124,813;78,69406
 988,23; 8804,092;  223,402;11041,660;79,31675
 988,78; 8662,554;  194,940;10871,044;79,31370
 989,33; 8617,554;  222,633;10793,429;79,41617
 989,88; 8529,246;  228,940;10750,583;78,88793
 990,42; 8421,477;  211,556;10600,583;79,02493
 990,97; 8384,246;  207,171;10519,275;79,29589
 991,52; 8310,323;  233,710;10440,429;79,13036
 992,07; 8302,015;  236,710;10326,121;79,93832
 992,62; 8180,785;  223,710;10224,352;79,56564
 993,17; 8134,631;  221,017;10097,890;80,12266
 993,71; 8100,631;  223,094;10045,275;80,20150
 994,26; 7985,862;  204,863; 9927,275;80,03156
 994,81; 7965,708;  242,633; 9874,198;80,18504
 995,36; 7843,400;  206,940; 9703,429;80,41351
 995,91; 7804,938;  215,863; 9595,506;80,91007
 996,45; 7757,400;  221,402; 9499,890;81,22011
 997,00; 7660,554;  195,710; 9390,429;81,18621
 997,55; 7630,631;  220,863; 9359,506;81,08171
 998,10; 7507,477;  236,787; 9199,429;81,12218
 998,65; 7500,554;  214,325; 9193,044;81,14998
 999,19; 7379,938;  231,787; 9026,660;81,27635
 999,74; 7305,246;  241,094; 8959,506;81,02568
1000,29; 7240,246;  235,863; 8835,813;81,44678
1000,84; 7169,938;  209,094; 8706,352;81,91871
1001,38; 7056,323;  212,017; 8637,967;81,22889
1001,93; 7039,785;  237,633; 8545,044;81,88052
1002,48; 6905,246;  200,402; 8430,583;81,46655
1003,03; 6893,631;  218,017; 8380,583;81,78328
1003,57; 6834,631;  223,940; 8267,813;82,18293
1004,12; 6773,785;  240,325; 8173,352;82,35771
1004,67; 6694,554;  216,787; 8122,429;81,93853
1005,22; 6518,477;  214,171; 7957,890;81,41186
1005,76; 6453,246;  204,017; 7781,429;82,47182
1006,31; 6450,785;  233,094; 7764,890;82,55256
1006,86; 6333,708;  211,094; 7661,967;82,17310
1007,40; 6208,631;  198,863; 7516,121;82,13142
1007,95; 6129,400;  215,556; 7444,506;81,80779
1008,50; 6084,938;  217,940; 7290,737;82,95161
1009,04; 6000,092;  215,325; 7252,044;82,20830
1009,59; 5889,400;  221,094; 7065,506;82,81655
1010,14; 5837,169;  215,171; 6978,121;83,12938
1010,68; 5771,246;  210,402; 6885,352;83,30915
1011,23; 5679,477;  215,633; 6783,583;83,18949
1011,78; 5633,323;  230,556; 6716,813;83,29560
1012,32; 5567,246;  227,633; 6596,275;83,84226
1012,87; 5510,169;  239,248; 6569,044;83,27158
1013,42; 5439,708;  200,863; 6439,352;83,97618
1013,96; 5456,477;  236,479; 6478,429;83,62768
1014,51; 5351,785;  183,248; 6356,044;83,73088
1015,06; 5352,400;  194,248; 6373,660;83,47319
1015,60; 5463,169;  248,863; 6441,660;84,19954
1016,15; 5434,708;  200,479; 6417,044;84,19808
1016,69; 5504,785;  215,171; 6450,737;84,82973
1017,24; 5540,938;  191,248; 6452,506;85,44115
1017,79; 5624,708;  244,710; 6527,890;85,62539
1018,33; 5587,015;  206,556; 6545,967;84,87317
1018,88; 5723,400;  222,710; 6613,737;86,06896
1019,42; 5768,015;  217,402; 6592,813;87,06283
1019,97; 5765,862;  207,787; 6645,583;86,33506
1020,51; 5854,169;  221,248; 6675,352;87,27658
1021,06; 5828,400;  195,787; 6637,275;87,44273
1021,61; 5841,554;  180,556; 6637,429;87,67399
1022,15; 5799,169;  178,863; 6638,121;87,01164
1022,70; 5860,092;  216,094; 6619,583;88,13943
1023,24; 5803,169;  191,710; 6585,583;87,76307
1023,79; 5786,477;  213,017; 6536,813;88,13471
1024,33; 5758,169;  211,325; 6439,660;89,05822
1024,88; 5683,477;  218,325; 6365,737;88,90168
1025,42; 5563,938;  213,940; 6206,352;89,27955
1025,97; 5547,246;  197,248; 6175,967;89,48402
1026,51; 5452,554;  171,940; 6032,967;90,09707
1027,06; 5380,708;  199,633; 6030,737;88,85239
1027,60; 5291,785;  203,248; 5913,660;89,10980
1028,15; 5225,554;  220,094; 5816,813;89,43560
1028,69; 5121,323;  181,633; 5645,967;90,39875
1029,24; 5041,631;  202,325; 5606,352;89,54999
1029,78; 4946,015;  189,710; 5507,121;89,44776
1030,33; 4850,862;  174,402; 5402,121;89,45506
1030,87; 4824,938;  197,402; 5345,813;89,88280
1031,42; 4741,785;  183,248; 5266,275;89,68153
1031,96; 4694,400;  213,940; 5201,121;89,83953
1032,51; 4601,246;  191,094; 5094,967;89,93202
1033,05; 4560,862;  208,940; 5082,429;89,29787
1033,60; 4428,323;  174,094; 4932,121;89,41162
1034,14; 4383,323;  202,787; 4839,198;90,16750
1034,69; 4370,323;  199,633; 4803,506;90,59091
1035,23; 4304,092;  203,248; 4736,429;90,46284
1035,77; 4228,400;  198,248; 4712,044;89,28520
1036,32; 4147,323;  184,248; 4588,660;89,97967
1036,86; 4120,015;  201,325; 4551,044;90,09065
1037,41; 4057,015;  211,787; 4464,275;90,42303
1037,95; 3987,862;  181,402; 4387,813;90,49185
1038,50; 3924,938;  196,787; 4359,352;89,56380
1039,04; 3915,708;  211,479; 4286,506;90,90072
1039,58; 3842,862;  177,325; 4229,198;90,46524
1040,13; 3791,477;  201,940; 4152,429;90,86311
1040,67; 3777,708;  231,479; 4135,506;90,83515
1041,21; 3717,708;  230,248; 4055,275;91,17477
1041,76; 3614,477;  186,940; 3982,890;90,29456
1042,30; 3614,785;  199,171; 3926,121;91,64635
1042,85; 3545,631;  201,787; 3836,967;91,98564
1043,39; 3466,554;  190,863; 3820,352;90,25212
1043,93; 3464,169;  220,710; 3775,583;91,23981
1044,48; 3416,323;  206,556; 3680,660;92,39123
1045,02; 3333,554;  199,633; 3651,967;90,77687
1045,56; 3323,169;  225,171; 3618,813;91,28829
1046,11; 3281,169;  209,633; 3548,506;91,99321
1046,65; 3244,554;  216,787; 3522,890;91,58113
1047,19; 3175,323;  192,325; 3449,660;91,57788
1047,74; 3128,169;  179,556; 3397,121;91,64114
1048,28; 3094,862;  207,171; 3367,429;91,37516
1048,82; 3079,477;  215,556; 3326,890;92,04800
1049,37; 3014,631;  213,171; 3282,660;91,26796
1049,91; 2986,708;  214,171; 3209,737;92,55470
1050,45; 2941,246;  218,633; 3190,583;91,61034
1050,99; 2898,246;  208,863; 3146,506;91,54902
1051,54; 2826,554;  201,402; 3081,198;91,15756
1052,08; 2837,015;  221,710; 3041,813;92,73792
1052,62; 2789,554;  219,633; 2988,967;92,79923
1053,16; 2721,015;  197,171; 2941,737;91,95788
1053,71; 2730,246;  208,787; 2931,660;92,60291
1054,25; 2651,400;  212,402; 2884,737;91,26844
1054,79; 2621,631;  206,402; 2830,737;92,03205
1055,33; 2574,092;  182,940; 2764,506;92,62411
1055,88; 2572,938;  217,325; 2750,198;93,00164
1056,42; 2554,246;  223,171; 2709,813;93,74388
1056,96; 2521,323;  216,094; 2692,352;93,09325
1057,50; 2467,631;  221,787; 2617,198;93,75609
1058,05; 2437,015;  209,633; 2604,890;92,99136
1058,59; 2429,015;  225,710; 2565,506;94,16657
1059,13; 2341,092;  195,094; 2498,352;93,17230
1059,67; 2319,169;  218,787; 2483,044;92,76253
1060,21; 2298,631;  206,633; 2443,429;93,52654
1060,76; 2255,862;  227,017; 2397,506;93,47409
1061,30; 2270,169;  234,787; 2387,198;94,56290
1061,84; 2214,938;  216,325; 2339,198;94,14663
1062,38; 2143,785;  198,248; 2289,044;93,05243
1062,92; 2209,938;  247,171; 2322,275;94,58646
1063,46; 2124,015;  228,556; 2237,583;94,34715
1064,01; 2101,631;  213,325; 2211,044;94,52308
1064,55; 2071,323;  219,633; 2195,352;93,72234
1065,09; 2004,169;  183,863; 2112,813;94,36770
1065,63; 2039,092;  238,248; 2152,737;94,06399
1066,17; 2032,477;  239,479; 2103,737;96,17759
1066,71; 1982,477;  233,171; 2065,275;95,48071
1067,25; 1948,785;  211,479; 2028,352;95,62065
1067,80; 1934,938;  229,633; 2043,275;94,02658
1068,34; 1936,323;  245,940; 2019,813;95,29333
1068,88; 1867,708;  216,325; 1951,044;95,19596
1069,42; 1897,169;  244,863; 1978,660;95,29989
1069,96; 1848,323;  210,863; 1900,583;96,90720
1070,50; 1859,400;  247,556; 1924,506;96,11761
1071,04; 1793,477;  206,479; 1880,967;94,77510
1071,58; 1779,400;  222,017; 1857,044;95,25120
1072,12; 1748,400;  209,017; 1830,967;94,90938
1072,66; 1748,477;  208,479; 1832,967;94,79895
1073,21; 1746,708;  233,325; 1825,813;95,03257
1073,75; 1719,554;  226,863; 1769,737;96,74745
1074,29; 1683,785;  215,479; 1754,429;95,40958
1074,83; 1687,631;  240,940; 1737,813;96,64750
1075,37; 1650,631;  230,325; 1721,737;95,23232
1075,91; 1633,708;  227,787; 1700,583;95,45932
1076,45; 1605,092;  222,710; 1648,737;96,93945
1076,99; 1586,785;  240,940; 1644,121;95,91382
1077,53; 1570,400;  207,940; 1628,429;95,91487
1078,07; 1568,092;  220,556; 1626,506;95,84527
1078,61; 1554,015;  224,787; 1581,813;97,95155
1079,15; 1525,092;  214,710; 1570,044;96,68333
1079,69; 1511,092;  220,094; 1539,813;97,82369
1080,23; 1511,708;  236,094; 1549,275;97,13921
1080,77; 1521,708;  252,171; 1544,967;98,20083
1081,31; 1461,169;  215,325; 1492,737;97,52881
1081,85; 1467,862;  233,171; 1495,506;97,81007
1082,39; 1405,092;  213,325; 1457,275;95,80508
1082,93; 1436,169;  225,094; 1455,967;98,39154
1083,47; 1387,554;  210,940; 1399,813;98,96880
1084,01; 1401,785;  234,479; 1432,429;97,44194
1084,55; 1374,246;  219,171; 1379,044;99,58633
1085,09; 1351,477;  233,402; 1387,813;96,85238
1085,63; 1340,092;  218,248; 1364,121;97,90301
1086,17; 1337,477;  216,479; 1355,275;98,43711
1086,71; 1306,015;  216,787; 1319,506;98,77663
1087,24; 1325,708;  247,863; 1344,890;98,25139
1087,78; 1300,246;  231,325; 1316,121;98,53659
1088,32; 1278,400;  207,710; 1275,813;100,24216
1088,86; 1288,631;  242,402; 1294,352;99,45614
1089,40; 1247,785;  232,710; 1262,890;98,53368
1089,94; 1207,785;  196,556; 1243,121;96,62357
1090,48; 1222,015;  229,325; 1235,352;98,67434
1091,02; 1221,938;  232,710; 1212,352;100,97858
1091,56; 1207,169;  229,940; 1211,737;99,53480
1092,10; 1156,785;  213,248; 1173,121;98,29805
1092,63; 1198,785;  241,863; 1199,660;99,90864
1093,17; 1170,554;  234,710; 1157,813;101,38017
1093,71; 1153,554;  210,248; 1145,275;100,88541
1094,25; 1154,785;  242,171; 1160,583;99,36868
1094,79; 1123,938;  231,556; 1116,121;100,88375
1095,33; 1100,169;  219,094; 1106,275;99,31178
1095,87; 1104,092;  221,402; 1097,275;100,77834
1096,40; 1052,554;  211,402; 1064,890;98,55457
1096,94; 1071,938;  220,710; 1059,506;101,48221
1097,48; 1085,862;  232,171; 1075,813;101,19104
1098,02; 1060,477;  232,017; 1032,506;103,49426
1098,56; 1015,785;  206,094; 1007,967;100,97488
1099,10; 1015,477;  206,633;  993,506;102,79221
1099,63; 1000,015;  202,787;  988,967;101,40528
1100,17; 1007,938;  222,863;  985,506;102,94144
1100,71; 1020,631;  232,940;  991,737;103,80790

