
Integration time [ms]: 140,000
Averaging Nr. [scans]: 13
Smoothing Nr. [pixels]: 0
Data measured with spectrometer [name]: 2009305U1
Wave   ;Sample   ;Dark     ;Reference;Reflectance
[nm]   ;[counts] ;[counts] ;[counts] ;[%]

 175,72;  213,423;  202,783;  223,076;52,42998
 176,32;  242,710;  235,325;  233,183; 0,00000
 176,92;  266,664;  268,169;  269,200;-145,83915
 177,52;  255,806;  268,091;  262,076; 0,00000
 178,12;  239,082;  257,324;  243,700; 0,00000
 178,72;  267,067;  265,095;  258,217; 0,00000
 179,32;  255,543;  268,863;  252,136; 0,00000
 179,92;  260,123;  265,631;  267,970;-235,54396
 180,52;  250,132;  242,858;  269,559;27,24138
 181,12;  262,072;  264,246;  270,140;-36,88242
 181,73;  285,855;  278,015;  276,393; 0,00000
 182,33;  371,565;  376,706;  385,901;-55,91061
 182,93;  277,524;  282,630;  284,119;-342,84914
 183,53;  253,207;  252,787;  239,042; 0,00000
 184,13;  242,490;  254,095;  245,230; 0,00000
 184,73;  290,667;  287,018;  290,658;100,27044
 185,33;  268,442;  245,652;  366,512;18,85684
 185,93;  281,949;  240,884;  362,674;33,71768
 186,53;  282,132;  262,499;  382,538;16,35552
 187,13;  319,215;  282,650;  413,897;27,85940
 187,73;  275,629;  248,500;  374,807;21,47931
 188,33;  280,626;  249,501;  377,832;24,25404
 188,93;  292,591;  266,120;  368,764;25,78882
 189,53;  295,980;  262,277;  393,555;25,67353
 190,13;  335,494;  296,435;  419,072;31,84881
 190,73;  274,105;  227,586;  359,537;35,25436
 191,34;  301,536;  271,352;  391,243;25,17677
 191,94;  275,661;  246,733;  373,358;22,84588
 192,54;  302,706;  264,572;  390,298;30,33145
 193,14;  292,560;  262,112;  410,063;20,57993
 193,74;  294,521;  267,728;  401,768;19,98869
 194,34;  289,356;  265,958;  394,183;18,24826
 194,94;  261,432;  225,420;  368,414;25,18444
 195,54;  228,109;  199,036;  342,674;20,24035
 196,14;  262,819;  234,957;  373,055;20,17576
 196,74;  260,928;  238,575;  362,324;18,06323
 197,34;  233,259;  200,263;  355,217;21,29382
 197,94;  263,907;  232,342;  391,563;19,82447
 198,54;  265,806;  239,265;  407,700;15,75780
 199,14;  252,992;  217,032;  395,974;20,09590
 199,74;  239,428;  208,186;  379,854;18,19915
 200,34;  234,941;  205,108;  400,093;15,30015
 200,94;  275,591;  241,418;  444,773;16,80498
 201,54;  252,209;  224,801;  446,157;12,38155
 202,14;  288,776;  252,185;  507,021;14,35889
 202,74;  253,440;  220,186;  489,414;12,35183
 203,34;  242,817;  206,876;  509,469;11,87775
 203,94;  218,879;  177,569;  523,345;11,94712
 204,54;  291,126;  251,804;  597,516;11,37412
 205,14;  240,594;  210,570;  593,619; 7,83818
 205,74;  300,253;  248,030;  688,863;11,84646
 206,34;  263,866;  218,877;  712,170; 9,12011
 206,94;  278,455;  224,493;  773,666; 9,82605
 207,54;  250,725;  194,262;  814,576; 9,10229
 208,14;  281,302;  212,338;  885,999;10,23717
 208,74;  295,838;  216,647;  970,102;10,51029
 209,34;  293,018;  210,032; 1064,247; 9,71490
 209,94;  299,210;  223,416; 1142,978; 8,24235
 210,54;  310,957;  216,877; 1246,089; 9,14101
 211,14;  326,107;  209,955; 1381,448; 9,91488
 211,73;  326,913;  219,109; 1508,743; 8,35928
 212,33;  359,309;  231,956; 1610,123; 9,24076
 212,93;  351,889;  216,109; 1698,572; 9,15906
 213,53;  338,966;  181,647; 1761,367; 9,95864
 214,13;  366,832;  222,952; 1870,209; 8,73452
 214,73;  340,776;  185,954; 1909,790; 8,98127
 215,33;  350,671;  179,186; 1934,593; 9,76900
 215,93;  384,817;  211,184; 2074,162; 9,32018
 216,53;  360,004;  162,801; 2134,072;10,00383
 217,13;  437,457;  225,953; 2347,307; 9,97022
 217,73;  429,996;  204,338; 2559,692; 9,58068
 218,33;  423,012;  161,336; 2756,969;10,08139
 218,93;  492,326;  202,873; 3086,277;10,03859
 219,53;  522,371;  209,336; 3414,311; 9,76716
 220,13;  522,655;  170,028; 3703,166; 9,98055
 220,73;  593,928;  187,878; 4085,892;10,41685
 221,32;  639,530;  195,109; 4505,948;10,30939
 221,92;  706,949;  192,721; 5000,632;10,69547
 222,52;  740,676;  178,184; 5377,901;10,81775
 223,12;  780,446;  189,030; 5845,465;10,45563
 223,72;  832,266;  197,260; 6327,192;10,35911
 224,32;  879,139;  209,106; 6727,234;10,27952
 224,92;  912,113;  182,568; 7030,294;10,65383
 225,52;  971,968;  212,723; 7406,315;10,55445
 226,12;  963,239;  189,953; 7683,610;10,31920
 226,72;  990,200;  171,723; 8090,059;10,33648
 227,31; 1033,482;  166,338; 8448,196;10,47040
 227,91; 1102,544;  195,185; 8938,251;10,37804
 228,51; 1144,848;  182,417; 9244,174;10,62080
 229,11; 1177,290;  189,108; 9710,850;10,37816
 229,71; 1207,658;  184,032; 9960,751;10,47003
 230,31; 1240,089;  160,260;10437,610;10,50688
 230,91; 1256,321;  168,495;10697,503;10,33170
 231,51; 1300,125;  183,415;11064,521;10,26284
 232,10; 1347,576;  172,875;11342,525;10,51691
 232,70; 1377,433;  198,958;11545,952;10,38580
 233,30; 1422,047;  214,492;11780,828;10,44026
 233,90; 1415,791;  192,799;11954,734;10,39788
 234,50; 1426,881;  186,799;12056,551;10,44741
 235,10; 1434,267;  175,260;12065,525;10,58855
 235,70; 1486,480;  208,724;12036,862;10,80268
 236,29; 1481,337;  203,417;12020,602;10,81409
 236,89; 1446,744;  168,495;11895,824;10,89975
 237,49; 1435,918;  201,338;11816,486;10,62905
 238,09; 1431,789;  181,339;11438,324;11,10822
 238,69; 1451,025;  224,957;11167,550;11,20454
 239,29; 1392,763;  186,185;10841,999;11,32319
 239,89; 1363,232;  196,802;10545,226;11,27156
 240,48; 1327,533;  176,492;10114,692;11,58198
 241,08; 1299,352;  177,185; 9764,264;11,70499
 241,68; 1287,751;  213,415; 9396,209;11,69944
 242,28; 1238,367;  178,723; 8995,542;12,01845
 242,88; 1265,422;  219,721; 8679,166;12,36134
 243,48; 1281,790;  225,954; 8415,452;12,89257
 244,07; 1255,441;  209,339; 8129,234;13,20854
 244,67; 1269,020;  207,338; 7988,298;13,64462
 245,27; 1277,836;  208,109; 7823,974;14,04604
 245,87; 1292,011;  210,260; 7761,226;14,32600
 246,47; 1319,939;  196,109; 7668,914;15,03893
 247,06; 1347,519;  181,416; 7757,721;15,39145
 247,66; 1385,969;  185,646; 7774,213;15,81752
 248,26; 1472,414;  215,955; 7894,268;16,36373
 248,86; 1533,042;  207,725; 8133,290;16,72205
 249,46; 1563,381;  159,953; 8304,717;17,23104
 250,05; 1715,507;  204,262; 8681,392;17,82732
 250,65; 1791,041;  184,263; 9076,110;18,07024
 251,25; 1918,878;  178,031; 9575,474;18,52468
 251,85; 2042,578;  186,264;10085,469;18,75215
 252,44; 2212,427;  157,878;10815,700;19,27738
 253,04; 2441,082;  208,493;11581,892;19,62992
 253,64; 2572,925;  152,725;12308,123;19,91050
 254,24; 2833,071;  196,339;13277,281;20,15705
 254,84; 3056,150;  177,184;14242,179;20,46902
 255,43; 3309,235;  190,801;15248,200;20,71031
 256,03; 3559,233;  196,956;16293,995;20,88755
 256,63; 3810,719;  204,341;17391,115;20,98345
 257,23; 4029,065;  177,495;18380,307;21,15921
 257,82; 4294,280;  194,496;19349,209;21,40353
 258,42; 4485,856;  155,496;20233,042;21,56817
 259,02; 4723,402;  210,262;21264,273;21,43601
 259,62; 4886,701;  187,189;22043,709;21,50165
 260,21; 5033,671;  199,878;22644,055;21,53696
 260,81; 5158,136;  193,646;23073,388;21,69819
 261,41; 5237,511;  172,265;23729,055;21,50227
 262,01; 5391,790;  209,497;24161,474;21,63618
 262,60; 5438,219;  163,649;24635,307;21,55379
 263,20; 5495,080;  179,802;24886,046;21,51391
 263,80; 5568,572;  212,651;25112,931;21,50948
 264,40; 5537,893;  168,189;25329,644;21,34099
 264,99; 5575,264;  198,574;25487,905;21,26070
 265,59; 5627,952;  180,191;25693,956;21,35224
 266,19; 5591,469;  181,035;25895,888;21,04011
 266,78; 5602,557;  221,190;26007,807;20,86884
 267,38; 5572,184;  200,268;26049,674;20,78158
 267,98; 5496,737;  181,575;26073,568;20,52821
 268,58; 5465,004;  196,037;26109,273;20,33311
 269,17; 5469,091;  195,653;26127,166;20,33602
 269,77; 5398,128;  204,957;25881,747;20,22516
 270,37; 5289,276;  165,420;25820,286;19,97226
 270,96; 5221,806;  232,111;25659,008;19,62369
 271,56; 5085,847;  184,033;25321,482;19,50004
 272,16; 5059,831;  181,496;25124,230;19,55814
 272,75; 4989,485;  191,265;25101,268;19,26222
 273,35; 4922,819;  189,726;25037,080;19,04868
 273,95; 4859,306;  188,419;25027,841;18,80433
 274,54; 4834,135;  169,185;25041,157;18,75585
 275,14; 4853,448;  216,496;25396,256;18,41539
 275,74; 4763,023;  168,419;25453,756;18,17102
 276,33; 4845,013;  213,649;25923,068;18,01427
 276,93; 4894,597;  196,031;26222,952;18,05272
 277,53; 4963,389;  186,032;26759,098;17,97819
 278,12; 5012,976;  174,418;27305,491;17,83401
 278,72; 5166,760;  227,801;27881,948;17,85974
 279,32; 5214,055;  182,955;28489,106;17,77387
 279,91; 5325,592;  165,494;29258,003;17,73686
 280,51; 5481,094;  191,724;29692,657;17,92950
 281,11; 5593,490;  186,494;30550,063;17,80751
 281,70; 5665,592;  171,417;30892,465;17,88407
 282,30; 5778,308;  182,572;31552,097;17,83813
 282,90; 5878,193;  186,264;31954,418;17,91709
 283,49; 5983,101;  202,572;32544,115;17,87339
 284,09; 6157,002;  210,417;33120,456;18,06921
 284,69; 6313,580;  213,340;33350,085;18,40929
 285,28; 6384,489;  206,341;33762,422;18,41141
 285,88; 6504,869;  248,188;33983,397;18,54644
 286,47; 6540,603;  187,187;34005,615;18,78685
 287,07; 6711,465;  220,263;34062,995;19,18049
 287,67; 6810,636;  209,415;34281,991;19,37400
 288,26; 6915,234;  182,878;34188,713;19,79765
 288,86; 7115,810;  179,956;34213,674;20,37936
 289,46; 7329,695;  205,340;34318,149;20,88469
 290,05; 7508,749;  177,493;34392,670;21,42691
 290,65; 7768,397;  194,803;34598,709;22,01376
 291,24; 8003,029;  195,186;34663,653;22,65213
 291,84; 8308,334;  216,495;34767,653;23,41988
 292,44; 8436,226;  194,569;34984,204;23,68998
 293,03; 8780,709;  266,417;35057,914;24,47234
 293,63; 8925,706;  184,495;35259,170;24,92172
 294,22; 9170,887;  214,417;35324,264;25,50985
 294,82; 9304,675;  191,727;35373,820;25,90223
 295,41; 9392,207;  176,802;35114,234;26,37688
 296,01; 9495,741;  229,265;34972,568;26,67126
 296,61; 9517,811;  217,571;34673,495;26,99170
 297,20; 9478,292;  195,496;34283,409;27,23193
 297,80; 9537,968;  199,031;34159,264;27,49963
 298,39; 9429,270;  177,418;33729,931;27,57424
 298,99; 9465,601;  207,880;33549,640;27,76614
 299,58; 9393,507;  210,415;33295,880;27,75567
 300,18; 9409,019;  225,416;33137,170;27,90372
 300,78; 9267,184;  187,186;32737,294;27,89545
 301,37; 9288,661;  209,497;32747,285;27,90344
 301,97; 9276,746;  208,417;32702,747;27,90742
 302,56; 9159,616;  199,418;32668,944;27,59571
 303,16; 9142,294;  171,341;32483,179;27,76367
 303,75; 9104,608;  187,570;32527,127;27,57316
 304,35; 9181,997;  181,030;32758,768;27,62920
 304,94; 9176,836;  206,340;32808,922;27,51468
 305,54; 9114,299;  218,801;32760,717;27,33551
 306,13; 9016,420;  161,799;32549,192;27,33972
 306,73; 8934,188;  166,876;32358,217;27,23500
 307,33; 8905,123;  206,261;32238,521;27,15657
 307,92; 8913,119;  215,878;32305,469;27,10300
 308,52; 8930,409;  173,495;32763,140;26,87023
 309,11; 9084,945;  188,650;33278,833;26,88500
 309,71; 9072,033;  180,728;33595,521;26,60889
 310,30; 9043,927;  184,648;33756,969;26,38864
 310,90; 9200,311;  221,263;34201,739;26,42414
 311,49; 9153,785;  201,955;34294,529;26,25742
 312,09; 9112,737;  170,800;34375,033;26,14278
 312,68; 9244,043;  253,955;34837,982;25,99491
 313,28; 9194,273;  162,878;34973,469;25,94439
 313,87; 9152,670;  162,955;35103,286;25,72876
 314,47; 9214,459;  191,188;35314,764;25,69007
 315,06; 9175,645;  176,032;35427,858;25,52949
 315,66; 9188,814;  170,954;35644,803;25,42115
 316,25; 9091,974;  159,034;35543,003;25,24573
 316,85; 9024,416;  148,493;35519,422;25,09384
 317,44; 9043,151;  183,266;35761,610;24,90247
 318,04; 8995,296;  174,495;35684,512;24,84032
 318,63; 8930,816;  161,030;35697,110;24,67854
 319,22; 8887,641;  183,341;35919,858;24,35688
 319,82; 8847,489;  182,341;35890,217;24,26677
 320,41; 8834,449;  206,187;35837,512;24,21538
 321,01; 8772,467;  201,878;35853,636;24,03974
 321,60; 8735,733;  196,879;35932,315;23,89464
 322,20; 8707,055;  181,417;35834,568;23,91272
 322,79; 8658,965;  206,186;35983,059;23,62638
 323,39; 8602,022;  177,876;36015,401;23,50650
 323,98; 8535,684;  168,109;35860,333;23,44369
 324,58; 8492,576;  175,495;35863,803;23,30478
 325,17; 8386,615;  188,111;35597,918;23,15320
 325,76; 8405,824;  208,186;35442,927;23,26578
 326,36; 8223,275;  178,416;35062,418;23,06174
 326,95; 8163,233;  207,494;34654,585;23,09553
 327,55; 8068,950;  165,341;34435,627;23,06257
 328,14; 7956,520;  176,954;33976,875;23,01652
 328,74; 7816,718;  209,649;33581,833;22,79464
 329,33; 7689,582;  194,262;33143,444;22,74812
 329,92; 7590,958;  177,496;32534,162;22,91170
 330,52; 7401,956;  187,954;31833,499;22,79626
 331,11; 7288,745;  181,879;31384,670;22,77638
 331,71; 7166,515;  180,033;30840,773;22,78641
 332,30; 7039,990;  201,263;30513,538;22,56092
 332,89; 7032,595;  251,339;29853,004;22,90836
 333,49; 6790,630;  193,725;29360,170;22,61813
 334,08; 6731,553;  191,879;28852,042;22,81799
 334,68; 6578,514;  183,879;28470,875;22,60627
 335,27; 6575,264;  207,646;28061,551;22,86077
 335,86; 6530,592;  242,264;27758,670;22,85301
 336,46; 6481,200;  198,954;27412,880;23,08468
 337,05; 6425,104;  184,956;27302,884;23,01115
 337,65; 6389,450;  173,264;27034,230;23,14208
 338,24; 6476,261;  222,955;27085,038;23,27930
 338,83; 6456,876;  204,801;26985,781;23,34521
 339,43; 6454,833;  176,264;27007,948;23,39983
 340,02; 6477,628;  172,418;26819,350;23,66205
 340,61; 6496,478;  199,263;26869,734;23,61119
 341,21; 6546,180;  221,726;26907,986;23,69929
 341,80; 6573,912;  192,418;26842,333;23,94564
 342,40; 6637,110;  190,108;26908,012;24,12989
 342,99; 6701,826;  183,262;27124,927;24,19510
 343,58; 6777,659;  174,416;27215,521;24,41928
 344,18; 6889,057;  202,031;27425,670;24,56331
 344,77; 6999,743;  168,342;27631,055;24,87519
 345,36; 7102,464;  170,187;27880,046;25,01737
 345,96; 7261,608;  209,878;28225,999;25,17026
 346,55; 7378,881;  160,414;28529,653;25,44470
 347,14; 7540,533;  170,415;28847,768;25,70013
 347,74; 7654,385;  151,567;29286,025;25,75239
 348,33; 7904,884;  183,259;29809,653;26,06333
 348,92; 8160,836;  191,412;30461,670;26,32757
 349,52; 8311,988;  163,028;30981,773;26,44157
 350,11; 8468,037;  178,495;31156,136;26,75976
 350,70; 8583,824;  172,955;31370,055;26,96042
 351,29; 8560,685;  167,652;30998,482;27,22286
 351,89; 8643,240;  189,035;31043,016;27,40069
 352,48; 8712,478;  165,263;31080,991;27,64682
 353,07; 8774,110;  199,877;31018,525;27,82158
 353,67; 8856,938;  208,720;30924,636;28,15550
 354,26; 8835,315;  182,492;30742,969;28,31377
 354,85; 8885,532;  191,185;30553,794;28,63505
 355,45; 8891,873;  167,879;30387,704;28,86844
 356,04; 8993,201;  176,107;30300,521;29,26893
 356,63; 9033,169;  215,340;30143,683;29,46314
 357,22; 9046,930;  184,651;30004,914;29,71898
 357,82; 9066,521;  184,881;29789,615;30,00074
 358,41; 9161,105;  207,109;29677,551;30,38297
 359,00; 9099,231;  180,264;29523,687;30,39511
 359,60; 9180,402;  188,647;29385,452;30,79705
 360,19; 9210,881;  205,415;29244,627;31,01140
 360,78; 9249,809;  184,264;29115,982;31,33428
 361,37; 9289,168;  188,187;28952,632;31,63969
 361,97; 9306,797;  189,109;28871,525;31,78842
 362,56; 9271,281;  180,034;28572,824;32,01956
 363,15; 9299,924;  252,264;28254,174;32,31087
 363,74; 9231,292;  192,265;27927,153;32,59082
 364,34; 9224,320;  213,341;27511,914;33,00897
 364,93; 9142,627;  173,573;27122,042;33,28224
 365,52; 9065,053;  144,571;26657,209;33,64615
 366,11; 9029,013;  182,803;26510,580;33,60029
 366,71; 9000,333;  182,726;26033,397;34,10978
 367,30; 8939,053;  202,264;25600,875;34,39869
 367,89; 8940,314;  220,031;25410,251;34,61773
 368,48; 8899,318;  196,957;25136,221;34,89422
 369,07; 8809,517;  201,417;24677,978;35,16875
 369,67; 8752,703;  219,342;24411,221;35,27366
 370,26; 8731,542;  180,417;24057,200;35,81356
 370,85; 8652,579;  189,341;23916,469;35,66904
 371,44; 8677,490;  192,802;23630,935;36,20036
 372,03; 8598,487;  167,726;23441,884;36,22370
 372,63; 8554,682;  160,494;23097,204;36,59717
 373,22; 8501,221;  185,186;22806,076;36,76264
 373,81; 8434,797;  157,648;22493,499;37,05768
 374,40; 8411,686;  178,416;22326,768;37,17329
 374,99; 8376,552;  178,110;21951,247;37,65393
 375,59; 8290,365;  171,877;21685,465;37,73656
 376,18; 8337,053;  212,187;21588,978;38,00788
 376,77; 8311,644;  201,109;21345,961;38,35702
 377,36; 8350,155;  220,648;21386,559;38,40849
 377,95; 8274,513;  206,495;21008,080;38,78559
 378,55; 8223,775;  175,185;20865,482;38,90031
 379,14; 8265,373;  198,341;20764,435;39,22491
 379,73; 8306,693;  188,341;20679,533;39,61874
 380,32; 8345,272;  199,648;20785,187;39,56964
 380,91; 8288,998;  168,265;20505,662;39,93005
 381,50; 8347,640;  197,726;20493,781;40,15516
 382,10; 8319,579;  188,033;20415,495;40,20053
 382,69; 8336,489;  166,187;20415,140;40,34926
 383,28; 8411,794;  212,957;20278,243;40,86081
 383,87; 8386,615;  180,803;20158,687;41,07448
 384,46; 8373,175;  164,035;20098,191;41,18128
 385,05; 8425,012;  202,188;20130,657;41,26169
 385,64; 8460,936;  191,111;20107,273;41,52319
 386,24; 8449,149;  157,881;20034,508;41,71366
 386,83; 8537,521;  202,035;20097,307;41,89682
 387,42; 8656,808;  198,034;20214,495;42,25909
 388,01; 8730,825;  204,421;20376,102;42,26918
 388,60; 8884,958;  191,573;20645,700;42,50186
 389,19; 8999,655;  173,731;20876,619;42,63137
 389,78; 9142,886;  179,730;21079,542;42,88630
 390,37; 9415,186;  245,651;21567,854;43,00463
 390,96; 9485,367;  187,497;21720,102;43,18043
 391,56; 9578,230;  195,116;21867,529;43,29520
 392,15; 9762,631;  177,961;22123,550;43,67470
 392,74; 9851,558;  165,656;22259,956;43,83892
 393,33;10015,345;  183,347;22620,311;43,82054
 393,92;10228,696;  189,427;22947,576;44,11286
 394,51;10357,024;  169,347;23210,674;44,21480
 395,10;10429,419;  202,353;23428,230;44,03307
 395,69;10534,010;  187,122;23572,315;44,24547
 396,28;10638,980;  193,046;23641,657;44,54820
 396,87;10669,498;  200,741;23763,072;44,43006
 397,46;10771,429;  198,128;23866,734;44,67226
 398,06;10938,308;  212,746;24134,695;44,83565
 398,65;10996,062;  191,828;24181,618;45,03680
 399,24;11051,098;  208,906;24321,503;44,96485
 399,83;11097,025;  171,684;24319,059;45,24443
 400,42;11128,237;  215,999;24455,828;45,01780
 401,01;11223,894;  189,315;24579,165;45,24251
 401,60;11231,134;  200,942;24618,383;45,17341
 402,19;11236,020;  214,489;24606,438;45,18512
 402,78;11259,522;  214,888;24515,643;45,44976
 403,37;11189,295;  204,440;24392,169;45,41499
 403,96;11147,677;  205,994;24258,463;45,49089
 404,55;11166,427;  213,319;24201,147;45,66111
 405,14;11090,206;  189,797;24097,719;45,59329
 405,73;11073,786;  211,200;24017,330;45,62936
 406,32;11038,228;  210,366;23847,172;45,80933
 406,91;10959,382;  205,150;23610,749;45,94726
 407,50;10873,338;  210,619;23473,501;45,83576
 408,09;10753,388;  179,317;23120,120;46,09286
 408,68;10654,302;  198,628;23067,402;45,72031
 409,27;10585,173;  183,854;22837,885;45,91377
 409,86;10534,676;  192,997;22744,676;45,85769
 410,45;10525,893;  221,449;22600,509;46,04503
 411,04;10494,547;  227,516;22570,531;45,95186
 411,63;10324,952;  214,426;22318,946;45,73963
 412,22;10224,597;  220,876;22082,741;45,75877
 412,81;10105,799;  216,872;21846,497;45,71937
 413,40; 9977,300;  232,559;21486,489;45,84913
 413,99; 9839,886;  276,330;21131,343;45,85735
 414,58; 9607,158;  198,868;20717,382;45,85269
 415,17; 9555,389;  202,718;20540,377;45,98696
 415,76; 9461,698;  198,723;20346,860;45,97435
 416,35; 9351,781;  185,874;20116,937;45,98805
 416,94; 9343,829;  225,568;20175,971;45,70464
 417,53; 9460,352;  207,257;20432,621;45,74996
 418,12; 9471,701;  206,948;20476,583;45,70755
 418,71; 9651,249;  218,021;20830,454;45,76475
 419,30; 9678,894;  200,024;21000,647;45,57013
 419,89; 9737,858;  184,639;21139,429;45,58967
 420,48; 9900,544;  222,405;21442,613;45,60813
 421,07; 9926,931;  216,251;21448,407;45,73572
 421,66; 9918,643;  184,941;21541,095;45,57797
 422,25; 9899,513;  205,167;21438,937;45,65532
 422,84; 9875,362;  224,397;21543,476;45,26915
 423,43; 9753,882;  212,168;21238,301;45,38026
 424,02; 9667,192;  231,628;21043,172;45,33812
 424,60; 9420,078;  201,392;20533,831;45,33980
 425,19; 9311,263;  211,703;20236,510;45,44144
 425,78; 9244,854;  217,626;20175,442;45,23154
 426,37; 9142,872;  232,085;20050,925;44,96119
 426,96; 9064,154;  206,624;19918,959;44,93395
 427,55; 8931,905;  199,467;19767,762;44,62544
 428,14; 8870,255;  195,158;19549,673;44,82209
 428,73; 8818,979;  216,929;19338,557;44,98597
 429,32; 8845,114;  218,470;19324,100;45,15237
 429,91; 8764,544;  226,160;19366,831;44,60859
 430,50; 8679,484;  228,466;19204,852;44,53439
 431,08; 8637,860;  231,772;19005,087;44,77679
 431,67; 8584,658;  263,463;18962,207;44,50136
 432,26; 8418,880;  269,923;18770,057;44,04809
 432,85; 8312,263;  291,770;18411,160;44,26470
 433,44; 8133,512;  305,845;18063,668;44,08011
 434,03; 7978,507;  316,149;17727,545;44,00772
 434,62; 7742,628;  271,614;17264,989;43,96428
 435,21; 7646,110;  287,923;17079,211;43,82146
 435,79; 7568,222;  290,535;16870,613;43,89417
 436,38; 7480,819;  276,994;16773,698;43,66827
 436,97; 7432,602;  282,686;16719,515;43,49936
 437,56; 7344,741;  278,143;16522,498;43,50187
 438,15; 7237,277;  260,837;16400,241;43,22613
 438,74; 7256,329;  274,067;16463,122;43,12952
 439,33; 7240,725;  249,683;16410,092;43,26030
 439,91; 7229,614;  217,450;16527,489;42,99293
 440,50; 7274,769;  264,835;16518,258;43,12897
 441,09; 7308,698;  270,832;16642,156;42,98898
 441,68; 7262,127;  245,445;16657,322;42,75368
 442,27; 7257,727;  230,908;16633,609;42,83940
 442,86; 7158,689;  205,057;16680,985;42,20480
 443,44; 7200,251;  221,288;16739,976;42,24889
 444,03; 7301,126;  301,826;16785,378;42,46233
 444,62; 7193,420;  224,441;16606,793;42,53955
 445,21; 7111,726;  230,442;16478,895;42,35040
 445,80; 7047,901;  261,747;16379,635;42,10325
 446,39; 6962,220;  281,055;16095,117;42,24825
 446,97; 6835,613;  220,128;15973,656;41,99367
 447,56; 6675,696;  225,126;15675,759;41,74955
 448,15; 6618,395;  227,205;15514,190;41,80804
 448,74; 6572,613;  236,128;15319,861;42,00873
 449,33; 6444,541;  225,588;15159,938;41,64194
 449,91; 6324,125;  221,893;14881,259;41,62685
 450,50; 6260,201;  218,893;14701,182;41,71514
 451,09; 6175,842;  228,662;14577,224;41,44792
 451,68; 6170,781;  246,815;14526,502;41,48527
 452,26; 6109,208;  243,891;14416,541;41,38476
 452,85; 6032,603;  232,045;14236,357;41,41980
 453,44; 5998,459;  249,734;14298,998;40,91834
 454,03; 5993,953;  215,659;14234,959;41,21671
 454,61; 5960,626;  215,426;14233,712;40,98362
 455,20; 6041,155;  237,194;14401,613;40,97564
 455,79; 6030,893;  247,196;14396,801;40,87532
 456,38; 6042,635;  239,115;14480,917;40,74990
 456,97; 6068,492;  231,885;14521,528;40,84502
 457,55; 6060,586;  217,114;14533,011;40,81806
 458,14; 6020,581;  253,039;14534,934;40,38359
 458,73; 5951,292;  238,575;14474,263;40,12954
 459,31; 5989,605;  268,650;14548,340;40,06358
 459,90; 6017,089;  266,190;14576,024;40,18844
 460,49; 6113,767;  332,190;14714,566;40,19904
 461,08; 6040,595;  225,418;14821,831;39,83977
 461,66; 6071,323;  233,881;14804,485;40,06314
 462,25; 6080,149;  237,571;14858,391;39,96067
 462,84; 6116,147;  271,341;14942,699;39,83821
 463,43; 6021,066;  203,107;14914,396;39,54758
 464,01; 6035,941;  227,875;14922,900;39,52403
 464,60; 6063,859;  289,108;14916,310;39,47953
 465,19; 5917,058;  203,644;14633,323;39,59488
 465,77; 5958,100;  234,488;14644,208;39,72049
 466,36; 5890,541;  253,876;14500,596;39,56465
 466,95; 5740,900;  235,491;14160,297;39,53670
 467,53; 5588,334;  231,256;13904,259;39,17997
 468,12; 5495,989;  264,718;13623,195;39,16068
 468,71; 5384,405;  232,643;13386,361;39,16582
 469,29; 5275,374;  209,102;13108,374;39,27564
 469,88; 5164,377;  221,793;12873,810;39,06558
 470,47; 5218,010;  281,329;13000,088;38,81417
 471,06; 5152,459;  237,022;12947,067;38,67365
 471,64; 5201,714;  233,792;13032,571;38,81560
 472,23; 5192,251;  217,710;13049,729;38,76662
 472,81; 5221,348;  210,405;13158,182;38,70119
 473,40; 5259,277;  228,710;13282,644;38,53679
 473,99; 5388,533;  320,172;13507,891;38,43243
 474,57; 5340,520;  231,864;13569,434;38,30275
 475,16; 5417,503;  244,173;13707,849;38,42435
 475,75; 5495,922;  246,093;13878,533;38,50982
 476,33; 5517,746;  249,861;13953,439;38,44168
 476,92; 5469,816;  256,018;14004,336;37,92317
 477,51; 5486,129;  251,939;14140,131;37,68806
 478,09; 5519,257;  247,631;14150,857;37,91657
 478,68; 5466,836;  258,938;14016,819;37,85393
 479,27; 5479,665;  283,401;14136,618;37,50944
 479,85; 5408,323;  253,092;14043,426;37,38293
 480,44; 5453,787;  230,937;14183,015;37,43420
 481,02; 5926,560;  256,397;15469,503;37,27156
 481,61; 6661,776;  276,706;17579,866;36,90118
 482,20; 7136,085;  254,936;18794,122;37,11678
 482,78; 7436,247;  289,553;19617,836;36,97532
 483,37; 7616,437;  275,010;20203,289;36,83924
 483,95; 7745,515;  300,395;20526,956;36,80863
 484,54; 7764,378;  310,629;20749,998;36,46761
 485,13; 7707,700;  271,931;20638,075;36,51044
 485,71; 7593,660;  248,932;20437,114;36,38132
 486,30; 7503,711;  292,932;20118,225;36,37161
 486,88; 7416,161;  339,393;19756,357;36,44631
 487,47; 7107,534;  305,469;18999,951;36,38541
 488,05; 6793,087;  299,930;18136,204;36,40423
 488,64; 6303,323;  282,236;16822,511;36,40258
 489,23; 5650,024;  309,545;14968,763;36,43086
 489,81; 4799,731;  293,544;12807,451;36,00943
 490,40; 4521,091;  247,698;12153,204;35,89426
 490,98; 4429,913;  242,851;11883,187;35,97029
 491,57; 4387,999;  268,775;11811,644;35,68631
 492,15; 4351,042;  249,774;11741,426;35,68911
 492,74; 4296,819;  269,622;11602,755;35,53472
 493,32; 4272,503;  278,159;11485,375;35,64082
 493,91; 4184,237;  253,927;11425,618;35,18098
 494,50; 4171,911;  258,078;11390,601;35,15675
 495,08; 4123,039;  238,001;11299,943;35,12076
 495,67; 4173,992;  266,389;11347,058;35,26505
 496,25; 4072,702;  210,002;11181,105;35,20794
 496,84; 4043,672;  223,158;11147,524;34,97241
 497,42; 4046,511;  213,232;11127,631;35,12130
 498,01; 4018,147;  252,004;11103,571;34,70598
 498,59; 3960,448;  216,232;11009,652;34,68980
 499,18; 3898,699;  219,850;10958,695;34,25740
 499,76; 3921,689;  243,310;10887,110;34,55889
 500,35; 3841,388;  235,923;10681,110;34,51795
 500,93; 3775,985;  225,617;10649,729;34,05919
 501,52; 3758,384;  227,463;10557,033;34,18265
 502,10; 3759,339;  229,922;10562,332;34,15871
 502,69; 3683,624;  226,536;10390,879;34,01192
 503,27; 3567,283;  213,308;10160,811;33,71676
 503,86; 3557,379;  226,690;10117,319;33,67520
 504,44; 3487,305;  198,920; 9980,832;33,61700
 505,03; 3380,472;  189,612; 9763,187;33,32987
 505,61; 3353,407;  214,305; 9626,644;33,35092
 506,19; 3286,510;  228,305; 9506,148;32,96246
 506,78; 3217,336;  197,995; 9318,823;33,10381
 507,36; 3162,036;  202,305; 9169,435;33,00644
 507,95; 3090,775;  206,609; 8967,935;32,91928
 508,53; 3027,490;  200,457; 8839,080;32,72551
 509,12; 2977,274;  219,917; 8732,153;32,39286
 509,70; 2964,916;  233,301; 8577,503;32,73668
 510,29; 2897,945;  242,531; 8439,392;32,39550
 510,87; 2814,772;  205,533; 8183,986;32,70357
 511,46; 2738,966;  189,533; 8086,332;32,28438
 512,04; 2727,546;  205,686; 7932,627;32,63723
 512,62; 2670,017;  209,918; 7792,058;32,44597
 513,21; 2556,932;  196,454; 7627,370;31,76564
 513,79; 2551,262;  203,297; 7534,648;32,02636
 514,38; 2471,207;  191,990; 7356,845;31,81107
 514,96; 2476,412;  225,683; 7260,366;31,99475
 515,54; 2397,940;  189,990; 7101,935;31,94397
 516,13; 2385,620;  216,759; 7077,247;31,61380
 516,71; 2298,816;  199,219; 6900,285;31,33228
 517,30; 2262,024;  189,602; 6777,909;31,45606
 517,88; 2233,831;  217,833; 6696,640;31,11682
 518,46; 2172,525;  189,756; 6589,999;30,97960
 519,05; 2155,733;  202,139; 6529,725;30,87424
 519,63; 2144,488;  208,063; 6461,883;30,96388
 520,22; 2111,135;  236,291; 6396,901;30,43276
 520,80; 2057,379;  208,599; 6356,563;30,07142
 521,38; 2086,272;  249,677; 6324,495;30,23292
 521,97; 2034,202;  209,598; 6288,674;30,01449
 522,55; 2033,240;  221,444; 6249,687;30,05513
 523,13; 2002,806;  193,905; 6226,473;29,98559
 523,72; 1991,794;  201,756; 6181,499;29,93504
 524,30; 2016,540;  226,366; 6308,794;29,43190
 524,89; 1998,984;  189,905; 6273,875;29,73518
 525,47; 2014,374;  223,134; 6436,029;28,83100
 526,05; 1989,298;  185,826; 6496,311;28,57897
 526,64; 2046,274;  235,903; 6544,114;28,69864
 527,22; 2055,925;  223,904; 6686,717;28,34712
 527,80; 2077,812;  252,441; 6790,704;27,91828
 528,39; 2072,327;  215,440; 6899,738;27,77982
 528,97; 2087,646;  217,518; 7022,426;27,48205
 529,55; 2108,986;  229,520; 7231,490;26,84195
 530,14; 2184,085;  228,209; 7420,922;27,19246
 530,72; 2155,928;  213,672; 7478,076;26,73663
 531,30; 2173,790;  183,747; 7650,123;26,65340
 531,89; 2216,995;  206,363; 7726,644;26,73613
 532,47; 2216,330;  243,593; 7835,225;25,98567
 533,05; 2237,760;  239,903; 7874,131;26,16974
 533,63; 2252,523;  234,747; 7890,418;26,35662
 534,22; 2211,562;  205,131; 7928,713;25,97798
 534,80; 2244,360;  238,822; 8044,909;25,69198
 535,38; 2343,381;  320,516; 8141,619;25,86418
 535,97; 2221,715;  210,516; 8068,277;25,59506
 536,55; 2280,079;  273,514; 8157,157;25,45225
 537,13; 2269,482;  276,440; 8150,866;25,31032
 537,71; 2293,930;  310,132; 8166,896;25,24956
 538,30; 2296,755;  325,669; 8256,648;24,85300
 538,88; 2324,441;  354,052; 8327,755;24,71109
 539,46; 2371,245;  408,899; 8514,845;24,20872
 540,05; 2383,362;  403,975; 8620,114;24,09145
 540,63; 2431,145;  457,975; 8814,059;23,61357
 541,21; 2428,788;  482,589; 8956,486;22,96698
 541,79; 2479,839;  507,436; 9126,469;22,88428
 542,38; 2508,734;  539,360; 9204,913;22,72646
 542,96; 2533,471;  556,588; 9376,337;22,41427
 543,54; 2554,018;  570,282; 9579,255;22,01956
 544,12; 2590,404;  529,435; 9696,845;22,48147
 544,70; 2594,009;  511,204; 9855,285;22,29011
 545,29; 2609,336;  522,668; 9943,533;22,14944
 545,87; 2616,070;  520,743; 9958,777;22,20088
 546,45; 2584,233;  476,206; 9995,260;22,14534
 547,03; 2590,556;  450,282;10089,230;22,20443
 547,62; 2598,045;  417,974;10221,298;22,23808
 548,20; 2652,009;  428,819;10364,644;22,37549
 548,78; 2643,670;  388,124;10462,580;22,38876
 549,36; 2625,541;  369,740;10717,879;21,79910
 549,94; 2652,148;  330,820;10753,931;22,27098
 550,53; 2694,476;  327,432;11007,285;22,16363
 551,11; 2673,069;  309,508;11176,781;21,74935
 551,69; 2739,746;  320,355;11465,273;21,70847
 552,27; 2713,897;  271,818;11710,093;21,35007
 552,85; 2788,787;  280,585;12103,593;21,21458
 553,44; 2826,990;  286,663;12378,961;21,00781
 554,02; 2875,670;  300,124;12654,093;20,84793
 554,60; 2843,608;  233,585;12918,320;20,57610
 555,18; 2951,054;  265,355;13307,016;20,59323
 555,76; 3016,068;  260,893;13653,371;20,57255
 556,34; 3073,290;  275,430;13991,273;20,39875
 556,93; 3099,490;  262,201;14388,948;20,08452
 557,51; 3148,137;  232,891;14755,170;20,07430
 558,09; 3187,375;  265,740;15098,345;19,69738
 558,67; 3257,498;  261,429;15430,691;19,75092
 559,25; 3325,445;  270,968;15672,170;19,83272
 559,83; 3328,718;  237,582;16057,644;19,53934
 560,41; 3366,828;  243,199;16329,657;19,41775
 561,00; 3411,139;  255,967;16659,478;19,23474
 561,58; 3429,161;  238,584;16947,418;19,09515
 562,16; 3463,569;  242,969;17243,768;18,94381
 562,74; 3495,709;  223,508;17582,388;18,85030
 563,32; 3533,513;  210,043;18026,918;18,65349
 563,90; 3629,203;  249,583;18359,508;18,66170
 564,48; 3671,365;  249,200;18754,734;18,49266
 565,06; 3756,895;  242,506;19298,508;18,44243
 565,65; 3874,991;  246,888;19959,760;18,40474
 566,23; 4016,255;  296,736;20662,926;18,26320
 566,81; 4087,932;  245,660;21389,059;18,17244
 567,39; 4236,450;  256,197;22319,811;18,03989
 567,97; 4316,100;  266,198;22873,619;17,91404
 568,55; 4491,102;  280,582;23783,234;17,91509
 569,13; 4582,716;  243,813;24431,824;17,93824
 569,71; 4674,056;  243,893;25404,965;17,60721
 570,29; 4884,964;  278,893;26342,713;17,67228
 570,87; 4991,632;  285,354;27066,849;17,57287
 571,45; 5047,472;  267,198;27717,085;17,41455
 572,03; 5098,527;  235,274;28116,067;17,44303
 572,61; 5184,192;  222,274;28951,153;17,27153
 573,20; 5290,547;  257,430;29551,008;17,18164
 573,78; 5379,987;  243,890;30118,426;17,19222
 574,36; 5420,743;  262,505;30688,687;16,95328
 574,94; 5486,528;  321,427;31016,324;16,82723
 575,52; 5460,084;  249,810;31214,294;16,82662
 576,10; 5543,929;  303,887;31765,832;16,65517
 576,68; 5610,643;  298,581;32340,773;16,57833
 577,26; 5684,830;  307,963;33090,559;16,40159
 577,84; 5763,294;  313,198;33542,837;16,40131
 578,42; 5813,081;  358,965;33877,397;16,27199
 579,00; 5726,462;  313,197;33915,396;16,10985
 579,58; 5780,746;  358,042;34096,174;16,07292
 580,16; 5712,274;  308,195;34110,435;15,98734
 580,74; 5679,838;  316,195;34375,401;15,74800
 581,32; 5613,644;  322,273;34369,747;15,54116
 581,90; 5620,287;  329,272;34303,123;15,57378
 582,48; 5566,518;  328,272;34453,713;15,34997
 583,06; 5550,067;  318,273;34590,426;15,26544
 583,64; 5558,118;  324,889;34648,614;15,24668
 584,22; 5459,534;  342,040;34468,170;14,99582
 584,80; 5398,927;  336,965;34092,063;14,99614
 585,38; 5268,713;  355,353;33784,696;14,69775
 585,96; 5193,193;  315,735;33751,666;14,58747
 586,54; 5170,123;  348,733;33736,897;14,44042
 587,12; 5129,980;  309,118;33973,303;14,32045
 587,70; 5119,142;  337,812;34128,093;14,15002
 588,28; 5092,236;  313,272;34026,730;14,17524
 588,86; 5085,327;  321,502;34187,085;14,06686
 589,44; 4988,679;  299,423;34186,969;13,83769
 590,02; 5025,895;  309,347;34351,666;13,85496
 590,59; 5015,136;  284,964;34578,662;13,79312
 591,17; 4973,799;  303,729;34693,392;13,57987
 591,75; 4985,078;  278,884;34799,016;13,63319
 592,33; 4999,320;  308,962;35008,140;13,51720
 592,91; 4951,118;  255,499;35236,029;13,42352
 593,49; 4978,121;  267,883;35565,798;13,34424
 594,07; 4972,903;  287,883;35788,794;13,19690
 594,65; 4960,111;  300,271;35772,234;13,13668
 595,23; 4996,267;  283,270;36175,414;13,13100
 595,81; 4968,165;  296,116;36321,884;12,96863
 596,39; 4944,320;  287,423;36461,525;12,87356
 596,97; 4975,016;  275,576;36559,935;12,95170
 597,55; 4908,163;  274,194;36480,627;12,79875
 598,12; 4885,250;  245,497;36512,422;12,79334
 598,70; 4885,850;  245,191;36662,042;12,74316
 599,28; 4875,658;  283,268;36867,952;12,55277
 599,86; 4902,875;  254,499;36829,033;12,70933
 600,44; 4808,672;  241,883;36966,538;12,43521
 601,02; 4863,665;  294,496;36932,542;12,47110
 601,60; 4794,988;  272,500;36973,021;12,32268
 602,18; 4781,096;  247,113;36930,397;12,35981
 602,75; 4777,678;  250,654;37065,533;12,29672
 603,33; 4755,299;  264,960;37078,508;12,19752
 603,91; 4725,381;  243,035;37002,533;12,19371
 604,49; 4707,568;  282,883;37014,085;12,04612
 605,07; 4727,796;  284,884;37183,136;12,04098
 605,65; 4747,711;  295,267;37189,832;12,06802
 606,23; 4728,776;  350,041;37287,012;11,85461
 606,80; 4739,652;  384,885;37392,670;11,76716
 607,38; 4718,931;  421,958;37380,170;11,62657
 607,96; 4700,203;  461,808;37486,820;11,44738
 608,54; 4707,608;  524,959;37474,354;11,31994
 609,12; 4712,691;  539,270;37559,580;11,27333
 609,70; 4692,542;  571,960;37639,811;11,11632
 610,27; 4686,895;  564,655;37785,358;11,07513
 610,85; 4679,106;  585,114;37749,956;11,01576
 611,43; 4661,683;  582,806;37736,841;10,97829
 612,01; 4605,385;  548,577;37484,273;10,98344
 612,59; 4577,529;  556,806;37576,841;10,86094
 613,16; 4548,714;  524,194;37437,341;10,90267
 613,74; 4534,260;  490,268;37386,495;10,96045
 614,32; 4488,480;  458,882;37316,730;10,93281
 614,90; 4492,451;  435,038;37231,995;11,02649
 615,48; 4426,561;  373,040;36866,751;11,10745
 616,05; 4376,046;  343,348;36856,845;11,04440
 616,63; 4373,840;  365,733;36721,862;11,02457
 617,21; 4355,267;  348,193;36611,311;11,05000
 617,79; 4293,833;  343,885;36569,405;10,90377
 618,36; 4273,001;  342,807;36469,119;10,87903
 618,94; 4231,164;  295,886;36158,627;10,97317
 619,52; 4221,110;  312,425;35846,388;10,99985
 620,10; 4197,063;  292,039;35860,123;10,97901
 620,67; 4157,725;  298,349;35807,388;10,86871
 621,25; 4160,822;  324,807;35706,204;10,84190
 621,83; 4130,792;  303,117;35599,982;10,84424
 622,41; 4188,510;  359,501;35657,281;10,84773
 622,98; 4106,622;  317,503;35302,550;10,83068
 623,56; 4083,019;  318,272;35275,700;10,76952
 624,14; 4061,477;  306,191;35161,063;10,77406
 624,72; 4049,741;  301,424;35078,179;10,77822
 625,29; 4032,980;  285,810;35174,072;10,74049
 625,87; 4038,166;  332,731;35105,191;10,65623
 626,45; 3984,172;  287,042;34915,213;10,67665
 627,02; 3987,333;  292,346;34950,879;10,66112
 627,60; 3943,838;  271,267;34878,764;10,61207
 628,18; 3960,614;  258,270;34918,965;10,68168
 628,76; 3971,340;  265,041;34954,439;10,68424
 629,33; 3974,137;  292,963;34885,867;10,64141
 629,91; 3971,755;  276,962;34917,431;10,66612
 630,49; 3969,290;  291,117;35059,687;10,57902
 631,06; 3995,379;  289,195;35196,452;10,61723
 631,64; 4004,813;  288,888;35120,640;10,66821
 632,22; 3947,734;  248,811;35036,563;10,63283
 632,79; 4003,773;  282,427;35309,704;10,62414
 633,37; 3986,001;  252,577;35401,709;10,62167
 633,95; 3970,005;  262,657;35488,114;10,52463
 634,52; 4036,599;  246,578;35618,944;10,71464
 635,10; 4013,985;  264,039;35689,738;10,58538
 635,68; 4023,362;  264,504;35817,610;10,57252
 636,25; 4027,065;  248,351;35772,503;10,63703
 636,83; 4056,109;  228,964;35999,593;10,69913
 637,41; 4072,669;  249,273;36041,354;10,68224
 637,98; 4111,054;  283,504;36243,636;10,64387
 638,56; 4084,371;  264,044;36299,657;10,60153
 639,13; 4097,968;  242,349;36295,589;10,69424
 639,71; 4171,366;  312,810;36469,841;10,67166
 640,29; 4072,298;  224,194;36269,643;10,67570
 640,86; 4127,219;  241,348;36562,378;10,69868
 641,44; 4101,294;  240,810;36416,421;10,67151
 642,02; 4166,907;  268,117;36501,617;10,76018
 642,59; 4149,367;  241,117;36507,968;10,77637
 643,17; 4128,749;  242,656;36583,780;10,69338
 643,74; 4169,131;  243,425;36595,976;10,79899
 644,32; 4187,975;  270,809;36562,865;10,79345
 644,89; 4219,281;  263,963;36575,523;10,89272
 645,47; 4231,740;  266,886;36564,951;10,92305
 646,05; 4239,507;  263,502;36439,147;10,99084
 646,62; 4216,121;  248,117;36521,421;10,93918
 647,20; 4220,042;  254,732;36625,464;10,90247
 647,77; 4209,193;  233,271;36563,429;10,94386
 648,35; 4229,653;  230,886;36454,011;11,03926
 648,92; 4223,881;  254,040;36523,592;10,94538
 649,50; 4205,264;  220,886;36442,327;11,00005
 650,08; 4222,185;  220,886;36275,985;11,09773
 650,65; 4255,721;  236,039;36535,335;11,07372
 651,23; 4341,565;  213,193;37329,378;11,12283
 651,80; 4490,640;  217,193;38230,959;11,24184
 652,38; 4575,637;  230,809;38683,233;11,29923
 652,95; 4637,097;  216,885;39039,891;11,38555
 653,53; 4687,556;  243,116;39355,241;11,36333
 654,10; 4756,169;  269,347;39470,284;11,44570
 654,68; 4681,936;  215,885;39351,865;11,41162
 655,25; 4733,396;  215,577;39531,139;11,49117
 655,83; 4715,547;  211,654;39701,489;11,40520
 656,40; 4766,391;  262,347;39471,994;11,48708
 656,98; 4770,235;  218,116;39510,806;11,58516
 657,55; 4756,079;  228,039;39312,694;11,58521
 658,13; 4736,385;  223,423;38933,891;11,65825
 658,70; 4710,767;  250,500;38701,780;11,59979
 659,28; 4572,304;  231,192;37787,977;11,55879
 659,85; 4496,148;  247,962;36911,327;11,58701
 660,43; 4485,299;  245,577;37010,600;11,53195
 661,00; 4503,220;  217,038;37113,336;11,61683
 661,58; 4535,910;  226,808;37430,224;11,58255
 662,15; 4590,216;  214,038;37623,575;11,69803
 662,73; 4711,060;  296,269;37994,771;11,71079
 663,30; 4699,365;  233,346;38122,814;11,78697
 663,88; 4724,671;  238,115;38285,165;11,79213
 664,45; 4767,669;  221,192;38475,515;11,88487
 665,03; 4847,974;  225,192;38934,096;11,94243
 665,60; 4987,049;  315,961;39296,524;11,98312
 666,17; 4948,970;  231,730;39435,643;12,03257
 666,75; 5018,045;  237,884;39837,917;12,07110
 667,32; 5075,658;  257,422;40136,652;12,08207
 667,90; 5112,117;  248,576;40373,925;12,12087
 668,47; 5182,192;  254,268;40711,507;12,18057
 669,05; 5248,267;  238,422;41041,319;12,27816
 669,62; 5294,418;  215,268;41094,207;12,42486
 670,19; 5282,647;  207,576;41221,096;12,37414
 670,77; 5347,568;  225,191;41436,831;12,42944
 671,34; 5370,335;  222,653;41280,489;12,53764
 671,92; 5380,102;  223,268;41671,994;12,44148
 672,49; 5443,561;  249,114;41653,036;12,54579
 673,06; 5423,482;  180,576;41684,848;12,63221
 673,64; 5469,326;  209,037;41721,814;12,67149
 674,21; 5448,093;  198,806;41601,780;12,67853
 674,79; 5528,399;  237,498;41879,361;12,70572
 675,36; 5603,858;  243,345;41950,096;12,85287
 675,93; 5506,779;  207,883;41798,447;12,74062
 676,51; 5602,931;  233,883;41996,797;12,85602
 677,08; 5628,852;  238,267;42145,609;12,86310
 677,65; 5648,773;  227,344;42244,575;12,90287
 678,23; 5728,155;  235,806;42378,002;13,03290
 678,80; 5729,614;  226,344;42468,276;13,02798
 679,38; 5802,458;  215,421;42651,934;13,16564
 679,95; 5894,610;  226,498;42874,669;13,29040
 680,52; 5925,685;  226,806;43211,404;13,25796
 681,10; 5966,452;  242,344;43619,908;13,19601
 681,67; 6115,142;  240,652;43908,336;13,45272
 682,24; 6089,371;  205,882;43960,840;13,44645
 682,82; 6142,522;  215,113;44518,267;13,37920
 683,39; 6317,905;  261,805;44947,541;13,55265
 683,96; 6351,056;  228,113;45163,353;13,62615
 684,54; 6393,747;  214,882;45566,549;13,62434
 685,11; 6502,206;  261,574;45995,977;13,64538
 685,68; 6569,281;  220,343;46347,635;13,76395
 686,25; 6618,202;  209,574;46329,678;13,89552
 686,83; 6641,122;  224,266;46587,182;13,84049
 687,40; 6744,351;  205,805;46909,071;14,00019
 687,97; 6836,041;  262,882;47309,114;13,97170
 688,55; 6856,885;  212,266;47325,926;14,10338
 689,12; 6899,575;  191,728;47588,045;14,15268
 689,69; 6947,958;  201,497;47694,703;14,20511
 690,26; 7028,879;  218,035;47746,208;14,33012
 690,84; 7051,261;  217,112;48066,327;14,28268
 691,41; 7120,720;  228,343;48172,062;14,37598
 691,98; 7174,641;  228,189;48503,951;14,38911
 692,56; 7183,485;  220,650;48556,763;14,40504
 693,13; 7301,176;  276,573;48519,652;14,56085
 693,70; 7336,250;  239,343;48637,233;14,66367
 694,27; 7359,940;  216,419;48796,430;14,70465
 694,84; 7412,707;  213,189;48898,011;14,78801
 695,42; 7485,628;  261,650;49019,361;14,81607
 695,99; 7544,242;  217,727;49180,327;14,96349
 696,56; 7552,470;  216,496;49034,062;15,02732
 697,13; 7619,930;  232,650;49420,720;15,01844
 697,71; 7642,620;  209,727;49394,686;15,11213
 698,28; 7744,156;  217,727;49714,037;15,20604
 698,85; 7766,769;  199,727;49725,003;15,27915
 699,42; 7821,305;  202,342;49934,584;15,31997
 699,99; 7890,149;  240,803;50030,319;15,36337
 700,57; 7889,147;  232,342;50115,362;15,34952
 701,14; 7942,068;  206,573;50235,712;15,46198
 701,71; 8068,989;  232,803;50426,062;15,61203
 702,28; 8057,141;  229,034;50475,259;15,57949
 702,85; 8097,446;  224,495;50574,686;15,63639
 703,43; 8138,906;  251,342;50838,037;15,59217
 704,00; 8287,750;  245,726;50977,849;15,85194
 704,57; 8284,055;  235,188;51011,738;15,85154
 705,14; 8351,361;  252,880;51250,088;15,88024
 705,71; 8370,128;  259,880;51277,054;15,89709
 706,28; 8382,433;  231,880;51163,327;16,00299
 706,86; 8489,662;  260,187;51476,755;16,06799
 707,43; 8534,044;  289,957;51421,721;16,12322
 708,00; 8546,273;  259,803;51456,071;16,18569
 708,57; 8540,963;  234,956;51246,421;16,28263
 709,14; 8624,961;  261,879;51501,926;16,32138
 709,71; 8620,189;  241,572;51586,738;16,31822
 710,28; 8646,187;  236,418;51710,165;16,33798
 710,86; 8688,647;  244,725;51954,054;16,32959
 711,43; 8795,568;  267,495;51845,866;16,53420
 712,00; 8824,258;  249,494;51973,447;16,57793
 712,57; 8894,409;  261,802;52051,182;16,66868
 713,14; 8901,023;  234,417;52193,994;16,67951
 713,71; 8926,097;  246,802;52137,652;16,72606
 714,28; 8966,249;  235,033;52217,926;16,79633
 714,85; 8934,401;  221,110;51842,968;16,87907
 715,42; 8973,860;  225,417;52187,396;16,83624
 716,00; 9088,473;  300,033;52292,977;16,90314
 716,57; 9119,394;  233,263;52374,943;17,04228
 717,14; 9112,700;  211,725;52272,447;17,09729
 717,71; 9124,467;  212,725;52283,874;17,11455
 718,28; 9238,311;  265,955;52493,917;17,17922
 718,85; 9256,693;  204,955;52412,575;17,33796
 719,42; 9354,229;  241,878;52662,080;17,38328
 719,99; 9289,304;  219,571;52385,892;17,38619
 720,56; 9429,764;  243,417;52752,242;17,49486
 721,13; 9447,300;  217,032;52790,823;17,55679
 721,70; 9454,221;  203,724;52633,174;17,64370
 722,27; 9502,372;  232,186;52831,601;17,62413
 722,84; 9625,909;  288,493;52843,721;17,76686
 723,41; 9559,060;  208,032;52888,686;17,75040
 723,98; 9620,366;  221,570;53198,268;17,74138
 724,55; 9750,979;  256,724;53259,772;17,91266
 725,12; 9687,208;  181,185;53261,738;17,90867
 725,69; 9814,821;  208,570;53273,627;18,10278
 726,27; 9849,434;  221,570;53351,208;18,12146
 726,84; 9963,201;  233,031;53717,558;18,19250
 727,41; 9984,814;  241,262;53692,986;18,22870
 727,98;10024,812;  235,493;53909,259;18,23856
 728,55;10096,272;  274,339;53881,456;18,32207
 729,12;10105,423;  209,185;54031,575;18,38684
 729,69;10194,883;  235,339;54118,464;18,48360
 730,26;10234,881;  239,108;54533,507;18,41032
 730,82;10212,648;  229,569;54254,781;18,47855
 731,39;10301,492;  229,031;54317,746;18,62211
 731,96;10393,643;  214,800;54680,251;18,68862
 732,53;10521,103;  236,185;54873,678;18,82392
 733,10;10603,716;  243,031;54889,028;18,95964
 733,67;10591,329;  236,184;55261,302;18,81894
 734,24;10564,481;  217,031;54871,499;18,93249
 734,81;10630,248;  259,492;54910,464;18,97634
 735,38;10610,784;  232,954;54665,661;19,06543
 735,95;10626,013;  228,107;54563,473;19,13653
 736,52;10744,934;  236,723;54779,823;19,26588
 737,09;10716,239;  248,646;54388,712;19,33428
 737,66;10805,083;  286,030;54600,140;19,36707
 738,23;10876,389;  226,030;54758,721;19,53023
 738,80;10990,002;  307,722;55002,148;19,53084
 739,37;11037,615;  261,645;55128,652;19,64016
 739,94;11088,613;  236,953;55163,387;19,75672
 740,51;11260,072;  366,338;55300,507;19,83053
 741,07;11156,147;  233,722;55208,781;19,86796
 741,64;11194,683;  273,107;55394,054;19,81384
 742,21;11291,758;  238,722;55571,558;19,97555
 742,78;11241,756;  213,030;55299,755;20,02066
 743,35;11339,523;  232,183;55646,105;20,04431
 743,92;11439,444;  280,876;55889,379;20,06630
 744,49;11439,980;  273,183;55738,191;20,13305
 745,06;11506,209;  230,568;55709,695;20,32411
 745,63;11526,822;  223,029;55595,276;20,41418
 746,19;11515,435;  227,183;55560,858;20,40033
 746,76;11528,895;  236,798;55580,516;20,40357
 747,33;11590,431;  243,183;55549,020;20,51727
 747,90;11716,659;  263,798;55781,140;20,62934
 748,47;11723,888;  240,875;55719,336;20,69815
 749,04;11733,424;  244,567;55769,148;20,69148
 749,61;11850,114;  279,183;55687,729;20,88294
 750,17;11842,112;  265,413;55746,234;20,86613
 750,74;11889,802;  251,875;55801,200;20,95062
 751,31;11852,339;  232,413;55590,319;20,99054
 751,88;11874,721;  216,336;55543,208;21,07183
 752,45;11974,027;  231,490;55604,251;21,20634
 753,02;11989,178;  260,413;55423,140;21,26212
 753,58;11996,484;  232,490;55410,875;21,31993
 754,15;12027,789;  219,028;55610,918;21,31857
 754,72;11978,710;  230,028;55382,806;21,30207
 755,29;12046,093;  221,721;55210,541;21,50323
 755,86;12063,091;  253,490;55419,430;21,40741
 756,42;12179,396;  251,336;55133,781;21,73384
 756,99;12176,932;  215,182;55231,285;21,74227
 757,56;12167,622;  229,874;55230,405;21,70479
 758,13;12170,543;  179,951;55113,447;21,82747
 758,70;12176,387;  215,489;55279,875;21,72166
 759,26;12225,385;  202,643;55239,687;21,84482
 759,83;12372,075;  227,028;55372,883;22,02350
 760,40;12325,612;  210,566;55218,311;22,02425
 760,97;12302,071;  206,489;55244,353;21,97684
 761,53;12297,377;  185,643;54956,396;22,11351
 762,10;12318,374;  186,412;54850,362;22,19372
 762,67;12369,218;  214,489;54907,097;22,22371
 763,24;12226,985;  173,874;54437,601;22,21210
 763,80;12306,599;  207,797;54611,798;22,23881
 764,37;12361,981;  211,181;54580,148;22,34878
 764,94;12248,440;  197,258;54198,499;22,31649
 765,50;12298,361;  205,335;54206,695;22,39393
 766,07;12335,975;  237,489;54177,507;22,42952
 766,64;12251,434;  214,719;53884,319;22,42743
 767,21;12314,816;  213,873;53796,977;22,58351
 767,77;12274,968;  234,719;53682,943;22,52694
 768,34;12262,274;  223,950;53621,448;22,54473
 768,91;12308,502;  233,719;53493,260;22,67159
 769,47;12305,038;  232,488;53468,072;22,67760
 770,04;12352,805;  245,719;53389,037;22,78195
 770,61;12313,188;  219,180;53037,695;22,89729
 771,18;12314,647;  211,334;53017,969;22,92006
 771,74;12387,953;  226,873;53148,935;22,97923
 772,31;12343,028;  236,103;52924,131;22,97851
 772,88;12322,948;  205,796;52656,174;23,10213
 773,44;12262,023;  202,565;52564,832;23,03082
 774,01;12423,944;  233,796;52605,952;23,27601
 774,58;12350,096;  215,642;52376,456;23,26354
 775,14;12437,478;  208,411;52458,191;23,40501
 775,71;12436,784;  210,795;52348,926;23,44923
 776,27;12479,166;  273,641;52254,661;23,48073
 776,84;12504,703;  312,180;52286,243;23,45886
 777,41;12442,854;  226,411;52017,901;23,58774
 777,97;12412,006;  215,795;51779,713;23,65261
 778,54;12426,773;  231,641;52002,294;23,55607
 779,11;12473,386;  260,641;51813,490;23,68976
 779,67;12424,769;  216,487;51780,072;23,67617
 780,24;12474,305;  231,949;51504,576;23,87698
 780,80;12520,841;  235,949;51658,234;23,89021
 781,37;12487,301;  237,795;51581,200;23,85799
 781,94;12430,068;  230,948;51445,858;23,81947
 782,50;12477,989;  228,179;51259,670;24,00441
 783,07;12538,986;  257,564;51261,097;24,07955
 783,63;12456,907;  221,871;51107,909;24,04399
 784,20;12510,982;  248,179;51014,798;24,15525
 784,77;12436,826;  232,410;50773,302;24,14761
 785,33;12437,516;  210,102;50667,037;24,23337
 785,90;12539,822;  228,102;50623,926;24,43004
 786,46;12453,819;  256,102;50497,815;24,27807
 787,03;12473,663;  228,102;50236,243;24,48714
 787,59;12485,584;  232,563;50226,978;24,50878
 788,16;12520,121;  235,871;50217,020;24,57777
 788,73;12461,195;  236,409;50094,217;24,51930
 789,29;12431,116;  230,640;49793,875;24,61598
 789,86;12508,653;  258,178;49607,226;24,82414
 790,42;12487,650;  238,101;49520,038;24,85606
 790,99;12387,725;  241,871;49234,388;24,79124
 791,55;12465,185;  233,255;49198,969;24,98060
 792,12;12428,259;  270,794;49232,320;24,83065
 792,68;12339,873;  239,178;48915,901;24,85930
 793,25;12304,793;  249,409;48664,020;24,90030
 793,81;12369,791;  318,486;48265,909;25,13442
 794,38;12228,328;  209,870;48136,952;25,07655
 794,94;12231,172;  239,870;48136,610;25,03574
 795,51;12190,708;  243,255;47862,730;25,08943
 796,07;12159,629;  234,101;47650,696;25,15054
 796,64;12233,242;  262,870;47746,046;25,20971
 797,20;12134,932;  246,178;47193,089;25,32383
 797,77;12044,545;  215,408;46881,670;25,34837
 798,33;12039,312;  244,177;46734,251;25,37130
 798,90;12086,926;  251,485;46698,063;25,48184
 799,46;11988,462;  221,947;46181,798;25,60173
 800,03;12041,383;  244,100;46101,918;25,72578
 800,59;11961,073;  259,254;45974,191;25,59736
 801,15;11972,532;  253,023;45733,850;25,76802
 801,72;11882,607;  240,946;45340,585;25,81320
 802,28;11813,836;  267,946;45057,089;25,77832
 802,85;11820,295;  238,254;44917,132;25,92286
 803,41;11679,293;  228,562;44717,636;25,73830
 803,98;11613,752;  231,946;44265,909;25,84779
 804,54;11630,673;  234,331;44154,568;25,94782
 805,11;11595,825;  247,715;43862,841;26,01875
 805,67;11594,899;  262,254;43846,653;26,00161
 806,23;11495,513;  249,177;43371,003;26,08038
 806,80;11516,972;  260,023;43244,277;26,18854
 807,36;11532,508;  258,253;43238,243;26,23140
 807,93;11463,583;  267,176;43079,055;26,15257
 808,49;11328,042;  233,561;42628,559;26,16932
 809,05;11361,502;  231,561;42517,909;26,32041
 809,62;11334,346;  264,407;42372,183;26,28954
 810,18;11344,344;  250,638;42348,149;26,35240
 810,74;11278,188;  218,022;41992,576;26,47584
 811,31;11275,570;  227,407;41870,234;26,53077
 811,87;11290,953;  254,330;41773,046;26,58228
 812,44;11317,643;  268,176;41687,781;26,67690
 813,00;11180,717;  204,637;41421,439;26,63011
 813,56;11220,869;  255,176;41486,559;26,59550
 814,13;11249,482;  234,945;41479,140;26,70567
 814,69;11209,865;  243,099;41172,414;26,79440
 815,25;11057,093;  209,022;40779,533;26,73881
 815,82;11108,245;  260,637;40770,038;26,77800
 816,38;11111,551;  289,637;40586,696;26,85534
 816,94;11017,318;  226,637;40272,969;26,94549
 817,51;10901,546;  220,637;40085,166;26,79302
 818,07;10857,775;  221,022;39734,670;26,91919
 818,63;10812,157;  234,021;39568,482;26,89279
 819,20;10869,617;  245,329;39580,525;27,00962
 819,76;10701,384;  223,483;39195,260;26,88587
 820,32;10764,535;  248,252;39074,764;27,08532
 820,89;10694,533;  247,021;38918,807;27,01585
 821,45;10604,993;  217,406;38530,927;27,11207
 822,01;10563,144;  252,867;38313,739;27,08891
 822,57;10539,219;  252,559;38158,628;27,13724
 823,14;10471,063;  216,867;37916,132;27,19999
 823,70;10403,522;  220,021;37639,482;27,21445
 824,26;10361,905;  219,482;37478,602;27,22132
 824,82;10380,056;  256,867;37394,875;27,25830
 825,39;10299,670;  228,251;37042,534;27,35737
 825,95;10314,821;  238,328;37083,730;27,34803
 826,51;10222,358;  239,790;36697,234;27,38142
 827,08;10237,894;  270,251;36758,662;27,31728
 827,64;10250,276;  252,097;36598,781;27,50782
 828,20;10140,582;  214,867;36265,901;27,53240
 828,76;10239,426;  253,866;36258,636;27,73399
 829,32;10205,116;  261,251;36200,987;27,66816
 829,89;10174,268;  209,789;35935,106;27,89192
 830,45;10134,958;  237,482;36000,687;27,67502
 831,01;10139,802;  232,712;35591,269;28,01893
 831,57;10062,646;  240,328;35661,388;27,73016
 832,14;10083,182;  221,020;35632,585;27,85012
 832,70;10019,718;  219,558;35308,551;27,92944
 833,26; 9999,716;  199,020;35184,824;28,01335
 833,82;10035,252;  229,404;35104,636;28,11694
 834,38;10040,943;  222,558;35095,140;28,15503
 834,95; 9974,633;  213,635;35052,260;28,01775
 835,51; 9954,246;  190,635;34868,072;28,15551
 836,07; 9988,936;  234,173;34910,423;28,13096
 836,63;10026,395;  244,866;34946,158;28,18780
 837,19; 9939,393;  234,558;34790,893;28,08410
 837,75; 9928,468;  204,481;34431,166;28,41054
 838,32;10011,466;  244,942;34548,901;28,47054
 838,88; 9927,233;  241,481;34645,175;28,15323
 839,44; 9998,462;  248,865;34467,987;28,49166
 840,00; 9984,075;  241,404;34451,337;28,47907
 840,56; 9884,149;  222,404;34168,149;28,46232
 841,12; 9897,532;  218,634;34182,961;28,49725
 841,68; 9853,376;  196,173;33923,004;28,63359
 842,25; 9961,066;  232,557;33917,970;28,88048
 842,81; 9806,218;  204,942;33732,782;28,63673
 843,37; 9838,523;  200,634;33731,594;28,74325
 843,93; 9777,521;  227,557;33568,329;28,64350
 844,49; 9893,750;  237,788;33657,910;28,89266
 845,05; 9759,517;  187,557;33455,260;28,77253
 845,61; 9835,976;  245,095;33466,918;28,86922
 846,17; 9807,666;  222,172;33305,653;28,97366
 846,73; 9817,203;  230,634;33273,542;29,01248
 847,29; 9784,970;  211,326;33127,123;29,08525
 847,86; 9755,121;  210,249;33033,859;29,07929
 848,42; 9679,581;  223,095;32902,594;28,93706
 848,98; 9738,809;  228,403;32852,098;29,15184
 849,54; 9790,422;  214,633;32873,756;29,32041
 850,10; 9762,728;  232,403;32833,183;29,23343
 850,66; 9685,110;  212,326;32636,534;29,21516
 851,22; 9707,801;  196,864;32571,269;29,37795
 851,78; 9800,491;  250,018;32602,235;29,52030
 852,34; 9741,335;  232,710;32403,047;29,55712
 852,90; 9666,794;  216,556;32242,782;29,50781
 853,46; 9663,638;  213,402;32069,671;29,66523
 854,02; 9687,636;  231,787;32082,329;29,68819
 854,58; 9625,326;  227,171;31738,910;29,82430
 855,14; 9633,016;  217,941;31687,953;29,91761
 855,70; 9569,860;  177,633;31580,226;29,90908
 856,26; 9588,781;  226,171;31551,500;29,88831
 856,82; 9564,240;  220,633;31325,773;30,03879
 857,38; 9548,238;  247,940;31349,508;29,90299
 857,94; 9559,928;  217,786;31077,320;30,27311
 858,50; 9516,542;  258,940;31058,594;30,05749
 859,06; 9471,001;  215,479;30823,713;30,23867
 859,62; 9481,306;  231,709;30848,525;30,21084
 860,18; 9461,535;  224,786;30541,876;30,46714
 860,74; 9406,071;  197,325;30524,072;30,36510
 861,30; 9381,761;  191,171;30301,807;30,52274
 861,86; 9467,759;  272,632;30376,235;30,54494
 862,42; 9350,603;  219,709;30222,431;30,43355
 862,98; 9408,447;  257,247;30116,705;30,64758
 863,54; 9342,522;  222,170;29941,901;30,68787
 864,10; 9322,981;  223,093;30022,636;30,53701
 864,66; 9268,902;  204,016;29791,295;30,63778
 865,22; 9256,054;  215,939;29593,491;30,77218
 865,78; 9208,898;  222,862;29471,842;30,72256
 866,34; 9193,665;  213,170;29417,038;30,75105
 866,90; 9170,432;  236,555;29302,158;30,73694
 867,45; 9165,661;  230,785;29035,970;31,01829
 868,01; 9118,735;  229,324;28878,936;31,02804
 868,57; 9106,810;  217,862;28688,363;31,22161
 869,13; 9065,116;  205,708;28673,560;31,12075
 869,69; 9043,114;  214,400;28441,756;31,27715
 870,25; 9010,573;  186,785;28315,337;31,36951
 870,81; 9068,417;  220,400;28380,765;31,42011
 871,37; 9011,876;  230,862;28330,577;31,24948
 871,93; 9017,336;  238,939;28173,081;31,42533
 872,49; 8988,103;  262,246;27799,893;31,68701
 873,04; 8942,562;  205,477;27732,782;31,73970
 873,60; 8849,714;  205,708;27540,440;31,62279
 874,16; 8901,712;  232,400;27473,483;31,82440
 874,72; 8854,635;  212,938;27433,175;31,74732
 875,28; 8890,481;  219,708;27361,713;31,94596
 875,84; 8892,250;  230,246;27350,483;31,93926
 876,40; 8906,327;  211,631;27344,867;32,04445
 876,95; 8922,558;  223,323;27303,098;32,12447
 877,51; 8935,635;  246,323;27297,637;32,12159
 878,07; 8966,788;  263,400;27292,483;32,20009
 878,63; 8947,327;  222,169;27272,867;32,25483
 879,19; 8969,096;  240,400;27318,867;32,23482
 879,75; 8980,865;  207,554;27394,790;32,26996
 880,30; 9064,404;  226,554;27456,252;32,45666
 880,86; 9140,019;  267,246;27557,790;32,51226
 881,42; 9090,173;  217,938;27581,175;32,42392
 881,98; 9220,788;  227,785;27704,867;32,72911
 882,54; 9239,404;  216,246;27817,637;32,69095
 883,09; 9346,635;  237,400;27976,790;32,83863
 883,65; 9315,327;  203,169;28121,944;32,63810
 884,21; 9489,788;  251,323;28417,021;32,80041
 884,77; 9491,019;  211,631;28439,637;32,87299
 885,32; 9591,250;  221,938;28643,483;32,96553
 885,88; 9691,096;  263,323;28852,944;32,97621
 886,44; 9713,096;  227,015;28875,021;33,11253
 887,00; 9766,404;  250,477;28933,944;33,17565
 887,56; 9799,481;  225,323;29002,329;33,27017
 888,11; 9867,942;  221,785;29072,483;33,43475
 888,67; 9970,481;  256,785;29292,867;33,45388
 889,23; 9960,712;  226,015;29292,867;33,49071
 889,79; 9914,481;  210,323;29163,252;33,51702
 890,34; 9957,250;  231,862;29147,252;33,63395
 890,90;10068,019;  299,554;29313,098;33,66864
 891,46;10002,865;  230,477;29165,790;33,77322
 892,01; 9969,942;  241,631;29178,713;33,61884
 892,57;10069,712;  246,785;29092,252;34,05362
 893,13; 9989,712;  211,400;28971,021;34,00014
 893,69; 9980,096;  202,631;28899,713;34,07129
 894,24; 9914,558;  230,400;28829,175;33,86214
 894,80; 9950,481;  234,169;28582,867;34,27428
 895,36; 9844,327;  226,477;28442,175;34,08688
 895,91; 9787,481;  225,169;28280,560;34,08369
 896,47; 9804,712;  242,708;28191,329;34,21279
 897,03; 9747,788;  219,092;27945,252;34,36717
 897,58; 9726,250;  244,246;27851,483;34,34608
 898,14; 9657,019;  234,708;27640,483;34,38075
 898,70; 9559,942;  202,092;27523,637;34,25081
 899,25; 9662,404;  230,785;27537,021;34,54017
 899,81; 9576,558;  245,477;27311,175;34,47567
 900,37; 9477,788;  209,785;27044,790;34,53699
 900,92; 9500,558;  231,938;27062,560;34,54493
 901,48; 9516,327;  212,477;26888,790;34,87682
 902,03; 9429,173;  222,477;26758,098;34,69561
 902,59; 9406,019;  225,477;26678,944;34,70450
 903,15; 9369,173;  239,477;26485,560;34,78499
 903,70; 9311,481;  227,477;26196,021;34,98080
 904,26; 9287,173;  227,400;26080,175;35,04372
 904,82; 9291,865;  229,938;26143,560;34,96974
 905,37; 9274,865;  234,708;26013,175;35,06864
 905,93; 9187,096;  210,631;25805,867;35,07084
 906,48; 9230,712;  231,708;25697,175;35,33807
 907,04; 9233,250;  239,785;25643,637;35,40198
 907,60; 9125,327;  240,708;25437,021;35,26158
 908,15; 9130,942;  218,554;25329,021;35,49272
 908,71; 9126,865;  249,246;25351,021;35,36650
 909,26; 9087,481;  223,938;25228,867;35,44718
 909,82; 9104,173;  235,169;25071,637;35,70960
 910,37; 9069,250;  273,015;25014,175;35,55304
 910,93; 8997,558;  216,631;24674,021;35,90296
 911,48; 8981,250;  212,785;24616,867;35,93032
 912,04; 8954,481;  213,631;24466,637;36,04028
 912,60; 8975,404;  231,938;24515,560;36,00561
 913,15; 8920,173;  239,092;24347,329;36,00878
 913,71; 8869,173;  215,092;24093,252;36,24266
 914,26; 8824,019;  190,938;24063,406;36,16334
 914,82; 8843,942;  229,785;23958,329;36,30293
 915,37; 8788,712;  214,323;23861,329;36,25993
 915,93; 8799,404;  270,169;23812,637;36,22914
 916,48; 8724,865;  216,938;23582,560;36,41216
 917,04; 8683,019;  237,169;23521,021;36,27342
 917,59; 8700,019;  257,631;23477,713;36,35813
 918,15; 8597,173;  197,323;23245,021;36,44551
 918,70; 8614,558;  219,092;23222,175;36,49713
 919,26; 8612,865;  236,862;23058,560;36,70193
 919,81; 8549,481;  207,862;22928,175;36,71437
 920,37; 8546,404;  218,938;22839,483;36,81373
 920,92; 8562,404;  261,400;22781,021;36,86121
 921,48; 8472,019;  199,785;22525,637;37,05227
 922,03; 8465,558;  205,477;22530,098;36,99987
 922,59; 8401,173;  225,246;22402,483;36,86630
 923,14; 8374,096;  224,785;22233,406;37,02782
 923,69; 8377,250;  250,015;22170,252;37,07640
 924,25; 8386,173;  245,938;22132,098;37,19353
 924,80; 8316,327;  219,862;21961,790;37,23895
 925,36; 8294,788;  207,631;21846,406;37,37345
 925,91; 8261,635;  224,015;21753,175;37,33364
 926,47; 8192,942;  202,323;21673,637;37,21533
 927,02; 8251,942;  285,862;21626,944;37,32744
 927,57; 8187,712;  214,092;21334,329;37,75346
 928,13; 8177,096;  210,092;21322,713;37,73574
 928,68; 8167,096;  229,092;21243,560;37,77400
 929,24; 8115,250;  191,092;21028,867;38,02785
 929,79; 8057,712;  206,323;20950,252;37,84909
 930,34; 8021,250;  220,477;20785,021;37,93312
 930,90; 8019,558;  214,015;20762,790;37,98544
 931,45; 8043,481;  226,554;20754,021;38,08033
 932,01; 8052,788;  234,785;20661,098;38,27418
 932,56; 8001,865;  246,246;20478,175;38,33356
 933,11; 8000,327;  252,169;20502,867;38,26119
 933,67; 7932,865;  219,092;20311,867;38,39078
 934,22; 7968,404;  216,477;20255,790;38,68360
 934,77; 7892,788;  252,708;20143,560;38,41002
 935,33; 7889,481;  227,092;20010,944;38,73052
 935,88; 7843,096;  235,862;19929,021;38,62882
 936,43; 7823,481;  227,862;19856,175;38,69726
 936,99; 7818,096;  232,554;19695,560;38,97416
 937,54; 7744,327;  212,169;19608,867;38,83216
 938,09; 7738,096;  239,554;19555,637;38,82020
 938,65; 7718,788;  232,400;19423,175;39,01035
 939,20; 7623,635;  206,323;19300,175;38,84660
 939,75; 7644,096;  204,323;19170,329;39,22688
 940,31; 7590,327;  211,246;19116,713;39,03146
 940,86; 7623,481;  227,015;19065,944;39,26160
 941,41; 7585,250;  313,400;19135,406;38,63483
 941,96; 7541,250;  210,477;18889,329;39,24638
 942,52; 7511,096;  217,631;18806,790;39,23505
 943,07; 7457,250;  201,785;18710,637;39,19998
 943,62; 7447,942;  212,477;18644,637;39,25457
 944,18; 7412,173;  203,323;18555,406;39,28083
 944,73; 7434,788;  220,477;18409,175;39,66370
 945,28; 7328,404;  191,554;18242,944;39,53629
 945,83; 7375,173;  207,323;18343,175;39,52310
 946,39; 7346,404;  213,246;18264,790;39,51550
 946,94; 7355,250;  245,246;18136,175;39,74083
 947,49; 7283,404;  209,169;18047,329;39,65787
 948,04; 7335,327;  256,554;17943,329;40,02297
 948,59; 7310,558;  240,169;17960,867;39,89904
 949,15; 7277,250;  203,400;17842,867;40,10240
 949,70; 7233,712;  214,092;17716,252;40,10716
 950,25; 7187,250;  239,169;17592,329;40,03928
 950,80; 7197,635;  185,323;17440,483;40,63893
 951,36; 7112,712;  193,015;17370,175;40,28429
 951,91; 7165,558;  233,477;17399,098;40,38351
 952,46; 7094,942;  199,554;17230,098;40,48836
 953,01; 7095,250;  226,631;17255,406;40,33537
 953,56; 7043,942;  195,169;17099,021;40,51605
 954,11; 7059,712;  222,554;17028,406;40,68320
 954,67; 7033,788;  214,862;16967,560;40,70346
 955,22; 6968,942;  200,015;16814,560;40,74097
 955,77; 6992,096;  248,400;16765,560;40,82843
 956,32; 6972,788;  270,400;16704,406;40,78366
 956,87; 6927,404;  207,092;16558,944;41,09817
 957,42; 6976,635;  215,631;16537,944;41,42185
 957,98; 6900,865;  208,554;16381,713;41,37912
 958,53; 6928,865;  245,938;16348,790;41,50151
 959,08; 6865,942;  204,708;16229,175;41,56915
 959,63; 6844,558;  212,246;16089,483;41,77246
 960,18; 6840,635;  223,708;16043,560;41,82673
 960,73; 6827,481;  225,169;16017,560;41,80692
 961,28; 6740,635;  193,554;15881,175;41,73406
 961,83; 6795,019;  243,323;15852,098;41,97444
 962,39; 6703,019;  196,938;15762,329;41,79838
 962,94; 6668,250;  235,400;15630,944;41,78384
 963,49; 6655,327;  215,785;15523,713;42,06671
 964,04; 6672,635;  235,785;15473,329;42,24336
 964,59; 6598,712;  194,015;15376,175;42,18567
 965,14; 6647,481;  239,554;15334,713;42,45021
 965,69; 6586,558;  219,015;15295,098;42,23605
 966,24; 6544,788;  206,631;15172,560;42,35058
 966,79; 6527,942;  224,323;15031,790;42,57054
 967,34; 6461,019;  190,169;14944,867;42,50070
 967,89; 6451,942;  216,400;14881,867;42,51854
 968,44; 6442,865;  218,400;14821,252;42,62500
 968,99; 6422,173;  226,862;14712,790;42,76779
 969,55; 6433,635;  218,554;14667,406;43,01436
 970,10; 6372,404;  226,708;14514,637;43,01321
 970,65; 6366,404;  239,092;14459,329;43,08868
 971,20; 6290,865;  211,631;14306,867;43,12971
 971,75; 6240,635;  197,169;14216,021;43,10956
 972,30; 6235,942;  219,092;14145,175;43,20562
 972,85; 6218,173;  204,554;14088,021;43,31497
 973,40; 6177,942;  203,708;13950,560;43,45893
 973,95; 6170,404;  227,554;13891,406;43,49323
 974,50; 6181,404;  248,323;13904,406;43,44643
 975,05; 6139,942;  211,785;13704,483;43,93604
 975,60; 6110,019;  228,862;13682,175;43,71531
 976,15; 6080,558;  212,477;13600,944;43,82937
 976,70; 6044,019;  226,862;13493,637;43,84756
 977,25; 6030,019;  235,246;13457,867;43,82469
 977,80; 5965,019;  208,554;13293,098;43,99439
 978,35; 5907,019;  234,708;13092,175;44,11687
 978,89; 5879,558;  201,169;13054,560;44,17814
 979,44; 5888,942;  223,862;13040,021;44,20264
 979,99; 5760,250;  212,169;12829,867;43,97063
 980,54; 5784,788;  246,785;12840,637;43,97387
 981,09; 5778,096;  242,938;12647,713;44,62119
 981,64; 5748,173;  228,708;12520,406;44,90401
 982,19; 5735,096;  270,246;12500,713;44,68227
 982,74; 5691,019;  234,477;12373,713;44,94963
 983,29; 5546,019;  200,092;12258,944;44,33197
 983,84; 5593,173;  232,554;12145,329;44,99891
 984,39; 5596,788;  298,862;12130,406;44,77798
 984,94; 5489,173;  205,323;11949,867;44,98983
 985,49; 5464,096;  245,862;11916,483;44,71257
 986,03; 5474,635;  243,015;11837,252;45,12258
 986,58; 5433,558;  282,477;11682,944;45,18307
 987,13; 5338,635;  212,015;11573,252;45,12378
 987,68; 5292,712;  241,554;11430,098;45,14580
 988,23; 5301,942;  243,477;11445,406;45,15709
 988,78; 5238,096;  210,400;11289,560;45,37976
 989,33; 5203,865;  248,477;11125,483;45,55839
 989,88; 5182,173;  258,169;11165,790;45,14278
 990,42; 5114,404;  230,708;10973,713;45,45931
 990,97; 5062,019;  213,092;10828,329;45,67893
 991,52; 5041,481;  241,246;10779,329;45,55131
 992,07; 5026,019;  258,631;10725,790;45,54615
 992,62; 4989,250;  235,554;10580,175;45,95331
 993,17; 4947,019;  240,092;10459,483;46,05878
 993,71; 4916,096;  243,092;10406,483;45,97879
 994,26; 4841,250;  219,092;10208,944;46,26853
 994,81; 4824,942;  253,323;10201,021;45,95655
 995,36; 4773,096;  215,785;10082,483;46,18882
 995,91; 4720,865;  230,246; 9978,713;46,06487
 996,45; 4719,788;  232,631; 9855,867;46,62836
 997,00; 4622,712;  200,708; 9710,098;46,50144
 997,55; 4607,712;  244,938; 9694,021;46,17139
 998,10; 4609,865;  249,323; 9601,713;46,62490
 998,65; 4568,712;  228,323; 9486,098;46,88371
 999,19; 4512,250;  248,246; 9399,483;46,59484
 999,74; 4484,096;  259,708; 9297,560;46,74107
1000,29; 4457,327;  239,246; 9177,790;47,18980
1000,84; 4381,327;  226,938; 9035,790;47,16152
1001,38; 4345,327;  233,169; 8965,175;47,09293
1001,93; 4321,019;  245,554; 8920,790;46,97815
1002,48; 4222,481;  206,400; 8758,098;46,96238
1003,03; 4255,096;  239,938; 8675,252;47,59939
1003,57; 4185,019;  242,554; 8621,483;47,05214
1004,12; 4160,404;  260,631; 8573,406;46,91301
1004,67; 4134,173;  224,246; 8447,790;47,54552
1005,22; 4089,404;  221,400; 8250,406;48,17538
1005,76; 3973,481;  210,554; 8124,329;47,54908
1006,31; 4018,173;  243,938; 8095,790;48,06808
1006,86; 3921,327;  216,246; 7914,713;48,12751
1007,40; 3847,327;  211,246; 7821,021;47,78171
1007,95; 3783,481;  227,708; 7688,483;47,65957
1008,50; 3773,788;  238,323; 7620,637;47,89102
1009,04; 3685,635;  230,246; 7458,483;47,80403
1009,59; 3669,788;  232,015; 7371,252;48,15323
1010,14; 3624,404;  220,169; 7282,713;48,20125
1010,68; 3563,250;  233,708; 7158,560;48,08106
1011,23; 3514,096;  235,092; 7054,790;48,08136
1011,78; 3508,404;  253,246; 6960,713;48,53035
1012,32; 3469,558;  252,400; 6872,252;48,59864
1012,87; 3467,712;  257,246; 6859,790;48,62467
1013,42; 3328,942;  220,169; 6710,021;47,90206
1013,96; 3411,096;  254,708; 6728,944;48,75306
1014,51; 3321,019;  192,938; 6595,790;48,85449
1015,06; 3347,788;  199,938; 6633,406;48,92929
1015,60; 3434,019;  276,477; 6714,790;49,04300
1016,15; 3390,096;  222,631; 6685,406;49,01092
1016,69; 3428,635;  226,400; 6689,867;49,54360
1017,24; 3433,942;  203,554; 6703,637;49,69765
1017,79; 3524,327;  266,938; 6809,637;49,78662
1018,33; 3520,635;  225,323; 6806,406;50,07248
1018,88; 3546,250;  242,323; 6915,021;49,51411
1019,42; 3583,558;  235,708; 6899,560;50,23896
1019,97; 3579,019;  222,015; 6909,098;50,20132
1020,51; 3690,788;  259,400; 7042,944;50,58401
1021,06; 3642,327;  198,631; 6987,560;50,72518
1021,61; 3649,865;  185,938; 6998,406;50,84688
1022,15; 3620,942;  176,862; 6896,175;51,25644
1022,70; 3646,250;  222,323; 6941,560;50,95708
1023,24; 3614,327;  209,169; 6894,560;50,93431
1023,79; 3597,712;  234,246; 6823,175;51,04723
1024,33; 3567,865;  225,554; 6770,098;51,07020
1024,88; 3557,019;  233,477; 6724,021;51,20591
1025,42; 3491,019;  234,400; 6536,021;51,67907
1025,97; 3446,942;  214,400; 6473,713;51,64372
1026,51; 3348,712;  196,400; 6368,867;51,07053
1027,06; 3342,096;  216,631; 6318,252;51,22352
1027,60; 3287,250;  228,631; 6212,713;51,11258
1028,15; 3238,173;  241,785; 6148,329;50,72998
1028,69; 3154,250;  198,708; 5937,483;51,50128
1029,24; 3149,635;  219,323; 5908,329;51,50832
1029,78; 3082,558;  204,708; 5835,560;51,10861
1030,33; 3043,096;  197,323; 5678,790;51,91626
1030,87; 3042,942;  208,862; 5635,637;52,22403
1031,42; 2979,558;  192,862; 5513,867;52,37161
1031,96; 2963,019;  236,785; 5473,098;52,06401
1032,51; 2888,096;  203,938; 5401,867;51,63898
1033,05; 2876,942;  216,400; 5335,790;51,96990
1033,60; 2806,096;  198,938; 5221,406;51,90990
1034,14; 2784,788;  221,400; 5148,098;52,03056
1034,69; 2747,942;  213,785; 5084,867;52,02453
1035,23; 2722,327;  214,708; 5009,944;52,29396
1035,77; 2700,481;  220,092; 4922,944;52,74222
1036,32; 2643,481;  197,477; 4838,790;52,70068
1036,86; 2615,788;  223,169; 4806,021;52,20809
1037,41; 2596,250;  232,400; 4710,483;52,78710
1037,95; 2527,404;  191,092; 4640,175;52,51221
1038,50; 2508,481;  209,323; 4594,790;52,42674
1039,04; 2507,250;  231,246; 4555,713;52,63085
1039,58; 2451,712;  200,477; 4461,252;52,83627
1040,13; 2405,173;  210,246; 4394,790;52,45319
1040,67; 2420,481;  244,323; 4399,637;52,37048
1041,21; 2407,481;  247,554; 4267,867;53,72534
1041,76; 2330,404;  202,554; 4193,175;53,32127
1042,30; 2304,558;  207,631; 4173,713;52,87149
1042,85; 2256,558;  215,323; 4094,175;52,62471
1043,39; 2218,096;  195,323; 3985,944;53,36258
1043,93; 2227,788;  242,015; 3993,637;52,93107
1044,48; 2184,712;  227,015; 3932,483;52,83264
1045,02; 2138,481;  211,785; 3880,021;52,52377
1045,56; 2152,788;  240,708; 3851,021;52,96163
1046,11; 2118,404;  227,554; 3785,406;53,14583
1046,65; 2092,096;  229,477; 3706,406;53,57082
1047,19; 2063,788;  212,938; 3668,637;53,55937
1047,74; 2023,558;  195,862; 3568,944;54,18474
1048,28; 2013,558;  224,400; 3561,252;53,61813
1048,82; 2003,327;  249,938; 3558,790;52,99084
1049,37; 1954,558;  236,400; 3450,867;53,45078
1049,91; 1956,250;  225,092; 3414,560;54,27733
1050,45; 1918,712;  239,169; 3391,637;53,27707
1050,99; 1910,865;  219,246; 3353,483;53,97229
1051,54; 1865,404;  213,169; 3251,175;54,38550
1052,08; 1862,404;  249,938; 3258,098;53,60305
1052,62; 1823,865;  241,323; 3228,790;52,97271
1053,16; 1797,942;  220,554; 3136,867;54,08844
1053,71; 1782,019;  226,092; 3101,252;54,11619
1054,25; 1764,250;  244,169; 3059,867;53,98593
1054,79; 1731,865;  237,246; 3008,252;53,93779
1055,33; 1689,712;  200,092; 2939,637;54,37471
1055,88; 1705,865;  239,400; 2941,098;54,27940
1056,42; 1681,558;  237,477; 2872,252;54,80850
1056,96; 1677,635;  247,015; 2844,483;55,07747
1057,50; 1657,327;  230,477; 2794,098;55,65760
1058,05; 1617,558;  230,015; 2762,252;54,79513
1058,59; 1613,019;  247,938; 2739,252;54,79362
1059,13; 1549,173;  213,708; 2670,175;54,36528
1059,67; 1554,712;  235,015; 2639,175;54,89220
1060,21; 1528,712;  232,092; 2573,098;55,38727
1060,76; 1514,019;  239,554; 2571,329;54,65645
1061,30; 1533,173;  259,400; 2576,329;54,97679
1061,84; 1479,635;  232,938; 2493,406;55,15214
1062,38; 1404,173;  217,477; 2432,329;53,57903
1062,92; 1475,404;  267,708; 2475,637;54,69815
1063,46; 1423,019;  250,323; 2372,560;55,25756
1064,01; 1395,558;  219,169; 2363,944;54,84904
1064,55; 1383,481;  244,477; 2310,790;55,12251
1065,09; 1341,173;  210,400; 2239,329;55,73252
1065,63; 1365,481;  252,554; 2300,790;54,33586
1066,17; 1341,942;  258,323; 2235,637;54,80260
1066,71; 1352,404;  252,015; 2232,252;55,56854
1067,25; 1316,173;  233,169; 2154,790;56,35886
1067,80; 1307,942;  250,554; 2176,867;54,89182
1068,34; 1302,327;  262,323; 2144,560;55,25362
1068,88; 1267,635;  220,246; 2092,483;55,94317
1069,42; 1283,173;  250,246; 2101,252;55,80355
1069,96; 1249,558;  231,092; 2018,713;56,97322
1070,50; 1274,942;  260,092; 2062,713;56,29857
1071,04; 1217,250;  223,169; 1975,252;56,73709
1071,58; 1191,327;  233,092; 1960,560;55,47049
1072,12; 1195,096;  234,554; 1946,560;56,10625
1072,66; 1187,635;  241,785; 1936,021;55,82751
1073,21; 1200,173;  253,246; 1939,098;56,16904
1073,75; 1157,712;  239,862; 1893,790;55,49513
1074,29; 1158,019;  239,708; 1876,637;56,09966
1074,83; 1151,788;  262,092; 1872,329;55,25251
1075,37; 1135,865;  259,631; 1832,483;55,70992
1075,91; 1110,327;  247,631; 1794,790;55,76000
1076,45; 1106,096;  247,785; 1770,790;56,35642
1076,99; 1091,404;  258,938; 1749,483;55,84976
1077,53; 1072,096;  231,323; 1710,790;56,82945
1078,07; 1077,865;  243,477; 1723,560;56,37445
1078,61; 1078,788;  241,400; 1669,637;58,63094
1079,15; 1032,712;  234,246; 1688,867;54,89164
1079,69; 1045,404;  240,785; 1637,944;57,58964
1080,23; 1054,250;  253,323; 1646,867;57,47409
1080,77; 1076,558;  301,938; 1673,175;56,49056
1081,31; 1006,481;  230,092; 1598,175;56,75011
1081,85; 1016,019;  247,323; 1598,560;56,88835
1082,39;  991,327;  235,631; 1560,329;57,04667
1082,93;  993,327;  250,554; 1558,867;56,77333
1083,47;  949,635;  225,938; 1506,867;56,49776
1084,01;  994,327;  253,938; 1542,560;57,45587
1084,55;  938,712;  232,554; 1488,713;56,21560
1085,09;  950,404;  255,938; 1486,175;56,44974
1085,63;  936,635;  252,477; 1455,944;56,84888
1086,17;  921,019;  235,708; 1415,021;58,11106
1086,71;  895,788;  219,246; 1411,175;56,76029
1087,24;  930,942;  262,938; 1429,406;57,26726
1087,78;  917,404;  251,092; 1379,944;59,02559
1088,32;  873,865;  232,554; 1339,021;57,96028
1088,86;  897,096;  253,554; 1374,944;57,38789
1089,40;  884,558;  249,477; 1351,944;57,60541
1089,94;  845,788;  218,092; 1316,560;57,14291
1090,48;  860,788;  249,631; 1314,713;57,38124
1091,02;  855,096;  255,015; 1325,867;56,03770
1091,56;  854,788;  245,400; 1297,560;57,91787
1092,10;  821,019;  220,785; 1261,329;57,68468
1092,63;  842,481;  260,862; 1278,713;57,14183
1093,17;  835,865;  253,246; 1245,252;58,73144
1093,71;  799,788;  226,246; 1209,637;58,32295
1094,25;  845,712;  260,092; 1220,021;61,00652
1094,79;  780,712;  245,631; 1188,944;56,72354
1095,33;  799,788;  252,246; 1185,790;58,65199
1095,87;  792,404;  239,631; 1191,252;58,08751
1096,40;  756,942;  224,862; 1149,944;57,51710
1096,94;  762,481;  245,169; 1150,021;57,17085
1097,48;  778,173;  254,169; 1153,483;58,26710
1098,02;  746,942;  244,477; 1105,483;58,35796
1098,56;  721,865;  217,862; 1080,021;58,45830
1099,10;  710,635;  213,938; 1066,790;58,23944
1099,63;  733,481;  221,323; 1071,175;60,26434
1100,17;  735,942;  239,708; 1075,329;59,38512
1100,71;  762,327;  261,169; 1095,329;60,07935

