
Integration time [ms]: 140,000
Averaging Nr. [scans]: 13
Smoothing Nr. [pixels]: 0
Data measured with spectrometer [name]: 2009305U1
Wave   ;Sample   ;Dark     ;Reference;Reflectance
[nm]   ;[counts] ;[counts] ;[counts] ;[%]

 175,72;  216,739;  202,783;  223,076;68,77136
 176,32;  225,472;  235,325;  233,183; 0,00000
 176,92;  263,987;  268,169;  269,200;-405,28033
 177,52;  269,528;  268,091;  262,076; 0,00000
 178,12;  241,593;  257,324;  243,700; 0,00000
 178,72;  274,491;  265,095;  258,217; 0,00000
 179,32;  267,846;  268,863;  252,136; 0,00000
 179,92;  266,302;  265,631;  267,970;28,67281
 180,52;  249,944;  242,858;  269,559;26,53828
 181,12;  257,907;  264,246;  270,140;-107,55157
 181,73;  279,183;  278,015;  276,393; 0,00000
 182,33;  368,367;  376,706;  385,901;-90,68684
 182,93;  290,714;  282,630;  284,119;542,83583
 183,53;  242,708;  252,787;  239,042; 0,00000
 184,13;  252,688;  254,095;  245,230; 0,00000
 184,73;  290,619;  287,018;  290,658;98,92761
 185,33;  271,205;  245,652;  366,512;21,14318
 185,93;  284,085;  240,884;  362,674;35,47149
 186,53;  298,684;  262,499;  382,538;30,14466
 187,13;  317,519;  282,650;  413,897;26,56760
 187,73;  276,944;  248,500;  374,807;22,51983
 188,33;  271,224;  249,501;  377,832;16,92726
 188,93;  295,469;  266,120;  368,764;28,59322
 189,53;  307,444;  262,277;  393,555;34,40604
 190,13;  327,323;  296,435;  419,072;25,18607
 190,73;  274,679;  227,586;  359,537;35,68946
 191,34;  305,915;  271,352;  391,243;28,82844
 191,94;  277,712;  246,733;  373,358;24,46539
 192,54;  290,483;  264,572;  390,298;20,60966
 193,14;  297,595;  262,112;  410,063;23,98299
 193,74;  289,088;  267,728;  401,768;15,93540
 194,34;  288,993;  265,958;  394,183;17,96494
 194,94;  254,628;  225,420;  368,414;20,42616
 195,54;  236,854;  199,036;  342,674;26,32868
 196,14;  252,138;  234,957;  373,055;12,44145
 196,74;  252,071;  238,575;  362,324;10,90627
 197,34;  226,409;  200,263;  355,217;16,87315
 197,94;  255,893;  232,342;  391,563;14,79122
 198,54;  275,127;  239,265;  407,700;21,29163
 199,14;  246,314;  217,032;  395,974;16,36396
 199,74;  236,358;  208,186;  379,854;16,41090
 200,34;  232,821;  205,108;  400,093;14,21262
 200,94;  256,418;  241,418;  444,773; 7,37659
 201,54;  250,444;  224,801;  446,157;11,58423
 202,14;  285,011;  252,185;  507,021;12,88119
 202,74;  253,929;  220,186;  489,414;12,53327
 203,34;  232,191;  206,876;  509,469; 8,36602
 203,94;  222,078;  177,569;  523,345;12,87203
 204,54;  285,312;  251,804;  597,516; 9,69238
 205,14;  242,457;  210,570;  593,619; 8,32435
 205,74;  296,103;  248,030;  688,863;10,90500
 206,34;  255,186;  218,877;  712,170; 7,36056
 206,94;  278,525;  224,493;  773,666; 9,83888
 207,54;  249,142;  194,262;  814,576; 8,84711
 208,14;  265,286;  212,338;  885,999; 7,85966
 208,74;  276,258;  216,647;  970,102; 7,91168
 209,34;  275,238;  210,032; 1064,247; 7,63342
 209,94;  296,754;  223,416; 1142,978; 7,97524
 210,54;  299,573;  216,877; 1246,089; 8,03495
 211,14;  305,742;  209,955; 1381,448; 8,17651
 211,73;  312,410;  219,109; 1508,743; 7,23467
 212,33;  324,913;  231,956; 1610,123; 6,74494
 212,93;  323,708;  216,109; 1698,572; 7,25815
 213,53;  301,225;  181,647; 1761,367; 7,56958
 214,13;  324,920;  222,952; 1870,209; 6,19016
 214,73;  317,241;  185,954; 1909,790; 7,61601
 215,33;  305,138;  179,186; 1934,593; 7,17512
 215,93;  343,608;  211,184; 2074,162; 7,10818
 216,53;  311,455;  162,801; 2134,072; 7,54102
 217,13;  392,837;  225,953; 2347,307; 7,86685
 217,73;  371,850;  204,338; 2559,692; 7,11198
 218,33;  366,515;  161,336; 2756,969; 7,90474
 218,93;  421,284;  202,873; 3086,277; 7,57476
 219,53;  441,790;  209,336; 3414,311; 7,25288
 220,13;  448,374;  170,028; 3703,166; 7,87815
 220,73;  515,688;  187,878; 4085,892; 8,40967
 221,32;  541,643;  195,109; 4505,948; 8,03867
 221,92;  593,846;  192,721; 5000,632; 8,34303
 222,52;  594,048;  178,184; 5377,901; 7,99783
 223,12;  644,411;  189,030; 5845,465; 8,05068
 223,72;  711,609;  197,260; 6327,192; 8,39078
 224,32;  740,918;  209,106; 6727,234; 8,15896
 224,92;  752,203;  182,568; 7030,294; 8,31861
 225,52;  823,646;  212,723; 7406,315; 8,49260
 226,12;  834,705;  189,953; 7683,610; 8,60396
 226,72;  847,001;  171,723; 8090,059; 8,52803
 227,31;  879,210;  166,338; 8448,196; 8,60763
 227,91;  966,261;  195,185; 8938,251; 8,81928
 228,51;  989,254;  182,417; 9244,174; 8,90376
 229,11; 1043,803;  189,108; 9710,850; 8,97625
 229,71; 1064,642;  184,032; 9960,751; 9,00721
 230,31; 1119,865;  160,260;10437,610; 9,33709
 230,91; 1127,229;  168,495;10697,503; 9,10565
 231,51; 1184,135;  183,415;11064,521; 9,19687
 232,10; 1240,998;  172,875;11342,525; 9,56273
 232,70; 1307,532;  198,958;11545,952; 9,76976
 233,30; 1373,168;  214,492;11780,828;10,01766
 233,90; 1351,761;  192,799;11954,734; 9,85349
 234,50; 1361,817;  186,799;12056,551; 9,89926
 235,10; 1417,819;  175,260;12065,525;10,45022
 235,70; 1495,282;  208,724;12036,862;10,87710
 236,29; 1477,313;  203,417;12020,602;10,78003
 236,89; 1454,779;  168,495;11895,824;10,96827
 237,49; 1475,540;  201,338;11816,486;10,97017
 238,09; 1478,109;  181,339;11438,324;11,51970
 238,69; 1507,490;  224,957;11167,550;11,72056
 239,29; 1470,965;  186,185;10841,999;12,05708
 239,89; 1440,494;  196,802;10545,226;12,01817
 240,48; 1430,472;  176,492;10114,692;12,61777
 241,08; 1392,119;  177,185; 9764,264;12,67261
 241,68; 1385,901;  213,415; 9396,209;12,76829
 242,28; 1340,585;  178,723; 8995,542;13,17779
 242,88; 1362,426;  219,721; 8679,166;13,50803
 243,48; 1343,419;  225,954; 8415,452;13,64510
 244,07; 1308,700;  209,339; 8129,234;13,88100
 244,67; 1311,143;  207,338; 7988,298;14,18598
 245,27; 1317,333;  208,109; 7823,974;14,56465
 245,87; 1339,205;  210,260; 7761,226;14,95100
 246,47; 1336,047;  196,109; 7668,914;15,25449
 247,06; 1346,339;  181,416; 7757,721;15,37587
 247,66; 1353,725;  185,646; 7774,213;15,39262
 248,26; 1435,949;  215,955; 7894,268;15,88883
 248,86; 1457,597;  207,725; 8133,290;15,77014
 249,46; 1458,553;  159,953; 8304,717;15,94398
 250,05; 1598,307;  204,262; 8681,392;16,44477
 250,65; 1620,958;  184,263; 9076,110;16,15744
 251,25; 1699,041;  178,031; 9575,474;16,18536
 251,85; 1812,691;  186,264;10085,469;16,42988
 252,44; 1925,852;  157,878;10815,700;16,58851
 253,04; 2071,765;  208,493;11581,892;16,38272
 253,64; 2167,957;  152,725;12308,123;16,57891
 254,24; 2385,801;  196,339;13277,281;16,73780
 254,84; 2519,322;  177,184;14242,179;16,65225
 255,43; 2700,182;  190,801;15248,200;16,66543
 256,03; 2878,628;  196,956;16293,995;16,65942
 256,63; 3079,142;  204,341;17391,115;16,72682
 257,23; 3190,318;  177,495;18380,307;16,55142
 257,82; 3413,094;  194,496;19349,209;16,80316
 258,42; 3504,069;  155,496;20233,042;16,67820
 259,02; 3712,325;  210,262;21264,273;16,63371
 259,62; 3877,584;  187,189;22043,709;16,88464
 260,21; 3926,632;  199,878;22644,055;16,60455
 260,81; 4003,924;  193,646;23073,388;16,65350
 261,41; 4068,510;  172,265;23729,055;16,53980
 262,01; 4188,131;  209,497;24161,474;16,61088
 262,60; 4162,010;  163,649;24635,307;16,33875
 263,20; 4256,816;  179,802;24886,046;16,50196
 263,80; 4276,538;  212,651;25112,931;16,32065
 264,40; 4274,045;  168,189;25329,644;16,31804
 264,99; 4257,175;  198,574;25487,905;16,04867
 265,59; 4323,882;  180,191;25693,956;16,24100
 266,19; 4300,582;  181,035;25895,888;16,02011
 266,78; 4369,424;  221,190;26007,807;16,08677
 267,38; 4300,059;  200,268;26049,674;15,86029
 267,98; 4269,205;  181,575;26073,568;15,78724
 268,58; 4246,576;  196,037;26109,273;15,63116
 269,17; 4235,010;  195,653;26127,166;15,57702
 269,77; 4207,305;  204,957;25881,747;15,58742
 270,37; 4146,350;  165,420;25820,286;15,51725
 270,96; 4110,467;  232,111;25659,008;15,25297
 271,56; 4036,428;  184,033;25321,482;15,32532
 272,16; 3996,543;  181,496;25124,230;15,29522
 272,75; 3918,027;  191,265;25101,268;14,96090
 273,35; 3928,765;  189,726;25037,080;15,04803
 273,95; 3890,379;  188,419;25027,841;14,90357
 274,54; 3852,251;  169,185;25041,157;14,80810
 275,14; 3925,842;  216,496;25396,256;14,73146
 275,74; 3887,960;  168,419;25453,756;14,71027
 276,33; 3944,272;  213,649;25923,068;14,51072
 276,93; 3978,659;  196,031;26222,952;14,53352
 277,53; 4042,665;  186,032;26759,098;14,51331
 278,12; 4112,506;  174,418;27305,491;14,51505
 278,72; 4294,367;  227,801;27881,948;14,70509
 279,32; 4322,916;  182,955;28489,106;14,62566
 279,91; 4430,893;  165,494;29258,003;14,66150
 280,51; 4569,434;  191,724;29692,657;14,83923
 281,11; 4683,947;  186,494;30550,063;14,81200
 281,70; 4729,771;  171,417;30892,465;14,83788
 282,30; 4891,658;  182,572;31552,097;15,01166
 282,90; 5004,394;  186,264;31954,418;15,16654
 283,49; 5110,578;  202,572;32544,115;15,17555
 284,09; 5269,968;  210,417;33120,456;15,37388
 284,69; 5394,070;  213,340;33350,085;15,63439
 285,28; 5486,232;  206,341;33762,422;15,73453
 285,88; 5667,048;  248,188;33983,397;16,06292
 286,47; 5721,043;  187,187;34005,615;16,36343
 287,07; 5800,718;  220,263;34062,995;16,48937
 287,67; 5996,419;  209,415;34281,991;16,98435
 288,26; 6096,883;  182,878;34188,713;17,39115
 288,86; 6296,463;  179,956;34213,674;17,97190
 289,46; 6510,365;  205,340;34318,149;18,48287
 290,05; 6676,151;  177,493;34392,670;18,99350
 290,65; 6886,404;  194,803;34598,709;19,45012
 291,24; 7193,334;  195,186;34663,653;20,30304
 291,84; 7443,911;  216,495;34767,653;20,91801
 292,44; 7694,442;  194,569;34984,204;21,55778
 293,03; 8078,323;  266,417;35057,914;22,45349
 293,63; 8248,603;  184,495;35259,170;22,99126
 294,22; 8484,420;  214,417;35324,264;23,55465
 294,82; 8687,353;  191,727;35373,820;24,14758
 295,41; 8780,232;  176,802;35114,234;24,62525
 296,01; 8937,410;  229,265;34972,568;25,06424
 296,61; 9016,664;  217,571;34673,495;25,53724
 297,20; 8986,169;  195,496;34283,409;25,78824
 297,80; 9095,240;  199,031;34159,264;26,19596
 298,39; 9008,768;  177,418;33729,931;26,32098
 298,99; 9091,258;  207,880;33549,640;26,64340
 299,58; 9085,407;  210,415;33295,880;26,82444
 300,18; 9092,866;  225,416;33137,170;26,94311
 300,78; 9037,050;  187,186;32737,294;27,18843
 301,37; 9061,998;  209,497;32747,285;27,20683
 301,97; 9098,036;  208,417;32702,747;27,35745
 302,56; 9043,998;  199,418;32668,944;27,23963
 303,16; 9039,348;  171,341;32483,179;27,44507
 303,75; 9039,666;  187,570;32527,127;27,37235
 304,35; 9101,049;  181,030;32758,768;27,38072
 304,94; 9124,344;  206,340;32808,922;27,35367
 305,54; 9079,566;  218,801;32760,717;27,22877
 306,13; 9063,071;  161,799;32549,192;27,48376
 306,73; 8984,178;  166,876;32358,217;27,39029
 307,33; 9013,539;  206,261;32238,521;27,49503
 307,92; 8986,807;  215,878;32305,469;27,33263
 308,52; 9041,557;  173,495;32763,140;27,21128
 309,11; 9155,409;  188,650;33278,833;27,09794
 309,71; 9260,912;  180,728;33595,521;27,17414
 310,30; 9281,092;  184,648;33756,969;27,09507
 310,90; 9354,784;  221,263;34201,739;26,87873
 311,49; 9366,509;  201,955;34294,529;26,88138
 312,09; 9381,888;  170,800;34375,033;26,92967
 312,68; 9479,379;  253,955;34837,982;26,67539
 313,28; 9442,576;  162,878;34973,469;26,65768
 313,87; 9471,850;  162,955;35103,286;26,64226
 314,47; 9429,026;  191,188;35314,764;26,30096
 315,06; 9485,708;  176,032;35427,858;26,40906
 315,66; 9461,272;  170,954;35644,803;26,18920
 316,25; 9432,085;  159,034;35543,003;26,20693
 316,85; 9409,020;  148,493;35519,422;26,18118
 317,44; 9408,212;  183,266;35761,610;25,92854
 318,04; 9322,109;  174,495;35684,512;25,76066
 318,63; 9287,189;  161,030;35697,110;25,68139
 319,22; 9299,580;  183,341;35919,858;25,50959
 319,82; 9248,396;  182,341;35890,217;25,38951
 320,41; 9188,602;  206,187;35837,512;25,20932
 321,01; 9198,568;  201,878;35853,636;25,23491
 321,60; 9180,935;  196,879;35932,315;25,14047
 322,20; 9073,499;  181,417;35834,568;24,94052
 322,79; 9061,488;  206,186;35983,059;24,75147
 323,39; 9002,487;  177,876;36015,401;24,62394
 323,98; 8919,566;  168,109;35860,333;24,51923
 324,58; 8865,644;  175,495;35863,803;24,35013
 325,17; 8800,943;  188,111;35597,918;24,32330
 325,76; 8699,784;  208,186;35442,927;24,10007
 326,36; 8563,151;  178,416;35062,418;24,03605
 326,95; 8467,573;  207,494;34654,585;23,97903
 327,55; 8333,176;  165,341;34435,627;23,83358
 328,14; 8193,384;  176,954;33976,875;23,71730
 328,74; 8100,954;  209,649;33581,833;23,64635
 329,33; 7983,546;  194,262;33143,444;23,64029
 329,92; 7802,640;  177,496;32534,162;23,56591
 330,52; 7643,956;  187,954;31833,499;23,56098
 331,11; 7454,946;  181,879;31384,670;23,30903
 331,71; 7324,431;  180,033;30840,773;23,30145
 332,30; 7182,882;  201,263;30513,538;23,03232
 332,89; 7040,732;  251,339;29853,004;22,93585
 333,49; 6861,276;  193,725;29360,170;22,86035
 334,08; 6737,703;  191,879;28852,042;22,83945
 334,68; 6561,814;  183,879;28470,875;22,54723
 335,27; 6463,298;  207,646;28061,551;22,45880
 335,86; 6464,023;  242,264;27758,670;22,61109
 336,46; 6329,067;  198,954;27412,880;22,52565
 337,05; 6269,385;  184,956;27302,884;22,43693
 337,65; 6186,978;  173,264;27034,230;22,38830
 338,24; 6207,994;  222,955;27085,038;22,28062
 338,83; 6157,830;  204,801;26985,781;22,22857
 339,43; 6140,393;  176,264;27007,948;22,22793
 340,02; 6112,755;  172,418;26819,350;22,29276
 340,61; 6094,543;  199,263;26869,734;22,10415
 341,21; 6113,723;  221,726;26907,986;22,07877
 341,80; 6111,912;  192,418;26842,333;22,21206
 342,40; 6095,099;  190,108;26908,012;22,10125
 342,99; 6133,963;  183,262;27124,927;22,08735
 343,58; 6174,007;  174,416;27215,521;22,18693
 344,18; 6218,536;  202,031;27425,670;22,10029
 344,77; 6249,953;  168,342;27631,055;22,14498
 345,36; 6302,957;  170,187;27880,046;22,13209
 345,96; 6401,568;  209,878;28225,999;22,10046
 346,55; 6452,334;  160,414;28529,653;22,17867
 347,14; 6500,286;  170,415;28847,768;22,07272
 347,74; 6600,142;  151,567;29286,025;22,13384
 348,33; 6820,449;  183,259;29809,653;22,40296
 348,92; 6965,157;  191,412;30461,670;22,37756
 349,52; 7036,078;  163,028;30981,773;22,30152
 350,11; 7099,347;  178,495;31156,136;22,34144
 350,70; 7167,048;  172,955;31370,055;22,41905
 351,29; 7099,710;  167,652;30998,482;22,48418
 351,89; 7149,552;  189,035;31043,016;22,55954
 352,48; 7122,631;  165,263;31080,991;22,50430
 353,07; 7187,133;  199,877;31018,525;22,67217
 353,67; 7185,158;  208,720;30924,636;22,71278
 354,26; 7135,605;  182,492;30742,969;22,75198
 354,85; 7111,822;  191,185;30553,794;22,79329
 355,45; 7112,900;  167,879;30387,704;22,98167
 356,04; 7100,507;  176,107;30300,521;22,98601
 356,63; 7090,727;  215,340;30143,683;22,97283
 357,22; 7069,009;  184,651;30004,914;23,08618
 357,82; 7023,594;  184,881;29789,615;23,10007
 358,41; 7037,311;  207,109;29677,551;23,17645
 359,00; 7033,404;  180,264;29523,687;23,35494
 359,60; 7057,137;  188,647;29385,452;23,52480
 360,19; 7018,849;  205,415;29244,627;23,46287
 360,78; 7028,187;  184,264;29115,982;23,65543
 361,37; 7016,616;  188,187;28952,632;23,73913
 361,97; 7025,717;  189,109;28871,525;23,83553
 362,56; 6958,677;  180,034;28572,824;23,87452
 363,15; 6989,011;  252,264;28254,174;24,05817
 363,74; 6890,543;  192,265;27927,153;24,15109
 364,34; 6867,580;  213,341;27511,914;24,37577
 364,93; 6736,973;  173,573;27122,042;24,35537
 365,52; 6660,484;  144,571;26657,209;24,57663
 366,11; 6657,415;  182,803;26510,580;24,59232
 366,71; 6582,888;  182,726;26033,397;24,75820
 367,30; 6535,012;  202,264;25600,875;24,93344
 367,89; 6535,844;  220,031;25410,251;25,07248
 368,48; 6456,400;  196,957;25136,221;25,09875
 369,07; 6425,895;  201,417;24677,978;25,43036
 369,67; 6324,137;  219,342;24411,221;25,23490
 370,26; 6325,752;  180,417;24057,200;25,73770
 370,85; 6280,935;  189,341;23916,469;25,67354
 371,44; 6283,727;  192,802;23630,935;25,98725
 372,03; 6218,206;  167,726;23441,884;25,99656
 372,63; 6145,551;  160,494;23097,204;26,09379
 373,22; 6123,927;  185,186;22806,076;26,25335
 373,81; 6077,770;  157,648;22493,499;26,50502
 374,40; 6032,856;  178,416;22326,768;26,43285
 374,99; 6009,648;  178,110;21951,247;26,78318
 375,59; 5948,328;  171,877;21685,465;26,85025
 376,18; 5973,978;  212,187;21588,978;26,95349
 376,77; 5950,706;  201,109;21345,961;27,19147
 377,36; 5934,286;  220,648;21386,559;26,99453
 377,95; 5927,745;  206,495;21008,080;27,50391
 378,55; 5865,876;  175,185;20865,482;27,50415
 379,14; 5897,352;  198,341;20764,435;27,71071
 379,73; 5887,603;  188,341;20679,533;27,81323
 380,32; 5954,728;  199,648;20785,187;27,95691
 380,91; 5916,983;  168,265;20505,662;28,26674
 381,50; 5925,029;  197,726;20493,781;28,21880
 382,10; 5926,574;  188,033;20415,495;28,37005
 382,69; 5933,319;  166,187;20415,140;28,48114
 383,28; 5984,458;  212,957;20278,243;28,76361
 383,87; 5954,667;  180,803;20158,687;28,90128
 384,46; 5952,386;  164,035;20098,191;29,03735
 385,05; 6009,556;  202,188;20130,657;29,14107
 385,64; 5985,184;  191,111;20107,273;29,09232
 386,24; 5990,451;  157,881;20034,508;29,34386
 386,83; 6069,088;  202,035;20097,307;29,48968
 387,42; 6135,580;  198,034;20214,495;29,66332
 388,01; 6215,291;  204,421;20376,102;29,79856
 388,60; 6290,365;  191,573;20645,700;29,81692
 389,19; 6385,547;  173,731;20876,619;30,00459
 389,78; 6526,791;  179,730;21079,542;30,36898
 390,37; 6711,756;  245,651;21567,854;30,32569
 390,96; 6759,451;  187,497;21720,102;30,52094
 391,56; 6842,676;  195,116;21867,529;30,67291
 392,15; 6955,638;  177,961;22123,550;30,88401
 392,74; 6998,985;  165,656;22259,956;30,92802
 393,33; 7127,291;  183,347;22620,311;30,94868
 393,92; 7290,848;  189,427;22947,576;31,20386
 394,51; 7390,675;  169,347;23210,674;31,34076
 395,10; 7517,262;  202,353;23428,230;31,49465
 395,69; 7538,539;  187,122;23572,315;31,43620
 396,28; 7608,026;  193,046;23641,657;31,62225
 396,87; 7673,496;  200,741;23763,072;31,71483
 397,46; 7756,904;  198,128;23866,734;31,93587
 398,06; 7875,267;  212,746;24134,695;32,03134
 398,65; 7901,581;  191,828;24181,618;32,13764
 399,24; 8013,104;  208,906;24321,503;32,36565
 399,83; 8013,922;  171,684;24319,059;32,47657
 400,42; 8079,711;  215,999;24455,828;32,44129
 401,01; 8160,143;  189,315;24579,165;32,68092
 401,60; 8176,979;  200,942;24618,383;32,66533
 402,19; 8226,134;  214,489;24606,438;32,84545
 402,78; 8207,913;  214,888;24515,643;32,89208
 403,37; 8201,608;  204,440;24392,169;33,06291
 403,96; 8150,380;  205,994;24258,463;33,02940
 404,55; 8157,066;  213,319;24201,147;33,11574
 405,14; 8122,112;  189,797;24097,719;33,17861
 405,73; 8161,739;  211,200;24017,330;33,39702
 406,32; 8200,339;  210,366;23847,172;33,80310
 406,91; 8050,908;  205,150;23610,749;33,52086
 407,50; 8067,675;  210,619;23473,501;33,77508
 408,09; 7968,474;  179,317;23120,120;33,95329
 408,68; 7982,028;  198,628;23067,402;34,03506
 409,27; 7891,534;  183,854;22837,885;34,02344
 409,86; 7905,027;  192,997;22744,676;34,19714
 410,45; 7912,995;  221,449;22600,509;34,36939
 411,04; 7905,437;  227,516;22570,531;34,36385
 411,63; 7826,815;  214,426;22318,946;34,43816
 412,22; 7767,023;  220,876;22082,741;34,51740
 412,81; 7688,537;  216,872;21846,497;34,54366
 413,40; 7619,144;  232,559;21486,489;34,75397
 413,99; 7509,004;  276,330;21131,343;34,68075
 414,58; 7381,482;  198,868;20717,382;35,00553
 415,17; 7307,889;  202,718;20540,377;34,93603
 415,76; 7251,043;  198,723;20346,860;35,00234
 416,35; 7194,889;  185,874;20116,937;35,16629
 416,94; 7231,389;  225,568;20175,971;35,11618
 417,53; 7356,945;  207,257;20432,621;35,35011
 418,12; 7359,653;  206,948;20476,583;35,28779
 418,71; 7517,683;  218,021;20830,454;35,41388
 419,30; 7537,161;  200,024;21000,647;35,27364
 419,89; 7606,198;  184,639;21139,429;35,41701
 420,48; 7730,661;  222,405;21442,613;35,38257
 421,07; 7809,204;  216,251;21448,407;35,76157
 421,66; 7752,655;  184,941;21541,095;35,43575
 422,25; 7769,291;  205,167;21438,937;35,62309
 422,84; 7801,208;  224,397;21543,476;35,54005
 423,43; 7692,451;  212,168;21238,301;35,57613
 424,02; 7648,840;  231,628;21043,172;35,63989
 424,60; 7462,943;  201,392;20533,831;35,71411
 425,19; 7431,534;  211,703;20236,510;36,05443
 425,78; 7411,689;  217,626;20175,442;36,04635
 426,37; 7338,061;  232,085;20050,925;35,85465
 426,96; 7280,259;  206,624;19918,959;35,88431
 427,55; 7252,175;  199,467;19767,762;36,04150
 428,14; 7181,983;  195,158;19549,673;36,09920
 428,73; 7121,916;  216,929;19338,557;36,11087
 429,32; 7133,818;  218,470;19324,100;36,19534
 429,91; 7203,225;  226,160;19366,831;36,45152
 430,50; 7090,891;  228,466;19204,852;36,16297
 431,08; 7025,305;  231,772;19005,087;36,18718
 431,67; 7037,082;  263,463;18962,207;36,22499
 432,26; 6988,605;  269,923;18770,057;36,31693
 432,85; 6852,449;  291,770;18411,160;36,20806
 433,44; 6725,338;  305,845;18063,668;36,15022
 434,03; 6613,846;  316,149;17727,545;36,16997
 434,62; 6399,888;  271,614;17264,989;36,06272
 435,21; 6342,483;  287,923;17079,211;36,05774
 435,79; 6299,742;  290,535;16870,613;36,24354
 436,38; 6243,788;  276,994;16773,698;36,16961
 436,97; 6214,965;  282,686;16719,515;36,09139
 437,56; 6129,392;  278,143;16522,498;36,02020
 438,15; 6082,650;  260,837;16400,241;36,07205
 438,74; 6148,399;  274,067;16463,122;36,28583
 439,33; 6142,661;  249,683;16410,092;36,46552
 439,91; 6113,384;  217,450;16527,489;36,14911
 440,50; 6189,967;  264,835;16518,258;36,45467
 441,09; 6207,264;  270,832;16642,156;36,26116
 441,68; 6217,814;  245,445;16657,322;36,39052
 442,27; 6154,743;  230,908;16633,609;36,11500
 442,86; 6146,888;  205,057;16680,985;36,06371
 443,44; 6201,015;  221,288;16739,976;36,19977
 444,03; 6270,768;  301,826;16785,378;36,21150
 444,62; 6169,911;  224,441;16606,793;36,29192
 445,21; 6133,479;  230,442;16478,895;36,32984
 445,80; 6135,701;  261,747;16379,635;36,44370
 446,39; 6056,106;  281,055;16095,117;36,51845
 446,97; 5940,022;  220,128;15973,656;36,30865
 447,56; 5848,462;  225,126;15675,759;36,39551
 448,15; 5827,428;  227,205;15514,190;36,63393
 448,74; 5729,210;  236,128;15319,861;36,41726
 449,33; 5638,075;  225,588;15159,938;36,24187
 449,91; 5591,407;  221,893;14881,259;36,62856
 450,50; 5458,811;  218,893;14701,182;36,18156
 451,09; 5437,626;  228,662;14577,224;36,30303
 451,68; 5419,521;  246,815;14526,502;36,22423
 452,26; 5386,813;  243,891;14416,541;36,28765
 452,85; 5368,875;  232,045;14236,357;36,68035
 453,44; 5340,783;  249,734;14298,998;36,23712
 454,03; 5316,806;  215,659;14234,959;36,38660
 454,61; 5307,520;  215,426;14233,712;36,32466
 455,20; 5362,296;  237,194;14401,613;36,18293
 455,79; 5366,417;  247,196;14396,801;36,17925
 456,38; 5401,811;  239,115;14480,917;36,25030
 456,97; 5424,006;  231,885;14521,528;36,33485
 457,55; 5423,057;  217,114;14533,011;36,36477
 458,14; 5409,102;  253,039;14534,934;36,10209
 458,73; 5362,564;  238,575;14474,263;35,99396
 459,31; 5417,179;  268,650;14548,340;36,05491
 459,90; 5413,722;  266,190;14576,024;35,97199
 460,49; 5466,752;  332,190;14714,566;35,70037
 461,08; 5464,283;  225,418;14821,831;35,89145
 461,66; 5486,376;  233,881;14804,485;36,04858
 462,25; 5546,815;  237,571;14858,391;36,31290
 462,84; 5526,251;  271,341;14942,699;35,81748
 463,43; 5451,146;  203,107;14914,396;35,67355
 464,01; 5499,832;  227,875;14922,900;35,87580
 464,60; 5501,933;  289,108;14916,310;35,63788
 465,19; 5374,066;  203,644;14633,323;35,83186
 465,77; 5381,281;  234,488;14644,208;35,71751
 466,36; 5376,234;  253,876;14500,596;35,95465
 466,95; 5223,005;  235,491;14160,297;35,81747
 467,53; 5111,353;  231,256;13904,259;35,69148
 468,12; 5001,333;  264,718;13623,195;35,45775
 468,71; 4918,057;  232,643;13386,361;35,62045
 469,29; 4772,126;  209,102;13108,374;35,37427
 469,88; 4733,493;  221,793;12873,810;35,65993
 470,47; 4760,151;  281,329;13000,088;35,21430
 471,06; 4747,119;  237,022;12947,067;35,48451
 471,64; 4760,479;  233,792;13032,571;35,36812
 472,23; 4724,213;  217,710;13049,729;35,11920
 472,81; 4751,116;  210,405;13158,182;35,06942
 473,40; 4789,147;  228,710;13282,644;34,93535
 473,99; 4953,093;  320,172;13507,891;35,13057
 474,57; 4918,334;  231,864;13569,434;35,13736
 475,16; 4944,118;  244,173;13707,849;34,90833
 475,75; 5016,847;  246,093;13878,533;34,99560
 476,33; 5020,536;  249,861;13953,439;34,81335
 476,92; 5006,160;  256,018;14004,336;34,55072
 477,51; 5060,203;  251,939;14140,131;34,62124
 478,09; 5020,478;  247,631;14150,857;34,32906
 478,68; 5041,712;  258,938;14016,819;34,76388
 479,27; 5081,111;  283,401;14136,618;34,63246
 479,85; 4987,832;  253,092;14043,426;34,33376
 480,44; 5000,231;  230,937;14183,015;34,18340
 481,02; 5454,062;  256,397;15469,503;34,16571
 481,61; 6206,620;  276,706;17579,866;34,27070
 482,20; 6596,656;  254,936;18794,122;34,20711
 482,78; 6850,208;  289,553;19617,836;33,94329
 483,37; 7052,623;  275,010;20203,289;34,01002
 483,95; 7165,779;  300,395;20526,956;33,94242
 484,54; 7242,729;  310,629;20749,998;33,91543
 485,13; 7138,414;  271,931;20638,075;33,71518
 485,71; 7041,257;  248,932;20437,114;33,64506
 486,30; 6964,686;  292,932;20118,225;33,65274
 486,88; 6915,974;  339,393;19756,357;33,87028
 487,47; 6626,569;  305,469;18999,951;33,81265
 488,05; 6279,441;  299,930;18136,204;33,52444
 488,64; 5865,230;  282,236;16822,511;33,75393
 489,23; 5259,685;  309,545;14968,763;33,76811
 489,81; 4520,919;  293,544;12807,451;33,78141
 490,40; 4240,832;  247,698;12153,204;33,54023
 490,98; 4126,682;  242,851;11883,187;33,36528
 491,57; 4106,774;  268,775;11811,644;33,24996
 492,15; 4072,683;  249,774;11741,426;33,26684
 492,74; 4017,530;  269,622;11602,755;33,07036
 493,32; 4006,835;  278,159;11485,375;33,27032
 493,91; 3951,654;  253,927;11425,618;33,09908
 494,50; 3929,427;  258,078;11390,601;32,97859
 495,08; 3895,503;  238,001;11299,943;33,06383
 495,67; 3887,071;  266,389;11347,058;32,67566
 496,25; 3828,562;  210,002;11181,105;32,98265
 496,84; 3800,620;  223,158;11147,524;32,74754
 497,42; 3798,499;  213,232;11127,631;32,84896
 498,01; 3767,182;  252,004;11103,571;32,39327
 498,59; 3700,621;  216,232;11009,652;32,28253
 499,18; 3700,392;  219,850;10958,695;32,41076
 499,76; 3687,541;  243,310;10887,110;32,35903
 500,35; 3627,079;  235,923;10681,110;32,46621
 500,93; 3546,378;  225,617;10649,729;31,85653
 501,52; 3507,797;  227,463;10557,033;31,75673
 502,10; 3540,975;  229,922;10562,332;32,04531
 502,69; 3471,079;  226,536;10390,879;31,92083
 503,27; 3391,548;  213,308;10160,811;31,95013
 503,86; 3369,296;  226,690;10117,319;31,77357
 504,44; 3288,587;  198,920; 9980,832;31,58551
 505,03; 3190,136;  189,612; 9763,187;31,34173
 505,61; 3157,453;  214,305; 9626,644;31,26904
 506,19; 3104,960;  228,305; 9506,148;31,00564
 506,78; 3011,553;  197,995; 9318,823;30,84761
 507,36; 3003,960;  202,305; 9169,435;31,24361
 507,95; 2941,129;  206,609; 8967,935;31,21126
 508,53; 2887,102;  200,457; 8839,080;31,10039
 509,12; 2845,688;  219,917; 8732,153;30,84702
 509,70; 2811,240;  233,301; 8577,503;30,89497
 510,29; 2747,772;  242,531; 8439,392;30,56342
 510,87; 2647,695;  205,533; 8183,986;30,60947
 511,46; 2603,961;  189,533; 8086,332;30,57477
 512,04; 2590,033;  205,686; 7932,627;30,85758
 512,62; 2548,852;  209,918; 7792,058;30,84794
 513,21; 2475,817;  196,454; 7627,370;30,67405
 513,79; 2415,866;  203,297; 7534,648;30,17955
 514,38; 2345,784;  191,990; 7356,845;30,06053
 514,96; 2345,178;  225,683; 7260,366;30,12922
 515,54; 2303,731;  189,990; 7101,935;30,58099
 516,13; 2268,754;  216,759; 7077,247;29,91034
 516,71; 2200,168;  199,219; 6900,285;29,86015
 517,30; 2136,855;  189,602; 6777,909;29,55619
 517,88; 2124,755;  217,833; 6696,640;29,43323
 518,46; 2089,879;  189,756; 6589,999;29,68830
 519,05; 2068,917;  202,139; 6529,725;29,50221
 519,63; 2049,068;  208,063; 6461,883;29,43809
 520,22; 2030,353;  236,291; 6396,901;29,12150
 520,80; 1989,563;  208,599; 6356,563;28,96835
 521,38; 2022,885;  249,677; 6324,495;29,18948
 521,97; 1946,139;  209,598; 6288,674;28,56587
 522,55; 1950,952;  221,444; 6249,687;28,69008
 523,13; 1920,384;  193,905; 6226,473;28,61931
 523,72; 1888,395;  201,756; 6181,499;28,20589
 524,30; 1947,114;  226,366; 6308,794;28,29048
 524,89; 1920,118;  189,905; 6273,875;28,43887
 525,47; 1950,951;  223,134; 6436,029;27,81017
 526,05; 1926,524;  185,826; 6496,311;27,58421
 526,64; 1969,548;  235,903; 6544,114;27,48236
 527,22; 1990,819;  223,904; 6686,717;27,33972
 527,80; 2035,724;  252,441; 6790,704;27,27456
 528,39; 2008,024;  215,440; 6899,738;26,81783
 528,97; 2035,648;  217,518; 7022,426;26,71793
 529,55; 2090,175;  229,520; 7231,490;26,57331
 530,14; 2147,071;  228,209; 7420,922;26,67786
 530,72; 2128,077;  213,672; 7478,076;26,35324
 531,30; 2135,203;  183,747; 7650,123;26,13659
 531,89; 2186,258;  206,363; 7726,644;26,32741
 532,47; 2224,426;  243,593; 7835,225;26,09231
 533,05; 2214,218;  239,903; 7874,131;25,86136
 533,63; 2244,954;  234,747; 7890,418;26,25776
 534,22; 2216,372;  205,131; 7928,713;26,04026
 534,80; 2251,687;  238,822; 8044,909;25,78584
 535,38; 2342,754;  320,516; 8141,619;25,85617
 535,97; 2227,184;  210,516; 8068,277;25,66467
 536,55; 2279,061;  273,514; 8157,157;25,43935
 537,13; 2240,071;  276,440; 8150,866;24,93681
 537,71; 2289,169;  310,132; 8166,896;25,18895
 538,30; 2300,474;  325,669; 8256,648;24,89988
 538,88; 2302,924;  354,052; 8327,755;24,44124
 539,46; 2403,500;  408,899; 8514,845;24,60664
 540,05; 2365,932;  403,975; 8620,114;23,87931
 540,63; 2460,779;  457,975; 8814,059;23,96821
 541,21; 2473,574;  482,589; 8956,486;23,49551
 541,79; 2503,399;  507,436; 9126,469;23,15762
 542,38; 2528,569;  539,360; 9204,913;22,95536
 542,96; 2573,360;  556,588; 9376,337;22,86655
 543,54; 2631,222;  570,282; 9579,255;22,87652
 544,12; 2632,686;  529,435; 9696,845;22,94269
 544,70; 2642,493;  511,204; 9855,285;22,80897
 545,29; 2696,932;  522,668; 9943,533;23,07924
 545,87; 2696,937;  520,743; 9958,777;23,05770
 546,45; 2621,546;  476,206; 9995,260;22,53733
 547,03; 2655,660;  450,282;10089,230;22,87986
 547,62; 2657,498;  417,974;10221,298;22,84454
 548,20; 2724,469;  428,819;10364,644;23,10478
 548,78; 2744,769;  388,124;10462,580;23,39228
 549,36; 2728,999;  369,740;10717,879;22,79887
 549,94; 2766,841;  330,820;10753,931;23,37134
 550,53; 2800,249;  327,432;11007,285;23,15403
 551,11; 2802,761;  309,508;11176,781;22,94277
 551,69; 2846,987;  320,355;11465,273;22,67071
 552,27; 2865,015;  271,818;11710,093;22,67123
 552,85; 2947,871;  280,585;12103,593;22,56013
 553,44; 2980,470;  286,663;12378,961;22,27705
 554,02; 3063,297;  300,124;12654,093;22,36668
 554,60; 3060,190;  233,585;12918,320;22,28352
 555,18; 3182,207;  265,355;13307,016;22,36565
 555,76; 3207,846;  260,893;13653,371;22,00454
 556,34; 3273,833;  275,430;13991,273;21,86088
 556,93; 3343,010;  262,201;14388,948;21,80834
 557,51; 3376,438;  232,891;14755,170;21,64637
 558,09; 3451,208;  265,740;15098,345;21,47612
 558,67; 3528,794;  261,429;15430,691;21,53938
 559,25; 3539,143;  270,968;15672,170;21,22026
 559,83; 3597,731;  237,582;16057,644;21,23980
 560,41; 3653,974;  243,199;16329,657;21,20277
 561,00; 3719,893;  255,967;16659,478;21,11698
 561,58; 3715,710;  238,584;16947,418;20,81010
 562,16; 3799,486;  242,969;17243,768;20,91970
 562,74; 3854,022;  223,508;17582,388;20,91445
 563,32; 3914,995;  210,043;18026,918;20,79462
 563,90; 3994,805;  249,583;18359,508;20,68050
 564,48; 4069,500;  249,200;18754,734;20,64409
 565,06; 4175,068;  242,506;19298,508;20,63687
 565,65; 4289,222;  246,888;19959,760;20,50606
 566,23; 4451,849;  296,736;20662,926;20,40201
 566,81; 4558,329;  245,660;21389,059;20,39724
 567,39; 4744,865;  256,197;22319,811;20,34421
 567,97; 4877,375;  266,198;22873,619;20,39674
 568,55; 5024,676;  280,582;23783,234;20,18536
 569,13; 5103,761;  243,813;24431,824;20,09238
 569,71; 5306,827;  243,893;25404,965;20,12209
 570,29; 5523,416;  278,893;26342,713;20,12185
 570,87; 5655,760;  285,354;27066,849;20,05267
 571,45; 5755,629;  267,198;27717,085;19,99436
 572,03; 5756,658;  235,274;28116,067;19,80354
 572,61; 5890,236;  222,274;28951,153;19,72914
 573,20; 6066,911;  257,430;29551,008;19,83193
 573,78; 6160,391;  243,890;30118,426;19,80449
 574,36; 6196,136;  262,505;30688,687;19,50173
 574,94; 6301,450;  321,427;31016,324;19,48214
 575,52; 6256,679;  249,810;31214,294;19,39922
 576,10; 6375,346;  303,887;31765,832;19,29778
 576,68; 6472,317;  298,581;32340,773;19,26752
 577,26; 6591,441;  307,963;33090,559;19,16712
 577,84; 6650,818;  313,198;33542,837;19,07219
 578,42; 6725,376;  358,965;33877,397;18,99376
 579,00; 6628,863;  313,197;33915,396;18,79539
 579,58; 6657,044;  358,042;34096,174;18,67027
 580,16; 6641,520;  308,195;34110,435;18,73641
 580,74; 6657,905;  316,195;34375,401;18,61967
 581,32; 6612,671;  322,273;34369,747;18,47537
 581,90; 6569,080;  329,272;34303,123;18,36650
 582,48; 6565,993;  328,272;34453,713;18,27880
 583,06; 6559,198;  318,273;34590,426;18,20990
 583,64; 6490,121;  324,889;34648,614;17,96201
 584,22; 6424,296;  342,040;34468,170;17,82287
 584,80; 6372,827;  336,965;34092,063;17,88133
 585,38; 6249,195;  355,353;33784,696;17,63075
 585,96; 6154,469;  315,735;33751,666;17,46245
 586,54; 6139,174;  348,733;33736,897;17,34280
 587,12; 6079,841;  309,118;33973,303;17,14202
 587,70; 6117,316;  337,812;34128,093;17,10404
 588,28; 6079,950;  313,272;34026,730;17,10497
 588,86; 6025,513;  321,502;34187,085;16,84309
 589,44; 5975,522;  299,423;34186,969;16,74981
 590,02; 5976,751;  309,347;34351,666;16,64811
 590,59; 5918,349;  284,964;34578,662;16,42688
 591,17; 5951,147;  303,729;34693,392;16,42185
 591,75; 5913,020;  278,884;34799,016;16,32131
 592,33; 5948,128;  308,962;35008,140;16,25158
 592,91; 5871,859;  255,499;35236,029;16,05567
 593,49; 5918,314;  267,883;35565,798;16,00783
 594,07; 5927,566;  287,883;35788,794;15,88603
 594,65; 5882,361;  300,271;35772,234;15,73663
 595,23; 5952,058;  283,270;36175,414;15,79395
 595,81; 5898,566;  296,116;36321,884;15,55123
 596,39; 5877,083;  287,423;36461,525;15,45210
 596,97; 5861,221;  275,576;36559,935;15,39409
 597,55; 5843,638;  274,194;36480,627;15,38247
 598,12; 5764,283;  245,497;36512,422;15,21713
 598,70; 5753,531;  245,191;36662,042;15,12580
 599,28; 5768,718;  283,268;36867,952;14,99384
 599,86; 5790,497;  254,499;36829,033;15,13621
 600,44; 5715,972;  241,883;36966,538;14,90576
 601,02; 5806,027;  294,496;36932,542;15,04319
 601,60; 5722,922;  272,500;36973,021;14,85108
 602,18; 5684,612;  247,113;36930,397;14,82283
 602,75; 5644,719;  250,654;37065,533;14,65186
 603,33; 5643,894;  264,960;37078,508;14,61129
 603,91; 5612,353;  243,035;37002,533;14,60661
 604,49; 5616,532;  282,883;37014,085;14,52076
 605,07; 5589,592;  284,884;37183,136;14,37658
 605,65; 5556,897;  295,267;37189,832;14,26126
 606,23; 5566,568;  350,041;37287,012;14,12278
 606,80; 5563,774;  384,885;37392,670;13,99405
 607,38; 5536,571;  421,958;37380,170;13,83891
 607,96; 5529,642;  461,808;37486,820;13,68759
 608,54; 5509,567;  524,959;37474,354;13,49036
 609,12; 5506,422;  539,270;37559,580;13,41737
 609,70; 5488,101;  571,960;37639,811;13,26255
 610,27; 5449,751;  564,655;37785,358;13,12467
 610,85; 5413,760;  585,114;37749,956;12,99251
 611,43; 5402,135;  582,806;37736,841;12,97121
 612,01; 5298,448;  548,577;37484,273;12,85984
 612,59; 5322,244;  556,806;37576,841;12,87259
 613,16; 5259,703;  524,194;37437,341;12,82879
 613,74; 5240,465;  490,268;37386,495;12,87448
 614,32; 5193,117;  458,882;37316,730;12,84458
 614,90; 5157,033;  435,038;37231,995;12,83257
 615,48; 5083,803;  373,040;36866,751;12,90843
 616,05; 5029,460;  343,348;36856,845;12,83392
 616,63; 4997,963;  365,733;36721,862;12,74126
 617,21; 4969,047;  348,193;36611,311;12,74257
 617,79; 4978,050;  343,885;36569,405;12,79254
 618,36; 4927,646;  342,807;36469,119;12,69114
 618,94; 4796,068;  295,886;36158,627;12,54835
 619,52; 4761,426;  312,425;35846,388;12,52042
 620,10; 4726,170;  292,039;35860,123;12,46660
 620,67; 4713,535;  298,349;35807,388;12,43398
 621,25; 4662,834;  324,807;35706,204;12,26076
 621,83; 4633,310;  303,117;35599,982;12,26793
 622,41; 4689,892;  359,501;35657,281;12,26817
 622,98; 4590,292;  317,503;35302,550;12,21319
 623,56; 4568,808;  318,272;35275,700;12,15918
 624,14; 4518,320;  306,191;35161,063;12,08476
 624,72; 4474,573;  301,424;35078,179;11,99982
 625,29; 4486,225;  285,810;35174,072;12,03962
 625,87; 4471,072;  332,731;35105,191;11,90120
 626,45; 4421,861;  287,042;34915,213;11,94062
 627,02; 4379,523;  292,346;34950,879;11,79270
 627,60; 4376,533;  271,267;34878,764;11,86236
 628,18; 4307,345;  258,270;34918,965;11,68204
 628,76; 4325,755;  265,041;34954,439;11,70592
 629,33; 4337,967;  292,963;34885,867;11,69316
 629,91; 4301,477;  276,962;34917,431;11,61796
 630,49; 4351,559;  291,117;35059,687;11,67848
 631,06; 4296,843;  289,195;35196,452;11,48085
 631,64; 4297,246;  288,888;35120,640;11,50777
 632,22; 4245,913;  248,811;35036,563;11,48997
 632,79; 4309,869;  282,427;35309,704;11,49802
 633,37; 4268,437;  252,577;35401,709;11,42520
 633,95; 4264,322;  262,657;35488,114;11,36015
 634,52; 4254,826;  246,578;35618,944;11,33158
 635,10; 4281,202;  264,039;35689,738;11,33968
 635,68; 4266,309;  264,504;35817,610;11,25585
 636,25; 4223,743;  248,351;35772,503;11,19067
 636,83; 4242,908;  228,964;35999,593;11,22134
 637,41; 4247,439;  249,273;36041,354;11,17053
 637,98; 4280,845;  283,504;36243,636;11,11604
 638,56; 4250,269;  264,044;36299,657;11,06190
 639,13; 4265,655;  242,349;36295,589;11,15935
 639,71; 4321,822;  312,810;36469,841;11,08778
 640,29; 4203,214;  224,194;36269,643;11,03890
 640,86; 4226,663;  241,348;36562,378;10,97247
 641,44; 4228,958;  240,810;36416,421;11,02441
 642,02; 4264,483;  268,117;36501,617;11,02948
 642,59; 4238,163;  241,117;36507,968;11,02121
 643,17; 4191,381;  242,656;36583,780;10,86572
 643,74; 4213,676;  243,425;36595,976;10,92152
 644,32; 4206,202;  270,809;36562,865;10,84367
 644,89; 4210,189;  263,963;36575,523;10,86769
 645,47; 4232,023;  266,886;36564,951;10,92382
 646,05; 4195,164;  263,502;36439,147;10,86826
 646,62; 4189,459;  248,117;36521,421;10,86568
 647,20; 4164,600;  254,732;36625,464;10,75004
 647,77; 4153,972;  233,271;36563,429;10,79186
 648,35; 4123,882;  230,886;36454,011;10,74727
 648,92; 4143,870;  254,040;36523,592;10,72478
 649,50; 4088,549;  220,886;36442,327;10,67783
 650,08; 4077,921;  220,886;36275,985;10,69761
 650,65; 4135,524;  236,039;36535,335;10,74259
 651,23; 4216,896;  213,193;37329,378;10,78694
 651,80; 4310,806;  217,193;38230,959;10,76876
 652,38; 4407,947;  230,809;38683,233;10,86313
 652,95; 4433,781;  216,885;39039,891;10,86185
 653,53; 4465,460;  243,116;39355,241;10,79549
 654,10; 4512,678;  269,347;39470,284;10,82457
 654,68; 4461,435;  215,885;39351,865;10,84820
 655,25; 4476,653;  215,577;39531,139;10,83814
 655,83; 4489,948;  211,654;39701,489;10,83391
 656,40; 4546,935;  262,347;39471,994;10,92738
 656,98; 4471,538;  218,116;39510,806;10,82497
 657,55; 4459,602;  228,039;39312,694;10,82666
 658,13; 4394,436;  223,423;38933,891;10,77490
 658,70; 4398,346;  250,500;38701,780;10,78728
 659,28; 4277,487;  231,192;37787,977;10,77381
 659,85; 4157,167;  247,962;36911,327;10,66243
 660,43; 4189,462;  245,577;37010,600;10,72727
 661,00; 4161,911;  217,038;37113,336;10,69178
 661,58; 4184,975;  226,808;37430,224;10,63926
 662,15; 4225,731;  214,038;37623,575;10,72372
 662,73; 4318,180;  296,269;37994,771;10,66862
 663,30; 4292,321;  233,346;38122,814;10,71267
 663,88; 4327,386;  238,115;38285,165;10,74793
 664,45; 4338,450;  221,192;38475,515;10,76286
 665,03; 4354,668;  225,192;38934,096;10,66803
 665,60; 4524,732;  315,961;39296,524;10,79710
 666,17; 4433,027;  231,730;39435,643;10,71652
 666,75; 4491,476;  237,884;39837,917;10,74139
 667,32; 4544,309;  257,422;40136,652;10,74967
 667,90; 4568,527;  248,576;40373,925;10,76614
 668,47; 4628,361;  254,268;40711,507;10,81164
 669,05; 4652,041;  238,422;41041,319;10,81692
 669,62; 4670,874;  215,268;41094,207;10,89951
 670,19; 4662,169;  207,576;41221,096;10,86128
 670,77; 4721,464;  225,191;41436,831;10,91020
 671,34; 4720,221;  222,653;41280,489;10,95423
 671,92; 4755,823;  223,268;41671,994;10,93533
 672,49; 4732,272;  249,114;41653,036;10,82786
 673,06; 4735,798;  180,576;41684,848;10,97531
 673,64; 4743,324;  209,037;41721,814;10,92263
 674,21; 4730,926;  198,806;41601,780;10,94636
 674,79; 4780,683;  237,498;41879,361;10,91014
 675,36; 4823,670;  243,345;41950,096;10,98222
 675,93; 4766,350;  207,883;41798,447;10,96034
 676,51; 4828,106;  233,883;41996,797;11,00072
 677,08; 4854,324;  238,267;42145,609;11,01491
 677,65; 4872,158;  227,344;42244,575;11,05454
 678,23; 4917,991;  235,806;42378,002;11,11044
 678,80; 4942,671;  226,344;42468,276;11,16504
 679,38; 4959,735;  215,421;42651,934;11,17979
 679,95; 5022,415;  226,498;42874,669;11,24530
 680,52; 5047,940;  226,806;43211,404;11,21596
 681,10; 5106,466;  242,344;43619,908;11,21345
 681,67; 5145,377;  240,652;43908,336;11,23193
 682,24; 5170,364;  205,882;43960,840;11,34610
 682,82; 5259,736;  215,113;44518,267;11,38660
 683,39; 5336,338;  261,805;44947,541;11,35605
 683,96; 5362,480;  228,113;45163,353;11,42615
 684,54; 5388,852;  214,882;45566,549;11,40855
 685,11; 5484,993;  261,574;45995,977;11,42120
 685,68; 5522,749;  220,343;46347,635;11,49516
 686,25; 5512,275;  209,574;46329,678;11,49759
 686,83; 5549,339;  224,266;46587,182;11,48563
 687,40; 5655,480;  205,805;46909,071;11,66872
 687,97; 5724,852;  262,882;47309,114;11,60979
 688,55; 5722,301;  212,266;47325,926;11,69520
 689,12; 5748,827;  191,728;47588,045;11,72475
 689,69; 5790,276;  201,497;47694,703;11,76753
 690,26; 5833,494;  218,035;47746,208;11,81501
 690,84; 5864,866;  217,112;48066,327;11,80323
 691,41; 5900,622;  228,343;48172,062;11,83112
 691,98; 5965,610;  228,189;48503,951;11,88468
 692,56; 5950,212;  220,650;48556,763;11,85358
 693,13; 6059,738;  276,573;48519,652;11,98755
 693,70; 6030,802;  239,343;48637,233;11,96635
 694,27; 6041,097;  216,419;48796,430;11,98987
 694,84; 6080,777;  213,189;48898,011;12,05219
 695,42; 6207,995;  261,650;49019,361;12,19570
 695,99; 6180,213;  217,727;49180,327;12,17763
 696,56; 6178,354;  216,496;49034,062;12,21253
 697,13; 6262,495;  232,650;49420,720;12,25876
 697,71; 6276,098;  209,727;49394,686;12,33379
 698,28; 6307,162;  217,727;49714,037;12,30281
 698,85; 6298,688;  199,727;49725,003;12,31485
 699,42; 6343,368;  202,342;49934,584;12,34818
 699,99; 6442,432;  240,803;50030,319;12,45569
 700,57; 6466,804;  232,342;50115,362;12,49816
 701,14; 6475,714;  206,573;50235,712;12,53098
 701,71; 6496,163;  232,803;50426,062;12,47849
 702,28; 6526,458;  229,034;50475,259;12,53313
 702,85; 6570,138;  224,495;50574,686;12,60301
 703,43; 6630,894;  251,342;50838,037;12,61113
 704,00; 6716,958;  245,726;50977,849;12,75569
 704,57; 6704,946;  235,188;51011,738;12,74163
 705,14; 6773,010;  252,880;51250,088;12,78527
 705,71; 6790,228;  259,880;51277,054;12,80029
 706,28; 6778,215;  231,880;51163,327;12,85323
 706,86; 6883,972;  260,187;51476,755;12,93289
 707,43; 6887,574;  289,957;51421,721;12,90317
 708,00; 6889,946;  259,803;51456,071;12,95044
 708,57; 6894,549;  234,956;51246,421;13,05509
 709,14; 6987,690;  261,879;51501,926;13,12608
 709,71; 7036,678;  241,572;51586,738;13,23417
 710,28; 7067,511;  236,418;51710,165;13,27102
 710,86; 7070,191;  244,725;51954,054;13,19968
 711,43; 7119,639;  267,495;51845,866;13,28492
 712,00; 7142,627;  249,494;51973,447;13,32677
 712,57; 7176,229;  261,802;52051,182;13,35105
 713,14; 7247,447;  234,417;52193,994;13,49709
 713,71; 7262,973;  246,802;52137,652;13,52102
 714,28; 7249,653;  235,033;52217,926;13,49409
 714,85; 7237,179;  221,110;51842,968;13,59128
 715,42; 7332,627;  225,417;52187,396;13,67771
 716,00; 7453,615;  300,033;52292,977;13,75876
 716,57; 7434,679;  233,263;52374,943;13,81125
 717,14; 7423,051;  211,725;52272,447;13,85176
 717,71; 7436,577;  212,725;52283,874;13,87304
 718,28; 7564,410;  265,955;52493,917;13,97423
 718,85; 7506,321;  204,955;52412,575;13,98525
 719,42; 7648,539;  241,878;52662,080;14,12940
 719,99; 7576,834;  219,571;52385,892;14,10347
 720,56; 7618,513;  243,417;52752,242;14,04544
 721,13; 7695,116;  217,032;52790,823;14,22398
 721,70; 7699,334;  203,724;52633,174;14,29656
 722,27; 7743,244;  232,186;52831,601;14,27974
 722,84; 7881,539;  288,493;52843,721;14,44775
 723,41; 7794,988;  208,032;52888,686;14,40179
 723,98; 7847,052;  221,570;53198,268;14,39403
 724,55; 7937,578;  256,724;53259,772;14,49134
 725,12; 7923,642;  181,185;53261,738;14,58624
 725,69; 8014,860;  208,570;53273,627;14,71079
 726,27; 8027,617;  221,570;53351,208;14,69245
 726,84; 8075,527;  233,031;53717,558;14,66311
 727,41; 8180,669;  241,262;53692,986;14,85342
 727,98; 8227,579;  235,493;53909,259;14,89012
 728,55; 8292,874;  274,339;53881,456;14,95797
 729,12; 8300,169;  209,185;54031,575;15,03275
 729,69; 8351,310;  235,339;54118,464;15,06218
 730,26; 8410,528;  239,108;54533,507;15,05021
 730,82; 8429,515;  229,569;54254,781;15,17800
 731,39; 8467,426;  229,031;54317,746;15,23126
 731,96; 8503,875;  214,800;54680,251;15,21896
 732,53; 8628,247;  236,185;54873,678;15,35953
 733,10; 8638,080;  243,031;54889,028;15,36261
 733,67; 8747,760;  236,184;55261,302;15,46853
 734,24; 8675,285;  217,031;54871,499;15,47587
 734,81; 8751,427;  259,492;54910,464;15,53849
 735,38; 8710,106;  232,954;54665,661;15,57364
 735,95; 8812,478;  228,107;54563,473;15,79886
 736,52; 8788,388;  236,723;54779,823;15,67873
 737,09; 8788,683;  248,646;54388,712;15,77397
 737,66; 8878,748;  286,030;54600,140;15,82041
 738,23; 8905,812;  226,030;54758,721;15,91666
 738,80; 9026,261;  307,722;55002,148;15,94045
 739,37; 9008,940;  261,645;55128,652;15,94272
 739,94; 9062,466;  236,953;55163,387;16,06788
 740,51; 9228,069;  366,338;55300,507;16,13155
 741,07; 9121,979;  233,722;55208,781;16,16780
 741,64; 9196,505;  273,107;55394,054;16,18876
 742,21; 9267,723;  238,722;55571,558;16,31762
 742,78; 9174,172;  213,030;55299,755;16,26734
 743,35; 9250,082;  232,183;55646,105;16,27371
 743,92; 9351,377;  280,876;55889,379;16,31136
 744,49; 9351,134;  273,183;55738,191;16,36699
 745,06; 9314,275;  230,568;55709,695;16,37320
 745,63; 9343,339;  223,029;55595,276;16,47090
 746,19; 9403,403;  227,183;55560,858;16,58343
 746,76; 9393,391;  236,798;55580,516;16,54495
 747,33; 9468,378;  243,183;55549,020;16,68033
 747,90; 9551,904;  263,798;55781,140;16,73010
 748,47; 9545,276;  240,875;55719,336;16,77119
 749,04; 9569,571;  244,567;55769,148;16,79437
 749,61; 9623,866;  279,183;55687,729;16,86506
 750,17; 9666,391;  265,413;55746,234;16,94455
 750,74; 9713,763;  251,875;55801,200;17,03331
 751,31; 9692,751;  232,413;55590,319;17,08941
 751,88; 9711,584;  216,336;55543,208;17,16209
 752,45; 9777,802;  231,490;55604,251;17,24009
 753,02; 9784,405;  260,413;55423,140;17,26527
 753,58; 9780,315;  232,490;55410,875;17,30356
 754,15; 9799,379;  219,028;55610,918;17,29558
 754,72; 9843,367;  230,028;55382,806;17,43038
 755,29; 9889,816;  221,721;55210,541;17,58193
 755,86; 9907,264;  253,490;55419,430;17,49952
 756,42; 9938,483;  251,336;55133,781;17,65072
 756,99; 9958,931;  215,182;55231,285;17,71072
 757,56; 9928,073;  229,874;55230,405;17,63292
 758,13; 9972,983;  179,951;55113,447;17,82707
 758,70;10134,586;  215,489;55279,875;18,01363
 759,26;10112,111;  202,643;55239,687;18,00509
 759,83;10183,945;  227,028;55372,883;18,05560
 760,40;10210,240;  210,566;55218,311;18,17866
 760,97;10191,689;  206,489;55244,353;18,14242
 761,53;10228,445;  185,643;54956,396;18,33607
 762,10;10217,279;  186,412;54850,362;18,35006
 762,67;10204,343;  214,489;54907,097;18,26546
 763,24;10231,330;  173,874;54437,601;18,53440
 763,80;10285,779;  207,797;54611,798;18,52434
 764,37;10249,228;  211,181;54580,148;18,46282
 764,94;10149,523;  197,258;54198,499;18,42970
 765,50;10220,279;  205,335;54206,695;18,54573
 766,07;10294,959;  237,489;54177,507;18,64566
 766,64;10218,331;  214,719;53884,319;18,63925
 767,21;10149,164;  213,873;53796,977;18,54184
 767,77;10267,767;  234,719;53682,943;18,77153
 768,34;10262,216;  223,950;53621,448;18,79913
 768,91;10272,588;  233,719;53493,260;18,84896
 769,47;10310,806;  232,488;53468,072;18,93154
 770,04;10321,332;  245,719;53389,037;18,95932
 770,61;10259,242;  219,180;53037,695;19,00860
 771,18;10305,383;  211,334;53017,969;19,11511
 771,74;10386,140;  226,873;53148,935;19,19666
 772,31;10365,742;  236,103;52924,131;19,22569
 772,88;10266,960;  205,796;52656,174;19,18225
 773,44;10249,409;  202,565;52564,832;19,18718
 774,01;10352,858;  233,796;52605,952;19,32145
 774,58;10288,999;  215,642;52376,456;19,31212
 775,14;10384,217;  208,411;52458,191;19,47531
 775,71;10355,589;  210,795;52348,926;19,45753
 776,27;10473,423;  273,641;52254,661;19,62213
 776,84;10519,564;  312,180;52286,243;19,63938
 777,41;10449,090;  226,411;52017,901;19,73814
 777,97;10399,615;  215,795;51779,713;19,74990
 778,54;10470,910;  231,641;52002,294;19,77813
 779,11;10529,436;  260,641;51813,490;19,91897
 779,67;10479,270;  216,487;51780,072;19,90316
 780,24;10441,872;  231,949;51504,576;19,91301
 780,80;10522,706;  235,949;51658,234;20,00447
 781,37;10555,539;  237,795;51581,200;20,09556
 781,94;10470,757;  230,948;51445,858;19,99380
 782,50;10510,898;  228,179;51259,670;20,14975
 783,07;10609,424;  257,564;51261,097;20,29636
 783,63;10560,950;  221,871;51107,909;20,31810
 784,20;10600,937;  248,179;51014,798;20,39285
 784,77;10560,078;  232,410;50773,302;20,43428
 785,33;10525,989;  210,102;50667,037;20,44493
 785,90;10593,745;  228,102;50623,926;20,56846
 786,46;10614,425;  256,102;50497,815;20,61698
 787,03;10570,489;  228,102;50236,243;20,68141
 787,59;10513,784;  232,563;50226,978;20,56474
 788,16;10609,771;  235,871;50217,020;20,75563
 788,73;10593,990;  236,409;50094,217;20,77424
 789,29;10552,515;  230,640;49793,875;20,82567
 789,86;10541,041;  258,178;49607,226;20,83700
 790,42;10567,336;  238,101;49520,038;20,95947
 790,99;10511,939;  241,871;49234,388;20,96252
 791,55;10557,926;  233,255;49198,969;21,08551
 792,12;10610,067;  270,794;49232,320;21,11714
 792,68;10595,439;  239,178;48915,901;21,27559
 793,25;10552,273;  249,409;48664,020;21,28048
 793,81;10519,029;  318,486;48265,909;21,27443
 794,38;10422,940;  209,870;48136,952;21,30960
 794,94;10444,465;  239,870;48136,610;21,30541
 795,51;10373,145;  243,255;47862,730;21,27258
 796,07;10402,901;  234,101;47650,696;21,44566
 796,64;10454,350;  262,870;47746,046;21,46335
 797,20;10350,568;  246,178;47193,089;21,52301
 797,77;10323,017;  215,408;46881,670;21,65935
 798,33;10297,774;  244,177;46734,251;21,62525
 798,90;10321,223;  251,485;46698,063;21,68026
 799,46;10226,979;  221,947;46181,798;21,76907
 800,03;10300,120;  244,100;46101,918;21,92869
 800,59;10225,031;  259,254;45974,191;21,79983
 801,15;10180,941;  253,023;45733,850;21,82880
 801,72;10145,467;  240,946;45340,585;21,96142
 802,28;10127,454;  267,946;45057,089;22,01316
 802,85;10070,672;  238,254;44917,132;22,00686
 803,41;10072,198;  228,562;44717,636;22,12596
 803,98;10005,416;  231,946;44265,909;22,19530
 804,54; 9968,711;  234,331;44154,568;22,16377
 805,11; 9956,929;  247,715;43862,841;22,26112
 805,67; 9974,609;  262,254;43846,653;22,28402
 806,23; 9839,288;  249,177;43371,003;22,23958
 806,80; 9802,968;  260,023;43244,277;22,20103
 807,36; 9833,724;  258,253;43238,243;22,27890
 807,93; 9817,558;  267,176;43079,055;22,30778
 808,49; 9707,314;  233,561;42628,559;22,34639
 809,05; 9738,379;  231,561;42517,909;22,48200
 809,62; 9738,597;  264,407;42372,183;22,49986
 810,18; 9753,815;  250,638;42348,149;22,57420
 810,74; 9660,879;  218,022;41992,576;22,60433
 811,31; 9686,636;  227,407;41870,234;22,71515
 811,87; 9692,931;  254,330;41773,046;22,73336
 812,44; 9714,456;  268,176;41687,781;22,80630
 813,00; 9598,136;  204,637;41421,439;22,79046
 813,56; 9714,354;  255,176;41486,559;22,94169
 814,13; 9680,880;  234,945;41479,140;22,90246
 814,69; 9696,790;  243,099;41172,414;23,09760
 815,25; 9574,008;  209,022;40779,533;23,08323
 815,82; 9680,149;  260,637;40770,038;23,25266
 816,38; 9624,829;  289,637;40586,696;23,16594
 816,94; 9510,662;  226,637;40272,969;23,18321
 817,51; 9502,650;  220,637;40085,166;23,28389
 818,07; 9453,791;  221,022;39734,670;23,36603
 818,63; 9446,470;  234,021;39568,482;23,42081
 819,20; 9451,996;  245,329;39580,525;23,40567
 819,76; 9355,137;  223,483;39195,260;23,43146
 820,32; 9426,817;  248,252;39074,764;23,63994
 820,89; 9313,881;  247,021;38918,807;23,44567
 821,45; 9227,638;  217,406;38530,927;23,51711
 822,01; 9260,548;  252,867;38313,739;23,66651
 822,57; 9246,228;  252,559;38158,628;23,72620
 823,14; 9167,830;  216,867;37916,132;23,74307
 823,70; 9176,818;  220,021;37639,482;23,93620
 824,26; 9075,497;  219,482;37478,602;23,76872
 824,82; 9113,254;  256,867;37394,875;23,84723
 825,39; 9020,780;  228,251;37042,534;23,88347
 825,95; 9045,382;  238,328;37083,730;23,90272
 826,51; 8997,985;  239,790;36697,234;24,02306
 827,08; 9048,742;  270,251;36758,662;24,05830
 827,64; 9026,113;  252,097;36598,781;24,13980
 828,20; 8959,639;  214,867;36265,901;24,25665
 828,76; 8994,319;  253,866;36258,636;24,27582
 829,32; 9006,845;  261,251;36200,987;24,33405
 829,89; 8917,370;  209,789;35935,106;24,37370
 830,45; 8958,512;  237,482;36000,687;24,38548
 831,01; 8912,960;  232,712;35591,269;24,54921
 831,57; 8922,409;  240,328;35661,388;24,51107
 832,14; 8917,858;  221,020;35632,585;24,55932
 832,70; 8850,153;  219,558;35308,551;24,59630
 833,26; 8855,910;  199,020;35184,824;24,74401
 833,82; 8858,281;  229,404;35104,636;24,74214
 834,38; 8909,423;  222,558;35095,140;24,91030
 834,95; 8895,795;  213,635;35052,260;24,92107
 835,51; 8852,474;  190,635;34868,072;24,97831
 836,07; 8918,308;  234,173;34910,423;25,04346
 836,63; 8918,449;  244,866;34946,158;24,99499
 837,19; 8905,590;  234,558;34790,893;25,09245
 837,75; 8809,116;  204,481;34431,166;25,14013
 838,32; 8906,334;  244,942;34548,901;25,24896
 838,88; 8894,167;  241,481;34645,175;25,15046
 839,44; 8923,462;  248,865;34467,987;25,35015
 840,00; 8898,450;  241,404;34451,337;25,30565
 840,56; 8849,283;  222,404;34168,149;25,41373
 841,12; 8907,732;  218,634;34182,961;25,58301
 841,68; 8844,488;  196,173;33923,004;25,64224
 842,25; 8887,399;  232,557;33917,970;25,69314
 842,81; 8792,694;  204,942;33732,782;25,61379
 843,37; 8894,219;  200,634;33731,594;25,92704
 843,93; 8846,284;  227,557;33568,329;25,85041
 844,49; 8886,963;  237,788;33657,910;25,88014
 845,05; 8823,335;  187,557;33455,260;25,95844
 845,61; 8951,246;  245,095;33466,918;26,20612
 846,17; 8829,156;  222,172;33305,653;26,01596
 846,73; 8910,836;  230,634;33273,542;26,26948
 847,29; 8814,131;  211,326;33127,123;26,13579
 847,86; 8878,656;  210,249;33033,859;26,40906
 848,42; 8858,490;  223,095;32902,594;26,42450
 848,98; 8813,862;  228,403;32852,098;26,31664
 849,54; 8828,080;  214,633;32873,756;26,37378
 850,10; 8849,529;  232,403;32833,183;26,43227
 850,66; 8836,208;  212,326;32636,534;26,59705
 851,22; 8759,426;  196,864;32571,269;26,44856
 851,78; 8868,337;  250,018;32602,235;26,63904
 852,34; 8775,862;  232,710;32403,047;26,55599
 852,90; 8803,850;  216,556;32242,782;26,81332
 853,46; 8736,145;  213,402;32069,671;26,75374
 854,02; 8728,901;  231,787;32082,329;26,67808
 854,58; 8753,812;  227,171;31738,910;27,05862
 855,14; 8728,107;  217,941;31687,953;27,04214
 855,70; 8666,171;  177,633;31580,226;27,03133
 856,26; 8669,697;  226,171;31551,500;26,95431
 856,82; 8658,684;  220,633;31325,773;27,12751
 857,38; 8652,056;  247,940;31349,508;27,02152
 857,94; 8634,274;  217,786;31077,320;27,27354
 858,50; 8684,031;  258,940;31058,594;27,35450
 859,06; 8577,095;  215,479;30823,713;27,31819
 859,62; 8652,851;  231,709;30848,525;27,50496
 860,18; 8606,454;  224,786;30541,876;27,64668
 860,74; 8554,210;  197,325;30524,072;27,55616
 861,30; 8521,582;  191,171;30301,807;27,66601
 861,86; 8623,339;  272,632;30376,235;27,73989
 862,42; 8508,249;  219,709;30222,431;27,62596
 862,98; 8580,390;  257,247;30116,705;27,87439
 863,54; 8498,070;  222,170;29941,901;27,84648
 864,10; 8524,827;  223,093;30022,636;27,85859
 864,66; 8452,814;  204,016;29791,295;27,87954
 865,22; 8480,109;  215,939;29593,491;28,13090
 865,78; 8400,481;  222,862;29471,842;27,95865
 866,34; 8423,930;  213,170;29417,038;28,11532
 866,90; 8430,455;  236,555;29302,158;28,19106
 867,45; 8400,212;  230,785;29035,970;28,36096
 868,01; 8357,430;  229,324;28878,936;28,37074
 868,57; 8315,802;  217,862;28688,363;28,44326
 869,13; 8314,405;  205,708;28673,560;28,48370
 869,69; 8297,315;  214,400;28441,756;28,63504
 870,25; 8226,379;  186,785;28315,337;28,58161
 870,81; 8256,136;  220,400;28380,765;28,53562
 871,37; 8265,892;  230,862;28330,577;28,59470
 871,93; 8268,880;  238,939;28173,081;28,74597
 872,49; 8184,328;  262,246;27799,893;28,76819
 873,04; 8111,547;  205,477;27732,782;28,72083
 873,60; 8110,149;  205,708;27540,440;28,91721
 874,16; 8082,983;  232,400;27473,483;28,81891
 874,72; 8055,213;  212,938;27433,175;28,81046
 875,28; 8101,060;  219,708;27361,713;29,03747
 875,84; 8093,598;  230,246;27350,483;28,99441
 876,40; 8134,521;  211,631;27344,867;29,19995
 876,95; 8139,290;  223,323;27303,098;29,23203
 877,51; 8169,675;  246,323;27297,637;29,29008
 878,07; 8225,290;  263,400;27292,483;29,45675
 878,63; 8189,060;  222,169;27272,867;29,45170
 879,19; 8231,367;  240,400;27318,867;29,51041
 879,75; 8206,906;  207,554;27394,790;29,42319
 880,30; 8262,675;  226,554;27456,252;29,51234
 880,86; 8309,598;  267,246;27557,790;29,46937
 881,42; 8308,444;  217,938;27581,175;29,56706
 881,98; 8365,521;  227,785;27704,867;29,61645
 882,54; 8371,444;  216,246;27817,637;29,54633
 883,09; 8472,598;  237,400;27976,790;29,68774
 883,65; 8457,598;  203,169;28121,944;29,56587
 884,21; 8560,598;  251,323;28417,021;29,50140
 884,77; 8610,290;  211,631;28439,637;29,75293
 885,32; 8645,906;  221,938;28643,483;29,63937
 885,88; 8715,367;  263,323;28852,944;29,56333
 886,44; 8764,290;  227,015;28875,021;29,80059
 887,00; 8830,290;  250,477;28933,944;29,91205
 887,56; 8890,983;  225,323;29002,329;30,11314
 888,11; 8902,906;  221,785;29072,483;30,08981
 888,67; 8959,752;  256,785;29292,867;29,97294
 889,23; 8990,213;  226,015;29292,867;30,15187
 889,79; 9001,137;  210,323;29163,252;30,36243
 890,34; 8986,752;  231,862;29147,252;30,27761
 890,90; 9071,752;  299,554;29313,098;30,23484
 891,46; 8981,367;  230,477;29165,790;30,24294
 892,01; 8996,367;  241,631;29178,713;30,25439
 892,57; 9034,060;  246,785;29092,252;30,46328
 893,13; 8943,752;  211,400;28971,021;30,36324
 893,69; 8949,213;  202,631;28899,713;30,47900
 894,24; 8900,060;  230,400;28829,175;30,31479
 894,80; 8901,983;  234,169;28582,867;30,57570
 895,36; 8837,367;  226,477;28442,175;30,51808
 895,91; 8828,521;  225,169;28280,560;30,66559
 896,47; 8831,290;  242,708;28191,329;30,72990
 897,03; 8735,829;  219,092;27945,252;30,71733
 897,58; 8681,675;  244,246;27851,483;30,56238
 898,14; 8675,213;  234,708;27640,483;30,79827
 898,70; 8609,829;  202,092;27523,637;30,77328
 899,25; 8650,521;  230,785;27537,021;30,83448
 899,81; 8587,752;  245,477;27311,175;30,82232
 900,37; 8508,598;  209,785;27044,790;30,92533
 900,92; 8580,829;  231,938;27062,560;31,11702
 901,48; 8525,060;  212,477;26888,790;31,16091
 902,03; 8484,983;  222,477;26758,098;31,13741
 902,59; 8448,060;  225,477;26678,944;31,08319
 903,15; 8441,983;  239,477;26485,560;31,25230
 903,70; 8380,213;  227,477;26196,021;31,39466
 904,26; 8345,906;  227,400;26080,175;31,40284
 904,82; 8407,213;  229,938;26143,560;31,55589
 905,37; 8349,906;  234,708;26013,175;31,48053
 905,93; 8294,983;  210,631;25805,867;31,58538
 906,48; 8298,598;  231,708;25697,175;31,67776
 907,04; 8305,290;  239,785;25643,637;31,74914
 907,60; 8246,444;  240,708;25437,021;31,77344
 908,15; 8193,060;  218,554;25329,021;31,75770
 908,71; 8202,367;  249,246;25351,021;31,68350
 909,26; 8159,675;  223,938;25228,867;31,73669
 909,82; 8167,598;  235,169;25071,637;31,93864
 910,37; 8176,983;  273,015;25014,175;31,94663
 910,93; 8043,213;  216,631;24674,021;32,00089
 911,48; 8069,906;  212,785;24616,867;32,19593
 912,04; 8020,983;  213,631;24466,637;32,19128
 912,60; 8043,829;  231,938;24515,560;32,16938
 913,15; 7991,060;  239,092;24347,329;32,15485
 913,71; 7954,213;  215,092;24093,252;32,41088
 914,26; 7921,444;  190,938;24063,406;32,38252
 914,82; 7908,906;  229,785;23958,329;32,36238
 915,37; 7901,829;  214,323;23861,329;32,50943
 915,93; 7928,906;  270,169;23812,637;32,53158
 916,48; 7841,521;  216,938;23582,560;32,63163
 917,04; 7858,598;  237,169;23521,021;32,73268
 917,59; 7855,367;  257,631;23477,713;32,72054
 918,15; 7769,213;  197,323;23245,021;32,85313
 918,70; 7737,213;  219,092;23222,175;32,68310
 919,26; 7796,290;  236,862;23058,560;33,12387
 919,81; 7677,444;  207,862;22928,175;32,87623
 920,37; 7697,367;  218,938;22839,483;33,06034
 920,92; 7712,598;  261,400;22781,021;33,08758
 921,48; 7663,213;  199,785;22525,637;33,42954
 922,03; 7665,906;  205,477;22530,098;33,41794
 922,59; 7612,906;  225,246;22402,483;33,31190
 923,14; 7571,213;  224,785;22233,406;33,37978
 923,69; 7584,906;  250,015;22170,252;33,46173
 924,25; 7549,213;  245,938;22132,098;33,36938
 924,80; 7429,829;  219,862;21961,790;33,16158
 925,36; 7447,906;  207,631;21846,406;33,45973
 925,91; 7378,290;  224,015;21753,175;33,23063
 926,47; 7361,906;  202,323;21673,637;33,34488
 927,02; 7419,521;  285,862;21626,944;33,42689
 927,57; 7308,829;  214,092;21334,329;33,59213
 928,13; 7222,983;  210,092;21322,713;33,21658
 928,68; 7267,675;  229,092;21243,560;33,49399
 929,24; 7190,598;  191,092;21028,867;33,59047
 929,79; 7169,983;  206,323;20950,252;33,56963
 930,34; 7169,367;  220,477;20785,021;33,79064
 930,90; 7103,367;  214,015;20762,790;33,52683
 931,45; 7096,290;  226,554;20754,021;33,46607
 932,01; 7102,829;  234,785;20661,098;33,62351
 932,56; 7072,444;  246,246;20478,175;33,73973
 933,11; 7125,213;  252,169;20502,867;33,93979
 933,67; 7015,290;  219,092;20311,867;33,82409
 934,22; 7019,290;  216,477;20255,790;33,94734
 934,77; 7003,675;  252,708;20143,560;33,94006
 935,33; 6952,290;  227,092;20010,944;33,99337
 935,88; 6965,598;  235,862;19929,021;34,17296
 936,43; 6862,444;  227,862;19856,175;33,80108
 936,99; 6938,906;  232,554;19695,560;34,45692
 937,54; 6846,213;  212,169;19608,867;34,20193
 938,09; 6891,367;  239,554;19555,637;34,43666
 938,65; 6817,752;  232,400;19423,175;34,31520
 939,20; 6831,444;  206,323;19300,175;34,69767
 939,75; 6761,752;  204,323;19170,329;34,57464
 940,31; 6809,060;  211,246;19116,713;34,89897
 940,86; 6740,137;  227,015;19065,944;34,57267
 941,41; 6797,444;  313,400;19135,406;34,44927
 941,96; 6714,829;  210,477;18889,329;34,82201
 942,52; 6711,521;  217,631;18806,790;34,93375
 943,07; 6645,829;  201,785;18710,637;34,81601
 943,62; 6619,367;  212,477;18644,637;34,75930
 944,18; 6573,598;  203,323;18555,406;34,71146
 944,73; 6588,598;  220,477;18409,175;35,01142
 945,28; 6497,829;  191,554;18242,944;34,93512
 945,83; 6527,367;  207,323;18343,175;34,84834
 946,39; 6481,906;  213,246;18264,790;34,72645
 946,94; 6505,675;  245,246;18136,175;34,99220
 947,49; 6467,137;  209,169;18047,329;35,08191
 948,04; 6527,521;  256,554;17943,329;35,45569
 948,59; 6431,060;  240,169;17960,867;34,93593
 949,15; 6389,829;  203,400;17842,867;35,07152
 949,70; 6398,752;  214,092;17716,252;35,33655
 950,25; 6403,521;  239,169;17592,329;35,52294
 950,80; 6345,752;  185,323;17440,483;35,70195
 951,36; 6305,829;  193,015;17370,175;35,58687
 951,91; 6350,367;  233,477;17399,098;35,63454
 952,46; 6265,598;  199,554;17230,098;35,61862
 953,01; 6318,060;  226,631;17255,406;35,77139
 953,56; 6256,137;  195,169;17099,021;35,85554
 954,11; 6298,367;  222,554;17028,406;36,15296
 954,67; 6252,137;  214,862;16967,560;36,03763
 955,22; 6172,367;  200,015;16814,560;35,94653
 955,77; 6211,290;  248,400;16765,560;36,10119
 956,32; 6215,290;  270,400;16704,406;36,17432
 956,87; 6125,829;  207,092;16558,944;36,19612
 957,42; 6115,060;  215,631;16537,944;36,14334
 957,98; 6103,290;  208,554;16381,713;36,44765
 958,53; 6120,521;  245,938;16348,790;36,48163
 959,08; 6076,906;  204,708;16229,175;36,64520
 959,63; 6059,290;  212,246;16089,483;36,82659
 960,18; 6027,290;  223,708;16043,560;36,68544
 960,73; 6004,290;  225,169;16017,560;36,59434
 961,28; 5919,598;  193,554;15881,175;36,50040
 961,83; 5973,367;  243,323;15852,098;36,71040
 962,39; 5899,829;  196,938;15762,329;36,63827
 962,94; 5873,906;  235,400;15630,944;36,62427
 963,49; 5852,290;  215,785;15523,713;36,82083
 964,04; 5853,290;  235,785;15473,329;36,86621
 964,59; 5752,290;  194,015;15376,175;36,61057
 965,14; 5812,983;  239,554;15334,713;36,92196
 965,69; 5770,829;  219,015;15295,098;36,82531
 966,24; 5701,829;  206,631;15172,560;36,71806
 966,79; 5734,521;  224,323;15031,790;37,21229
 967,34; 5677,598;  190,169;14944,867;37,19106
 967,89; 5665,213;  216,400;14881,867;37,15404
 968,44; 5630,060;  218,400;14821,252;37,05892
 968,99; 5581,906;  226,862;14712,790;36,96721
 969,55; 5592,060;  218,554;14667,406;37,18985
 970,10; 5586,906;  226,708;14514,637;37,51557
 970,65; 5541,290;  239,092;14459,329;37,28629
 971,20; 5473,829;  211,631;14306,867;37,33317
 971,75; 5466,906;  197,169;14216,021;37,59036
 972,30; 5438,137;  219,092;14145,175;37,47676
 972,85; 5400,444;  204,554;14088,021;37,42502
 973,40; 5365,983;  203,708;13950,560;37,55242
 973,95; 5428,675;  227,554;13891,406;38,06482
 974,50; 5431,521;  248,323;13904,406;37,95523
 975,05; 5376,752;  211,785;13704,483;38,27972
 975,60; 5364,598;  228,862;13682,175;38,17451
 976,15; 5301,290;  212,477;13600,944;38,00893
 976,70; 5244,675;  226,862;13493,637;37,82241
 977,25; 5256,367;  235,246;13457,867;37,97372
 977,80; 5185,675;  208,554;13293,098;38,03817
 978,35; 5159,521;  234,708;13092,175;38,30314
 978,89; 5101,521;  201,169;13054,560;38,12498
 979,44; 5097,521;  223,862;13040,021;38,02746
 979,99; 4999,983;  212,169;12829,867;37,94522
 980,54; 5007,060;  246,785;12840,637;37,79840
 981,09; 5045,367;  242,938;12647,713;38,71436
 981,64; 4958,983;  228,708;12520,406;38,48349
 982,19; 5029,137;  270,246;12500,713;38,91013
 982,74; 4936,290;  234,477;12373,713;38,73237
 983,29; 4843,906;  200,092;12258,944;38,50958
 983,84; 4814,752;  232,554;12145,329;38,46457
 984,39; 4871,290;  298,862;12130,406;38,64609
 984,94; 4715,060;  205,323;11949,867;38,39857
 985,49; 4760,290;  245,862;11916,483;38,68199
 986,03; 4718,060;  243,015;11837,252;38,59714
 986,58; 4699,829;  282,477;11682,944;38,74711
 987,13; 4641,060;  212,015;11573,252;38,98382
 987,68; 4600,983;  241,554;11430,098;38,96332
 988,23; 4576,213;  243,477;11445,406;38,67849
 988,78; 4522,521;  210,400;11289,560;38,92101
 989,33; 4518,675;  248,477;11125,483;39,25895
 989,88; 4492,060;  258,169;11165,790;38,81589
 990,42; 4460,675;  230,708;10973,713;39,37415
 990,97; 4411,290;  213,092;10828,329;39,54879
 991,52; 4395,983;  241,246;10779,329;39,42592
 992,07; 4366,598;  258,631;10725,790;39,24625
 992,62; 4319,060;  235,554;10580,175;39,47468
 993,17; 4277,675;  240,092;10459,483;39,50904
 993,71; 4240,060;  243,092;10406,483;39,32711
 994,26; 4186,521;  219,092;10208,944;39,71459
 994,81; 4211,521;  253,323;10201,021;39,79009
 995,36; 4131,213;  215,785;10082,483;39,68327
 995,91; 4126,521;  230,246; 9978,713;39,96808
 996,45; 4061,598;  232,631; 9855,867;39,78877
 997,00; 4016,213;  200,708; 9710,098;40,12356
 997,55; 4025,367;  244,938; 9694,021;40,00842
 998,10; 3985,829;  249,323; 9601,713;39,95241
 998,65; 3919,213;  228,323; 9486,098;39,86801
 999,19; 3884,598;  248,246; 9399,483;39,73618
 999,74; 3856,598;  259,708; 9297,560;39,79807
1000,29; 3847,752;  239,246; 9177,790;40,37017
1000,84; 3765,290;  226,938; 9035,790;40,16814
1001,38; 3756,752;  233,169; 8965,175;40,35250
1001,93; 3735,675;  245,554; 8920,790;40,23085
1002,48; 3686,906;  206,400; 8758,098;40,69959
1003,03; 3670,137;  239,938; 8675,252;40,66474
1003,57; 3605,137;  242,554; 8621,483;40,13141
1004,12; 3615,752;  260,631; 8573,406;40,36102
1004,67; 3557,444;  224,246; 8447,790;40,53238
1005,22; 3488,906;  221,400; 8250,406;40,69627
1005,76; 3420,521;  210,554; 8124,329;40,56177
1006,31; 3407,752;  243,938; 8095,790;40,29385
1006,86; 3376,752;  216,246; 7914,713;41,05370
1007,40; 3299,137;  211,246; 7821,021;40,57795
1007,95; 3312,290;  227,708; 7688,483;41,34400
1008,50; 3235,906;  238,323; 7620,637;40,60492
1009,04; 3162,213;  230,246; 7458,483;40,56269
1009,59; 3114,060;  232,015; 7371,252;40,36908
1010,14; 3090,829;  220,169; 7282,713;40,64625
1010,68; 3044,675;  233,708; 7158,560;40,59245
1011,23; 2989,521;  235,092; 7054,790;40,38931
1011,78; 2992,444;  253,246; 6960,713;40,83804
1012,32; 2934,983;  252,400; 6872,252;40,52330
1012,87; 2951,137;  257,246; 6859,790;40,80079
1013,42; 2864,752;  220,169; 6710,021;40,74951
1013,96; 2902,675;  254,708; 6728,944;40,90007
1014,51; 2829,444;  192,938; 6595,790;41,17705
1015,06; 2839,367;  199,938; 6633,406;41,02654
1015,60; 2901,444;  276,477; 6714,790;40,77104
1016,15; 2881,906;  222,631; 6685,406;41,14757
1016,69; 2900,829;  226,400; 6689,867;41,37762
1017,24; 2883,906;  203,554; 6703,637;41,23566
1017,79; 2980,906;  266,938; 6809,637;41,48086
1018,33; 2955,829;  225,323; 6806,406;41,49022
1018,88; 3015,829;  242,323; 6915,021;41,56498
1019,42; 3012,137;  235,708; 6899,560;41,66402
1019,97; 3013,290;  222,015; 6909,098;41,74130
1020,51; 3084,060;  259,400; 7042,944;41,63988
1021,06; 3014,290;  198,631; 6987,560;41,47428
1021,61; 3035,906;  185,938; 6998,406;41,83458
1022,15; 2989,060;  176,862; 6896,175;41,85246
1022,70; 3037,367;  222,323; 6941,560;41,89530
1023,24; 3035,290;  209,169; 6894,560;42,27309
1023,79; 3024,829;  234,246; 6823,175;42,35260
1024,33; 3004,752;  225,554; 6770,098;42,46588
1024,88; 2973,752;  233,477; 6724,021;42,21950
1025,42; 2933,213;  234,400; 6536,021;42,82729
1025,97; 2875,367;  214,400; 6473,713;42,51213
1026,51; 2810,290;  196,400; 6368,867;42,34758
1027,06; 2819,829;  216,631; 6318,252;42,66404
1027,60; 2774,290;  228,631; 6212,713;42,54052
1028,15; 2748,906;  241,785; 6148,329;42,44650
1028,69; 2645,598;  198,708; 5937,483;42,63785
1029,24; 2627,367;  219,323; 5908,329;42,32803
1029,78; 2586,983;  204,708; 5835,560;42,30754
1030,33; 2533,290;  197,323; 5678,790;42,61573
1030,87; 2527,752;  208,862; 5635,637;42,73054
1031,42; 2469,060;  192,862; 5513,867;42,77759
1031,96; 2476,829;  236,785; 5473,098;42,77903
1032,51; 2410,521;  203,938; 5401,867;42,45119
1033,05; 2396,137;  216,400; 5335,790;42,57805
1033,60; 2315,367;  198,938; 5221,406;42,13923
1034,14; 2319,444;  221,400; 5148,098;42,58520
1034,69; 2281,829;  213,785; 5084,867;42,45554
1035,23; 2276,290;  214,708; 5009,944;42,99230
1035,77; 2231,290;  220,092; 4922,944;42,76550
1036,32; 2159,675;  197,477; 4838,790;42,27678
1036,86; 2180,598;  223,169; 4806,021;42,71202
1037,41; 2169,906;  232,400; 4710,483;43,26641
1037,95; 2091,213;  191,092; 4640,175;42,70816
1038,50; 2081,906;  209,323; 4594,790;42,69973
1039,04; 2102,137;  231,246; 4555,713;43,26291
1039,58; 2036,906;  200,477; 4461,252;43,10082
1040,13; 2007,060;  210,246; 4394,790;42,93929
1040,67; 2030,060;  244,323; 4399,637;42,97477
1041,21; 2020,444;  247,554; 4267,867;44,09831
1041,76; 1957,444;  202,554; 4193,175;43,97537
1042,30; 1936,906;  207,631; 4173,713;43,60159
1042,85; 1916,675;  215,323; 4094,175;43,86226
1043,39; 1890,983;  195,323; 3985,944;44,73303
1043,93; 1903,521;  242,015; 3993,637;44,28767
1044,48; 1835,829;  227,015; 3932,483;43,41729
1045,02; 1814,752;  211,785; 3880,021;43,69858
1045,56; 1848,675;  240,708; 3851,021;44,53816
1046,11; 1788,598;  227,554; 3785,406;43,87603
1046,65; 1754,137;  229,477; 3706,406;43,85076
1047,19; 1718,444;  212,938; 3668,637;43,56589
1047,74; 1679,829;  195,862; 3568,944;43,99439
1048,28; 1681,213;  224,400; 3561,252;43,65832
1048,82; 1708,906;  249,938; 3558,790;44,09286
1049,37; 1679,521;  236,400; 3450,867;44,89457
1049,91; 1629,983;  225,092; 3414,560;44,04781
1050,45; 1631,752;  239,169; 3391,637;44,17437
1050,99; 1611,444;  219,246; 3353,483;44,41905
1051,54; 1555,213;  213,169; 3251,175;44,17517
1052,08; 1571,137;  249,938; 3258,098;43,92048
1052,62; 1551,598;  241,323; 3228,790;43,85906
1053,16; 1510,444;  220,554; 3136,867;44,23017
1053,71; 1511,290;  226,092; 3101,252;44,70006
1054,25; 1510,060;  244,169; 3059,867;44,95831
1054,79; 1470,213;  237,246; 3008,252;44,49530
1055,33; 1426,598;  200,092; 2939,637;44,77043
1055,88; 1433,675;  239,400; 2941,098;44,20461
1056,42; 1410,213;  237,477; 2872,252;44,50993
1056,96; 1422,060;  247,015; 2844,483;45,23808
1057,50; 1382,521;  230,477; 2794,098;44,93816
1058,05; 1368,598;  230,015; 2762,252;44,96352
1058,59; 1370,906;  247,938; 2739,252;45,07531
1059,13; 1298,060;  213,708; 2670,175;44,14274
1059,67; 1328,290;  235,015; 2639,175;45,47431
1060,21; 1300,906;  232,092; 2573,098;45,65617
1060,76; 1295,060;  239,554; 2571,329;45,26619
1061,30; 1290,906;  259,400; 2576,329;44,52039
1061,84; 1242,752;  232,938; 2493,406;44,67277
1062,38; 1214,060;  217,477; 2432,329;44,99545
1062,92; 1261,444;  267,708; 2475,637;45,00763
1063,46; 1227,983;  250,323; 2372,560;46,06742
1064,01; 1193,675;  219,169; 2363,944;45,43627
1064,55; 1186,906;  244,477; 2310,790;45,60919
1065,09; 1142,137;  210,400; 2239,329;45,92258
1065,63; 1171,060;  252,554; 2300,790;44,84374
1066,17; 1155,213;  258,323; 2235,637;45,35904
1066,71; 1140,983;  252,015; 2232,252;44,89198
1067,25; 1115,906;  233,169; 2154,790;45,93707
1067,80; 1121,752;  250,554; 2176,867;45,22618
1068,34; 1117,367;  262,323; 2144,560;45,42703
1068,88; 1074,367;  220,246; 2092,483;45,62037
1069,42; 1102,367;  250,246; 2101,252;46,03558
1069,96; 1059,444;  231,092; 2018,713;46,33823
1070,50; 1092,060;  260,092; 2062,713;46,15320
1071,04; 1005,367;  223,169; 1975,252;44,64390
1071,58; 1029,213;  233,092; 1960,560;46,08603
1072,12; 1025,213;  234,554; 1946,560;46,18323
1072,66; 1002,367;  241,785; 1936,021;44,89236
1073,21; 1015,213;  253,246; 1939,098;45,19776
1073,75;  986,752;  239,862; 1893,790;45,15856
1074,29;  979,137;  239,708; 1876,637;45,17172
1074,83;  994,983;  262,092; 1872,329;45,51445
1075,37;  986,444;  259,631; 1832,483;46,20991
1075,91;  954,675;  247,631; 1794,790;45,69950
1076,45;  954,367;  247,785; 1770,790;46,39396
1076,99;  937,060;  258,938; 1749,483;45,49487
1077,53;  919,983;  231,323; 1710,790;46,54781
1078,07;  929,367;  243,477; 1723,560;46,34136
1078,61;  916,213;  241,400; 1669,637;47,24802
1079,15;  889,137;  234,246; 1688,867;45,02137
1079,69;  887,290;  240,785; 1637,944;46,27286
1080,23;  910,213;  253,323; 1646,867;47,13811
1080,77;  937,367;  301,938; 1673,175;46,33984
1081,31;  859,983;  230,092; 1598,175;46,04184
1081,85;  874,367;  247,323; 1598,560;46,40522
1082,39;  846,137;  235,631; 1560,329;46,08641
1082,93;  859,752;  250,554; 1558,867;46,56362
1083,47;  821,290;  225,938; 1506,867;46,47814
1084,01;  835,290;  253,938; 1542,560;45,11426
1084,55;  794,521;  232,554; 1488,713;44,73693
1085,09;  833,983;  255,938; 1486,175;46,98643
1085,63;  811,213;  252,477; 1455,944;46,42723
1086,17;  779,983;  235,708; 1415,021;46,15185
1086,71;  788,213;  219,246; 1411,175;47,73501
1087,24;  798,137;  262,938; 1429,406;45,88196
1087,78;  795,521;  251,092; 1379,944;48,22854
1088,32;  757,060;  232,554; 1339,021;47,40364
1088,86;  773,829;  253,554; 1374,944;46,39553
1089,40;  753,290;  249,477; 1351,944;45,69872
1089,94;  727,444;  218,092; 1316,560;46,36933
1090,48;  729,752;  249,631; 1314,713;45,07830
1091,02;  744,521;  255,015; 1325,867;45,71181
1091,56;  727,906;  245,400; 1297,560;45,85861
1092,10;  701,060;  220,785; 1261,329;46,15614
1092,63;  730,060;  260,862; 1278,713;46,09689
1093,17;  726,367;  253,246; 1245,252;47,69339
1093,71;  688,752;  226,246; 1209,637;47,03176
1094,25;  709,521;  260,092; 1220,021;46,81897
1094,79;  695,290;  245,631; 1188,944;47,66810
1095,33;  689,060;  252,246; 1185,790;46,79087
1095,87;  693,598;  239,631; 1191,252;47,70463
1096,40;  649,213;  224,862; 1149,944;45,87178
1096,94;  660,060;  245,169; 1150,021;45,85174
1097,48;  663,290;  254,169; 1153,483;45,49261
1098,02;  639,137;  244,477; 1105,483;45,83705
1098,56;  616,983;  217,862; 1080,021;46,29319
1099,10;  616,137;  213,938; 1066,790;47,15919
1099,63;  617,367;  221,323; 1071,175;46,60156
1100,17;  625,444;  239,708; 1075,329;46,16165
1100,71;  669,213;  261,169; 1095,329;48,91680

