
Integration time [ms]: 140,000
Averaging Nr. [scans]: 13
Smoothing Nr. [pixels]: 0
Data measured with spectrometer [name]: 2009305U1
Wave   ;Sample   ;Dark     ;Reference;Reflectance
[nm]   ;[counts] ;[counts] ;[counts] ;[%]

 175,72;  203,364;  185,479;  195,256;182,94306
 176,32;  227,932;  214,863;  213,589; 0,00000
 176,92;  272,887;  238,402;  244,147;600,23085
 177,52;  267,652;  239,171;  255,101;178,79176
 178,12;  227,894;  218,325;  215,567; 0,00000
 178,72;  250,206;  248,709;  238,776; 0,00000
 179,32;  256,607;  248,094;  241,542; 0,00000
 179,92;  261,469;  235,094;  233,146; 0,00000
 180,52;  245,848;  229,480;  243,972;112,94565
 181,12;  266,510;  244,710;  253,779;240,38483
 181,73;  285,409;  269,479;  266,724; 0,00000
 182,33;  378,179;  325,403;  327,235;2880,49593
 182,93;  276,044;  264,325;  263,605; 0,00000
 183,53;  237,763;  235,709;  223,292; 0,00000
 184,13;  238,000;  236,093;  221,711; 0,00000
 184,73;  292,365;  251,478;  257,984;628,46200
 185,33;  270,450;  223,703;  341,427;39,70906
 185,93;  283,006;  228,779;  366,740;39,30604
 186,53;  300,466;  248,010;  359,067;47,23320
 187,13;  333,958;  274,472;  411,352;43,45849
 187,73;  291,743;  238,933;  352,642;46,44329
 188,33;  283,521;  238,856;  363,204;35,91979
 188,93;  300,786;  245,547;  371,130;43,98657
 189,53;  311,494;  249,392;  378,224;48,20408
 190,13;  341,436;  273,390;  396,734;55,16739
 190,73;  277,560;  223,776;  357,743;40,14697
 191,34;  315,243;  262,315;  381,146;44,54042
 191,94;  284,219;  235,624;  353,574;41,19967
 192,54;  300,053;  242,088;  410,064;34,50793
 193,14;  299,745;  255,626;  389,518;32,95124
 193,74;  307,526;  251,934;  380,684;43,17799
 194,34;  306,234;  243,165;  382,870;45,14458
 194,94;  264,368;  214,165;  356,176;35,35138
 195,54;  249,163;  209,241;  329,743;33,12955
 196,14;  267,072;  217,550;  352,435;36,71479
 196,74;  276,982;  216,472;  355,469;43,53342
 197,34;  246,294;  190,627;  347,445;35,49762
 197,94;  272,678;  220,165;  381,711;32,50687
 198,54;  286,747;  222,703;  386,849;39,01640
 199,14;  262,757;  222,781;  387,587;24,25657
 199,74;  246,673;  196,320;  389,699;26,03897
 200,34;  238,701;  191,781;  399,400;22,59900
 200,94;  277,469;  212,858;  445,923;27,72244
 201,54;  258,650;  205,396;  445,617;22,16854
 202,14;  300,501;  216,397;  481,328;31,74552
 202,74;  277,020;  214,089;  491,643;22,67344
 203,34;  266,048;  199,243;  512,548;21,32262
 203,94;  239,773;  171,089;  515,499;19,94245
 204,54;  319,514;  235,472;  607,818;22,57077
 205,14;  274,125;  201,243;  625,848;17,16464
 205,74;  339,447;  225,936;  717,479;23,09280
 206,34;  304,567;  196,166;  752,632;19,48030
 206,94;  305,931;  197,781;  803,742;17,84770
 207,54;  295,144;  181,935;  836,884;17,28519
 208,14;  320,539;  196,166;  931,384;16,91646
 208,74;  348,163;  213,243; 1002,408;17,09663
 209,34;  349,694;  187,704; 1131,861;17,15711
 209,94;  366,922;  214,396; 1205,746;15,38562
 210,54;  376,731;  211,320; 1331,090;14,77185
 211,14;  414,397;  212,550; 1444,831;16,37996
 211,73;  414,968;  205,396; 1570,587;15,35111
 212,33;  446,784;  217,781; 1692,428;15,52936
 212,93;  454,100;  198,550; 1777,647;16,18332
 213,53;  450,079;  179,627; 1863,519;16,06113
 214,13;  482,708;  180,167; 1947,134;17,12204
 214,73;  471,116;  186,704; 1956,174;16,07326
 215,33;  464,152;  160,858; 1986,361;16,61429
 215,93;  537,964;  193,628; 2151,394;17,58824
 216,53;  520,789;  156,858; 2213,685;17,69383
 217,13;  615,860;  203,551; 2475,000;18,15181
 217,73;  647,950;  187,320; 2705,924;18,28911
 218,33;  654,777;  139,013; 2915,972;18,57298
 218,93;  741,473;  178,937; 3285,822;18,10611
 219,53;  807,847;  189,397; 3601,083;18,12738
 220,13;  866,881;  162,628; 3919,631;18,74507
 220,73;  950,984;  187,627; 4345,430;18,35963
 221,32; 1036,625;  177,781; 4807,485;18,55073
 221,92; 1153,500;  169,705; 5226,097;19,45646
 222,52; 1218,450;  170,320; 5728,902;18,85607
 223,12; 1322,198;  178,166; 6210,697;18,96437
 223,72; 1409,883;  189,705; 6609,886;19,00536
 224,32; 1513,436;  185,090; 7038,082;19,38344
 224,92; 1547,170;  176,013; 7429,681;18,90295
 225,52; 1636,078;  194,551; 7914,699;18,67228
 226,12; 1687,311;  189,320; 8156,380;18,80231
 226,72; 1715,818;  153,089; 8544,829;18,62223
 227,31; 1763,399;  151,397; 8937,273;18,34765
 227,91; 1888,865;  173,781; 9431,250;18,52649
 228,51; 1966,818;  178,242; 9836,402;18,51881
 229,11; 2011,549;  175,705;10277,773;18,17296
 229,71; 2061,226;  173,935;10569,057;18,15555
 230,31; 2137,204;  164,936;10971,690;18,25033
 230,91; 2206,914;  158,704;11316,961;18,35601
 231,51; 2220,531;  165,782;11651,599;17,88945
 232,10; 2297,427;  152,244;11950,374;18,18240
 232,70; 2326,388;  182,934;12128,177;17,94399
 233,30; 2402,601;  207,551;12409,368;17,98953
 233,90; 2359,643;  177,705;12542,581;17,64626
 234,50; 2362,590;  175,705;12624,090;17,56762
 235,10; 2345,247;  175,936;12587,604;17,47800
 235,70; 2347,547;  192,012;12589,246;17,38723
 236,29; 2336,545;  189,396;12470,908;17,48277
 236,89; 2244,099;  161,781;12355,974;17,07631
 237,49; 2237,909;  179,012;12190,487;17,14108
 238,09; 2136,721;  177,474;11885,708;16,73393
 238,69; 2114,065;  191,550;11608,161;16,83963
 239,29; 1987,756;  167,243;11324,076;16,31748
 239,89; 1911,672;  185,934;10841,376;16,19584
 240,48; 1799,071;  171,089;10430,461;15,86824
 241,08; 1723,435;  164,550; 9925,725;15,97025
 241,68; 1651,570;  193,704; 9670,747;15,38313
 242,28; 1561,793;  166,243; 9327,389;15,23336
 242,88; 1542,700;  200,551; 8918,630;15,39501
 243,48; 1477,531;  205,858; 8599,299;15,15080
 244,07; 1389,830;  186,320; 8384,233;14,68069
 244,67; 1390,140;  192,705; 8187,529;14,97763
 245,27; 1362,891;  202,012; 8095,587;14,70664
 245,87; 1348,351;  194,474; 7980,459;14,81992
 246,47; 1350,003;  192,781; 7916,835;14,98206
 247,06; 1358,200;  177,243; 7990,336;15,11511
 247,66; 1371,427;  177,474; 8048,290;15,16937
 248,26; 1447,258;  214,473; 8269,036;15,30542
 248,86; 1501,604;  189,012; 8400,903;15,98405
 249,46; 1520,461;  144,551; 8617,949;16,23799
 250,05; 1689,469;  196,243; 9060,084;16,84627
 250,65; 1760,157;  167,858; 9437,415;17,17773
 251,25; 1920,697;  178,320; 9988,396;17,76110
 251,85; 2060,466;  171,858;10651,004;18,02254
 252,44; 2228,974;  140,627;11248,852;18,80001
 253,04; 2468,369;  195,781;12089,583;19,10733
 253,64; 2678,329;  142,242;12890,197;19,89407
 254,24; 2992,015;  194,627;13790,358;20,57549
 254,84; 3253,307;  169,089;14803,334;21,07535
 255,43; 3523,055;  179,396;15864,429;21,31751
 256,03; 3879,769;  190,396;16954,300;22,00784
 256,63; 4213,295;  182,088;18131,034;22,45929
 257,23; 4486,760;  168,319;18989,457;22,94463
 257,82; 4875,527;  182,703;20170,973;23,47789
 258,42; 5175,559;  146,242;20962,190;24,16089
 259,02; 5548,666;  187,627;21970,194;24,61160
 259,62; 5809,036;  170,934;22616,087;25,11946
 260,21; 6081,377;  188,243;23208,899;25,59933
 260,81; 6286,402;  174,935;23814,389;25,85283
 261,41; 6511,444;  165,626;24249,895;26,34839
 262,01; 6772,935;  206,780;24823,697;26,67334
 262,60; 6934,683;  166,088;25190,303;27,04818
 263,20; 7214,112;  174,473;25501,198;27,79530
 263,80; 7333,232;  190,934;25666,154;28,03626
 264,40; 7410,361;  162,011;25910,561;28,15052
 264,99; 7556,407;  187,703;26077,975;28,46129
 265,59; 7632,535;  167,779;26263,178;28,60564
 266,19; 7769,071;  155,703;26358,343;29,05573
 266,78; 7837,649;  211,241;26526,645;28,98078
 267,38; 7844,982;  182,856;26574,819;29,03204
 267,98; 7910,482;  174,933;26521,482;29,36076
 268,58; 7953,948;  183,549;26637,110;29,37373
 269,17; 8002,617;  172,010;26578,078;29,65458
 269,77; 7933,163;  184,627;26360,820;29,60146
 270,37; 7859,935;  154,395;26285,663;29,48782
 270,96; 7883,740;  216,088;26114,464;29,60669
 271,56; 7783,029;  183,011;25847,017;29,61353
 272,16; 7744,713;  177,242;25662,532;29,69349
 272,75; 7691,870;  170,319;25533,878;29,65495
 273,35; 7677,583;  189,934;25558,768;29,51515
 273,95; 7665,171;  176,473;25489,682;29,58415
 274,54; 7654,459;  152,012;25534,849;29,55716
 275,14; 7816,474;  193,550;26005,943;29,53203
 275,74; 7769,150;  158,472;26014,058;29,43533
 276,33; 7931,264;  197,242;26447,525;29,46262
 276,93; 8061,598;  182,858;26857,798;29,53611
 277,53; 8194,614;  180,935;27406,403;29,43450
 278,12; 8314,364;  159,781;27918,410;29,37675
 278,72; 8567,464;  202,935;28556,100;29,50122
 279,32; 8738,083;  173,319;29138,181;29,56950
 279,91; 8988,790;  163,473;29950,309;29,62825
 280,51; 9192,275;  178,243;30461,040;29,76618
 281,11; 9459,371;  177,781;31261,061;29,86039
 281,70; 9633,168;  161,012;31734,847;30,00002
 282,30; 9839,414;  157,704;32402,786;30,02538
 282,90;10001,900;  169,781;32829,260;30,10495
 283,49;10260,960;  186,319;33285,956;30,43732
 284,09;10446,763;  205,704;33770,223;30,51156
 284,69;10640,038;  200,627;34065,929;30,82628
 285,28;10813,616;  185,858;34456,727;31,01106
 285,88;11019,507;  214,319;34623,622;31,40194
 286,47;11108,676;  180,396;34740,226;31,62134
 287,07;11268,398;  205,627;34790,839;31,98700
 287,67;11442,993;  186,089;34931,222;32,39851
 288,26;11623,293;  187,242;34812,403;33,02815
 288,86;11708,507;  168,396;34889,979;33,23613
 289,46;11935,007;  190,242;35024,454;33,71618
 290,05;12120,166;  176,320;35064,746;34,23441
 290,65;12359,704;  171,627;35334,474;34,66181
 291,24;12662,104;  183,858;35382,728;35,45070
 291,84;12882,987;  195,550;35559,419;35,87684
 292,44;13031,734;  176,474;35643,051;36,24613
 293,03;13322,548;  237,166;35704,989;36,89367
 293,63;13419,634;  174,011;35930,474;37,04400
 294,22;13613,234;  201,012;36147,108;37,31204
 294,82;13670,022;  173,780;36066,967;37,60112
 295,41;13658,860;  160,627;35770,539;37,90583
 296,01;13709,150;  215,934;35568,408;38,16767
 296,61;13618,555;  189,242;35304,185;38,24387
 297,20;13437,762;  185,934;34895,865;38,17878
 297,80;13275,134;  192,474;34654,879;37,96212
 298,39;13178,543;  161,011;34265,466;38,16959
 298,99;13056,391;  188,242;34203,943;37,83003
 299,58;12963,993;  194,935;33946,341;37,83267
 300,18;12772,861;  208,474;33765,785;37,44158
 300,78;12554,705;  167,089;33266,446;37,42555
 301,37;12455,852;  187,241;33370,355;36,97245
 301,97;12379,587;  187,473;33330,898;36,78592
 302,56;12296,638;  178,242;33182,632;36,71753
 303,16;12088,866;  163,627;33180,943;36,11814
 303,75;12032,456;  176,243;33163,819;35,94145
 304,35;12047,649;  169,397;33468,616;35,67126
 304,94;11937,017;  182,396;33377,843;35,41034
 305,54;11814,625;  196,473;33270,715;35,12749
 306,13;11666,037;  152,782;33197,809;34,84111
 306,73;11492,374;  160,089;32978,372;34,53040
 307,33;11346,203;  185,243;32896,675;34,11945
 307,92;11278,506;  189,319;32981,544;33,81651
 308,52;11302,632;  165,627;33521,982;33,38796
 309,11;11364,444;  169,780;34004,442;33,08638
 309,71;11350,875;  153,395;34272,898;32,81842
 310,30;11323,272;  163,089;34384,044;32,61213
 310,90;11315,118;  192,935;34746,275;32,18845
 311,49;11182,157;  189,089;34846,296;31,71943
 312,09;11108,358;  158,550;35067,187;31,36704
 312,68;11176,772;  214,704;35454,057;31,10746
 313,28;11058,352;  158,781;35637,775;30,72120
 313,87;10982,517;  146,627;35637,822;30,53121
 314,47;10901,549;  169,934;35921,682;30,01704
 315,06;10832,209;  157,704;36088,779;29,70828
 315,66;10762,743;  163,858;36229,648;29,38764
 316,25;10613,058;  145,550;36163,538;29,06189
 316,85;10490,445;  141,935;36211,499;28,69042
 317,44;10428,465;  162,319;36309,758;28,40076
 318,04;10242,781;  151,627;36276,585;27,93402
 318,63;10122,161;  146,935;36258,419;27,62342
 319,22;10063,463;  172,857;36442,469;27,26968
 319,82; 9925,973;  169,473;36451,752;26,89054
 320,41; 9774,697;  175,473;36422,431;26,48284
 321,01; 9660,327;  184,935;36415,404;26,15310
 321,60; 9574,633;  178,704;36469,158;25,89091
 322,20; 9409,013;  168,781;36444,181;25,47245
 322,79; 9358,303;  208,781;36518,826;25,19832
 323,39; 9217,754;  175,397;36502,710;24,89135
 323,98; 9139,394;  162,935;36368,639;24,79294
 324,58; 8968,957;  174,242;36243,259;24,38302
 325,17; 8890,505;  182,165;36086,068;24,25458
 325,76; 8732,335;  181,396;35892,001;23,94510
 326,36; 8548,813;  155,320;35319,109;23,86971
 326,95; 8415,714;  190,012;35150,659;23,52846
 327,55; 8222,945;  155,473;34758,932;23,31406
 328,14; 8040,515;  178,858;34183,029;23,11968
 328,74; 7975,337;  195,627;33785,675;23,16076
 329,33; 7742,939;  182,935;33325,981;22,81023
 329,92; 7545,413;  162,626;32790,233;22,62742
 330,52; 7354,305;  167,935;32078,807;22,52013
 331,11; 7182,112;  179,088;31670,667;22,23777
 331,71; 7018,867;  175,396;31085,078;22,14022
 332,30; 6893,786;  180,627;30673,381;22,01559
 332,89; 6762,670;  217,627;30068,310;21,92594
 333,49; 6571,193;  191,550;29441,783;21,81057
 334,08; 6447,543;  173,242;29024,115;21,74735
 334,68; 6329,672;  179,165;28619,410;21,62607
 335,27; 6240,955;  193,397;28249,166;21,55549
 335,86; 6237,189;  210,550;28048,513;21,64900
 336,46; 6103,692;  188,012;27722,418;21,48468
 337,05; 6044,539;  163,011;27538,804;21,48441
 337,65; 5970,689;  151,704;27324,227;21,41496
 338,24; 6024,957;  212,550;27404,497;21,37547
 338,83; 5968,677;  199,935;27215,933;21,35306
 339,43; 6005,718;  161,780;27137,636;21,66359
 340,02; 6007,824;  174,550;27034,345;21,71749
 340,61; 5982,653;  156,935;27081,655;21,63706
 341,21; 6015,414;  207,165;27127,136;21,57599
 341,80; 6040,354;  167,858;27089,021;21,81368
 342,40; 6060,640;  173,243;27183,858;21,79661
 342,99; 6135,670;  173,858;27301,771;21,97667
 343,58; 6197,785;  174,550;27407,135;22,11775
 344,18; 6267,320;  180,397;27534,054;22,25268
 344,77; 6375,848;  167,934;27938,512;22,35428
 345,36; 6527,791;  156,012;28227,505;22,69840
 345,96; 6671,512;  186,320;28591,921;22,83068
 346,55; 6725,954;  163,320;28765,731;22,94434
 347,14; 6924,924;  150,858;29104,307;23,39640
 347,74; 7078,053;  142,859;29570,951;23,56658
 348,33; 7309,686;  173,782;30201,656;23,76427
 348,92; 7545,677;  181,705;30830,675;24,02682
 349,52; 7755,098;  156,475;31299,084;24,39944
 350,11; 7868,390;  164,934;31503,823;24,58114
 350,70; 7976,293;  166,627;31565,591;24,87237
 351,29; 7967,307;  162,933;31400,551;24,98389
 351,89; 8065,581;  181,472;31358,164;25,28847
 352,48; 8174,625;  152,781;31379,912;25,68870
 353,07; 8297,829;  170,397;31238,987;26,15964
 353,67; 8365,153;  189,552;31219,948;26,34707
 354,26; 8383,403;  174,397;31035,354;26,59997
 354,85; 8459,190;  171,704;30735,640;27,11524
 355,45; 8511,784;  157,781;30675,316;27,37444
 356,04; 8557,671;  168,320;30625,906;27,54437
 356,63; 8656,297;  194,781;30333,526;28,07521
 357,22; 8711,498;  178,318;30260,522;28,36621
 357,82; 8754,609;  190,780;30082,839;28,64918
 358,41; 8898,042;  188,781;29928,010;29,28543
 359,00; 8919,274;  172,473;29705,068;29,61745
 359,60; 9052,709;  186,243;29656,681;30,08597
 360,19; 9118,891;  184,935;29499,090;30,47659
 360,78; 9139,347;  175,550;29240,517;30,84055
 361,37; 9214,724;  169,473;29133,628;31,22912
 361,97; 9331,524;  174,627;29018,138;31,74682
 362,56; 9321,842;  161,088;28693,973;32,10595
 363,15; 9417,267;  205,396;28486,786;32,57220
 363,74; 9374,790;  166,857;28089,840;32,97618
 364,34; 9421,264;  180,396;27703,756;33,57464
 364,93; 9318,656;  156,626;27300,575;33,75349
 365,52; 9308,189;  151,781;26868,590;34,27209
 366,11; 9365,138;  167,704;26571,115;34,83427
 366,71; 9293,848;  165,550;26184,315;35,08352
 367,30; 9341,679;  174,319;25850,334;35,70398
 367,89; 9396,103;  204,012;25716,866;36,02925
 368,48; 9377,314;  185,396;25321,601;36,56844
 369,07; 9278,754;  179,396;24872,053;36,85046
 369,67; 9300,936;  194,703;24613,370;37,29210
 370,26; 9306,817;  164,319;24353,198;37,79629
 370,85; 9342,556;  175,473;24095,389;38,32406
 371,44; 9336,266;  176,088;23840,471;38,70871
 372,03; 9326,128;  151,780;23549,187;39,21096
 372,63; 9302,339;  144,627;23282,740;39,57848
 373,22; 9305,332;  169,012;22976,843;40,05782
 373,81; 9221,924;  157,011;22684,188;40,23989
 374,40; 9291,686;  164,858;22480,076;40,89957
 374,99; 9218,256;  161,781;22210,782;41,07431
 375,59; 9177,767;  159,781;21936,080;41,41193
 376,18; 9273,798;  191,858;21756,744;42,11448
 376,77; 9271,783;  185,858;21535,420;42,55790
 377,36; 9322,119;  196,781;21526,787;42,78170
 377,95; 9297,295;  179,319;21289,692;43,19192
 378,55; 9262,634;  159,320;21111,250;43,44857
 379,14; 9331,794;  180,627;20965,432;44,02816
 379,73; 9335,589;  179,319;20953,453;44,07534
 380,32; 9531,542;  185,396;20940,031;45,03161
 380,91; 9461,968;  169,473;20815,426;45,00880
 381,50; 9545,450;  185,627;20802,238;45,39943
 382,10; 9593,311;  168,089;20598,415;46,13349
 382,69; 9646,434;  152,319;20565,906;46,50880
 383,28; 9748,764;  193,627;20570,546;46,89196
 383,87; 9675,806;  166,780;20416,760;46,95820
 384,46; 9712,843;  154,857;20365,570;47,29168
 385,05; 9868,586;  189,550;20403,037;47,88405
 385,64; 9897,984;  159,242;20407,576;48,09651
 386,24; 9931,473;  153,780;20326,347;48,47025
 386,83;10084,064;  195,472;20434,684;48,85858
 387,42;10108,739;  193,396;20531,183;48,75330
 388,01;10355,996;  173,318;20707,785;49,58823
 388,60;10528,791;  174,857;20882,232;50,00119
 389,19;10691,974;  148,779;21179,223;50,13301
 389,78;10902,295;  158,933;21399,147;50,58029
 390,37;11229,757;  218,010;21923,000;50,73371
 390,96;11348,889;  177,703;21992,095;51,21017
 391,56;11445,776;  178,471;22222,132;51,11358
 392,15;11665,554;  166,856;22451,233;51,59982
 392,74;11812,325;  137,163;22602,095;51,97061
 393,33;12039,101;  165,086;22937,837;52,14133
 393,92;12329,449;  182,624;23340,175;52,45298
 394,51;12451,518;  154,856;23532,431;52,60025
 395,10;12710,339;  196,161;23799,208;53,01933
 395,69;12868,065;  183,238;23859,141;53,57695
 396,28;12982,229;  179,930;24003,788;53,73730
 396,87;13031,188;  185,698;24106,506;53,70007
 397,46;13176,369;  187,082;24267,319;53,94169
 398,06;13316,671;  196,158;24457,662;54,07955
 398,65;13400,631;  181,311;24429,499;54,51673
 399,24;13558,440;  195,156;24635,459;54,67724
 399,83;13594,258;  159,846;24668,156;54,81574
 400,42;13810,690;  209,151;24840,145;55,22123
 401,01;13828,448;  177,917;24927,239;55,15517
 401,60;13934,862;  200,529;24993,593;55,39587
 402,19;13980,650;  205,911;24794,712;56,02038
 402,78;13988,254;  203,214;24936,973;55,73371
 403,37;13954,832;  195,209;24678,939;56,19905
 403,96;13937,714;  182,204;24613,057;56,30385
 404,55;13963,848;  188,198;24449,022;56,78146
 405,14;13866,280;  192,270;24342,339;56,62100
 405,73;13877,537;  205,956;24282,307;56,78428
 406,32;13837,086;  204,336;24197,053;56,82037
 406,91;13834,267;  198,716;23854,300;57,64200
 407,50;13768,587;  182,637;23730,657;57,69466
 408,09;13569,564;  171,404;23428,345;57,60930
 408,68;13599,612;  198,480;23218,852;58,21423
 409,27;13462,671;  173,712;23079,496;58,01573
 409,86;13484,033;  182,331;22935,458;58,46099
 410,45;13465,651;  212,181;22859,844;58,52025
 411,04;13408,806;  219,645;22790,649;58,43409
 411,63;13317,082;  193,803;22535,929;58,73783
 412,22;13227,539;  196,730;22251,126;59,08486
 412,81;13057,886;  209,578;21999,350;58,96486
 413,40;12899,360;  210,349;21628,426;59,24440
 413,99;12763,859;  241,425;21414,048;59,14446
 414,58;12484,434;  185,964;20959,934;59,20135
 415,17;12389,879;  187,886;20722,461;59,42170
 415,76;12277,917;  191,499;20613,014;59,18473
 416,35;12199,459;  178,731;20458,633;59,27409
 416,94;12242,636;  216,807;20504,127;59,27756
 417,53;12379,147;  182,116;20743,475;59,32016
 418,12;12404,338;  182,963;20812,130;59,24318
 418,71;12707,758;  197,349;21237,931;59,45847
 419,30;12699,250;  192,809;21266,041;59,34752
 419,89;12855,077;  189,579;21507,440;59,41261
 420,48;13061,768;  207,503;21793,397;59,54938
 421,07;13175,928;  208,041;21857,039;59,90063
 421,66;13117,081;  170,888;21773,423;59,92904
 422,25;13173,923;  178,505;21775,810;60,17148
 422,84;13176,188;  227,275;21774,119;60,09656
 423,43;12988,999;  192,813;21469,018;60,14318
 424,02;12848,850;  215,967;21168,507;60,29285
 424,60;12598,128;  189,507;20824,096;60,13505
 425,19;12398,388;  203,045;20477,464;60,15138
 425,78;12361,723;  209,814;20391,473;60,21264
 426,37;12288,604;  207,968;20246,882;60,28588
 426,96;12223,828;  199,045;20218,916;60,06424
 427,55;12114,697;  192,585;19960,493;60,31044
 428,14;11995,335;  191,124;19793,329;60,21879
 428,73;11857,245;  205,354;19583,055;60,13041
 429,32;11821,098;  211,122;19584,749;59,92670
 429,91;11880,335;  233,892;19529,175;60,35902
 430,50;11749,511;  218,662;19366,276;60,22081
 431,08;11610,575;  230,432;19301,206;59,67321
 431,67;11632,789;  264,740;19215,174;59,98833
 432,26;11455,462;  273,971;18971,642;59,80152
 432,85;11278,805;  291,586;18493,128;60,36422
 433,44;11046,742;  295,587;18235,717;59,92797
 434,03;10824,210;  302,357;17860,136;59,92701
 434,62;10568,312;  266,126;17454,038;59,93856
 435,21;10471,917;  289,663;17279,103;59,93284
 435,79;10312,848;  269,126;17147,510;59,50642
 436,38;10195,577;  274,742;17013,446;59,26884
 436,97;10176,147;  269,666;16897,955;59,57607
 437,56;10127,028;  268,744;16698,406;60,00296
 438,15;10041,631;  246,897;16649,840;59,71327
 438,74;10021,561;  260,513;16620,721;59,66335
 439,33; 9995,712;  238,359;16702,690;59,26358
 439,91; 9982,726;  210,667;16714,475;59,21094
 440,50;10049,656;  250,052;16805,245;59,19354
 441,09;10129,687;  256,130;16853,992;59,48692
 441,68;10104,722;  238,977;16900,162;59,21394
 442,27;10071,720;  214,130;16875,370;59,16480
 442,86;10005,425;  203,132;16871,062;58,80930
 443,44;10098,524;  209,670;16929,052;59,14605
 444,03;10112,292;  269,670;16947,455;59,01636
 444,62;10021,505;  212,901;16741,408;59,34356
 445,21; 9887,072;  230,285;16662,740;58,76655
 445,80; 9847,728;  246,133;16529,484;58,96572
 446,39; 9742,369;  270,748;16293,581;59,11327
 446,97; 9540,098;  216,441;16023,894;58,98266
 447,56; 9445,619;  201,980;15930,231;58,77092
 448,15; 9320,165;  210,595;15658,197;58,97077
 448,74; 9151,287;  232,057;15404,330;58,78638
 449,33; 9041,577;  223,134;15306,025;58,46653
 449,91; 8898,318;  209,904;15043,812;58,57131
 450,50; 8740,144;  210,596;14809,734;58,42501
 451,09; 8700,318;  228,212;14737,085;58,39259
 451,68; 8619,683;  245,520;14670,903;58,05158
 452,26; 8543,573;  231,674;14547,251;58,06192
 452,85; 8463,410;  223,059;14474,527;57,82107
 453,44; 8440,362;  233,598;14477,789;57,61481
 454,03; 8406,285;  208,751;14409,440;57,72631
 454,61; 8354,491;  194,368;14394,196;57,46635
 455,20; 8493,569;  242,753;14645,484;57,28647
 455,79; 8484,020;  233,829;14545,669;57,64592
 456,38; 8489,555;  240,753;14664,252;57,19002
 456,97; 8524,448;  215,138;14693,862;57,38979
 457,55; 8500,470;  219,369;14753,117;56,97843
 458,14; 8514,011;  243,907;14678,960;57,29182
 458,73; 8451,368;  227,292;14572,523;57,32968
 459,31; 8459,679;  261,908;14695,757;56,79546
 459,90; 8465,849;  266,062;14768,901;56,53918
 460,49; 8515,986;  291,600;14853,519;56,47872
 461,08; 8463,778;  212,986;14904,789;56,15916
 461,66; 8527,966;  223,370;14996,133;56,21559
 462,25; 8553,165;  218,294;15105,889;55,98534
 462,84; 8551,523;  250,909;15144,195;55,73393
 463,43; 8495,416;  192,910;15112,974;55,64658
 464,01; 8527,694;  227,295;15124,710;55,71704
 464,60; 8496,137;  262,910;15008,810;55,83401
 465,19; 8370,025;  206,372;14735,058;56,18989
 465,77; 8230,453;  231,219;14816,098;54,84608
 466,36; 8213,433;  234,602;14635,482;55,40516
 466,95; 8037,922;  213,910;14334,107;55,41008
 467,53; 7855,451;  225,373;13996,613;55,40589
 468,12; 7696,719;  251,681;13737,703;55,20559
 468,71; 7536,727;  222,372;13525,250;54,98325
 469,29; 7381,551;  218,142;13284,806;54,82202
 469,88; 7241,381;  216,912;13029,244;54,82585
 470,47; 7263,934;  273,451;13158,601;54,25224
 471,06; 7188,972;  229,990;13148,888;53,86669
 471,64; 7275,344;  234,066;13269,622;54,01594
 472,23; 7228,886;  203,529;13264,171;53,79029
 472,81; 7256,798;  211,144;13426,775;53,31304
 473,40; 7329,026;  215,298;13491,086;53,58422
 473,99; 7438,907;  295,299;13668,872;53,41585
 474,57; 7438,064;  215,529;13761,338;53,31933
 475,16; 7560,147;  223,221;14021,827;53,17150
 475,75; 7543,163;  241,222;14083,900;52,74948
 476,33; 7599,880;  252,992;14178,270;52,75937
 476,92; 7636,270;  237,683;14238,856;52,84262
 477,51; 7605,238;  238,069;14284,269;52,44956
 478,09; 7581,308;  239,376;14291,303;52,24858
 478,68; 7546,332;  255,530;14172,497;52,38786
 479,27; 7531,568;  267,145;14274,601;51,86112
 479,85; 7535,926;  240,223;14264,334;52,02257
 480,44; 7527,827;  224,684;14440,310;51,37405
 481,02; 8142,237;  238,685;16174,261;49,59690
 481,61; 9123,018;  268,531;18120,700;49,59894
 482,20; 9761,094;  251,608;19269,034;50,00406
 482,78;10220,149;  266,069;20038,514;50,34319
 483,37;10396,429;  275,147;20557,589;49,90169
 483,95;10555,855;  289,917;20826,718;49,98801
 484,54;10639,351;  306,300;20939,986;50,07855
 485,13;10587,929;  269,840;20848,071;50,14080
 485,71;10418,598;  258,302;20600,108;49,94786
 486,30;10288,514;  292,225;20289,066;49,98934
 486,88;10202,950;  318,148;19848,199;50,61329
 487,47; 9771,156;  301,840;19068,101;50,45925
 488,05; 9275,151;  290,302;18135,509;50,34881
 488,64; 8644,903;  296,149;16826,665;50,50510
 489,23; 7687,517;  299,533;14648,069;51,48946
 489,81; 6576,758;  292,533;12727,450;50,53692
 490,40; 6201,890;  262,918;12174,203;49,86004
 490,98; 6052,266;  241,687;12001,033;49,41243
 491,57; 5985,055;  267,610;11920,719;49,06369
 492,15; 5911,217;  240,841;11848,427;48,85060
 492,74; 5841,874;  248,302;11756,522;48,60502
 493,32; 5804,022;  269,380;11664,759;48,56918
 493,91; 5726,401;  247,611;11538,005;48,52612
 494,50; 5711,242;  253,920;11551,377;48,30576
 495,08; 5625,690;  237,920;11464,411;47,99158
 495,67; 5646,118;  258,534;11410,599;48,31019
 496,25; 5519,580;  202,535;11338,494;47,74663
 496,84; 5485,814;  218,688;11293,372;47,56006
 497,42; 5449,191;  205,227;11275,329;47,37051
 498,01; 5429,999;  235,380;11233,343;47,23255
 498,59; 5322,012;  206,919;11143,273;46,77146
 499,18; 5289,869;  202,457;11113,159;46,62772
 499,76; 5260,821;  221,611;11029,806;46,62397
 500,35; 5148,978;  213,612;10794,348;46,64483
 500,93; 5123,153;  209,996;10775,504;46,50185
 501,52; 5059,463;  206,535;10692,500;46,28023
 502,10; 5013,774;  218,536;10608,342;46,15330
 502,69; 4921,905;  212,459;10452,275;45,99151
 503,27; 4790,203;  189,766;10305,740;45,47696
 503,86; 4754,769;  203,305;10219,637;45,44043
 504,44; 4646,830;  181,152;10105,382;44,99773
 505,03; 4546,309;  184,305; 9814,353;45,29577
 505,61; 4478,132;  193,151; 9686,655;45,13592
 506,19; 4413,921;  210,152; 9553,006;44,99449
 506,78; 4242,813;  181,152; 9330,300;44,39387
 507,36; 4181,568;  190,305; 9200,216;44,29859
 507,95; 4095,455;  197,383; 9079,567;43,88641
 508,53; 4054,631;  188,998; 8945,710;44,14480
 509,12; 3976,571;  198,845; 8786,400;43,99070
 509,70; 3905,751;  214,230; 8617,135;43,93149
 510,29; 3837,260;  226,922; 8521,180;43,52816
 510,87; 3740,212;  190,614; 8322,616;43,64974
 511,46; 3624,151;  194,614; 8135,117;43,19043
 512,04; 3603,244;  195,922; 8010,260;43,60346
 512,62; 3489,144;  201,076; 7840,767;43,03929
 513,21; 3417,222;  175,845; 7675,851;43,21832
 513,79; 3359,513;  196,231; 7565,749;42,92386
 514,38; 3314,557;  184,385; 7423,098;43,24211
 514,96; 3235,285;  215,769; 7305,234;42,59158
 515,54; 3150,294;  176,693; 7155,496;42,60904
 516,13; 3133,773;  209,616; 7052,501;42,73281
 516,71; 3032,515;  194,693; 6922,234;42,18216
 517,30; 2957,960;  187,078; 6804,706;41,87123
 517,88; 2923,803;  212,770; 6736,359;41,55738
 518,46; 2856,928;  178,540; 6619,488;41,58375
 519,05; 2830,647;  190,156; 6566,140;41,41308
 519,63; 2793,329;  196,309; 6533,682;40,97945
 520,22; 2771,669;  211,541; 6472,086;40,89305
 520,80; 2688,693;  200,541; 6413,441;40,04815
 521,38; 2715,346;  221,156; 6378,678;40,50639
 521,97; 2659,488;  184,464; 6303,939;40,44504
 522,55; 2638,590;  200,772; 6314,105;39,87707
 523,13; 2602,344;  181,541; 6333,124;39,35252
 523,72; 2588,309;  197,540; 6271,219;39,36279
 524,30; 2643,248;  211,542; 6450,215;38,97794
 524,89; 2579,820;  180,772; 6416,601;38,47200
 525,47; 2656,502;  202,696; 6547,297;38,67551
 526,05; 2607,691;  171,619; 6550,887;38,18733
 526,64; 2640,011;  203,773; 6701,691;37,49260
 527,22; 2674,800;  202,157; 6795,446;37,50241
 527,80; 2704,494;  233,234; 6919,050;36,96273
 528,39; 2717,129;  192,081; 7006,777;37,05298
 528,97; 2759,567;  202,388; 7150,926;36,80168
 529,55; 2830,533;  209,926; 7310,064;36,90924
 530,14; 2869,516;  215,081; 7543,808;36,21960
 530,72; 2840,868;  196,927; 7637,114;35,53594
 531,30; 2896,925;  183,004; 7742,240;35,90206
 531,89; 2913,121;  198,389; 7837,915;35,53535
 532,47; 2958,764;  227,620; 7895,267;35,61906
 533,05; 2953,732;  230,157; 7966,554;35,20469
 533,63; 2932,774;  228,312; 8043,921;34,60334
 534,22; 2923,518;  198,004; 8116,293;34,42049
 534,80; 2964,040;  219,774; 8110,030;34,78045
 535,38; 3039,540;  296,004; 8220,505;34,62093
 535,97; 2942,176;  223,697; 8181,626;34,16064
 536,55; 2990,697;  257,313; 8293,586;34,01309
 537,13; 2947,869;  265,312; 8221,060;33,71848
 537,71; 2962,999;  304,389; 8292,475;33,28220
 538,30; 2962,332;  324,928; 8378,768;32,74717
 538,88; 3004,472;  358,005; 8484,878;32,56439
 539,46; 3069,142;  402,313; 8679,350;32,21961
 540,05; 3058,710;  415,236; 8811,236;31,48492
 540,63; 3138,909;  474,313; 9016,258;31,19426
 541,21; 3165,488;  497,313; 9124,994;30,92575
 541,79; 3167,992;  543,852; 9286,054;30,01692
 542,38; 3207,609;  566,313; 9436,804;29,77621
 542,96; 3229,693;  586,621; 9648,923;29,16556
 543,54; 3299,636;  585,544; 9774,071;29,53783
 544,12; 3305,984;  554,544; 9925,738;29,36062
 544,70; 3310,979;  541,852;10034,565;29,17108
 545,29; 3341,697;  552,928;10167,424;29,00587
 545,87; 3336,607;  520,775;10175,823;29,16436
 546,45; 3327,837;  469,543;10213,458;29,33414
 547,03; 3324,727;  460,313;10338,275;28,99802
 547,62; 3336,964;  440,159;10371,653;29,16786
 548,20; 3387,148;  429,621;10649,692;28,93841
 548,78; 3394,741;  392,545;10726,633;29,05138
 549,36; 3377,175;  360,391;10947,316;28,49537
 549,94; 3401,166;  322,929;11006,747;28,81214
 550,53; 3446,508;  324,622;11243,183;28,59246
 551,11; 3415,547;  301,699;11440,296;27,95548
 551,69; 3479,420;  316,314;11775,094;27,60421
 552,27; 3527,100;  258,468;12019,913;27,79107
 552,85; 3605,554;  273,776;12331,800;27,63121
 553,44; 3626,717;  266,084;12661,243;27,11246
 554,02; 3726,153;  283,699;13009,915;27,05010
 554,60; 3722,939;  228,699;13317,373;26,69666
 555,18; 3815,217;  264,391;13670,068;26,48748
 555,76; 3903,863;  237,545;13982,808;26,67332
 556,34; 3966,730;  247,930;14373,251;26,32719
 556,93; 4054,545;  235,545;14761,461;26,29094
 557,51; 4106,758;  214,238;15113,995;26,12472
 558,09; 4181,800;  248,699;15461,243;25,85433
 558,67; 4209,372;  246,931;15807,594;25,46448
 559,25; 4269,618;  245,623;16052,149;25,45781
 559,83; 4305,381;  225,470;16360,625;25,28585
 560,41; 4371,640;  229,007;16748,020;25,07797
 561,00; 4476,792;  232,315;17058,150;25,22595
 561,58; 4450,696;  228,469;17273,626;24,77083
 562,16; 4500,677;  220,930;17603,283;24,62122
 562,74; 4550,744;  205,545;17974,133;24,45438
 563,32; 4592,081;  193,854;18466,437;24,07009
 563,90; 4712,159;  226,931;18797,564;24,15226
 564,48; 4752,704;  234,392;19240,173;23,77336
 565,06; 4839,691;  222,085;19811,180;23,57233
 565,65; 4953,355;  222,470;20536,897;23,28830
 566,23; 5157,613;  270,469;21375,060;23,15678
 566,81; 5261,548;  223,777;21991,961;23,14282
 567,39; 5423,112;  236,700;22887,870;22,89688
 567,97; 5518,677;  238,238;23568,060;22,63386
 568,55; 5729,941;  248,085;24331,907;22,76157
 569,13; 5826,410;  219,931;25091,035;22,54214
 569,71; 5996,838;  221,545;26028,403;22,37891
 570,29; 6236,535;  258,468;26992,073;22,36162
 570,87; 6360,443;  253,161;27666,210;22,27874
 571,45; 6449,386;  249,931;28319,910;22,08571
 572,03; 6422,866;  213,008;28803,973;21,71965
 572,61; 6575,008;  209,008;29491,672;21,73982
 573,20; 6668,360;  237,392;30208,755;21,45704
 573,78; 6775,098;  222,008;30773,869;21,44907
 574,36; 6819,683;  242,777;31246,514;21,21327
 574,94; 6836,160;  284,316;31638,691;20,89611
 575,52; 6831,244;  237,163;31890,279;20,83233
 576,10; 6946,217;  301,316;32476,509;20,65225
 576,68; 6962,891;  280,393;33059,293;20,38658
 577,26; 7060,340;  290,778;33663,469;20,28474
 577,84; 7120,295;  299,392;34257,356;20,08631
 578,42; 7154,862;  337,470;34447,841;19,98627
 579,00; 7061,885;  296,623;34622,839;19,70873
 579,58; 7045,170;  321,470;34793,157;19,50499
 580,16; 7000,948;  302,470;34834,726;19,39774
 580,74; 6967,962;  314,316;34963,385;19,20296
 581,32; 6891,862;  297,778;35007,191;18,99797
 581,90; 6822,553;  325,624;35003,337;18,73517
 582,48; 6779,504;  324,009;35042,081;18,59405
 583,06; 6779,600;  329,701;35222,640;18,48483
 583,64; 6687,509;  313,931;35325,674;18,20412
 584,22; 6584,240;  323,701;35070,002;18,01786
 584,80; 6490,582;  335,393;34670,124;17,92700
 585,38; 6353,496;  333,007;34418,597;17,66286
 585,96; 6248,357;  316,316;34450,724;17,37848
 586,54; 6222,373;  330,470;34470,574;17,25801
 587,12; 6148,161;  295,086;34696,133;17,01424
 587,70; 6132,063;  331,162;34753,613;16,85208
 588,28; 6117,707;  318,470;34764,330;16,83580
 588,86; 6051,660;  315,701;34867,916;16,60084
 589,44; 5961,654;  292,163;34889,572;16,38704
 590,02; 5951,875;  309,548;35182,730;16,17956
 590,59; 5926,978;  279,547;35275,416;16,13742
 591,17; 5889,570;  284,241;35504,999;15,91485
 591,75; 5878,236;  279,317;35586,313;15,85782
 592,33; 5857,541;  293,086;35815,051;15,66483
 592,91; 5813,826;  252,779;35952,788;15,57716
 593,49; 5814,167;  259,472;36396,482;15,37121
 594,07; 5800,157;  273,010;36539,862;15,24022
 594,65; 5757,593;  278,932;36458,604;15,14293
 595,23; 5767,137;  267,163;36971,785;14,98442
 595,81; 5733,710;  264,933;37058,179;14,86354
 596,39; 5656,612;  259,009;37120,051;14,64311
 596,97; 5660,791;  260,856;37369,541;14,55167
 597,55; 5605,397;  251,163;37243,691;14,47382
 598,12; 5558,432;  243,626;37252,491;14,36090
 598,70; 5542,172;  238,395;37384,802;14,27803
 599,28; 5508,224;  252,702;37532,327;14,09757
 599,86; 5465,920;  251,087;37624,562;13,95330
 600,44; 5429,255;  218,164;37634,990;13,92713
 601,02; 5470,807;  261,473;37607,537;13,94882
 601,60; 5336,785;  249,010;37692,240;13,58797
 602,18; 5320,146;  227,087;37760,235;13,56949
 602,75; 5272,235;  228,086;37816,367;13,41947
 603,33; 5202,644;  244,856;37813,806;13,19650
 603,91; 5159,913;  228,472;37735,988;13,14787
 604,49; 5174,185;  255,549;37919,537;13,05926
 605,07; 5143,397;  258,087;37892,202;12,98107
 605,65; 5096,314;  263,087;37828,516;12,86616
 606,23; 5089,825;  345,009;38089,766;12,57079
 606,80; 5049,815;  375,394;38053,273;12,40627
 607,38; 4999,638;  420,088;38173,625;12,13012
 607,96; 5014,420;  460,856;38192,653;12,06824
 608,54; 5024,587;  528,318;38274,038;11,91200
 609,12; 4943,867;  537,702;38322,952;11,66107
 609,70; 4933,319;  574,087;38394,109;11,52625
 610,27; 4891,413;  572,471;38341,038;11,43528
 610,85; 4898,990;  583,010;38466,100;11,39289
 611,43; 4813,693;  580,549;38473,524;11,17132
 612,01; 4725,279;  557,010;38197,877;11,07379
 612,59; 4720,840;  540,164;38279,216;11,07785
 613,16; 4673,659;  514,163;38255,019;11,02120
 613,74; 4653,004;  475,933;38005,563;11,13006
 614,32; 4580,803;  446,318;38048,722;10,99527
 614,90; 4548,743;  421,779;37967,523;10,99183
 615,48; 4501,414;  369,471;37642,276;11,08568
 616,05; 4434,506;  333,624;37708,292;10,97236
 616,63; 4410,982;  337,778;37300,539;11,01975
 617,21; 4377,396;  335,855;37342,529;10,92111
 617,79; 4336,374;  325,471;37239,624;10,86549
 618,36; 4321,670;  323,779;37037,877;10,88925
 618,94; 4211,788;  255,394;36831,614;10,81685
 619,52; 4211,964;  285,701;36580,373;10,81774
 620,10; 4113,647;  280,009;36601,034;10,55487
 620,67; 4136,573;  278,547;36485,988;10,65534
 621,25; 4103,152;  311,010;36332,193;10,52753
 621,83; 4080,421;  285,086;36254,353;10,55160
 622,41; 4104,785;  323,471;36257,268;10,52300
 622,98; 4017,972;  299,778;36033,766;10,40520
 623,56; 4028,262;  295,086;35950,300;10,47021
 624,14; 3954,658;  271,164;35808,053;10,36527
 624,72; 3930,966;  283,086;35743,165;10,28729
 625,29; 3923,084;  268,624;35732,595;10,30471
 625,87; 3923,793;  308,010;35786,641;10,19144
 626,45; 3859,738;  265,624;35596,350;10,17277
 627,02; 3833,790;  263,010;35574,791;10,11215
 627,60; 3809,937;  258,626;35490,755;10,07975
 628,18; 3801,790;  244,240;35594,183;10,06381
 628,76; 3775,524;  259,547;35594,347; 9,95046
 629,33; 3786,019;  269,317;35636,853; 9,94331
 629,91; 3775,109;  256,009;35550,649; 9,97063
 630,49; 3780,649;  277,471;35666,134; 9,89916
 631,06; 3771,555;  271,317;35835,899; 9,84192
 631,64; 3791,752;  264,855;35698,240; 9,95360
 632,22; 3712,264;  239,239;35773,392; 9,77377
 632,79; 3745,624;  258,470;36012,918; 9,75306
 633,37; 3756,614;  234,471;36065,005; 9,83000
 633,95; 3748,539;  257,547;36057,791; 9,75131
 634,52; 3721,879;  224,702;36271,469; 9,70178
 635,10; 3745,717;  223,625;36225,572; 9,78306
 635,68; 3759,820;  239,470;36398,362; 9,73578
 636,25; 3733,951;  225,931;36481,485; 9,67581
 636,83; 3745,986;  212,240;36640,886; 9,70046
 637,41; 3763,681;  215,701;36642,490; 9,74003
 637,98; 3778,625;  249,162;36838,310; 9,64620
 638,56; 3751,784;  245,085;37009,638; 9,53826
 639,13; 3753,430;  224,470;37001,112; 9,59566
 639,71; 3840,489;  269,394;37268,903; 9,65174
 640,29; 3760,962;  200,394;37032,628; 9,66699
 640,86; 3773,833;  214,086;37229,056; 9,61705
 641,44; 3765,473;  222,317;37145,176; 9,59611
 642,02; 3778,344;  238,471;37227,218; 9,57014
 642,59; 3814,446;  210,163;37250,569; 9,73068
 643,17; 3756,086;  216,624;37360,919; 9,52895
 643,74; 3780,957;  213,317;37234,731; 9,63669
 644,32; 3815,597;  251,548;37263,082; 9,62956
 644,89; 3787,468;  233,086;37256,971; 9,60024
 645,47; 3791,877;  262,317;37298,860; 9,52994
 646,05; 3821,056;  226,009;37154,057; 9,73527
 646,62; 3790,542;  230,855;37231,484; 9,62061
 647,20; 3803,566;  238,932;37420,758; 9,58703
 647,77; 3778,360;  210,009;37197,954; 9,64734
 648,35; 3768,847;  213,086;37083,689; 9,64389
 648,92; 3825,179;  241,009;37129,425; 9,71625
 649,50; 3786,281;  203,778;37099,929; 9,70969
 650,08; 3765,998;  198,317;37006,356; 9,69267
 650,65; 3828,330;  201,471;37262,092; 9,78629
 651,23; 3917,047;  207,548;38161,904; 9,77358
 651,80; 4000,918;  209,779;39002,254; 9,77287
 652,38; 4107,250;  215,394;39431,451; 9,92414
 652,95; 4087,660;  196,932;39754,571; 9,83559
 653,53; 4217,454;  219,702;39976,998;10,05539
 654,10; 4228,171;  243,932;40173,964; 9,97805
 654,68; 4163,657;  211,086;40104,007; 9,90795
 655,25; 4206,681;  201,702;40172,896;10,01966
 655,83; 4247,091;  206,394;40271,246;10,08539
 656,40; 4251,962;  227,394;40136,674;10,08429
 656,98; 4243,525;  207,471;40074,255;10,12385
 657,55; 4212,011;  212,702;39932,682;10,06876
 658,13; 4228,266;  201,702;39496,571;10,24705
 658,70; 4219,983;  232,086;39202,922;10,23303
 659,28; 4105,854;  222,010;38260,888;10,21020
 659,85; 4042,110;  218,856;37545,777;10,24262
 660,43; 4046,904;  228,856;37693,743;10,19100
 661,00; 4068,928;  211,856;37842,786;10,24974
 661,58; 4095,876;  199,856;38096,290;10,28070
 662,15; 4132,901;  195,548;38274,641;10,33993
 662,73; 4227,772;  255,779;38669,760;10,33997
 663,30; 4227,566;  216,087;38896,649;10,37079
 663,88; 4297,283;  216,779;39132,077;10,48560
 664,45; 4289,230;  207,702;39339,350;10,43025
 665,03; 4361,947;  216,010;39734,162;10,49122
 665,60; 4528,664;  273,933;40079,436;10,68880
 666,17; 4489,151;  218,164;40213,633;10,67868
 666,75; 4543,483;  210,010;40594,291;10,73059
 667,32; 4600,662;  226,548;40927,949;10,74684
 667,90; 4629,071;  213,471;41280,069;10,75229
 668,47; 4679,172;  229,625;41381,727;10,81244
 669,05; 4744,351;  208,087;41795,539;10,90777
 669,62; 4745,914;  185,395;41861,736;10,94271
 670,19; 4807,785;  204,087;41920,856;11,03561
 670,77; 4849,579;  216,241;42237,283;11,02623
 671,34; 4856,450;  204,856;42056,634;11,11445
 671,92; 4913,475;  201,856;42458,907;11,14990
 672,49; 4950,653;  232,010;42329,565;11,20883
 673,06; 4949,678;  171,472;42392,685;11,31707
 673,64; 4968,241;  187,625;42370,959;11,33295
 674,21; 4993,804;  191,087;42297,848;11,40605
 674,79; 5098,906;  211,241;42510,506;11,55496
 675,36; 5126,777;  224,626;42634,395;11,55901
 675,93; 5107,724;  185,395;42558,822;11,61655
 676,51; 5158,057;  231,472;42655,250;11,61279
 677,08; 5207,389;  211,856;42699,062;11,75773
 677,65; 5285,952;  204,933;42771,259;11,93671
 678,23; 5343,208;  209,395;43135,224;11,95973
 678,80; 5350,771;  195,780;43281,960;11,96437
 679,38; 5402,488;  207,933;43472,695;12,00643
 679,95; 5485,359;  217,626;43720,276;12,10899
 680,52; 5552,460;  206,318;43988,780;12,21069
 681,10; 5632,947;  218,472;44433,439;12,24580
 681,67; 5718,740;  219,164;44791,097;12,33865
 682,24; 5738,150;  191,857;44849,909;12,41947
 682,82; 5828,021;  199,626;45425,798;12,44499
 683,39; 5954,584;  238,857;45725,302;12,56578
 683,96; 6018,147;  202,780;45906,730;12,72399
 684,54; 6070,018;  195,395;46337,080;12,73170
 685,11; 6224,119;  224,318;46704,200;12,90838
 685,68; 6256,529;  214,087;47093,627;12,88929
 686,25; 6278,015;  195,857;47210,209;12,93681
 686,83; 6389,424;  202,857;47313,175;13,13209
 687,40; 6482,987;  189,241;47709,294;13,24440
 687,97; 6620,397;  227,241;48147,183;13,34133
 688,55; 6643,421;  191,472;48144,688;13,45467
 689,12; 6696,754;  186,318;48370,731;13,51150
 689,69; 6754,932;  179,780;48471,696;13,61543
 690,26; 6861,572;  210,395;48612,355;13,74155
 690,84; 6904,751;  194,934;48750,474;13,81885
 691,41; 6976,468;  207,703;48757,671;13,94185
 691,98; 7032,031;  211,703;49097,099;13,95167
 692,56; 7053,440;  184,472;49191,141;14,01639
 693,13; 7175,388;  249,549;49151,953;14,16257
 693,70; 7213,028;  224,934;49352,304;14,22444
 694,27; 7265,745;  206,549;49474,193;14,32826
 694,84; 7306,770;  199,780;49548,005;14,40171
 695,42; 7441,487;  233,703;49732,125;14,56164
 695,99; 7454,512;  217,472;49894,398;14,56821
 696,56; 7483,536;  192,396;49755,595;14,71080
 697,13; 7620,869;  209,549;50070,792;14,86389
 697,71; 7635,586;  186,934;50102,065;14,92263
 698,28; 7713,610;  199,242;50599,416;14,90941
 698,85; 7773,635;  166,088;50532,536;15,10440
 699,42; 7838,891;  185,549;50656,348;15,16390
 699,99; 7906,608;  218,626;50743,006;15,21638
 700,57; 7945,863;  206,857;50905,049;15,26486
 701,14; 8047,888;  192,396;51031,092;15,45180
 701,71; 8115,605;  219,319;51123,596;15,51203
 702,28; 8193,553;  203,703;51221,716;15,66084
 702,85; 8229,731;  208,242;51270,682;15,70918
 703,43; 8345,217;  222,396;51474,417;15,84878
 704,00; 8485,165;  230,627;51701,844;16,03719
 704,57; 8501,728;  214,165;51713,964;16,09242
 705,14; 8577,599;  242,242;52035,391;16,09355
 705,71; 8692,393;  248,396;51984,357;16,32133
 706,28; 8643,802;  217,011;51819,246;16,33028
 706,86; 8830,289;  240,627;52259,212;16,51268
 707,43; 8870,544;  266,165;52100,947;16,59962
 708,00; 8881,415;  244,704;52080,529;16,66166
 708,57; 8901,824;  209,319;52025,495;16,77566
 709,14; 9007,618;  242,550;52156,076;16,88398
 709,71; 9072,027;  223,627;52259,580;17,00440
 710,28; 9104,591;  219,550;52565,623;16,97365
 710,86; 9186,461;  227,242;52586,358;17,11110
 711,43; 9315,255;  244,165;52668,709;17,30314
 712,00; 9398,818;  229,935;52860,752;17,42113
 712,57; 9461,689;  239,935;52817,564;17,53931
 713,14; 9497,483;  218,550;53009,683;17,57669
 713,71; 9548,200;  226,012;52880,957;17,70430
 714,28; 9585,379;  224,012;52901,077;17,77124
 714,85; 9621,404;  196,627;52665,427;17,96263
 715,42; 9700,890;  215,627;52958,316;17,98403
 716,00; 9776,145;  254,396;53062,897;18,03071
 716,57; 9837,939;  206,089;53119,248;18,20313
 717,14; 9856,887;  200,165;53041,752;18,27485
 717,71; 9957,989;  192,858;53116,180;18,45147
 718,28;10065,244;  225,550;53222,453;18,56654
 718,85;10070,807;  194,935;53175,342;18,64061
 719,42;10161,524;  223,396;53318,154;18,71772
 719,99;10152,780;  195,704;53138,120;18,80737
 720,56;10348,804;  222,089;53585,702;18,97682
 721,13;10424,060;  202,012;53579,437;19,15051
 721,70;10419,084;  192,166;53442,864;19,20523
 722,27;10553,494;  219,166;53494,446;19,39798
 722,84;10621,288;  247,396;53590,565;19,44746
 723,41;10673,928;  191,243;53629,608;19,61640
 723,98;10758,260;  201,243;53860,420;19,67421
 724,55;10867,823;  238,320;53924,848;19,79920
 725,12;10843,540;  158,627;53764,737;19,93227
 725,69;11001,257;  196,781;54047,395;20,06379
 726,27;11077,128;  207,858;54041,976;20,19030
 726,84;11183,076;  204,627;54414,634;20,25170
 727,41;11278,178;  223,550;54344,370;20,42583
 727,98;11367,510;  224,935;54713,797;20,44927
 728,55;11481,535;  240,166;54539,301;20,70267
 729,12;11507,252;  190,935;54672,806;20,77079
 729,69;11663,430;  232,012;54866,079;20,92361
 730,26;11708,763;  237,320;55057,584;20,92555
 730,82;11736,326;  206,935;54970,703;21,05295
 731,39;11854,427;  210,551;54992,592;21,25492
 731,96;11985,067;  203,397;55354,174;21,36266
 732,53;12086,092;  223,166;55482,293;21,46781
 733,10;12169,732;  231,243;55594,952;21,56375
 733,67;12284,372;  230,397;55848,148;21,67289
 734,24;12265,012;  216,858;55370,191;21,84483
 734,81;12354,729;  229,012;55575,696;21,90866
 735,38;12319,216;  215,320;55266,508;21,98662
 735,95;12321,702;  205,166;55096,550;22,07366
 736,52;12387,727;  235,089;55317,593;22,06261
 737,09;12390,367;  228,397;55024,636;22,19490
 737,66;12516,314;  262,243;55225,910;22,29486
 738,23;12576,262;  206,397;55259,568;22,46894
 738,80;12773,441;  258,243;55575,226;22,62451
 739,37;12743,465;  241,474;55747,961;22,52348
 739,94;12861,413;  218,859;55748,235;22,76733
 740,51;13014,207;  305,474;55838,432;22,88503
 741,07;12963,001;  224,859;55750,474;22,94102
 741,64;13072,026;  240,551;55956,363;23,03022
 742,21;13143,743;  217,166;56078,637;23,14042
 742,78;13130,690;  201,243;55809,218;23,25107
 743,35;13298,331;  212,551;56235,107;23,35805
 743,92;13404,201;  264,013;56241,073;23,47424
 744,49;13433,149;  228,013;56096,501;23,63611
 745,06;13421,789;  210,013;56166,697;23,61072
 745,63;13499,891;  207,090;56169,586;23,75305
 746,19;13594,916;  209,551;56107,168;23,94622
 746,76;13661,094;  230,551;56238,749;23,97960
 747,33;13676,042;  217,859;56054,484;24,10279
 747,90;13828,297;  240,397;56400,219;24,19506
 748,47;13868,707;  222,244;56178,493;24,38774
 749,04;13916,501;  226,782;56162,305;24,47410
 749,61;14017,064;  248,244;56187,732;24,61378
 750,17;14072,473;  238,244;56351,544;24,65410
 750,74;14123,113;  231,859;56209,510;24,81571
 751,31;14123,445;  220,244;56066,092;24,89568
 751,88;14187,932;  201,167;56004,750;25,06428
 752,45;14306,495;  221,013;56076,562;25,21770
 753,02;14349,904;  235,013;55992,758;25,31467
 753,58;14338,160;  207,474;55871,724;25,38557
 754,15;14457,030;  215,936;56093,767;25,48613
 754,72;14359,440;  207,167;55855,195;25,43176
 755,29;14369,849;  199,705;55814,468;25,47910
 755,86;14516,566;  221,167;55911,973;25,66923
 756,42;14556,514;  227,244;55749,323;25,80824
 756,99;14570,923;  196,859;55730,289;25,88362
 757,56;14573,256;  197,398;55635,024;25,93159
 758,13;14644,819;  170,705;55714,529;26,05891
 758,70;14786,690;  187,321;55711,879;26,29353
 759,26;14887,099;  197,090;55807,076;26,41613
 759,83;14916,047;  198,090;55915,426;26,41540
 760,40;14966,918;  184,321;55664,008;26,64506
 760,97;14976,327;  177,936;55709,897;26,64842
 761,53;14943,121;  175,167;55292,862;26,79349
 762,10;15032,453;  171,321;55418,675;26,89927
 762,67;15010,939;  208,706;55261,102;26,88754
 763,24;14952,195;  154,552;55011,376;26,97503
 763,80;15039,450;  190,706;55073,418;27,05541
 764,37;15058,321;  192,859;54953,307;27,14635
 764,94;15039,884;  183,090;54539,889;27,33199
 765,50;15037,063;  178,398;54532,855;27,33661
 766,07;15150,934;  221,936;54550,974;27,47885
 766,64;15137,189;  181,321;54185,171;27,69408
 767,21;15101,829;  189,629;54028,368;27,69790
 767,77;15145,469;  206,475;54018,180;27,76161
 768,34;15180,956;  207,937;53990,223;27,84006
 768,91;15219,057;  214,013;53849,189;27,97613
 769,47;15326,851;  210,937;53857,308;28,17696
 770,04;15274,722;  202,783;53783,428;28,12945
 770,61;15313,516;  202,475;53440,009;28,38419
 771,18;15317,694;  187,629;53325,744;28,47309
 771,74;15467,104;  202,552;53585,249;28,59457
 772,31;15434,128;  210,706;53371,599;28,63651
 772,88;15330,768;  184,167;53081,873;28,63376
 773,44;15381,562;  197,860;52800,070;28,86514
 774,01;15523,202;  210,860;53040,959;28,98413
 774,58;15406,689;  196,168;52673,232;28,98508
 775,14;15515,098;  189,014;52862,506;29,09639
 775,71;15525,661;  190,552;52706,241;29,20101
 776,27;15638,609;  237,937;52611,361;29,40551
 776,84;15709,403;  254,706;52651,711;29,49538
 777,41;15695,504;  217,860;52505,216;29,60112
 777,97;15593,375;  199,629;52204,258;29,60072
 778,54;15624,631;  203,322;52232,301;29,63985
 779,11;15672,040;  232,322;52317,729;29,64308
 779,67;15744,988;  192,398;52169,925;29,92176
 780,24;15791,782;  215,552;51941,430;30,11303
 780,80;15849,576;  230,552;51913,242;30,22100
 781,37;15906,831;  215,399;51974,054;30,31654
 781,94;15834,625;  213,783;51672,020;30,35635
 782,50;15848,650;  219,706;51698,678;30,35986
 783,07;15947,751;  237,014;51642,875;30,56215
 783,63;15880,699;  190,322;51544,302;30,55338
 784,20;15919,416;  235,553;51440,268;30,62973
 784,77;15902,056;  214,322;51211,388;30,76203
 785,33;15873,696;  196,937;51066,508;30,81756
 785,90;15994,260;  212,476;51080,397;31,02502
 786,46;16028,053;  234,553;50914,132;31,16344
 787,03;15941,924;  197,783;50790,867;31,11916
 787,59;16007,949;  208,322;50631,140;31,33428
 788,16;16016,512;  216,706;50664,568;31,31908
 788,73;16015,614;  223,399;50437,380;31,44984
 789,29;15974,562;  205,168;50103,192;31,60324
 789,86;16031,740;  231,245;50010,466;31,74115
 790,42;16058,303;  213,168;49875,124;31,90598
 790,99;15912,251;  228,553;49488,321;31,83876
 791,55;15995,045;  209,168;49533,286;32,00438
 792,12;15984,531;  231,476;49512,406;31,96582
 792,68;15987,094;  208,937;49095,680;32,27492
 793,25;15915,734;  226,937;48901,569;32,23198
 793,81;15982,298;  268,937;48494,612;32,58298
 794,38;15775,245;  196,322;48275,962;32,40233
 794,94;15878,501;  198,476;48162,005;32,69156
 795,51;15887,987;  230,938;47886,279;32,85476
 796,07;15845,242;  218,476;47564,168;33,00568
 796,64;15916,498;  226,399;47808,672;32,97467
 797,20;15864,446;  224,015;47354,022;33,18572
 797,77;15789,547;  205,015;46997,065;33,30594
 798,33;15703,803;  222,245;46805,723;33,23401
 798,90;15806,289;  243,861;46821,074;33,41211
 799,46;15672,621;  220,015;46297,578;33,53608
 800,03;15710,185;  220,861;46275,929;33,63218
 800,59;15610,440;  235,476;45994,818;33,59962
 801,15;15642,696;  230,476;45830,245;33,79890
 801,72;15562,028;  230,322;45478,057;33,88392
 802,28;15580,899;  259,399;45207,562;34,08704
 802,85;15555,693;  228,784;45054,297;34,19238
 803,41;15518,487;  218,092;44878,263;34,25960
 803,98;15430,204;  215,553;44497,306;34,35874
 804,54;15373,074;  229,015;44161,733;34,47103
 805,11;15317,791;  224,784;44049,161;34,43975
 805,67;15432,201;  250,323;43958,357;34,73475
 806,23;15280,456;  230,169;43495,939;34,78567
 806,80;15366,327;  247,476;43403,212;35,03324
 807,36;15359,198;  239,630;43432,563;35,00473
 807,93;15342,838;  233,630;43096,836;35,24983
 808,49;15332,170;  205,169;42759,648;35,54738
 809,05;15265,041;  191,092;42576,537;35,56398
 809,62;15289,143;  232,092;42497,119;35,62532
 810,18;15266,321;  229,553;42374,084;35,67905
 810,74;15234,654;  199,015;42189,589;35,80718
 811,31;15250,371;  195,784;41949,555;36,05563
 811,87;15203,395;  217,554;41813,598;36,02708
 812,44;15267,574;  237,630;41883,564;36,08982
 813,00;15190,060;  181,092;41517,683;36,30916
 813,56;15248,393;  232,861;41640,265;36,26291
 814,13;15246,263;  225,861;41665,077;36,24683
 814,69;15202,673;  229,554;41382,735;36,38387
 815,25;15087,159;  200,400;40900,778;36,57646
 815,82;15178,568;  230,631;40897,513;36,75703
 816,38;15243,824;  252,092;40699,633;37,06463
 816,94;15005,079;  206,477;40456,060;36,76709
 817,51;15054,642;  201,400;40201,795;37,13274
 818,07;14988,052;  203,169;39878,530;37,26465
 818,63;14873,538;  229,708;39651,188;37,14683
 819,20;14999,409;  224,938;39564,231;37,55652
 819,76;14802,433;  207,246;39142,813;37,48549
 820,32;14841,304;  256,169;39117,471;37,53126
 820,89;14752,714;  243,323;38874,668;37,55860
 821,45;14661,585;  212,785;38522,018;37,71623
 822,01;14651,994;  239,015;38368,753;37,79984
 822,57;14638,557;  236,939;38122,411;38,01356
 823,14;14524,120;  209,246;38010,685;37,86860
 823,70;14481,529;  211,477;37733,420;38,03122
 824,26;14432,246;  211,015;37560,001;38,07662
 824,82;14456,656;  228,708;37415,813;38,26043
 825,39;14375,065;  217,708;37118,241;38,36627
 825,95;14350,321;  232,477;37037,976;38,35797
 826,51;14192,576;  230,016;36661,711;38,32531
 827,08;14233,831;  246,554;36741,062;38,32708
 827,64;14134,856;  231,785;36610,028;38,21809
 828,20;14136,342;  206,554;36350,070;38,54021
 828,76;14152,675;  235,708;36260,344;38,63180
 829,32;14145,699;  241,862;36114,079;38,75935
 829,89;14077,032;  203,631;35993,507;38,76348
 830,45;14073,903;  215,785;35818,396;38,92444
 831,01;14071,774;  216,554;35771,515;38,96846
 831,57;14046,183;  223,477;35624,789;39,04574
 832,14;14050,977;  218,477;35559,832;39,13970
 832,70;14005,540;  210,862;35379,029;39,22490
 833,26;14024,718;  184,939;35228,994;39,49252
 833,82;14060,359;  221,016;35148,960;39,62255
 834,38;13957,383;  204,785;35247,772;39,24494
 834,95;13929,716;  209,400;35016,815;39,41779
 835,51;13913,740;  182,401;34926,781;39,52104
 836,07;14030,227;  223,785;35040,593;39,65453
 836,63;14049,713;  231,708;35020,098;39,72016
 837,19;13988,507;  219,401;34756,987;39,86702
 837,75;13899,301;  185,708;34560,029;39,89487
 838,32;13968,556;  231,554;34622,841;39,94326
 838,88;13945,581;  238,016;34675,500;39,80420
 839,44;14040,375;  219,401;34458,235;40,36637
 840,00;14042,092;  222,324;34399,278;40,43593
 840,56;13868,193;  203,862;34165,551;40,23455
 841,12;13964,756;  199,862;34099,825;40,60445
 841,68;13914,704;  190,324;33935,483;40,67066
 842,25;13900,806;  200,708;33989,449;40,54634
 842,81;13830,831;  189,708;33763,569;40,63019
 843,37;13867,317;  186,939;33641,996;40,89181
 843,93;13874,803;  202,709;33671,808;40,84990
 844,49;13950,674;  213,555;33658,697;41,07359
 845,05;13847,776;  179,016;33464,586;41,06512
 845,61;13910,339;  226,785;33565,552;41,04397
 846,17;13854,210;  206,632;33410,441;41,10245
 846,73;13907,234;  211,093;33349,099;41,33061
 847,29;13808,797;  198,555;33127,527;41,33212
 847,86;13840,822;  209,170;33115,185;41,42602
 848,42;13871,154;  195,401;32856,920;41,87115
 848,98;13859,641;  205,632;32878,732;41,78976
 849,54;13855,896;  203,247;32831,467;41,84307
 850,10;13865,690;  216,478;32745,279;41,96039
 850,66;13854,176;  199,478;32511,168;42,25931
 851,22;13856,816;  191,016;32407,211;42,41904
 851,78;13869,995;  239,786;32581,485;42,14438
 852,34;13853,789;  219,324;32270,451;42,53974
 852,90;13863,737;  207,478;32195,570;42,69169
 853,46;13788,223;  188,247;31920,459;42,85858
 854,02;13814,863;  216,401;31898,425;42,92169
 854,58;13815,888;  205,401;31641,468;43,29577
 855,14;13785,912;  193,940;31606,511;43,26921
 855,70;13758,245;  166,555;31445,400;43,45330
 856,26;13745,423;  224,709;31435,827;43,32019
 856,82;13729,063;  194,709;31250,563;43,58069
 857,38;13730,550;  230,017;31264,144;43,50222
 857,94;13706,805;  211,555;31077,110;43,72269
 858,50;13751,214;  213,324;30971,845;44,01346
 859,06;13705,854;  204,786;30794,119;44,13653
 859,62;13685,571;  214,171;30736,161;44,13670
 860,18;13614,442;  208,171;30545,666;44,19044
 860,74;13540,313;  177,325;30374,247;44,25282
 861,30;13522,107;  176,094;30279,598;44,33375
 861,86;13611,209;  231,248;30364,948;44,40198
 862,42;13491,079;  210,709;30084,991;44,45419
 862,98;13610,566;  235,325;30010,880;44,92021
 863,54;13445,667;  206,325;29777,692;44,77082
 864,10;13493,461;  200,632;29861,504;44,81604
 864,66;13445,024;  177,786;29653,008;45,01150
 865,22;13491,203;  209,632;29465,590;45,39783
 865,78;13447,843;  211,786;29383,402;45,37307
 866,34;13408,791;  207,017;29318,368;45,34923
 866,90;13450,277;  226,017;29252,410;45,55943
 867,45;13389,456;  221,786;28986,223;45,77760
 868,01;13323,711;  213,171;28949,573;45,62346
 868,57;13325,197;  209,556;28593,231;46,20840
 869,13;13242,453;  190,248;28553,351;46,01825
 869,69;13198,785;  189,402;28412,317;46,09511
 870,25;13209,810;  194,940;28284,052;46,33422
 870,81;13199,296;  213,786;28210,941;46,38153
 871,37;13181,167;  207,171;28206,676;46,33652
 871,93;13071,961;  226,863;27964,181;46,30980
 872,49;13080,370;  223,094;27773,531;46,66814
 873,04;12982,164;  203,402;27623,651;46,60338
 873,60;12900,650;  197,556;27409,694;46,68172
 874,16;12911,137;  207,017;27378,121;46,75599
 874,72;12915,444;  194,248;27259,121;47,00261
 875,28;12898,060;  209,479;27254,583;46,91637
 875,84;12933,137;  207,787;27177,429;47,18398
 876,40;12871,367;  203,094;27136,583;47,03540
 876,95;12902,521;  220,094;27097,275;47,18660
 877,51;13038,367;  234,633;27088,583;47,67915
 878,07;13027,060;  242,017;27203,967;47,41883
 878,63;13086,290;  203,787;27116,967;47,86689
 879,19;13087,752;  226,171;27111,044;47,83947
 879,75;13120,752;  205,479;27221,660;47,80570
 880,30;13169,752;  204,710;27218,813;47,99361
 880,86;13263,444;  235,787;27351,352;48,04494
 881,42;13304,137;  192,710;27380,737;48,22500
 881,98;13326,060;  231,248;27497,737;48,02530
 882,54;13411,752;  207,787;27677,813;48,06681
 883,09;13539,675;  222,556;27728,890;48,41474
 883,65;13650,290;  189,863;27895,967;48,58289
 884,21;13801,752;  234,479;28106,967;48,67622
 884,77;13842,521;  204,479;28148,198;48,80539
 885,32;14042,137;  208,017;28301,967;49,24234
 885,88;14161,060;  248,633;28505,121;49,23622
 886,44;14253,598;  220,479;28639,429;49,37944
 887,00;14305,752;  237,402;28713,352;49,40432
 887,56;14447,213;  208,633;28820,737;49,76419
 888,11;14485,752;  208,556;28820,660;49,89915
 888,67;14634,598;  237,402;29049,583;49,96913
 889,23;14640,675;  213,633;29155,737;49,84794
 889,79;14645,598;  197,556;28932,198;50,28092
 890,34;14706,367;  210,863;28913,044;50,50314
 890,90;14833,367;  264,710;29075,352;50,56693
 891,46;14767,290;  194,402;28963,967;50,65384
 892,01;14857,752;  233,402;29017,660;50,80676
 892,57;14836,598;  239,633;28921,813;50,89210
 893,13;14804,675;  209,402;28708,275;51,21351
 893,69;14733,444;  199,787;28602,583;51,16981
 894,24;14668,060;  226,479;28535,967;51,01322
 894,80;14669,444;  229,171;28394,275;51,27009
 895,36;14606,213;  217,787;28279,198;51,27478
 895,91;14492,444;  210,402;27991,890;51,40848
 896,47;14528,060;  227,710;27950,352;51,58365
 897,03;14440,444;  203,556;27715,429;51,74816
 897,58;14370,521;  228,556;27554,275;51,75331
 898,14;14289,367;  224,094;27410,737;51,73597
 898,70;14185,906;  184,863;27270,583;51,69160
 899,25;14284,752;  208,248;27270,583;52,01511
 899,81;14179,752;  227,017;27002,352;52,11040
 900,37;14046,983;  183,863;26745,967;52,19134
 900,92;14114,906;  222,402;26673,737;52,52099
 901,48;13931,521;  206,633;26537,429;52,12485
 902,03;13864,060;  206,479;26396,737;52,14756
 902,59;13863,367;  209,402;26331,275;52,27024
 903,15;13874,444;  229,479;26172,352;52,59620
 903,70;13679,598;  215,556;25943,121;52,33314
 904,26;13659,137;  203,402;25826,737;52,51360
 904,82;13670,675;  216,248;25825,506;52,53736
 905,37;13634,367;  219,710;25617,660;52,81788
 905,93;13580,521;  206,633;25516,275;52,84108
 906,48;13544,598;  214,787;25397,813;52,93173
 907,04;13511,444;  231,556;25286,275;53,00354
 907,60;13449,752;  210,094;25075,044;53,24627
 908,15;13331,829;  195,710;24944,660;53,07748
 908,71;13393,444;  240,479;25003,737;53,11484
 909,26;13356,137;  195,556;24794,044;53,50158
 909,82;13307,367;  223,017;24712,506;53,42843
 910,37;13306,290;  248,325;24564,660;53,70039
 910,93;13156,598;  199,094;24395,275;53,55186
 911,48;13153,213;  203,479;24242,583;53,86946
 912,04;13108,752;  207,633;24199,275;53,77339
 912,60;13208,675;  209,710;24197,352;54,19026
 913,15;13070,367;  214,863;23988,813;54,07391
 913,71;12922,290;  200,940;23847,506;53,79788
 914,26;12974,521;  193,479;23809,506;54,12021
 914,82;12935,906;  209,863;23623,352;54,35347
 915,37;12890,367;  200,940;23601,813;54,22630
 915,93;12863,137;  245,940;23394,660;54,50494
 916,48;12803,367;  204,094;23331,275;54,47821
 917,04;12786,444;  227,325;23243,583;54,56630
 917,59;12782,060;  242,248;23199,275;54,62298
 918,15;12669,137;  186,402;22993,352;54,73215
 918,70;12643,675;  202,940;22793,198;55,07124
 919,26;12676,521;  209,787;22780,121;55,23505
 919,81;12538,675;  203,248;22632,583;54,99685
 920,37;12603,290;  201,940;22625,583;55,30480
 920,92;12603,444;  221,633;22410,660;55,80151
 921,48;12481,829;  192,017;22187,121;55,87521
 922,03;12425,906;  211,402;22143,967;55,69118
 922,59;12424,137;  206,094;22018,583;56,01398
 923,14;12318,829;  202,556;21817,813;56,05426
 923,69;12267,598;  222,248;21830,967;55,74301
 924,25;12382,060;  218,017;21819,660;56,31073
 924,80;12270,137;  220,094;21615,275;56,32129
 925,36;12168,906;  208,094;21564,198;56,00652
 925,91;12141,290;  207,248;21413,583;56,27584
 926,47;12125,598;  194,633;21391,813;56,28562
 927,02;12159,906;  244,325;21247,429;56,73248
 927,57;12079,829;  203,479;21142,121;56,71977
 928,13;12057,444;  196,710;21022,044;56,95339
 928,68;12030,598;  199,710;20910,198;57,12511
 929,24;12004,752;  180,171;20668,967;57,71242
 929,79;11926,675;  192,094;20609,813;57,47253
 930,34;11893,983;  203,940;20470,044;57,68273
 930,90;11862,060;  195,710;20437,890;57,63386
 931,45;11887,290;  210,248;20363,121;57,94232
 932,01;11838,213;  220,940;20308,275;57,83382
 932,56;11864,906;  223,094;20166,044;58,37557
 933,11;11853,290;  222,248;20138,506;58,39974
 933,67;11791,983;  207,940;19942,352;58,69971
 934,22;11771,906;  206,940;19883,121;58,77647
 934,77;11793,213;  238,248;19814,660;59,02494
 935,33;11618,444;  229,248;19655,890;58,62668
 935,88;11633,444;  219,094;19545,737;59,06018
 936,43;11593,213;  201,863;19378,275;59,40293
 936,99;11600,444;  213,633;19397,275;59,35688
 937,54;11470,290;  190,248;19157,660;59,47065
 938,09;11556,367;  218,863;19201,429;59,72588
 938,65;11428,752;  204,479;19017,121;59,66346
 939,20;11370,906;  198,787;19036,890;59,30596
 939,75;11340,444;  197,710;18855,583;59,72135
 940,31;11280,367;  190,633;18727,890;59,82403
 940,86;11332,752;  206,556;18781,352;59,89943
 941,41;11296,213;  260,171;18636,506;60,05573
 941,96;11193,906;  202,094;18465,583;60,18462
 942,52;11263,752;  205,094;18439,506;60,64719
 943,07;11199,983;  183,325;18308,429;60,78121
 943,62;11119,290;  204,248;18210,967;60,61650
 944,18;11101,367;  193,402;18141,121;60,77633
 944,73;11119,060;  211,171;18004,121;61,30455
 945,28;10951,290;  171,940;17833,506;61,03281
 945,83;10946,137;  210,171;17933,275;60,57610
 946,39;10951,060;  203,479;17847,198;60,91449
 946,94;10955,213;  221,325;17754,890;61,21909
 947,49;10894,367;  199,402;17674,890;61,19981
 948,04;10885,444;  225,325;17612,275;61,31104
 948,59;10869,290;  225,863;17549,275;61,43955
 949,15;10789,137;  193,710;17439,044;61,43938
 949,70;10800,752;  194,940;17307,737;61,97591
 950,25;10733,521;  221,710;17227,583;61,81283
 950,80;10705,752;  177,094;17162,583;61,98619
 951,36;10590,675;  168,633;17053,813;61,72301
 951,91;10614,444;  216,017;17033,660;61,83047
 952,46;10545,213;  186,710;16851,198;62,15915
 953,01;10646,060;  220,017;16874,429;62,60229
 953,56;10559,060;  190,710;16723,813;62,71266
 954,11;10549,598;  210,017;16666,429;62,83011
 954,67;10464,137;  190,325;16595,660;62,62482
 955,22;10417,367;  176,940;16448,506;62,93449
 955,77;10426,213;  226,710;16405,967;63,04062
 956,32;10368,752;  240,863;16313,429;63,01352
 956,87;10310,521;  192,248;16185,506;63,26587
 957,42;10310,521;  200,710;16126,352;63,48134
 957,98;10204,983;  191,171;16080,890;63,02070
 958,53;10256,367;  219,171;15989,044;63,64792
 959,08;10156,444;  188,710;15911,044;63,39857
 959,63;10109,060;  189,940;15775,121;63,64456
 960,18;10081,060;  210,402;15762,737;63,46737
 960,73;10049,213;  216,325;15724,198;63,40578
 961,28; 9968,213;  184,710;15541,352;63,70861
 961,83;10027,367;  214,633;15585,737;63,83884
 962,39; 9946,137;  191,171;15382,429;64,21434
 962,94; 9857,598;  219,017;15371,967;63,60861
 963,49; 9803,983;  210,402;15196,352;64,01717
 964,04; 9810,829;  219,940;15130,352;64,32343
 964,59; 9699,983;  176,633;15055,660;64,00519
 965,14; 9818,060;  215,479;15025,198;64,83972
 965,69; 9707,444;  204,787;14934,583;64,51316
 966,24; 9605,983;  200,633;14815,352;64,35532
 966,79; 9605,983;  218,863;14717,506;64,74482
 967,34; 9590,367;  185,094;14596,506;65,26268
 967,89; 9592,983;  202,787;14507,044;65,64616
 968,44; 9511,752;  198,017;14452,967;65,33685
 968,99; 9525,367;  213,863;14338,198;65,92526
 969,55; 9526,367;  202,094;14296,506;66,15582
 970,10; 9456,752;  205,940;14232,660;65,95136
 970,65; 9334,829;  220,094;14076,890;65,77808
 971,20; 9308,444;  196,402;14068,506;65,68609
 971,75; 9294,906;  188,094;13866,813;66,57649
 972,30; 9197,521;  201,787;13871,352;65,80849
 972,85; 9150,983;  190,325;13710,044;66,27843
 973,40; 9084,137;  195,940;13601,583;66,30190
 973,95; 9060,675;  212,633;13533,275;66,42354
 974,50; 9023,444;  232,787;13453,737;66,49036
 975,05; 8974,213;  204,248;13365,967;66,63237
 975,60; 8968,060;  219,094;13343,660;66,66099
 976,15; 8925,521;  199,325;13193,429;67,15504
 976,70; 8892,137;  219,094;13112,890;67,26524
 977,25; 8890,444;  205,633;13075,890;67,47970
 977,80; 8788,367;  194,633;12895,121;67,66460
 978,35; 8705,752;  215,171;12774,583;67,60333
 978,89; 8698,290;  183,325;12760,737;67,70046
 979,44; 8690,829;  209,017;12666,967;68,08353
 979,99; 8598,290;  185,325;12527,506;68,16433
 980,54; 8530,598;  232,325;12426,352;68,05195
 981,09; 8446,906;  216,248;12317,967;68,01230
 981,64; 8451,444;  213,094;12252,506;68,42818
 982,19; 8390,137;  238,633;12166,275;68,34128
 982,74; 8318,137;  226,787;12040,660;68,49024
 983,29; 8239,983;  202,556;11867,198;68,90419
 983,84; 8182,983;  215,633;11817,506;68,67296
 984,39; 8227,367;  255,171;11742,737;69,39848
 984,94; 8027,675;  189,402;11602,583;68,67738
 985,49; 8044,521;  232,402;11616,737;68,62166
 986,03; 7996,906;  235,863;11483,737;69,00009
 986,58; 7899,290;  250,248;11272,583;69,39585
 987,13; 7792,752;  217,940;11179,121;69,10580
 987,68; 7744,367;  224,863;11124,813;68,98659
 988,23; 7686,752;  223,402;11041,660;68,98847
 988,78; 7611,213;  194,940;10871,044;69,46610
 989,33; 7602,752;  222,633;10793,429;69,81612
 989,88; 7597,367;  228,940;10750,583;70,03115
 990,42; 7482,137;  211,556;10600,583;69,98327
 990,97; 7426,675;  207,171;10519,275;70,01000
 991,52; 7424,829;  233,710;10440,429;70,45476
 992,07; 7346,906;  236,710;10326,121;70,47186
 992,62; 7257,906;  223,710;10224,352;70,33744
 993,17; 7206,137;  221,017;10097,890;70,72197
 993,71; 7155,675;  223,094;10045,275;70,58087
 994,26; 7088,983;  204,863; 9927,275;70,80670
 994,81; 7091,906;  242,633; 9874,198;71,11277
 995,36; 7006,290;  206,940; 9703,429;71,59857
 995,91; 6938,906;  215,863; 9595,506;71,67696
 996,45; 6876,829;  221,402; 9499,890;71,72965
 997,00; 6795,444;  195,710; 9390,429;71,77745
 997,55; 6745,137;  220,863; 9359,506;71,39215
 998,10; 6716,213;  236,787; 9199,429;72,29371
 998,65; 6659,983;  214,325; 9193,044;71,78816
 999,19; 6572,598;  231,787; 9026,660;72,09668
 999,74; 6591,829;  241,094; 8959,506;72,84279
1000,29; 6464,598;  235,863; 8835,813;72,42757
1000,84; 6373,752;  209,094; 8706,352;72,54879
1001,38; 6366,598;  212,017; 8637,967;73,04317
1001,93; 6363,906;  237,633; 8545,044;73,74467
1002,48; 6210,829;  200,402; 8430,583;73,02910
1003,03; 6236,444;  218,017; 8380,583;73,73205
1003,57; 6118,137;  223,940; 8267,813;73,27560
1004,12; 6119,137;  240,325; 8173,352;74,10553
1004,67; 5948,983;  216,787; 8122,429;72,50766
1005,22; 5878,137;  214,171; 7957,890;73,14270
1005,76; 5794,367;  204,017; 7781,429;73,77651
1006,31; 5785,290;  233,094; 7764,890;73,71676
1006,86; 5710,752;  211,094; 7661,967;73,81226
1007,40; 5639,137;  198,863; 7516,121;74,34852
1007,95; 5543,675;  215,556; 7444,506;73,70530
1008,50; 5472,983;  217,940; 7290,737;74,29936
1009,04; 5403,213;  215,325; 7252,044;73,72596
1009,59; 5325,521;  221,094; 7065,506;74,57802
1010,14; 5178,983;  215,171; 6978,121;73,39713
1010,68; 5137,521;  210,402; 6885,352;73,81507
1011,23; 5070,598;  215,633; 6783,583;73,91904
1011,78; 5031,521;  230,556; 6716,813;74,01749
1012,32; 5011,906;  227,633; 6596,275;75,12234
1012,87; 4957,983;  239,248; 6569,044;74,54797
1013,42; 4879,444;  200,863; 6439,352;74,99542
1013,96; 4886,444;  236,479; 6478,429;74,49540
1014,51; 4830,521;  183,248; 6356,044;75,28635
1015,06; 4803,290;  194,248; 6373,660;74,58707
1015,60; 4936,906;  248,863; 6441,660;75,70154
1016,15; 4881,444;  200,479; 6417,044;75,29826
1016,69; 4941,829;  215,171; 6450,737;75,80159
1017,24; 4937,444;  191,248; 6452,506;75,80260
1017,79; 5083,906;  244,710; 6527,890;77,01825
1018,33; 5061,290;  206,556; 6545,967;76,58021
1018,88; 5141,598;  222,710; 6613,737;76,96554
1019,42; 5194,675;  217,402; 6592,813;78,06983
1019,97; 5193,213;  207,787; 6645,583;77,43996
1020,51; 5318,444;  221,248; 6675,352;78,97605
1021,06; 5251,213;  195,787; 6637,275;78,48228
1021,61; 5272,213;  180,556; 6637,429;78,85640
1022,15; 5280,367;  178,863; 6638,121;78,97972
1022,70; 5288,367;  216,094; 6619,583;79,21109
1023,24; 5239,290;  191,710; 6585,583;78,94403
1023,79; 5227,675;  213,017; 6536,813;79,29822
1024,33; 5166,444;  211,325; 6439,660;79,55769
1024,88; 5163,137;  218,325; 6365,737;80,43729
1025,42; 5060,752;  213,940; 6206,352;80,88249
1025,97; 5013,675;  197,248; 6175,967;80,55951
1026,51; 4908,290;  171,940; 6032,967;80,81092
1027,06; 4850,060;  199,633; 6030,737;79,75209
1027,60; 4792,521;  203,248; 5913,660;80,36677
1028,15; 4733,906;  220,094; 5816,813;80,65103
1028,69; 4616,444;  181,633; 5645,967;81,15922
1029,24; 4576,290;  202,325; 5606,352;80,93900
1029,78; 4501,444;  189,710; 5507,121;81,08710
1030,33; 4432,137;  174,402; 5402,121;81,44536
1030,87; 4381,290;  197,402; 5345,813;81,26562
1031,42; 4330,829;  183,248; 5266,275;81,59667
1031,96; 4325,367;  213,940; 5201,121;82,43990
1032,51; 4242,752;  191,094; 5094,967;82,62159
1033,05; 4169,829;  208,940; 5082,429;81,27419
1033,60; 4074,752;  174,094; 4932,121;81,98057
1034,14; 4019,367;  202,787; 4839,198;82,31756
1034,69; 3978,137;  199,633; 4803,506;82,07229
1035,23; 3908,983;  203,248; 4736,429;81,74690
1035,77; 3890,137;  198,248; 4712,044;81,79121
1036,32; 3830,290;  184,248; 4588,660;82,78160
1036,86; 3788,213;  201,325; 4551,044;82,46253
1037,41; 3748,060;  211,787; 4464,275;83,15773
1037,95; 3683,444;  181,402; 4387,813;83,25487
1038,50; 3647,367;  196,787; 4359,352;82,89553
1039,04; 3624,290;  211,479; 4286,506;83,74942
1039,58; 3537,521;  177,325; 4229,198;82,92945
1040,13; 3514,137;  201,940; 4152,429;83,84270
1040,67; 3482,906;  231,479; 4135,506;83,28393
1041,21; 3470,444;  230,248; 4055,275;84,71041
1041,76; 3362,983;  186,940; 3982,890;83,66923
1042,30; 3332,521;  199,171; 3926,121;84,07277
1042,85; 3282,290;  201,787; 3836,967;84,74142
1043,39; 3263,444;  190,863; 3820,352;84,65603
1043,93; 3237,137;  220,710; 3775,583;84,85329
1044,48; 3156,752;  206,556; 3680,660;84,91963
1045,02; 3122,290;  199,633; 3651,967;84,65743
1045,56; 3095,290;  225,171; 3618,813;84,57342
1046,11; 3056,060;  209,633; 3548,506;85,25113
1046,65; 3016,521;  216,787; 3522,890;84,68381
1047,19; 2960,290;  192,325; 3449,660;84,97639
1047,74; 2891,752;  179,556; 3397,121;84,29343
1048,28; 2884,983;  207,171; 3367,429;84,73396
1048,82; 2868,983;  215,556; 3326,890;85,28260
1049,37; 2824,752;  213,171; 3282,660;85,08195
1049,91; 2797,367;  214,171; 3209,737;86,23401
1050,45; 2779,521;  218,633; 3190,583;86,16863
1050,99; 2717,983;  208,863; 3146,506;85,41269
1051,54; 2665,829;  201,402; 3081,198;85,57644
1052,08; 2647,137;  221,710; 3041,813;86,00488
1052,62; 2620,213;  219,633; 2988,967;86,68439
1053,16; 2562,521;  197,171; 2941,737;86,18304
1053,71; 2544,290;  208,787; 2931,660;85,77351
1054,25; 2488,752;  212,402; 2884,737;85,18207
1054,79; 2489,906;  206,402; 2830,737;87,01268
1055,33; 2434,983;  182,940; 2764,506;87,23553
1055,88; 2424,367;  217,325; 2750,198;87,13592
1056,42; 2384,829;  223,171; 2709,813;86,93079
1056,96; 2344,906;  216,094; 2692,352;85,96890
1057,50; 2325,906;  221,787; 2617,198;87,83957
1058,05; 2289,675;  209,633; 2604,890;86,84002
1058,59; 2287,675;  225,710; 2565,506;88,12586
1059,13; 2218,906;  195,094; 2498,352;87,86735
1059,67; 2207,598;  218,787; 2483,044;87,83504
1060,21; 2160,675;  206,633; 2443,429;87,35898
1060,76; 2155,367;  227,017; 2397,506;88,84406
1061,30; 2141,060;  234,787; 2387,198;88,56453
1061,84; 2092,137;  216,325; 2339,198;88,36193
1062,38; 2028,290;  198,248; 2289,044;87,52849
1062,92; 2047,906;  247,171; 2322,275;86,77805
1063,46; 1998,367;  228,556; 2237,583;88,09297
1064,01; 1963,521;  213,325; 2211,044;87,60972
1064,55; 1961,213;  219,633; 2195,352;88,14920
1065,09; 1901,829;  183,863; 2112,813;89,06220
1065,63; 1934,137;  238,248; 2152,737;88,58181
1066,17; 1910,290;  239,479; 2103,737;89,62342
1066,71; 1877,752;  233,171; 2065,275;89,76460
1067,25; 1840,290;  211,479; 2028,352;89,64916
1067,80; 1827,367;  229,633; 2043,275;88,09535
1068,34; 1816,367;  245,940; 2019,813;88,53096
1068,88; 1769,675;  216,325; 1951,044;89,54475
1069,42; 1797,444;  244,863; 1978,660;89,54806
1069,96; 1735,675;  210,863; 1900,583;90,24053
1070,50; 1763,444;  247,556; 1924,506;90,39557
1071,04; 1688,752;  206,479; 1880,967;88,52095
1071,58; 1686,444;  222,017; 1857,044;89,56592
1072,12; 1670,906;  209,017; 1830,967;90,13154
1072,66; 1632,983;  208,479; 1832,967;87,68938
1073,21; 1654,444;  233,325; 1825,813;89,23890
1073,75; 1613,675;  226,863; 1769,737;89,88500
1074,29; 1620,829;  215,479; 1754,429;91,31876
1074,83; 1602,906;  240,940; 1737,813;90,98737
1075,37; 1606,598;  230,325; 1721,737;92,27990
1075,91; 1568,829;  227,787; 1700,583;91,05417
1076,45; 1533,521;  222,710; 1648,737;91,92053
1076,99; 1507,675;  240,940; 1644,121;90,27594
1077,53; 1462,983;  207,940; 1628,429;88,35287
1078,07; 1484,521;  220,556; 1626,506;89,90116
1078,61; 1477,060;  224,787; 1581,813;92,28064
1079,15; 1446,521;  214,710; 1570,044;90,88616
1079,69; 1420,213;  220,094; 1539,813;90,93747
1080,23; 1419,752;  236,094; 1549,275;90,13669
1080,77; 1472,675;  252,171; 1544,967;94,40807
1081,31; 1379,983;  215,325; 1492,737;91,17326
1081,85; 1401,060;  233,171; 1495,506;92,51814
1082,39; 1363,367;  213,325; 1457,275;92,45085
1082,93; 1361,829;  225,094; 1455,967;92,35190
1083,47; 1327,290;  210,940; 1399,813;93,89985
1084,01; 1341,675;  234,479; 1432,429;92,42424
1084,55; 1295,213;  219,171; 1379,044;92,77242
1085,09; 1311,598;  233,402; 1387,813;93,39790
1085,63; 1274,060;  218,248; 1364,121;92,14036
1086,17; 1253,137;  216,479; 1355,275;91,03101
1086,71; 1238,367;  216,787; 1319,506;92,64197
1087,24; 1266,213;  247,863; 1344,890;92,82817
1087,78; 1252,521;  231,325; 1316,121;94,13715
1088,32; 1197,290;  207,710; 1275,813;92,64837
1088,86; 1226,829;  242,402; 1294,352;93,58115
1089,40; 1197,290;  232,710; 1262,890;93,63219
1089,94; 1163,829;  196,556; 1243,121;92,42357
1090,48; 1184,983;  229,325; 1235,352;94,99325
1091,02; 1177,752;  232,710; 1212,352;96,46810
1091,56; 1161,444;  229,940; 1211,737;94,87752
1092,10; 1112,598;  213,248; 1173,121;93,69468
1092,63; 1147,598;  241,863; 1199,660;94,56444
1093,17; 1101,675;  234,710; 1157,813;93,91851
1093,71; 1090,752;  210,248; 1145,275;94,16882
1094,25; 1116,906;  242,171; 1160,583;95,24430
1094,79; 1072,675;  231,556; 1116,121;95,08842
1095,33; 1069,829;  219,094; 1106,275;95,89191
1095,87; 1054,983;  221,402; 1097,275;95,17141
1096,40; 1025,444;  211,402; 1064,890;95,37824
1096,94; 1035,598;  220,710; 1059,506;97,14976
1097,48; 1023,521;  232,171; 1075,813;93,80160
1098,02; 1016,290;  232,017; 1032,506;97,97431
1098,56;  968,983;  206,094; 1007,967;95,13831
1099,10;  966,983;  206,633;  993,506;96,62931
1099,63;  949,906;  202,787;  988,967;95,03148
1100,17;  966,983;  222,863;  985,506;97,57120
1100,71;  979,290;  232,940;  991,737;98,35975

