
Integration time [ms]: 140,000
Averaging Nr. [scans]: 13
Smoothing Nr. [pixels]: 0
Data measured with spectrometer [name]: 2009305U1
Wave   ;Sample   ;Dark     ;Reference;Reflectance
[nm]   ;[counts] ;[counts] ;[counts] ;[%]

 175,72;  209,919;  202,783;  223,076;35,16420
 176,32;  232,258;  235,325;  233,183; 0,00000
 176,92;  265,632;  268,169;  269,200;-245,86645
 177,52;  256,509;  268,091;  262,076; 0,00000
 178,12;  245,466;  257,324;  243,700; 0,00000
 178,72;  265,298;  265,095;  258,217; 0,00000
 179,32;  246,554;  268,863;  252,136; 0,00000
 179,92;  268,795;  265,631;  267,970;135,28778
 180,52;  262,711;  242,858;  269,559;74,35212
 181,12;  268,340;  264,246;  270,140;69,44930
 181,73;  290,790;  278,015;  276,393; 0,00000
 182,33;  372,956;  376,706;  385,901;-40,78492
 182,93;  279,308;  282,630;  284,119;-223,07315
 183,53;  247,864;  252,787;  239,042; 0,00000
 184,13;  251,339;  254,095;  245,230; 0,00000
 184,73;  295,668;  287,018;  290,658;237,67739
 185,33;  271,706;  245,652;  366,512;21,55748
 185,93;  279,569;  240,884;  362,674;31,76327
 186,53;  290,721;  262,499;  382,538;23,51057
 187,13;  315,817;  282,650;  413,897;25,27043
 187,73;  285,913;  248,500;  374,807;29,62104
 188,33;  279,868;  249,501;  377,832;23,66297
 188,93;  296,116;  266,120;  368,764;29,22317
 189,53;  301,704;  262,277;  393,555;30,03345
 190,13;  343,127;  296,435;  419,072;38,07289
 190,73;  271,125;  227,586;  359,537;32,99634
 191,34;  298,319;  271,352;  391,243;22,49340
 191,94;  290,562;  246,733;  373,358;34,61325
 192,54;  297,225;  264,572;  390,298;25,97143
 193,14;  301,568;  262,112;  410,063;26,66793
 193,74;  301,259;  267,728;  401,768;25,01536
 194,34;  287,161;  265,958;  394,183;16,53598
 194,94;  260,366;  225,420;  368,414;24,43913
 195,54;  234,594;  199,036;  342,674;24,75514
 196,14;  271,423;  234,957;  373,055;26,40579
 196,74;  262,077;  238,575;  362,324;18,99202
 197,34;  238,114;  200,263;  355,217;24,42694
 197,94;  273,196;  232,342;  391,563;25,65819
 198,54;  283,257;  239,265;  407,700;26,11827
 199,14;  255,850;  217,032;  395,974;21,69324
 199,74;  253,590;  208,186;  379,854;26,44882
 200,34;  250,384;  205,108;  400,093;23,21991
 200,94;  297,172;  241,418;  444,773;27,41721
 201,54;  273,026;  224,801;  446,157;21,78615
 202,14;  301,930;  252,185;  507,021;19,52055
 202,74;  279,229;  220,186;  489,414;21,93041
 203,34;  259,495;  206,876;  509,469;17,38944
 203,94;  242,321;  177,569;  523,345;18,72661
 204,54;  323,244;  251,804;  597,516;20,66450
 205,14;  270,531;  210,570;  593,619;15,65343
 205,74;  337,247;  248,030;  688,863;20,23820
 206,34;  288,101;  218,877;  712,170;14,03312
 206,94;  315,645;  224,493;  773,666;16,59805
 207,54;  292,586;  194,262;  814,576;15,85076
 208,14;  323,445;  212,338;  885,999;16,49299
 208,74;  342,169;  216,647;  970,102;16,65952
 209,34;  353,093;  210,032; 1064,247;16,74771
 209,94;  366,832;  223,416; 1142,978;15,59614
 210,54;  390,145;  216,877; 1246,089;16,83501
 211,14;  400,430;  209,955; 1381,448;16,25916
 211,73;  420,748;  219,109; 1508,743;15,63532
 212,33;  469,663;  231,956; 1610,123;17,24804
 212,93;  461,690;  216,109; 1698,572;16,56572
 213,53;  466,755;  181,647; 1761,367;18,04801
 214,13;  512,900;  222,952; 1870,209;17,60187
 214,73;  487,315;  185,954; 1909,790;17,48199
 215,33;  489,986;  179,186; 1934,593;17,70533
 215,93;  546,512;  211,184; 2074,162;17,99960
 216,53;  535,352;  162,801; 2134,072;18,89902
 217,13;  629,026;  225,953; 2347,307;19,00074
 217,73;  641,915;  204,338; 2559,692;18,57799
 218,33;  673,055;  161,336; 2756,969;19,71459
 218,93;  787,157;  202,873; 3086,277;20,26369
 219,53;  829,025;  209,336; 3414,311;19,33522
 220,13;  890,110;  170,028; 3703,166;20,38079
 220,73; 1014,389;  187,878; 4085,892;21,20339
 221,32; 1082,708;  195,109; 4505,948;20,58993
 221,92; 1196,648;  192,721; 5000,632;20,88073
 222,52; 1238,353;  178,184; 5377,901;20,38899
 223,12; 1371,957;  189,030; 5845,465;20,91295
 223,72; 1444,312;  197,260; 6327,192;20,34365
 224,32; 1543,325;  209,106; 6727,234;20,46935
 224,92; 1604,070;  182,568; 7030,294;20,75875
 225,52; 1694,692;  212,723; 7406,315;20,60123
 226,12; 1742,428;  189,953; 7683,610;20,71719
 226,72; 1794,250;  171,723; 8090,059;20,49076
 227,31; 1809,304;  166,338; 8448,196;19,83813
 227,91; 1904,751;  195,185; 8938,251;19,55339
 228,51; 1979,871;  182,417; 9244,174;19,83559
 229,11; 2056,428;  189,108; 9710,850;19,61112
 229,71; 2117,003;  184,032; 9960,751;19,77116
 230,31; 2158,847;  160,260;10437,610;19,44652
 230,91; 2182,253;  168,495;10697,503;19,12581
 231,51; 2212,045;  183,415;11064,521;18,64361
 232,10; 2294,617;  172,875;11342,525;18,99560
 232,70; 2290,546;  198,958;11545,952;18,43297
 233,30; 2334,139;  214,492;11780,828;18,32601
 233,90; 2286,962;  192,799;11954,734;17,80457
 234,50; 2274,495;  186,799;12056,551;17,58837
 235,10; 2246,916;  175,260;12065,525;17,42313
 235,70; 2235,999;  208,724;12036,862;17,13943
 236,29; 2172,216;  203,417;12020,602;16,66048
 236,89; 2102,047;  168,495;11895,824;16,48757
 237,49; 2048,955;  201,338;11816,486;15,90696
 238,09; 1945,563;  181,339;11438,324;15,67226
 238,69; 1929,316;  224,957;11167,550;15,57546
 239,29; 1771,326;  186,185;10841,999;14,87583
 239,89; 1698,763;  196,802;10545,226;14,51390
 240,48; 1592,155;  176,492;10114,692;14,24466
 241,08; 1494,544;  177,185; 9764,264;13,74098
 241,68; 1431,362;  213,415; 9396,209;13,26336
 242,28; 1342,932;  178,723; 8995,542;13,20441
 242,88; 1329,025;  219,721; 8679,166;13,11319
 243,48; 1275,600;  225,954; 8415,452;12,81698
 244,07; 1201,804;  209,339; 8129,234;12,53129
 244,67; 1194,771;  207,338; 7988,298;12,69037
 245,27; 1161,594;  208,109; 7823,974;12,51972
 245,87; 1176,710;  210,260; 7761,226;12,79903
 246,47; 1159,233;  196,109; 7668,914;12,88838
 247,06; 1172,237;  181,416; 7757,721;13,07789
 247,66; 1188,191;  185,646; 7774,213;13,21125
 248,26; 1280,305;  215,955; 7894,268;13,86176
 248,86; 1345,636;  207,725; 8133,290;14,35747
 249,46; 1380,305;  159,953; 8304,717;14,98327
 250,05; 1528,829;  204,262; 8681,392;15,62518
 250,65; 1619,049;  184,263; 9076,110;16,13597
 251,25; 1761,692;  178,031; 9575,474;16,85204
 251,85; 1945,804;  186,264;10085,469;17,77456
 252,44; 2117,145;  157,878;10815,700;18,38337
 253,04; 2361,850;  208,493;11581,892;18,93328
 253,64; 2563,953;  152,725;12308,123;19,83669
 254,24; 2835,935;  196,339;13277,281;20,17895
 254,84; 3166,305;  177,184;14242,179;21,25220
 255,43; 3495,714;  190,801;15248,200;21,94876
 256,03; 3794,096;  196,956;16293,995;22,34659
 256,63; 4191,561;  204,341;17391,115;23,19935
 257,23; 4548,899;  177,495;18380,307;24,01499
 257,82; 4893,902;  194,496;19349,209;24,53394
 258,42; 5209,758;  155,496;20233,042;25,17370
 259,02; 5649,945;  210,262;21264,273;25,83680
 259,62; 5940,709;  187,189;22043,709;26,32405
 260,21; 6163,850;  199,878;22644,055;26,57247
 260,81; 6483,872;  193,646;23073,388;27,49256
 261,41; 6686,226;  172,265;23729,055;27,65216
 262,01; 6993,146;  209,497;24161,474;28,32188
 262,60; 7175,130;  163,649;24635,307;28,65143
 263,20; 7403,304;  179,802;24886,046;29,23756
 263,80; 7577,548;  212,651;25112,931;29,57757
 264,40; 7665,537;  168,189;25329,644;29,79696
 264,99; 7866,098;  198,574;25487,905;30,31920
 265,59; 7957,537;  180,191;25693,956;30,48294
 266,19; 8114,826;  181,035;25895,888;30,85295
 266,78; 8216,220;  221,190;26007,807;31,00457
 267,38; 8237,662;  200,268;26049,674;31,09315
 267,98; 8287,469;  181,575;26073,568;31,30657
 268,58; 8329,331;  196,037;26109,273;31,38664
 269,17; 8363,830;  195,653;26127,166;31,49904
 269,77; 8254,850;  204,957;25881,747;31,35086
 270,37; 8234,116;  165,420;25820,286;31,45094
 270,96; 8228,967;  232,111;25659,008;31,45038
 271,56; 8127,999;  184,033;25321,482;31,60212
 272,16; 8089,711;  181,496;25124,230;31,70549
 272,75; 8064,357;  191,265;25101,268;31,60614
 273,35; 8022,352;  189,726;25037,080;31,52298
 273,95; 8002,250;  188,419;25027,841;31,45738
 274,54; 7991,000;  169,185;25041,157;31,44831
 275,14; 8164,050;  216,496;25396,256;31,56327
 275,74; 8053,439;  168,419;25453,756;31,18416
 276,33; 8244,891;  213,649;25923,068;31,23852
 276,93; 8331,818;  196,031;26222,952;31,25912
 277,53; 8470,418;  186,032;26759,098;31,17587
 278,12; 8639,562;  174,418;27305,491;31,20092
 278,72; 8876,340;  227,801;27881,948;31,27393
 279,32; 8993,032;  182,955;28489,106;31,12425
 279,91; 9191,984;  165,494;29258,003;31,02685
 280,51; 9413,193;  191,724;29692,657;31,25823
 281,11; 9625,806;  186,494;30550,063;31,08762
 281,70; 9808,462;  171,417;30892,465;31,36952
 282,30;10021,307;  182,572;31552,097;31,36399
 282,90;10184,733;  186,264;31954,418;31,47324
 283,49;10408,399;  202,572;32544,115;31,55640
 284,09;10600,651;  210,417;33120,456;31,57162
 284,69;10768,026;  213,340;33350,085;31,85191
 285,28;10935,758;  206,341;33762,422;31,97458
 285,88;11084,983;  248,188;33983,397;32,12310
 286,47;11156,224;  187,187;34005,615;32,43509
 287,07;11333,523;  220,263;34062,995;32,83795
 287,67;11452,985;  209,415;34281,991;32,99888
 288,26;11477,913;  182,878;34188,713;33,21499
 288,86;11634,764;  179,956;34213,674;33,65723
 289,46;11860,232;  205,340;34318,149;34,16574
 290,05;11958,260;  177,493;34392,670;34,43141
 290,65;12218,495;  194,803;34598,709;34,94863
 291,24;12374,305;  195,186;34663,653;35,33409
 291,84;12584,254;  216,495;34767,653;35,79550
 292,44;12689,713;  194,569;34984,204;35,91628
 293,03;12963,370;  266,417;35057,914;36,49441
 293,63;13076,709;  184,495;35259,170;36,75647
 294,22;13224,433;  214,417;35324,264;37,05518
 294,82;13245,159;  191,727;35373,820;37,10249
 295,41;13142,616;  176,802;35114,234;37,11153
 296,01;13185,101;  229,265;34972,568;37,29017
 296,61;13046,938;  217,571;34673,495;37,23414
 297,20;12873,871;  195,496;34283,409;37,19317
 297,80;12810,989;  199,031;34159,264;37,13743
 298,39;12587,342;  177,418;33729,931;36,98657
 298,99;12472,298;  207,880;33549,640;36,78395
 299,58;12339,570;  210,415;33295,880;36,66007
 300,18;12111,520;  225,416;33137,170;36,11507
 300,78;11888,276;  187,186;32737,294;35,94793
 301,37;11804,056;  209,497;32747,285;35,63413
 301,97;11673,670;  208,417;32702,747;35,28386
 302,56;11516,555;  199,418;32668,944;34,85464
 303,16;11366,956;  171,341;32483,179;34,64865
 303,75;11228,448;  187,570;32527,127;34,14047
 304,35;11239,975;  181,030;32758,768;33,94633
 304,94;11115,446;  206,340;32808,922;33,46086
 305,54;10985,400;  218,801;32760,717;33,08533
 306,13;10818,082;  161,799;32549,192;32,90256
 306,73;10642,985;  166,876;32358,217;32,54325
 307,33;10511,020;  206,261;32238,521;32,16994
 307,92;10384,547;  215,878;32305,469;31,68837
 308,52;10300,234;  173,495;32763,140;31,07349
 309,11;10422,550;  188,650;33278,833;30,92730
 309,71;10358,542;  180,728;33595,521;30,45901
 310,30;10280,363;  184,648;33756,969;30,07155
 310,90;10326,517;  221,263;34201,739;29,73841
 311,49;10189,310;  201,955;34294,529;29,29481
 312,09;10059,236;  170,800;34375,033;28,90998
 312,68;10107,601;  253,955;34837,982;28,49190
 313,28; 9912,932;  162,878;34973,469;28,00887
 313,87; 9833,807;  162,955;35103,286;27,67819
 314,47; 9740,806;  191,188;35314,764;27,18863
 315,06; 9675,222;  176,032;35427,858;26,94666
 315,66; 9591,698;  170,954;35644,803;26,55687
 316,25; 9422,087;  159,034;35543,003;26,17867
 316,85; 9280,603;  148,493;35519,422;25,81812
 317,44; 9189,900;  183,266;35761,610;25,31493
 318,04; 9065,987;  174,495;35684,512;25,03939
 318,63; 8901,920;  161,030;35697,110;24,59723
 319,22; 8828,898;  183,341;35919,858;24,19250
 319,82; 8654,610;  182,341;35890,217;23,72661
 320,41; 8516,620;  206,187;35837,512;23,32339
 321,01; 8390,751;  201,878;35853,636;22,96906
 321,60; 8271,154;  196,879;35932,315;22,59459
 322,20; 8125,476;  181,417;35834,568;22,28151
 322,79; 8023,003;  206,186;35983,059;21,84880
 323,39; 7878,477;  177,876;36015,401;21,48754
 323,98; 7708,092;  168,109;35860,333;21,12500
 324,58; 7623,938;  175,495;35863,803;20,87082
 325,17; 7483,720;  188,111;35597,918;20,60336
 325,76; 7335,582;  208,186;35442,927;20,22832
 326,36; 7157,484;  178,416;35062,418;20,00650
 326,95; 7006,184;  207,494;34654,585;19,73662
 327,55; 6810,385;  165,341;34435,627;19,39010
 328,14; 6624,758;  176,954;33976,875;19,07639
 328,74; 6558,738;  209,649;33581,833;19,02509
 329,33; 6371,413;  194,262;33143,444;18,74751
 329,92; 6160,095;  177,496;32534,162;18,48954
 330,52; 6011,261;  187,954;31833,499;18,40167
 331,11; 5835,628;  181,879;31384,670;18,11937
 331,71; 5650,522;  180,033;30840,773;17,84200
 332,30; 5535,446;  201,263;30513,538;17,59743
 332,89; 5444,283;  251,339;29853,004;17,54274
 333,49; 5248,581;  193,725;29360,170;17,33107
 334,08; 5112,450;  191,879;28852,042;17,16868
 334,68; 4959,870;  183,879;28470,875;16,88405
 335,27; 4904,008;  207,646;28061,551;16,86069
 335,86; 4849,935;  242,264;27758,670;16,74518
 336,46; 4736,399;  198,954;27412,880;16,67325
 337,05; 4653,681;  184,956;27302,884;16,47886
 337,65; 4614,728;  173,264;27034,230;16,53501
 338,24; 4615,211;  222,955;27085,038;16,35114
 338,83; 4616,974;  204,801;26985,781;16,47502
 339,43; 4553,016;  176,264;27007,948;16,31188
 340,02; 4543,441;  172,418;26819,350;16,40348
 340,61; 4542,595;  199,263;26869,734;16,28517
 341,21; 4570,892;  221,726;26907,986;16,29740
 341,80; 4536,272;  192,418;26842,333;16,29969
 342,40; 4554,794;  190,108;26908,012;16,33619
 342,99; 4585,590;  183,262;27124,927;16,34022
 343,58; 4612,105;  174,416;27215,521;16,41090
 344,18; 4677,029;  202,031;27425,670;16,43791
 344,77; 4726,560;  168,342;27631,055;16,59784
 345,36; 4779,030;  170,187;27880,046;16,63250
 345,96; 4909,898;  209,878;28225,999;16,77613
 346,55; 4944,637;  160,414;28529,653;16,86412
 347,14; 5071,214;  170,415;28847,768;17,08944
 347,74; 5160,707;  151,567;29286,025;17,19318
 348,33; 5315,150;  183,259;29809,653;17,32202
 348,92; 5507,857;  191,412;30461,670;17,56326
 349,52; 5640,666;  163,028;30981,773;17,77372
 350,11; 5719,251;  178,495;31156,136;17,88631
 350,70; 5797,482;  172,955;31370,055;18,02901
 351,29; 5795,197;  167,652;30998,482;18,25298
 351,89; 5889,462;  189,035;31043,016;18,47550
 352,48; 5981,216;  165,263;31080,991;18,81228
 353,07; 6047,002;  199,877;31018,525;18,97269
 353,67; 6077,177;  208,720;30924,636;19,10559
 354,26; 6097,765;  182,492;30742,969;19,35596
 354,85; 6179,793;  191,185;30553,794;19,72363
 355,45; 6203,094;  167,879;30387,704;19,97104
 356,04; 6286,310;  176,107;30300,521;20,28323
 356,63; 6318,729;  215,340;30143,683;20,39334
 357,22; 6368,619;  184,651;30004,914;20,73747
 357,82; 6426,164;  184,881;29789,615;21,08204
 358,41; 6475,025;  207,109;29677,551;21,26848
 359,00; 6510,182;  180,264;29523,687;21,57184
 359,60; 6590,352;  188,647;29385,452;21,92605
 360,19; 6710,127;  205,415;29244,627;22,39976
 360,78; 6747,166;  184,264;29115,982;22,68411
 361,37; 6800,059;  188,187;28952,632;22,98627
 361,97; 6822,114;  189,109;28871,525;23,12568
 362,56; 6847,731;  180,034;28572,824;23,48377
 363,15; 6910,674;  252,264;28254,174;23,77841
 363,74; 6915,788;  192,265;27927,153;24,24211
 364,34; 6948,815;  213,341;27511,914;24,67335
 364,93; 6877,322;  173,573;27122,042;24,87618
 365,52; 6870,243;  144,571;26657,209;25,36780
 366,11; 6904,578;  182,803;26510,580;25,53112
 366,71; 6871,667;  182,726;26033,397;25,87531
 367,30; 6869,930;  202,264;25600,875;26,25209
 367,89; 6956,041;  220,031;25410,251;26,74058
 368,48; 6963,575;  196,957;25136,221;27,13239
 369,07; 6885,790;  201,417;24677,978;27,30928
 369,67; 6940,558;  219,342;24411,221;27,78294
 370,26; 6939,500;  180,417;24057,200;28,30818
 370,85; 6937,231;  189,341;23916,469;28,43956
 371,44; 6976,120;  192,802;23630,935;28,94137
 372,03; 6967,826;  167,726;23441,884;29,21739
 372,63; 6940,474;  160,494;23097,204;29,55951
 373,22; 6992,659;  185,186;22806,076;30,09375
 373,81; 6924,604;  157,648;22493,499;30,29639
 374,40; 6944,462;  178,416;22326,768;30,54876
 374,99; 6936,692;  178,110;21951,247;31,04092
 375,59; 6910,231;  171,877;21685,465;31,32139
 376,18; 7030,106;  212,187;21588,978;31,89403
 376,77; 7017,493;  201,109;21345,961;32,23661
 377,36; 7056,042;  220,648;21386,559;32,29435
 377,95; 7010,377;  206,495;21008,080;32,70848
 378,55; 7041,981;  175,185;20865,482;33,18849
 379,14; 7102,107;  198,341;20764,435;33,56868
 379,73; 7138,780;  188,341;20679,533;33,91915
 380,32; 7245,356;  199,648;20785,187;34,22649
 380,91; 7186,244;  168,265;20505,662;34,50776
 381,50; 7275,316;  197,726;20493,781;34,87175
 382,10; 7316,049;  188,033;20415,495;35,23930
 382,69; 7383,533;  166,187;20415,140;35,64306
 383,28; 7392,069;  212,957;20278,243;35,77877
 383,87; 7345,429;  180,803;20158,687;35,86279
 384,46; 7444,579;  164,035;20098,191;36,52296
 385,05; 7515,997;  202,188;20130,657;36,70031
 385,64; 7595,809;  191,111;20107,273;37,17934
 386,24; 7617,561;  157,881;20034,508;37,52991
 386,83; 7701,489;  202,035;20097,307;37,69465
 387,42; 7799,211;  198,034;20214,495;37,97463
 388,01; 7911,444;  204,421;20376,102;38,20714
 388,60; 8084,574;  191,573;20645,700;38,58879
 389,19; 8179,267;  173,731;20876,619;38,66870
 389,78; 8349,387;  179,730;21079,542;39,08962
 390,37; 8617,582;  245,651;21567,854;39,26391
 390,96; 8730,786;  187,497;21720,102;39,67606
 391,56; 8866,431;  195,116;21867,529;40,01084
 392,15; 9018,796;  177,961;22123,550;40,28525
 392,74; 9092,342;  165,656;22259,956;40,40266
 393,33; 9350,874;  183,347;22620,311;40,85904
 393,92; 9523,427;  189,427;22947,576;41,01388
 394,51; 9630,330;  169,347;23210,674;41,06093
 395,10; 9835,210;  202,353;23428,230;41,47468
 395,69; 9972,525;  187,122;23572,315;41,84444
 396,28;10074,650;  193,046;23641,657;42,14153
 396,87;10161,818;  200,741;23763,072;42,27543
 397,46;10259,540;  198,128;23866,734;42,50953
 398,06;10399,178;  212,746;24134,695;42,58195
 398,65;10450,060;  191,828;24181,618;42,76082
 399,24;10609,500;  208,906;24321,503;43,13345
 399,83;10684,663;  171,684;24319,059;43,53674
 400,42;10769,562;  215,999;24455,828;43,53811
 401,01;10864,091;  189,315;24579,165;43,76729
 401,60;10931,865;  200,942;24618,383;43,94778
 402,19;10965,144;  214,489;24606,438;44,07460
 402,78;11058,655;  214,888;24515,643;44,62317
 403,37;10984,293;  204,440;24392,169;44,56744
 403,96;10994,136;  205,994;24258,463;44,85253
 404,55;11001,287;  213,319;24201,147;44,97268
 405,14;10988,390;  189,797;24097,719;45,16743
 405,73;10975,704;  211,200;24017,330;45,21736
 406,32;11030,238;  210,366;23847,172;45,77552
 406,91;10973,280;  205,150;23610,749;46,00664
 407,50;10919,079;  210,619;23473,501;46,03239
 408,09;10781,234;  179,317;23120,120;46,21424
 408,68;10796,494;  198,628;23067,402;46,34208
 409,27;10790,149;  183,854;22837,885;46,81858
 409,86;10708,297;  192,997;22744,676;46,62757
 410,45;10757,321;  221,449;22600,509;47,07916
 411,04;10724,915;  227,516;22570,531;46,98291
 411,63;10575,908;  214,426;22318,946;46,87495
 412,22;10529,637;  220,876;22082,741;47,15408
 412,81;10479,158;  216,872;21846,497;47,44551
 413,40;10302,713;  232,559;21486,489;47,38020
 413,99;10237,833;  276,330;21131,343;47,76550
 414,58;10098,161;  198,868;20717,382;48,24567
 415,17;10010,590;  202,718;20540,377;48,22518
 415,76; 9842,854;  198,723;20346,860;47,86612
 416,35; 9813,879;  185,874;20116,937;48,30653
 416,94; 9928,201;  225,568;20175,971;48,63377
 417,53;10033,213;  207,257;20432,621;48,58234
 418,12;10059,080;  206,948;20476,583;48,60538
 418,71;10327,187;  218,021;20830,454;49,04402
 419,30;10315,774;  200,024;21000,647;48,63196
 419,89;10473,191;  184,639;21139,429;49,09881
 420,48;10652,939;  222,405;21442,613;49,15378
 421,07;10727,628;  216,251;21448,407;49,50688
 421,66;10707,500;  184,941;21541,095;49,27179
 422,25;10778,644;  205,167;21438,937;49,79557
 422,84;10758,020;  224,397;21543,476;49,40937
 423,43;10630,031;  212,168;21238,301;49,54722
 424,02;10576,028;  231,628;21043,172;49,70511
 424,60;10315,407;  201,392;20533,831;49,74324
 425,19;10264,853;  211,703;20236,510;50,20348
 425,78;10156,801;  217,626;20175,442;49,80092
 426,37;10125,251;  232,085;20050,925;49,91799
 426,96;10085,145;  206,624;19918,959;50,11340
 427,55; 9954,456;  199,467;19767,762;49,85099
 428,14; 9880,987;  195,158;19549,673;50,04429
 428,73; 9834,949;  216,929;19338,557;50,29917
 429,32; 9828,215;  218,470;19324,100;50,29797
 429,91; 9865,808;  226,160;19366,831;50,36212
 430,50; 9831,754;  228,466;19204,852;50,60652
 431,08; 9723,907;  231,772;19005,087;50,56185
 431,67; 9690,722;  263,463;18962,207;50,41654
 432,26; 9661,815;  269,923;18770,057;50,76662
 432,85; 9466,240;  291,770;18411,160;50,63344
 433,44; 9302,448;  305,845;18063,668;50,66276
 434,03; 9136,640;  316,149;17727,545;50,65930
 434,62; 8906,703;  271,614;17264,989;50,81444
 435,21; 8834,217;  287,923;17079,211;50,89719
 435,79; 8735,684;  290,535;16870,613;50,93552
 436,38; 8668,332;  276,994;16773,698;50,86675
 436,97; 8645,694;  282,686;16719,515;50,87969
 437,56; 8536,370;  278,143;16522,498;50,83752
 438,15; 8484,313;  260,837;16400,241;50,95279
 438,74; 8539,250;  274,067;16463,122;51,05414
 439,33; 8541,775;  249,683;16410,092;51,31115
 439,91; 8486,952;  217,450;16527,489;50,70191
 440,50; 8520,781;  264,835;16518,258;50,79512
 441,09; 8614,647;  270,832;16642,156;50,96603
 441,68; 8638,542;  245,445;16657,322;51,14038
 442,27; 8557,929;  230,908;16633,609;50,76616
 442,86; 8579,715;  205,057;16680,985;50,82966
 443,44; 8614,144;  221,288;16739,976;50,80824
 444,03; 8703,603;  301,826;16785,378;50,97067
 444,62; 8581,976;  224,441;16606,793;51,01548
 445,21; 8489,264;  230,442;16478,895;50,82836
 445,80; 8498,249;  261,747;16379,635;51,10162
 446,39; 8436,537;  281,055;16095,117;51,57108
 446,97; 8239,630;  220,128;15973,656;50,90607
 447,56; 8096,336;  225,126;15675,759;50,94426
 448,15; 8029,648;  227,205;15514,190;51,03978
 448,74; 7931,915;  236,128;15319,861;51,02044
 449,33; 7821,992;  225,588;15159,938;50,86531
 449,91; 7747,237;  221,893;14881,259;51,33472
 450,50; 7614,597;  218,893;14701,182;51,06723
 451,09; 7555,669;  228,662;14577,224;51,06439
 451,68; 7532,654;  246,815;14526,502;51,02240
 452,26; 7483,966;  243,891;14416,541;51,08484
 452,85; 7395,354;  232,045;14236,357;51,15074
 453,44; 7409,171;  249,734;14298,998;50,95952
 454,03; 7366,176;  215,659;14234,959;51,00480
 454,61; 7343,621;  215,426;14233,712;50,84927
 455,20; 7463,803;  237,194;14401,613;51,01945
 455,79; 7437,364;  247,196;14396,801;50,81532
 456,38; 7493,093;  239,115;14480,917;50,93441
 456,97; 7524,470;  231,885;14521,528;51,03406
 457,55; 7522,878;  217,114;14533,011;51,03252
 458,14; 7487,989;  253,039;14534,934;50,65820
 458,73; 7434,405;  238,575;14474,263;50,54782
 459,31; 7443,276;  268,650;14548,340;50,24357
 459,90; 7517,030;  266,190;14576,024;50,67033
 460,49; 7606,158;  332,190;14714,566;50,57556
 461,08; 7521,008;  225,418;14821,831;49,98207
 461,66; 7621,158;  233,881;14804,485;50,69986
 462,25; 7637,697;  237,571;14858,391;50,61362
 462,84; 7646,227;  271,341;14942,699;50,26724
 463,43; 7616,457;  203,107;14914,396;50,39225
 464,01; 7648,537;  227,875;14922,900;50,49779
 464,60; 7621,330;  289,108;14916,310;50,12730
 465,19; 7459,593;  203,644;14633,323;50,28489
 465,77; 7450,981;  234,488;14644,208;50,08073
 466,36; 7404,161;  253,876;14500,596;50,18899
 466,95; 7219,416;  235,491;14160,297;50,15456
 467,53; 7079,701;  231,256;13904,259;50,08735
 468,12; 6931,247;  264,718;13623,195;49,90486
 468,71; 6802,375;  232,643;13386,361;49,94581
 469,29; 6658,141;  209,102;13108,374;49,99538
 469,88; 6538,896;  221,793;12873,810;49,92961
 470,47; 6601,335;  281,329;13000,088;49,69043
 471,06; 6539,235;  237,022;12947,067;49,58451
 471,64; 6607,008;  233,792;13032,571;49,79550
 472,23; 6541,151;  217,710;13049,729;49,27861
 472,81; 6624,127;  210,405;13158,182;49,53532
 473,40; 6657,092;  228,710;13282,644;49,24479
 473,99; 6768,962;  320,172;13507,891;48,89997
 474,57; 6787,347;  231,864;13569,434;49,15050
 475,16; 6854,780;  244,173;13707,849;49,09957
 475,75; 6924,446;  246,093;13878,533;48,98869
 476,33; 6932,114;  249,861;13953,439;48,76284
 476,92; 6949,212;  256,018;14004,336;48,68373
 477,51; 6948,183;  251,939;14140,131;48,21538
 478,09; 6978,077;  247,631;14150,857;48,40924
 478,68; 6922,286;  258,938;14016,819;48,43295
 479,27; 6950,103;  283,401;14136,618;48,12386
 479,85; 6917,629;  253,092;14043,426;48,32760
 480,44; 6921,016;  230,937;14183,015;47,95041
 481,02; 7535,731;  256,397;15469,503;47,84910
 481,61; 8470,237;  276,706;17579,866;47,35281
 482,20; 9085,405;  254,936;18794,122;47,63138
 482,78; 9407,968;  289,553;19617,836;47,17654
 483,37; 9670,933;  275,010;20203,289;47,14869
 483,95; 9805,278;  300,395;20526,956;46,99209
 484,54; 9909,864;  310,629;20749,998;46,96444
 485,13; 9775,367;  271,931;20638,075;46,66291
 485,71; 9702,850;  248,932;20437,114;46,82897
 486,30; 9551,205;  292,932;20118,225;46,69930
 486,88; 9396,224;  339,393;19756,357;46,64391
 487,47; 9035,013;  305,469;18999,951;46,69583
 488,05; 8611,412;  299,930;18136,204;46,59876
 488,64; 8014,257;  282,236;16822,511;46,74663
 489,23; 7139,461;  309,545;14968,763;46,59127
 489,81; 6073,119;  293,544;12807,451;46,18521
 490,40; 5713,138;  247,698;12153,204;45,90683
 490,98; 5585,123;  242,851;11883,187;45,89448
 491,57; 5514,183;  268,775;11811,644;45,44284
 492,15; 5493,224;  249,774;11741,426;45,62834
 492,74; 5440,974;  269,622;11602,755;45,63039
 493,32; 5359,956;  278,159;11485,375;45,34398
 493,91; 5303,416;  253,927;11425,618;45,19897
 494,50; 5270,118;  258,078;11390,601;45,02160
 495,08; 5223,413;  238,001;11299,943;45,06815
 495,67; 5207,119;  266,389;11347,058;44,58874
 496,25; 5079,900;  210,002;11181,105;44,38841
 496,84; 5097,119;  223,158;11147,524;44,61550
 497,42; 5047,038;  213,232;11127,631;44,28834
 498,01; 4998,250;  252,004;11103,571;43,73789
 498,59; 4935,873;  216,232;11009,652;43,72702
 499,18; 4895,245;  219,850;10958,695;43,53723
 499,76; 4894,959;  243,310;10887,110;43,70290
 500,35; 4767,984;  235,923;10681,110;43,38899
 500,93; 4717,061;  225,617;10649,729;43,08707
 501,52; 4636,660;  227,463;10557,033;42,68520
 502,10; 4618,592;  229,922;10562,332;42,47479
 502,69; 4539,856;  226,536;10390,879;42,43579
 503,27; 4415,249;  213,308;10160,811;42,24116
 503,86; 4390,730;  226,690;10117,319;42,10086
 504,44; 4296,485;  198,920; 9980,832;41,88920
 505,03; 4162,958;  189,612; 9763,187;41,50326
 505,61; 4108,933;  214,305; 9626,644;41,37790
 506,19; 4021,697;  228,305; 9506,148;40,88658
 506,78; 3902,622;  197,995; 9318,823;40,61722
 507,36; 3811,845;  202,305; 9169,435;40,25301
 507,95; 3721,737;  206,609; 8967,935;40,12096
 508,53; 3687,935;  200,457; 8839,080;40,37077
 509,12; 3609,499;  219,917; 8732,153;39,82012
 509,70; 3546,400;  233,301; 8577,503;39,70541
 510,29; 3472,635;  242,531; 8439,392;39,40659
 510,87; 3380,373;  205,533; 8183,986;39,79267
 511,46; 3301,215;  189,533; 8086,332;39,40434
 512,04; 3244,532;  205,686; 7932,627;39,32793
 512,62; 3189,339;  209,918; 7792,058;39,29525
 513,21; 3088,227;  196,454; 7627,370;38,91543
 513,79; 3032,392;  203,297; 7534,648;38,58899
 514,38; 2938,062;  191,990; 7356,845;38,32698
 514,96; 2939,440;  225,683; 7260,366;38,57683
 515,54; 2828,283;  189,990; 7101,935;38,17006
 516,13; 2820,171;  216,759; 7077,247;37,94792
 516,71; 2731,158;  199,219; 6900,285;37,78413
 517,30; 2680,943;  189,602; 6777,909;37,81459
 517,88; 2656,452;  217,833; 6696,640;37,63993
 518,46; 2566,164;  189,756; 6589,999;37,12997
 519,05; 2568,587;  202,139; 6529,725;37,39890
 519,63; 2486,082;  208,063; 6461,883;36,42605
 520,22; 2457,533;  236,291; 6396,901;36,05555
 520,80; 2404,912;  208,599; 6356,563;35,72424
 521,38; 2410,878;  249,677; 6324,495;35,57638
 521,97; 2331,028;  209,598; 6288,674;34,89724
 522,55; 2326,377;  221,444; 6249,687;34,91785
 523,13; 2291,794;  193,905; 6226,473;34,77605
 523,72; 2265,595;  201,756; 6181,499;34,51385
 524,30; 2315,518;  226,366; 6308,794;34,34735
 524,89; 2294,253;  189,905; 6273,875;34,58840
 525,47; 2278,697;  223,134; 6436,029;33,08543
 526,05; 2239,213;  185,826; 6496,311;32,53928
 526,64; 2296,670;  235,903; 6544,114;32,66802
 527,22; 2312,253;  223,904; 6686,717;32,31332
 527,80; 2352,990;  252,441; 6790,704;32,12701
 528,39; 2280,353;  215,440; 6899,738;30,89199
 528,97; 2309,559;  217,518; 7022,426;30,74312
 529,55; 2354,433;  229,520; 7231,490;30,34735
 530,14; 2408,521;  228,209; 7420,922;30,31278
 530,72; 2369,760;  213,672; 7478,076;29,68018
 531,30; 2386,208;  183,747; 7650,123;29,49838
 531,89; 2419,722;  206,363; 7726,644;29,43187
 532,47; 2459,239;  243,593; 7835,225;29,18537
 533,05; 2426,788;  239,903; 7874,131;28,64579
 533,63; 2449,021;  234,747; 7890,418;28,92332
 534,22; 2423,364;  205,131; 7928,713;28,72026
 534,80; 2429,487;  238,822; 8044,909;28,06355
 535,38; 2491,853;  320,516; 8141,619;27,76254
 535,97; 2413,464;  210,516; 8068,277;28,03531
 536,55; 2430,955;  273,514; 8157,157;27,36604
 537,13; 2427,834;  276,440; 8150,866;27,32128
 537,71; 2431,147;  310,132; 8166,896;26,99604
 538,30; 2419,585;  325,669; 8256,648;26,40173
 538,88; 2448,982;  354,052; 8327,755;26,27300
 539,46; 2523,990;  408,899; 8514,845;26,09308
 540,05; 2511,105;  403,975; 8620,114;25,64623
 540,63; 2564,342;  457,975; 8814,059;25,20759
 541,21; 2600,747;  482,589; 8956,486;24,99627
 541,79; 2621,339;  507,436; 9126,469;24,52599
 542,38; 2631,187;  539,360; 9204,913;24,13957
 542,96; 2657,011;  556,588; 9376,337;23,81500
 543,54; 2703,457;  570,282; 9579,255;23,67833
 544,12; 2689,032;  529,435; 9696,845;23,55733
 544,70; 2675,846;  511,204; 9855,285;23,16592
 545,29; 2717,862;  522,668; 9943,533;23,30141
 545,87; 2696,493;  520,743; 9958,777;23,05300
 546,45; 2638,311;  476,206; 9995,260;22,71345
 547,03; 2641,024;  450,282;10089,230;22,72802
 547,62; 2638,760;  417,974;10221,298;22,65339
 548,20; 2707,029;  428,819;10364,644;22,92924
 548,78; 2671,642;  388,124;10462,580;22,66641
 549,36; 2660,002;  369,740;10717,879;22,13211
 549,94; 2679,903;  330,820;10753,931;22,53726
 550,53; 2686,598;  327,432;11007,285;22,08987
 551,11; 2651,064;  309,508;11176,781;21,54686
 551,69; 2707,907;  320,355;11465,273;21,42278
 552,27; 2737,850;  271,818;11710,093;21,55948
 552,85; 2752,939;  280,585;12103,593;20,91138
 553,44; 2765,694;  286,663;12378,961;20,50091
 554,02; 2823,405;  300,124;12654,093;20,42486
 554,60; 2810,970;  233,585;12918,320;20,31879
 555,18; 2878,055;  265,355;13307,016;20,03349
 555,76; 2895,494;  260,893;13653,371;19,67224
 556,34; 2932,009;  275,430;13991,273;19,36869
 556,93; 2966,789;  262,201;14388,948;19,14516
 557,51; 2971,695;  232,891;14755,170;18,85933
 558,09; 3037,523;  265,740;15098,345;18,68709
 558,67; 3049,047;  261,429;15430,691;18,37676
 559,25; 3068,507;  270,968;15672,170;18,16442
 559,83; 3100,890;  237,582;16057,644;18,09922
 560,41; 3097,812;  243,199;16329,657;17,74544
 561,00; 3166,379;  255,967;16659,478;17,74261
 561,58; 3154,386;  238,584;16947,418;17,45066
 562,16; 3189,176;  242,969;17243,768;17,32981
 562,74; 3191,364;  223,508;17582,388;17,09704
 563,32; 3255,919;  210,043;18026,918;17,09546
 563,90; 3353,828;  249,583;18359,508;17,14113
 564,48; 3345,231;  249,200;18754,734;16,73030
 565,06; 3431,846;  242,506;19298,508;16,73667
 565,65; 3497,954;  246,888;19959,760;16,49209
 566,23; 3638,876;  296,736;20662,926;16,41023
 566,81; 3685,844;  245,660;21389,059;16,27072
 567,39; 3806,743;  256,197;22319,811;16,09231
 567,97; 3883,141;  266,198;22873,619;15,99892
 568,55; 4051,440;  280,582;23783,234;16,04439
 569,13; 4106,409;  243,813;24431,824;15,96905
 569,71; 4202,513;  243,893;25404,965;15,73312
 570,29; 4364,422;  278,893;26342,713;15,67509
 570,87; 4457,654;  285,354;27066,849;15,57904
 571,45; 4493,491;  267,198;27717,085;15,39639
 572,03; 4523,868;  235,274;28116,067;15,38190
 572,61; 4580,150;  222,274;28951,153;15,16897
 573,20; 4687,559;  257,430;29551,008;15,12321
 573,78; 4742,085;  243,890;30118,426;15,05695
 574,36; 4757,800;  262,505;30688,687;14,77443
 574,94; 4819,609;  321,427;31016,324;14,65449
 575,52; 4742,911;  249,810;31214,294;14,51050
 576,10; 4846,980;  303,887;31765,832;14,43996
 576,68; 4883,987;  298,581;32340,773;14,31052
 577,26; 4943,890;  307,963;33090,559;14,14143
 577,84; 4950,108;  313,198;33542,837;13,95414
 578,42; 4993,191;  358,965;33877,397;13,82590
 579,00; 4891,866;  313,197;33915,396;13,62610
 579,58; 4924,053;  358,042;34096,174;13,53368
 580,16; 4832,126;  308,195;34110,435;13,38352
 580,74; 4759,600;  316,195;34375,401;13,04612
 581,32; 4779,160;  322,273;34369,747;13,09021
 581,90; 4683,144;  329,272;34303,123;12,81536
 582,48; 4630,523;  328,272;34453,713;12,60716
 583,06; 4618,905;  318,273;34590,426;12,54847
 583,64; 4575,201;  324,889;34648,614;12,38301
 584,22; 4473,019;  342,040;34468,170;12,10503
 584,80; 4388,339;  336,965;34092,063;12,00226
 585,38; 4264,363;  355,353;33784,696;11,69335
 585,96; 4193,802;  315,735;33751,666;11,59850
 586,54; 4157,639;  348,733;33736,897;11,40795
 587,12; 4101,329;  309,118;33973,303;11,26482
 587,70; 4080,353;  337,812;34128,093;11,07579
 588,28; 4027,051;  313,272;34026,730;11,01572
 588,86; 3980,259;  321,502;34187,085;10,80376
 589,44; 3892,656;  299,423;34186,969;10,60340
 590,02; 3862,151;  309,347;34351,666;10,43643
 590,59; 3820,426;  284,964;34578,662;10,30936
 591,17; 3820,514;  303,729;34693,392;10,22629
 591,75; 3784,753;  278,884;34799,016;10,15601
 592,33; 3783,816;  308,962;35008,140;10,01423
 592,91; 3766,033;  255,499;35236,029;10,03568
 593,49; 3744,332;  267,883;35565,798; 9,84888
 594,07; 3758,811;  287,883;35788,794; 9,77701
 594,65; 3682,994;  300,271;35772,234; 9,53633
 595,23; 3703,530;  283,270;36175,414; 9,52927
 595,81; 3690,307;  296,116;36321,884; 9,42156
 596,39; 3667,141;  287,423;36461,525; 9,34292
 596,97; 3625,471;  275,576;36559,935; 9,23234
 597,55; 3591,848;  274,194;36480,627; 9,16316
 598,12; 3581,801;  245,497;36512,422; 9,19930
 598,70; 3529,502;  245,191;36662,042; 9,01866
 599,28; 3569,615;  283,268;36867,952; 8,98285
 599,86; 3540,537;  254,499;36829,033; 8,98450
 600,44; 3474,515;  241,883;36966,538; 8,80235
 601,02; 3501,600;  294,496;36932,542; 8,75348
 601,60; 3442,582;  272,500;36973,021; 8,63770
 602,18; 3398,505;  247,113;36930,397; 8,59081
 602,75; 3394,602;  250,654;37065,533; 8,53988
 603,33; 3358,023;  264,960;37078,508; 8,40197
 603,91; 3323,857;  243,035;37002,533; 8,38102
 604,49; 3319,130;  282,883;37014,085; 8,26612
 605,07; 3299,783;  284,884;37183,136; 8,17084
 605,65; 3270,149;  295,267;37189,832; 8,06320
 606,23; 3297,549;  350,041;37287,012; 7,97983
 606,80; 3232,424;  384,885;37392,670; 7,69443
 607,38; 3258,513;  421,958;37380,170; 7,67503
 607,96; 3251,980;  461,808;37486,820; 7,53591
 608,54; 3253,279;  524,959;37474,354; 7,38394
 609,12; 3204,383;  539,270;37559,580; 7,19906
 609,70; 3209,519;  571,960;37639,811; 7,11549
 610,27; 3195,228;  564,655;37785,358; 7,06750
 610,85; 3203,477;  585,114;37749,956; 7,04527
 611,43; 3153,259;  582,806;37736,841; 6,91837
 612,01; 3074,084;  548,577;37484,273; 6,83758
 612,59; 3070,123;  556,806;37576,841; 6,78907
 613,16; 3026,812;  524,194;37437,341; 6,77975
 613,74; 3000,828;  490,268;37386,495; 6,80438
 614,32; 3002,759;  458,882;37316,730; 6,90186
 614,90; 2973,713;  435,038;37231,995; 6,89914
 615,48; 2906,783;  373,040;36866,751; 6,94296
 616,05; 2871,935;  343,348;36856,845; 6,92507
 616,63; 2860,626;  365,733;36721,862; 6,86237
 617,21; 2829,447;  348,193;36611,311; 6,84236
 617,79; 2814,266;  343,885;36569,405; 6,81945
 618,36; 2823,759;  342,807;36469,119; 6,86744
 618,94; 2747,369;  295,886;36158,627; 6,83574
 619,52; 2738,798;  312,425;35846,388; 6,82832
 620,10; 2695,750;  292,039;35860,123; 6,75806
 620,67; 2672,046;  298,349;35807,388; 6,68477
 621,25; 2701,031;  324,807;35706,204; 6,71603
 621,83; 2639,920;  303,117;35599,982; 6,62043
 622,41; 2683,416;  359,501;35657,281; 6,58374
 622,98; 2613,874;  317,503;35302,550; 6,56387
 623,56; 2624,140;  318,272;35275,700; 6,59622
 624,14; 2607,713;  306,191;35161,063; 6,60316
 624,72; 2575,872;  301,424;35078,179; 6,54014
 625,29; 2544,714;  285,810;35174,072; 6,47468
 625,87; 2596,136;  332,731;35105,191; 6,50919
 626,45; 2497,860;  287,042;34915,213; 6,38445
 627,02; 2509,136;  292,346;34950,879; 6,39609
 627,60; 2493,994;  271,267;34878,764; 6,42267
 628,18; 2490,998;  258,270;34918,965; 6,44167
 628,76; 2454,809;  265,041;34954,439; 6,31250
 629,33; 2486,001;  292,963;34885,867; 6,33956
 629,91; 2477,519;  276,962;34917,431; 6,35256
 630,49; 2482,799;  291,117;35059,687; 6,30363
 631,06; 2498,911;  289,195;35196,452; 6,33025
 631,64; 2493,873;  288,888;35120,640; 6,33039
 632,22; 2451,634;  248,811;35036,563; 6,33218
 632,79; 2486,746;  282,427;35309,704; 6,29315
 633,37; 2472,155;  252,577;35401,709; 6,31475
 633,95; 2495,085;  262,657;35488,114; 6,33754
 634,52; 2476,813;  246,578;35618,944; 6,30502
 635,10; 2499,075;  264,039;35689,738; 6,30908
 635,68; 2522,799;  264,504;35817,610; 6,35189
 636,25; 2479,376;  248,351;35772,503; 6,28030
 636,83; 2495,425;  228,964;35999,593; 6,33609
 637,41; 2491,443;  249,273;36041,354; 6,26443
 637,98; 2568,685;  283,504;36243,636; 6,35476
 638,56; 2519,871;  264,044;36299,657; 6,26000
 639,13; 2522,536;  242,349;36295,589; 6,32450
 639,71; 2603,585;  312,810;36469,841; 6,33563
 640,29; 2499,517;  224,194;36269,643; 6,31237
 640,86; 2526,816;  241,348;36562,378; 6,29241
 641,44; 2548,962;  240,810;36416,421; 6,38041
 642,02; 2573,878;  268,117;36501,617; 6,36361
 642,59; 2565,254;  241,117;36507,968; 6,40843
 643,17; 2546,093;  242,656;36583,780; 6,33838
 643,74; 2558,469;  243,425;36595,976; 6,36831
 644,32; 2599,231;  270,809;36562,865; 6,41579
 644,89; 2570,915;  263,963;36575,523; 6,35322
 645,47; 2592,292;  266,886;36564,951; 6,40642
 646,05; 2604,746;  263,502;36439,147; 6,47188
 646,62; 2586,892;  248,117;36521,421; 6,44765
 647,20; 2589,191;  254,732;36625,464; 6,41851
 647,77; 2569,568;  233,271;36563,429; 6,43074
 648,35; 2574,868;  230,886;36454,011; 6,47095
 648,92; 2579,629;  254,040;36523,592; 6,41196
 649,50; 2573,775;  220,886;36442,327; 6,49585
 650,08; 2574,844;  220,886;36275,985; 6,52878
 650,65; 2587,836;  236,039;36535,335; 6,47891
 651,23; 2670,367;  213,193;37329,378; 6,62022
 651,80; 2760,513;  217,193;38230,959; 6,69052
 652,38; 2819,274;  230,809;38683,233; 6,73161
 652,95; 2837,959;  216,885;39039,891; 6,75134
 653,53; 2895,951;  243,116;39355,241; 6,78264
 654,10; 2931,712;  269,347;39470,284; 6,79159
 654,68; 2913,781;  215,885;39351,865; 6,89365
 655,25; 2937,158;  215,577;39531,139; 6,92240
 655,83; 2927,458;  211,654;39701,489; 6,87722
 656,40; 2985,758;  262,347;39471,994; 6,94577
 656,98; 2954,750;  218,116;39510,806; 6,96474
 657,55; 2962,280;  228,039;39312,694; 6,99569
 658,13; 2924,273;  223,423;38933,891; 6,97705
 658,70; 2921,265;  250,500;38701,780; 6,94584
 659,28; 2853,334;  231,192;37787,977; 6,98180
 659,85; 2799,864;  247,962;36911,327; 6,96036
 660,43; 2816,164;  245,577;37010,600; 6,99194
 661,00; 2803,233;  217,038;37113,336; 7,00936
 661,58; 2850,225;  226,808;37430,224; 7,05155
 662,15; 2854,679;  214,038;37623,575; 7,05874
 662,73; 2972,056;  296,269;37994,771; 7,09786
 663,30; 2949,740;  233,346;38122,814; 7,16926
 663,88; 2953,271;  238,115;38285,165; 7,13631
 664,45; 2984,878;  221,192;38475,515; 7,22451
 665,03; 3025,024;  225,192;38934,096; 7,23304
 665,60; 3165,401;  315,961;39296,524; 7,30990
 666,17; 3108,701;  231,730;39435,643; 7,33848
 666,75; 3143,770;  237,884;39837,917; 7,33809
 667,32; 3224,454;  257,422;40136,652; 7,44004
 667,90; 3261,600;  248,576;40373,925; 7,50903
 668,47; 3279,746;  254,268;40711,507; 7,47821
 669,05; 3299,584;  238,422;41041,319; 7,50232
 669,62; 3316,500;  215,268;41094,207; 7,58638
 670,19; 3364,876;  207,576;41221,096; 7,69819
 670,77; 3381,407;  225,191;41436,831; 7,65855
 671,34; 3443,784;  222,653;41280,489; 7,84535
 671,92; 3424,853;  223,268;41671,994; 7,72421
 672,49; 3473,614;  249,114;41653,036; 7,78791
 673,06; 3434,222;  180,576;41684,848; 7,83930
 673,64; 3480,983;  209,037;41721,814; 7,88178
 674,21; 3503,360;  198,806;41601,780; 7,98144
 674,79; 3553,275;  237,498;41879,361; 7,96260
 675,36; 3577,959;  243,345;41950,096; 7,99538
 675,93; 3576,721;  207,883;41798,447; 8,10001
 676,51; 3607,559;  233,883;41996,797; 8,07816
 677,08; 3628,013;  238,267;42145,609; 8,08867
 677,65; 3678,851;  227,344;42244,575; 8,21450
 678,23; 3716,074;  235,806;42378,002; 8,25839
 678,80; 3721,220;  226,344;42468,276; 8,27348
 679,38; 3773,443;  215,421;42651,934; 8,38434
 679,95; 3832,589;  226,498;42874,669; 8,45544
 680,52; 3851,273;  226,806;43211,404; 8,43201
 681,10; 3913,342;  242,344;43619,908; 8,46290
 681,67; 3984,565;  240,652;43908,336; 8,57365
 682,24; 3992,711;  205,882;43960,840; 8,65463
 682,82; 4075,165;  215,113;44518,267; 8,71281
 683,39; 4191,003;  261,805;44947,541; 8,79296
 683,96; 4227,918;  228,113;45163,353; 8,90127
 684,54; 4210,064;  214,882;45566,549; 8,80934
 685,11; 4362,826;  261,574;45995,977; 8,96754
 685,68; 4370,510;  220,343;46347,635; 8,99720
 686,25; 4428,118;  209,574;46329,678; 9,14686
 686,83; 4494,417;  224,266;46587,182; 9,21027
 687,40; 4525,640;  205,805;46909,071; 9,24954
 687,97; 4614,402;  262,882;47309,114; 9,24945
 688,55; 4576,240;  212,266;47325,926; 9,26265
 689,12; 4636,001;  191,728;47588,045; 9,37683
 689,69; 4663,993;  201,497;47694,703; 9,39607
 690,26; 4742,755;  218,035;47746,208; 9,52008
 690,84; 4761,978;  217,112;48066,327; 9,49831
 691,41; 4823,970;  228,343;48172,062; 9,58546
 691,98; 4879,885;  228,189;48503,951; 9,63568
 692,56; 4872,031;  220,650;48556,763; 9,62299
 693,13; 4976,408;  276,573;48519,652; 9,74199
 693,70; 4978,631;  239,343;48637,233; 9,79234
 694,27; 4999,238;  216,419;48796,430; 9,84524
 694,84; 5061,230;  213,189;48898,011; 9,95801
 695,42; 5116,607;  261,650;49019,361; 9,95731
 695,99; 5160,368;  217,727;49180,327;10,09473
 696,56; 5179,360;  216,496;49034,062;10,16614
 697,13; 5276,353;  232,650;49420,720;10,25391
 697,71; 5248,422;  209,727;49394,686;10,24438
 698,28; 5335,414;  217,727;49714,037;10,33953
 698,85; 5356,637;  199,727;49725,003;10,41268
 699,42; 5423,629;  202,342;49934,584;10,49880
 699,99; 5506,775;  240,803;50030,319;10,57647
 700,57; 5541,075;  232,342;50115,362;10,64236
 701,14; 5579,144;  206,573;50235,712;10,73888
 701,71; 5607,136;  232,803;50426,062;10,70728
 702,28; 5628,589;  229,034;50475,259;10,74619
 702,85; 5671,120;  224,495;50574,686;10,81749
 703,43; 5743,266;  251,342;50838,037;10,85646
 704,00; 5859,489;  245,726;50977,849;11,06550
 704,57; 5795,789;  235,188;51011,738;10,95112
 705,14; 5887,858;  252,880;51250,088;11,04958
 705,71; 5941,850;  259,880;51277,054;11,13737
 706,28; 5982,380;  231,880;51163,327;11,29067
 706,86; 6013,065;  260,187;51476,755;11,23245
 707,43; 6092,288;  289,957;51421,721;11,34780
 708,00; 6093,511;  259,803;51456,071;11,39479
 708,57; 6113,349;  234,956;51246,421;11,52367
 709,14; 6189,803;  261,879;51501,926;11,56893
 709,71; 6209,179;  241,572;51586,738;11,62253
 710,28; 6294,172;  236,418;51710,165;11,76863
 710,86; 6324,702;  244,725;51954,054;11,75799
 711,43; 6375,617;  267,495;51845,866;11,84241
 712,00; 6411,686;  249,494;51973,447;11,91361
 712,57; 6484,678;  261,802;52051,182;12,01574
 713,14; 6514,286;  234,417;52193,994;12,08607
 713,71; 6546,663;  246,802;52137,652;12,14060
 714,28; 6586,809;  235,033;52217,926;12,21897
 714,85; 6584,647;  221,110;51842,968;12,32721
 715,42; 6729,331;  225,417;52187,396;12,51668
 716,00; 6778,939;  300,033;52292,977;12,46113
 716,57; 6751,008;  233,263;52374,943;12,50007
 717,14; 6751,154;  211,725;52272,447;12,56116
 717,71; 6811,300;  212,725;52283,874;12,67223
 718,28; 6904,061;  265,955;52493,917;12,70987
 718,85; 6887,900;  204,955;52412,575;12,80071
 719,42; 6993,815;  241,878;52662,080;12,88041
 719,99; 6974,192;  219,571;52385,892;12,94824
 720,56; 7082,645;  243,417;52752,242;13,02491
 721,13; 7125,868;  217,032;52790,823;13,14122
 721,70; 7158,399;  203,724;52633,174;13,26482
 722,27; 7197,237;  232,186;52831,601;13,24169
 722,84; 7304,306;  288,493;52843,721;13,34941
 723,41; 7304,452;  208,032;52888,686;13,47064
 723,98; 7396,675;  221,570;53198,268;13,54389
 724,55; 7446,744;  256,724;53259,772;13,56530
 725,12; 7420,505;  181,185;53261,738;13,63837
 725,69; 7532,497;  208,570;53273,627;13,80179
 726,27; 7617,490;  221,570;53351,208;13,92052
 726,84; 7653,789;  233,031;53717,558;13,87459
 727,41; 7701,781;  241,262;53692,986;13,95749
 727,98; 7778,004;  235,493;53909,259;14,05251
 728,55; 7857,843;  274,339;53881,456;14,14645
 729,12; 7886,758;  209,185;54031,575;14,26464
 729,69; 7924,442;  235,339;54118,464;14,26997
 730,26; 8049,358;  239,108;54533,507;14,38500
 730,82; 7992,427;  229,569;54254,781;14,36895
 731,39; 8076,034;  229,031;54317,746;14,50765
 731,96; 8151,411;  214,800;54680,251;14,57183
 732,53; 8191,711;  236,185;54873,678;14,56056
 733,10; 8282,703;  243,031;54889,028;14,71228
 733,67; 8347,618;  236,184;55261,302;14,74133
 734,24; 8332,918;  217,031;54871,499;14,84945
 734,81; 8412,602;  259,492;54910,464;14,91851
 735,38; 8404,517;  232,954;54665,661;15,01223
 735,95; 8322,510;  228,107;54563,473;14,89712
 736,52; 8463,040;  236,723;54779,823;15,08223
 737,09; 8459,340;  248,646;54388,712;15,16565
 737,66; 8594,563;  286,030;54600,140;15,29719
 738,23; 8617,017;  226,030;54758,721;15,38708
 738,80; 8752,624;  307,722;55002,148;15,44015
 739,37; 8734,001;  261,645;55128,652;15,44162
 739,94; 8828,685;  236,953;55163,387;15,64225
 740,51; 8965,370;  366,338;55300,507;15,65334
 741,07; 8860,516;  233,722;55208,781;15,69220
 741,64; 8950,123;  273,107;55394,054;15,74178
 742,21; 8987,961;  238,722;55571,558;15,81202
 742,78; 9030,030;  213,030;55299,755;16,00567
 743,35; 9082,869;  232,183;55646,105;15,97195
 743,92; 9218,092;  280,876;55889,379;16,07167
 744,49; 9229,391;  273,183;55738,191;16,14749
 745,06; 9283,153;  230,568;55709,695;16,31710
 745,63; 9280,914;  223,029;55595,276;16,35817
 746,19; 9352,829;  227,183;55560,858;16,49203
 746,76; 9336,514;  236,798;55580,516;16,44218
 747,33; 9425,737;  243,183;55549,020;16,60323
 747,90; 9477,267;  263,798;55781,140;16,59566
 748,47; 9519,106;  240,875;55719,336;16,72402
 749,04; 9631,098;  244,567;55769,148;16,90518
 749,61; 9657,705;  279,183;55687,729;16,92613
 750,17; 9720,082;  265,413;55746,234;17,04133
 750,74; 9760,382;  251,875;55801,200;17,11723
 751,31; 9714,066;  232,413;55590,319;17,12791
 751,88; 9783,212;  216,336;55543,208;17,29155
 752,45; 9855,204;  231,490;55604,251;17,37987
 753,02; 9856,350;  260,413;55423,140;17,39569
 753,58; 9836,189;  232,490;55410,875;17,40482
 754,15; 9964,873;  219,028;55610,918;17,59435
 754,72; 9933,327;  230,028;55382,806;17,59349
 755,29; 9909,550;  221,721;55210,541;17,61782
 755,86;10015,465;  253,490;55419,430;17,69566
 756,42;10075,072;  251,336;55133,781;17,89960
 756,99;10066,218;  215,182;55231,285;17,90573
 757,56;10084,903;  229,874;55230,405;17,91806
 758,13;10107,356;  179,951;55113,447;18,07168
 758,70;10218,195;  215,489;55279,875;18,16547
 759,26;10242,956;  202,643;55239,687;18,24283
 759,83;10298,948;  227,028;55372,883;18,26415
 760,40;10327,094;  210,566;55218,311;18,39110
 760,97;10357,009;  206,489;55244,353;18,44279
 761,53;10324,309;  185,643;54956,396;18,51109
 762,10;10290,994;  186,412;54850,362;18,48491
 762,67;10403,140;  214,489;54907,097;18,62894
 763,24;10331,516;  173,874;54437,601;18,71903
 763,80;10412,355;  207,797;54611,798;18,75700
 764,37;10441,039;  211,181;54580,148;18,81562
 764,94;10364,031;  197,258;54198,499;18,82693
 765,50;10426,639;  205,335;54206,695;18,92786
 766,07;10519,862;  237,489;54177,507;19,06261
 766,64;10416,777;  214,719;53884,319;19,00901
 767,21;10458,615;  213,873;53796,977;19,11935
 767,77;10512,761;  234,719;53682,943;19,22990
 768,34;10490,676;  223,950;53621,448;19,22698
 768,91;10492,361;  233,719;53493,260;19,26160
 769,47;10558,122;  232,488;53468,072;19,39611
 770,04;10551,576;  245,719;53389,037;19,39257
 770,61;10522,337;  219,180;53037,695;19,50671
 771,18;10505,329;  211,334;53017,969;19,49375
 771,74;10611,629;  226,873;53148,935;19,62274
 772,31;10580,621;  236,103;52924,131;19,63353
 772,88;10608,306;  205,796;52656,174;19,83305
 773,44;10599,682;  202,565;52564,832;19,85613
 774,01;10661,674;  233,796;52605,952;19,91111
 774,58;10657,820;  215,642;52376,456;20,01920
 775,14;10721,659;  208,411;52458,191;20,12113
 775,71;10744,651;  210,795;52348,926;20,20375
 776,27;10810,874;  273,641;52254,661;20,27131
 776,84;10847,481;  312,180;52286,243;20,27031
 777,41;10811,396;  226,411;52017,901;20,43769
 777,97;10776,927;  215,795;51779,713;20,48163
 778,54;10881,842;  231,641;52002,294;20,57189
 779,11;10915,373;  260,641;51813,490;20,66759
 779,67;10915,596;  216,487;51780,072;20,74935
 780,24;10940,588;  231,949;51504,576;20,88568
 780,80;10926,118;  235,949;51658,234;20,78898
 781,37;11004,649;  237,795;51581,200;20,97028
 781,94;11056,026;  230,948;51445,858;21,13657
 782,50;10987,172;  228,179;51259,670;21,08305
 783,07;11087,548;  257,564;51261,097;21,23379
 783,63;11061,464;  221,871;51107,909;21,30170
 784,20;11124,994;  248,179;51014,798;21,42513
 784,77;11060,833;  232,410;50773,302;21,42507
 785,33;10997,286;  210,102;50667,037;21,37899
 785,90;11144,432;  228,102;50623,926;21,66118
 786,46;11122,578;  256,102;50497,815;21,62840
 787,03;11105,263;  228,102;50236,243;21,75078
 787,59;11151,485;  232,563;50226,978;21,84028
 788,16;11170,708;  235,871;50217,020;21,87792
 788,73;11183,624;  236,409;50094,217;21,95687
 789,29;11158,923;  230,640;49793,875;22,04917
 789,86;11159,146;  258,178;49607,226;22,08952
 790,42;11158,369;  238,101;49520,038;22,15876
 790,99;11106,131;  241,871;49234,388;22,17535
 791,55;11166,277;  233,255;49198,969;22,32791
 792,12;11203,653;  270,794;49232,320;22,32949
 792,68;11139,184;  239,178;48915,901;22,39265
 793,25;11116,330;  249,409;48664,020;22,44554
 793,81;11136,860;  318,486;48265,909;22,56299
 794,38;10976,545;  209,870;48136,952;22,46470
 794,94;11015,460;  239,870;48136,610;22,49754
 795,51;10957,837;  243,255;47862,730;22,50042
 796,07;10960,906;  234,101;47650,696;22,62247
 796,64;10997,206;  262,870;47746,046;22,60661
 797,20;10874,736;  246,178;47193,089;22,63953
 797,77;10874,267;  215,408;46881,670;22,84061
 798,33;10818,413;  244,177;46734,251;22,74515
 798,90;10867,405;  251,485;46698,063;22,85619
 799,46;10761,551;  221,947;46181,798;22,93220
 800,03;10734,851;  244,100;46101,918;22,87669
 800,59;10816,151;  259,254;45974,191;23,09288
 801,15;10776,604;  253,023;45733,850;23,13850
 801,72;10687,596;  240,946;45340,585;23,16349
 802,28;10689,588;  267,946;45057,089;23,26823
 802,85;10659,042;  238,254;44917,132;23,32375
 803,41;10638,803;  228,562;44717,636;23,39955
 803,98;10551,411;  231,946;44265,909;23,43524
 804,54;10573,172;  234,331;44154,568;23,54004
 805,11;10513,164;  247,715;43862,841;23,53644
 805,67;10575,464;  262,254;43846,653;23,66262
 806,23;10439,918;  249,177;43371,003;23,63244
 806,80;10508,910;  260,023;43244,277;23,84335
 807,36;10517,210;  258,253;43238,243;23,86915
 807,93;10552,202;  267,176;43079,055;24,02377
 808,49;10458,425;  233,561;42628,559;24,11809
 809,05;10439,109;  231,561;42517,909;24,13911
 809,62;10457,409;  264,407;42372,183;24,20694
 810,18;10506,709;  250,638;42348,149;24,36265
 810,74;10406,163;  218,022;41992,576;24,38839
 811,31;10407,078;  227,407;41870,234;24,44520
 811,87;10419,455;  254,330;41773,046;24,48323
 812,44;10470,216;  268,176;41687,781;24,63094
 813,00;10415,977;  204,637;41421,439;24,77470
 813,56;10457,277;  255,176;41486,559;24,74353
 814,13;10488,423;  234,945;41479,140;24,86042
 814,69;10421,184;  243,099;41172,414;24,86747
 815,25;10400,561;  209,022;40779,533;25,12056
 815,82;10407,707;  260,637;40770,038;25,04868
 816,38;10450,238;  289,637;40586,696;25,21425
 816,94;10374,768;  226,637;40272,969;25,34098
 817,51;10261,991;  220,637;40085,166;25,18869
 818,07;10225,445;  221,022;39734,670;25,31891
 818,63;10236,822;  234,021;39568,482;25,43012
 819,20;10285,275;  245,329;39580,525;25,52408
 819,76;10199,498;  223,483;39195,260;25,59805
 820,32;10139,029;  248,252;39074,764;25,47429
 820,89;10130,021;  247,021;38918,807;25,55610
 821,45;10073,705;  217,406;38530,927;25,72538
 822,01;10048,621;  252,867;38313,739;25,73707
 822,57;10056,536;  252,559;38158,628;25,86387
 823,14; 9984,451;  216,867;37916,132;25,90922
 823,70; 9972,828;  220,021;37639,482;26,06346
 824,26; 9868,128;  219,482;37478,602;25,89606
 824,82; 9924,581;  256,867;37394,875;26,03186
 825,39; 9872,727;  228,251;37042,534;26,19765
 825,95; 9887,104;  238,328;37083,730;26,18719
 826,51; 9821,558;  239,790;36697,234;26,28206
 827,08; 9881,550;  270,251;36758,662;26,34069
 827,64; 9802,927;  252,097;36598,781;26,27703
 828,20; 9748,842;  214,867;36265,901;26,44577
 828,76; 9781,757;  253,866;36258,636;26,46286
 829,32; 9818,518;  261,251;36200,987;26,59248
 829,89; 9693,895;  209,789;35935,106;26,54730
 830,45; 9744,887;  237,482;36000,687;26,58432
 831,01; 9717,341;  232,712;35591,269;26,82414
 831,57; 9697,718;  240,328;35661,388;26,69991
 832,14; 9726,710;  221,020;35632,585;26,84346
 832,70; 9677,086;  219,558;35308,551;26,95298
 833,26; 9666,002;  199,020;35184,824;27,05949
 833,82; 9645,071;  229,404;35104,636;26,99815
 834,38; 9699,140;  222,558;35095,140;27,17488
 834,95; 9678,440;  213,635;35052,260;27,16756
 835,51; 9616,893;  190,635;34868,072;27,18268
 836,07; 9699,655;  234,173;34910,423;27,29673
 836,63; 9767,877;  244,866;34946,158;27,44282
 837,19; 9710,947;  234,558;34790,893;27,42301
 837,75; 9610,169;  204,481;34431,166;27,48057
 838,32; 9671,162;  244,942;34548,901;27,47852
 838,88; 9749,077;  241,481;34645,175;27,63539
 839,44; 9748,684;  248,865;34467,987;27,76173
 840,00; 9772,215;  241,404;34451,337;27,85978
 840,56; 9669,745;  222,404;34168,149;27,83071
 841,12; 9626,891;  218,634;34182,961;27,70041
 841,68; 9536,960;  196,173;33923,004;27,69542
 842,25; 9599,568;  232,557;33917,970;27,80732
 842,81; 9556,637;  204,942;33732,782;27,89233
 843,37; 9546,552;  200,634;33731,594;27,87250
 843,93; 9589,314;  227,557;33568,329;28,07900
 844,49; 9681,075;  237,788;33657,910;28,25629
 845,05; 9593,221;  187,557;33455,260;28,27266
 845,61; 9687,982;  245,095;33466,918;28,42375
 846,17; 9604,436;  222,172;33305,653;28,35936
 846,73; 9602,505;  230,634;33273,542;28,36273
 847,29; 9561,266;  211,326;33127,123;28,40563
 847,86; 9576,412;  210,249;33033,859;28,53484
 848,42; 9515,020;  223,095;32902,594;28,43350
 848,98; 9571,550;  228,403;32852,098;28,63915
 849,54; 9523,004;  214,633;32873,756;28,50159
 850,10; 9551,996;  232,403;32833,183;28,58703
 850,66; 9512,373;  212,326;32636,534;28,68242
 851,22; 9527,596;  196,864;32571,269;28,82132
 851,78; 9592,203;  250,018;32602,235;28,87649
 852,34; 9518,965;  232,710;32403,047;28,86589
 852,90; 9521,418;  216,556;32242,782;29,05388
 853,46; 9496,103;  213,402;32069,671;29,13932
 854,02; 9554,864;  231,787;32082,329;29,27133
 854,58; 9399,702;  227,171;31738,910;29,10830
 855,14; 9403,233;  217,941;31687,953;29,18745
 855,70; 9364,379;  177,633;31580,226;29,25474
 856,26; 9431,987;  226,171;31551,500;29,38777
 856,82; 9385,979;  220,633;31325,773;29,46570
 857,38; 9385,663;  247,940;31349,508;29,38026
 857,94; 9368,655;  217,786;31077,320;29,65330
 858,50; 9346,494;  258,940;31058,594;29,50538
 859,06; 9315,563;  215,479;30823,713;29,73084
 859,62; 9320,247;  231,709;30848,525;29,68479
 860,18; 9283,778;  224,786;30541,876;29,88081
 860,74; 9296,847;  197,325;30524,072;30,00494
 861,30; 9227,608;  191,171;30301,807;30,01078
 861,86; 9322,292;  272,632;30376,235;30,06172
 862,42; 9231,977;  219,709;30222,431;30,03817
 862,98; 9286,046;  257,247;30116,705;30,23765
 863,54; 9206,961;  222,170;29941,901;30,23174
 864,10; 9282,030;  223,093;30022,636;30,39958
 864,66; 9181,253;  204,016;29791,295;30,34154
 865,22; 9186,091;  215,939;29593,491;30,53403
 865,78; 9200,545;  222,862;29471,842;30,69400
 866,34; 9164,306;  213,170;29417,038;30,65052
 866,90; 9159,375;  236,555;29302,158;30,69890
 867,45; 9088,137;  230,785;29035,970;30,74916
 868,01; 9056,437;  229,324;28878,936;30,81058
 868,57; 9052,506;  217,862;28688,363;31,03087
 869,13; 8969,805;  205,708;28673,560;30,78595
 869,69; 8995,182;  214,400;28441,756;31,10735
 870,25; 8957,405;  186,785;28315,337;31,18049
 870,81; 9021,474;  220,400;28380,765;31,25341
 871,37; 8982,312;  230,862;28330,577;31,14427
 871,93; 8957,151;  238,939;28173,081;31,20988
 872,49; 8931,835;  262,246;27799,893;31,48268
 873,04; 8801,750;  205,477;27732,782;31,22817
 873,60; 8863,435;  205,708;27540,440;31,67299
 874,16; 8814,196;  232,400;27473,483;31,50314
 874,72; 8768,812;  212,938;27433,175;31,43203
 875,28; 8822,735;  219,708;27361,713;31,69636
 875,84; 8803,581;  230,246;27350,483;31,61232
 876,40; 8808,042;  211,631;27344,867;31,68222
 876,95; 8741,504;  223,323;27303,098;31,45588
 877,51; 8857,119;  246,323;27297,637;31,83134
 878,07; 8840,658;  263,400;27292,483;31,73344
 878,63; 8885,196;  222,169;27272,867;32,02515
 879,19; 8919,427;  240,400;27318,867;32,05140
 879,75; 8905,735;  207,554;27394,790;31,99362
 880,30; 8930,119;  226,554;27456,252;31,96350
 880,86; 9060,196;  267,246;27557,790;32,21977
 881,42; 9047,042;  217,938;27581,175;32,26630
 881,98; 9143,965;  227,785;27704,867;32,44952
 882,54; 9151,042;  216,246;27817,637;32,37082
 883,09; 9245,812;  237,400;27976,790;32,47516
 883,65; 9298,196;  203,169;28121,944;32,57674
 884,21; 9397,735;  251,323;28417,021;32,47358
 884,77; 9480,504;  211,631;28439,637;32,83573
 885,32; 9505,888;  221,938;28643,483;32,66518
 885,88; 9685,812;  263,323;28852,944;32,95772
 886,44; 9721,735;  227,015;28875,021;33,14269
 887,00; 9785,427;  250,477;28933,944;33,24197
 887,56; 9846,350;  225,323;29002,329;33,43304
 888,11; 9862,812;  221,785;29072,483;33,41696
 888,67; 9983,119;  256,785;29292,867;33,49741
 889,23; 9964,350;  226,015;29292,867;33,50323
 889,79; 9929,427;  210,323;29163,252;33,56864
 890,34; 9944,658;  231,862;29147,252;33,59040
 890,90;10033,735;  299,554;29313,098;33,55047
 891,46; 9999,735;  230,477;29165,790;33,76240
 892,01;10055,273;  241,631;29178,713;33,91372
 892,57;10032,350;  246,785;29092,252;33,92410
 893,13; 9953,735;  211,400;28971,021;33,87505
 893,69; 9977,504;  202,631;28899,713;34,06225
 894,24; 9954,504;  230,400;28829,175;34,00182
 894,80; 9867,965;  234,169;28582,867;33,98320
 895,36; 9851,119;  226,477;28442,175;34,11095
 895,91; 9856,427;  225,169;28280,560;34,32944
 896,47; 9779,042;  242,708;28191,329;34,12095
 897,03; 9710,119;  219,092;27945,252;34,23131
 897,58; 9721,735;  244,246;27851,483;34,32973
 898,14; 9657,196;  234,708;27640,483;34,38140
 898,70; 9556,965;  202,092;27523,637;34,23991
 899,25; 9577,888;  230,785;27537,021;34,23066
 899,81; 9618,119;  245,477;27311,175;34,62923
 900,37; 9517,427;  209,785;27044,790;34,68470
 900,92; 9530,658;  231,938;27062,560;34,65712
 901,48; 9466,196;  212,477;26888,790;34,68890
 902,03; 9459,119;  222,477;26758,098;34,80846
 902,59; 9483,735;  225,477;26678,944;34,99828
 903,15; 9388,042;  239,477;26485,560;34,85688
 903,70; 9336,965;  227,477;26196,021;35,07893
 904,26; 9305,119;  227,400;26080,175;35,11313
 904,82; 9348,812;  229,938;26143,560;35,18950
 905,37; 9308,350;  234,708;26013,175;35,19853
 905,93; 9243,042;  210,631;25805,867;35,28942
 906,48; 9276,042;  231,708;25697,175;35,51608
 907,04; 9280,888;  239,785;25643,637;35,58950
 907,60; 9155,504;  240,708;25437,021;35,38135
 908,15; 9165,812;  218,554;25329,021;35,63159
 908,71; 9194,350;  249,246;25351,021;35,63534
 909,26; 9138,273;  223,938;25228,867;35,65031
 909,82; 9092,581;  235,169;25071,637;35,66293
 910,37; 9141,888;  273,015;25014,175;35,84663
 910,93; 9061,042;  216,631;24674,021;36,16253
 911,48; 9053,427;  212,785;24616,867;36,22608
 912,04; 9072,196;  213,631;24466,637;36,52564
 912,60; 9030,196;  231,938;24515,560;36,23124
 913,15; 9007,581;  239,092;24347,329;36,37134
 913,71; 8932,888;  215,092;24093,252;36,50950
 914,26; 8928,042;  190,938;24063,406;36,59908
 914,82; 8931,888;  229,785;23958,329;36,67357
 915,37; 8906,658;  214,323;23861,329;36,75871
 915,93; 8935,581;  270,169;23812,637;36,80758
 916,48; 8830,196;  216,938;23582,560;36,86295
 917,04; 8801,427;  237,169;23521,021;36,78196
 917,59; 8868,504;  257,631;23477,713;37,08373
 918,15; 8717,504;  197,323;23245,021;36,96760
 918,70; 8692,812;  219,092;23222,175;36,83732
 919,26; 8750,735;  236,862;23058,560;37,30605
 919,81; 8684,658;  207,862;22928,175;37,30933
 920,37; 8660,273;  218,938;22839,483;37,31712
 920,92; 8699,196;  261,400;22781,021;37,46864
 921,48; 8648,350;  199,785;22525,637;37,84207
 922,03; 8616,658;  205,477;22530,098;37,67670
 922,59; 8592,350;  225,246;22402,483;37,72834
 923,14; 8620,658;  224,785;22233,406;38,14811
 923,69; 8642,888;  250,015;22170,252;38,28824
 924,25; 8620,965;  245,938;22132,098;38,26632
 924,80; 8519,196;  219,862;21961,790;38,17203
 925,36; 8491,427;  207,631;21846,406;38,28219
 925,91; 8481,658;  224,015;21753,175;38,35562
 926,47; 8468,196;  202,323;21673,637;38,49729
 927,02; 8472,504;  285,862;21626,944;38,36095
 927,57; 8379,658;  214,092;21334,329;38,66228
 928,13; 8392,965;  210,092;21322,713;38,75821
 928,68; 8380,350;  229,092;21243,560;38,78879
 929,24; 8319,888;  191,092;21028,867;39,00990
 929,79; 8279,735;  206,323;20950,252;38,91939
 930,34; 8300,581;  220,477;20785,021;39,29143
 930,90; 8298,965;  214,015;20762,790;39,34517
 931,45; 8226,888;  226,554;20754,021;38,97380
 932,01; 8231,812;  234,785;20661,098;39,15061
 932,56; 8188,273;  246,246;20478,175;39,25492
 933,11; 8169,273;  252,169;20502,867;39,09546
 933,67; 8123,888;  219,092;20311,867;39,34149
 934,22; 8131,504;  216,477;20255,790;39,49750
 934,77; 8075,965;  252,708;20143,560;39,33093
 935,33; 8038,504;  227,092;20010,944;39,48377
 935,88; 8022,581;  235,862;19929,021;39,54022
 936,43; 7959,273;  227,862;19856,175;39,38908
 936,99; 7972,735;  232,554;19695,560;39,76868
 937,54; 7929,196;  212,169;19608,867;39,78526
 938,09; 7948,427;  239,554;19555,637;39,90909
 938,65; 7897,965;  232,400;19423,175;39,94401
 939,20; 7827,581;  206,323;19300,175;39,91472
 939,75; 7870,504;  204,323;19170,329;40,42064
 940,31; 7826,504;  211,246;19116,713;40,28072
 940,86; 7747,581;  227,015;19065,944;39,92034
 941,41; 7818,888;  313,400;19135,406;39,87614
 941,96; 7742,196;  210,477;18889,329;40,32217
 942,52; 7726,427;  217,631;18806,790;40,39341
 943,07; 7630,350;  201,785;18710,637;40,13520
 943,62; 7656,735;  212,477;18644,637;40,38733
 944,18; 7604,196;  203,323;18555,406;40,32716
 944,73; 7597,042;  220,477;18409,175;40,55576
 945,28; 7555,196;  191,554;18242,944;40,79266
 945,83; 7567,658;  207,323;18343,175;40,58444
 946,39; 7533,581;  213,246;18264,790;40,55240
 946,94; 7500,735;  245,246;18136,175;40,55401
 947,49; 7493,888;  209,169;18047,329;40,83784
 948,04; 7505,735;  256,554;17943,329;40,98645
 948,59; 7524,427;  240,169;17960,867;41,10593
 949,15; 7440,427;  203,400;17842,867;41,02747
 949,70; 7429,888;  214,092;17716,252;41,22803
 950,25; 7399,965;  239,169;17592,329;41,26509
 950,80; 7314,812;  185,323;17440,483;41,31801
 951,36; 7312,273;  193,015;17370,175;41,44607
 951,91; 7330,581;  233,477;17399,098;41,34487
 952,46; 7248,427;  199,554;17230,098;41,38959
 953,01; 7270,965;  226,631;17255,406;41,36724
 953,56; 7221,812;  195,169;17099,021;41,56829
 954,11; 7188,504;  222,554;17028,406;41,44955
 954,67; 7211,658;  214,862;16967,560;41,76519
 955,22; 7150,427;  200,015;16814,560;41,83330
 955,77; 7151,504;  248,400;16765,560;41,79353
 956,32; 7176,581;  270,400;16704,406;42,02372
 956,87; 7078,735;  207,092;16558,944;42,02363
 957,42; 7041,581;  215,631;16537,944;41,81975
 957,98; 7067,350;  208,554;16381,713;42,40851
 958,53; 7044,581;  245,938;16348,790;42,22011
 959,08; 6986,042;  204,708;16229,175;42,31863
 959,63; 6938,273;  212,246;16089,483;42,36271
 960,18; 6944,965;  223,708;16043,560;42,48622
 960,73; 6923,273;  225,169;16017,560;42,41349
 961,28; 6854,888;  193,554;15881,175;42,46236
 961,83; 6870,042;  243,323;15852,098;42,45509
 962,39; 6818,042;  196,938;15762,329;42,53735
 962,94; 6753,196;  235,400;15630,944;42,33560
 963,49; 6718,581;  215,785;15523,713;42,47992
 964,04; 6717,581;  235,785;15473,329;42,53833
 964,59; 6659,965;  194,015;15376,175;42,58913
 965,14; 6674,735;  239,554;15334,713;42,63076
 965,69; 6645,735;  219,015;15295,098;42,62858
 966,24; 6606,273;  206,631;15172,560;42,76141
 966,79; 6583,350;  224,323;15031,790;42,94473
 967,34; 6471,119;  190,169;14944,867;42,56915
 967,89; 6502,119;  216,400;14881,867;42,86068
 968,44; 6493,273;  218,400;14821,252;42,97019
 968,99; 6467,119;  226,862;14712,790;43,07806
 969,55; 6445,812;  218,554;14667,406;43,09863
 970,10; 6460,504;  226,708;14514,637;43,62981
 970,65; 6439,735;  239,092;14459,329;43,60435
 971,20; 6380,042;  211,631;14306,867;43,76238
 971,75; 6282,658;  197,169;14216,021;43,40932
 972,30; 6336,273;  219,092;14145,175;43,92607
 972,85; 6248,350;  204,554;14088,021;43,53233
 973,40; 6220,350;  203,708;13950,560;43,76742
 973,95; 6207,581;  227,554;13891,406;43,76531
 974,50; 6189,888;  248,323;13904,406;43,50856
 975,05; 6112,042;  211,785;13704,483;43,72926
 975,60; 6125,042;  228,862;13682,175;43,82698
 976,15; 6065,119;  212,477;13600,944;43,71406
 976,70; 6056,196;  226,862;13493,637;43,93935
 977,25; 6051,888;  235,246;13457,867;43,99009
 977,80; 5957,427;  208,554;13293,098;43,93636
 978,35; 5945,273;  234,708;13092,175;44,41439
 978,89; 5925,119;  201,169;13054,560;44,53261
 979,44; 5884,658;  223,862;13040,021;44,16921
 979,99; 5812,504;  212,169;12829,867;44,38476
 980,54; 5853,042;  246,785;12840,637;44,51583
 981,09; 5835,273;  242,938;12647,713;45,08211
 981,64; 5774,812;  228,708;12520,406;45,12073
 982,19; 5792,042;  270,246;12500,713;45,14788
 982,74; 5661,581;  234,477;12373,713;44,70713
 983,29; 5624,735;  200,092;12258,944;44,98473
 983,84; 5604,350;  232,554;12145,329;45,09274
 984,39; 5641,965;  298,862;12130,406;45,15982
 984,94; 5521,735;  205,323;11949,867;45,26707
 985,49; 5536,658;  245,862;11916,483;45,33431
 986,03; 5506,735;  243,015;11837,252;45,39945
 986,58; 5473,735;  282,477;11682,944;45,53548
 987,13; 5343,888;  212,015;11573,252;45,17002
 987,68; 5339,042;  241,554;11430,098;45,55989
 988,23; 5344,504;  243,477;11445,406;45,53704
 988,78; 5283,273;  210,400;11289,560;45,78753
 989,33; 5258,888;  248,477;11125,483;46,06425
 989,88; 5285,888;  258,169;11165,790;46,09364
 990,42; 5151,273;  230,708;10973,713;45,80250
 990,97; 5136,350;  213,092;10828,329;46,37916
 991,52; 5147,119;  241,246;10779,329;46,55375
 992,07; 5094,965;  258,631;10725,790;46,20484
 992,62; 5004,273;  235,554;10580,175;46,09854
 993,17; 5000,965;  240,092;10459,483;46,58666
 993,71; 4954,196;  243,092;10406,483;46,35366
 994,26; 4868,273;  219,092;10208,944;46,53904
 994,81; 4913,273;  253,323;10201,021;46,84451
 995,36; 4790,273;  215,785;10082,483;46,36291
 995,91; 4794,042;  230,246; 9978,713;46,81553
 996,45; 4715,812;  232,631; 9855,867;46,58704
 997,00; 4696,119;  200,708; 9710,098;47,27339
 997,55; 4674,042;  244,938; 9694,021;46,87337
 998,10; 4611,119;  249,323; 9601,713;46,63830
 998,65; 4607,735;  228,323; 9486,098;47,30523
 999,19; 4557,273;  248,246; 9399,483;47,08683
 999,74; 4518,196;  259,708; 9297,560;47,11837
1000,29; 4459,735;  239,246; 9177,790;47,21673
1000,84; 4392,965;  226,938; 9035,790;47,29364
1001,38; 4366,504;  233,169; 8965,175;47,33545
1001,93; 4366,196;  245,554; 8920,790;47,49890
1002,48; 4258,350;  206,400; 8758,098;47,38182
1003,03; 4277,042;  239,938; 8675,252;47,85956
1003,57; 4245,273;  242,554; 8621,483;47,77125
1004,12; 4227,427;  260,631; 8573,406;47,71928
1004,67; 4142,888;  224,246; 8447,790;47,65150
1005,22; 4059,735;  221,400; 8250,406;47,80585
1005,76; 3987,273;  210,554; 8124,329;47,72336
1006,31; 4011,427;  243,938; 8095,790;47,98216
1006,86; 3934,504;  216,246; 7914,713;48,29867
1007,40; 3861,350;  211,246; 7821,021;47,96599
1007,95; 3852,735;  227,708; 7688,483;48,58781
1008,50; 3763,812;  238,323; 7620,637;47,75588
1009,04; 3719,119;  230,246; 7458,483;48,26728
1009,59; 3668,504;  232,015; 7371,252;48,13524
1010,14; 3637,812;  220,169; 7282,713;48,39109
1010,68; 3577,965;  233,708; 7158,560;48,29356
1011,23; 3528,042;  235,092; 7054,790;48,28586
1011,78; 3491,427;  253,246; 6960,713;48,27725
1012,32; 3434,042;  252,400; 6872,252;48,06214
1012,87; 3451,273;  257,246; 6859,790;48,37570
1013,42; 3371,427;  220,169; 6710,021;48,55670
1013,96; 3393,119;  254,708; 6728,944;48,47539
1014,51; 3341,427;  192,938; 6595,790;49,17322
1015,06; 3376,735;  199,938; 6633,406;49,37922
1015,60; 3415,119;  276,477; 6714,790;48,74945
1016,15; 3364,350;  222,631; 6685,406;48,61254
1016,69; 3415,119;  226,400; 6689,867;49,33450
1017,24; 3453,119;  203,554; 6703,637;49,99268
1017,79; 3513,427;  266,938; 6809,637;49,62003
1018,33; 3513,812;  225,323; 6806,406;49,96881
1018,88; 3603,427;  242,323; 6915,021;50,37099
1019,42; 3585,965;  235,708; 6899,560;50,27509
1019,97; 3590,581;  222,015; 6909,098;50,37421
1020,51; 3672,581;  259,400; 7042,944;50,31560
1021,06; 3645,350;  198,631; 6987,560;50,76971
1021,61; 3626,888;  185,938; 6998,406;50,50960
1022,15; 3596,658;  176,862; 6896,175;50,89502
1022,70; 3633,042;  222,323; 6941,560;50,76052
1023,24; 3629,888;  209,169; 6894,560;51,16708
1023,79; 3615,812;  234,246; 6823,175;51,32193
1024,33; 3593,196;  225,554; 6770,098;51,45725
1024,88; 3539,581;  233,477; 6724,021;50,93724
1025,42; 3493,581;  234,400; 6536,021;51,71972
1025,97; 3442,196;  214,400; 6473,713;51,56789
1026,51; 3364,196;  196,400; 6368,867;51,32139
1027,06; 3363,812;  216,631; 6318,252;51,57942
1027,60; 3284,350;  228,631; 6212,713;51,06412
1028,15; 3267,273;  241,785; 6148,329;51,22265
1028,69; 3150,119;  198,708; 5937,483;51,42930
1029,24; 3154,350;  219,323; 5908,329;51,59121
1029,78; 3095,888;  204,708; 5835,560;51,34535
1030,33; 3049,350;  197,323; 5678,790;52,03036
1030,87; 3032,658;  208,862; 5635,637;52,03452
1031,42; 2964,735;  192,862; 5513,867;52,09303
1031,96; 2956,658;  236,785; 5473,098;51,94252
1032,51; 2872,735;  203,938; 5401,867;51,34345
1033,05; 2864,504;  216,400; 5335,790;51,72694
1033,60; 2783,273;  198,938; 5221,406;51,45548
1034,14; 2762,119;  221,400; 5148,098;51,57043
1034,69; 2736,812;  213,785; 5084,867;51,79602
1035,23; 2721,658;  214,708; 5009,944;52,28001
1035,77; 2685,658;  220,092; 4922,944;52,42703
1036,32; 2612,350;  197,477; 4838,790;52,02995
1036,86; 2599,427;  223,169; 4806,021;51,85107
1037,41; 2579,042;  232,400; 4710,483;52,40284
1037,95; 2518,119;  191,092; 4640,175;52,30352
1038,50; 2488,965;  209,323; 4594,790;51,98174
1039,04; 2505,196;  231,246; 4555,713;52,58336
1039,58; 2419,119;  200,477; 4461,252;52,07133
1040,13; 2393,735;  210,246; 4394,790;52,17984
1040,67; 2413,735;  244,323; 4399,637;52,20813
1041,21; 2396,042;  247,554; 4267,867;53,44082
1041,76; 2316,504;  202,554; 4193,175;52,97296
1042,30; 2312,504;  207,631; 4173,713;53,07184
1042,85; 2264,196;  215,323; 4094,175;52,82164
1043,39; 2221,812;  195,323; 3985,944;53,46059
1043,93; 2205,196;  242,015; 3993,637;52,32887
1044,48; 2202,119;  227,015; 3932,483;53,30242
1045,02; 2123,812;  211,785; 3880,021;52,12387
1045,56; 2156,658;  240,708; 3851,021;53,06880
1046,11; 2122,196;  227,554; 3785,406;53,25242
1046,65; 2081,735;  229,477; 3706,406;53,27281
1047,19; 2029,196;  212,938; 3668,637;52,55834
1047,74; 1989,427;  195,862; 3568,944;53,17289
1048,28; 1982,042;  224,400; 3561,252;52,67367
1048,82; 2007,196;  249,938; 3558,790;53,10778
1049,37; 1974,196;  236,400; 3450,867;54,06171
1049,91; 1945,350;  225,092; 3414,560;53,93558
1050,45; 1909,273;  239,169; 3391,637;52,97767
1050,99; 1891,273;  219,246; 3353,483;53,34718
1051,54; 1853,042;  213,169; 3251,175;53,97860
1052,08; 1847,273;  249,938; 3258,098;53,10006
1052,62; 1816,119;  241,323; 3228,790;52,71342
1053,16; 1777,735;  220,554; 3136,867;53,39552
1053,71; 1767,273;  226,092; 3101,252;53,60331
1054,25; 1743,119;  244,169; 3059,867;53,23547
1054,79; 1738,042;  237,246; 3008,252;54,16070
1055,33; 1685,042;  200,092; 2939,637;54,20427
1055,88; 1686,119;  239,400; 2941,098;53,54852
1056,42; 1675,965;  237,477; 2872,252;54,59625
1056,96; 1654,504;  247,015; 2844,483;54,18696
1057,50; 1622,581;  230,477; 2794,098;54,30225
1058,05; 1601,504;  230,015; 2762,252;54,16115
1058,59; 1606,581;  247,938; 2739,252;54,53518
1059,13; 1539,042;  213,708; 2670,175;53,95287
1059,67; 1548,658;  235,015; 2639,175;54,64039
1060,21; 1526,042;  232,092; 2573,098;55,27325
1060,76; 1514,350;  239,554; 2571,329;54,67063
1061,30; 1504,350;  259,400; 2576,329;53,73277
1061,84; 1461,196;  232,938; 2493,406;54,33645
1062,38; 1420,119;  217,477; 2432,329;54,29899
1062,92; 1479,888;  267,708; 2475,637;54,90126
1063,46; 1435,273;  250,323; 2372,560;55,83496
1064,01; 1412,196;  219,169; 2363,944;55,62481
1064,55; 1384,581;  244,477; 2310,790;55,17574
1065,09; 1343,812;  210,400; 2239,329;55,86256
1065,63; 1366,196;  252,554; 2300,790;54,37079
1066,17; 1356,581;  258,323; 2235,637;55,54292
1066,71; 1332,504;  252,015; 2232,252;54,56361
1067,25; 1309,658;  233,169; 2154,790;56,01981
1067,80; 1303,196;  250,554; 2176,867;54,64543
1068,34; 1318,735;  262,323; 2144,560;56,12533
1068,88; 1251,965;  220,246; 2092,483;55,10624
1069,42; 1281,888;  250,246; 2101,252;55,73415
1069,96; 1236,196;  231,092; 2018,713;56,22577
1070,50; 1269,658;  260,092; 2062,713;56,00541
1071,04; 1197,427;  223,169; 1975,252;55,60569
1071,58; 1201,965;  233,092; 1960,560;56,08633
1072,12; 1188,427;  234,554; 1946,560;55,71670
1072,66; 1189,658;  241,785; 1936,021;55,94692
1073,21; 1182,812;  253,246; 1939,098;55,13921
1073,75; 1150,581;  239,862; 1893,790;55,06399
1074,29; 1134,888;  239,708; 1876,637;54,68660
1074,83; 1162,350;  262,092; 1872,329;55,90841
1075,37; 1143,812;  259,631; 1832,483;56,21513
1075,91; 1109,812;  247,631; 1794,790;55,72669
1076,45; 1104,735;  247,785; 1770,790;56,26702
1076,99; 1091,504;  258,938; 1749,483;55,85647
1077,53; 1058,042;  231,323; 1710,790;55,87952
1078,07; 1070,812;  243,477; 1723,560;55,89786
1078,61; 1065,350;  241,400; 1669,637;57,69002
1079,15; 1035,965;  234,246; 1688,867;55,11533
1079,69; 1030,504;  240,785; 1637,944;56,52319
1080,23; 1041,350;  253,323; 1646,867;56,54840
1080,77; 1073,581;  301,938; 1673,175;56,27346
1081,31; 1001,196;  230,092; 1598,175;56,36383
1081,85; 1007,042;  247,323; 1598,560;56,22400
1082,39;  988,350;  235,631; 1560,329;56,82195
1082,93;  981,119;  250,554; 1558,867;55,84024
1083,47;  945,196;  225,938; 1506,867;56,15126
1084,01;  970,658;  253,938; 1542,560;55,61908
1084,55;  934,581;  232,554; 1488,713;55,88676
1085,09;  941,196;  255,938; 1486,175;55,70130
1085,63;  918,504;  252,477; 1455,944;55,34234
1086,17;  918,350;  235,708; 1415,021;57,88472
1086,71;  906,196;  219,246; 1411,175;57,63347
1087,24;  925,735;  262,938; 1429,406;56,82081
1087,78;  908,658;  251,092; 1379,944;58,25081
1088,32;  869,658;  232,554; 1339,021;57,58000
1088,86;  892,658;  253,554; 1374,944;56,99209
1089,40;  869,812;  249,477; 1351,944;56,26785
1089,94;  838,427;  218,092; 1316,560;56,47274
1090,48;  844,350;  249,631; 1314,713;55,83785
1091,02;  855,504;  255,015; 1325,867;56,07577
1091,56;  822,812;  245,400; 1297,560;54,87870
1092,10;  783,273;  220,785; 1261,329;54,05714
1092,63;  843,504;  260,862; 1278,713;57,24234
1093,17;  816,735;  253,246; 1245,252;56,80294
1093,71;  803,273;  226,246; 1209,637;58,67730
1094,25;  811,581;  260,092; 1220,021;57,45097
1094,79;  783,812;  245,631; 1188,944;57,05217
1095,33;  783,888;  252,246; 1185,790;56,94881
1095,87;  771,581;  239,631; 1191,252;55,89935
1096,40;  746,888;  224,862; 1149,944;56,43030
1096,94;  754,658;  245,169; 1150,021;56,30628
1097,48;  768,042;  254,169; 1153,483;57,14060
1098,02;  731,350;  244,477; 1105,483;56,54702
1098,56;  712,427;  217,862; 1080,021;57,36355
1099,10;  710,658;  213,938; 1066,790;58,24214
1099,63;  702,812;  221,323; 1071,175;56,65557
1100,17;  718,581;  239,708; 1075,329;57,30744
1100,71;  737,581;  261,169; 1095,329;57,11276

