
Integration time [ms]: 140,000
Averaging Nr. [scans]: 13
Smoothing Nr. [pixels]: 0
Data measured with spectrometer [name]: 2009305U1
Wave   ;Sample   ;Dark     ;Reference;Reflectance
[nm]   ;[counts] ;[counts] ;[counts] ;[%]

 175,72;  207,510;  202,783;  223,076;23,29396
 176,32;  233,397;  235,325;  233,183; 0,00000
 176,92;  267,859;  268,169;  269,200;-30,00923
 177,52;  274,280;  268,091;  262,076; 0,00000
 178,12;  258,246;  257,324;  243,700; 0,00000
 178,72;  279,430;  265,095;  258,217; 0,00000
 179,32;  263,768;  268,863;  252,136; 0,00000
 179,92;  254,271;  265,631;  267,970;-485,82196
 180,52;  261,274;  242,858;  269,559;68,97156
 181,12;  268,786;  264,246;  270,140;77,01907
 181,73;  294,449;  278,015;  276,393; 0,00000
 182,33;  373,769;  376,706;  385,901;-31,93795
 182,93;  281,454;  282,630;  284,119;-78,95131
 183,53;  258,587;  252,787;  239,042; 0,00000
 184,13;  248,926;  254,095;  245,230; 0,00000
 184,73;  289,229;  287,018;  290,658;60,73356
 185,33;  284,292;  245,652;  366,512;31,97129
 185,93;  290,591;  240,884;  362,674;40,81366
 186,53;  305,772;  262,499;  382,538;36,04953
 187,13;  329,162;  282,650;  413,897;35,43868
 187,73;  291,158;  248,500;  374,807;33,77349
 188,33;  294,459;  249,501;  377,832;35,03259
 188,93;  319,068;  266,120;  368,764;51,58395
 189,53;  305,761;  262,277;  393,555;33,12401
 190,13;  347,565;  296,435;  419,072;41,69240
 190,73;  279,453;  227,586;  359,537;39,30745
 191,34;  317,329;  271,352;  391,243;38,34884
 191,94;  294,093;  246,733;  373,358;37,40175
 192,54;  304,496;  264,572;  390,298;31,75498
 193,14;  321,633;  262,112;  410,063;40,22987
 193,74;  315,847;  267,728;  401,768;35,89885
 194,34;  306,421;  265,958;  394,183;31,55652
 194,94;  270,960;  225,420;  368,414;31,84789
 195,54;  245,434;  199,036;  342,674;32,30227
 196,14;  274,566;  234,957;  373,055;28,68158
 196,74;  278,108;  238,575;  362,324;31,94576
 197,34;  260,886;  200,263;  355,217;39,12285
 197,94;  281,632;  232,342;  391,563;30,95685
 198,54;  290,090;  239,265;  407,700;30,17487
 199,14;  275,338;  217,032;  395,974;32,58369
 199,74;  249,933;  208,186;  379,854;24,31865
 200,34;  250,178;  205,108;  400,093;23,11423
 200,94;  286,171;  241,418;  444,773;22,00757
 201,54;  261,273;  224,801;  446,157;16,47628
 202,14;  316,556;  252,185;  507,021;25,25980
 202,74;  283,853;  220,186;  489,414;23,64824
 203,34;  265,802;  206,876;  509,469;19,47375
 203,94;  251,302;  177,569;  523,345;21,32384
 204,54;  322,413;  251,804;  597,516;20,42413
 205,14;  295,323;  210,570;  593,619;22,12595
 205,74;  349,073;  248,030;  688,863;22,92097
 206,34;  309,792;  218,877;  712,170;18,43026
 206,94;  325,568;  224,493;  773,666;18,40492
 207,54;  305,866;  194,262;  814,576;17,99164
 208,14;  345,789;  212,338;  885,999;19,80979
 208,74;  361,321;  216,647;  970,102;19,20135
 209,34;  358,768;  210,032; 1064,247;17,41200
 209,94;  382,640;  223,416; 1142,978;17,31512
 210,54;  408,720;  216,877; 1246,089;18,63987
 211,14;  427,603;  209,955; 1381,448;18,57866
 211,73;  436,415;  219,109; 1508,743;16,85022
 212,33;  482,730;  231,956; 1610,123;18,19616
 212,93;  483,668;  216,109; 1698,572;18,04831
 213,53;  463,147;  181,647; 1761,367;17,81959
 214,13;  500,533;  222,952; 1870,209;16,85113
 214,73;  498,171;  185,954; 1909,790;18,11177
 215,33;  511,332;  179,186; 1934,593;18,92132
 215,93;  555,238;  211,184; 2074,162;18,46799
 216,53;  545,925;  162,801; 2134,072;19,43536
 217,13;  633,532;  225,953; 2347,307;19,21315
 217,73;  653,660;  204,338; 2559,692;19,07664
 218,33;  670,057;  161,336; 2756,969;19,59910
 218,93;  784,900;  202,873; 3086,277;20,18543
 219,53;  866,345;  209,336; 3414,311;20,49965
 220,13;  906,230;  170,028; 3703,166;20,83706
 220,73; 1030,138;  187,878; 4085,892;21,60742
 221,32; 1130,398;  195,109; 4505,948;21,69621
 221,92; 1239,430;  192,721; 5000,632;21,77056
 222,52; 1321,355;  178,184; 5377,901;21,98526
 223,12; 1467,680;  189,030; 5845,465;22,60522
 223,72; 1552,813;  197,260; 6327,192;22,11367
 224,32; 1694,628;  209,106; 6727,234;22,79062
 224,92; 1722,292;  182,568; 7030,294;22,48518
 225,52; 1839,625;  212,723; 7406,315;22,61598
 226,12; 1924,846;  189,953; 7683,610;23,15148
 226,72; 1987,171;  171,723; 8090,059;22,92714
 227,31; 2079,450;  166,338; 8448,196;23,10003
 227,91; 2199,633;  195,185; 8938,251;22,92615
 228,51; 2290,763;  182,417; 9244,174;23,26642
 229,11; 2409,245;  189,108; 9710,850;23,31650
 229,71; 2481,583;  184,032; 9960,751;23,50022
 230,31; 2560,947;  160,260;10437,610;23,35900
 230,91; 2641,531;  168,495;10697,503;23,48783
 231,51; 2718,632;  183,415;11064,521;23,29926
 232,10; 2826,932;  172,875;11342,525;23,76133
 232,70; 2878,190;  198,958;11545,952;23,61183
 233,30; 2967,837;  214,492;11780,828;23,80482
 233,90; 2976,347;  192,799;11954,734;23,66573
 234,50; 2991,079;  186,799;12056,551;23,62543
 235,10; 3028,907;  175,260;12065,525;23,99986
 235,70; 3024,331;  208,724;12036,862;23,80432
 236,29; 2985,731;  203,417;12020,602;23,54465
 236,89; 2914,052;  168,495;11895,824;23,41161
 237,49; 2921,985;  201,338;11816,486;23,42327
 238,09; 2789,946;  181,339;11438,324;23,17323
 238,69; 2762,546;  224,957;11167,550;23,19001
 239,29; 2628,815;  186,185;10841,999;22,92298
 239,89; 2544,773;  196,802;10545,226;22,68916
 240,48; 2376,071;  176,492;10114,692;22,13257
 241,08; 2295,078;  177,185; 9764,264;22,09111
 241,68; 2186,536;  213,415; 9396,209;21,48715
 242,28; 2047,373;  178,723; 8995,542;21,19415
 242,88; 1992,590;  219,721; 8679,166;20,95727
 243,48; 1896,775;  225,954; 8415,452;20,40199
 244,07; 1781,913;  209,339; 8129,234;19,85599
 244,67; 1714,134;  207,338; 7988,298;19,36516
 245,27; 1650,877;  208,109; 7823,974;18,94424
 245,87; 1614,075;  210,260; 7761,226;18,59120
 246,47; 1570,598;  196,109; 7668,914;18,39321
 247,06; 1494,570;  181,416; 7757,721;17,33239
 247,66; 1519,299;  185,646; 7774,213;17,57451
 248,26; 1547,176;  215,955; 7894,268;17,33741
 248,86; 1566,481;  207,725; 8133,290;17,14397
 249,46; 1541,498;  159,953; 8304,717;16,96236
 250,05; 1643,573;  204,262; 8681,392;16,97876
 250,65; 1685,977;  184,263; 9076,110;16,88866
 251,25; 1776,132;  178,031; 9575,474;17,00570
 251,85; 1881,961;  186,264;10085,469;17,12962
 252,44; 2015,600;  157,878;10815,700;17,43060
 253,04; 2175,753;  208,493;11581,892;17,29703
 253,64; 2314,986;  152,725;12308,123;17,78848
 254,24; 2575,670;  196,339;13277,281;18,18929
 254,84; 2765,344;  177,184;14242,179;18,40143
 255,43; 3026,574;  190,801;15248,200;18,83309
 256,03; 3284,003;  196,956;16293,995;19,17773
 256,63; 3561,946;  204,341;17391,115;19,53598
 257,23; 3808,998;  177,495;18380,307;19,95023
 257,82; 4136,310;  194,496;19349,209;20,57882
 258,42; 4398,891;  155,496;20233,042;21,13503
 259,02; 4729,836;  210,262;21264,273;21,46657
 259,62; 5013,926;  187,189;22043,709;22,08374
 260,21; 5230,306;  199,878;22644,055;22,41307
 260,81; 5444,116;  193,646;23073,388;22,94812
 261,41; 5677,284;  172,265;23729,055;23,36914
 262,01; 5897,727;  209,497;24161,474;23,74848
 262,60; 6118,459;  163,649;24635,307;24,33350
 263,20; 6330,652;  179,802;24886,046;24,89593
 263,80; 6541,656;  212,651;25112,931;25,41741
 264,40; 6698,627;  168,189;25329,644;25,95413
 264,99; 6841,947;  198,574;25487,905;26,26947
 265,59; 6976,368;  180,191;25693,956;26,63729
 266,19; 7076,174;  181,035;25895,888;26,81384
 266,78; 7314,002;  221,190;26007,807;27,50579
 267,38; 7348,256;  200,268;26049,674;27,65243
 267,98; 7443,885;  181,575;26073,568;28,04848
 268,58; 7469,689;  196,037;26109,273;28,06926
 269,17; 7544,551;  195,653;26127,166;28,33964
 269,77; 7591,155;  204,957;25881,747;28,76605
 270,37; 7535,414;  165,420;25820,286;28,72747
 270,96; 7623,141;  232,111;25659,008;29,06776
 271,56; 7534,610;  184,033;25321,482;29,24154
 272,16; 7552,897;  181,496;25124,230;29,55330
 272,75; 7569,410;  191,265;25101,268;29,61920
 273,35; 7579,173;  189,726;25037,080;29,73937
 273,95; 7613,774;  188,419;25027,841;29,89343
 274,54; 7583,963;  169,185;25041,157;29,81178
 275,14; 7804,195;  216,496;25396,256;30,13412
 275,74; 7826,247;  168,419;25453,756;30,28565
 276,33; 8024,958;  213,649;25923,068;30,38306
 276,93; 8128,083;  196,031;26222,952;30,47634
 277,53; 8290,634;  186,032;26759,098;30,49931
 278,12; 8479,009;  174,418;27305,491;30,60915
 278,72; 8751,218;  227,801;27881,948;30,82148
 279,32; 8910,187;  182,955;28489,106;30,83157
 279,91; 9210,530;  165,494;29258,003;31,09060
 280,51; 9454,426;  191,724;29692,657;31,39800
 281,11; 9737,655;  186,494;30550,063;31,45599
 281,70; 9893,735;  171,417;30892,465;31,64709
 282,30;10208,149;  182,572;31552,097;31,95961
 282,90;10445,106;  186,264;31954,418;32,29285
 283,49;10702,153;  202,572;32544,115;32,46469
 284,09;10916,439;  210,417;33120,456;32,53117
 284,69;11127,088;  213,340;33350,085;32,93549
 285,28;11394,997;  206,341;33762,422;33,34316
 285,88;11563,777;  248,188;33983,397;33,54237
 286,47;11731,511;  187,187;34005,615;34,13619
 287,07;11932,669;  220,263;34062,995;34,60833
 287,67;12145,236;  209,415;34281,991;35,03058
 288,26;12315,430;  182,878;34188,713;35,67785
 288,86;12508,174;  179,956;34213,674;36,22354
 289,46;12702,720;  205,340;34318,149;36,63545
 290,05;13095,152;  177,493;34392,670;37,75418
 290,65;13368,668;  194,803;34598,709;38,29177
 291,24;13649,791;  195,186;34663,653;39,03453
 291,84;13887,793;  216,495;34767,653;39,56828
 292,44;14257,079;  194,569;34984,204;40,42155
 293,03;14605,546;  266,417;35057,914;41,21446
 293,63;14809,770;  184,495;35259,170;41,69754
 294,22;14984,131;  214,417;35324,264;42,06715
 294,82;15175,034;  191,727;35373,820;42,58788
 295,41;15139,735;  176,802;35114,234;42,82780
 296,01;15325,780;  229,265;34972,568;43,45158
 296,61;15233,643;  217,571;34673,495;43,58052
 297,20;15159,965;  195,496;34283,409;43,89963
 297,80;15101,795;  199,031;34159,264;43,88299
 298,39;14919,653;  177,418;33729,931;43,93780
 298,99;14854,093;  207,880;33549,640;43,92753
 299,58;14777,385;  210,415;33295,880;44,02831
 300,18;14639,588;  225,416;33137,170;43,79642
 300,78;14426,987;  187,186;32737,294;43,74732
 301,37;14342,543;  209,497;32747,285;43,43579
 301,97;14330,846;  208,417;32702,747;43,46121
 302,56;14191,200;  199,418;32668,944;43,09204
 303,16;14023,528;  171,341;32483,179;42,87032
 303,75;13958,825;  187,570;32527,127;42,58331
 304,35;13987,993;  181,030;32758,768;42,38159
 304,94;13950,099;  206,340;32808,922;42,15543
 305,54;13786,167;  218,801;32760,717;41,69197
 306,13;13673,121;  161,799;32549,192;41,71784
 306,73;13445,190;  166,876;32358,217;41,24809
 307,33;13386,171;  206,261;32238,521;41,14574
 307,92;13240,421;  215,878;32305,469;40,58806
 308,52;13325,093;  173,495;32763,140;40,35514
 309,11;13332,581;  188,650;33278,833;39,72154
 309,71;13429,588;  180,728;33595,521;39,64968
 310,30;13389,831;  184,648;33756,969;39,33354
 310,90;13433,754;  221,263;34201,739;38,88260
 311,49;13323,982;  201,955;34294,529;38,48940
 312,09;13333,308;  170,800;34375,033;38,48210
 312,68;13361,301;  253,955;34837,982;37,90000
 313,28;13253,421;  162,878;34973,469;37,60506
 313,87;13117,640;  162,955;35103,286;37,07660
 314,47;13146,980;  191,188;35314,764;36,88631
 315,06;13029,030;  176,032;35427,858;36,46052
 315,66;12975,078;  170,954;35644,803;36,09454
 316,25;12749,608;  159,034;35543,003;35,58271
 316,85;12619,764;  148,493;35519,422;35,25853
 317,44;12548,108;  183,266;35761,610;34,75384
 318,04;12371,442;  174,495;35684,512;34,34791
 318,63;12186,281;  161,030;35697,110;33,83955
 319,22;12142,904;  183,341;35919,858;33,46594
 319,82;12006,681;  182,341;35890,217;33,11410
 320,41;11747,878;  206,187;35837,512;32,39198
 321,01;11712,864;  201,878;35853,636;32,28729
 321,60;11527,011;  196,879;35932,315;31,70559
 322,20;11448,520;  181,417;35834,568;31,60199
 322,79;11288,583;  206,186;35983,059;30,97643
 323,39;11153,765;  177,876;36015,401;30,62681
 323,98;10966,551;  168,109;35860,333;30,25433
 324,58;10821,645;  175,495;35863,803;29,83092
 325,17;10626,030;  188,111;35597,918;29,47748
 325,76;10488,478;  208,186;35442,927;29,17658
 326,36;10159,821;  178,416;35062,418;28,61313
 326,95; 9984,909;  207,494;34654,585;28,38386
 327,55; 9781,057;  165,341;34435,627;28,05847
 328,14; 9483,519;  176,954;33976,875;27,53428
 328,74; 9291,374;  209,649;33581,833;27,21346
 329,33; 9030,967;  194,262;33143,444;26,81919
 329,92; 8790,604;  177,496;32534,162;26,61927
 330,52; 8530,969;  187,954;31833,499;26,36395
 331,11; 8294,487;  181,879;31384,670;25,99962
 331,71; 8026,299;  180,033;30840,773;25,59060
 332,30; 7836,407;  201,263;30513,538;25,18829
 332,89; 7653,195;  251,339;29853,004;25,00486
 333,49; 7378,000;  193,725;29360,170;24,63199
 334,08; 7163,966;  191,879;28852,042;24,32675
 334,68; 6958,163;  183,879;28470,875;23,94840
 335,27; 6871,003;  207,646;28061,551;23,92252
 335,86; 6764,872;  242,264;27758,670;23,70443
 336,46; 6515,641;  198,954;27412,880;23,21123
 337,05; 6411,920;  184,956;27302,884;22,96254
 337,65; 6303,331;  173,264;27034,230;22,82147
 338,24; 6291,355;  222,955;27085,038;22,59095
 338,83; 6190,286;  204,801;26985,781;22,34976
 339,43; 6095,169;  176,264;27007,948;22,05939
 340,02; 6006,172;  172,418;26819,350;21,89278
 340,61; 5997,708;  199,263;26869,734;21,74107
 341,21; 5989,143;  221,726;26907,986;21,61194
 341,80; 5885,630;  192,418;26842,333;21,36297
 342,40; 5890,208;  190,108;26908,012;21,33438
 342,99; 5916,118;  183,262;27124,927;21,27877
 343,58; 5870,351;  174,416;27215,521;21,06399
 344,18; 5890,767;  202,031;27425,670;20,89631
 344,77; 5913,668;  168,342;27631,055;20,92046
 345,36; 5952,293;  170,187;27880,046;20,86660
 345,96; 6031,457;  209,878;28225,999;20,77939
 346,55; 6020,634;  160,414;28529,653;20,65695
 347,14; 6088,174;  170,415;28847,768;20,63565
 347,74; 6187,624;  151,567;29286,025;20,71793
 348,33; 6360,325;  183,259;29809,653;20,84987
 348,92; 6434,942;  191,412;30461,670;20,62595
 349,52; 6514,190;  163,028;30981,773;20,60811
 350,11; 6627,945;  178,495;31156,136;20,81969
 350,70; 6666,666;  172,955;31370,055;20,81511
 351,29; 6548,050;  167,652;30998,482;20,69486
 351,89; 6608,567;  189,035;31043,016;20,80617
 352,48; 6659,161;  165,263;31080,991;21,00516
 353,07; 6639,396;  199,877;31018,525;20,89488
 353,67; 6661,372;  208,720;30924,636;21,00752
 354,26; 6671,188;  182,492;30742,969;21,23231
 354,85; 6670,730;  191,185;30553,794;21,34054
 355,45; 6651,263;  167,879;30387,704;21,45407
 356,04; 6694,504;  176,107;30300,521;21,63825
 356,63; 6699,701;  215,340;30143,683;21,66629
 357,22; 6739,141;  184,651;30004,914;21,97999
 357,82; 6780,641;  184,881;29789,615;22,27941
 358,41; 6780,980;  207,109;29677,551;22,30666
 359,00; 6793,953;  180,264;29523,687;22,53891
 359,60; 6847,264;  188,647;29385,452;22,80598
 360,19; 6903,592;  205,415;29244,627;23,06597
 360,78; 6942,225;  184,264;29115,982;23,35831
 361,37; 6981,975;  188,187;28952,632;23,61870
 361,97; 6958,193;  189,109;28871,525;23,60012
 362,56; 6967,027;  180,034;28572,824;23,90393
 363,15; 7068,790;  252,264;28254,174;24,34307
 363,74; 6991,974;  192,265;27927,153;24,51681
 364,34; 6979,266;  213,341;27511,914;24,78490
 364,93; 6938,814;  173,573;27122,042;25,10436
 365,52; 6918,026;  144,571;26657,209;25,54802
 366,11; 6919,505;  182,803;26510,580;25,58781
 366,71; 6929,520;  182,726;26033,397;26,09910
 367,30; 6911,957;  202,264;25600,875;26,41756
 367,89; 6952,428;  220,031;25410,251;26,72623
 368,48; 6932,088;  196,957;25136,221;27,00613
 369,07; 6901,050;  201,417;24677,978;27,37163
 369,67; 6923,805;  219,342;24411,221;27,71369
 370,26; 6887,626;  180,417;24057,200;28,09092
 370,85; 6938,550;  189,341;23916,469;28,44512
 371,44; 6906,416;  192,802;23630,935;28,64398
 372,03; 6958,511;  167,726;23441,884;29,17736
 372,63; 6897,365;  160,494;23097,204;29,37156
 373,22; 6920,971;  185,186;22806,076;29,77683
 373,81; 6925,997;  157,648;22493,499;30,30262
 374,40; 6928,071;  178,416;22326,768;30,47475
 374,99; 6923,565;  178,110;21951,247;30,98063
 375,59; 6880,425;  171,877;21685,465;31,18284
 376,18; 6994,539;  212,187;21588,978;31,72764
 376,77; 6975,433;  201,109;21345,961;32,03770
 377,36; 7063,046;  220,648;21386,559;32,32744
 377,95; 7015,941;  206,495;21008,080;32,73523
 378,55; 7024,556;  175,185;20865,482;33,10427
 379,14; 7119,108;  198,341;20764,435;33,65135
 379,73; 7117,440;  188,341;20679,533;33,81501
 380,32; 7218,823;  199,648;20785,187;34,09760
 380,91; 7215,244;  168,265;20505,662;34,65035
 381,50; 7290,930;  197,726;20493,781;34,94868
 382,10; 7358,515;  188,033;20415,495;35,44925
 382,69; 7373,450;  166,187;20415,140;35,59326
 383,28; 7462,417;  212,957;20278,243;36,12936
 383,87; 7459,081;  180,803;20158,687;36,43168
 384,46; 7499,462;  164,035;20098,191;36,79828
 385,05; 7613,993;  202,188;20130,657;37,19204
 385,64; 7647,582;  191,111;20107,273;37,43930
 386,24; 7771,502;  157,881;20034,508;38,30439
 386,83; 7819,385;  202,035;20097,307;38,28724
 387,42; 7936,235;  198,034;20214,495;38,65919
 388,01; 8007,763;  204,421;20376,102;38,68464
 388,60; 8232,732;  191,573;20645,700;39,31314
 389,19; 8398,229;  173,731;20876,619;39,72634
 389,78; 8525,280;  179,730;21079,542;39,93122
 390,37; 8862,990;  245,651;21567,854;40,41486
 390,96; 8910,479;  187,497;21720,102;40,51058
 391,56; 9058,658;  195,116;21867,529;40,89781
 392,15; 9252,756;  177,961;22123,550;41,35134
 392,74; 9340,937;  165,656;22259,956;41,52782
 393,33; 9600,589;  183,347;22620,311;41,97200
 393,92; 9899,932;  189,427;22947,576;42,66826
 394,51; 9988,259;  169,347;23210,674;42,61435
 395,10;10157,552;  202,353;23428,230;42,86253
 395,69;10288,284;  187,122;23572,315;43,19469
 396,28;10418,574;  193,046;23641,657;43,60824
 396,87;10513,563;  200,741;23763,072;43,76826
 397,46;10589,016;  198,128;23866,734;43,90156
 398,06;10796,968;  212,746;24134,695;44,24481
 398,65;10866,539;  191,828;24181,618;44,49689
 399,24;11019,361;  208,906;24321,503;44,83323
 399,83;11102,888;  171,684;24319,059;45,26871
 400,42;11220,975;  215,999;24455,828;45,40039
 401,01;11327,510;  189,315;24579,165;45,66734
 401,60;11440,620;  200,942;24618,383;46,03135
 402,19;11454,840;  214,489;24606,438;46,08222
 402,78;11538,944;  214,888;24515,643;46,59961
 403,37;11543,800;  204,440;24392,169;46,88063
 403,96;11468,428;  205,994;24258,463;46,82444
 404,55;11552,873;  213,319;24201,147;47,27212
 405,14;11516,797;  189,797;24097,719;47,37760
 405,73;11554,546;  211,200;24017,330;47,64884
 406,32;11626,414;  210,366;23847,172;48,29776
 406,91;11503,895;  205,150;23610,749;48,27369
 407,50;11477,415;  210,619;23473,501;48,43250
 408,09;11435,160;  179,317;23120,120;49,06473
 408,68;11438,969;  198,628;23067,402;49,15148
 409,27;11358,549;  183,854;22837,885;49,32762
 409,86;11364,070;  192,997;22744,676;49,53544
 410,45;11381,766;  221,449;22600,509;49,86946
 411,04;11358,315;  227,516;22570,531;49,81780
 411,63;11266,078;  214,426;22318,946;49,99725
 412,22;11185,541;  220,876;22082,741;50,15430
 412,81;11114,579;  216,872;21846,497;50,38324
 413,40;10942,224;  232,559;21486,489;50,38911
 413,99;10874,830;  276,330;21131,343;50,81992
 414,58;10668,932;  198,868;20717,382;51,02740
 415,17;10596,943;  202,718;20540,377;51,10827
 415,76;10540,049;  198,723;20346,860;51,32646
 416,35;10470,046;  185,874;20116,937;51,59871
 416,94;10547,079;  225,568;20175,971;51,73585
 417,53;10686,105;  207,257;20432,621;51,81043
 418,12;10754,360;  206,948;20476,583;52,03553
 418,71;11026,731;  218,021;20830,454;52,43782
 419,30;11062,992;  200,024;21000,647;52,22425
 419,89;11146,077;  184,639;21139,429;52,30994
 420,48;11385,033;  222,405;21442,613;52,60376
 421,07;11496,998;  216,251;21448,407;53,13048
 421,66;11441,410;  184,941;21541,095;52,70832
 422,25;11486,256;  205,167;21438,937;53,12806
 422,84;11588,845;  224,397;21543,476;53,30647
 423,43;11414,337;  212,168;21238,301;53,27737
 424,02;11340,764;  231,628;21043,172;53,37968
 424,60;11170,904;  201,392;20533,831;53,95080
 425,19;11011,105;  211,703;20236,510;53,93012
 425,78;10994,042;  217,626;20175,442;53,99597
 426,37;10914,088;  232,085;20050,925;53,89822
 426,96;10871,298;  206,624;19918,959;54,10153
 427,55;10848,992;  199,467;19767,762;54,42235
 428,14;10699,059;  195,158;19549,673;54,27106
 428,73;10592,447;  216,929;19338,557;54,26064
 429,32;10645,059;  218,470;19324,100;54,57339
 429,91;10682,646;  226,160;19366,831;54,62967
 430,50;10548,410;  228,466;19204,852;54,38309
 431,08;10550,146;  231,772;19005,087;54,96298
 431,67;10494,292;  263,463;18962,207;54,71399
 432,26;10439,310;  269,923;18770,057;54,96926
 432,85;10274,020;  291,770;18411,160;55,09154
 433,44;10136,237;  305,845;18063,668;55,35809
 434,03; 9901,527;  316,149;17727,545;55,05232
 434,62; 9685,527;  271,614;17264,989;55,39755
 435,21; 9558,516;  287,923;17079,211;55,21073
 435,79; 9473,334;  290,535;16870,613;55,38454
 436,38; 9438,986;  276,994;16773,698;55,53832
 436,97; 9383,051;  282,686;16719,515;55,36570
 437,56; 9320,119;  278,143;16522,498;55,66227
 438,15; 9234,360;  260,837;16400,241;55,60009
 438,74; 9265,160;  274,067;16463,122;55,53810
 439,33; 9214,560;  249,683;16410,092;55,47432
 439,91; 9315,463;  217,450;16527,489;55,78168
 440,50; 9359,181;  264,835;16518,258;55,95342
 441,09; 9434,725;  270,832;16642,156;55,97527
 441,68; 9458,320;  245,445;16657,322;56,13541
 442,27; 9408,863;  230,908;16633,609;55,95392
 442,86; 9393,585;  205,057;16680,985;55,76941
 443,44; 9423,085;  221,288;16739,976;55,70537
 444,03; 9545,573;  301,826;16785,378;56,07861
 444,62; 9427,790;  224,441;16606,793;56,17844
 445,21; 9376,475;  230,442;16478,895;56,28864
 445,80; 9346,946;  261,747;16379,635;56,36719
 446,39; 9206,278;  281,055;16095,117;56,43852
 446,97; 9013,863;  220,128;15973,656;55,82073
 447,56; 8937,723;  225,126;15675,759;56,38991
 448,15; 8804,715;  227,205;15514,190;56,10989
 448,74; 8702,974;  236,128;15319,861;56,13230
 449,33; 8630,356;  225,588;15159,938;56,27810
 449,91; 8496,156;  221,893;14881,259;56,44353
 450,50; 8359,080;  218,893;14701,182;56,20787
 451,09; 8302,227;  228,662;14577,224;56,26742
 451,68; 8289,240;  246,815;14526,502;56,32074
 452,26; 8248,213;  243,891;14416,541;56,47724
 452,85; 8143,895;  232,045;14236,357;56,49581
 453,44; 8147,240;  249,734;14298,998;56,21295
 454,03; 8136,064;  215,659;14234,959;56,49643
 454,61; 8108,211;  215,426;14233,712;56,30350
 455,20; 8238,212;  237,194;14401,613;56,48674
 455,79; 8182,811;  247,196;14396,801;56,08365
 456,38; 8234,421;  239,115;14480,917;56,13971
 456,97; 8245,196;  231,885;14521,528;56,07776
 457,55; 8267,114;  217,114;14533,011;56,23120
 458,14; 8275,066;  253,039;14534,934;56,16921
 458,73; 8216,855;  238,575;14474,263;56,04422
 459,31; 8234,467;  268,650;14548,340;55,78424
 459,90; 8285,096;  266,190;14576,024;56,03773
 460,49; 8358,911;  332,190;14714,566;55,80942
 461,08; 8360,913;  225,418;14821,831;55,73626
 461,66; 8390,325;  233,881;14804,485;55,97876
 462,25; 8467,216;  237,571;14858,391;56,28717
 462,84; 8443,115;  271,341;14942,699;55,69882
 463,43; 8404,002;  203,107;14914,396;55,74559
 464,01; 8416,328;  227,875;14922,900;55,72262
 464,60; 8373,297;  289,108;14916,310;55,26818
 465,19; 8263,379;  203,644;14633,323;55,85526
 465,77; 8271,813;  234,488;14644,208;55,77711
 466,36; 8200,786;  253,876;14500,596;55,78062
 466,95; 7994,569;  235,491;14160,297;55,72126
 467,53; 7821,461;  231,256;13904,259;55,51235
 468,12; 7685,007;  264,718;13623,195;55,54742
 468,71; 7560,302;  232,643;13386,361;55,70789
 469,29; 7380,127;  209,102;13108,374;55,59247
 469,88; 7226,493;  221,793;12873,810;55,36429
 470,47; 7325,632;  281,329;13000,088;55,38515
 471,06; 7269,481;  237,022;12947,067;55,32993
 471,64; 7311,964;  233,792;13032,571;55,30349
 472,23; 7303,516;  217,710;13049,729;55,21973
 472,81; 7334,659;  210,405;13158,182;55,02299
 473,40; 7476,092;  228,710;13282,644;55,51876
 473,99; 7565,582;  320,172;13507,891;54,94058
 474,57; 7603,089;  231,864;13569,434;55,26662
 475,16; 7705,795;  244,173;13707,849;55,42039
 475,75; 7720,315;  246,093;13878,533;54,82674
 476,33; 7757,053;  249,861;13953,439;54,78272
 476,92; 7777,373;  256,018;14004,336;54,70746
 477,51; 7809,259;  251,939;14140,131;54,41544
 478,09; 7782,316;  247,631;14150,857;54,19379
 478,68; 7771,905;  258,938;14016,819;54,60846
 479,27; 7817,534;  283,401;14136,618;54,38544
 479,85; 7774,147;  253,092;14043,426;54,53860
 480,44; 7838,027;  230,937;14183,015;54,52298
 481,02; 8511,452;  256,397;15469,503;54,26279
 481,61; 9538,584;  276,706;17579,866;53,52709
 482,20;10236,216;  254,936;18794,122;53,83882
 482,78;10643,061;  289,553;19617,836;53,56662
 483,37;10909,324;  275,010;20203,289;53,36293
 483,95;11073,383;  300,395;20526,956;53,26159
 484,54;11166,613;  310,629;20749,998;53,11311
 485,13;11120,349;  271,931;20638,075;53,26692
 485,71;11033,606;  248,932;20437,114;53,42073
 486,30;10824,817;  292,932;20118,225;53,12348
 486,88;10639,255;  339,393;19756,357;53,04569
 487,47;10279,770;  305,469;18999,951;53,35425
 488,05; 9790,895;  299,930;18136,204;53,21159
 488,64; 9093,738;  282,236;16822,511;53,27301
 489,23; 8114,660;  309,545;14968,763;53,24373
 489,81; 6925,127;  293,544;12807,451;52,99370
 490,40; 6501,534;  247,698;12153,204;52,52894
 490,98; 6380,915;  242,851;11883,187;52,73098
 491,57; 6302,589;  268,775;11811,644;52,27308
 492,15; 6271,390;  249,774;11741,426;52,39992
 492,74; 6203,800;  269,622;11602,755;52,36132
 493,32; 6193,485;  278,159;11485,375;52,78140
 493,91; 6090,696;  253,927;11425,618;52,24607
 494,50; 6070,997;  258,078;11390,601;52,21565
 495,08; 5957,644;  238,001;11299,943;51,70560
 495,67; 5990,495;  266,389;11347,058;51,65848
 496,25; 5898,814;  210,002;11181,105;51,85269
 496,84; 5862,002;  223,158;11147,524;51,61713
 497,42; 5847,548;  213,232;11127,631;51,62278
 498,01; 5789,067;  252,004;11103,571;51,02547
 498,59; 5713,058;  216,232;11009,652;50,92756
 499,18; 5668,414;  219,850;10958,695;50,73697
 499,76; 5637,347;  243,310;10887,110;50,67774
 500,35; 5515,344;  235,923;10681,110;50,54405
 500,93; 5503,853;  225,617;10649,729;50,63488
 501,52; 5441,833;  227,463;10557,033;50,48003
 502,10; 5413,225;  229,922;10562,332;50,16548
 502,69; 5284,264;  226,536;10390,879;49,75952
 503,27; 5178,154;  213,308;10160,811;49,91047
 503,86; 5125,267;  226,690;10117,319;49,52746
 504,44; 5000,403;  198,920; 9980,832;49,08532
 505,03; 4879,340;  189,612; 9763,187;48,98617
 505,61; 4846,526;  214,305; 9626,644;49,21434
 506,19; 4739,981;  228,305; 9506,148;48,62850
 506,78; 4609,027;  197,995; 9318,823;48,36218
 507,36; 4538,266;  202,305; 9169,435;48,35395
 507,95; 4440,441;  206,609; 8967,935;48,32410
 508,53; 4369,710;  200,457; 8839,080;48,26294
 509,12; 4328,433;  219,917; 8732,153;48,26600
 509,70; 4233,529;  233,301; 8577,503;47,94021
 510,29; 4188,625;  242,531; 8439,392;48,14152
 510,87; 4027,451;  205,533; 8183,986;47,90300
 511,46; 3951,553;  189,533; 8086,332;47,63981
 512,04; 3867,287;  205,686; 7932,627;47,38746
 512,62; 3814,456;  209,918; 7792,058;47,53985
 513,21; 3714,089;  196,454; 7627,370;47,33783
 513,79; 3621,945;  203,297; 7534,648;46,63053
 514,38; 3542,428;  191,990; 7356,845;46,76212
 514,96; 3504,759;  225,683; 7260,366;46,61298
 515,54; 3400,538;  189,990; 7101,935;46,44928
 516,13; 3378,404;  216,759; 7077,247;46,08485
 516,71; 3302,094;  199,219; 6900,285;46,30421
 517,30; 3239,774;  189,602; 6777,909;46,29674
 517,88; 3176,569;  217,833; 6696,640;45,66791
 518,46; 3082,961;  189,756; 6589,999;45,20462
 519,05; 3055,991;  202,139; 6529,725;45,10175
 519,63; 3037,909;  208,063; 6461,883;45,24988
 520,22; 2976,140;  236,291; 6396,901;44,47366
 520,80; 2937,410;  208,599; 6356,563;44,38561
 521,38; 2922,093;  249,677; 6324,495;43,99171
 521,97; 2889,748;  209,598; 6288,674;44,08811
 522,55; 2846,705;  221,444; 6249,687;43,54936
 523,13; 2812,220;  193,905; 6226,473;43,40299
 523,72; 2810,833;  201,756; 6181,499;43,63193
 524,30; 2844,150;  226,366; 6308,794;43,03848
 524,89; 2796,865;  189,905; 6273,875;42,84964
 525,47; 2873,195;  223,134; 6436,029;42,65421
 526,05; 2826,152;  185,826; 6496,311;41,84030
 526,64; 2886,978;  235,903; 6544,114;42,02578
 527,22; 2900,355;  223,904; 6686,717;41,41310
 527,80; 2985,191;  252,441; 6790,704;41,79627
 528,39; 2954,581;  215,440; 6899,738;40,97873
 528,97; 2971,305;  217,518; 7022,426;40,46766
 529,55; 3051,787;  229,520; 7231,490;40,30675
 530,14; 3137,027;  228,209; 7420,922;40,44118
 530,72; 3126,977;  213,672; 7478,076;40,10385
 531,30; 3117,221;  183,747; 7650,123;39,28912
 531,89; 3175,500;  206,363; 7726,644;39,48173
 532,47; 3226,365;  243,593; 7835,225;39,29026
 533,05; 3186,135;  239,903; 7874,131;38,59240
 533,63; 3230,519;  234,747; 7890,418;39,13141
 534,22; 3211,100;  205,131; 7928,713;38,91936
 534,80; 3241,246;  238,822; 8044,909;38,46260
 535,38; 3334,303;  320,516; 8141,619;38,53404
 535,97; 3210,220;  210,516; 8068,277;38,17505
 536,55; 3268,915;  273,514; 8157,157;37,99514
 537,13; 3244,665;  276,440; 8150,866;37,69450
 537,71; 3279,241;  310,132; 8166,896;37,79048
 538,30; 3248,749;  325,669; 8256,648;36,85648
 538,88; 3325,501;  354,052; 8327,755;37,26561
 539,46; 3378,973;  408,899; 8514,845;36,64068
 540,05; 3422,356;  403,975; 8620,114;36,73722
 540,63; 3482,533;  457,975; 8814,059;36,19588
 541,21; 3516,680;  482,589; 8956,486;35,80514
 541,79; 3562,574;  507,436; 9126,469;35,44642
 542,38; 3589,317;  539,360; 9204,913;35,19633
 542,96; 3623,134;  556,588; 9376,337;34,76908
 543,54; 3701,500;  570,282; 9579,255;34,75666
 544,12; 3712,713;  529,435; 9696,845;34,72386
 544,70; 3706,305;  511,204; 9855,285;34,19385
 545,29; 3745,157;  522,668; 9943,533;34,20587
 545,87; 3748,420;  520,743; 9958,777;34,19862
 546,45; 3653,419;  476,206; 9995,260;33,37741
 547,03; 3703,766;  450,282;10089,230;33,75351
 547,62; 3726,033;  417,974;10221,298;33,74426
 548,20; 3730,801;  428,819;10364,644;33,23309
 548,78; 3742,087;  388,124;10462,580;33,29176
 549,36; 3761,920;  369,740;10717,879;32,78058
 549,94; 3790,343;  330,820;10753,931;33,19089
 550,53; 3815,174;  327,432;11007,285;32,65721
 551,11; 3804,332;  309,508;11176,781;32,15916
 551,69; 3884,190;  320,355;11465,273;31,97723
 552,27; 3897,662;  271,818;11710,093;31,69922
 552,85; 3985,505;  280,585;12103,593;31,33653
 553,44; 4023,042;  286,663;12378,961;30,89884
 554,02; 4145,480;  300,124;12654,093;31,12649
 554,60; 4153,203;  233,585;12918,320;30,90028
 555,18; 4277,507;  265,355;13307,016;30,76411
 555,76; 4306,187;  260,893;13653,371;30,20572
 556,34; 4408,957;  275,430;13991,273;30,13688
 556,93; 4507,957;  262,201;14388,948;30,05473
 557,51; 4524,273;  232,891;14755,170;29,55033
 558,09; 4631,683;  265,740;15098,345;29,43477
 558,67; 4687,833;  261,429;15430,691;29,18009
 559,25; 4749,016;  270,968;15672,170;29,07596
 559,83; 4794,382;  237,582;16057,644;28,80393
 560,41; 4872,214;  243,199;16329,657;28,77585
 561,00; 4933,169;  255,967;16659,478;28,51342
 561,58; 4942,610;  238,584;16947,418;28,15293
 562,16; 5008,220;  242,969;17243,768;28,02957
 562,74; 5087,062;  223,508;17582,388;28,01767
 563,32; 5155,017;  210,043;18026,918;27,75444
 563,90; 5216,693;  249,583;18359,508;27,42756
 564,48; 5266,470;  249,200;18754,734;27,11227
 565,06; 5415,668;  242,506;19298,508;27,14715
 565,65; 5552,534;  246,888;19959,760;26,91463
 566,23; 5761,212;  296,736;20662,926;26,83111
 566,81; 5862,113;  245,660;21389,059;26,56362
 567,39; 6051,236;  256,197;22319,811;26,26514
 567,97; 6145,161;  266,198;22873,619;26,00457
 568,55; 6343,596;  280,582;23783,234;25,79715
 569,13; 6504,297;  243,813;24431,824;25,88259
 569,71; 6711,087;  243,893;25404,965;25,70317
 570,29; 6963,039;  278,893;26342,713;25,64530
 570,87; 7094,318;  285,354;27066,849;25,42413
 571,45; 7211,796;  267,198;27717,085;25,29919
 572,03; 7225,894;  235,274;28116,067;25,07325
 572,61; 7371,832;  222,274;28951,153;24,88631
 573,20; 7520,848;  257,430;29551,008;24,79526
 573,78; 7604,108;  243,890;30118,426;24,63710
 574,36; 7654,812;  262,505;30688,687;24,29587
 574,94; 7726,090;  321,427;31016,324;24,12343
 575,52; 7677,589;  249,810;31214,294;23,98806
 576,10; 7836,179;  303,887;31765,832;23,94096
 576,68; 7954,082;  298,581;32340,773;23,89194
 577,26; 7971,439;  307,963;33090,559;23,37666
 577,84; 8020,536;  313,198;33542,837;23,19417
 578,42; 8092,633;  358,965;33877,397;23,07288
 579,00; 8001,353;  313,197;33915,396;22,87992
 579,58; 7983,622;  358,042;34096,174;22,60226
 580,16; 7899,941;  308,195;34110,435;22,45930
 580,74; 7881,217;  316,195;34375,401;22,21139
 581,32; 7854,166;  322,273;34369,747;22,12174
 581,90; 7783,639;  329,272;34303,123;21,94148
 582,48; 7714,416;  328,272;34453,713;21,64410
 583,06; 7648,337;  318,273;34590,426;21,38781
 583,64; 7582,523;  324,889;34648,614;21,14466
 584,22; 7485,317;  342,040;34468,170;20,93199
 584,80; 7381,411;  336,965;34092,063;20,86928
 585,38; 7201,829;  355,353;33784,696;20,48044
 585,96; 7153,968;  315,735;33751,666;20,45175
 586,54; 7023,093;  348,733;33736,897;19,99020
 587,12; 6992,476;  309,118;33973,303;19,85302
 587,70; 7004,783;  337,812;34128,093;19,73044
 588,28; 6922,803;  313,272;34026,730;19,60502
 588,86; 6881,561;  321,502;34187,085;19,37087
 589,44; 6789,712;  299,423;34186,969;19,15243
 590,02; 6800,707;  309,347;34351,666;19,06850
 590,59; 6785,329;  284,964;34578,662;18,95499
 591,17; 6738,709;  303,729;34693,392;18,71196
 591,75; 6710,135;  278,884;34799,016;18,63044
 592,33; 6682,073;  308,962;35008,140;18,36675
 592,91; 6628,809;  255,499;35236,029;18,21959
 593,49; 6655,321;  267,883;35565,798;18,09579
 594,07; 6642,404;  287,883;35788,794;17,89960
 594,65; 6589,335;  300,271;35772,234;17,72967
 595,23; 6620,607;  283,270;36175,414;17,65661
 595,81; 6565,031;  296,116;36321,884;17,40120
 596,39; 6549,971;  287,423;36461,525;17,31224
 596,97; 6495,243;  275,576;36559,935;17,14145
 597,55; 6441,451;  274,194;36480,627;17,03360
 598,12; 6372,283;  245,497;36512,422;16,89359
 598,70; 6320,741;  245,191;36662,042;16,68335
 599,28; 6323,168;  283,268;36867,952;16,50937
 599,86; 6278,598;  254,499;36829,033;16,47075
 600,44; 6201,848;  241,883;36966,538;16,22879
 601,02; 6166,301;  294,496;36932,542;16,02652
 601,60; 6138,976;  272,500;36973,021;15,98472
 602,18; 6069,266;  247,113;36930,397;15,87141
 602,75; 5999,524;  250,654;37065,533;15,61561
 603,33; 5968,273;  264,960;37078,508;15,49243
 603,91; 5924,442;  243,035;37002,533;15,45562
 604,49; 5897,940;  282,883;37014,085;15,28689
 605,07; 5857,771;  284,884;37183,136;15,10339
 605,65; 5786,763;  295,267;37189,832;14,88429
 606,23; 5790,478;  350,041;37287,012;14,72897
 606,80; 5735,188;  384,885;37392,670;14,45724
 607,38; 5703,798;  421,958;37380,170;14,29138
 607,96; 5673,732;  461,808;37486,820;14,07676
 608,54; 5665,196;  524,959;37474,354;13,91156
 609,12; 5594,923;  539,270;37559,580;13,65643
 609,70; 5597,638;  571,960;37639,811;13,55805
 610,27; 5613,553;  564,655;37785,358;13,56476
 610,85; 5563,727;  585,114;37749,956;13,39603
 611,43; 5479,342;  582,806;37736,841;13,17901
 612,01; 5393,486;  548,577;37484,273;13,11715
 612,59; 5368,624;  556,806;37576,841;12,99787
 613,16; 5307,577;  524,194;37437,341;12,95848
 613,74; 5242,854;  490,268;37386,495;12,88096
 614,32; 5188,002;  458,882;37316,730;12,83070
 614,90; 5126,317;  435,038;37231,995;12,74910
 615,48; 5066,927;  373,040;36866,751;12,86218
 616,05; 5011,033;  343,348;36856,845;12,78345
 616,63; 4938,370;  365,733;36721,862;12,57735
 617,21; 4910,385;  348,193;36611,311;12,58080
 617,79; 4806,720;  343,885;36569,405;12,31959
 618,36; 4803,588;  342,807;36469,119;12,34773
 618,94; 4688,323;  295,886;36158,627;12,24791
 619,52; 4646,746;  312,425;35846,388;12,19768
 620,10; 4582,456;  292,039;35860,123;12,06255
 620,67; 4540,182;  298,349;35807,388;11,94578
 621,25; 4535,884;  324,807;35706,204;11,90195
 621,83; 4457,183;  303,117;35599,982;11,76894
 622,41; 4464,041;  359,501;35657,281;11,62832
 622,98; 4355,068;  317,503;35302,550;11,54083
 623,56; 4384,894;  318,272;35275,700;11,63307
 624,14; 4291,456;  306,191;35161,063;11,43388
 624,72; 4250,664;  301,424;35078,179;11,35598
 625,29; 4235,629;  285,810;35174,072;11,32134
 625,87; 4239,518;  332,731;35105,191;11,23529
 626,45; 4137,544;  287,042;34915,213;11,11957
 627,02; 4120,934;  292,346;34950,879;11,04659
 627,60; 4074,546;  271,267;34878,764;10,98975
 628,18; 4050,461;  258,270;34918,965;10,94090
 628,76; 4021,421;  265,041;34954,439;10,82861
 629,33; 4018,619;  292,963;34885,867;10,77000
 629,91; 3978,302;  276,962;34917,431;10,68502
 630,49; 3972,808;  291,117;35059,687;10,58913
 631,06; 3974,096;  289,195;35196,452;10,55626
 631,64; 3920,128;  288,888;35120,640;10,42509
 632,22; 3862,027;  248,811;35036,563;10,38646
 632,79; 3907,377;  282,427;35309,704;10,34894
 633,37; 3886,494;  252,577;35401,709;10,33857
 633,95; 3868,906;  262,657;35488,114;10,23762
 634,52; 3861,901;  246,578;35618,944;10,22075
 635,10; 3859,969;  264,039;35689,738;10,15062
 635,68; 3872,887;  264,504;35817,610;10,14928
 636,25; 3797,441;  248,351;35772,503; 9,99064
 636,83; 3807,729;  228,964;35999,593;10,00476
 637,41; 3799,306;  249,273;36041,354; 9,91849
 637,98; 3849,059;  283,504;36243,636; 9,91530
 638,56; 3782,852;  264,044;36299,657; 9,76481
 639,13; 3802,863;  242,349;36295,589; 9,87571
 639,71; 3843,782;  312,810;36469,841; 9,76566
 640,29; 3713,331;  224,194;36269,643; 9,67983
 640,86; 3764,721;  241,348;36562,378; 9,70064
 641,44; 3731,420;  240,810;36416,421; 9,64907
 642,02; 3751,118;  268,117;36501,617; 9,61265
 642,59; 3722,354;  241,117;36507,968; 9,59895
 643,17; 3706,899;  242,656;36583,780; 9,53257
 643,74; 3729,289;  243,425;36595,976; 9,58905
 644,32; 3720,910;  270,809;36562,865; 9,50649
 644,89; 3709,686;  263,963;36575,523; 9,48933
 645,47; 3712,999;  266,886;36564,951; 9,49393
 646,05; 3710,313;  263,502;36439,147; 9,52799
 646,62; 3668,703;  248,117;36521,421; 9,43004
 647,20; 3653,478;  254,732;36625,464; 9,34473
 647,77; 3637,023;  233,271;36563,429; 9,36894
 648,35; 3615,644;  230,886;36454,011; 9,34419
 648,92; 3594,111;  254,040;36523,592; 9,20902
 649,50; 3582,271;  220,886;36442,327; 9,28010
 650,08; 3563,738;  220,886;36275,985; 9,27151
 650,65; 3585,975;  236,039;36535,335; 9,22865
 651,23; 3670,750;  213,193;37329,378; 9,31550
 651,80; 3738,679;  217,193;38230,959; 9,26371
 652,38; 3793,454;  230,809;38683,233; 9,26507
 652,95; 3804,922;  216,885;39039,891; 9,24204
 653,53; 3846,235;  243,116;39355,241; 9,21228
 654,10; 3883,087;  269,347;39470,284; 9,21851
 654,68; 3816,785;  215,885;39351,865; 9,20100
 655,25; 3821,330;  215,577;39531,139; 9,17131
 655,83; 3834,336;  211,654;39701,489; 9,17371
 656,40; 3847,726;  262,347;39471,994; 9,14413
 656,98; 3870,963;  218,116;39510,806; 9,29651
 657,55; 3824,815;  228,039;39312,694; 9,20253
 658,13; 3787,821;  223,423;38933,891; 9,20784
 658,70; 3764,365;  250,500;38701,780; 9,13849
 659,28; 3689,140;  231,192;37787,977; 9,20725
 659,85; 3629,915;  247,962;36911,327; 9,22434
 660,43; 3603,460;  245,577;37010,600; 9,13336
 661,00; 3580,389;  217,038;37113,336; 9,11568
 661,58; 3609,702;  226,808;37430,224; 9,09297
 662,15; 3599,785;  214,038;37623,575; 9,05049
 662,73; 3749,945;  296,269;37994,771; 9,16131
 663,30; 3709,489;  233,346;38122,814; 9,17443
 663,88; 3717,264;  238,115;38285,165; 9,14433
 664,45; 3717,193;  221,192;38475,515; 9,13884
 665,03; 3755,199;  225,192;38934,096; 9,11937
 665,60; 3904,743;  315,961;39296,524; 9,20659
 666,17; 3853,441;  231,730;39435,643; 9,23814
 666,75; 3869,601;  237,884;39837,917; 9,17100
 667,32; 3928,838;  257,422;40136,652; 9,20634
 667,90; 3928,305;  248,576;40373,925; 9,17058
 668,47; 3994,080;  254,268;40711,507; 9,24386
 669,05; 4023,855;  238,422;41041,319; 9,27736
 669,62; 4003,861;  215,268;41094,207; 9,26784
 670,19; 4011,098;  207,576;41221,096; 9,27383
 670,77; 4068,488;  225,191;41436,831; 9,32576
 671,34; 4059,264;  222,653;41280,489; 9,34441
 671,92; 4099,654;  223,268;41671,994; 9,35224
 672,49; 4097,660;  249,114;41653,036; 9,29512
 673,06; 4097,050;  180,576;41684,848; 9,43632
 673,64; 4100,518;  209,037;41721,814; 9,37418
 674,21; 4127,293;  198,806;41601,780; 9,48842
 674,79; 4181,760;  237,498;41879,361; 9,47187
 675,36; 4197,535;  243,345;41950,096; 9,48094
 675,93; 4198,772;  207,883;41798,447; 9,59566
 676,51; 4246,547;  233,883;41996,797; 9,60820
 677,08; 4254,245;  238,267;42145,609; 9,58299
 677,65; 4254,636;  227,344;42244,575; 9,58486
 678,23; 4298,488;  235,806;42378,002; 9,64041
 678,80; 4320,878;  226,344;42468,276; 9,69306
 679,38; 4362,961;  215,421;42651,934; 9,77352
 679,95; 4423,659;  226,498;42874,669; 9,84136
 680,52; 4402,050;  226,806;43211,404; 9,71335
 681,10; 4535,287;  242,344;43619,908; 9,89669
 681,67; 4532,062;  240,652;43908,336; 9,82743
 682,24; 4549,914;  205,882;43960,840; 9,92809
 682,82; 4626,227;  215,113;44518,267; 9,95666
 683,39; 4740,233;  261,805;44947,541;10,02205
 683,96; 4736,931;  228,113;45163,353;10,03404
 684,54; 4793,399;  214,882;45566,549;10,09559
 685,11; 4922,712;  261,574;45995,977;10,19175
 685,68; 4915,564;  220,343;46347,635;10,17884
 686,25; 4953,955;  209,574;46329,678;10,28701
 686,83; 4960,499;  224,266;46587,182;10,21556
 687,40; 5019,197;  205,805;46909,071;10,30633
 687,97; 5147,126;  262,882;47309,114;10,38180
 688,55; 5138,748;  212,266;47325,926;10,45659
 689,12; 5149,830;  191,728;47588,045;10,46094
 689,69; 5217,375;  201,497;47694,703;10,56125
 690,26; 5261,842;  218,035;47746,208;10,61225
 690,84; 5318,463;  217,112;48066,327;10,66131
 691,41; 5337,238;  228,343;48172,062;10,65603
 691,98; 5394,706;  228,189;48503,951;10,70209
 692,56; 5431,019;  220,650;48556,763;10,77945
 693,13; 5499,872;  276,573;48519,652;10,82704
 693,70; 5503,724;  239,343;48637,233;10,87729
 694,27; 5513,729;  216,419;48796,430;10,90430
 694,84; 5554,197;  213,189;48898,011;10,97058
 695,42; 5629,049;  261,650;49019,361;11,00831
 695,99; 5627,132;  217,727;49180,327;11,04803
 696,56; 5669,907;  216,496;49034,062;11,17100
 697,13; 5757,066;  232,650;49420,720;11,23121
 697,71; 5708,919;  209,727;49394,686;11,18064
 698,28; 5823,463;  217,727;49714,037;11,32556
 698,85; 5809,315;  199,727;49725,003;11,32672
 699,42; 5881,552;  202,342;49934,584;11,41957
 699,99; 5933,942;  240,803;50030,319;11,43441
 700,57; 5937,871;  232,342;50115,362;11,43782
 701,14; 6003,646;  206,573;50235,712;11,58739
 701,71; 6060,575;  232,803;50426,062;11,61067
 702,28; 6084,427;  229,034;50475,259;11,65340
 702,85; 6145,971;  224,495;50574,686;11,76058
 703,43; 6229,747;  251,342;50838,037;11,81814
 704,00; 6287,522;  245,726;50977,849;11,90921
 704,57; 6291,220;  235,188;51011,738;11,92683
 705,14; 6330,687;  252,880;51250,088;11,91792
 705,71; 6394,232;  259,880;51277,054;12,02409
 706,28; 6347,468;  231,880;51163,327;12,00749
 706,86; 6486,320;  260,187;51476,755;12,15648
 707,43; 6543,249;  289,957;51421,721;12,22976
 708,00; 6584,794;  259,803;51456,071;12,35440
 708,57; 6555,722;  234,956;51246,421;12,39087
 709,14; 6630,882;  261,879;51501,926;12,42974
 709,71; 6646,503;  241,572;51586,738;12,47426
 710,28; 6730,817;  236,418;51710,165;12,61692
 710,86; 6813,131;  244,725;51954,054;12,70255
 711,43; 6899,444;  267,495;51845,866;12,85801
 712,00; 6868,989;  249,494;51973,447;12,79773
 712,57; 6976,917;  261,802;52051,182;12,96620
 713,14; 7004,769;  234,417;52193,994;13,03004
 713,71; 7012,545;  246,802;52137,652;13,03841
 714,28; 7083,935;  235,033;52217,926;13,17530
 714,85; 7051,018;  221,110;51842,968;13,23065
 715,42; 7102,716;  225,417;52187,396;13,23525
 716,00; 7250,414;  300,033;52292,977;13,36793
 716,57; 7237,036;  233,263;52374,943;13,43220
 717,14; 7230,657;  211,725;52272,447;13,48220
 717,71; 7280,278;  212,725;52283,874;13,57288
 718,28; 7438,592;  265,955;52493,917;13,73333
 718,85; 7363,444;  204,955;52412,575;13,71158
 719,42; 7443,065;  241,878;52662,080;13,73743
 719,99; 7457,148;  219,571;52385,892;13,87404
 720,56; 7542,307;  243,417;52752,242;13,90031
 721,13; 7569,852;  217,032;52790,823;13,98571
 721,70; 7591,242;  203,724;52633,174;14,09040
 722,27; 7667,094;  232,186;52831,601;14,13496
 722,84; 7772,408;  288,493;52843,721;14,24010
 723,41; 7751,183;  208,032;52888,686;14,31864
 723,98; 7815,343;  221,570;53198,268;14,33418
 724,55; 7923,579;  256,724;53259,772;14,46493
 725,12; 7895,739;  181,185;53261,738;14,53367
 725,69; 7979,514;  208,570;53273,627;14,64418
 726,27; 8027,828;  221,570;53351,208;14,69285
 726,84; 8131,680;  233,031;53717,558;14,76810
 727,41; 8228,686;  241,262;53692,986;14,94325
 727,98; 8275,307;  235,493;53909,259;14,97904
 728,55; 8314,928;  274,339;53881,456;14,99911
 729,12; 8340,857;  209,185;54031,575;15,10834
 729,69; 8433,325;  235,339;54118,464;15,21438
 730,26; 8525,946;  239,108;54533,507;15,26279
 730,82; 8510,952;  229,569;54254,781;15,32874
 731,39; 8573,034;  229,031;54317,746;15,42651
 731,96; 8667,579;  214,800;54680,251;15,51952
 732,53; 8746,662;  236,185;54873,678;15,57626
 733,10; 8793,052;  243,031;54889,028;15,64620
 733,67; 8930,289;  236,184;55261,302;15,80025
 734,24; 8821,833;  217,031;54871,499;15,74401
 734,81; 8939,839;  259,492;54910,464;15,88324
 735,38; 8952,153;  232,954;54665,661;16,01831
 735,95; 8964,851;  228,107;54563,473;16,07929
 736,52; 9027,857;  236,723;54779,823;16,11777
 737,09; 9025,939;  248,646;54388,712;16,21220
 737,66; 9124,330;  286,030;54600,140;16,27257
 738,23; 9163,874;  226,030;54758,721;16,38988
 738,80; 9338,342;  307,722;55002,148;16,51104
 739,37; 9307,809;  261,645;55128,652;16,48744
 739,94; 9406,046;  236,953;55163,387;16,69341
 740,51; 9538,128;  366,338;55300,507;16,69597
 741,07; 9486,904;  233,722;55208,781;16,83160
 741,64; 9576,525;  273,107;55394,054;16,87819
 742,21; 9648,608;  238,722;55571,558;17,00597
 742,78; 9674,306;  213,030;55299,755;17,17524
 743,35; 9677,004;  232,183;55646,105;17,04413
 743,92; 9762,087;  280,876;55889,379;17,04993
 744,49; 9858,093;  273,183;55738,191;17,28100
 745,06; 9814,252;  230,568;55709,695;17,27440
 745,63; 9835,258;  223,029;55595,276;17,35929
 746,19; 9971,264;  227,183;55560,858;17,60968
 746,76; 9954,270;  236,798;55580,516;17,55840
 747,33; 9998,584;  243,183;55549,020;17,63901
 747,90;10092,820;  263,798;55781,140;17,70442
 748,47;10108,365;  240,875;55719,336;17,78616
 749,04;10128,217;  244,567;55769,148;17,80049
 749,61;10247,607;  279,183;55687,729;17,99077
 750,17;10245,382;  265,413;55746,234;17,98814
 750,74;10314,773;  251,875;55801,200;18,11525
 751,31;10283,548;  232,413;55590,319;18,15664
 751,88;10299,938;  216,336;55543,208;18,22551
 752,45;10458,713;  231,490;55604,251;18,46977
 753,02;10454,258;  260,413;55423,140;18,47959
 753,58;10485,956;  232,490;55410,875;18,58240
 754,15;10543,116;  219,028;55610,918;18,63827
 754,72;10547,506;  230,028;55382,806;18,70709
 755,29;10579,897;  221,721;55210,541;18,83688
 755,86;10658,595;  253,490;55419,430;18,86147
 756,42;10803,678;  251,336;55133,781;19,22717
 756,99;10680,222;  215,182;55231,285;19,02178
 757,56;10800,228;  229,874;55230,405;19,21864
 758,13;10761,772;  179,951;55113,447;19,26297
 758,70;10930,932;  215,489;55279,875;19,45984
 759,26;10923,707;  202,643;55239,687;19,47972
 759,83;10981,251;  227,028;55372,883;19,50142
 760,40;11043,873;  210,566;55218,311;19,69415
 760,97;11035,725;  206,489;55244,353;19,67597
 761,53;11096,423;  185,643;54956,396;19,92081
 762,10;11093,352;  186,412;54850,362;19,95271
 762,67;11239,665;  214,489;54907,097;20,15844
 763,24;11113,133;  173,874;54437,601;20,15943
 763,80;11254,446;  207,797;54611,798;20,30485
 764,37;11216,529;  211,181;54580,148;20,24197
 764,94;11224,766;  197,258;54198,499;20,42084
 765,50;11281,925;  205,335;54206,695;20,51169
 766,07;11377,470;  237,489;54177,507;20,65253
 766,64;11342,091;  214,719;53884,319;20,73310
 767,21;11384,559;  213,873;53796,977;20,84740
 767,77;11419,949;  234,719;53682,943;20,92722
 768,34;11437,570;  223,950;53621,448;21,00027
 768,91;11483,730;  233,719;53493,260;21,12300
 769,47;11539,505;  232,488;53468,072;21,23958
 770,04;11568,280;  245,719;53389,037;21,30571
 770,61;11517,132;  219,180;53037,695;21,39014
 771,18;11519,677;  211,334;53017,969;21,41462
 771,74;11631,913;  226,873;53148,935;21,55064
 772,31;11643,381;  236,103;52924,131;21,65061
 772,88;11619,694;  205,796;52656,174;21,76133
 773,44;11586,239;  202,565;52564,832;21,74022
 774,01;11752,706;  233,796;52605,952;21,99434
 774,58;11698,327;  215,642;52376,456;22,01401
 775,14;11760,872;  208,411;52458,191;22,11007
 775,71;11815,108;  210,795;52348,926;22,25686
 776,27;11921,576;  273,641;52254,661;22,40805
 776,84;11961,735;  312,180;52286,243;22,41417
 777,41;11930,895;  226,411;52017,901;22,59924
 777,97;11905,439;  215,795;51779,713;22,67020
 778,54;11924,061;  231,641;52002,294;22,58503
 779,11;12090,220;  260,641;51813,490;22,94651
 779,67;12055,457;  216,487;51780,072;22,95994
 780,24;12008,617;  231,949;51504,576;22,96872
 780,80;12099,238;  235,949;51658,234;23,07033
 781,37;12160,244;  237,795;51581,200;23,22099
 781,94;12138,250;  230,948;51445,858;23,24968
 782,50;12157,794;  228,179;51259,670;23,37697
 783,07;12199,185;  257,564;51261,097;23,41332
 783,63;12203,267;  221,871;51107,909;23,54555
 784,20;12230,504;  248,179;51014,798;23,60276
 784,77;12264,587;  232,410;50773,302;23,80682
 785,33;12226,900;  210,102;50667,037;23,81595
 785,90;12334,060;  228,102;50623,926;24,02175
 786,46;12343,451;  256,102;50497,815;24,05839
 787,03;12296,380;  228,102;50236,243;24,13263
 787,59;12308,309;  232,563;50226,978;24,15419
 788,16;12422,930;  235,871;50217,020;24,38331
 788,73;12465,705;  236,409;50094,217;24,52835
 789,29;12398,942;  230,640;49793,875;24,55106
 789,86;12453,486;  258,178;49607,226;24,71235
 790,42;12390,569;  238,101;49520,038;24,65907
 790,99;12354,190;  241,871;49234,388;24,72279
 791,55;12434,196;  233,255;49198,969;24,91731
 792,12;12447,432;  270,794;49232,320;24,86981
 792,68;12444,669;  239,178;48915,901;25,07459
 793,25;12417,521;  249,409;48664,020;25,13314
 793,81;12450,296;  318,486;48265,909;25,30232
 794,38;12338,302;  209,870;48136,952;25,30601
 794,94;12373,154;  239,870;48136,610;25,33217
 795,51;12381,929;  243,255;47862,730;25,49099
 796,07;12334,551;  234,101;47650,696;25,51944
 796,64;12434,172;  262,870;47746,046;25,63287
 797,20;12402,178;  246,178;47193,089;25,89308
 797,77;12344,491;  215,408;46881,670;25,99112
 798,33;12340,189;  244,177;46734,251;26,01848
 798,90;12350,195;  251,485;46698,063;26,04866
 799,46;12289,663;  221,947;46181,798;26,25708
 800,03;12304,976;  244,100;46101,918;26,30059
 800,59;12310,751;  259,254;45974,191;26,36227
 801,15;12330,526;  253,023;45733,850;26,55515
 801,72;12250,378;  240,946;45340,585;26,62867
 802,28;12219,307;  267,946;45057,089;26,68361
 802,85;12192,006;  238,254;44917,132;26,75482
 803,41;12227,088;  228,562;44717,636;26,96960
 803,98;12108,633;  231,946;44265,909;26,97165
 804,54;12092,716;  234,331;44154,568;26,99982
 805,11;12175,491;  247,715;43862,841;27,34780
 805,67;12180,881;  262,254;43846,653;27,34609
 806,23;12096,349;  249,177;43371,003;27,47372
 806,80;12115,354;  260,023;43244,277;27,58064
 807,36;12138,514;  258,253;43238,243;27,64138
 807,93;12133,366;  267,176;43079,055;27,71705
 808,49;12058,987;  233,561;42628,559;27,89345
 809,05;12033,378;  231,561;42517,909;27,90928
 809,62;12132,538;  264,407;42372,183;28,18513
 810,18;12127,390;  250,638;42348,149;28,21248
 810,74;12069,242;  218,022;41992,576;28,36947
 811,31;12107,478;  227,407;41870,234;28,52849
 811,87;12060,407;  254,330;41773,046;28,43556
 812,44;12200,259;  268,176;41687,781;28,80782
 813,00;12085,804;  204,637;41421,439;28,82603
 813,56;12150,502;  255,176;41486,559;28,85017
 814,13;12135,431;  234,945;41479,140;28,85372
 814,69;12138,360;  243,099;41172,414;29,06294
 815,25;12061,827;  209,022;40779,533;29,21532
 815,82;12132,372;  260,637;40770,038;29,30612
 816,38;12077,070;  289,637;40586,696;29,25135
 816,94;11965,306;  226,637;40272,969;29,31272
 817,51;11900,005;  220,637;40085,166;29,29764
 818,07;11926,703;  221,022;39734,670;29,62440
 818,63;11881,862;  234,021;39568,482;29,61231
 819,20;11854,638;  245,329;39580,525;29,51379
 819,76;11790,643;  223,483;39195,260;29,68087
 820,32;11819,034;  248,252;39074,764;29,80124
 820,89;11734,501;  247,021;38918,807;29,70507
 821,45;11693,046;  217,406;38530,927;29,95193
 822,01;11665,590;  252,867;38313,739;29,98545
 822,57;11662,134;  252,559;38158,628;30,09960
 823,14;11536,756;  216,867;37916,132;30,02682
 823,70;11498,992;  220,021;37639,482;30,14199
 824,26;11504,690;  219,482;37478,602;30,28845
 824,82;11554,158;  256,867;37394,875;30,41975
 825,39;11480,318;  228,251;37042,534;30,56440
 825,95;11502,323;  238,328;37083,730;30,57097
 826,51;11455,329;  239,790;36697,234;30,76337
 827,08;11529,566;  270,251;36758,662;30,85724
 827,64;11422,726;  252,097;36598,781;30,73356
 828,20;11411,655;  214,867;36265,901;31,05816
 828,76;11419,968;  253,866;36258,636;31,01284
 829,32;11406,051;  261,251;36200,987;31,00969
 829,89;11393,518;  209,789;35935,106;31,30477
 830,45;11382,063;  237,482;36000,687;31,16214
 831,01;11380,453;  232,712;35591,269;31,52770
 831,57;11355,844;  240,328;35661,388;31,38109
 832,14;11362,619;  221,020;35632,585;31,46316
 832,70;11318,856;  219,558;35308,551;31,63185
 833,26;11265,015;  199,020;35184,824;31,62996
 833,82;11296,406;  229,404;35104,636;31,73313
 834,38;11350,642;  222,558;35095,140;31,91070
 834,95;11381,648;  213,635;35052,260;32,05641
 835,51;11383,039;  190,635;34868,072;32,27575
 836,07;11415,583;  234,173;34910,423;32,24515
 836,63;11481,435;  244,866;34946,158;32,38084
 837,19;11501,595;  234,558;34790,893;32,60484
 837,75;11376,678;  204,481;34431,166;32,64177
 838,32;11471,068;  244,942;34548,901;32,72545
 838,88;11501,459;  241,481;34645,175;32,72898
 839,44;11493,157;  248,865;34467,987;32,85967
 840,00;11512,547;  241,404;34451,337;32,94699
 840,56;11431,169;  222,404;34168,149;33,01965
 841,12;11456,405;  218,634;34182,961;33,08698
 841,68;11435,411;  196,173;33923,004;33,32432
 842,25;11472,340;  232,557;33917,970;33,36691
 842,81;11483,423;  204,942;33732,782;33,63915
 843,37;11424,275;  200,634;33731,594;33,47247
 843,93;11477,665;  227,557;33568,329;33,74280
 844,49;11525,210;  237,788;33657,910;33,77433
 845,05;11481,446;  187,557;33455,260;33,94851
 845,61;11535,221;  245,095;33466,918;33,98407
 846,17;11490,227;  222,172;33305,653;34,05946
 846,73;11526,772;  230,634;33273,542;34,18627
 847,29;11442,470;  211,326;33127,123;34,12083
 847,86;11509,783;  210,249;33033,859;34,42502
 848,42;11461,405;  223,095;32902,594;34,38948
 848,98;11521,564;  228,403;32852,098;34,61644
 849,54;11496,416;  214,633;32873,756;34,54405
 850,10;11510,422;  232,403;32833,183;34,59432
 850,66;11420,121;  212,326;32636,534;34,56613
 851,22;11498,896;  196,864;32571,269;34,91039
 851,78;11553,748;  250,018;32602,235;34,93958
 852,34;11483,907;  232,710;32403,047;34,97383
 852,90;11468,990;  216,556;32242,782;35,13506
 853,46;11482,919;  213,402;32069,671;35,37614
 854,02;11514,771;  231,787;32082,329;35,42478
 854,58;11456,085;  227,171;31738,910;35,63406
 855,14;11467,091;  217,941;31687,953;35,74562
 855,70;11407,635;  177,633;31580,226;35,76138
 856,26;11439,102;  226,171;31551,500;35,79510
 856,82;11361,954;  220,633;31325,773;35,81827
 857,38;11392,499;  247,940;31349,508;35,83279
 857,94;11398,351;  217,786;31077,320;36,23050
 858,50;11372,510;  258,940;31058,594;36,08343
 859,06;11336,747;  215,479;30823,713;36,33424
 859,62;11330,138;  231,709;30848,525;36,24945
 860,18;11295,451;  224,786;30541,876;36,51625
 860,74;11178,765;  197,325;30524,072;36,21041
 861,30;11174,694;  191,171;30301,807;36,47722
 861,86;11320,469;  272,632;30376,235;36,69938
 862,42;11207,398;  219,709;30222,431;36,62231
 862,98;11320,557;  257,247;30116,705;37,05128
 863,54;11254,410;  222,170;29941,901;37,12093
 864,10;11289,031;  223,093;30022,636;37,13459
 864,66;11139,114;  204,016;29791,295;36,95878
 865,22;11163,504;  215,939;29593,491;37,26507
 865,78;11140,664;  222,862;29471,842;37,32712
 866,34;11103,054;  213,170;29417,038;37,28918
 866,90;11142,906;  236,555;29302,158;37,52322
 867,45;11094,681;  230,785;29035,970;37,71507
 868,01;11075,610;  229,324;28878,936;37,85841
 868,57;10991,232;  217,862;28688,363;37,84046
 869,13;10980,699;  205,708;28673,560;37,84968
 869,69;11021,397;  214,400;28441,756;38,28554
 870,25;10939,249;  186,785;28315,337;38,22616
 870,81;10946,486;  220,400;28380,765;38,08930
 871,37;10945,492;  230,862;28330,577;38,13074
 871,93;10938,190;  238,939;28173,081;38,30170
 872,49;10898,811;  262,246;27799,893;38,62554
 873,04;10803,048;  205,477;27732,782;38,49840
 873,60;10694,592;  205,708;27540,440;38,37200
 874,16;10733,598;  232,400;27473,483;38,54912
 874,72;10699,213;  212,938;27433,175;38,52382
 875,28;10695,829;  219,708;27361,713;38,59745
 875,84;10725,137;  230,246;27350,483;38,69764
 876,40;10707,290;  211,631;27344,867;38,68193
 876,95;10702,521;  223,323;27303,098;38,69751
 877,51;10743,829;  246,323;27297,637;38,80590
 878,07;10787,906;  263,400;27292,483;38,93771
 878,63;10811,444;  222,169;27272,867;39,14603
 879,19;10832,598;  240,400;27318,867;39,11668
 879,75;10899,983;  207,554;27394,790;39,32886
 880,30;10938,829;  226,554;27456,252;39,34041
 880,86;11076,137;  267,246;27557,790;39,60672
 881,42;11084,290;  217,938;27581,175;39,71150
 881,98;11122,367;  227,785;27704,867;39,64971
 882,54;11242,444;  216,246;27817,637;39,94798
 883,09;11320,675;  237,400;27976,790;39,95501
 883,65;11378,367;  203,169;28121,944;40,02754
 884,21;11553,060;  251,323;28417,021;40,12589
 884,77;11619,521;  211,631;28439,637;40,41338
 885,32;11761,983;  221,938;28643,483;40,60316
 885,88;11865,290;  263,323;28852,944;40,58105
 886,44;11982,444;  227,015;28875,021;41,03402
 887,00;12036,060;  250,477;28933,944;41,08842
 887,56;12188,137;  225,323;29002,329;41,57074
 888,11;12206,213;  221,785;29072,483;41,53948
 888,67;12316,752;  256,785;29292,867;41,53442
 889,23;12404,444;  226,015;29292,867;41,89800
 889,79;12342,290;  210,323;29163,252;41,90238
 890,34;12419,444;  231,862;29147,252;42,14912
 890,90;12523,290;  299,554;29313,098;42,13114
 891,46;12462,983;  230,477;29165,790;42,27535
 892,01;12603,675;  241,631;29178,713;42,72042
 892,57;12553,906;  246,785;29092,252;42,66570
 893,13;12421,137;  211,400;28971,021;42,45444
 893,69;12439,752;  202,631;28899,713;42,64239
 894,24;12505,752;  230,400;28829,175;42,92265
 894,80;12465,137;  234,169;28582,867;43,14472
 895,36;12420,906;  226,477;28442,175;43,21860
 895,91;12350,675;  225,169;28280,560;43,21988
 896,47;12378,213;  242,708;28191,329;43,42077
 897,03;12315,829;  219,092;27945,252;43,62933
 897,58;12243,675;  244,246;27851,483;43,46480
 898,14;12209,060;  234,708;27640,483;43,69281
 898,70;12079,290;  202,092;27523,637;43,47191
 899,25;12176,444;  230,785;27537,021;43,74700
 899,81;12145,675;  245,477;27311,175;43,96782
 900,37;12054,598;  209,785;27044,790;44,13941
 900,92;12078,906;  231,938;27062,560;44,15465
 901,48;12036,983;  212,477;26888,790;44,32586
 902,03;11971,060;  222,477;26758,098;44,27476
 902,59;11911,983;  225,477;26678,944;44,17760
 903,15;11886,444;  239,477;26485,560;44,37602
 903,70;11812,906;  227,477;26196,021;44,61332
 904,26;11797,213;  227,400;26080,175;44,75269
 904,82;11844,367;  229,938;26143,560;44,81978
 905,37;11808,213;  234,708;26013,175;44,89602
 905,93;11725,675;  210,631;25805,867;44,98901
 906,48;11760,060;  231,708;25697,175;45,27053
 907,04;11722,367;  239,785;25643,637;45,20016
 907,60;11666,290;  240,708;25437,021;45,34625
 908,15;11625,290;  218,554;25329,021;45,42622
 908,71;11632,675;  249,246;25351,021;45,34910
 909,26;11595,906;  223,938;25228,867;45,47890
 909,82;11614,752;  235,169;25071,637;45,81804
 910,37;11597,675;  273,015;25014,175;45,77255
 910,93;11548,598;  216,631;24674,021;46,33351
 911,48;11474,213;  212,785;24616,867;46,14568
 912,04;11494,213;  213,631;24466,637;46,51210
 912,60;11499,213;  231,938;24515,560;46,39866
 913,15;11435,444;  239,092;24347,329;46,44202
 913,71;11411,060;  215,092;24093,252;46,88790
 914,26;11373,444;  190,938;24063,406;46,84269
 914,82;11318,675;  229,785;23958,329;46,73228
 915,37;11285,060;  214,323;23861,329;46,81665
 915,93;11307,598;  270,169;23812,637;46,88306
 916,48;11222,675;  216,938;23582,560;47,10226
 917,04;11209,829;  237,169;23521,021;47,12562
 917,59;11169,983;  257,631;23477,713;46,99532
 918,15;11098,213;  197,323;23245,021;47,29709
 918,70;11090,521;  219,092;23222,175;47,26075
 919,26;11114,213;  236,862;23058,560;47,66233
 919,81;11027,752;  207,862;22928,175;47,62210
 920,37;11068,983;  218,938;22839,483;47,96544
 920,92;11063,598;  261,400;22781,021;47,96794
 921,48;10981,675;  199,785;22525,637;48,29330
 922,03;10991,521;  205,477;22530,098;48,31457
 922,59;10905,675;  225,246;22402,483;48,15942
 923,14;10905,829;  224,785;22233,406;48,53118
 923,69;10889,983;  250,015;22170,252;48,53947
 924,25;10904,290;  245,938;22132,098;48,69905
 924,80;10801,444;  219,862;21961,790;48,66902
 925,36;10790,983;  207,631;21846,406;48,90920
 925,91;10704,137;  224,015;21753,175;48,67873
 926,47;10656,137;  202,323;21673,637;48,68735
 927,02;10704,983;  285,862;21626,944;48,82190
 927,57;10610,367;  214,092;21334,329;49,22424
 928,13;10634,521;  210,092;21322,713;49,37534
 928,68;10650,213;  229,092;21243,560;49,59022
 929,24;10542,675;  191,092;21028,867;49,67701
 929,79;10548,137;  206,323;20950,252;49,85465
 930,34;10464,521;  220,477;20785,021;49,81411
 930,90;10488,137;  214,015;20762,790;49,99870
 931,45;10532,137;  226,554;20754,021;50,20387
 932,01;10516,829;  234,785;20661,098;50,33725
 932,56;10466,213;  246,246;20478,175;50,51405
 933,11;10501,444;  252,169;20502,867;50,61196
 933,67;10430,444;  219,092;20311,867;50,82101
 934,22;10455,675;  216,477;20255,790;51,09555
 934,77;10373,213;  252,708;20143,560;50,88020
 935,33;10293,906;  227,092;20010,944;50,88399
 935,88;10282,213;  235,862;19929,021;51,01442
 936,43;10274,675;  227,862;19856,175;51,18531
 936,99;10284,598;  232,554;19695,560;51,64693
 937,54;10154,290;  212,169;19608,867;51,25677
 938,09;10158,983;  239,554;19555,637;51,35321
 938,65;10159,521;  232,400;19423,175;51,72861
 939,20;10132,829;  206,323;19300,175;51,98797
 939,75;10055,060;  204,323;19170,329;51,93891
 940,31;10119,675;  211,246;19116,713;52,41039
 940,86;10034,521;  227,015;19065,944;52,05978
 941,41;10064,213;  313,400;19135,406;51,80539
 941,96; 9919,521;  210,477;18889,329;51,97881
 942,52; 9934,367;  217,631;18806,790;52,27098
 943,07; 9884,906;  201,785;18710,637;52,31616
 943,62; 9870,367;  212,477;18644,637;52,39696
 944,18; 9871,290;  203,323;18555,406;52,68049
 944,73; 9789,060;  220,477;18409,175;52,60730
 945,28; 9663,983;  191,554;18242,944;52,47479
 945,83; 9649,521;  207,323;18343,175;52,06371
 946,39; 9707,983;  213,246;18264,790;52,59792
 946,94; 9682,444;  245,246;18136,175;52,74851
 947,49; 9633,367;  209,169;18047,329;52,83167
 948,04; 9619,675;  256,554;17943,329;52,93854
 948,59; 9602,752;  240,169;17960,867;52,83416
 949,15; 9567,983;  203,400;17842,867;53,08881
 949,70; 9535,213;  214,092;17716,252;53,25698
 950,25; 9490,367;  239,169;17592,329;53,31132
 950,80; 9443,444;  185,323;17440,483;53,65422
 951,36; 9345,829;  193,015;17370,175;53,28479
 951,91; 9395,367;  233,477;17399,098;53,37349
 952,46; 9262,829;  199,554;17230,098;53,21776
 953,01; 9303,137;  226,631;17255,406;53,30099
 953,56; 9258,444;  195,169;17099,021;53,61663
 954,11; 9278,983;  222,554;17028,406;53,88854
 954,67; 9260,829;  214,862;16967,560;53,99708
 955,22; 9185,983;  200,015;16814,560;54,08495
 955,77; 9231,367;  248,400;16765,560;54,38567
 956,32; 9131,598;  270,400;16704,406;53,91989
 956,87; 9088,829;  207,092;16558,944;54,31640
 957,42; 9086,444;  215,631;16537,944;54,34777
 957,98; 9015,521;  208,554;16381,713;54,45422
 958,53; 9055,137;  245,938;16348,790;54,70583
 959,08; 9008,367;  204,708;16229,175;54,93886
 959,63; 8936,983;  212,246;16089,483;54,95123
 960,18; 8995,906;  223,708;16043,560;55,45057
 960,73; 8944,213;  225,169;16017,560;55,21041
 961,28; 8927,290;  193,554;15881,175;55,67279
 961,83; 8956,521;  243,323;15852,098;55,82243
 962,39; 8839,060;  196,938;15762,329;55,52139
 962,94; 8814,598;  235,400;15630,944;55,72520
 963,49; 8800,521;  215,785;15523,713;56,08033
 964,04; 8726,137;  235,785;15473,329;55,71995
 964,59; 8642,675;  194,015;15376,175;55,64860
 965,14; 8700,906;  239,554;15334,713;56,05341
 965,69; 8653,752;  219,015;15295,098;55,94780
 966,24; 8585,137;  206,631;15172,560;55,98387
 966,79; 8561,137;  224,323;15031,790;56,30141
 967,34; 8514,213;  190,169;14944,867;56,41623
 967,89; 8528,444;  216,400;14881,867;56,67766
 968,44; 8505,137;  218,400;14821,252;56,74738
 968,99; 8470,752;  226,862;14712,790;56,90964
 969,55; 8373,444;  218,554;14667,406;56,43971
 970,10; 8358,444;  226,708;14514,637;56,91333
 970,65; 8356,521;  239,092;14459,329;57,08364
 971,20; 8312,290;  211,631;14306,867;57,47090
 971,75; 8191,213;  197,169;14216,021;57,02353
 972,30; 8182,521;  219,092;14145,175;57,18355
 972,85; 8154,983;  204,554;14088,021;57,26544
 973,40; 8093,444;  203,708;13950,560;57,39304
 973,95; 8098,213;  227,554;13891,406;57,60206
 974,50; 8123,829;  248,323;13904,406;57,67031
 975,05; 8098,290;  211,785;13704,483;58,45018
 975,60; 8011,137;  228,862;13682,175;57,84653
 976,15; 8007,906;  212,477;13600,944;58,22495
 976,70; 7945,213;  226,862;13493,637;58,17806
 977,25; 7922,906;  235,246;13457,867;58,14021
 977,80; 7891,829;  208,554;13293,098;58,72023
 978,35; 7814,983;  234,708;13092,175;58,95621
 978,89; 7780,906;  201,169;13054,560;58,97072
 979,44; 7827,752;  223,862;13040,021;59,33049
 979,99; 7714,444;  212,169;12829,867;59,45835
 980,54; 7730,829;  246,785;12840,637;59,42617
 981,09; 7659,675;  242,938;12647,713;59,78937
 981,64; 7611,983;  228,708;12520,406;60,06717
 982,19; 7568,752;  270,246;12500,713;59,67479
 982,74; 7457,521;  234,477;12373,713;59,50164
 983,29; 7391,983;  200,092;12258,944;59,63993
 983,84; 7369,752;  232,554;12145,329;59,91214
 984,39; 7419,444;  298,862;12130,406;60,18304
 984,94; 7253,983;  205,323;11949,867;60,01646
 985,49; 7224,752;  245,862;11916,483;59,79879
 986,03; 7235,137;  243,015;11837,252;60,30687
 986,58; 7135,829;  282,477;11682,944;60,11466
 987,13; 7107,829;  212,015;11573,252;60,69598
 987,68; 7073,598;  241,554;11430,098;61,06285
 988,23; 7069,060;  243,477;11445,406;60,93221
 988,78; 6980,675;  210,400;11289,560;61,10820
 989,33; 6879,521;  248,477;11125,483;60,96388
 989,88; 6897,829;  258,169;11165,790;60,87175
 990,42; 6772,906;  230,708;10973,713;60,89728
 990,97; 6744,829;  213,092;10828,329;61,53171
 991,52; 6686,906;  241,246;10779,329;61,16539
 992,07; 6711,829;  258,631;10725,790;61,65186
 992,62; 6599,060;  235,554;10580,175;61,51512
 993,17; 6591,213;  240,092;10459,483;62,14775
 993,71; 6526,367;  243,092;10406,483;61,82263
 994,26; 6392,137;  219,092;10208,944;61,79315
 994,81; 6417,444;  253,323;10201,021;61,96530
 995,36; 6319,906;  215,785;10082,483;61,86590
 995,91; 6285,367;  230,246; 9978,713;62,11357
 996,45; 6183,367;  232,631; 9855,867;61,83716
 997,00; 6119,906;  200,708; 9710,098;62,24582
 997,55; 6111,675;  244,938; 9694,021;62,08789
 998,10; 6044,060;  249,323; 9601,713;61,95995
 998,65; 5965,906;  228,323; 9486,098;61,97583
 999,19; 5885,444;  248,246; 9399,483;61,60040
 999,74; 5893,137;  259,708; 9297,560;62,33150
1000,29; 5855,752;  239,246; 9177,790;62,83468
1000,84; 5751,213;  226,938; 9035,790;62,71277
1001,38; 5711,829;  233,169; 8965,175;62,74228
1001,93; 5661,598;  245,554; 8920,790;62,43108
1002,48; 5598,444;  206,400; 8758,098;63,05232
1003,03; 5599,521;  239,938; 8675,252;63,53745
1003,57; 5528,367;  242,554; 8621,483;63,08460
1004,12; 5521,137;  260,631; 8573,406;63,28219
1004,67; 5415,060;  224,246; 8447,790;63,12137
1005,22; 5331,290;  221,400; 8250,406;63,64288
1005,76; 5243,983;  210,554; 8124,329;63,60339
1006,31; 5275,290;  243,938; 8095,790;64,07854
1006,86; 5170,137;  216,246; 7914,713;64,34905
1007,40; 5060,983;  211,246; 7821,021;63,73035
1007,95; 5046,675;  227,708; 7688,483;64,59071
1008,50; 4992,906;  238,323; 7620,637;64,40505
1009,04; 4938,213;  230,246; 7458,483;65,13300
1009,59; 4845,290;  232,015; 7371,252;64,61860
1010,14; 4765,060;  220,169; 7282,713;64,35203
1010,68; 4701,906;  233,708; 7158,560;64,52410
1011,23; 4660,290;  235,092; 7054,790;64,88847
1011,78; 4647,137;  253,246; 6960,713;65,50744
1012,32; 4594,829;  252,400; 6872,252;65,59707
1012,87; 4554,137;  257,246; 6859,790;65,07931
1013,42; 4495,213;  220,169; 6710,021;65,87275
1013,96; 4552,521;  254,708; 6728,944;66,38332
1014,51; 4474,521;  192,938; 6595,790;66,86993
1015,06; 4452,367;  199,938; 6633,406;66,09855
1015,60; 4580,060;  276,477; 6714,790;66,84332
1016,15; 4513,675;  222,631; 6685,406;66,39631
1016,69; 4568,675;  226,400; 6689,867;67,18182
1017,24; 4594,367;  203,554; 6703,637;67,55012
1017,79; 4691,060;  266,938; 6809,637;67,61922
1018,33; 4683,829;  225,323; 6806,406;67,74730
1018,88; 4753,829;  242,323; 6915,021;67,61142
1019,42; 4766,752;  235,708; 6899,560;67,99437
1019,97; 4821,137;  222,015; 6909,098;68,77620
1020,51; 4890,521;  259,400; 7042,944;68,26993
1021,06; 4857,444;  198,631; 6987,560;68,62369
1021,61; 4835,444;  185,938; 6998,406;68,24995
1022,15; 4870,367;  176,862; 6896,175;69,85097
1022,70; 4916,521;  222,323; 6941,560;69,86208
1023,24; 4853,829;  209,169; 6894,560;69,47477
1023,79; 4856,906;  234,246; 6823,175;70,15798
1024,33; 4804,213;  225,554; 6770,098;69,96147
1024,88; 4747,290;  233,477; 6724,021;69,54445
1025,42; 4678,444;  234,400; 6536,021;70,52224
1025,97; 4622,213;  214,400; 6473,713;70,42008
1026,51; 4495,521;  196,400; 6368,867;69,64996
1027,06; 4498,906;  216,631; 6318,252;70,18258
1027,60; 4450,829;  228,631; 6212,713;70,55715
1028,15; 4355,521;  241,785; 6148,329;69,64710
1028,69; 4253,290;  198,708; 5937,483;70,65241
1029,24; 4208,367;  219,323; 5908,329;70,11848
1029,78; 4123,290;  204,708; 5835,560;69,59129
1030,33; 4061,983;  197,323; 5678,790;70,50411
1030,87; 4058,290;  208,862; 5635,637;70,93400
1031,42; 3968,829;  192,862; 5513,867;70,96341
1031,96; 3945,983;  236,785; 5473,098;70,83606
1032,51; 3868,906;  203,938; 5401,867;70,50822
1033,05; 3804,444;  216,400; 5335,790;70,08733
1033,60; 3741,444;  198,938; 5221,406;70,53318
1034,14; 3708,829;  221,400; 5148,098;70,78633
1034,69; 3673,444;  213,785; 5084,867;71,02445
1035,23; 3611,213;  214,708; 5009,944;70,83083
1035,77; 3555,983;  220,092; 4922,944;70,93335
1036,32; 3473,598;  197,477; 4838,790;70,58608
1036,86; 3473,983;  223,169; 4806,021;70,93429
1037,41; 3409,906;  232,400; 4710,483;70,95684
1037,95; 3336,060;  191,092; 4640,175;70,68799
1038,50; 3306,598;  209,323; 4594,790;70,62588
1039,04; 3286,829;  231,246; 4555,713;70,65801
1039,58; 3210,675;  200,477; 4461,252;70,64907
1040,13; 3155,598;  210,246; 4394,790;70,38644
1040,67; 3198,290;  244,323; 4399,637;71,08892
1041,21; 3126,983;  247,554; 4267,867;71,62200
1041,76; 3039,983;  202,554; 4193,175;71,10244
1042,30; 3018,906;  207,631; 4173,713;70,88291
1042,85; 3004,906;  215,323; 4094,175;71,91774
1043,39; 2907,598;  195,323; 3985,944;71,55226
1043,93; 2910,675;  242,015; 3993,637;71,13350
1044,48; 2841,598;  227,015; 3932,483;70,56013
1045,02; 2794,137;  211,785; 3880,021;70,39764
1045,56; 2801,521;  240,708; 3851,021;70,93050
1046,11; 2759,521;  227,554; 3785,406;71,16562
1046,65; 2708,598;  229,477; 3706,406;71,30204
1047,19; 2677,829;  212,938; 3668,637;71,32829
1047,74; 2621,521;  195,862; 3568,944;71,91225
1048,28; 2583,444;  224,400; 3561,252;70,69670
1048,82; 2567,290;  249,938; 3558,790;70,03492
1049,37; 2536,444;  236,400; 3450,867;71,55289
1049,91; 2506,829;  225,092; 3414,560;71,53974
1050,45; 2453,444;  239,169; 3391,637;70,23943
1050,99; 2443,137;  219,246; 3353,483;70,95477
1051,54; 2384,983;  213,169; 3251,175;71,48813
1052,08; 2375,521;  249,938; 3258,098;70,66057
1052,62; 2340,906;  241,323; 3228,790;70,27969
1053,16; 2286,983;  220,554; 3136,867;70,85757
1053,71; 2283,829;  226,092; 3101,252;71,56947
1054,25; 2274,675;  244,169; 3059,867;72,11376
1054,79; 2253,675;  237,246; 3008,252;72,76884
1055,33; 2169,983;  200,092; 2939,637;71,90577
1055,88; 2172,752;  239,400; 2941,098;71,56062
1056,42; 2161,983;  237,477; 2872,252;73,04251
1056,96; 2140,906;  247,015; 2844,483;72,91296
1057,50; 2131,213;  230,477; 2794,098;74,14265
1058,05; 2071,983;  230,015; 2762,252;72,74073
1058,59; 2051,290;  247,938; 2739,252;72,38559
1059,13; 1998,367;  213,708; 2670,175;72,65147
1059,67; 1985,290;  235,015; 2639,175;72,80195
1060,21; 1987,829;  232,092; 2573,098;74,99924
1060,76; 1921,213;  239,554; 2571,329;72,11929
1061,30; 1929,752;  259,400; 2576,329;72,09336
1061,84; 1898,983;  232,938; 2493,406;73,70353
1062,38; 1817,598;  217,477; 2432,329;72,24506
1062,92; 1882,444;  267,708; 2475,637;73,13354
1063,46; 1806,675;  250,323; 2372,560;73,33546
1064,01; 1784,598;  219,169; 2363,944;72,98802
1064,55; 1776,290;  244,477; 2310,790;74,13268
1065,09; 1724,213;  210,400; 2239,329;74,61146
1065,63; 1738,983;  252,554; 2300,790;72,57115
1066,17; 1729,521;  258,323; 2235,637;74,40389
1066,71; 1708,137;  252,015; 2232,252;73,53269
1067,25; 1651,906;  233,169; 2154,790;73,83019
1067,80; 1654,444;  250,554; 2176,867;72,87964
1068,34; 1641,444;  262,323; 2144,560;73,27034
1068,88; 1583,290;  220,246; 2092,483;72,80299
1069,42; 1610,829;  250,246; 2101,252;73,50505
1069,96; 1565,290;  231,092; 2018,713;74,63539
1070,50; 1573,675;  260,092; 2062,713;72,87070
1071,04; 1537,983;  223,169; 1975,252;75,04289
1071,58; 1523,367;  233,092; 1960,560;74,69172
1072,12; 1512,906;  234,554; 1946,560;74,66984
1072,66; 1497,983;  241,785; 1936,021;74,14538
1073,21; 1503,752;  253,246; 1939,098;74,17649
1073,75; 1453,213;  239,862; 1893,790;73,36180
1074,29; 1439,829;  239,708; 1876,637;73,31541
1074,83; 1453,675;  262,092; 1872,329;74,00048
1075,37; 1433,137;  259,631; 1832,483;74,61006
1075,91; 1420,290;  247,631; 1794,790;75,79435
1076,45; 1400,213;  247,785; 1770,790;75,66806
1076,99; 1380,829;  258,938; 1749,483;75,26716
1077,53; 1331,521;  231,323; 1710,790;74,36447
1078,07; 1339,290;  243,477; 1723,560;74,03731
1078,61; 1321,675;  241,400; 1669,637;75,63698
1079,15; 1316,675;  234,246; 1688,867;74,41311
1079,69; 1304,367;  240,785; 1637,944;76,12464
1080,23; 1301,367;  253,323; 1646,867;75,20710
1080,77; 1308,521;  301,938; 1673,175;73,40693
1081,31; 1260,906;  230,092; 1598,175;75,34731
1081,85; 1264,213;  247,323; 1598,560;75,25628
1082,39; 1246,598;  235,631; 1560,329;76,31681
1082,93; 1231,367;  250,554; 1558,867;74,96777
1083,47; 1190,444;  225,938; 1506,867;75,29737
1084,01; 1212,213;  253,938; 1542,560;74,36437
1084,55; 1191,290;  232,554; 1488,713;76,32283
1085,09; 1188,752;  255,938; 1486,175;75,82391
1085,63; 1169,290;  252,477; 1455,944;76,18100
1086,17; 1147,752;  235,708; 1415,021;77,33688
1086,71; 1126,906;  219,246; 1411,175;76,15049
1087,24; 1156,906;  262,938; 1429,406;76,63887
1087,78; 1134,983;  251,092; 1379,944;78,29994
1088,32; 1074,752;  232,554; 1339,021;76,11595
1088,86; 1104,675;  253,554; 1374,944;75,89874
1089,40; 1076,675;  249,477; 1351,944;75,03153
1089,94; 1049,752;  218,092; 1316,560;75,71091
1090,48; 1057,213;  249,631; 1314,713;75,82347
1091,02; 1079,213;  255,015; 1325,867;76,96658
1091,56; 1033,752;  245,400; 1297,560;74,92703
1092,10; 1006,983;  220,785; 1261,329;75,55643
1092,63; 1024,829;  260,862; 1278,713;75,05682
1093,17; 1009,983;  253,246; 1245,252;76,28348
1093,71;  977,675;  226,246; 1209,637;76,41206
1094,25; 1008,137;  260,092; 1220,021;77,92705
1094,79;  975,906;  245,631; 1188,944;77,41594
1095,33;  964,752;  252,246; 1185,790;76,32266
1095,87;  953,367;  239,631; 1191,252;75,00217
1096,40;  931,213;  224,862; 1149,944;76,35554
1096,94;  940,829;  245,169; 1150,021;76,88105
1097,48;  934,829;  254,169; 1153,483;75,68658
1098,02;  907,752;  244,477; 1105,483;77,03491
1098,56;  876,367;  217,862; 1080,021;76,37864
1099,10;  879,675;  213,938; 1066,790;78,06004
1099,63;  863,444;  221,323; 1071,175;75,55683
1100,17;  882,983;  239,708; 1075,329;76,98166
1100,71;  898,752;  261,169; 1095,329;76,43414

