
Integration time [ms]: 140,000
Averaging Nr. [scans]: 13
Smoothing Nr. [pixels]: 0
Data measured with spectrometer [name]: 2009305U1
Wave   ;Sample   ;Dark     ;Reference;Reflectance
[nm]   ;[counts] ;[counts] ;[counts] ;[%]

 175,72;  204,086;  185,479;  195,256;190,32904
 176,32;  233,163;  214,863;  213,589; 0,00000
 176,92;  261,878;  238,402;  244,147;408,61509
 177,52;  259,738;  239,171;  255,101;129,10943
 178,12;  233,774;  218,325;  215,567; 0,00000
 178,72;  261,932;  248,709;  238,776; 0,00000
 179,32;  250,303;  248,094;  241,542; 0,00000
 179,92;  252,502;  235,094;  233,146; 0,00000
 180,52;  243,983;  229,480;  243,972;100,07603
 181,12;  265,697;  244,710;  253,779;231,41429
 181,73;  277,036;  269,479;  266,724; 0,00000
 182,33;  350,096;  325,403;  327,235;1347,73621
 182,93;  268,837;  264,325;  263,605; 0,00000
 183,53;  236,656;  235,709;  223,292; 0,00000
 184,13;  252,814;  236,093;  221,711; 0,00000
 184,73;  273,551;  251,478;  257,984;339,28653
 185,33;  266,176;  223,703;  341,427;36,07894
 185,93;  266,380;  228,779;  366,740;27,25450
 186,53;  291,027;  248,010;  359,067;38,73415
 187,13;  302,041;  274,472;  411,352;20,14072
 187,73;  272,389;  238,933;  352,642;29,42220
 188,33;  282,149;  238,856;  363,204;34,81575
 188,93;  278,691;  245,547;  371,130;26,39205
 189,53;  276,183;  249,392;  378,224;20,79561
 190,13;  332,132;  273,390;  396,734;47,62481
 190,73;  266,816;  223,776;  357,743;32,12763
 191,34;  293,405;  262,315;  381,146;26,16331
 191,94;  271,555;  235,624;  353,574;30,46305
 192,54;  286,114;  242,088;  410,064;26,20937
 193,14;  291,987;  255,626;  389,518;27,15649
 193,74;  292,611;  251,934;  380,684;31,59377
 194,34;  292,896;  243,165;  382,870;35,59749
 194,94;  250,471;  214,165;  356,176;25,56557
 195,54;  218,928;  209,241;  329,743; 8,03831
 196,14;  247,702;  217,550;  352,435;22,35400
 196,74;  248,479;  216,472;  355,469;23,02754
 197,34;  231,779;  190,627;  347,445;26,24187
 197,94;  263,892;  220,165;  381,711;27,06771
 198,54;  274,457;  222,703;  386,849;31,52932
 199,14;  253,336;  222,781;  387,587;18,53974
 199,74;  232,775;  196,320;  389,699;18,85163
 200,34;  225,693;  191,781;  399,400;16,33383
 200,94;  266,010;  212,858;  445,923;22,80562
 201,54;  247,756;  205,396;  445,617;17,63386
 202,14;  279,494;  216,397;  481,328;23,81656
 202,74;  266,702;  214,089;  491,643;18,95612
 203,34;  236,449;  199,243;  512,548;11,87537
 203,94;  207,150;  171,089;  515,499;10,47046
 204,54;  293,584;  235,472;  607,818;15,60687
 205,14;  240,091;  201,243;  625,848; 9,14938
 205,74;  303,187;  225,936;  717,479;15,71606
 206,34;  263,196;  196,166;  752,632;12,04561
 206,94;  276,377;  197,781;  803,742;12,97036
 207,54;  249,354;  181,935;  836,884;10,29376
 208,14;  275,182;  196,166;  931,384;10,74730
 208,74;  273,404;  213,243; 1002,408; 7,62337
 209,34;  277,141;  187,704; 1131,861; 9,47268
 209,94;  299,865;  214,396; 1205,746; 8,62145
 210,54;  303,476;  211,320; 1331,090; 8,22994
 211,14;  318,680;  212,550; 1444,831; 8,61243
 211,73;  326,295;  205,396; 1570,587; 8,85581
 212,33;  340,109;  217,781; 1692,428; 8,29545
 212,93;  329,218;  198,550; 1777,647; 8,27485
 213,53;  312,304;  179,627; 1863,519; 7,87918
 214,13;  344,287;  180,167; 1947,134; 9,28823
 214,73;  329,110;  186,704; 1956,174; 8,04790
 215,33;  334,173;  160,858; 1986,361; 9,49409
 215,93;  373,128;  193,628; 2151,394; 9,16862
 216,53;  342,557;  156,858; 2213,685; 9,02844
 217,13;  416,671;  203,551; 2475,000; 9,38256
 217,73;  422,621;  187,320; 2705,924; 9,34252
 218,33;  399,563;  139,013; 2915,972; 9,38256
 218,93;  471,803;  178,937; 3285,822; 9,42636
 219,53;  504,155;  189,397; 3601,083; 9,22588
 220,13;  500,857;  162,628; 3919,631; 9,00262
 220,73;  577,435;  187,627; 4345,430; 9,37534
 221,32;  611,481;  177,781; 4807,485; 9,36776
 221,92;  667,065;  169,705; 5226,097; 9,83626
 222,52;  704,694;  170,320; 5728,902; 9,61349
 223,12;  740,395;  178,166; 6210,697; 9,31995
 223,72;  800,988;  189,705; 6609,886; 9,52127
 224,32;  840,101;  185,090; 7038,082; 9,55803
 224,92;  872,151;  176,013; 7429,681; 9,59705
 225,52;  928,969;  194,551; 7914,699; 9,51301
 226,12;  948,911;  189,320; 8156,380; 9,53414
 226,72;  978,399;  153,089; 8544,829; 9,83479
 227,31;  998,603;  151,397; 8937,273; 9,64282
 227,91; 1085,377;  173,781; 9431,250; 9,84713
 228,51; 1116,204;  178,242; 9836,402; 9,71160
 229,11; 1153,558;  175,705;10277,773; 9,67973
 229,71; 1178,137;  173,935;10569,057; 9,66032
 230,31; 1227,160;  164,936;10971,690; 9,82926
 230,91; 1272,399;  158,704;11316,961; 9,98091
 231,51; 1331,133;  165,782;11651,599;10,14600
 232,10; 1348,128;  152,244;11950,374;10,13622
 232,70; 1415,896;  182,934;12128,177;10,32178
 233,30; 1464,580;  207,551;12409,368;10,30199
 233,90; 1502,169;  177,705;12542,581;10,71150
 234,50; 1492,811;  175,705;12624,090;10,58054
 235,10; 1507,612;  175,936;12587,604;10,72923
 235,70; 1562,463;  192,012;12589,246;11,05449
 236,29; 1542,589;  189,396;12470,908;11,01813
 236,89; 1512,756;  161,781;12355,974;11,07884
 237,49; 1575,589;  179,012;12190,487;11,62702
 238,09; 1543,965;  177,474;11885,708;11,67120
 238,69; 1560,679;  191,550;11608,161;11,99243
 239,29; 1512,078;  167,243;11324,076;12,05391
 239,89; 1519,553;  185,934;10841,376;12,51584
 240,48; 1467,399;  171,089;10430,461;12,63538
 241,08; 1457,273;  164,550; 9925,725;13,24351
 241,68; 1443,779;  193,704; 9670,747;13,19056
 242,28; 1386,277;  166,243; 9327,389;13,31748
 242,88; 1411,495;  200,551; 8918,630;13,89003
 243,48; 1416,766;  205,858; 8599,299;14,42683
 244,07; 1400,119;  186,320; 8384,233;14,80619
 244,67; 1418,137;  192,705; 8187,529;15,32782
 245,27; 1415,295;  202,012; 8095,587;15,37052
 245,87; 1453,300;  194,474; 7980,459;16,16784
 246,47; 1476,245;  192,781; 7916,835;16,61646
 247,06; 1485,987;  177,243; 7990,336;16,75066
 247,66; 1553,078;  177,474; 8048,290;17,47728
 248,26; 1648,426;  214,473; 8269,036;17,80299
 248,86; 1712,431;  189,012; 8400,903;18,55138
 249,46; 1731,617;  144,551; 8617,949;18,72998
 250,05; 1881,598;  196,243; 9060,084;19,01383
 250,65; 1965,716;  167,858; 9437,415;19,39529
 251,25; 2100,254;  178,320; 9988,396;19,59144
 251,85; 2262,512;  171,858;10651,004;19,95062
 252,44; 2455,069;  140,627;11248,852;20,83539
 253,04; 2658,666;  195,781;12089,583;20,70730
 253,64; 2805,507;  142,242;12890,197;20,89171
 254,24; 3109,313;  194,627;13790,358;21,43824
 254,84; 3335,078;  169,089;14803,334;21,63411
 255,43; 3608,652;  179,396;15864,429;21,86324
 256,03; 3859,055;  190,396;16954,300;21,88428
 256,63; 4180,037;  182,088;18131,034;22,27400
 257,23; 4423,082;  168,319;18989,457;22,60630
 257,82; 4690,073;  182,703;20170,973;22,55007
 258,42; 4868,611;  146,242;20962,190;22,68630
 259,02; 5151,906;  187,627;21970,194;22,79015
 259,62; 5347,973;  170,934;22616,087;23,06529
 260,21; 5520,467;  188,243;23208,899;23,16278
 260,81; 5661,879;  174,935;23814,389;23,21096
 261,41; 5792,751;  165,626;24249,895;23,36432
 262,01; 5958,263;  206,780;24823,697;23,36394
 262,60; 6016,005;  166,088;25190,303;23,37702
 263,20; 6080,765;  174,473;25501,198;23,32040
 263,80; 6147,502;  190,934;25666,154;23,38181
 264,40; 6130,149;  162,011;25910,561;23,17854
 264,99; 6201,186;  187,703;26077,975;23,22680
 265,59; 6203,235;  167,779;26263,178;23,12843
 266,19; 6232,095;  155,703;26358,343;23,19000
 266,78; 6253,665;  211,241;26526,645;22,96155
 267,38; 6227,258;  182,856;26574,819;22,90243
 267,98; 6183,851;  174,933;26521,482;22,80723
 268,58; 6139,769;  183,549;26637,110;22,51576
 269,17; 6073,932;  172,010;26578,078;22,35063
 269,77; 6043,729;  184,627;26360,820;22,38333
 270,37; 5937,733;  154,395;26285,663;22,13187
 270,96; 5904,982;  216,088;26114,464;21,96622
 271,56; 5739,471;  183,011;25847,017;21,65079
 272,16; 5653,294;  177,242;25662,532;21,48711
 272,75; 5604,878;  170,319;25533,878;21,42664
 273,35; 5525,928;  189,934;25558,768;21,03366
 273,95; 5520,779;  176,473;25489,682;21,11272
 274,54; 5458,146;  152,012;25534,849;20,90442
 275,14; 5524,485;  193,550;26005,943;20,65262
 275,74; 5458,797;  158,472;26014,058;20,49973
 276,33; 5536,765;  197,242;26447,525;20,34082
 276,93; 5562,707;  182,858;26857,798;20,16818
 277,53; 5636,490;  180,935;27406,403;20,03842
 278,12; 5714,467;  159,781;27918,410;20,01066
 278,72; 5907,698;  202,935;28556,100;20,12037
 279,32; 5979,521;  173,319;29138,181;20,04567
 279,91; 6056,652;  163,473;29950,309;19,78451
 280,51; 6224,585;  178,243;30461,040;19,96626
 281,11; 6362,471;  177,781;31261,061;19,89716
 281,70; 6474,793;  161,012;31734,847;19,99688
 282,30; 6613,010;  157,704;32402,786;20,01951
 282,90; 6714,430;  169,781;32829,260;20,03905
 283,49; 6833,982;  186,319;33285,956;20,08380
 284,09; 7005,195;  205,704;33770,223;20,25797
 284,69; 7110,503;  200,627;34065,929;20,40400
 285,28; 7241,064;  185,858;34456,727;20,58660
 285,88; 7456,946;  214,319;34623,622;21,04846
 286,47; 7491,145;  180,396;34740,226;21,15389
 287,07; 7642,851;  205,627;34790,839;21,50406
 287,67; 7790,074;  186,089;34931,222;21,88503
 288,26; 7849,924;  187,242;34812,403;22,13039
 288,86; 8056,082;  168,396;34889,979;22,71695
 289,46; 8333,607;  190,242;35024,454;23,37749
 290,05; 8546,585;  176,320;35064,746;23,99152
 290,65; 8790,082;  171,627;35334,474;24,51012
 291,24; 9037,195;  183,858;35382,728;25,15233
 291,84; 9346,421;  195,550;35559,419;25,87633
 292,44; 9540,137;  176,474;35643,051;26,40137
 293,03; 9892,413;  237,166;35704,989;27,22255
 293,63;10014,326;  174,011;35930,474;27,52038
 294,22;10286,254;  201,012;36147,108;28,05657
 294,82;10439,860;  173,780;36066,967;28,60175
 295,41;10461,639;  160,627;35770,539;28,92737
 296,01;10593,498;  215,934;35568,408;29,35456
 296,61;10543,743;  189,242;35304,185;29,48745
 297,20;10576,982;  185,934;34895,865;29,93682
 297,80;10537,286;  192,474;34654,879;30,01767
 298,39;10474,973;  161,011;34265,466;30,24227
 298,99;10441,625;  188,242;34203,943;30,14309
 299,58;10349,313;  194,935;33946,341;30,08579
 300,18;10359,399;  208,474;33765,785;30,24952
 300,78;10211,526;  167,089;33266,446;30,34632
 301,37;10116,181;  187,241;33370,355;29,92166
 301,97;10161,811;  187,473;33330,898;30,09447
 302,56;10095,842;  178,242;33182,632;30,04934
 303,16;10026,498;  163,627;33180,943;29,87181
 303,75; 9946,272;  176,243;33163,819;29,61730
 304,35; 9991,019;  169,397;33468,616;29,49505
 304,94; 9925,060;  182,396;33377,843;29,34940
 305,54; 9858,019;  196,473;33270,715;29,21169
 306,13; 9774,142;  152,782;33197,809;29,11591
 306,73; 9674,096;  160,089;32978,372;28,98996
 307,33; 9680,553;  185,243;32896,675;29,02750
 307,92; 9600,055;  189,319;32981,544;28,69807
 308,52; 9621,530;  165,627;33521,982;28,34813
 309,11; 9788,846;  169,780;34004,442;28,42962
 309,71; 9814,045;  153,395;34272,898;28,31416
 310,30; 9772,394;  163,089;34384,044;28,08018
 310,90; 9924,087;  192,935;34746,275;28,16270
 311,49; 9891,784;  189,089;34846,296;27,99618
 312,09; 9866,888;  158,550;35067,187;27,81070
 312,68; 9893,612;  214,704;35454,057;27,46619
 313,28; 9893,747;  158,781;35637,775;27,43868
 313,87; 9883,440;  146,627;35637,822;27,43445
 314,47; 9898,380;  169,934;35921,682;27,21111
 315,06; 9904,738;  157,704;36088,779;27,12703
 315,66; 9872,734;  163,858;36229,648;26,91990
 316,25; 9800,878;  145,550;36163,538;26,80696
 316,85; 9793,033;  141,935;36211,499;26,75690
 317,44; 9765,367;  162,319;36309,758;26,56633
 318,04; 9696,688;  151,627;36276,585;26,42235
 318,63; 9630,879;  146,935;36258,419;26,26296
 319,22; 9656,091;  172,857;36442,469;26,14650
 319,82; 9617,136;  169,473;36451,752;26,03933
 320,41; 9523,059;  175,473;36422,431;25,78861
 321,01; 9548,530;  184,935;36415,404;25,84453
 321,60; 9551,155;  178,704;36469,158;25,82621
 322,20; 9480,766;  168,781;36444,181;25,67025
 322,79; 9477,521;  208,781;36518,826;25,52666
 323,39; 9493,725;  175,397;36502,710;25,65103
 323,98; 9460,788;  162,935;36368,639;25,68063
 324,58; 9402,543;  174,242;36243,259;25,58512
 325,17; 9395,064;  182,165;36086,068;25,65988
 325,76; 9317,435;  181,396;35892,001;25,58355
 326,36; 9206,028;  155,320;35319,109;25,73872
 326,95; 9142,507;  190,012;35150,659;25,60735
 327,55; 9049,747;  155,473;34758,932;25,70343
 328,14; 8890,540;  178,858;34183,029;25,61945
 328,74; 8888,480;  195,627;33785,675;25,87925
 329,33; 8820,870;  182,935;33325,981;26,06259
 329,92; 8687,788;  162,626;32790,233;26,12868
 330,52; 8490,598;  167,935;32078,807;26,08096
 331,11; 8421,322;  179,088;31670,667;26,17282
 331,71; 8318,345;  175,396;31085,078;26,34433
 332,30; 8221,367;  180,627;30673,381;26,36935
 332,89; 8153,643;  217,627;30068,310;26,58571
 333,49; 8001,213;  191,550;29441,783;26,69949
 334,08; 7922,195;  173,242;29024,115;26,85864
 334,68; 7786,851;  179,165;28619,410;26,74972
 335,27; 7786,386;  193,397;28249,166;27,06391
 335,86; 7798,476;  210,550;28048,513;27,25747
 336,46; 7766,481;  188,012;27722,418;27,52363
 337,05; 7731,372;  163,011;27538,804;27,64618
 337,65; 7751,403;  151,704;27324,227;27,96833
 338,24; 7858,824;  212,550;27404,497;28,11963
 338,83; 7892,829;  199,935;27215,933;28,47533
 339,43; 7911,819;  161,780;27137,636;28,72954
 340,02; 7975,987;  174,550;27034,345;29,04504
 340,61; 8044,340;  156,935;27081,655;29,29429
 341,21; 8163,788;  207,165;27127,136;29,55658
 341,80; 8204,553;  167,858;27089,021;29,85270
 342,40; 8253,449;  173,243;27183,858;29,91493
 342,99; 8431,720;  173,858;27301,771;30,44046
 343,58; 8588,870;  174,550;27407,135;30,89798
 344,18; 8700,662;  180,397;27534,054;31,14854
 344,77; 8883,562;  167,934;27938,512;31,38439
 345,36; 9083,892;  156,012;28227,505;31,80408
 345,96; 9332,666;  186,320;28591,921;32,19909
 346,55; 9446,897;  163,320;28765,731;32,45732
 347,14; 9699,182;  150,858;29104,307;32,97819
 347,74; 9979,572;  142,859;29570,951;33,42627
 348,33;10309,056;  173,782;30201,656;33,75288
 348,92;10600,074;  181,705;30830,675;33,99256
 349,52;10878,119;  156,475;31299,084;34,42757
 350,11;11069,539;  164,934;31503,823;34,79576
 350,70;11209,146;  166,627;31565,591;35,16842
 351,29;11300,869;  162,933;31400,551;35,65552
 351,89;11425,756;  181,472;31358,164;36,06631
 352,48;11542,643;  152,781;31379,912;36,47425
 353,07;11632,621;  170,397;31238,987;36,89329
 353,67;11803,649;  189,552;31219,948;37,42813
 354,26;11835,119;  174,397;31035,354;37,78471
 354,85;11902,304;  171,704;30735,640;38,38053
 355,45;11944,811;  157,781;30675,316;38,62379
 356,04;12034,721;  168,320;30625,906;38,96041
 356,63;12066,218;  194,781;30333,526;39,38929
 357,22;12134,615;  178,318;30260,522;39,74542
 357,82;12223,778;  190,780;30082,839;40,25483
 358,41;12320,480;  188,781;29928,010;40,79359
 359,00;12328,910;  172,473;29705,068;41,16278
 359,60;12487,734;  186,243;29656,681;41,74180
 360,19;12520,567;  184,935;29499,090;42,08080
 360,78;12605,992;  175,550;29240,517;42,76778
 361,37;12618,892;  169,473;29133,628;42,98216
 361,97;12700,241;  174,627;29018,138;43,42611
 362,56;12621,009;  161,088;28693,973;43,66864
 363,15;12702,177;  205,396;28486,786;44,18729
 363,74;12589,371;  166,857;28089,840;44,48849
 364,34;12556,534;  180,396;27703,756;44,96594
 364,93;12492,037;  156,626;27300,575;45,44442
 365,52;12410,937;  151,781;26868,590;45,88556
 366,11;12293,770;  167,704;26571,115;45,92613
 366,71;12289,168;  165,550;26184,315;46,59567
 367,30;12210,403;  174,319;25850,334;46,87676
 367,89;12246,698;  204,012;25716,866;47,20243
 368,48;12206,557;  185,396;25321,601;47,82409
 369,07;12028,453;  179,396;24872,053;47,98616
 369,67;11936,186;  194,703;24613,370;48,08404
 370,26;11937,716;  164,319;24353,198;48,67277
 370,85;11870,462;  175,473;24095,389;48,89227
 371,44;11860,236;  176,088;23840,471;49,37440
 372,03;11801,625;  151,780;23549,187;49,79118
 372,63;11708,498;  144,627;23282,740;49,97759
 373,22;11660,304;  169,012;22976,843;50,38310
 373,81;11602,449;  157,011;22684,188;50,80724
 374,40;11554,553;  164,858;22480,076;51,04003
 374,99;11476,725;  161,781;22210,782;51,31726
 375,59;11379,454;  159,781;21936,080;51,52240
 376,18;11413,847;  191,858;21756,744;52,03825
 376,77;11389,476;  185,858;21535,420;52,47704
 377,36;11380,114;  196,781;21526,787;52,43005
 377,95;11305,661;  179,319;21289,692;52,70557
 378,55;11278,915;  159,320;21111,250;53,07194
 379,14;11253,100;  180,627;20965,432;53,27196
 379,73;11295,539;  179,319;20953,453;53,50991
 380,32;11337,485;  185,396;20940,031;53,73300
 380,91;11336,322;  169,473;20815,426;54,08735
 381,50;11333,371;  185,627;20802,238;54,07166
 382,10;11335,100;  168,089;20598,415;54,65900
 382,69;11321,598;  152,319;20565,906;54,71492
 383,28;11380,000;  193,627;20570,546;54,89728
 383,87;11287,666;  166,780;20416,760;54,91801
 384,46;11311,670;  154,857;20365,570;55,20247
 385,05;11375,666;  189,550;20403,037;55,33986
 385,64;11385,231;  159,242;20407,576;55,44154
 386,24;11388,946;  153,780;20326,347;55,69527
 386,83;11491,765;  195,472;20434,684;55,81389
 387,42;11551,186;  193,396;20531,183;55,84575
 388,01;11737,832;  173,318;20707,785;56,31758
 388,60;11900,697;  174,857;20882,232;56,62639
 389,19;12056,244;  148,779;21179,223;56,62013
 389,78;12197,194;  158,933;21399,147;56,67674
 390,37;12554,090;  218,010;21923,000;56,83523
 390,96;12646,312;  177,703;21992,095;57,15772
 391,56;12716,705;  178,471;22222,132;56,87909
 392,15;12888,651;  166,856;22451,233;57,08840
 392,74;12954,501;  137,163;22602,095;57,05487
 393,33;13227,112;  165,086;22937,837;57,35814
 393,92;13500,333;  182,624;23340,175;57,50915
 394,51;13660,710;  154,856;23532,431;57,77269
 395,10;13827,686;  196,161;23799,208;57,75324
 395,69;13898,541;  183,238;23859,141;57,92938
 396,28;13951,857;  179,930;24003,788;57,80729
 396,87;14041,947;  185,698;24106,506;57,92551
 397,46;14131,671;  187,082;24267,319;57,90885
 398,06;14245,770;  196,158;24457,662;57,90907
 398,65;14275,759;  181,311;24429,499;58,12578
 399,24;14469,723;  195,156;24635,459;58,40585
 399,83;14399,459;  159,846;24668,156;58,10116
 400,42;14492,235;  209,151;24840,145;57,98826
 401,01;14613,455;  177,917;24927,239;58,32700
 401,60;14620,819;  200,529;24993,593;58,16260
 402,19;14557,070;  205,911;24794,712;58,36462
 402,78;14612,438;  203,214;24936,973;58,25732
 403,37;14502,973;  195,209;24678,939;58,43784
 403,96;14431,499;  182,204;24613,057;58,32500
 404,55;14341,726;  188,198;24449,022;58,33903
 405,14;14235,252;  192,270;24342,339;58,14883
 405,73;14210,542;  205,956;24282,307;58,16739
 406,32;14195,498;  204,336;24197,053;58,31420
 406,91;14027,341;  198,716;23854,300;58,45818
 407,50;13995,629;  182,637;23730,657;58,65883
 408,09;13819,623;  171,404;23428,345;58,68450
 408,68;13706,432;  198,480;23218,852;58,67825
 409,27;13555,637;  173,712;23079,496;58,42160
 409,86;13437,305;  182,331;22935,458;58,25561
 410,45;13458,103;  212,181;22859,844;58,48693
 411,04;13392,508;  219,645;22790,649;58,36188
 411,63;13226,176;  193,803;22535,929;58,33094
 412,22;13007,079;  196,730;22251,126;58,08524
 412,81;12862,791;  209,578;21999,350;58,06950
 413,40;12635,959;  210,349;21628,426;58,01459
 413,99;12455,434;  241,425;21414,048;57,68775
 414,58;12215,470;  185,964;20959,934;57,90663
 415,17;12050,230;  187,886;20722,461;57,76766
 415,76;11968,613;  191,499;20613,014;57,67013
 416,35;11859,777;  178,731;20458,633;57,59912
 416,94;11849,120;  216,807;20504,127;57,33785
 417,53;11926,370;  182,116;20743,475;57,11808
 418,12;12007,714;  182,963;20812,130;57,32055
 418,71;12162,534;  197,349;21237,931;56,86718
 419,30;12203,551;  192,809;21266,041;56,99525
 419,89;12318,040;  189,579;21507,440;56,89343
 420,48;12464,140;  207,503;21793,397;56,78077
 421,07;12507,050;  208,041;21857,039;56,81098
 421,66;12429,851;  170,888;21773,423;56,74780
 422,25;12396,649;  178,505;21775,810;56,57254
 422,84;12404,871;  227,275;21774,119;56,51684
 423,43;12228,486;  192,813;21469,018;56,56870
 424,02;12028,472;  215,967;21168,507;56,37744
 424,60;11741,967;  189,507;20824,096;55,98590
 425,19;11597,573;  203,045;20477,464;56,20150
 425,78;11533,876;  209,814;20391,473;56,11066
 426,37;11374,184;  207,968;20246,882;55,72266
 426,96;11276,315;  199,045;20218,916;55,33138
 427,55;11176,126;  192,585;19960,493;55,56248
 428,14;11029,339;  191,124;19793,329;55,29080
 428,73;10924,963;  205,354;19583,055;55,31930
 429,32;10846,098;  211,122;19584,749;54,89409
 429,91;10850,845;  233,892;19529,175;55,02357
 430,50;10781,664;  218,662;19366,276;55,16615
 431,08;10630,380;  230,432;19301,206;54,53343
 431,67;10637,819;  264,740;19215,174;54,73795
 432,26;10404,521;  273,971;18971,642;54,18081
 432,85;10241,104;  291,586;18493,128;54,66305
 433,44;10042,575;  295,587;18235,717;54,33064
 434,03; 9753,535;  302,357;17860,136;53,82901
 434,62; 9546,471;  266,126;17454,038;53,99344
 435,21; 9386,353;  289,663;17279,103;53,54320
 435,79; 9306,870;  269,126;17147,510;53,54626
 436,38; 9221,812;  274,742;17013,446;53,45139
 436,97; 9131,237;  269,666;16897,955;53,29214
 437,56; 9056,202;  268,744;16698,406;53,48532
 438,15; 8919,278;  246,897;16649,840;52,87089
 438,74; 8951,052;  260,513;16620,721;53,11998
 439,33; 8933,179;  238,359;16702,690;52,81004
 439,91; 8877,505;  210,667;16714,475;52,51417
 440,50; 8944,442;  250,052;16805,245;52,51760
 441,09; 8942,840;  256,130;16853,992;52,33632
 441,68; 8931,900;  238,977;16900,162;52,17470
 442,27; 8855,044;  214,130;16875,370;51,86237
 442,86; 8859,828;  203,132;16871,062;51,93624
 443,44; 8861,240;  209,670;16929,052;51,74575
 444,03; 8891,887;  269,670;16947,455;51,69881
 444,62; 8792,489;  212,901;16741,408;51,90782
 445,21; 8666,136;  230,285;16662,740;51,33652
 445,80; 8660,585;  246,133;16529,484;51,67519
 446,39; 8498,562;  270,748;16293,581;51,35056
 446,97; 8326,024;  216,441;16023,894;51,30228
 447,56; 8169,427;  201,980;15930,231;50,65692
 448,15; 8058,418;  210,595;15658,197;50,80285
 448,74; 7965,658;  232,057;15404,330;50,97193
 449,33; 7824,703;  223,134;15306,025;50,39862
 449,91; 7737,405;  209,904;15043,812;50,74523
 450,50; 7576,441;  210,596;14809,734;50,45397
 451,09; 7558,260;  228,212;14737,085;50,52114
 451,68; 7435,433;  245,520;14670,903;49,84209
 452,26; 7355,637;  231,674;14547,251;49,76371
 452,85; 7285,673;  223,059;14474,527;49,55710
 453,44; 7278,556;  233,598;14477,789;49,45846
 454,03; 7234,745;  208,751;14409,440;49,47643
 454,61; 7187,434;  194,368;14394,196;49,24754
 455,20; 7273,434;  242,753;14645,484;48,81492
 455,79; 7226,940;  233,829;14545,669;48,86242
 456,38; 7300,977;  240,753;14664,252;48,94946
 456,97; 7273,023;  215,138;14693,862;48,74659
 457,55; 7272,996;  219,369;14753,117;48,53274
 458,14; 7238,615;  243,907;14678,960;48,45641
 458,73; 7218,181;  227,292;14572,523;48,73319
 459,31; 7197,268;  261,908;14695,757;48,04927
 459,90; 7230,358;  266,062;14768,901;48,02023
 460,49; 7302,679;  291,600;14853,519;48,14667
 461,08; 7273,721;  212,986;14904,789;48,05901
 461,66; 7283,824;  223,370;14996,133;47,79373
 462,25; 7330,191;  218,294;15105,889;47,77063
 462,84; 7337,368;  250,909;15144,195;47,58157
 463,43; 7253,282;  192,910;15112,974;47,32133
 464,01; 7272,156;  227,295;15124,710;47,28915
 464,60; 7254,246;  262,910;15008,810;47,41207
 465,19; 7050,473;  206,372;14735,058;47,10750
 465,77; 7056,600;  231,219;14816,098;46,79765
 466,36; 7011,911;  234,602;14635,482;47,06177
 466,95; 6866,368;  213,910;14334,107;47,11307
 467,53; 6702,469;  225,373;13996,613;47,03350
 468,12; 6536,917;  251,681;13737,703;46,60556
 468,71; 6440,070;  222,372;13525,250;46,73950
 469,29; 6281,247;  218,142;13284,806;46,40132
 469,88; 6139,166;  216,912;13029,244;46,22308
 470,47; 6176,330;  273,451;13158,601;45,81148
 471,06; 6153,017;  229,990;13148,888;45,84778
 471,64; 6178,691;  234,066;13269,622;45,60316
 472,23; 6145,290;  203,529;13264,171;45,49363
 472,81; 6183,710;  211,144;13426,775;45,19320
 473,40; 6221,091;  215,298;13491,086;45,23869
 473,99; 6351,118;  295,299;13668,872;45,28198
 474,57; 6349,941;  215,529;13761,338;45,28642
 475,16; 6401,434;  223,221;14021,827;44,77418
 475,75; 6468,376;  241,222;14083,900;44,98518
 476,33; 6476,241;  252,992;14178,270;44,69030
 476,92; 6486,810;  237,683;14238,856;44,63288
 477,51; 6496,648;  238,069;14284,269;44,55710
 478,09; 6468,779;  239,376;14291,303;44,33131
 478,68; 6438,250;  255,530;14172,497;44,42577
 479,27; 6478,358;  267,145;14274,601;44,34219
 479,85; 6428,191;  240,223;14264,334;44,12378
 480,44; 6481,865;  224,684;14440,310;44,01622
 481,02; 7075,200;  238,685;16174,261;42,90096
 481,61; 7961,680;  268,531;18120,700;43,09364
 482,20; 8484,422;  251,608;19269,034;43,29090
 482,78; 8820,535;  266,069;20038,514;43,26458
 483,37; 9035,622;  275,147;20557,589;43,19241
 483,95; 9193,884;  289,917;20826,718;43,35616
 484,54; 9245,033;  306,300;20939,986;43,32107
 485,13; 9169,735;  269,840;20848,071;43,24908
 485,71; 9083,034;  258,302;20600,108;43,38224
 486,30; 8958,396;  292,225;20289,066;43,33770
 486,88; 8787,265;  318,148;19848,199;43,36454
 487,47; 8448,672;  301,840;19068,101;43,41212
 488,05; 8030,206;  290,302;18135,509;43,37245
 488,64; 7441,021;  296,149;16826,665;43,22232
 489,23; 6585,944;  299,533;14648,069;43,81221
 489,81; 5662,994;  292,533;12727,450;43,18855
 490,40; 5355,763;  262,918;12174,203;42,75647
 490,98; 5215,560;  241,687;12001,033;42,29718
 491,57; 5181,166;  267,610;11920,719;42,16519
 492,15; 5141,094;  240,841;11848,427;42,21595
 492,74; 5090,333;  248,302;11756,522;42,07454
 493,32; 5050,446;  269,380;11664,759;41,95619
 493,91; 4958,578;  247,611;11538,005;41,72544
 494,50; 4921,153;  253,920;11551,377;41,31225
 495,08; 4882,040;  237,920;11464,411;41,36752
 495,67; 4855,623;  258,534;11410,599;41,22187
 496,25; 4804,836;  202,535;11338,494;41,32829
 496,84; 4776,754;  218,688;11293,372;41,15753
 497,42; 4783,456;  205,227;11275,329;41,35671
 498,01; 4744,872;  235,380;11233,343;41,00298
 498,59; 4686,180;  206,919;11143,273;40,95753
 499,18; 4634,438;  202,457;11113,159;40,62049
 499,76; 4625,058;  221,611;11029,806;40,74174
 500,35; 4554,452;  213,612;10794,348;41,02588
 500,93; 4508,153;  209,996;10775,504;40,68103
 501,52; 4447,266;  206,535;10692,500;40,44198
 502,10; 4454,566;  218,536;10608,342;40,77102
 502,69; 4326,462;  212,459;10452,275;40,17653
 503,27; 4236,380;  189,766;10305,740;40,00221
 503,86; 4210,647;  203,305;10219,637;40,00808
 504,44; 4156,335;  181,152;10105,382;40,05533
 505,03; 4020,733;  184,305; 9814,353;39,83810
 505,61; 3965,561;  193,151; 9686,655;39,73675
 506,19; 3929,227;  210,152; 9553,006;39,80662
 506,78; 3815,286;  181,152; 9330,300;39,72101
 507,36; 3728,132;  190,305; 9200,216;39,26594
 507,95; 3668,716;  197,383; 9079,567;39,08197
 508,53; 3622,512;  188,998; 8945,710;39,21008
 509,12; 3586,191;  198,845; 8786,400;39,44483
 509,70; 3491,793;  214,230; 8617,135;39,00512
 510,29; 3434,513;  226,922; 8521,180;38,67242
 510,87; 3335,331;  190,614; 8322,616;38,67088
 511,46; 3282,557;  194,614; 8135,117;38,88851
 512,04; 3201,372;  195,922; 8010,260;38,46071
 512,62; 3157,843;  201,076; 7840,767;38,70270
 513,21; 3069,431;  175,845; 7675,851;38,58112
 513,79; 2997,382;  196,231; 7565,749;38,00996
 514,38; 2951,631;  184,385; 7423,098;38,22843
 514,96; 2915,436;  215,769; 7305,234;38,07998
 515,54; 2832,862;  176,693; 7155,496;38,06052
 516,13; 2795,866;  209,616; 7052,501;37,79474
 516,71; 2743,315;  194,693; 6922,234;37,88341
 517,30; 2677,686;  187,078; 6804,706;37,63596
 517,88; 2643,794;  212,770; 6736,359;37,26513
 518,46; 2590,763;  178,540; 6619,488;37,45136
 519,05; 2569,962;  190,156; 6566,140;37,32454
 519,63; 2540,835;  196,309; 6533,682;36,99524
 520,22; 2477,705;  211,541; 6472,086;36,19755
 520,80; 2442,117;  200,541; 6413,441;36,07938
 521,38; 2482,053;  221,156; 6378,678;36,71764
 521,97; 2406,162;  184,464; 6303,939;36,30537
 522,55; 2395,660;  200,772; 6314,105;35,90329
 523,13; 2369,280;  181,541; 6333,124;35,56383
 523,72; 2380,718;  197,540; 6271,219;35,94490
 524,30; 2419,076;  211,542; 6450,215;35,38468
 524,89; 2392,728;  180,772; 6416,601;35,47172
 525,47; 2407,095;  202,696; 6547,297;34,74449
 526,05; 2423,574;  171,619; 6550,887;35,30116
 526,64; 2447,823;  203,773; 6701,691;34,53491
 527,22; 2469,411;  202,157; 6795,446;34,38730
 527,80; 2526,660;  233,234; 6919,050;34,30286
 528,39; 2526,923;  192,081; 7006,777;34,26187
 528,97; 2572,520;  202,388; 7150,926;34,10979
 529,55; 2624,615;  209,926; 7310,064;34,00904
 530,14; 2676,412;  215,081; 7543,808;33,58470
 530,72; 2679,190;  196,927; 7637,114;33,36291
 531,30; 2712,747;  183,004; 7742,240;33,46559
 531,89; 2726,489;  198,389; 7837,915;33,09237
 532,47; 2758,629;  227,620; 7895,267;33,00895
 533,05; 2776,375;  230,157; 7966,554;32,91220
 533,63; 2782,303;  228,312; 8043,921;32,67809
 534,22; 2759,267;  198,004; 8116,293;32,34617
 534,80; 2808,399;  219,774; 8110,030;32,80787
 535,38; 2872,199;  296,004; 8220,505;32,50924
 535,97; 2774,480;  223,697; 8181,626;32,05336
 536,55; 2810,517;  257,313; 8293,586;31,77099
 537,13; 2784,661;  265,312; 8221,060;31,66703
 537,71; 2813,480;  304,389; 8292,475;31,41042
 538,30; 2825,114;  324,928; 8378,768;31,04340
 538,88; 2826,494;  358,005; 8484,878;30,37440
 539,46; 2900,050;  402,313; 8679,350;30,17671
 540,05; 2911,996;  415,236; 8811,236;29,73750
 540,63; 2945,553;  474,313; 9016,258;28,93065
 541,21; 3012,490;  497,313; 9124,994;29,15241
 541,79; 3027,540;  543,852; 9286,054;28,41032
 542,38; 3081,508;  566,313; 9436,804;28,35463
 542,96; 3131,793;  586,621; 9648,923;28,08527
 543,54; 3169,399;  585,544; 9774,071;28,12045
 544,12; 3184,969;  554,544; 9925,738;28,06927
 544,70; 3188,418;  541,852;10034,565;27,87997
 545,29; 3244,575;  552,928;10167,424;27,99572
 545,87; 3243,309;  520,775;10175,823;28,19804
 546,45; 3187,385;  469,543;10213,458;27,89271
 547,03; 3233,530;  460,313;10338,275;28,07479
 547,62; 3247,295;  440,159;10371,653;28,26499
 548,20; 3295,549;  429,621;10649,692;28,04215
 548,78; 3291,726;  392,545;10726,633;28,05454
 549,36; 3330,423;  360,391;10947,316;28,05377
 549,94; 3339,427;  322,929;11006,747;28,23427
 550,53; 3385,169;  324,622;11243,183;28,03068
 551,11; 3372,088;  301,699;11440,296;27,56531
 551,69; 3439,776;  316,314;11775,094;27,25824
 552,27; 3471,852;  258,468;12019,913;27,32134
 552,85; 3559,495;  273,776;12331,800;27,24923
 553,44; 3650,015;  266,084;12661,243;27,30043
 554,02; 3708,038;  283,699;13009,915;26,90776
 554,60; 3720,102;  228,699;13317,373;26,67499
 555,18; 3830,857;  264,391;13670,068;26,60415
 555,76; 3881,129;  237,545;13982,808;26,50792
 556,34; 3965,785;  247,930;14373,251;26,32050
 556,93; 4034,762;  235,545;14761,461;26,15475
 557,51; 4050,251;  214,238;15113,995;25,74548
 558,09; 4155,952;  248,699;15461,243;25,68442
 558,67; 4240,292;  246,931;15807,594;25,66318
 559,25; 4289,509;  245,623;16052,149;25,58365
 559,83; 4328,410;  225,470;16360,625;25,42858
 560,41; 4385,912;  229,007;16748,020;25,16436
 561,00; 4454,396;  232,315;17058,150;25,09285
 561,58; 4465,007;  228,469;17273,626;24,85479
 562,16; 4522,898;  220,930;17603,283;24,74905
 562,74; 4586,156;  205,545;17974,133;24,65368
 563,32; 4645,586;  193,854;18466,437;24,36291
 563,90; 4741,998;  226,931;18797,564;24,31294
 564,48; 4785,269;  234,392;19240,173;23,94470
 565,06; 4920,138;  222,085;19811,180;23,98301
 565,65; 5035,089;  222,470;20536,897;23,69065
 566,23; 5214,899;  270,469;21375,060;23,42822
 566,81; 5311,070;  223,777;21991,961;23,37032
 567,39; 5513,627;  236,700;22887,870;23,29649
 567,97; 5635,102;  238,238;23568,060;23,13290
 568,55; 5833,170;  248,085;24331,907;23,19019
 569,13; 5889,211;  219,931;25091,035;22,79465
 569,71; 6075,305;  221,545;26028,403;22,68296
 570,29; 6298,387;  258,468;26992,073;22,59298
 570,87; 6430,554;  253,161;27666,210;22,53450
 571,45; 6493,337;  249,931;28319,910;22,24229
 572,03; 6526,342;  213,008;28803,973;22,08157
 572,61; 6657,179;  209,008;29491,672;22,02044
 573,20; 6797,283;  237,392;30208,755;21,88720
 573,78; 6868,831;  222,008;30773,869;21,75587
 574,36; 6936,867;  242,777;31246,514;21,59124
 574,94; 7007,057;  284,316;31638,691;21,44116
 575,52; 6956,130;  237,163;31890,279;21,22687
 576,10; 7083,999;  301,316;32476,509;21,08047
 576,68; 7125,686;  280,393;33059,293;20,88323
 577,26; 7253,854;  290,778;33663,469;20,86459
 577,84; 7284,967;  299,392;34257,356;20,57124
 578,42; 7356,646;  337,470;34447,841;20,57783
 579,00; 7239,229;  296,623;34622,839;20,22537
 579,58; 7244,741;  321,470;34793,157;20,08393
 580,16; 7155,858;  302,470;34834,726;19,84634
 580,74; 7120,818;  314,316;34963,385;19,64411
 581,32; 7071,501;  297,778;35007,191;19,51552
 581,90; 7004,867;  325,624;35003,337;19,26091
 582,48; 6982,410;  324,009;35042,081;19,17849
 583,06; 6939,451;  329,701;35222,640;18,94295
 583,64; 6916,953;  313,931;35325,674;18,85945
 584,22; 6749,605;  323,701;35070,002;18,49378
 584,80; 6654,650;  335,393;34670,124;18,40485
 585,38; 6536,894;  333,007;34418,597;18,20091
 585,96; 6487,365;  316,316;34450,724;18,07868
 586,54; 6462,786;  330,470;34470,574;17,96221
 587,12; 6352,058;  295,086;34696,133;17,60694
 587,70; 6360,324;  331,162;34753,613;17,51520
 588,28; 6302,465;  318,470;34764,330;17,37217
 588,86; 6316,352;  315,701;34867,916;17,36691
 589,44; 6197,687;  292,163;34889,572;17,06927
 590,02; 6196,483;  309,548;35182,730;16,88098
 590,59; 6194,641;  279,547;35275,416;16,90226
 591,17; 6151,484;  284,241;35504,999;16,65848
 591,75; 6114,524;  279,317;35586,313;16,52706
 592,33; 6121,882;  293,086;35815,051;16,40899
 592,91; 6094,153;  252,779;35952,788;16,36239
 593,49; 6070,837;  259,472;36396,482;16,08148
 594,07; 6131,231;  273,010;36539,862;16,15310
 594,65; 6078,402;  278,932;36458,604;16,02964
 595,23; 6018,388;  267,163;36971,785;15,66894
 595,81; 6032,321;  264,933;37058,179;15,67513
 596,39; 6003,099;  259,009;37120,051;15,58309
 596,97; 6002,280;  260,856;37369,541;15,47191
 597,55; 5894,872;  251,163;37243,691;15,25635
 598,12; 5845,769;  243,626;37252,491;15,13730
 598,70; 5825,525;  238,395;37384,802;15,04084
 599,28; 5838,488;  252,702;37532,327;14,98348
 599,86; 5776,466;  251,087;37624,562;14,78423
 600,44; 5712,914;  218,164;37634,990;14,68524
 601,02; 5775,299;  261,473;37607,537;14,76414
 601,60; 5666,900;  249,010;37692,240;14,46961
 602,18; 5662,375;  227,087;37760,235;14,48130
 602,75; 5613,900;  228,086;37816,367;14,32844
 603,33; 5540,516;  244,856;37813,806;14,09584
 603,91; 5527,724;  228,472;37735,988;14,12851
 604,49; 5527,099;  255,549;37919,537;13,99626
 605,07; 5468,316;  258,087;37892,202;13,84443
 605,65; 5408,660;  263,087;37828,516;13,69763
 606,23; 5450,266;  345,009;38089,766;13,52574
 606,80; 5387,257;  375,394;38053,273;13,30187
 607,38; 5365,561;  420,088;38173,625;13,09936
 607,96; 5361,651;  460,856;38192,653;12,98850
 608,54; 5332,864;  528,318;38274,038;12,72872
 609,12; 5286,452;  537,702;38322,952;12,56773
 609,70; 5270,896;  574,087;38394,109;12,41884
 610,27; 5241,483;  572,471;38341,038;12,36216
 610,85; 5228,760;  583,010;38466,100;12,26339
 611,43; 5159,588;  580,549;38473,524;12,08414
 612,01; 5093,968;  557,010;38197,877;12,05328
 612,59; 5040,805;  540,164;38279,216;11,92569
 613,16; 4995,786;  514,163;38255,019;11,87473
 613,74; 4978,249;  475,933;38005,563;11,99670
 614,32; 4928,742;  446,318;38048,722;11,92058
 614,90; 4898,764;  421,779;37967,523;11,92408
 615,48; 4818,501;  369,471;37642,276;11,93640
 616,05; 4730,411;  333,624;37708,292;11,76408
 616,63; 4693,012;  337,778;37300,539;11,78276
 617,21; 4678,854;  335,855;37342,529;11,73572
 617,79; 4642,769;  325,471;37239,624;11,69551
 618,36; 4601,597;  323,779;37037,877;11,65170
 618,94; 4487,348;  255,394;36831,614;11,57023
 619,52; 4468,144;  285,701;36580,373;11,52357
 620,10; 4427,443;  280,009;36601,034;11,41882
 620,67; 4401,284;  278,547;36485,988;11,38643
 621,25; 4373,579;  311,010;36332,193;11,27828
 621,83; 4332,746;  285,086;36254,353;11,25311
 622,41; 4327,841;  323,471;36257,268;11,14374
 622,98; 4297,406;  299,778;36033,766;11,18719
 623,56; 4234,478;  295,086;35950,300;11,04857
 624,14; 4205,886;  271,164;35808,053;11,07222
 624,72; 4189,153;  283,086;35743,165;11,01539
 625,29; 4173,365;  268,624;35732,595;11,01045
 625,87; 4164,180;  308,010;35786,641;10,86900
 626,45; 4039,148;  265,624;35596,350;10,68057
 627,02; 4066,895;  263,010;35574,791;10,77228
 627,60; 4018,923;  258,626;35490,755;10,67292
 628,18; 3990,298;  244,240;35594,183;10,59707
 628,76; 4005,135;  259,547;35594,347;10,60028
 629,33; 3980,058;  269,317;35636,853;10,49194
 629,91; 3979,366;  256,009;35550,649;10,54935
 630,49; 3989,189;  277,471;35666,134;10,48844
 631,06; 3978,954;  271,317;35835,899;10,42508
 631,64; 3956,338;  264,855;35698,240;10,41809
 632,22; 3915,899;  239,239;35773,392;10,34683
 632,79; 3943,709;  258,470;36012,918;10,30708
 633,37; 3940,895;  234,471;36065,005;10,34432
 633,95; 3951,053;  257,547;36057,791;10,31699
 634,52; 3907,700;  224,702;36271,469;10,21728
 635,10; 3949,968;  223,625;36225,572;10,35039
 635,68; 3961,528;  239,470;36398,362;10,29362
 636,25; 3923,460;  225,931;36481,485;10,19852
 636,83; 3918,288;  212,240;36640,886;10,17345
 637,41; 3938,659;  215,701;36642,490;10,22039
 637,98; 3967,727;  249,162;36838,310;10,16303
 638,56; 3930,202;  245,085;37009,638;10,02356
 639,13; 3927,053;  224,470;37001,112;10,06776
 639,71; 4021,022;  269,394;37268,903;10,13967
 640,29; 3900,031;  200,394;37032,628;10,04456
 640,86; 3959,033;  214,086;37229,056;10,11739
 641,44; 3913,420;  222,317;37145,176; 9,99680
 642,02; 3928,037;  238,471;37227,218; 9,97484
 642,59; 3918,270;  210,163;37250,569;10,01098
 643,17; 3912,734;  216,624;37360,919; 9,95068
 643,74; 3911,043;  213,317;37234,731; 9,98808
 644,32; 3914,276;  251,548;37263,082; 9,89618
 644,89; 3937,432;  233,086;37256,971;10,00529
 645,47; 3897,511;  262,317;37298,860; 9,81516
 646,05; 3881,667;  226,009;37154,057; 9,89941
 646,62; 3881,669;  230,855;37231,484; 9,86690
 647,20; 3879,748;  238,932;37420,758; 9,79192
 647,77; 3846,750;  210,009;37197,954; 9,83223
 648,35; 3837,368;  213,086;37083,689; 9,82973
 648,92; 3865,370;  241,009;37129,425; 9,82520
 649,50; 3823,526;  203,778;37099,929; 9,81064
 650,08; 3834,759;  198,317;37006,356; 9,87948
 650,65; 3855,914;  201,471;37262,092; 9,86072
 651,23; 3933,993;  207,548;38161,904; 9,81823
 651,80; 4042,380;  209,779;39002,254; 9,87976
 652,38; 4118,459;  215,394;39431,451; 9,95272
 652,95; 4156,000;  196,932;39754,571;10,00835
 653,53; 4175,925;  219,702;39976,998; 9,95094
 654,10; 4256,927;  243,932;40173,964;10,05007
 654,68; 4187,467;  211,086;40104,007; 9,96764
 655,25; 4196,777;  201,702;40172,896; 9,99489
 655,83; 4231,395;  206,394;40271,246;10,04621
 656,40; 4255,627;  227,394;40136,674;10,09348
 656,98; 4249,630;  207,471;40074,255;10,13916
 657,55; 4224,709;  212,702;39932,682;10,10073
 658,13; 4174,711;  201,702;39496,571;10,11076
 658,70; 4176,943;  232,086;39202,922;10,12259
 659,28; 4041,407;  222,010;38260,888;10,04077
 659,85; 3967,794;  218,856;37545,777;10,04352
 660,43; 4002,873;  228,856;37693,743;10,07348
 661,00; 4015,106;  211,856;37842,786;10,10671
 661,58; 4060,646;  199,856;38096,290;10,18774
 662,15; 4089,110;  195,548;38274,641;10,22493
 662,73; 4181,496;  255,779;38669,760;10,21950
 663,30; 4176,114;  216,087;38896,649;10,23777
 663,88; 4198,270;  216,779;39132,077;10,23117
 664,45; 4231,041;  207,702;39339,350;10,28155
 665,03; 4298,197;  216,010;39734,162;10,32990
 665,60; 4398,199;  273,933;40079,436;10,36105
 666,17; 4342,893;  218,164;40213,633;10,31299
 666,75; 4399,896;  210,010;40594,291;10,37504
 667,32; 4463,128;  226,548;40927,949;10,40893
 667,90; 4511,977;  213,471;41280,069;10,46716
 668,47; 4569,671;  229,625;41381,727;10,54635
 669,05; 4581,135;  208,087;41795,539;10,51531
 669,62; 4604,521;  185,395;41861,736;10,60344
 670,19; 4609,216;  204,087;41920,856;10,55961
 670,77; 4696,602;  216,241;42237,283;10,66219
 671,34; 4704,912;  204,856;42056,634;10,75237
 671,92; 4699,760;  201,856;42458,907;10,64415
 672,49; 4752,070;  232,010;42329,565;10,73711
 673,06; 4744,688;  171,472;42392,685;10,83156
 673,64; 4775,459;  187,625;42370,959;10,87594
 674,21; 4766,230;  191,087;42297,848;10,86558
 674,79; 4833,694;  211,241;42510,506;10,92797
 675,36; 4873,004;  224,626;42634,395;10,96063
 675,93; 4846,929;  185,395;42558,822;11,00108
 676,51; 4881,469;  231,472;42655,250;10,96083
 677,08; 4955,933;  211,856;42699,062;11,16589
 677,65; 4974,704;  204,933;42771,259;11,20550
 678,23; 4956,937;  209,395;43135,224;11,05987
 678,80; 5056,324;  195,780;43281,960;11,28098
 679,38; 5057,480;  207,933;43472,695;11,20900
 679,95; 5133,405;  217,626;43720,276;11,29995
 680,52; 5180,253;  206,318;43988,780;11,36056
 681,10; 5210,870;  218,472;44433,439;11,29120
 681,67; 5304,411;  219,164;44791,097;11,40908
 682,24; 5312,413;  191,857;44849,909;11,46614
 682,82; 5431,646;  199,626;45425,798;11,56857
 683,39; 5511,956;  238,857;45725,302;11,59268
 683,96; 5535,881;  202,780;45906,730;11,66880
 684,54; 5595,498;  195,395;46337,080;11,70331
 685,11; 5698,808;  224,318;46704,200;11,77819
 685,68; 5770,425;  214,087;47093,627;11,85237
 686,25; 5816,581;  195,857;47210,209;11,95534
 686,83; 5874,045;  202,857;47313,175;12,03810
 687,40; 5965,124;  189,241;47709,294;12,15462
 687,97; 6029,434;  227,241;48147,183;12,10810
 688,55; 6057,282;  191,472;48144,688;12,23236
 689,12; 6096,284;  186,318;48370,731;12,26531
 689,69; 6158,594;  179,780;48471,696;12,38057
 690,26; 6192,750;  210,395;48612,355;12,35974
 690,84; 6248,675;  194,934;48750,474;12,46766
 691,41; 6312,908;  207,703;48757,671;12,57510
 691,98; 6371,064;  211,703;49097,099;12,59959
 692,56; 6427,604;  184,472;49191,141;12,73935
 693,13; 6481,145;  249,549;49151,953;12,74292
 693,70; 6508,685;  224,934;49352,304;12,79073
 694,27; 6503,918;  206,549;49474,193;12,78196
 694,84; 6556,536;  199,780;49548,005;12,88143
 695,42; 6663,538;  233,703;49732,125;12,98998
 695,99; 6678,540;  217,472;49894,398;13,00617
 696,56; 6717,465;  192,396;49755,595;13,16515
 697,13; 6837,928;  209,549;50070,792;13,29365
 697,71; 6829,777;  186,934;50102,065;13,30827
 698,28; 6920,471;  199,242;50599,416;13,33573
 698,85; 6951,088;  166,088;50532,536;13,47127
 699,42; 6979,475;  185,549;50656,348;13,46110
 699,99; 7080,862;  218,626;50743,006;13,58203
 700,57; 7118,479;  206,857;50905,049;13,63288
 701,14; 7121,712;  192,396;51031,092;13,63000
 701,71; 7249,253;  219,319;51123,596;13,81010
 702,28; 7258,562;  203,703;51221,716;13,82817
 702,85; 7290,641;  208,242;51270,682;13,87008
 703,43; 7364,720;  222,396;51474,417;13,93569
 704,00; 7472,569;  230,627;51701,844;14,06989
 704,57; 7491,109;  214,165;51713,964;14,13004
 705,14; 7557,496;  242,242;52035,391;14,12398
 705,71; 7602,575;  248,396;51984,357;14,21483
 706,28; 7598,038;  217,011;51819,246;14,30370
 706,86; 7704,656;  240,627;52259,212;14,34877
 707,43; 7775,350;  266,165;52100,947;14,48677
 708,00; 7776,122;  244,704;52080,529;14,52937
 708,57; 7767,354;  209,319;52025,495;14,58625
 709,14; 7889,280;  242,550;52156,076;14,72974
 709,71; 7925,128;  223,627;52259,580;14,80035
 710,28; 7993,899;  219,550;52565,623;14,85183
 710,86; 8023,132;  227,242;52586,358;14,88927
 711,43; 8107,365;  244,165;52668,709;14,99908
 712,00; 8130,136;  229,935;52860,752;15,01060
 712,57; 8186,446;  239,935;52817,564;15,11386
 713,14; 8234,448;  218,550;53009,683;15,18417
 713,71; 8323,527;  226,012;52880,957;15,37845
 714,28; 8328,991;  224,012;52901,077;15,38616
 714,85; 8383,531;  196,627;52665,427;15,60338
 715,42; 8434,456;  215,627;52958,316;15,58288
 716,00; 8540,766;  254,396;53062,897;15,69136
 716,57; 8531,691;  206,089;53119,248;15,73447
 717,14; 8583,462;  200,165;53041,752;15,86496
 717,71; 8606,772;  192,858;53116,180;15,89831
 718,28; 8694,697;  225,550;53222,453;15,98046
 718,85; 8756,776;  194,935;53175,342;16,16039
 719,42; 8776,317;  223,396;53318,154;16,10879
 719,99; 8831,550;  195,704;53138,120;16,31177
 720,56; 8919,090;  222,089;53585,702;16,29763
 721,13; 8963,939;  202,012;53579,437;16,41504
 721,70; 8983,094;  192,166;53442,864;16,50857
 722,27; 9001,789;  219,166;53494,446;16,48536
 722,84; 9122,945;  247,396;53590,565;16,63858
 723,41; 9096,639;  191,243;53629,608;16,66480
 723,98; 9134,333;  201,243;53860,420;16,64783
 724,55; 9256,874;  238,320;53924,848;16,79854
 725,12; 9209,876;  158,627;53764,737;16,88473
 725,69; 9307,878;  196,781;54047,395;16,91921
 726,27; 9415,188;  207,858;54041,976;17,10315
 726,84; 9522,728;  204,627;54414,634;17,18889
 727,41; 9536,577;  223,550;54344,370;17,20784
 727,98; 9662,810;  224,935;54713,797;17,32074
 728,55; 9682,812;  240,166;54539,301;17,39005
 729,12; 9651,583;  190,935;54672,806;17,36476
 729,69; 9755,431;  232,012;54866,079;17,43128
 730,26; 9862,664;  237,320;55057,584;17,55800
 730,82; 9853,128;  206,935;54970,703;17,61419
 731,39; 9871,976;  210,551;54992,592;17,63612
 731,96;10000,439;  203,397;55354,174;17,76411
 732,53;10094,903;  223,166;55482,293;17,86445
 733,10;10199,367;  231,243;55594,952;18,00480
 733,67;10288,446;  230,397;55848,148;18,08424
 734,24;10240,448;  216,858;55370,191;18,17404
 734,81;10317,373;  229,012;55575,696;18,22758
 735,38;10292,529;  215,320;55266,508;18,30516
 735,95;10306,377;  205,166;55096,550;18,40218
 736,52;10379,764;  235,089;55317,593;18,41724
 737,09;10401,073;  228,397;55024,636;18,56455
 737,66;10500,306;  262,243;55225,910;18,62697
 738,23;10531,308;  206,397;55259,568;18,75444
 738,80;10722,310;  258,243;55575,226;18,91655
 739,37;10721,082;  241,474;55747,961;18,87997
 739,94;10819,161;  218,859;55748,235;19,08954
 740,51;10960,163;  305,474;55838,432;19,18624
 741,07;10900,549;  224,859;55750,474;19,22661
 741,64;10976,782;  240,551;55956,363;19,26963
 742,21;11044,938;  217,166;56078,637;19,38326
 742,78;11055,325;  201,243;55809,218;19,51893
 743,35;11135,865;  212,551;56235,107;19,49807
 743,92;11208,791;  264,013;56241,073;19,55226
 744,49;11329,023;  228,013;56096,501;19,86990
 745,06;11297,872;  210,013;56166,697;19,81508
 745,63;11384,028;  207,090;56169,586;19,97219
 746,19;11358,260;  209,551;56107,168;19,94487
 746,76;11423,416;  230,551;56238,749;19,98433
 747,33;11443,188;  217,859;56054,484;20,10388
 747,90;11590,113;  240,397;56400,219;20,20967
 748,47;11645,269;  222,244;56178,493;20,41421
 749,04;11692,579;  226,782;56162,305;20,49824
 749,61;11711,427;  248,244;56187,732;20,49211
 750,17;11779,967;  238,244;56351,544;20,56861
 750,74;11770,585;  231,859;56209,510;20,61309
 751,31;11819,894;  220,244;56066,092;20,77084
 751,88;11803,050;  201,167;56004,750;20,79057
 752,45;11894,360;  221,013;56076,562;20,89917
 753,02;11862,131;  235,013;55992,758;20,85292
 753,58;11920,595;  207,474;55871,724;21,04245
 754,15;11931,905;  215,936;56093,767;20,96711
 754,72;11978,830;  207,167;55855,195;21,15378
 755,29;11957,217;  199,705;55814,468;21,14099
 755,86;12069,757;  221,167;55911,973;21,27567
 756,42;12127,067;  227,244;55749,323;21,43260
 756,99;12070,069;  196,859;55730,289;21,38029
 757,56;12120,148;  197,398;55635,024;21,50660
 758,13;12075,765;  170,705;55714,529;21,43363
 758,70;12238,614;  187,321;55711,879;21,70444
 759,26;12217,308;  197,090;55807,076;21,61522
 759,83;12331,156;  198,090;55915,426;21,77611
 760,40;12275,005;  184,321;55664,008;21,79299
 760,97;12330,160;  177,936;55709,897;21,88330
 761,53;12299,470;  175,167;55292,862;21,99712
 762,10;12351,165;  171,321;55418,675;22,04602
 762,67;12399,705;  208,706;55261,102;22,14436
 763,24;12345,092;  154,552;55011,376;22,22247
 763,80;12429,017;  190,706;55073,418;22,29903
 764,37;12426,788;  192,859;54953,307;22,34081
 764,94;12306,329;  183,090;54539,889;22,30308
 765,50;12383,792;  178,398;54532,855;22,45519
 766,07;12489,333;  221,936;54550,974;22,57982
 766,64;12407,258;  181,321;54185,171;22,63901
 767,21;12403,568;  189,629;54028,368;22,68615
 767,77;12457,262;  206,475;54018,180;22,76603
 768,34;12469,034;  207,937;53990,223;22,79765
 768,91;12474,728;  214,013;53849,189;22,85947
 769,47;12461,115;  210,937;53857,308;22,83505
 770,04;12518,578;  202,783;53783,428;22,98553
 770,61;12524,811;  202,475;53440,009;23,14596
 771,18;12536,890;  187,629;53325,744;23,23993
 771,74;12625,277;  202,552;53585,249;23,27107
 772,31;12643,740;  210,706;53371,599;23,38756
 772,88;12564,512;  184,167;53081,873;23,40431
 773,44;12500,898;  197,860;52800,070;23,38882
 774,01;12648,439;  210,860;53040,959;23,54260
 774,58;12624,979;  196,168;52673,232;23,68427
 775,14;12672,289;  189,014;52862,506;23,69935
 775,71;12642,445;  190,552;52706,241;23,71081
 776,27;12747,370;  237,937;52611,361;23,88508
 776,84;12777,142;  254,706;52651,711;23,89914
 777,41;12775,374;  217,860;52505,216;24,01635
 777,97;12695,300;  199,629;52204,258;24,02800
 778,54;12752,532;  203,322;52232,301;24,11966
 779,11;12782,842;  232,322;52317,729;24,09604
 779,67;12743,613;  192,398;52169,925;24,14739
 780,24;12771,539;  215,552;51941,430;24,27409
 780,80;12851,771;  230,552;51913,242;24,42059
 781,37;12812,466;  215,399;51974,054;24,33809
 781,94;12778,929;  213,783;51672,020;24,41814
 782,50;12765,778;  219,706;51698,678;24,37125
 783,07;12875,934;  237,014;51642,875;24,58653
 783,63;12811,551;  190,322;51544,302;24,57693
 784,20;12868,245;  235,553;51440,268;24,67096
 784,77;12837,171;  214,322;51211,388;24,75211
 785,33;12810,711;  196,937;51066,508;24,79631
 785,90;12879,713;  212,476;51080,397;24,90221
 786,46;12801,484;  234,553;50914,132;24,79684
 787,03;12775,948;  197,783;50790,867;24,86143
 787,59;12895,873;  208,322;50631,140;25,16232
 788,16;12911,645;  216,706;50664,568;25,16447
 788,73;12824,108;  223,399;50437,380;25,09403
 789,29;12780,033;  205,168;50103,192;25,20113
 789,86;12836,958;  231,245;50010,466;25,32324
 790,42;12792,807;  213,168;49875,124;25,33053
 790,99;12696,655;  228,553;49488,321;25,31092
 791,55;12716,503;  209,168;49533,286;25,35744
 792,12;12732,659;  231,476;49512,406;25,36718
 792,68;12727,276;  208,937;49095,680;25,60682
 793,25;12682,663;  226,937;48901,569;25,58977
 793,81;12635,127;  268,937;48494,612;25,64234
 794,38;12573,590;  196,322;48275,962;25,74326
 794,94;12587,054;  198,476;48162,005;25,82916
 795,51;12547,825;  230,938;47886,279;25,84577
 796,07;12529,520;  218,476;47564,168;26,00246
 796,64;12616,060;  226,399;47808,672;26,03840
 797,20;12511,678;  224,015;47354,022;26,07185
 797,77;12452,603;  205,015;46997,065;26,17451
 798,33;12433,143;  222,245;46805,723;26,21294
 798,90;12431,761;  243,861;46821,074;26,16709
 799,46;12416,301;  220,015;46297,578;26,46904
 800,03;12437,457;  220,861;46275,929;26,52606
 800,59;12377,075;  235,476;45994,818;26,53360
 801,15;12340,538;  230,476;45830,245;26,55729
 801,72;12237,694;  230,322;45478,057;26,53696
 802,28;12218,312;  259,399;45207,562;26,60601
 802,85;12211,314;  228,784;45054,297;26,73150
 803,41;12158,547;  218,092;44878,263;26,73625
 803,98;12071,549;  215,553;44497,306;26,77400
 804,54;12060,243;  229,015;44161,733;26,93034
 805,11;11988,630;  224,784;44049,161;26,84316
 805,67;12065,786;  250,323;43958,357;27,03270
 806,23;11954,172;  230,169;43495,939;27,09764
 806,80;11993,328;  247,476;43403,212;27,21736
 807,36;11997,638;  239,630;43432,563;27,22206
 807,93;11928,332;  233,630;43096,836;27,28378
 808,49;11906,104;  205,169;42759,648;27,49636
 809,05;11847,721;  191,092;42576,537;27,50149
 809,62;11887,569;  232,092;42497,119;27,57712
 810,18;11915,648;  229,553;42374,084;27,72862
 810,74;11795,266;  199,015;42189,589;27,61632
 811,31;11792,960;  195,784;41949,555;27,77516
 811,87;11843,578;  217,554;41813,598;27,94983
 812,44;11839,964;  237,630;41883,564;27,85946
 813,00;11765,197;  181,092;41517,683;28,02385
 813,56;11780,045;  232,861;41640,265;27,88676
 814,13;11803,509;  225,861;41665,077;27,93887
 814,69;11731,203;  229,554;41382,735;27,94839
 815,25;11708,975;  200,400;40900,778;28,27633
 815,82;11712,823;  230,631;40897,513;28,23475
 816,38;11744,671;  252,092;40699,633;28,41354
 816,94;11619,366;  206,477;40456,060;28,35530
 817,51;11532,291;  201,400;40201,795;28,32695
 818,07;11549,139;  203,169;39878,530;28,59702
 818,63;11501,064;  229,708;39651,188;28,59192
 819,20;11472,989;  224,938;39564,231;28,59241
 819,76;11336,837;  207,246;39142,813;28,58464
 820,32;11403,070;  256,169;39117,471;28,68381
 820,89;11363,611;  243,323;38874,668;28,78566
 821,45;11251,767;  212,785;38522,018;28,81546
 822,01;11213,615;  239,015;38368,753;28,78226
 822,57;11227,848;  236,939;38122,411;29,01088
 823,14;11120,235;  209,246;38010,685;28,86395
 823,70;11090,467;  211,477;37733,420;28,99368
 824,26;11062,316;  211,015;37560,001;29,05380
 824,82;11114,241;  228,708;37415,813;29,27233
 825,39;10967,551;  217,708;37118,241;29,13194
 825,95;11092,937;  232,477;37037,976;29,50771
 826,51;10947,324;  230,016;36661,711;29,41754
 827,08;10960,941;  246,554;36741,062;29,35890
 827,64;10913,790;  231,785;36610,028;29,36372
 828,20;10915,638;  206,554;36350,070;29,62934
 828,76;10938,178;  235,708;36260,344;29,70875
 829,32;10863,950;  241,862;36114,079;29,61090
 829,89;10799,413;  203,631;35993,507;29,60553
 830,45;10820,338;  215,785;35818,396;29,78589
 831,01;10796,110;  216,554;35771,515;29,75550
 831,57;10832,266;  223,477;35624,789;29,96722
 832,14;10849,498;  218,477;35559,832;30,08097
 832,70;10790,808;  210,862;35379,029;30,08387
 833,26;10768,118;  184,939;35228,994;30,19964
 833,82;10761,120;  221,016;35148,960;30,17671
 834,38;10820,353;  204,785;35247,772;30,29299
 834,95;10772,740;  209,400;35016,815;30,34796
 835,51;10753,972;  182,401;34926,781;30,42671
 836,07;10739,513;  223,785;35040,593;30,20302
 836,63;10865,361;  231,708;35020,098;30,56667
 837,19;10805,286;  219,401;34756,987;30,65033
 837,75;10698,596;  185,708;34560,029;30,58355
 838,32;10814,829;  231,554;34622,841;30,77313
 838,88;10786,600;  238,016;34675,500;30,63111
 839,44;10824,064;  219,401;34458,235;30,97262
 840,00;10794,220;  222,324;34399,278;30,93282
 840,56;10721,914;  203,862;34165,551;30,97034
 841,12;10739,532;  199,862;34099,825;31,09050
 841,68;10633,149;  190,324;33935,483;30,94614
 842,25;10698,690;  200,708;33989,449;31,06947
 842,81;10644,999;  189,708;33763,569;31,14116
 843,37;10674,617;  186,939;33641,996;31,34856
 843,93;10664,311;  202,709;33671,808;31,25750
 844,49;10697,621;  213,555;33658,697;31,34705
 845,05;10615,392;  179,016;33464,586;31,35406
 845,61;10705,394;  226,785;33565,552;31,43070
 846,17;10649,704;  206,632;33410,441;31,45143
 846,73;10640,937;  211,093;33349,099;31,47396
 847,29;10579,170;  198,555;33127,527;31,52426
 847,86;10574,403;  209,170;33115,185;31,49951
 848,42;10519,559;  195,401;32856,920;31,60954
 848,98;10575,868;  205,632;32878,732;31,73937
 849,54;10588,178;  203,247;32831,467;31,82806
 850,10;10585,565;  216,478;32745,279;31,87663
 850,66;10558,490;  199,478;32511,168;32,05964
 851,22;10509,338;  191,016;32407,211;32,02837
 851,78;10616,033;  239,786;32581,485;32,08318
 852,34;10495,265;  219,324;32270,451;32,06109
 852,90;10485,114;  207,478;32195,570;32,12957
 853,46;10415,346;  188,247;31920,459;32,22939
 854,02;10496,887;  216,401;31898,425;32,44895
 854,58;10431,735;  205,401;31641,468;32,53058
 855,14;10461,891;  193,940;31606,511;32,68740
 855,70;10357,047;  166,555;31445,400;32,57950
 856,26;10442,203;  224,709;31435,827;32,73671
 856,82;10405,743;  194,709;31250,563;32,87958
 857,38;10363,976;  230,017;31264,144;32,65424
 857,94;10351,440;  211,555;31077,110;32,85178
 858,50;10342,519;  213,324;30971,845;32,93134
 859,06;10296,829;  204,786;30794,119;32,99203
 859,62;10342,831;  214,171;30736,161;33,18480
 860,18;10255,679;  208,171;30545,666;33,11911
 860,74;10251,989;  177,325;30374,247;33,36322
 861,30;10191,683;  176,094;30279,598;33,27051
 861,86;10291,301;  231,248;30364,948;33,38472
 862,42;10218,995;  210,709;30084,991;33,50134
 862,98;10313,535;  235,325;30010,880;33,84726
 863,54;10215,076;  206,325;29777,692;33,84609
 864,10;10242,001;  200,632;29861,504;33,85392
 864,66;10194,388;  177,786;29653,008;33,98313
 865,22;10215,005;  209,632;29465,590;34,19944
 865,78;10172,623;  211,786;29383,402;34,14565
 866,34;10177,933;  207,017;29318,368;34,25095
 866,90;10165,473;  226,017;29252,410;34,24282
 867,45;10117,321;  221,786;28986,223;34,40198
 868,01;10054,400;  213,171;28949,573;34,24656
 868,57;10011,864;  209,556;28593,231;34,53502
 869,13;10014,404;  190,248;28553,351;34,63710
 869,69;10033,560;  189,402;28412,317;34,88002
 870,25;10003,332;  194,940;28284,052;34,91884
 870,81; 9998,488;  213,786;28210,941;34,94891
 871,37; 9976,028;  207,171;28206,676;34,88939
 871,93; 9922,492;  226,863;27964,181;34,95518
 872,49; 9863,878;  223,094;27773,531;34,99322
 873,04; 9817,804;  203,402;27623,651;35,06315
 873,60; 9790,806;  197,556;27409,694;35,25357
 874,16; 9819,192;  207,017;27378,121;35,37646
 874,72; 9842,269;  194,248;27259,121;35,64776
 875,28; 9812,808;  209,479;27254,583;35,50857
 875,84; 9805,192;  207,787;27177,429;35,58596
 876,40; 9808,731;  203,094;27136,583;35,66429
 876,95; 9827,808;  220,094;27097,275;35,74673
 877,51; 9820,577;  234,633;27088,583;35,69659
 878,07; 9863,885;  242,017;27203,967;35,68684
 878,63; 9891,577;  203,787;27116,967;35,99645
 879,19; 9906,808;  226,171;27111,044;36,00774
 879,75; 9952,423;  205,479;27221,660;36,07817
 880,30; 9975,885;  204,710;27218,813;36,17064
 880,86;10107,808;  235,787;27351,352;36,40721
 881,42;10105,731;  192,710;27380,737;36,46098
 881,98;10133,654;  231,248;27497,737;36,31713
 882,54;10173,192;  207,787;27677,813;36,27738
 883,09;10306,885;  222,556;27728,890;36,66184
 883,65;10305,577;  189,863;27895,967;36,51078
 884,21;10483,346;  234,479;28106,967;36,77055
 884,77;10535,269;  204,479;28148,198;36,96999
 885,32;10617,192;  208,017;28301,967;37,05130
 885,88;10782,346;  248,633;28505,121;37,27892
 886,44;10821,500;  220,479;28639,429;37,30265
 887,00;10886,731;  237,402;28713,352;37,39762
 887,56;10892,808;  208,633;28820,737;37,34145
 888,11;10931,038;  208,556;28820,660;37,47534
 888,67;11012,423;  237,402;29049,583;37,39745
 889,23;11098,192;  213,633;29155,737;37,60805
 889,79;11029,654;  197,556;28932,198;37,69700
 890,34;11027,423;  210,863;28913,044;37,68550
 890,90;11187,423;  264,710;29075,352;37,91208
 891,46;11143,731;  194,402;28963,967;38,05872
 892,01;11161,269;  233,402;29017,660;37,96474
 892,57;11112,577;  239,633;28921,813;37,90836
 893,13;11050,962;  209,402;28708,275;38,04206
 893,69;11013,577;  199,787;28602,583;38,07298
 894,24;10997,269;  226,479;28535,967;38,04657
 894,80;10947,038;  229,171;28394,275;38,05371
 895,36;10916,038;  217,787;28279,198;38,12443
 895,91;10836,500;  210,402;27991,890;38,24884
 896,47;10849,962;  227,710;27950,352;38,31616
 897,03;10737,269;  203,556;27715,429;38,28788
 897,58;10620,192;  228,556;27554,275;38,02878
 898,14;10607,269;  224,094;27410,737;38,19219
 898,70;10579,577;  184,863;27270,583;38,37710
 899,25;10611,192;  208,248;27270,583;38,44068
 899,81;10573,962;  227,017;27002,352;38,64357
 900,37;10469,808;  183,863;26745,967;38,72413
 900,92;10535,962;  222,402;26673,737;38,99070
 901,48;10420,269;  206,633;26537,429;38,78970
 902,03;10391,808;  206,479;26396,737;38,88976
 902,59;10364,346;  209,402;26331,275;38,87525
 903,15;10315,038;  229,479;26172,352;38,87603
 903,70;10267,885;  215,556;25943,121;39,07221
 904,26;10207,192;  203,402;25826,737;39,04172
 904,82;10244,192;  216,248;25825,506;39,15750
 905,37;10183,192;  219,710;25617,660;39,22948
 905,93;10133,962;  206,633;25516,275;39,22351
 906,48;10140,654;  214,787;25397,813;39,41491
 907,04;10157,423;  231,556;25286,275;39,61676
 907,60;10032,423;  210,094;25075,044;39,50271
 908,15;10021,962;  195,710;24944,660;39,70371
 908,71;10056,731;  240,479;25003,737;39,64039
 909,26;10037,654;  195,556;24794,044;40,01099
 909,82; 9978,577;  223,017;24712,506;39,83570
 910,37; 9997,269;  248,325;24564,660;40,09216
 910,93; 9900,269;  199,094;24395,275;40,09383
 911,48; 9878,500;  203,479;24242,583;40,24701
 912,04; 9832,500;  207,633;24199,275;40,11758
 912,60; 9888,808;  209,710;24197,352;40,35035
 913,15; 9844,885;  214,863;23988,813;40,50661
 913,71; 9708,885;  200,940;23847,506;40,20856
 914,26; 9683,808;  193,479;23809,506;40,18597
 914,82; 9725,885;  209,863;23623,352;40,64333
 915,37; 9711,654;  200,940;23601,813;40,64256
 915,93; 9697,577;  245,940;23394,660;40,83006
 916,48; 9657,423;  204,094;23331,275;40,87541
 917,04; 9635,269;  227,325;23243,583;40,87521
 917,59; 9648,500;  242,248;23199,275;40,97330
 918,15; 9502,577;  186,402;22993,352;40,84797
 918,70; 9528,115;  202,940;22793,198;41,27963
 919,26; 9547,577;  209,787;22780,121;41,37196
 919,81; 9459,192;  203,248;22632,583;41,26714
 920,37; 9493,115;  201,940;22625,583;41,43473
 920,92; 9460,808;  221,633;22410,660;41,63849
 921,48; 9359,346;  192,017;22187,121;41,67895
 922,03; 9393,808;  211,402;22143,967;41,86654
 922,59; 9350,654;  206,094;22018,583;41,92350
 923,14; 9310,885;  202,556;21817,813;42,13842
 923,69; 9293,269;  222,248;21830,967;41,97852
 924,25; 9304,423;  218,017;21819,660;42,06350
 924,80; 9238,962;  220,094;21615,275;42,15373
 925,36; 9276,962;  208,094;21564,198;42,46499
 925,91; 9171,577;  207,248;21413,583;42,27194
 926,47; 9181,423;  194,633;21391,813;42,39616
 927,02; 9167,269;  244,325;21247,429;42,48393
 927,57; 9063,500;  203,479;21142,121;42,31421
 928,13; 9042,962;  196,710;21022,044;42,47832
 928,68; 9036,423;  199,710;20910,198;42,66782
 929,24; 8910,192;  180,171;20668,967;42,60876
 929,79; 8951,038;  192,094;20609,813;42,89874
 930,34; 8966,654;  203,940;20470,044;43,23827
 930,90; 8970,808;  195,710;20437,890;43,35056
 931,45; 8990,423;  210,248;20363,121;43,56786
 932,01; 9008,885;  220,940;20308,275;43,74868
 932,56; 8918,346;  223,094;20166,044;43,60063
 933,11; 8908,115;  222,248;20138,506;43,61194
 933,67; 8856,423;  207,940;19942,352;43,82438
 934,22; 8832,192;  206,940;19883,121;43,83601
 934,77; 8754,885;  238,248;19814,660;43,50458
 935,33; 8746,577;  229,248;19655,890;43,84355
 935,88; 8760,192;  219,094;19545,737;44,19339
 936,43; 8664,500;  201,863;19378,275;44,13045
 936,99; 8631,423;  213,633;19397,275;43,88004
 937,54; 8558,115;  190,248;19157,660;44,11708
 938,09; 8589,731;  218,863;19201,429;44,09766
 938,65; 8523,654;  204,479;19017,121;44,22119
 939,20; 8537,654;  198,787;19036,890;44,26596
 939,75; 8518,654;  197,710;18855,583;44,59750
 940,31; 8465,192;  190,633;18727,890;44,63745
 940,86; 8462,500;  206,556;18781,352;44,44702
 941,41; 8489,423;  260,171;18636,506;44,78179
 941,96; 8370,654;  202,094;18465,583;44,72617
 942,52; 8350,962;  205,094;18439,506;44,67305
 943,07; 8309,346;  183,325;18308,429;44,83296
 943,62; 8279,500;  204,248;18210,967;44,84577
 944,18; 8251,115;  193,402;18141,121;44,89547
 944,73; 8262,731;  211,171;18004,121;45,25140
 945,28; 8208,885;  171,940;17833,506;45,50528
 945,83; 8174,885;  210,171;17933,275;44,93972
 946,39; 8186,423;  203,479;17847,198;45,24525
 946,94; 8148,885;  221,325;17754,890;45,21362
 947,49; 8084,115;  199,402;17674,890;45,11870
 948,04; 8153,962;  225,325;17612,275;45,60108
 948,59; 8116,654;  225,863;17549,275;45,54986
 949,15; 8087,577;  193,710;17439,044;45,77393
 949,70; 8068,962;  194,940;17307,737;46,01248
 950,25; 8041,038;  221,710;17227,583;45,98017
 950,80; 7991,577;  177,094;17162,583;46,00682
 951,36; 7980,577;  168,633;17053,813;46,26509
 951,91; 8022,269;  216,017;17033,660;46,41704
 952,46; 7901,500;  186,710;16851,198;46,29479
 953,01; 7926,038;  220,017;16874,429;46,27015
 953,56; 7823,808;  190,710;16723,813;46,16857
 954,11; 7900,192;  210,017;16666,429;46,73057
 954,67; 7835,346;  190,325;16595,660;46,60082
 955,22; 7766,962;  176,940;16448,506;46,64592
 955,77; 7794,962;  226,710;16405,967;46,77750
 956,32; 7777,654;  240,863;16313,429;46,89227
 956,87; 7722,115;  192,248;16185,506;47,08151
 957,42; 7683,192;  200,710;16126,352;46,98387
 957,98; 7704,500;  191,171;16080,890;47,28421
 958,53; 7703,654;  219,171;15989,044;47,46064
 959,08; 7630,885;  188,710;15911,044;47,33505
 959,63; 7567,192;  189,940;15775,121;47,33504
 960,18; 7581,500;  210,402;15762,737;47,39544
 960,73; 7531,423;  216,325;15724,198;47,17022
 961,28; 7525,269;  184,710;15541,352;47,80055
 961,83; 7502,346;  214,633;15585,737;47,41178
 962,39; 7428,808;  191,171;15382,429;47,64343
 962,94; 7413,192;  219,017;15371,967;47,47706
 963,49; 7365,269;  210,402;15196,352;47,74384
 964,04; 7348,577;  219,940;15130,352;47,80979
 964,59; 7347,423;  176,633;15055,660;48,19395
 965,14; 7312,962;  215,479;15025,198;47,92449
 965,69; 7271,808;  204,787;14934,583;47,97773
 966,24; 7236,500;  200,633;14815,352;48,14234
 966,79; 7196,346;  218,863;14717,506;48,12508
 967,34; 7161,269;  185,094;14596,506;48,40730
 967,89; 7152,423;  202,787;14507,044;48,58439
 968,44; 7115,346;  198,017;14452,967;48,52580
 968,99; 7127,115;  213,863;14338,198;48,94568
 969,55; 7061,731;  202,094;14296,506;48,66919
 970,10; 7049,423;  205,940;14232,660;48,78890
 970,65; 7006,731;  220,094;14076,890;48,97695
 971,20; 6980,577;  196,402;14068,506;48,90516
 971,75; 6904,962;  188,094;13866,813;49,10450
 972,30; 6912,885;  201,787;13871,352;49,09518
 972,85; 6874,808;  190,325;13710,044;49,44247
 973,40; 6859,577;  195,940;13601,583;49,70770
 973,95; 6813,115;  212,633;13533,275;49,55078
 974,50; 6834,885;  232,787;13453,737;49,93664
 975,05; 6730,192;  204,248;13365,967;49,58276
 975,60; 6756,269;  219,094;13343,660;49,80870
 976,15; 6710,346;  199,325;13193,429;50,10750
 976,70; 6686,962;  219,094;13112,890;50,16263
 977,25; 6652,269;  205,633;13075,890;50,08941
 977,80; 6620,115;  194,633;12895,121;50,59241
 978,35; 6522,731;  215,171;12774,583;50,22178
 978,89; 6499,346;  183,325;12760,737;50,21718
 979,44; 6534,346;  209,017;12666,967;50,77343
 979,99; 6440,654;  185,325;12527,506;50,68252
 980,54; 6399,885;  232,325;12426,352;50,57853
 981,09; 6364,269;  216,248;12317,967;50,80287
 981,64; 6298,962;  213,094;12252,506;50,54954
 982,19; 6362,654;  238,633;12166,275;51,34310
 982,74; 6257,423;  226,787;12040,660;51,04707
 983,29; 6159,269;  202,556;11867,198;51,06640
 983,84; 6151,808;  215,633;11817,506;51,16566
 984,39; 6183,808;  255,171;11742,737;51,60916
 984,94; 6076,192;  189,402;11602,583;51,57888
 985,49; 6073,346;  232,402;11616,737;51,30686
 986,03; 6001,577;  235,863;11483,737;51,26048
 986,58; 5936,192;  250,248;11272,583;51,58566
 987,13; 5902,577;  217,940;11179,121;51,86153
 987,68; 5851,269;  224,863;11124,813;51,61864
 988,23; 5824,654;  223,402;11041,660;51,77592
 988,78; 5775,192;  194,940;10871,044;52,26862
 989,33; 5730,885;  222,633;10793,429;52,10820
 989,88; 5730,962;  228,940;10750,583;52,29242
 990,42; 5661,731;  211,556;10600,583;52,46088
 990,97; 5593,346;  207,171;10519,275;52,23158
 991,52; 5595,269;  233,710;10440,429;52,52971
 992,07; 5518,192;  236,710;10326,121;52,34679
 992,62; 5501,731;  223,710;10224,352;52,77682
 993,17; 5393,269;  221,017;10097,890;52,36730
 993,71; 5405,346;  223,094;10045,275;52,76071
 994,26; 5311,038;  204,863; 9927,275;52,51963
 994,81; 5339,269;  242,633; 9874,198;52,91597
 995,36; 5249,962;  206,940; 9703,429;53,10406
 995,91; 5223,577;  215,863; 9595,506;53,38917
 996,45; 5189,423;  221,402; 9499,890;53,54343
 997,00; 5102,731;  195,710; 9390,429;53,36782
 997,55; 5087,038;  220,863; 9359,506;53,24834
 998,10; 5033,731;  236,787; 9199,429;53,52154
 998,65; 5006,269;  214,325; 9193,044;53,37002
 999,19; 5002,115;  231,787; 9026,660;54,23988
 999,74; 4936,423;  241,094; 8959,506;53,85532
1000,29; 4898,885;  235,863; 8835,813;54,22149
1000,84; 4815,808;  209,094; 8706,352;54,21412
1001,38; 4769,885;  212,017; 8637,967;54,09322
1001,93; 4767,500;  237,633; 8545,044;54,52802
1002,48; 4675,269;  200,402; 8430,583;54,37143
1003,03; 4729,500;  218,017; 8380,583;55,27040
1003,57; 4609,654;  223,940; 8267,813;54,52241
1004,12; 4597,500;  240,325; 8173,352;54,92450
1004,67; 4561,731;  216,787; 8122,429;54,96004
1005,22; 4477,038;  214,171; 7957,890;55,04935
1005,76; 4419,423;  204,017; 7781,429;55,63121
1006,31; 4375,269;  233,094; 7764,890;54,99585
1006,86; 4339,192;  211,094; 7661,967;55,40422
1007,40; 4263,038;  198,863; 7516,121;55,54232
1007,95; 4207,423;  215,556; 7444,506;55,22057
1008,50; 4146,731;  217,940; 7290,737;55,54791
1009,04; 4097,346;  215,325; 7252,044;55,16806
1009,59; 4063,731;  221,094; 7065,506;56,14269
1010,14; 3979,808;  215,171; 6978,121;55,66560
1010,68; 3913,038;  210,402; 6885,352;55,47063
1011,23; 3865,962;  215,633; 6783,583;55,57790
1011,78; 3847,269;  230,556; 6716,813;55,75963
1012,32; 3795,346;  227,633; 6596,275;56,02000
1012,87; 3798,269;  239,248; 6569,044;56,22647
1013,42; 3728,346;  200,863; 6439,352;56,54387
1013,96; 3749,346;  236,479; 6478,429;56,27836
1014,51; 3676,654;  183,248; 6356,044;56,59357
1015,06; 3686,192;  194,248; 6373,660;56,50933
1015,60; 3749,038;  248,863; 6441,660;56,52011
1016,15; 3727,577;  200,479; 6417,044;56,73709
1016,69; 3788,038;  215,171; 6450,737;57,29821
1017,24; 3800,423;  191,248; 6452,506;57,64297
1017,79; 3864,500;  244,710; 6527,890;57,61079
1018,33; 3867,038;  206,556; 6545,967;57,74168
1018,88; 3914,731;  222,710; 6613,737;57,76882
1019,42; 3950,192;  217,402; 6592,813;58,54979
1019,97; 3940,115;  207,787; 6645,583;57,97526
1020,51; 3981,038;  221,248; 6675,352;58,25426
1021,06; 3936,115;  195,787; 6637,275;58,06622
1021,61; 3968,115;  180,556; 6637,429;58,65935
1022,15; 3939,808;  178,863; 6638,121;58,22564
1022,70; 3962,423;  216,094; 6619,583;58,50450
1023,24; 3931,731;  191,710; 6585,583;58,49383
1023,79; 3923,423;  213,017; 6536,813;58,67371
1024,33; 3904,269;  211,325; 6439,660;59,29264
1024,88; 3884,885;  218,325; 6365,737;59,64396
1025,42; 3814,269;  213,940; 6206,352;60,08147
1025,97; 3742,577;  197,248; 6175,967;59,29914
1026,51; 3662,808;  171,940; 6032,967;59,56068
1027,06; 3656,423;  199,633; 6030,737;59,28192
1027,60; 3607,038;  203,248; 5913,660;59,60674
1028,15; 3537,808;  220,094; 5816,813;59,27961
1028,69; 3428,269;  181,633; 5645,967;59,41504
1029,24; 3433,038;  202,325; 5606,352;59,78344
1029,78; 3379,808;  189,710; 5507,121;59,99344
1030,33; 3291,731;  174,402; 5402,121;59,63076
1030,87; 3246,731;  197,402; 5345,813;59,22854
1031,42; 3217,808;  183,248; 5266,275;59,69985
1031,96; 3208,577;  213,940; 5201,121;60,04668
1032,51; 3119,192;  191,094; 5094,967;59,70991
1033,05; 3140,038;  208,940; 5082,429;60,14374
1033,60; 3025,500;  174,094; 4932,121;59,92832
1034,14; 3012,269;  202,787; 4839,198;60,59606
1034,69; 2970,577;  199,633; 4803,506;60,18724
1035,23; 2934,808;  203,248; 4736,429;60,25702
1035,77; 2928,192;  198,248; 4712,044;60,48001
1036,32; 2867,654;  184,248; 4588,660;60,92541
1036,86; 2851,731;  201,325; 4551,044;60,93280
1037,41; 2795,731;  211,787; 4464,275;60,76311
1037,95; 2758,885;  181,402; 4387,813;61,27510
1038,50; 2713,115;  196,787; 4359,352;60,45140
1039,04; 2706,731;  211,479; 4286,506;61,23277
1039,58; 2659,346;  177,325; 4229,198;61,25614
1040,13; 2618,962;  201,940; 4152,429;61,18284
1040,67; 2631,962;  231,479; 4135,506;61,48735
1041,21; 2581,192;  230,248; 4055,275;61,46216
1041,76; 2514,731;  186,940; 3982,890;61,32300
1042,30; 2491,885;  199,171; 3926,121;61,51715
1042,85; 2443,654;  201,787; 3836,967;61,67141
1043,39; 2427,654;  190,863; 3820,352;61,62825
1043,93; 2429,731;  220,710; 3775,583;62,14065
1044,48; 2357,808;  206,556; 3680,660;61,92250
1045,02; 2335,731;  199,633; 3651,967;61,87402
1045,56; 2341,346;  225,171; 3618,813;62,35704
1046,11; 2290,731;  209,633; 3548,506;62,32936
1046,65; 2270,500;  216,787; 3522,890;62,11884
1047,19; 2235,423;  192,325; 3449,660;62,72300
1047,74; 2205,115;  179,556; 3397,121;62,95318
1048,28; 2186,885;  207,171; 3367,429;62,64405
1048,82; 2188,115;  215,556; 3326,890;63,39915
1049,37; 2120,731;  213,171; 3282,660;62,14585
1049,91; 2088,423;  214,171; 3209,737;62,56755
1050,45; 2087,654;  218,633; 3190,583;62,88871
1050,99; 2056,500;  208,863; 3146,506;62,89522
1051,54; 2034,577;  201,402; 3081,198;63,65642
1052,08; 2024,269;  221,710; 3041,813;63,91820
1052,62; 2003,962;  219,633; 2988,967;64,43168
1053,16; 1932,577;  197,171; 2941,737;63,23062
1053,71; 1925,885;  208,787; 2931,660;63,06199
1054,25; 1895,269;  212,402; 2884,737;62,97367
1054,79; 1883,500;  206,402; 2830,737;63,90565
1055,33; 1838,423;  182,940; 2764,506;64,12709
1055,88; 1848,115;  217,325; 2750,198;64,38500
1056,42; 1815,038;  223,171; 2709,813;64,01674
1056,96; 1802,500;  216,094; 2692,352;64,06465
1057,50; 1761,577;  221,787; 2617,198;64,28083
1058,05; 1739,192;  209,633; 2604,890;63,85783
1058,59; 1739,038;  225,710; 2565,506;64,67781
1059,13; 1676,654;  195,094; 2498,352;64,32453
1059,67; 1699,115;  218,787; 2483,044;65,37811
1060,21; 1672,808;  206,633; 2443,429;65,54799
1060,76; 1647,577;  227,017; 2397,506;65,44884
1061,30; 1640,346;  234,787; 2387,198;65,30162
1061,84; 1612,423;  216,325; 2339,198;65,76456
1062,38; 1561,654;  198,248; 2289,044;65,20989
1062,92; 1619,885;  247,171; 2322,275;66,15155
1063,46; 1548,731;  228,556; 2237,583;65,71216
1064,01; 1511,192;  213,325; 2211,044;64,96745
1064,55; 1497,269;  219,633; 2195,352;64,66691
1065,09; 1470,885;  183,863; 2112,813;66,72133
1065,63; 1507,577;  238,248; 2152,737;66,30120
1066,17; 1482,962;  239,479; 2103,737;66,70122
1066,71; 1459,038;  233,171; 2065,275;66,91036
1067,25; 1421,423;  211,479; 2028,352;66,59487
1067,80; 1434,962;  229,633; 2043,275;66,45902
1068,34; 1432,577;  245,940; 2019,813;66,89523
1068,88; 1393,115;  216,325; 1951,044;67,83751
1069,42; 1440,654;  244,863; 1978,660;68,96949
1069,96; 1361,654;  210,863; 1900,583;68,10542
1070,50; 1381,269;  247,556; 1924,506;67,60568
1071,04; 1328,269;  206,479; 1880,967;66,99302
1071,58; 1330,038;  222,017; 1857,044;67,76776
1072,12; 1305,115;  209,017; 1830,967;67,57903
1072,66; 1320,885;  208,479; 1832,967;68,47730
1073,21; 1320,269;  233,325; 1825,813;68,25445
1073,75; 1304,192;  226,863; 1769,737;69,82615
1074,29; 1257,731;  215,479; 1754,429;67,72487
1074,83; 1285,500;  240,940; 1737,813;69,78278
1075,37; 1266,577;  230,325; 1721,737;69,48129
1075,91; 1223,962;  227,787; 1700,583;67,63835
1076,45; 1220,577;  222,710; 1648,737;69,97535
1076,99; 1207,654;  240,940; 1644,121;68,89443
1077,53; 1189,269;  207,940; 1628,429;69,08390
1078,07; 1193,346;  220,556; 1626,506;69,19097
1078,61; 1170,269;  224,787; 1581,813;69,67310
1079,15; 1157,038;  214,710; 1570,044;69,52739
1079,69; 1146,577;  220,094; 1539,813;70,20302
1080,23; 1163,654;  236,094; 1549,275;70,63457
1080,77; 1168,269;  252,171; 1544,967;70,86176
1081,31; 1109,500;  215,325; 1492,737;69,99898
1081,85; 1114,577;  233,171; 1495,506;69,82347
1082,39; 1094,731;  213,325; 1457,275;70,85540
1082,93; 1086,808;  225,094; 1455,967;70,00831
1083,47; 1052,038;  210,940; 1399,813;70,74751
1084,01; 1079,038;  234,479; 1432,429;70,50041
1084,55; 1058,115;  219,171; 1379,044;72,33069
1085,09; 1050,808;  233,402; 1387,813;70,80714
1085,63; 1028,423;  218,248; 1364,121;70,70373
1086,17; 1022,962;  216,479; 1355,275;70,81888
1086,71; 1001,962;  216,787; 1319,506;71,20353
1087,24; 1019,731;  247,863; 1344,890;70,35992
1087,78; 1005,269;  231,325; 1316,121;71,34467
1088,32;  963,808;  207,710; 1275,813;70,78882
1088,86;  978,885;  242,402; 1294,352;70,01119
1089,40;  936,654;  232,710; 1262,890;68,33211
1089,94;  936,731;  196,556; 1243,121;70,72420
1090,48;  943,346;  229,325; 1235,352;70,97436
1091,02;  943,269;  232,710; 1212,352;72,53256
1091,56;  917,962;  229,940; 1211,737;70,07780
1092,10;  886,423;  213,248; 1173,121;70,13167
1092,63;  903,654;  241,863; 1199,660;69,09512
1093,17;  891,808;  234,710; 1157,813;71,18355
1093,71;  885,038;  210,248; 1145,275;72,16802
1094,25;  887,192;  242,171; 1160,583;70,23226
1094,79;  864,500;  231,556; 1116,121;71,55426
1095,33;  847,115;  219,094; 1106,275;70,78841
1095,87;  842,577;  221,402; 1097,275;70,92066
1096,40;  817,115;  211,402; 1064,890;70,96914
1096,94;  834,115;  220,710; 1059,506;73,12930
1097,48;  817,192;  232,171; 1075,813;69,34469
1098,02;  808,346;  232,017; 1032,506;71,99715
1098,56;  780,654;  206,094; 1007,967;71,65219
1099,10;  779,577;  206,633;  993,506;72,81279
1099,63;  762,269;  202,787;  988,967;71,16464
1100,17;  784,885;  222,863;  985,506;73,69394
1100,71;  793,423;  232,940;  991,737;73,86472

