
Integration time [ms]: 140,000
Averaging Nr. [scans]: 13
Smoothing Nr. [pixels]: 0
Data measured with spectrometer [name]: 2009305U1
Wave   ;Sample   ;Dark     ;Reference;Reflectance
[nm]   ;[counts] ;[counts] ;[counts] ;[%]

 175,72;  212,258;  202,783;  223,076;46,68760
 176,32;  240,928;  235,325;  233,183; 0,00000
 176,92;  263,238;  268,169;  269,200;-477,90558
 177,52;  270,054;  268,091;  262,076; 0,00000
 178,12;  238,833;  257,324;  243,700; 0,00000
 178,72;  271,552;  265,095;  258,217; 0,00000
 179,32;  253,070;  268,863;  252,136; 0,00000
 179,92;  249,976;  265,631;  267,970;-669,48965
 180,52;  257,118;  242,858;  269,559;53,40344
 181,12;  267,145;  264,246;  270,140;49,18035
 181,73;  275,068;  278,015;  276,393; 0,00000
 182,33;  386,307;  376,706;  385,901;104,41413
 182,93;  283,543;  282,630;  284,119;61,32037
 183,53;  257,638;  252,787;  239,042; 0,00000
 184,13;  246,208;  254,095;  245,230; 0,00000
 184,73;  292,118;  287,018;  290,658;140,11875
 185,33;  265,706;  245,652;  366,512;16,59280
 185,93;  267,399;  240,884;  362,674;21,77059
 186,53;  292,369;  262,499;  382,538;24,88406
 187,13;  310,796;  282,650;  413,897;21,44518
 187,73;  276,218;  248,500;  374,807;21,94495
 188,33;  293,044;  249,501;  377,832;33,93030
 188,93;  285,511;  266,120;  368,764;18,89142
 189,53;  291,511;  262,277;  393,555;22,26895
 190,13;  330,266;  296,435;  419,072;27,58618
 190,73;  266,020;  227,586;  359,537;29,12750
 191,34;  295,590;  271,352;  391,243;20,21665
 191,94;  282,990;  246,733;  373,358;28,63382
 192,54;  296,586;  264,572;  390,298;25,46325
 193,14;  303,999;  262,112;  410,063;28,31142
 193,74;  302,749;  267,728;  401,768;26,12766
 194,34;  294,230;  265,958;  394,183;22,04931
 194,94;  262,258;  225,420;  368,414;25,76179
 195,54;  240,675;  199,036;  342,674;28,98875
 196,14;  268,283;  234,957;  373,055;24,13229
 196,74;  258,290;  238,575;  362,324;15,93131
 197,34;  241,805;  200,263;  355,217;26,80884
 197,94;  268,716;  232,342;  391,563;22,84491
 198,54;  274,963;  239,265;  407,700;21,19415
 199,14;  249,267;  217,032;  395,974;18,01436
 199,74;  250,855;  208,186;  379,854;24,85558
 200,34;  237,815;  205,108;  400,093;16,77395
 200,94;  270,386;  241,418;  444,773;14,24517
 201,54;  258,965;  224,801;  446,157;15,43382
 202,14;  299,080;  252,185;  507,021;18,40228
 202,74;  266,796;  220,186;  489,414;17,31263
 203,34;  248,072;  206,876;  509,469;13,61433
 203,94;  235,942;  177,569;  523,345;16,88171
 204,54;  304,233;  251,804;  597,516;15,16567
 205,14;  275,562;  210,570;  593,619;16,96707
 205,74;  322,743;  248,030;  688,863;16,94811
 206,34;  293,865;  218,877;  712,170;15,20147
 206,94;  307,471;  224,493;  773,666;15,10961
 207,54;  269,345;  194,262;  814,576;12,10402
 208,14;  300,985;  212,338;  885,999;13,15894
 208,74;  316,811;  216,647;  970,102;13,29399
 209,34;  319,209;  210,032; 1064,247;12,78097
 209,94;  334,329;  223,416; 1142,978;12,06143
 210,54;  364,930;  216,877; 1246,089;14,38512
 211,14;  368,692;  209,955; 1381,448;13,54995
 211,73;  375,986;  219,109; 1508,743;12,16448
 212,33;  412,260;  231,956; 1610,123;13,08285
 212,93;  405,944;  216,109; 1698,572;12,80537
 213,53;  392,553;  181,647; 1761,367;13,35084
 214,13;  418,279;  222,952; 1870,209;11,85771
 214,73;  403,773;  185,954; 1909,790;12,63570
 215,33;  408,944;  179,186; 1934,593;13,08861
 215,93;  444,620;  211,184; 2074,162;12,53024
 216,53;  431,294;  162,801; 2134,072;13,62031
 217,13;  491,121;  225,953; 2347,307;12,49991
 217,73;  516,949;  204,338; 2559,692;13,27237
 218,33;  518,061;  161,336; 2756,969;13,74325
 218,93;  607,722;  202,873; 3086,277;14,04066
 219,53;  675,956;  209,336; 3414,311;14,55923
 220,13;  673,061;  170,028; 3703,166;14,23757
 220,73;  769,427;  187,878; 4085,892;14,91912
 221,32;  825,427;  195,109; 4505,948;14,62170
 221,92;  915,978;  192,721; 5000,632;15,04307
 222,52;  982,161;  178,184; 5377,901;15,46195
 223,12; 1057,771;  189,030; 5845,465;15,35845
 223,72; 1148,051;  197,260; 6327,192;15,51062
 224,32; 1228,685;  209,106; 6727,234;15,64219
 224,92; 1300,429;  182,568; 7030,294;16,32456
 225,52; 1364,828;  212,723; 7406,315;16,01570
 226,12; 1418,982;  189,953; 7683,610;16,40092
 226,72; 1472,413;  171,723; 8090,059;16,42630
 227,31; 1556,773;  166,338; 8448,196;16,78892
 227,91; 1673,261;  195,185; 8938,251;16,90569
 228,51; 1743,171;  182,417; 9244,174;17,22352
 229,11; 1827,431;  189,108; 9710,850;17,20613
 229,71; 1879,177;  184,032; 9960,751;17,33859
 230,31; 1972,534;  160,260;10437,610;17,63367
 230,91; 2045,447;  168,495;10697,503;17,82648
 231,51; 2084,001;  183,415;11064,521;17,46685
 232,10; 2186,009;  172,875;11342,525;18,02325
 232,70; 2264,923;  198,958;11545,952;18,20716
 233,30; 2354,472;  214,492;11780,828;18,50180
 233,90; 2357,293;  192,799;11954,734;18,40253
 234,50; 2383,297;  186,799;12056,551;18,50500
 235,10; 2422,814;  175,260;12065,525;18,90247
 235,70; 2449,969;  208,724;12036,862;18,94842
 236,29; 2448,931;  203,417;12020,602;19,00211
 236,89; 2428,478;  168,495;11895,824;19,27108
 237,49; 2452,585;  201,338;11816,486;19,38199
 238,09; 2372,480;  181,339;11438,324;19,46473
 238,69; 2381,102;  224,957;11167,550;19,70415
 239,29; 2295,695;  186,185;10841,999;19,79680
 239,89; 2203,810;  196,802;10545,226;19,39433
 240,48; 2144,763;  176,492;10114,692;19,80511
 241,08; 2063,677;  177,185; 9764,264;19,67744
 241,68; 2005,283;  213,415; 9396,209;19,51332
 242,28; 1893,798;  178,723; 8995,542;19,45231
 242,88; 1858,251;  219,721; 8679,166;19,36924
 243,48; 1781,767;  225,954; 8415,452;18,99766
 244,07; 1737,544;  209,339; 8129,234;19,29578
 244,67; 1652,391;  207,338; 7988,298;18,57165
 245,27; 1604,217;  208,109; 7823,974;18,33158
 245,87; 1580,236;  210,260; 7761,226;18,14305
 246,47; 1537,319;  196,109; 7668,914;17,94787
 247,06; 1500,529;  181,416; 7757,721;17,41104
 247,66; 1502,960;  185,646; 7774,213;17,35920
 248,26; 1492,630;  215,955; 7894,268;16,62702
 248,86; 1506,417;  207,725; 8133,290;16,38612
 249,46; 1459,798;  159,953; 8304,717;15,95927
 250,05; 1544,203;  204,262; 8681,392;15,80654
 250,65; 1583,432;  184,263; 9076,110;15,73542
 251,25; 1606,514;  178,031; 9575,474;15,20076
 251,85; 1675,619;  186,264;10085,469;15,04520
 252,44; 1718,095;  157,878;10815,700;14,63917
 253,04; 1833,043;  208,493;11581,892;14,28376
 253,64; 1892,943;  152,725;12308,123;14,31642
 254,24; 2054,769;  196,339;13277,281;14,20716
 254,84; 2160,567;  177,184;14242,179;14,10156
 255,43; 2296,744;  190,801;15248,200;13,98610
 256,03; 2433,168;  196,956;16293,995;13,89207
 256,63; 2587,915;  204,341;17391,115;13,86865
 257,23; 2701,487;  177,495;18380,307;13,86595
 257,82; 2880,138;  194,496;19349,209;14,02079
 258,42; 2999,895;  155,496;20233,042;14,16706
 259,02; 3191,212;  210,262;21264,273;14,15858
 259,62; 3294,833;  187,189;22043,709;14,21838
 260,21; 3401,491;  199,878;22644,055;14,26478
 260,81; 3500,191;  193,646;23073,388;14,45185
 261,41; 3609,301;  172,265;23729,055;14,59043
 262,01; 3784,174;  209,497;24161,474;14,92435
 262,60; 3832,410;  163,649;24635,307;14,99188
 263,20; 3952,309;  179,802;24886,046;15,26945
 263,80; 4049,651;  212,651;25112,931;15,40947
 264,40; 4094,036;  168,189;25329,644;15,60262
 264,99; 4222,195;  198,574;25487,905;15,91035
 265,59; 4260,649;  180,191;25693,956;15,99316
 266,19; 4364,469;  181,035;25895,888;16,26855
 266,78; 4461,675;  221,190;26007,807;16,44452
 267,38; 4464,403;  200,268;26049,674;16,49607
 267,98; 4563,542;  181,575;26073,568;16,92403
 268,58; 4581,456;  196,037;26109,273;16,92347
 269,17; 4678,215;  195,653;26127,166;17,28615
 269,77; 4656,111;  204,957;25881,747;17,33532
 270,37; 4683,595;  165,420;25820,286;17,61138
 270,96; 4744,588;  232,111;25659,008;17,74686
 271,56; 4721,505;  184,033;25321,482;18,05065
 272,16; 4759,320;  181,496;25124,230;18,35334
 272,75; 4763,123;  191,265;25101,268;18,35350
 273,35; 4782,594;  189,726;25037,080;18,48433
 273,95; 4829,941;  188,419;25027,841;18,68611
 274,54; 4872,757;  169,185;25041,157;18,91113
 275,14; 5001,372;  216,496;25396,256;19,00287
 275,74; 5021,664;  168,419;25453,756;19,19391
 276,33; 5191,459;  213,649;25923,068;19,36181
 276,93; 5280,819;  196,031;26222,952;19,53665
 277,53; 5434,827;  186,032;26759,098;19,75231
 278,12; 5578,620;  174,418;27305,491;19,91887
 278,72; 5792,513;  227,801;27881,948;20,12252
 279,32; 5922,968;  182,955;28489,106;20,27832
 279,91; 6125,368;  165,494;29258,003;20,48594
 280,51; 6326,990;  191,724;29692,657;20,79685
 281,11; 6518,266;  186,494;30550,063;20,85319
 281,70; 6698,377;  171,417;30892,465;21,24589
 282,30; 6916,352;  182,572;31552,097;21,46599
 282,90; 7086,545;  186,264;31954,418;21,72075
 283,49; 7279,951;  202,572;32544,115;21,88324
 284,09; 7525,715;  210,417;33120,456;22,22816
 284,69; 7684,728;  213,340;33350,085;22,54714
 285,28; 7842,897;  206,341;33762,422;22,75759
 285,88; 8048,206;  248,188;33983,397;23,12130
 286,47; 8146,804;  187,187;34005,615;23,53633
 287,07; 8301,765;  220,263;34062,995;23,87958
 287,67; 8444,228;  209,415;34281,991;24,16845
 288,26; 8617,306;  182,878;34188,713;24,80288
 288,86; 8826,983;  179,956;34213,674;25,40724
 289,46; 9017,312;  205,340;34318,149;25,83186
 290,05; 9249,695;  177,493;34392,670;26,51514
 290,65; 9512,838;  194,803;34598,709;27,08424
 291,24; 9733,245;  195,186;34663,653;27,67184
 291,84; 9948,838;  216,495;34767,653;28,16792
 292,44;10134,425;  194,569;34984,204;28,57132
 293,03;10476,771;  266,417;35057,914;29,34727
 293,63;10631,521;  184,495;35259,170;29,78510
 294,22;10831,125;  214,417;35324,264;30,23855
 294,82;10960,507;  191,727;35373,820;30,60869
 295,41;10986,531;  176,802;35114,234;30,94025
 296,01;11124,086;  229,265;34972,568;31,35804
 296,61;11090,799;  217,571;34673,495;31,55692
 297,20;11035,938;  195,496;34283,409;31,80142
 297,80;11049,899;  199,031;34159,264;31,95169
 298,39;10987,004;  177,418;33729,931;32,21692
 298,99;10990,766;  207,880;33549,640;32,34048
 299,58;10936,034;  210,415;33295,880;32,41792
 300,18;10900,652;  225,416;33137,170;32,43594
 300,78;10769,845;  187,186;32737,294;32,51190
 301,37;10799,143;  209,497;32747,285;32,54568
 301,97;10729,211;  208,417;32702,747;32,37732
 302,56;10696,130;  199,418;32668,944;32,32789
 303,16;10650,594;  171,341;32483,179;32,43162
 303,75;10676,796;  187,570;32527,127;32,43466
 304,35;10731,632;  181,030;32758,768;32,38593
 304,94;10743,143;  206,340;32808,922;32,31892
 305,54;10708,735;  218,801;32760,717;32,23514
 306,13;10567,897;  161,799;32549,192;32,13009
 306,73;10520,081;  166,876;32358,217;32,16146
 307,33;10525,336;  206,261;32238,521;32,21463
 307,92;10459,565;  215,878;32305,469;31,92215
 308,52;10522,022;  173,495;32763,140;31,75403
 309,11;10651,144;  188,650;33278,833;31,61812
 309,71;10762,340;  180,728;33595,521;31,66745
 310,30;10699,377;  184,648;33756,969;31,31964
 310,90;10835,377;  221,263;34201,739;31,23592
 311,49;10804,088;  201,955;34294,529;31,09807
 312,09;10778,138;  170,800;34375,033;31,01177
 312,68;10944,245;  253,955;34837,982;30,91106
 313,28;10862,488;  162,878;34973,469;30,73665
 313,87;10829,279;  162,955;35103,286;30,52725
 314,47;10844,027;  191,188;35314,764;30,32960
 315,06;10809,704;  176,032;35427,858;30,16488
 315,66;10809,984;  170,954;35644,803;29,99119
 316,25;10676,807;  159,034;35543,003;29,72468
 316,85;10603,431;  148,493;35519,422;29,55800
 317,44;10594,959;  183,266;35761,610;29,26413
 318,04;10508,109;  174,495;35684,512;29,10056
 318,63;10414,555;  161,030;35697,110;28,85384
 319,22;10370,237;  183,341;35919,858;28,50557
 319,82;10314,977;  182,341;35890,217;28,37647
 320,41;10232,733;  206,187;35837,512;28,13969
 321,01;10125,954;  201,878;35853,636;27,83615
 321,60;10070,755;  196,879;35932,315;27,63049
 322,20; 9877,036;  181,417;35834,568;27,19428
 322,79; 9909,639;  206,186;35983,059;27,12214
 323,39; 9815,281;  177,876;36015,401;26,89194
 323,98; 9654,735;  168,109;35860,333;26,57897
 324,58; 9563,496;  175,495;35863,803;26,30554
 325,17; 9466,905;  188,111;35597,918;26,20402
 325,76; 9357,513;  208,186;35442,927;25,96678
 326,36; 9164,763;  178,416;35062,418;25,76065
 326,95; 9004,174;  207,494;34654,585;25,53678
 327,55; 8829,672;  165,341;34435,627;25,28234
 328,14; 8664,059;  176,954;33976,875;25,10984
 328,74; 8551,465;  209,649;33581,833;24,99632
 329,33; 8376,458;  194,262;33143,444;24,83277
 329,92; 8145,846;  177,496;32534,162;24,62661
 330,52; 7940,259;  187,954;31833,499;24,49730
 331,11; 7761,767;  181,879;31384,670;24,29234
 331,71; 7536,906;  180,033;30840,773;23,99444
 332,30; 7386,451;  201,263;30513,538;23,70389
 332,89; 7286,707;  251,339;29853,004;23,76680
 333,49; 7038,648;  193,725;29360,170;23,46848
 334,08; 6850,660;  191,879;28852,042;23,23358
 334,68; 6744,466;  183,879;28470,875;23,19294
 335,27; 6615,939;  207,646;28061,551;23,00680
 335,86; 6516,306;  242,264;27758,670;22,80110
 336,46; 6369,871;  198,954;27412,880;22,67559
 337,05; 6243,204;  184,956;27302,884;22,34038
 337,65; 6203,247;  173,264;27034,230;22,44887
 338,24; 6200,851;  222,955;27085,038;22,25403
 338,83; 6122,156;  204,801;26985,781;22,09536
 339,43; 6104,585;  176,264;27007,948;22,09448
 340,02; 6046,927;  172,418;26819,350;22,04572
 340,61; 5999,845;  199,263;26869,734;21,74908
 341,21; 6029,619;  221,726;26907,986;21,76361
 341,80; 5990,250;  192,418;26842,333;21,75554
 342,40; 5950,256;  190,108;26908,012;21,55913
 342,99; 5917,323;  183,262;27124,927;21,28324
 343,58; 5940,458;  174,416;27215,521;21,32325
 344,18; 5951,772;  202,031;27425,670;21,12040
 344,77; 5987,813;  168,342;27631,055;21,19044
 345,36; 6021,251;  170,187;27880,046;21,11546
 345,96; 6123,560;  209,878;28225,999;21,10814
 346,55; 6122,752;  160,414;28529,653;21,01691
 347,14; 6208,985;  170,415;28847,768;21,05693
 347,74; 6285,572;  151,567;29286,025;21,05412
 348,33; 6373,544;  183,259;29809,653;20,89449
 348,92; 6503,908;  191,412;30461,670;20,85379
 349,52; 6571,775;  163,028;30981,773;20,79496
 350,11; 6639,191;  178,495;31156,136;20,85600
 350,70; 6656,885;  172,955;31370,055;20,78376
 351,29; 6603,727;  167,652;30998,482;20,87545
 351,89; 6625,747;  189,035;31043,016;20,86185
 352,48; 6617,079;  165,263;31080,991;20,86904
 353,07; 6600,705;  199,877;31018,525;20,76934
 353,67; 6617,773;  208,720;30924,636;20,86558
 354,26; 6564,074;  182,492;30742,969;20,88181
 354,85; 6547,698;  191,185;30553,794;20,93533
 355,45; 6511,835;  167,879;30387,704;20,99269
 356,04; 6517,327;  176,107;30300,521;21,05010
 356,63; 6529,952;  215,340;30143,683;21,09910
 357,22; 6483,789;  184,651;30004,914;21,12368
 357,82; 6484,740;  184,881;29789,615;21,27990
 358,41; 6472,029;  207,109;29677,551;21,25832
 359,00; 6451,059;  180,264;29523,687;21,37036
 359,60; 6457,685;  188,647;29385,452;21,47166
 360,19; 6451,998;  205,415;29244,627;21,51086
 360,78; 6461,761;  184,264;29115,982;21,69763
 361,37; 6406,118;  188,187;28952,632;21,61673
 361,97; 6442,420;  189,109;28871,525;21,80190
 362,56; 6408,668;  180,034;28572,824;21,93738
 363,15; 6449,958;  252,264;28254,174;22,13311
 363,74; 6350,473;  192,265;27927,153;22,20383
 364,34; 6303,151;  213,341;27511,914;22,30816
 364,93; 6231,637;  173,573;27122,042;22,48018
 365,52; 6166,844;  144,571;26657,209;22,71473
 366,11; 6130,687;  182,803;26510,580;22,59167
 366,71; 6093,161;  182,726;26033,397;22,86376
 367,30; 6053,226;  202,264;25600,875;23,03654
 367,89; 6062,175;  220,031;25410,251;23,19211
 368,48; 6047,418;  196,957;25136,221;23,45883
 369,07; 5947,731;  201,417;24677,978;23,47681
 369,67; 5941,255;  219,342;24411,221;23,65221
 370,26; 5928,214;  180,417;24057,200;24,07275
 370,85; 5892,063;  189,341;23916,469;24,03461
 371,44; 5886,038;  192,802;23630,935;24,29049
 372,03; 5844,010;  167,726;23441,884;24,38878
 372,63; 5806,928;  160,494;23097,204;24,61745
 373,22; 5796,211;  185,186;22806,076;24,80462
 373,81; 5715,050;  157,648;22493,499;24,88109
 374,40; 5724,994;  178,416;22326,768;25,04285
 374,99; 5700,589;  178,110;21951,247;25,36373
 375,59; 5644,834;  171,877;21685,465;25,43954
 376,18; 5714,084;  212,187;21588,978;25,73771
 376,77; 5688,109;  201,109;21345,961;25,94958
 377,36; 5727,103;  220,648;21386,559;26,01567
 377,95; 5715,567;  206,495;21008,080;26,48390
 378,55; 5660,338;  175,185;20865,482;26,51075
 379,14; 5683,552;  198,341;20764,435;26,67114
 379,73; 5716,512;  188,341;20679,533;26,97828
 380,32; 5823,740;  199,648;20785,187;27,32060
 380,91; 5773,784;  168,265;20505,662;27,56262
 381,50; 5816,102;  197,726;20493,781;27,68211
 382,10; 5802,817;  188,033;20415,495;27,75822
 382,69; 5842,361;  166,187;20415,140;28,03194
 383,28; 5922,323;  212,957;20278,243;28,45395
 383,87; 5915,837;  180,803;20158,687;28,70692
 384,46; 5870,697;  164,035;20098,191;28,62756
 385,05; 5986,397;  202,188;20130,657;29,02485
 385,64; 6033,071;  191,111;20107,273;29,33276
 386,24; 6001,522;  157,881;20034,508;29,39956
 386,83; 6178,826;  202,035;20097,307;30,04126
 387,42; 6196,401;  198,034;20214,495;29,96717
 388,01; 6294,268;  204,421;20376,102;30,19008
 388,60; 6436,701;  191,573;20645,700;30,53236
 389,19; 6525,485;  173,731;20876,619;30,68052
 389,78; 6650,929;  179,730;21079,542;30,96295
 390,37; 6869,823;  245,651;21567,854;31,06701
 390,96; 6921,590;  187,497;21720,102;31,27393
 391,56; 7050,011;  195,116;21867,529;31,62959
 392,15; 7138,350;  177,961;22123,550;31,71658
 392,74; 7261,292;  165,656;22259,956;32,11523
 393,33; 7404,983;  183,347;22620,311;32,18633
 393,92; 7631,177;  189,427;22947,576;32,69928
 394,51; 7685,435;  169,347;23210,674;32,62003
 395,10; 7810,749;  202,353;23428,230;32,75827
 395,69; 7904,008;  187,122;23572,315;32,99903
 396,28; 7973,523;  193,046;23641,657;33,18097
 396,87; 8081,877;  200,741;23763,072;33,44803
 397,46; 8177,672;  198,128;23866,734;33,71362
 398,06; 8309,670;  212,746;24134,695;33,84726
 398,65; 8386,547;  191,828;24181,618;34,15919
 399,24; 8507,558;  208,906;24321,503;34,41625
 399,83; 8507,981;  171,684;24319,059;34,52258
 400,42; 8623,795;  215,999;24455,828;34,68587
 401,01; 8682,035;  189,315;24579,165;34,82072
 401,60; 8766,239;  200,942;24618,383;35,07860
 402,19; 8797,894;  214,489;24606,438;35,18950
 402,78; 8830,031;  214,888;24515,643;35,45216
 403,37; 8857,402;  204,440;24392,169;35,77418
 403,96; 8828,573;  205,994;24258,463;35,84904
 404,55; 8874,743;  213,319;24201,147;36,10758
 405,14; 8766,321;  189,797;24097,719;35,87315
 405,73; 8822,760;  211,200;24017,330;36,17371
 406,32; 8909,526;  210,366;23847,172;36,80345
 406,91; 8807,179;  205,150;23610,749;36,75201
 407,50; 8815,430;  210,619;23473,501;36,98945
 408,09; 8766,052;  179,317;23120,120;37,42997
 408,68; 8759,615;  198,628;23067,402;37,43527
 409,27; 8738,013;  183,854;22837,885;37,75999
 409,86; 8758,336;  192,997;22744,676;37,98094
 410,45; 8825,228;  221,449;22600,509;38,44567
 411,04; 8803,469;  227,516;22570,531;38,38315
 411,63; 8739,620;  214,426;22318,946;38,56765
 412,22; 8687,303;  220,876;22082,741;38,72692
 412,81; 8575,381;  216,872;21846,497;38,64380
 413,40; 8507,389;  232,559;21486,489;38,93318
 413,99; 8471,363;  276,330;21131,343;39,29527
 414,58; 8282,736;  198,868;20717,382;39,39792
 415,17; 8244,199;  202,718;20540,377;39,53985
 415,76; 8190,349;  198,723;20346,860;39,66434
 416,35; 8134,702;  185,874;20116,937;39,88160
 416,94; 8205,430;  225,568;20175,971;39,99850
 417,53; 8320,837;  207,257;20432,621;40,11587
 418,12; 8387,441;  206,948;20476,583;40,35836
 418,71; 8583,177;  218,021;20830,454;40,58306
 419,30; 8696,767;  200,024;21000,647;40,84850
 419,89; 8751,531;  184,639;21139,429;40,88274
 420,48; 8940,854;  222,405;21442,613;41,08560
 421,07; 9004,889;  216,251;21448,407;41,39305
 421,66; 9047,479;  184,941;21541,095;41,49875
 422,25; 9074,431;  205,167;21438,937;41,76962
 422,84; 9111,463;  224,397;21543,476;41,68598
 423,43; 9005,621;  212,168;21238,301;41,82154
 424,02; 8940,271;  231,628;21043,172;41,84525
 424,60; 8744,960;  201,392;20533,831;42,01939
 425,19; 8648,594;  211,703;20236,510;42,13219
 425,78; 8729,785;  217,626;20175,442;42,65075
 426,37; 8649,934;  232,085;20050,925;42,47398
 426,96; 8615,753;  206,624;19918,959;42,65922
 427,55; 8573,042;  199,467;19767,762;42,79154
 428,14; 8484,631;  195,158;19549,673;42,82966
 428,73; 8440,561;  216,929;19338,557;43,00696
 429,32; 8486,270;  218,470;19324,100;43,27415
 429,91; 8479,964;  226,160;19366,831;43,12181
 430,50; 8462,286;  228,466;19204,852;43,38982
 431,08; 8394,275;  231,772;19005,087;43,47928
 431,67; 8381,846;  263,463;18962,207;43,41673
 432,26; 8295,921;  269,923;18770,057;43,38346
 432,85; 8184,327;  291,770;18411,160;43,55862
 433,44; 8033,855;  305,845;18063,668;43,51890
 434,03; 7920,323;  316,149;17727,545;43,67354
 434,62; 7735,732;  271,614;17264,989;43,92370
 435,21; 7659,930;  287,923;17079,211;43,90376
 435,79; 7563,860;  290,535;16870,613;43,86786
 436,38; 7581,472;  276,994;16773,698;44,27841
 436,97; 7586,928;  282,686;16719,515;44,43827
 437,56; 7470,320;  278,143;16522,498;44,27493
 438,15; 7443,371;  260,837;16400,241;44,50309
 438,74; 7513,864;  274,067;16463,122;44,72032
 439,33; 7479,672;  249,683;16410,092;44,73890
 439,91; 7526,545;  217,450;16527,489;44,81347
 440,50; 7566,690;  264,835;16518,258;44,92503
 441,09; 7616,040;  270,832;16642,156;44,86630
 441,68; 7671,732;  245,445;16657,322;45,24946
 442,27; 7674,844;  230,908;16633,609;45,38238
 442,86; 7666,314;  205,057;16680,985;45,28581
 443,44; 7708,313;  221,288;16739,976;45,32457
 444,03; 7793,668;  301,826;16785,378;45,45041
 444,62; 7673,502;  224,441;16606,793;45,47004
 445,21; 7611,224;  230,442;16478,895;45,42452
 445,80; 7654,563;  261,747;16379,635;45,86715
 446,39; 7521,522;  281,055;16095,117;45,78499
 446,97; 7402,138;  220,128;15973,656;45,58985
 447,56; 7329,946;  225,126;15675,759;45,98401
 448,15; 7281,922;  227,205;15514,190;46,14852
 448,74; 7158,203;  236,128;15319,861;45,89099
 449,33; 7109,583;  225,588;15159,938;46,09504
 449,91; 7038,718;  221,893;14881,259;46,50150
 450,50; 6923,668;  218,893;14701,182;46,29638
 451,09; 6890,755;  228,662;14577,224;46,43038
 451,68; 6844,482;  246,815;14526,502;46,20316
 452,26; 6787,231;  243,891;14416,541;46,16879
 452,85; 6757,818;  232,045;14236,357;46,59831
 453,44; 6782,409;  249,734;14298,998;46,49835
 454,03; 6748,167;  215,659;14234,959;46,59653
 454,61; 6757,487;  215,426;14233,712;46,66805
 455,20; 6855,029;  237,194;14401,613;46,72154
 455,79; 6853,187;  247,196;14396,801;46,68675
 456,38; 6919,022;  239,115;14480,917;46,90353
 456,97; 6945,834;  231,885;14521,528;46,98472
 457,55; 6942,617;  217,114;14533,011;46,97926
 458,14; 6891,870;  253,039;14534,934;46,48425
 458,73; 6889,233;  238,575;14474,263;46,71820
 459,31; 6933,124;  268,650;14548,340;46,67100
 459,90; 6927,594;  266,190;14576,024;46,55123
 460,49; 7079,307;  332,190;14714,566;46,91239
 461,08; 7027,135;  225,418;14821,831;46,59855
 461,66; 7093,078;  233,881;14804,485;47,07558
 462,25; 7143,945;  237,571;14858,391;47,23657
 462,84; 7149,904;  271,341;14942,699;46,88430
 463,43; 7123,889;  203,107;14914,396;47,04402
 464,01; 7161,555;  227,875;14922,900;47,18386
 464,60; 7162,264;  289,108;14916,310;46,98886
 465,19; 7021,639;  203,644;14633,323;47,24980
 465,77; 7024,772;  234,488;14644,208;47,12294
 466,36; 6968,209;  253,876;14500,596;47,12897
 466,95; 6804,631;  235,491;14160,297;47,17581
 467,53; 6680,860;  231,256;13904,259;47,17035
 468,12; 6565,728;  264,718;13623,195;47,16863
 468,71; 6422,587;  232,643;13386,361;47,05851
 469,29; 6325,713;  209,102;13108,374;47,41826
 469,88; 6195,434;  221,793;12873,810;47,21493
 470,47; 6290,347;  281,329;13000,088;47,24531
 471,06; 6196,713;  237,022;12947,067;46,88962
 471,64; 6298,768;  233,792;13032,571;47,38714
 472,23; 6252,169;  217,710;13049,729;47,02657
 472,81; 6307,905;  210,405;13158,182;47,09303
 473,40; 6383,806;  228,710;13282,644;47,15127
 473,99; 6534,984;  320,172;13507,891;47,12576
 474,57; 6557,670;  231,864;13569,434;47,42848
 475,16; 6568,192;  244,173;13707,849;46,97097
 475,75; 6698,300;  246,093;13878,533;47,32980
 476,33; 6688,271;  249,861;13953,439;46,98342
 476,92; 6708,249;  256,018;14004,336;46,93106
 477,51; 6725,691;  251,939;14140,131;46,61336
 478,09; 6742,048;  247,631;14150,857;46,71158
 478,68; 6702,286;  258,938;14016,819;46,83387
 479,27; 6768,577;  283,401;14136,618;46,81350
 479,85; 6676,317;  253,092;14043,426;46,57773
 480,44; 6673,354;  230,937;14183,015;46,17532
 481,02; 7313,670;  256,397;15469,503;46,38943
 481,61; 8287,764;  276,706;17579,866;46,29824
 482,20; 8794,116;  254,936;18794,122;46,06017
 482,78; 9232,831;  289,553;19617,836;46,27042
 483,37; 9465,894;  275,010;20203,289;46,11980
 483,95; 9629,949;  300,395;20526,956;46,12526
 484,54; 9693,918;  310,629;20749,998;45,90792
 485,13; 9583,425;  271,931;20638,075;45,72046
 485,71; 9502,649;  248,932;20437,114;45,83730
 486,30; 9450,621;  292,932;20118,225;46,19195
 486,88; 9214,970;  339,393;19756,357;45,71042
 487,47; 8850,933;  305,469;18999,951;45,71116
 488,05; 8499,829;  299,930;18136,204;45,97316
 488,64; 7861,748;  282,236;16822,511;45,82458
 489,23; 7034,359;  309,545;14968,763;45,87430
 489,81; 6014,347;  293,544;12807,451;45,71556
 490,40; 5651,382;  247,698;12153,204;45,38811
 490,98; 5515,475;  242,851;11883,187;45,29615
 491,57; 5489,015;  268,775;11811,644;45,22480
 492,15; 5432,896;  249,774;11741,426;45,10337
 492,74; 5397,014;  269,622;11602,755;45,24250
 493,32; 5363,225;  278,159;11485,375;45,37315
 493,91; 5303,740;  253,927;11425,618;45,20187
 494,50; 5299,263;  258,078;11390,601;45,28341
 495,08; 5207,629;  238,001;11299,943;44,92546
 495,67; 5229,432;  266,389;11347,058;44,79011
 496,25; 5117,825;  210,002;11181,105;44,73409
 496,84; 5117,195;  223,158;11147,524;44,79928
 497,42; 5053,450;  213,232;11127,631;44,34709
 498,01; 5092,882;  252,004;11103,571;44,60994
 498,59; 5018,220;  216,232;11009,652;44,48995
 499,18; 4961,270;  219,850;10958,695;44,15205
 499,76; 4925,194;  243,310;10887,110;43,98696
 500,35; 4859,393;  235,923;10681,110;44,26412
 500,93; 4790,468;  225,617;10649,729;43,79127
 501,52; 4730,235;  227,463;10557,033;43,59109
 502,10; 4728,438;  229,922;10562,332;43,53792
 502,69; 4631,900;  226,536;10390,879;43,34136
 503,27; 4507,784;  213,308;10160,811;43,17139
 503,86; 4473,371;  226,690;10117,319;42,93640
 504,44; 4413,092;  198,920; 9980,832;43,08127
 505,03; 4301,027;  189,612; 9763,187;42,94545
 505,61; 4243,060;  214,305; 9626,644;42,80291
 506,19; 4144,916;  228,305; 9506,148;42,21467
 506,78; 4054,937;  197,995; 9318,823;42,28719
 507,36; 3980,292;  202,305; 9169,435;42,13150
 507,95; 3903,018;  206,609; 8967,935;42,19006
 508,53; 3850,248;  200,457; 8839,080;42,24969
 509,12; 3745,765;  219,917; 8732,153;41,42094
 509,70; 3708,766;  233,301; 8577,503;41,65125
 510,29; 3641,816;  242,531; 8439,392;41,47057
 510,87; 3539,762;  205,533; 8183,986;41,79041
 511,46; 3465,854;  189,533; 8086,332;41,48923
 512,04; 3381,222;  205,686; 7932,627;41,09693
 512,62; 3356,134;  209,918; 7792,058;41,49510
 513,21; 3236,875;  196,454; 7627,370;40,91582
 513,79; 3214,878;  203,297; 7534,648;41,07812
 514,38; 3117,114;  191,990; 7356,845;40,82600
 514,96; 3121,714;  225,683; 7260,366;41,16789
 515,54; 2996,511;  189,990; 7101,935;40,60394
 516,13; 2960,410;  216,759; 7077,247;39,99207
 516,71; 2889,150;  199,219; 6900,285;40,14184
 517,30; 2815,834;  189,602; 6777,909;39,86202
 517,88; 2812,493;  217,833; 6696,640;40,04842
 518,46; 2716,616;  189,756; 6589,999;39,48070
 519,05; 2703,621;  202,139; 6529,725;39,53295
 519,63; 2693,402;  208,063; 6461,883;39,74113
 520,22; 2647,096;  236,291; 6396,901;39,13257
 520,80; 2590,561;  208,599; 6356,563;38,74391
 521,38; 2581,304;  249,677; 6324,495;38,38184
 521,97; 2524,642;  209,598; 6288,674;38,08217
 522,55; 2503,682;  221,444; 6249,687;37,85909
 523,13; 2476,209;  193,905; 6226,473;37,83304
 523,72; 2443,429;  201,756; 6181,499;37,48778
 524,30; 2513,357;  226,366; 6308,794;37,59998
 524,89; 2469,722;  189,905; 6273,875;37,47252
 525,47; 2494,247;  223,134; 6436,029;36,55483
 526,05; 2474,850;  185,826; 6496,311;36,27335
 526,64; 2548,642;  235,903; 6544,114;36,66236
 527,22; 2555,878;  223,904; 6686,717;36,08296
 527,80; 2624,263;  252,441; 6790,704;36,27603
 528,39; 2617,122;  215,440; 6899,738;35,93021
 528,97; 2587,541;  217,518; 7022,426;34,82813
 529,55; 2677,233;  229,520; 7231,490;34,95749
 530,14; 2715,160;  228,209; 7420,922;34,57598
 530,72; 2754,282;  213,672; 7478,076;34,97342
 531,30; 2764,086;  183,747; 7650,123;34,55946
 531,89; 2793,908;  206,363; 7726,644;34,40756
 532,47; 2812,601;  243,593; 7835,225;33,83999
 533,05; 2792,291;  239,903; 7874,131;33,43348
 533,63; 2838,779;  234,747; 7890,418;34,01443
 534,22; 2811,047;  205,131; 7928,713;33,73974
 534,80; 2851,849;  238,822; 8044,909;33,47422
 535,38; 2931,588;  320,516; 8141,619;33,38496
 535,97; 2827,444;  210,516; 8068,277;33,30373
 536,55; 2892,787;  273,514; 8157,157;33,22415
 537,13; 2828,708;  276,440; 8150,866;32,41211
 537,71; 2882,628;  310,132; 8166,896;32,74243
 538,30; 2879,829;  325,669; 8256,648;32,20485
 538,88; 2910,708;  354,052; 8327,755;32,06361
 539,46; 2971,658;  408,899; 8514,845;31,61579
 540,05; 3020,040;  403,975; 8620,114;31,84057
 540,63; 3052,203;  457,975; 8814,059;31,04598
 541,21; 3102,724;  482,589; 8956,486;30,92007
 541,79; 3124,700;  507,436; 9126,469;30,36610
 542,38; 3162,883;  539,360; 9204,913;30,27531
 542,96; 3227,501;  556,588; 9376,337;30,28332
 543,54; 3258,118;  570,282; 9579,255;29,83510
 544,12; 3277,328;  529,435; 9696,845;29,97458
 544,70; 3280,341;  511,204; 9855,285;29,63520
 545,29; 3350,252;  522,668; 9943,533;30,01407
 545,87; 3345,700;  520,743; 9958,777;29,93162
 546,45; 3302,695;  476,206; 9995,260;29,69296
 547,03; 3300,364;  450,282;10089,230;29,56839
 547,62; 3293,128;  417,974;10221,298;29,32835
 548,20; 3377,048;  428,819;10364,644;29,67272
 548,78; 3349,328;  388,124;10462,580;29,39319
 549,36; 3380,368;  369,740;10717,879;29,09343
 549,94; 3373,826;  330,820;10753,931;29,19480
 550,53; 3441,789;  327,432;11007,285;29,16104
 551,11; 3465,237;  309,508;11176,781;29,03883
 551,69; 3520,577;  320,355;11465,273;28,71463
 552,27; 3525,090;  271,818;11710,093;28,44198
 552,85; 3614,649;  280,585;12103,593;28,19979
 553,44; 3666,900;  286,663;12378,961;27,95364
 554,02; 3736,710;  300,124;12654,093;27,81767
 554,60; 3763,997;  233,585;12918,320;27,83197
 555,18; 3874,343;  265,355;13307,016;27,67277
 555,76; 3905,799;  260,893;13653,371;27,21607
 556,34; 3997,238;  275,430;13991,273;27,13510
 556,93; 4074,697;  262,201;14388,948;26,98779
 557,51; 4126,543;  232,891;14755,170;26,81157
 558,09; 4176,814;  265,740;15098,345;26,36809
 558,67; 4261,165;  261,429;15430,691;26,36738
 559,25; 4332,602;  270,968;15672,170;26,37219
 559,83; 4365,194;  237,582;16057,644;26,09100
 560,41; 4416,256;  243,199;16329,657;25,94143
 561,00; 4490,498;  255,967;16659,478;25,81478
 561,58; 4538,748;  238,584;16947,418;25,73587
 562,16; 4584,427;  242,969;17243,768;25,53679
 562,74; 4650,055;  223,508;17582,388;25,50018
 563,32; 4727,298;  210,043;18026,918;25,35380
 563,90; 4764,024;  249,583;18359,508;24,92799
 564,48; 4918,966;  249,200;18754,734;25,23443
 565,06; 5016,802;  242,506;19298,508;25,05403
 565,65; 5124,472;  246,888;19959,760;24,74314
 566,23; 5348,611;  296,736;20662,926;24,80520
 566,81; 5468,245;  245,660;21389,059;24,70078
 567,39; 5697,139;  256,197;22319,811;24,66025
 567,97; 5843,553;  266,198;22873,619;24,67046
 568,55; 6049,969;  280,582;23783,234;24,54781
 569,13; 6194,378;  243,813;24431,824;24,60130
 569,71; 6357,378;  243,893;25404,965;24,29740
 570,29; 6585,790;  278,893;26342,713;24,19790
 570,87; 6774,892;  285,354;27066,849;24,23142
 571,45; 6863,836;  267,198;27717,085;24,03157
 572,03; 6900,047;  235,274;28116,067;23,90453
 572,61; 7083,753;  222,274;28951,153;23,88356
 573,20; 7232,949;  257,430;29551,008;23,81245
 573,78; 7342,849;  243,890;30118,426;23,76258
 574,36; 7453,778;  262,505;30688,687;23,63515
 574,94; 7528,339;  321,427;31016,324;23,47919
 575,52; 7497,723;  249,810;31214,294;23,40718
 576,10; 7616,913;  303,887;31765,832;23,24403
 576,68; 7719,010;  298,581;32340,773;23,15831
 577,26; 7832,274;  307,963;33090,559;22,95215
 577,84; 7872,169;  313,198;33542,837;22,74768
 578,42; 7972,404;  358,965;33877,397;22,71419
 579,00; 7900,092;  313,197;33915,396;22,57857
 579,58; 7896,939;  358,042;34096,174;22,34533
 580,16; 7821,045;  308,195;34110,435;22,22589
 580,74; 7811,448;  316,195;34375,401;22,00654
 581,32; 7808,210;  322,273;34369,747;21,98676
 581,90; 7729,906;  329,272;34303,123;21,78332
 582,48; 7682,057;  328,272;34453,713;21,54927
 583,06; 7682,718;  318,273;34590,426;21,48813
 583,64; 7645,699;  324,889;34648,614;21,32872
 584,22; 7493,462;  342,040;34468,170;20,95585
 584,80; 7363,324;  336,965;34092,063;20,81570
 585,38; 7234,204;  355,353;33784,696;20,57729
 585,96; 7185,502;  315,735;33751,666;20,54606
 586,54; 7145,760;  348,733;33736,897;20,35759
 587,12; 7087,651;  309,118;33973,303;20,13574
 587,70; 7089,289;  337,812;34128,093;19,98053
 588,28; 7073,679;  313,272;34026,730;20,05255
 588,86; 7027,289;  321,502;34187,085;19,80118
 589,44; 6922,078;  299,423;34186,969;19,54303
 590,02; 6919,859;  309,347;34351,666;19,41851
 590,59; 6895,390;  284,964;34578,662;19,27592
 591,17; 6902,637;  303,729;34693,392;19,18864
 591,75; 6849,439;  278,884;34799,016;19,03398
 592,33; 6891,402;  308,962;35008,140;18,97002
 592,91; 6857,058;  255,499;35236,029;18,87210
 593,49; 6844,013;  267,883;35565,798;18,63036
 594,07; 6844,951;  287,883;35788,794;18,47014
 594,65; 6856,969;  300,271;35772,234;18,48417
 595,23; 6831,542;  283,270;36175,414;18,24430
 595,81; 6800,340;  296,116;36321,884;18,05437
 596,39; 6797,103;  287,423;36461,525;17,99541
 596,97; 6801,034;  275,576;36559,935;17,98422
 597,55; 6749,613;  274,194;36480,627;17,88472
 598,12; 6667,426;  245,497;36512,422;17,70740
 598,70; 6623,157;  245,191;36662,042;17,51378
 599,28; 6633,271;  283,268;36867,952;17,35700
 599,86; 6598,803;  254,499;36829,033;17,34623
 600,44; 6562,804;  241,883;36966,538;17,21166
 601,02; 6606,372;  294,496;36932,542;17,22766
 601,60; 6546,270;  272,500;36973,021;17,09450
 602,18; 6459,432;  247,113;36930,397;16,93501
 602,75; 6459,629;  250,654;37065,533;16,86539
 603,33; 6445,296;  264,960;37078,508;16,78821
 603,91; 6362,670;  243,035;37002,533;16,64776
 604,49; 6381,253;  282,883;37014,085;16,60270
 605,07; 6314,697;  284,884;37183,136;16,34173
 605,65; 6316,755;  295,267;37189,832;16,32080
 606,23; 6339,042;  350,041;37287,012;16,21411
 606,80; 6223,220;  384,885;37392,670;15,77596
 607,38; 6197,005;  421,958;37380,170;15,62588
 607,96; 6207,235;  461,808;37486,820;15,51769
 608,54; 6230,038;  524,959;37474,354;15,44025
 609,12; 6195,103;  539,270;37559,580;15,27765
 609,70; 6187,243;  571,960;37639,811;15,14866
 610,27; 6124,090;  564,655;37785,358;14,93641
 610,85; 6085,274;  585,114;37749,956;14,79936
 611,43; 6063,452;  582,806;37736,841;14,75115
 612,01; 5966,528;  548,577;37484,273;14,66860
 612,59; 5969,231;  556,806;37576,841;14,62026
 613,16; 5880,948;  524,194;37437,341;14,51178
 613,74; 5832,717;  490,268;37386,495;14,47966
 614,32; 5797,905;  458,882;37316,730;14,48544
 614,90; 5764,258;  435,038;37231,995;14,48277
 615,48; 5652,933;  373,040;36866,751;14,46795
 616,05; 5626,677;  343,348;36856,845;14,46952
 616,63; 5625,959;  365,733;36721,862;14,46861
 617,21; 5536,155;  348,193;36611,311;14,30644
 617,79; 5493,691;  343,885;36569,405;14,21596
 618,36; 5444,750;  342,807;36469,119;14,12251
 618,94; 5335,373;  295,886;36158,627;14,05215
 619,52; 5261,141;  312,425;35846,388;13,92672
 620,10; 5240,087;  292,039;35860,123;13,91148
 620,67; 5215,689;  298,349;35807,388;13,84814
 621,25; 5179,565;  324,807;35706,204;13,72122
 621,83; 5131,847;  303,117;35599,982;13,68034
 622,41; 5109,800;  359,501;35657,281;13,45778
 622,98; 5021,590;  317,503;35302,550;13,44599
 623,56; 5016,307;  318,272;35275,700;13,43930
 624,14; 4945,809;  306,191;35161,063;13,31125
 624,72; 4884,028;  301,424;35078,179;13,17720
 625,29; 4880,882;  285,810;35174,072;13,17082
 625,87; 4874,561;  332,731;35105,191;13,06157
 626,45; 4797,476;  287,042;34915,213;13,02533
 627,02; 4740,414;  292,346;34950,879;12,83398
 627,60; 4714,896;  271,267;34878,764;12,84007
 628,18; 4680,487;  258,270;34918,965;12,75859
 628,76; 4654,070;  265,041;34954,439;12,65236
 629,33; 4669,369;  292,963;34885,867;12,65117
 629,91; 4656,395;  276,962;34917,431;12,64253
 630,49; 4648,154;  291,117;35059,687;12,53154
 631,06; 4623,332;  289,195;35196,452;12,41615
 631,64; 4604,494;  288,888;35120,640;12,38986
 632,22; 4538,992;  248,811;35036,563;12,33245
 632,79; 4564,490;  282,427;35309,704;12,22494
 633,37; 4554,679;  252,577;35401,709;12,23957
 633,95; 4548,466;  262,657;35488,114;12,16680
 634,52; 4528,582;  246,578;35618,944;12,10551
 635,10; 4474,866;  264,039;35689,738;11,88636
 635,68; 4517,235;  264,504;35817,610;11,96163
 636,25; 4449,840;  248,351;35772,503;11,82713
 636,83; 4465,916;  228,964;35999,593;11,84478
 637,41; 4452,942;  249,273;36041,354;11,74469
 637,98; 4469,333;  283,504;36243,636;11,64019
 638,56; 4454,089;  264,044;36299,657;11,62751
 639,13; 4425,864;  242,349;36295,589;11,60371
 639,71; 4476,701;  312,810;36469,841;11,51613
 640,29; 4362,171;  224,194;36269,643;11,47989
 640,86; 4381,320;  241,348;36562,378;11,39828
 641,44; 4361,007;  240,810;36416,421;11,38943
 642,02; 4376,309;  268,117;36501,617;11,33810
 642,59; 4332,304;  241,117;36507,968;11,28079
 643,17; 4305,837;  242,656;36583,780;11,18067
 643,74; 4323,217;  243,425;36595,976;11,22285
 644,32; 4295,365;  270,809;36562,865;11,08936
 644,89; 4310,206;  263,963;36575,523;11,14313
 645,47; 4293,509;  266,886;36564,951;11,09322
 646,05; 4263,888;  263,502;36439,147;11,05823
 646,62; 4248,421;  248,117;36521,421;11,02823
 647,20; 4234,801;  254,732;36625,464;10,94305
 647,77; 4210,411;  233,271;36563,429;10,94721
 648,35; 4190,252;  230,886;36454,011;10,93049
 648,92; 4198,631;  254,040;36523,592;10,87576
 649,50; 4087,933;  220,886;36442,327;10,67613
 650,08; 4108,390;  220,886;36275,985;10,78212
 650,65; 4098,154;  236,039;36535,335;10,63964
 651,23; 4156,687;  213,193;37329,378;10,62473
 651,80; 4279,835;  217,193;38230,959;10,68729
 652,38; 4349,984;  230,809;38683,233;10,71239
 652,95; 4382,902;  216,885;39039,891;10,73079
 653,53; 4386,666;  243,116;39355,241;10,59403
 654,10; 4463,738;  269,347;39470,284;10,69972
 654,68; 4399,425;  215,885;39351,865;10,68975
 655,25; 4363,727;  215,577;39531,139;10,55091
 655,83; 4343,953;  211,654;39701,489;10,46421
 656,40; 4389,024;  262,347;39471,994;10,52465
 656,98; 4347,096;  218,116;39510,806;10,50827
 657,55; 4309,706;  228,039;39312,694;10,44314
 658,13; 4234,316;  223,423;38933,891;10,36126
 658,70; 4230,157;  250,500;38701,780;10,34987
 659,28; 4096,536;  231,192;37787,977;10,29200
 659,85; 3992,147;  247,962;36911,327;10,21233
 660,43; 4015,757;  245,577;37010,600;10,25480
 661,00; 3982,367;  217,038;37113,336;10,20517
 661,58; 3997,054;  226,808;37430,224;10,13414
 662,15; 4018,510;  214,038;37623,575;10,16979
 662,73; 4121,505;  296,269;37994,771;10,14692
 663,30; 4055,269;  233,346;38122,814;10,08703
 663,88; 4102,110;  238,115;38285,165;10,15583
 664,45; 4131,489;  221,192;38475,515;10,22184
 665,03; 4157,022;  225,192;38934,096;10,15743
 665,60; 4258,863;  315,961;39296,524;10,11505
 666,17; 4205,396;  231,730;39435,643;10,13589
 666,75; 4225,930;  237,884;39837,917;10,07081
 667,32; 4294,309;  257,422;40136,652;10,12278
 667,90; 4314,611;  248,576;40373,925;10,13333
 668,47; 4321,991;  254,268;40711,507;10,05438
 669,05; 4335,755;  238,422;41041,319;10,04177
 669,62; 4359,134;  215,268;41094,207;10,13692
 670,19; 4326,514;  207,576;41221,096;10,04288
 670,77; 4365,970;  225,191;41436,831;10,04759
 671,34; 4389,965;  222,653;41280,489;10,14986
 671,92; 4407,344;  223,268;41671,994;10,09458
 672,49; 4387,493;  249,114;41653,036; 9,99514
 673,06; 4394,872;  180,576;41684,848;10,15389
 673,64; 4376,559;  209,037;41721,814;10,03913
 674,21; 4395,708;  198,806;41601,780;10,13671
 674,79; 4439,164;  237,498;41879,361;10,09000
 675,36; 4452,697;  243,345;41950,096;10,09274
 675,93; 4426,769;  207,883;41798,447;10,14385
 676,51; 4459,610;  233,883;41996,797;10,11837
 677,08; 4460,681;  238,267;42145,609;10,07559
 677,65; 4468,061;  227,344;42244,575;10,09280
 678,23; 4516,671;  235,806;42378,002;10,15814
 678,80; 4539,742;  226,344;42468,276;10,21118
 679,38; 4558,199;  215,421;42651,934;10,23359
 679,95; 4588,347;  226,498;42874,669;10,22752
 680,52; 4612,496;  226,806;43211,404;10,20293
 681,10; 4672,491;  242,344;43619,908;10,21299
 681,67; 4687,793;  240,652;43908,336;10,18406
 682,24; 4696,788;  205,882;43960,840;10,26376
 682,82; 4789,783;  215,113;44518,267;10,32583
 683,39; 4903,700;  261,805;44947,541;10,38787
 683,96; 4904,080;  228,113;45163,353;10,40601
 684,54; 4921,382;  214,882;45566,549;10,37779
 685,11; 4961,377;  261,574;45995,977;10,27630
 685,68; 5053,603;  220,343;46347,635;10,47809
 686,25; 5045,674;  209,574;46329,678;10,48588
 686,83; 5122,900;  224,266;46587,182;10,56584
 687,40; 5142,279;  205,805;46909,071;10,56987
 687,97; 5230,197;  262,882;47309,114;10,55837
 688,55; 5197,499;  212,266;47325,926;10,58129
 689,12; 5223,417;  191,728;47588,045;10,61620
 689,69; 5273,489;  201,497;47694,703;10,67941
 690,26; 5268,099;  218,035;47746,208;10,62541
 690,84; 5296,248;  217,112;48066,327;10,61488
 691,41; 5367,550;  228,343;48172,062;10,71925
 691,98; 5444,545;  228,189;48503,951;10,80533
 692,56; 5399,693;  220,650;48556,763;10,71465
 693,13; 5504,842;  276,573;48519,652;10,83734
 693,70; 5516,914;  239,343;48637,233;10,90455
 694,27; 5485,831;  216,419;48796,430;10,84687
 694,84; 5531,211;  213,189;48898,011;10,92337
 695,42; 5635,359;  261,650;49019,361;11,02125
 695,99; 5623,585;  217,727;49180,327;11,04079
 696,56; 5601,349;  216,496;49034,062;11,03056
 697,13; 5702,344;  232,650;49420,720;11,11996
 697,71; 5679,108;  209,727;49394,686;11,12003
 698,28; 5744,102;  217,727;49714,037;11,16523
 698,85; 5734,943;  199,727;49725,003;11,17655
 699,42; 5807,015;  202,342;49934,584;11,26970
 699,99; 5838,702;  240,803;50030,319;11,24313
 700,57; 5879,235;  232,342;50115,362;11,32027
 701,14; 5900,153;  206,573;50235,712;11,38053
 701,71; 5973,071;  232,803;50426,062;11,43633
 702,28; 5980,219;  229,034;50475,259;11,44601
 702,85; 6029,137;  224,495;50574,686;11,52854
 703,43; 6117,132;  251,342;50838,037;11,59552
 704,00; 6153,358;  245,726;50977,849;11,64476
 704,57; 6116,429;  235,188;51011,738;11,58259
 705,14; 6194,424;  252,880;51250,088;11,65072
 705,71; 6248,342;  259,880;51277,054;11,73813
 706,28; 6234,106;  231,880;51163,327;11,78491
 706,86; 6343,793;  260,187;51476,755;11,87820
 707,43; 6367,172;  289,957;51421,721;11,88540
 708,00; 6355,782;  259,803;51456,071;11,90708
 708,57; 6364,546;  234,956;51246,421;12,01610
 709,14; 6408,695;  261,879;51501,926;11,99612
 709,71; 6412,844;  241,572;51586,738;12,01919
 710,28; 6465,454;  236,418;51710,165;12,10138
 710,86; 6515,679;  244,725;51954,054;12,12732
 711,43; 6578,366;  267,495;51845,866;12,23550
 712,00; 6588,669;  249,494;51973,447;12,25578
 712,57; 6680,510;  261,802;52051,182;12,39387
 713,14; 6719,966;  234,417;52193,994;12,48191
 713,71; 6765,499;  246,802;52137,652;12,56232
 714,28; 6732,340;  235,033;52217,926;12,49893
 714,85; 6744,719;  221,110;51842,968;12,63730
 715,42; 6800,329;  225,417;52187,396;12,65331
 716,00; 6915,170;  300,033;52292,977;12,72315
 716,57; 6872,011;  233,263;52374,943;12,73213
 717,14; 6890,391;  211,725;52272,447;12,82861
 717,71; 7006,462;  212,725;52283,874;13,04703
 718,28; 7019,765;  265,955;52493,917;12,93141
 718,85; 7026,683;  204,955;52412,575;13,06654
 719,42; 7106,447;  241,878;52662,080;13,09527
 719,99; 7110,287;  219,571;52385,892;13,20913
 720,56; 7133,821;  243,417;52752,242;13,12237
 721,13; 7176,662;  217,032;52790,823;13,23783
 721,70; 7233,656;  203,724;52633,174;13,40837
 722,27; 7286,805;  232,186;52831,601;13,41197
 722,84; 7406,723;  288,493;52843,721;13,54428
 723,41; 7350,564;  208,032;52888,686;13,55817
 723,98; 7425,020;  221,570;53198,268;13,59739
 724,55; 7452,015;  256,724;53259,772;13,57524
 725,12; 7464,163;  181,185;53261,738;13,72061
 725,69; 7546,696;  208,570;53273,627;13,82855
 726,27; 7536,922;  221,570;53351,208;13,76887
 726,84; 7660,917;  233,031;53717,558;13,88791
 727,41; 7707,450;  241,262;53692,986;13,96810
 727,98; 7777,137;  235,493;53909,259;14,05089
 728,55; 7816,901;  274,339;53881,456;14,07008
 729,12; 7840,511;  209,185;54031,575;14,17872
 729,69; 7928,429;  235,339;54118,464;14,27736
 730,26; 7922,501;  239,108;54533,507;14,15135
 730,82; 7997,495;  229,569;54254,781;14,37834
 731,39; 8075,644;  229,031;54317,746;14,50693
 731,96; 8142,793;  214,800;54680,251;14,55600
 732,53; 8212,787;  236,185;54873,678;14,59914
 733,10; 8301,782;  243,031;54889,028;14,74719
 733,67; 8333,238;  236,184;55261,302;14,71520
 734,24; 8294,925;  217,031;54871,499;14,77994
 734,81; 8377,536;  259,492;54910,464;14,85434
 735,38; 8398,530;  232,954;54665,661;15,00123
 735,95; 8396,063;  228,107;54563,473;15,03249
 736,52; 8460,981;  236,723;54779,823;15,07846
 737,09; 8472,591;  248,646;54388,712;15,19013
 737,66; 8621,432;  286,030;54600,140;15,34666
 738,23; 8567,427;  226,030;54758,721;15,29614
 738,80; 8740,730;  307,722;55002,148;15,41840
 739,37; 8748,955;  261,645;55128,652;15,46888
 739,94; 8844,565;  236,953;55163,387;15,67117
 740,51; 8932,098;  366,338;55300,507;15,59277
 741,07; 8893,939;  233,722;55208,781;15,75299
 741,64; 8986,780;  273,107;55394,054;15,80828
 742,21; 8999,852;  238,722;55571,558;15,83351
 742,78; 8975,616;  213,030;55299,755;15,90689
 743,35; 9061,534;  232,183;55646,105;15,93345
 743,92; 9177,375;  280,876;55889,379;15,99845
 744,49; 9199,908;  273,183;55738,191;16,09434
 745,06; 9212,672;  230,568;55709,695;16,19006
 745,63; 9210,359;  223,029;55595,276;16,23075
 746,19; 9246,892;  227,183;55560,858;16,30058
 746,76; 9367,733;  236,798;55580,516;16,49859
 747,33; 9423,574;  243,183;55549,020;16,59932
 747,90; 9495,184;  263,798;55781,140;16,62793
 748,47; 9516,025;  240,875;55719,336;16,71847
 749,04; 9577,020;  244,567;55769,148;16,80779
 749,61; 9664,322;  279,183;55687,729;16,93807
 750,17; 9670,778;  265,413;55746,234;16,95246
 750,74; 9705,004;  251,875;55801,200;17,01754
 751,31; 9719,383;  232,413;55590,319;17,13752
 751,88; 9747,301;  216,336;55543,208;17,22665
 752,45; 9881,450;  231,490;55604,251;17,42727
 753,02; 9862,521;  260,413;55423,140;17,40688
 753,58; 9884,055;  232,490;55410,875;17,49157
 754,15;10002,126;  219,028;55610,918;17,66161
 754,72; 9928,659;  230,028;55382,806;17,58503
 755,29; 9996,193;  221,721;55210,541;17,77538
 755,86;10057,341;  253,490;55419,430;17,77157
 756,42;10089,721;  251,336;55133,781;17,92629
 756,99;10129,792;  215,182;55231,285;18,02129
 757,56;10171,941;  229,874;55230,405;18,07631
 758,13;10139,089;  179,951;55113,447;18,12945
 758,70;10271,623;  215,489;55279,875;18,26250
 759,26;10260,387;  202,643;55239,687;18,27450
 759,83;10335,997;  227,028;55372,883;18,33133
 760,40;10372,222;  210,566;55218,311;18,47314
 760,97;10367,371;  206,489;55244,353;18,46162
 761,53;10431,519;  185,643;54956,396;18,70684
 762,10;10474,976;  186,412;54850,362;18,82148
 762,67;10550,663;  214,489;54907,097;18,89867
 763,24;10443,042;  173,874;54437,601;18,92455
 763,80;10546,652;  207,797;54611,798;19,00385
 764,37;10594,647;  211,181;54580,148;19,09815
 764,94;10572,950;  197,258;54198,499;19,21380
 765,50;10565,867;  205,335;54206,695;19,18569
 766,07;10674,170;  237,489;54177,507;19,34868
 766,64;10672,934;  214,719;53884,319;19,48629
 767,21;10692,005;  213,873;53796,977;19,55492
 767,77;10768,385;  234,719;53682,943;19,70817
 768,34;10727,995;  223,950;53621,448;19,67142
 768,91;10773,144;  233,719;53493,260;19,78880
 769,47;10863,446;  232,488;53468,072;19,96965
 770,04;10874,364;  245,719;53389,037;19,99996
 770,61;10886,435;  219,180;53037,695;20,19605
 771,18;10851,276;  211,334;53017,969;20,14887
 771,74;10910,887;  226,873;53148,935;20,18820
 772,31;10950,189;  236,103;52924,131;20,33495
 772,88;10891,491;  205,796;52656,174;20,37296
 773,44;10919,178;  202,565;52564,832;20,46629
 774,01;10982,866;  233,796;52605,952;20,52440
 774,58;10977,399;  215,642;52376,456;20,63188
 775,14;11032,317;  208,411;52458,191;20,71570
 775,71;11023,388;  210,795;52348,926;20,73836
 776,27;11126,537;  273,641;52254,661;20,87857
 776,84;11259,378;  312,180;52286,243;21,06281
 777,41;11237,219;  226,411;52017,901;21,25988
 777,97;11139,675;  215,795;51779,713;21,18512
 778,54;11222,054;  231,641;52002,294;21,22904
 779,11;11260,895;  260,641;51813,490;21,33782
 779,67;11268,967;  216,487;51780,072;21,43466
 780,24;11329,577;  231,949;51504,576;21,64435
 780,80;11311,418;  235,949;51658,234;21,53827
 781,37;11379,413;  237,795;51581,200;21,70019
 781,94;11354,177;  230,948;51445,858;21,71873
 782,50;11428,633;  228,179;51259,670;21,94812
 783,07;11430,089;  257,564;51261,097;21,90539
 783,63;11447,622;  221,871;51107,909;22,06057
 784,20;11467,617;  248,179;51014,798;22,10003
 784,77;11429,381;  232,410;50773,302;22,15428
 785,33;11480,684;  210,102;50667,037;22,33703
 785,90;11455,140;  228,102;50623,926;22,27771
 786,46;11473,596;  256,102;50497,815;22,32705
 787,03;11540,591;  228,102;50236,243;22,62130
 787,59;11543,893;  232,563;50226,978;22,62519
 788,16;11574,273;  235,871;50217,020;22,68536
 788,73;11597,575;  236,409;50094,217;22,78713
 789,29;11480,954;  230,640;49793,875;22,69891
 789,86;11505,795;  258,178;49607,226;22,79196
 790,42;11525,329;  238,101;49520,038;22,90338
 790,99;11502,785;  241,871;49234,388;22,98497
 791,55;11570,010;  233,255;49198,969;23,15244
 792,12;11549,851;  270,794;49232,320;23,03657
 792,68;11532,000;  239,178;48915,901;23,19963
 793,25;11531,379;  249,409;48664,020;23,30282
 793,81;11526,451;  318,486;48265,909;23,37553
 794,38;11394,984;  209,870;48136,952;23,33777
 794,94;11423,056;  239,870;48136,610;23,34853
 795,51;11443,358;  243,255;47862,730;23,52001
 796,07;11414,815;  234,101;47650,696;23,57975
 796,64;11428,271;  262,870;47746,046;23,51444
 797,20;11340,804;  246,178;47193,089;23,63228
 797,77;11223,260;  215,408;46881,670;23,58846
 798,33;11282,101;  244,177;46734,251;23,74254
 798,90;11337,788;  251,485;46698,063;23,86893
 799,46;11262,168;  221,947;46181,798;24,02145
 800,03;11233,085;  244,100;46101,918;23,96317
 800,59;11227,234;  259,254;45974,191;23,99211
 801,15;11262,844;  253,023;45733,850;24,20761
 801,72;11119,147;  240,946;45340,585;24,12037
 802,28;11071,834;  267,946;45057,089;24,12167
 802,85;11134,905;  238,254;44917,132;24,38882
 803,41;11127,977;  228,562;44717,636;24,49908
 803,98;11081,972;  231,946;44265,909;24,64013
 804,54;11067,120;  234,331;44154,568;24,66469
 805,11;11011,731;  247,715;43862,841;24,67955
 805,67;11037,648;  262,254;43846,653;24,72305
 806,23;10932,028;  249,177;43371,003;24,77365
 806,80;10998,484;  260,023;43244,277;24,98231
 807,36;11016,633;  258,253;43238,243;25,03114
 807,93;11009,474;  267,176;43079,055;25,09186
 808,49;10953,853;  233,561;42628,559;25,28669
 809,05;10951,001;  231,561;42517,909;25,34965
 809,62;11009,919;  264,407;42372,183;25,51907
 810,18;11011,606;  250,638;42348,149;25,56201
 810,74;10988,140;  218,022;41992,576;25,78153
 811,31;10973,365;  227,407;41870,234;25,80506
 811,87;10956,744;  254,330;41773,046;25,77733
 812,44;11017,201;  268,176;41687,781;25,95154
 813,00;10977,888;  204,637;41421,439;26,13801
 813,56;11052,883;  255,176;41486,559;26,18808
 814,13;11089,262;  234,945;41479,140;26,31720
 814,69;11091,872;  243,099;41172,414;26,50612
 815,25;11023,251;  209,022;40779,533;26,65539
 815,82;11048,708;  260,637;40770,038;26,63103
 816,38;11137,472;  289,637;40586,696;26,91967
 816,94;10926,389;  226,637;40272,969;26,71843
 817,51;10922,923;  220,637;40085,166;26,84664
 818,07;10870,456;  221,022;39734,670;26,95128
 818,63;10876,989;  234,021;39568,482;27,05762
 819,20;10859,676;  245,329;39580,525;26,98435
 819,76;10793,979;  223,483;39195,260;27,12346
 820,32;10851,743;  248,252;39074,764;27,30992
 820,89;10788,968;  247,021;38918,807;27,26005
 821,45;10659,886;  217,406;38530,927;27,25534
 822,01;10669,881;  252,867;38313,739;27,36935
 822,57;10676,183;  252,559;38158,628;27,49856
 823,14;10603,178;  216,867;37916,132;27,55043
 823,70;10550,326;  220,021;37639,482;27,60677
 824,26;10543,167;  219,482;37478,602;27,70781
 824,82;10552,547;  256,867;37394,875;27,72276
 825,39;10435,003;  228,251;37042,534;27,72498
 825,95;10507,152;  238,328;37083,730;27,87003
 826,51;10413,916;  239,790;36697,234;27,90685
 827,08;10518,987;  270,251;36758,662;28,08765
 827,64;10450,982;  252,097;36598,781;28,06001
 828,20;10353,361;  214,867;36265,901;28,12262
 828,76;10421,895;  253,866;36258,636;28,24078
 829,32;10408,889;  261,251;36200,987;28,23515
 829,89;10365,115;  209,789;35935,106;28,42613
 830,45;10450,879;  237,482;36000,687;28,55839
 831,01;10391,643;  232,712;35591,269;28,73118
 831,57;10349,561;  240,328;35661,388;28,54018
 832,14;10363,171;  221,020;35632,585;28,64079
 832,70;10355,858;  219,558;35308,551;28,88741
 833,26;10294,314;  199,020;35184,824;28,85540
 833,82;10334,540;  229,404;35104,636;28,97511
 834,38;10375,457;  222,558;35095,140;29,11427
 834,95;10327,375;  213,635;35052,260;29,03025
 835,51;10287,678;  190,635;34868,072;29,11704
 836,07;10321,672;  234,173;34910,423;29,09051
 836,63;10456,129;  244,866;34946,158;29,42618
 837,19;10421,970;  234,558;34790,893;29,48059
 837,75;10345,503;  204,481;34431,166;29,62899
 838,32;10461,036;  244,942;34548,901;29,78109
 838,88;10455,569;  241,481;34645,175;29,68893
 839,44;10511,795;  248,865;34467,987;29,99180
 840,00;10465,097;  241,404;34451,337;29,88516
 840,56;10388,784;  222,404;34168,149;29,94891
 841,12;10487,241;  218,634;34182,961;30,23350
 841,68;10403,543;  196,173;33923,004;30,26484
 842,25;10431,461;  232,557;33917,970;30,27691
 842,81;10363,686;  204,942;33732,782;30,29943
 843,37;10436,912;  200,634;33731,594;30,52784
 843,93;10414,214;  227,557;33568,329;30,55315
 844,49;10427,055;  237,788;33657,910;30,48842
 845,05;10342,435;  187,557;33455,260;30,52473
 845,61;10487,352;  245,095;33466,918;30,82991
 846,17;10415,116;  222,172;33305,653;30,80977
 846,73;10411,880;  230,634;33273,542;30,81220
 847,29;10383,567;  211,326;33127,123;30,90383
 847,86;10396,331;  210,249;33033,859;31,03279
 848,42;10379,172;  223,095;32902,594;31,07782
 848,98;10394,706;  228,403;32852,098;31,16233
 849,54;10438,162;  214,633;32873,756;31,30374
 850,10;10415,003;  232,403;32833,183;31,23422
 850,66;10386,305;  212,326;32636,534;31,37773
 851,22;10375,377;  196,864;32571,269;31,44000
 851,78;10406,910;  250,018;32602,235;31,39473
 852,34;10367,520;  232,710;32403,047;31,50359
 852,90;10375,515;  216,556;32242,782;31,72075
 853,46;10359,971;  213,402;32069,671;31,85109
 854,02;10330,274;  231,787;32082,329;31,70586
 854,58;10332,268;  227,171;31738,910;32,06772
 855,14;10340,263;  217,941;31687,953;32,16498
 855,70;10263,873;  177,633;31580,226;32,11913
 856,26;10305,483;  226,171;31551,500;32,17624
 856,82;10272,632;  220,633;31325,773;32,31620
 857,38;10294,396;  247,940;31349,508;32,30209
 857,94;10265,929;  217,786;31077,320;32,56090
 858,50;10246,462;  258,940;31058,594;32,42739
 859,06;10177,303;  215,479;30823,713;32,54622
 859,62;10184,606;  231,709;30848,525;32,50794
 860,18;10126,139;  224,786;30541,876;32,65931
 860,74;10064,749;  197,325;30524,072;32,53704
 861,30;10085,590;  191,171;30301,807;32,86021
 861,86;10147,277;  272,632;30376,235;32,80220
 862,42;10052,118;  219,709;30222,431;32,77172
 862,98;10193,497;  257,247;30116,705;33,27673
 863,54;10069,338;  222,170;29941,901;33,13344
 864,10;10044,718;  223,093;30022,636;32,95898
 864,66; 9985,943;  204,016;29791,295;33,06126
 865,22; 9985,707;  215,939;29593,491;33,25589
 865,78; 9964,856;  222,862;29471,842;33,30712
 866,34; 9942,774;  213,170;29417,038;33,31615
 866,90; 9960,537;  236,555;29302,158;33,45529
 867,45; 9919,532;  230,785;29035,970;33,63543
 868,01; 9835,065;  229,324;28878,936;33,52835
 868,57; 9766,753;  217,862;28688,363;33,53959
 869,13; 9744,132;  205,708;28673,560;33,50595
 869,69; 9737,434;  214,400;28441,756;33,73690
 870,25; 9724,660;  186,785;28315,337;33,90816
 870,81; 9720,732;  220,400;28380,765;33,73653
 871,37; 9759,265;  230,862;28330,577;33,90925
 871,93; 9696,336;  238,939;28173,081;33,85605
 872,49; 9624,639;  262,246;27799,893;33,99852
 873,04; 9629,711;  205,477;27732,782;34,23595
 873,60; 9569,013;  205,708;27540,440;34,25424
 874,16; 9545,546;  232,400;27473,483;34,18787
 874,72; 9531,008;  212,938;27433,175;34,23214
 875,28; 9557,546;  219,708;27361,713;34,40364
 875,84; 9586,008;  230,246;27350,483;34,49734
 876,40; 9516,700;  211,631;27344,867;34,29399
 876,95; 9556,854;  223,323;27303,098;34,46680
 877,51; 9602,931;  246,323;27297,637;34,58837
 878,07; 9692,546;  263,400;27292,483;34,88519
 878,63; 9673,085;  222,169;27272,867;34,93779
 879,19; 9731,700;  240,400;27318,867;35,05110
 879,75; 9762,315;  207,554;27394,790;35,14429
 880,30; 9832,546;  226,554;27456,252;35,27763
 880,86; 9852,931;  267,246;27557,790;35,12456
 881,42; 9909,008;  217,938;27581,175;35,41639
 881,98; 9984,623;  227,785;27704,867;35,50900
 882,54;10073,238;  216,246;27817,637;35,71194
 883,09;10119,008;  237,400;27976,790;35,62302
 883,65;10149,931;  203,169;28121,944;35,62750
 884,21;10334,700;  251,323;28417,021;35,80020
 884,77;10320,777;  211,631;28439,637;35,81247
 885,32;10438,854;  221,938;28643,483;35,94778
 885,88;10562,469;  263,323;28852,944;36,02407
 886,44;10620,238;  227,015;28875,021;36,27905
 887,00;10586,546;  250,477;28933,944;36,03494
 887,56;10726,777;  225,323;29002,329;36,49252
 888,11;10753,700;  221,785;29072,483;36,50489
 888,67;10863,854;  256,785;29292,867;36,53065
 889,23;10867,623;  226,015;29292,867;36,61080
 889,79;10867,392;  210,323;29163,252;36,80826
 890,34;10813,700;  231,862;29147,252;36,59587
 890,90;10953,777;  299,554;29313,098;36,72155
 891,46;10860,931;  230,477;29165,790;36,73869
 892,01;10951,008;  241,631;29178,713;37,00918
 892,57;10915,623;  246,785;29092,252;36,98619
 893,13;10826,623;  211,400;28971,021;36,91016
 893,69;10778,700;  202,631;28899,713;36,85416
 894,24;10758,085;  230,400;28829,175;36,81166
 894,80;10757,546;  234,169;28582,867;37,12120
 895,36;10735,700;  226,477;28442,175;37,24601
 895,91;10651,315;  225,169;28280,560;37,16272
 896,47;10591,315;  242,708;28191,329;37,02726
 897,03;10514,085;  219,092;27945,252;37,13097
 897,58;10472,008;  244,246;27851,483;37,04739
 898,14;10443,469;  234,708;27640,483;37,25040
 898,70;10394,700;  202,092;27523,637;37,30612
 899,25;10404,469;  230,785;27537,021;37,25773
 899,81;10353,085;  245,477;27311,175;37,34471
 900,37;10168,700;  209,785;27044,790;37,11166
 900,92;10206,546;  231,938;27062,560;37,17621
 901,48;10182,854;  212,477;26888,790;37,37539
 902,03;10120,469;  222,477;26758,098;37,30077
 902,59;10090,469;  225,477;26678,944;37,29187
 903,15;10086,162;  239,477;26485,560;37,51678
 903,70; 9991,085;  227,477;26196,021;37,59782
 904,26; 9914,854;  227,400;26080,175;37,47162
 904,82; 9896,777;  229,938;26143,560;37,30408
 905,37; 9847,854;  234,708;26013,175;37,29138
 905,93; 9860,623;  210,631;25805,867;37,70230
 906,48; 9812,469;  231,708;25697,175;37,62256
 907,04; 9793,854;  239,785;25643,637;37,60874
 907,60; 9763,315;  240,708;25437,021;37,79365
 908,15; 9730,315;  218,554;25329,021;37,87967
 908,71; 9696,700;  249,246;25351,021;37,63660
 909,26; 9667,162;  223,938;25228,867;37,76545
 909,82; 9693,162;  235,169;25071,637;38,08107
 910,37; 9707,085;  273,015;25014,175;38,13107
 910,93; 9620,931;  216,631;24674,021;38,45177
 911,48; 9578,469;  212,785;24616,867;38,37753
 912,04; 9537,162;  213,631;24466,637;38,44278
 912,60; 9578,623;  231,938;24515,560;38,48967
 913,15; 9531,162;  239,092;24347,329;38,54313
 913,71; 9405,623;  215,092;24093,252;38,48928
 914,26; 9408,854;  190,938;24063,406;38,61317
 914,82; 9430,700;  229,785;23958,329;38,77573
 915,37; 9382,700;  214,323;23861,329;38,77183
 915,93; 9382,777;  270,169;23812,637;38,70711
 916,48; 9290,546;  216,938;23582,560;38,83315
 917,04; 9283,392;  237,169;23521,021;38,85192
 917,59; 9319,238;  257,631;23477,713;39,02487
 918,15; 9196,700;  197,323;23245,021;39,04675
 918,70; 9196,777;  219,092;23222,175;39,02818
 919,26; 9147,392;  236,862;23058,560;39,04412
 919,81; 9086,700;  207,862;22928,175;39,07886
 920,37; 9098,469;  218,938;22839,483;39,25428
 920,92; 9085,008;  261,400;22781,021;39,18187
 921,48; 8991,700;  199,785;22525,637;39,37998
 922,03; 9031,623;  205,477;22530,098;39,53548
 922,59; 8995,931;  225,246;22402,483;39,54814
 923,14; 8921,931;  224,785;22233,406;39,51700
 923,69; 8903,777;  250,015;22170,252;39,47841
 924,25; 8902,546;  245,938;22132,098;39,55289
 924,80; 8831,700;  219,862;21961,790;39,60936
 925,36; 8829,777;  207,631;21846,406;39,84581
 925,91; 8820,469;  224,015;21753,175;39,92935
 926,47; 8776,392;  202,323;21673,637;39,93267
 927,02; 8853,546;  285,862;21626,944;40,14644
 927,57; 8786,623;  214,092;21334,329;40,58918
 928,13; 8772,854;  210,092;21322,713;40,55755
 928,68; 8704,931;  229,092;21243,560;40,33335
 929,24; 8680,546;  191,092;21028,867;40,74069
 929,79; 8591,854;  206,323;20950,252;40,42402
 930,34; 8516,623;  220,477;20785,021;40,34199
 930,90; 8554,931;  214,015;20762,790;40,59082
 931,45; 8534,162;  226,554;20754,021;40,47069
 932,01; 8538,931;  234,785;20661,098;40,65416
 932,56; 8440,315;  246,246;20478,175;40,50068
 933,11; 8482,700;  252,169;20502,867;40,64320
 933,67; 8371,469;  219,092;20311,867;40,57367
 934,22; 8372,085;  216,477;20255,790;40,69804
 934,77; 8346,777;  252,708;20143,560;40,69242
 935,33; 8235,469;  227,092;20010,944;40,47936
 935,88; 8223,700;  235,862;19929,021;40,56149
 936,43; 8183,700;  227,862;19856,175;40,53246
 936,99; 8181,162;  232,554;19695,560;40,83957
 937,54; 8146,777;  212,169;19608,867;40,90700
 938,09; 8116,392;  239,554;19555,637;40,77865
 938,65; 8045,162;  232,400;19423,175;40,71103
 939,20; 8012,700;  206,323;19300,175;40,88424
 939,75; 7977,700;  204,323;19170,329;40,98584
 940,31; 7980,469;  211,246;19116,713;41,09511
 940,86; 7980,777;  227,015;19065,944;41,15819
 941,41; 7984,854;  313,400;19135,406;40,75790
 941,96; 7883,777;  210,477;18889,329;41,08015
 942,52; 7880,162;  217,631;18806,790;41,22043
 943,07; 7826,700;  201,785;18710,637;41,19605
 943,62; 7822,931;  212,477;18644,637;41,28900
 944,18; 7836,777;  203,323;18555,406;41,59448
 944,73; 7829,085;  220,477;18409,175;41,83151
 945,28; 7742,085;  191,554;18242,944;41,82797
 945,83; 7771,623;  207,323;18343,175;41,70910
 946,39; 7762,700;  213,246;18264,790;41,82165
 946,94; 7727,469;  245,246;18136,175;41,82132
 947,49; 7691,700;  209,169;18047,329;41,94676
 948,04; 7708,392;  256,554;17943,329;42,13226
 948,59; 7680,777;  240,169;17960,867;41,98823
 949,15; 7599,854;  203,400;17842,867;41,93128
 949,70; 7563,546;  214,092;17716,252;41,99170
 950,25; 7544,392;  239,169;17592,329;42,09737
 950,80; 7477,854;  185,323;17440,483;42,26290
 951,36; 7448,854;  193,015;17370,175;42,24120
 951,91; 7497,008;  233,477;17399,098;42,31441
 952,46; 7419,777;  199,554;17230,098;42,39573
 953,01; 7433,931;  226,631;17255,406;42,32424
 953,56; 7369,008;  195,169;17099,021;42,43908
 954,11; 7415,931;  222,554;17028,406;42,80281
 954,67; 7319,085;  214,862;16967,560;42,40644
 955,22; 7265,392;  200,015;16814,560;42,52525
 955,77; 7321,777;  248,400;16765,560;42,82441
 956,32; 7341,238;  270,400;16704,406;43,02565
 956,87; 7235,008;  207,092;16558,944;42,97932
 957,42; 7258,238;  215,631;16537,944;43,14712
 957,98; 7239,931;  208,554;16381,713;43,47559
 958,53; 7232,700;  245,938;16348,790;43,38835
 959,08; 7159,546;  204,708;16229,175;43,40137
 959,63; 7215,931;  212,246;16089,483;44,11148
 960,18; 7159,700;  223,708;16043,560;43,84360
 960,73; 7088,546;  225,169;16017,560;43,46003
 961,28; 7070,469;  193,554;15881,175;43,83657
 961,83; 7091,931;  243,323;15852,098;43,87665
 962,39; 7010,392;  196,938;15762,329;43,77310
 962,94; 7034,008;  235,400;15630,944;44,15958
 963,49; 6981,931;  215,785;15523,713;44,20027
 964,04; 7017,085;  235,785;15473,329;44,50389
 964,59; 6929,315;  194,015;15376,175;44,36325
 965,14; 6972,623;  239,554;15334,713;44,60416
 965,69; 6932,777;  219,015;15295,098;44,53253
 966,24; 6831,854;  206,631;15172,560;44,26871
 966,79; 6808,546;  224,323;15031,790;44,46556
 967,34; 6737,931;  190,169;14944,867;44,37747
 967,89; 6742,315;  216,400;14881,867;44,49852
 968,44; 6722,162;  218,400;14821,252;44,53761
 968,99; 6680,700;  226,862;14712,790;44,55247
 969,55; 6635,854;  218,554;14667,406;44,41391
 970,10; 6635,315;  226,708;14514,637;44,85330
 970,65; 6603,085;  239,092;14459,329;44,75307
 971,20; 6554,392;  211,631;14306,867;44,99933
 971,75; 6442,008;  197,169;14216,021;44,54600
 972,30; 6493,777;  219,092;14145,175;45,05707
 972,85; 6418,700;  204,554;14088,021;44,75932
 973,40; 6341,469;  203,708;13950,560;44,64849
 973,95; 6373,777;  227,554;13891,406;44,98163
 974,50; 6348,931;  248,323;13904,406;44,67319
 975,05; 6249,700;  211,785;13704,483;44,74950
 975,60; 6264,777;  228,862;13682,175;44,86564
 976,15; 6170,854;  212,477;13600,944;44,50380
 976,70; 6181,469;  226,862;13493,637;44,88361
 977,25; 6161,469;  235,246;13457,867;44,81882
 977,80; 6101,085;  208,554;13293,098;45,03428
 978,35; 6034,854;  234,708;13092,175;45,11111
 978,89; 6002,546;  201,169;13054,560;45,13499
 979,44; 6013,315;  223,862;13040,021;45,17308
 979,99; 5884,469;  212,169;12829,867;44,95511
 980,54; 5912,238;  246,785;12840,637;44,98587
 981,09; 5851,238;  242,938;12647,713;45,21082
 981,64; 5792,777;  228,708;12520,406;45,26689
 982,19; 5760,238;  270,246;12500,713;44,88784
 982,74; 5710,238;  234,477;12373,713;45,10796
 983,29; 5676,854;  200,092;12258,944;45,41694
 983,84; 5624,392;  232,554;12145,329;45,26098
 984,39; 5662,854;  298,862;12130,406;45,33637
 984,94; 5514,469;  205,323;11949,867;45,20521
 985,49; 5541,008;  245,862;11916,483;45,37159
 986,03; 5498,469;  243,015;11837,252;45,32816
 986,58; 5473,315;  282,477;11682,944;45,53180
 987,13; 5360,392;  212,015;11573,252;45,31529
 987,68; 5355,315;  241,554;11430,098;45,70533
 988,23; 5334,392;  243,477;11445,406;45,44677
 988,78; 5221,469;  210,400;11289,560;45,22969
 989,33; 5198,700;  248,477;11125,483;45,51090
 989,88; 5222,854;  258,169;11165,790;45,51574
 990,42; 5113,854;  230,708;10973,713;45,45419
 990,97; 5049,854;  213,092;10828,329;45,56433
 991,52; 5035,315;  241,246;10779,329;45,49280
 992,07; 5018,085;  258,631;10725,790;45,47035
 992,62; 4937,700;  235,554;10580,175;45,45499
 993,17; 4899,008;  240,092;10459,483;45,58898
 993,71; 4872,931;  243,092;10406,483;45,55407
 994,26; 4806,469;  219,092;10208,944;45,92037
 994,81; 4807,315;  253,323;10201,021;45,77936
 995,36; 4731,008;  215,785;10082,483;45,76225
 995,91; 4716,315;  230,246; 9978,713;46,01820
 996,45; 4679,085;  232,631; 9855,867;46,20539
 997,00; 4608,546;  200,708; 9710,098;46,35248
 997,55; 4611,546;  244,938; 9694,021;46,21197
 998,10; 4542,085;  249,323; 9601,713;45,90015
 998,65; 4459,162;  228,323; 9486,098;45,70038
 999,19; 4430,777;  248,246; 9399,483;45,70454
 999,74; 4405,469;  259,708; 9297,560;45,87109
1000,29; 4372,162;  239,246; 9177,790;46,23701
1000,84; 4295,085;  226,938; 9035,790;46,18248
1001,38; 4287,238;  233,169; 8965,175;46,42770
1001,93; 4269,700;  245,554; 8920,790;46,38659
1002,48; 4160,392;  206,400; 8758,098;46,23634
1003,03; 4182,546;  239,938; 8675,252;46,73931
1003,57; 4128,931;  242,554; 8621,483;46,38274
1004,12; 4130,392;  260,631; 8573,406;46,55198
1004,67; 4035,238;  224,246; 8447,790;46,34246
1005,22; 3983,392;  221,400; 8250,406;46,85502
1005,76; 3910,392;  210,554; 8124,329;46,75188
1006,31; 3902,315;  243,938; 8095,790;46,59254
1006,86; 3834,931;  216,246; 7914,713;47,00526
1007,40; 3777,162;  211,246; 7821,021;46,85967
1007,95; 3750,469;  227,708; 7688,483;47,21710
1008,50; 3668,700;  238,323; 7620,637;46,46751
1009,04; 3619,700;  230,246; 7458,483;46,89185
1009,59; 3536,777;  232,015; 7371,252;46,29013
1010,14; 3514,546;  220,169; 7282,713;46,64575
1010,68; 3443,854;  233,708; 7158,560;46,35689
1011,23; 3408,469;  235,092; 7054,790;46,53251
1011,78; 3381,546;  253,246; 6960,713;46,63906
1012,32; 3356,854;  252,400; 6872,252;46,89612
1012,87; 3338,162;  257,246; 6859,790;46,66255
1013,42; 3232,700;  220,169; 6710,021;46,41910
1013,96; 3273,392;  254,708; 6728,944;46,62611
1014,51; 3220,392;  192,938; 6595,790;47,28290
1015,06; 3221,315;  199,938; 6633,406;46,96343
1015,60; 3263,238;  276,477; 6714,790;46,39043
1016,15; 3238,623;  222,631; 6685,406;46,66714
1016,69; 3270,392;  226,400; 6689,867;47,09535
1017,24; 3294,315;  203,554; 6703,637;47,54957
1017,79; 3356,931;  266,938; 6809,637;47,22810
1018,33; 3374,623;  225,323; 6806,406;47,85383
1018,88; 3405,085;  242,323; 6915,021;47,39854
1019,42; 3420,777;  235,708; 6899,560;47,79622
1019,97; 3404,315;  222,015; 6909,098;47,58876
1020,51; 3478,700;  259,400; 7042,944;47,45749
1021,06; 3457,162;  198,631; 6987,560;47,99772
1021,61; 3438,931;  185,938; 6998,406;47,75057
1022,15; 3411,854;  176,862; 6896,175;48,14469
1022,70; 3465,700;  222,323; 6941,560;48,27002
1023,24; 3438,162;  209,169; 6894,560;48,29923
1023,79; 3422,085;  234,246; 6823,175;48,38174
1024,33; 3424,085;  225,554; 6770,098;48,87324
1024,88; 3395,854;  233,477; 6724,021;48,72283
1025,42; 3324,392;  234,400; 6536,021;49,03488
1025,97; 3275,777;  214,400; 6473,713;48,90915
1026,51; 3153,931;  196,400; 6368,867;47,91489
1027,06; 3152,162;  216,631; 6318,252;48,11067
1027,60; 3141,238;  228,631; 6212,713;48,67258
1028,15; 3106,238;  241,785; 6148,329;48,49627
1028,69; 2969,854;  198,708; 5937,483;48,28811
1029,24; 2954,777;  219,323; 5908,329;48,08316
1029,78; 2887,700;  204,708; 5835,560;47,64807
1030,33; 2817,623;  197,323; 5678,790;47,80289
1030,87; 2831,238;  208,862; 5635,637;48,32293
1031,42; 2752,162;  192,862; 5513,867;48,09805
1031,96; 2754,931;  236,785; 5473,098;48,09006
1032,51; 2738,238;  203,938; 5401,867;48,75596
1033,05; 2692,854;  216,400; 5335,790;48,37400
1033,60; 2584,623;  198,938; 5221,406;47,50025
1034,14; 2599,162;  221,400; 5148,098;48,26278
1034,69; 2570,700;  213,785; 5084,867;48,38586
1035,23; 2534,931;  214,708; 5009,944;48,38600
1035,77; 2492,392;  220,092; 4922,944;48,31749
1036,32; 2453,315;  197,477; 4838,790;48,60345
1036,86; 2460,931;  223,169; 4806,021;48,82902
1037,41; 2419,392;  232,400; 4710,483;48,83769
1037,95; 2353,546;  191,092; 4640,175;48,60449
1038,50; 2342,854;  209,323; 4594,790;48,65002
1039,04; 2339,315;  231,246; 4555,713;48,74749
1039,58; 2304,546;  200,477; 4461,252;49,38231
1040,13; 2247,546;  210,246; 4394,790;48,68631
1040,67; 2272,931;  244,323; 4399,637;48,81961
1041,21; 2221,546;  247,554; 4267,867;49,10046
1041,76; 2154,546;  202,554; 4193,175;48,91450
1042,30; 2163,008;  207,631; 4173,713;49,30247
1042,85; 2101,546;  215,323; 4094,175;48,62839
1043,39; 2062,623;  195,323; 3985,944;49,26106
1043,93; 2063,931;  242,015; 3993,637;48,56342
1044,48; 2029,777;  227,015; 3932,483;48,65140
1045,02; 1983,008;  211,785; 3880,021;48,28541
1045,56; 1989,854;  240,708; 3851,021;48,44860
1046,11; 1972,777;  227,554; 3785,406;49,05272
1046,65; 1932,777;  229,477; 3706,406;48,98864
1047,19; 1918,315;  212,938; 3668,637;49,34971
1047,74; 1865,392;  195,862; 3568,944;49,49570
1048,28; 1855,392;  224,400; 3561,252;48,87817
1048,82; 1869,854;  249,938; 3558,790;48,95702
1049,37; 1843,162;  236,400; 3450,867;49,98531
1049,91; 1789,931;  225,092; 3414,560;49,06269
1050,45; 1782,546;  239,169; 3391,637;48,95775
1050,99; 1748,854;  219,246; 3353,483;48,80320
1051,54; 1703,469;  213,169; 3251,175;49,05521
1052,08; 1702,238;  249,938; 3258,098;48,27869
1052,62; 1697,777;  241,323; 3228,790;48,75213
1053,16; 1661,008;  220,554; 3136,867;49,39297
1053,71; 1647,008;  226,092; 3101,252;49,42040
1054,25; 1635,008;  244,169; 3059,867;49,39587
1054,79; 1613,392;  237,246; 3008,252;49,66233
1055,33; 1567,777;  200,092; 2939,637;49,92380
1055,88; 1577,085;  239,400; 2941,098;49,51274
1056,42; 1562,854;  237,477; 2872,252;50,30323
1056,96; 1547,162;  247,015; 2844,483;50,05438
1057,50; 1531,315;  230,477; 2794,098;50,74223
1058,05; 1480,700;  230,015; 2762,252;49,39051
1058,59; 1486,854;  247,938; 2739,252;49,72941
1059,13; 1426,931;  213,708; 2670,175;49,38894
1059,67; 1433,085;  235,015; 2639,175;49,83318
1060,21; 1393,085;  232,092; 2573,098;49,59374
1060,76; 1408,469;  239,554; 2571,329;50,12985
1061,30; 1402,392;  259,400; 2576,329;49,33221
1061,84; 1368,700;  232,938; 2493,406;50,24455
1062,38; 1318,546;  217,477; 2432,329;49,71300
1062,92; 1361,238;  267,708; 2475,637;49,52745
1063,46; 1320,931;  250,323; 2372,560;50,44714
1064,01; 1284,469;  219,169; 2363,944;49,66955
1064,55; 1297,546;  244,477; 2310,790;50,96367
1065,09; 1233,238;  210,400; 2239,329;50,41273
1065,63; 1270,623;  252,554; 2300,790;49,70467
1066,17; 1258,162;  258,323; 2235,637;50,56550
1066,71; 1238,085;  252,015; 2232,252;49,79553
1067,25; 1195,854;  233,169; 2154,790;50,09752
1067,80; 1201,931;  250,554; 2176,867;49,38848
1068,34; 1210,854;  262,323; 2144,560;50,39381
1068,88; 1146,008;  220,246; 2092,483;49,44683
1069,42; 1186,392;  250,246; 2101,252;50,57500
1069,96; 1132,315;  231,092; 2018,713;50,41466
1070,50; 1186,162;  260,092; 2062,713;51,37348
1071,04; 1118,854;  223,169; 1975,252;51,12114
1071,58; 1109,315;  233,092; 1960,560;50,72299
1072,12; 1104,085;  234,554; 1946,560;50,79018
1072,66; 1088,931;  241,785; 1936,021;50,00165
1073,21; 1085,777;  253,246; 1939,098;49,38339
1073,75; 1072,085;  239,862; 1893,790;50,31795
1074,29; 1056,392;  239,708; 1876,637;49,89127
1074,83; 1059,623;  262,092; 1872,329;49,52880
1075,37; 1057,469;  259,631; 1832,483;50,72559
1075,91; 1038,546;  247,631; 1794,790;51,12048
1076,45; 1021,085;  247,785; 1770,790;50,77459
1076,99;  993,085;  258,938; 1749,483;49,25356
1077,53;  990,777;  231,323; 1710,790;51,33293
1078,07;  983,392;  243,477; 1723,560;49,99149
1078,61;  966,854;  241,400; 1669,637;50,79368
1079,15;  970,931;  234,246; 1688,867;50,64443
1079,69;  964,546;  240,785; 1637,944;51,80235
1080,23;  965,392;  253,323; 1646,867;51,09771
1080,77;  996,008;  301,938; 1673,175;50,61630
1081,31;  924,162;  230,092; 1598,175;50,73299
1081,85;  932,238;  247,323; 1598,560;50,68804
1082,39;  905,854;  235,631; 1560,329;50,59440
1082,93;  919,085;  250,554; 1558,867;51,09867
1083,47;  871,623;  225,938; 1506,867;50,40753
1084,01;  897,777;  253,938; 1542,560;49,96336
1084,55;  864,700;  232,554; 1488,713;50,32371
1085,09;  874,931;  255,938; 1486,175;50,31490
1085,63;  857,085;  252,477; 1455,944;50,23881
1086,17;  860,392;  235,708; 1415,021;52,97019
1086,71;  833,392;  219,246; 1411,175;51,52540
1087,24;  864,315;  262,938; 1429,406;51,55540
1087,78;  848,469;  251,092; 1379,944;52,91898
1088,32;  813,162;  232,554; 1339,021;52,47400
1088,86;  829,931;  253,554; 1374,944;51,39842
1089,40;  813,623;  249,477; 1351,944;51,17124
1089,94;  778,777;  218,092; 1316,560;51,04245
1090,48;  789,931;  249,631; 1314,713;50,72846
1091,02;  790,315;  255,015; 1325,867;49,98824
1091,56;  775,315;  245,400; 1297,560;50,36454
1092,10;  743,315;  220,785; 1261,329;50,21706
1092,63;  776,777;  260,862; 1278,713;50,68668
1093,17;  766,854;  253,246; 1245,252;51,77467
1093,71;  749,162;  226,246; 1209,637;53,17475
1094,25;  756,469;  260,092; 1220,021;51,70976
1094,79;  725,392;  245,631; 1188,944;50,85918
1095,33;  736,469;  252,246; 1185,790;51,86932
1095,87;  721,777;  239,631; 1191,252;50,66577
1096,40;  698,085;  224,862; 1149,944;51,15468
1096,94;  696,238;  245,169; 1150,021;49,85006
1097,48;  717,777;  254,169; 1153,483;51,55129
1098,02;  668,315;  244,477; 1105,483;49,22597
1098,56;  656,931;  217,862; 1080,021;50,92668
1099,10;  667,085;  213,938; 1066,790;53,13304
1099,63;  658,546;  221,323; 1071,175;51,44697
1100,17;  671,623;  239,708; 1075,329;51,68794
1100,71;  691,777;  261,169; 1095,329;51,62174

