
Integration time [ms]: 140,000
Averaging Nr. [scans]: 13
Smoothing Nr. [pixels]: 0
Data measured with spectrometer [name]: 2009305U1
Wave   ;Sample   ;Dark     ;Reference;Reflectance
[nm]   ;[counts] ;[counts] ;[counts] ;[%]

 175,72;  204,818;  185,479;  195,256;197,81168
 176,32;  234,195;  214,863;  213,589; 0,00000
 176,92;  266,241;  238,402;  244,147;484,55017
 177,52;  266,372;  239,171;  255,101;170,75499
 178,12;  242,718;  218,325;  215,567; 0,00000
 178,72;  263,573;  248,709;  238,776; 0,00000
 179,32;  259,798;  248,094;  241,542; 0,00000
 179,92;  257,266;  235,094;  233,146; 0,00000
 180,52;  245,557;  229,480;  243,972;110,93933
 181,12;  267,132;  244,710;  253,779;247,24319
 181,73;  279,523;  269,479;  266,724; 0,00000
 182,33;  377,181;  325,403;  327,235;2826,07727
 182,93;  284,168;  264,325;  263,605; 0,00000
 183,53;  241,265;  235,709;  223,292; 0,00000
 184,13;  247,151;  236,093;  221,711; 0,00000
 184,73;  289,045;  251,478;  257,984;577,42773
 185,33;  261,575;  223,703;  341,427;32,17024
 185,93;  274,069;  228,779;  366,740;32,82849
 186,53;  299,525;  248,010;  359,067;46,38654
 187,13;  301,924;  274,472;  411,352;20,05502
 187,73;  276,818;  238,933;  352,642;33,31720
 188,33;  274,927;  238,856;  363,204;29,00826
 188,93;  282,929;  245,547;  371,130;29,76714
 189,53;  293,484;  249,392;  378,224;34,22423
 190,13;  323,370;  273,390;  396,734;40,52092
 190,73;  261,346;  223,776;  357,743;28,04405
 191,34;  313,370;  262,315;  381,146;42,96403
 191,94;  272,847;  235,624;  353,574;31,55770
 192,54;  295,979;  242,088;  410,064;32,08270
 193,14;  301,199;  255,626;  389,518;34,03683
 193,74;  290,864;  251,934;  380,684;30,23678
 194,34;  280,826;  243,165;  382,870;26,95743
 194,94;  253,841;  214,165;  356,176;27,93879
 195,54;  229,546;  209,241;  329,743;16,85048
 196,14;  251,043;  217,550;  352,435;24,83091
 196,74;  248,073;  216,472;  355,469;22,73545
 197,34;  236,594;  190,627;  347,445;29,31213
 197,94;  250,307;  220,165;  381,711;18,65831
 198,54;  268,646;  222,703;  386,849;27,98866
 199,14;  252,380;  222,781;  387,587;17,95987
 199,74;  232,892;  196,320;  389,699;18,91219
 200,34;  219,397;  191,781;  399,400;13,30103
 200,94;  267,244;  212,858;  445,923;23,33541
 201,54;  246,532;  205,396;  445,617;17,12399
 202,14;  275,444;  216,397;  481,328;22,28770
 202,74;  244,985;  214,089;  491,643;11,13149
 203,34;  245,148;  199,243;  512,548;14,65187
 203,94;  215,387;  171,089;  515,499;12,86192
 204,54;  283,520;  235,472;  607,818;12,90392
 205,14;  240,291;  201,243;  625,848; 9,19630
 205,74;  294,125;  225,936;  717,479;13,87248
 206,34;  250,843;  196,166;  752,632; 9,82573
 206,94;  269,672;  197,781;  803,742;11,86399
 207,54;  243,551;  181,935;  836,884; 9,40774
 208,14;  255,274;  196,166;  931,384; 8,03953
 208,74;  264,384;  213,243; 1002,408; 6,48038
 209,34;  271,248;  187,704; 1131,861; 8,84850
 209,94;  277,366;  214,396; 1205,746; 6,35189
 210,54;  287,765;  211,320; 1331,090; 6,82683
 211,14;  296,189;  212,550; 1444,831; 6,78728
 211,73;  313,703;  205,396; 1570,587; 7,93346
 212,33;  323,810;  217,781; 1692,428; 7,19013
 212,93;  309,899;  198,550; 1777,647; 7,05140
 213,53;  292,126;  179,627; 1863,519; 6,68088
 214,13;  327,063;  180,167; 1947,134; 8,31349
 214,73;  306,598;  186,704; 1956,174; 6,77566
 215,33;  289,443;  160,858; 1986,361; 7,04380
 215,93;  327,846;  193,628; 2151,394; 6,85566
 216,53;  296,786;  156,858; 2213,685; 6,80309
 217,13;  363,033;  203,551; 2475,000; 7,02117
 217,73;  366,946;  187,320; 2705,924; 7,13196
 218,33;  339,235;  139,013; 2915,972; 7,21014
 218,93;  400,559;  178,937; 3285,822; 7,13325
 219,53;  411,209;  189,397; 3601,083; 6,50151
 220,13;  418,478;  162,628; 3919,631; 6,80993
 220,73;  470,005;  187,627; 4345,430; 6,79150
 221,32;  504,307;  177,781; 4807,485; 7,05284
 221,92;  559,622;  169,705; 5226,097; 7,71137
 222,52;  553,161;  170,320; 5728,902; 6,88738
 223,12;  599,850;  178,166; 6210,697; 6,99015
 223,72;  647,515;  189,705; 6609,886; 7,13080
 224,32;  682,691;  185,090; 7038,082; 7,26108
 224,92;  684,281;  176,013; 7429,681; 7,00705
 225,52;  749,338;  194,551; 7914,699; 7,18623
 226,12;  752,586;  189,320; 8156,380; 7,06993
 226,72;  772,167;  153,089; 8544,829; 7,37723
 227,31;  796,142;  151,397; 8937,273; 7,33843
 227,91;  856,921;  173,781; 9431,250; 7,37933
 228,51;  881,495;  178,242; 9836,402; 7,28144
 229,11;  922,260;  175,705;10277,773; 7,39012
 229,71;  956,054;  173,935;10569,057; 7,52391
 230,31;  996,319;  164,936;10971,690; 7,69318
 230,91; 1021,603;  158,704;11316,961; 7,73328
 231,51; 1060,613;  165,782;11651,599; 7,79075
 232,10; 1099,568;  152,244;11950,374; 8,02945
 232,70; 1144,749;  182,934;12128,177; 8,05186
 233,30; 1196,464;  207,551;12409,368; 8,10464
 233,90; 1199,209;  177,705;12542,581; 8,26134
 234,50; 1243,678;  175,705;12624,090; 8,57921
 235,10; 1264,819;  175,936;12587,604; 8,77307
 235,70; 1322,858;  192,012;12589,246; 9,12176
 236,29; 1295,809;  189,396;12470,908; 9,00877
 236,89; 1307,868;  161,781;12355,974; 9,39864
 237,49; 1344,881;  179,012;12190,487; 9,70629
 238,09; 1300,458;  177,474;11885,708; 9,59141
 238,69; 1359,708;  191,550;11608,161;10,23210
 239,29; 1309,054;  167,243;11324,076;10,23418
 239,89; 1302,355;  185,934;10841,376;10,47747
 240,48; 1288,433;  171,089;10430,461;10,89096
 241,08; 1252,724;  164,550; 9925,725;11,14798
 241,68; 1270,879;  193,704; 9670,747;11,36614
 242,28; 1227,173;  166,243; 9327,389;11,58075
 242,88; 1262,652;  200,551; 8918,630;12,18274
 243,48; 1235,062;  205,858; 8599,299;12,26199
 244,07; 1211,434;  186,320; 8384,233;12,50458
 244,67; 1225,990;  192,705; 8187,529;12,92443
 245,27; 1249,857;  202,012; 8095,587;13,27466
 245,87; 1255,863;  194,474; 7980,459;13,63204
 246,47; 1269,959;  192,781; 7916,835;13,94576
 247,06; 1263,118;  177,243; 7990,336;13,89815
 247,66; 1300,557;  177,474; 8048,290;14,26895
 248,26; 1384,351;  214,473; 8269,036;14,52441
 248,86; 1413,444;  189,012; 8400,903;14,91048
 249,46; 1420,563;  144,551; 8617,949;15,05904
 250,05; 1537,102;  196,243; 9060,084;15,12729
 250,65; 1560,068;  167,858; 9437,415;15,01916
 251,25; 1687,944;  178,320; 9988,396;15,38851
 251,85; 1809,317;  171,858;10651,004;15,62589
 252,44; 1891,512;  140,627;11248,852;15,76206
 253,04; 2060,928;  195,781;12089,583;15,68167
 253,64; 2136,574;  142,242;12890,197;15,64433
 254,24; 2369,898;  194,627;13790,358;15,99966
 254,84; 2507,486;  169,089;14803,334;15,97894
 255,43; 2687,856;  179,396;15864,429;15,99269
 256,03; 2878,955;  190,396;16954,300;16,03779
 256,63; 3036,382;  182,088;18131,034;15,90229
 257,23; 3221,725;  168,319;18989,457;16,22328
 257,82; 3353,817;  182,703;20170,973;15,86487
 258,42; 3477,332;  146,242;20962,190;16,00259
 259,02; 3709,403;  187,627;21970,194;16,16787
 259,62; 3766,648;  170,934;22616,087;16,02000
 260,21; 3884,448;  188,243;23208,899;16,05604
 260,81; 3948,870;  174,935;23814,389;15,96456
 261,41; 3988,976;  165,626;24249,895;15,87488
 262,01; 4083,980;  206,780;24823,697;15,75014
 262,60; 4089,572;  166,088;25190,303;15,67875
 263,20; 4137,487;  174,473;25501,198;15,64756
 263,80; 4171,071;  190,934;25666,154;15,62356
 264,40; 4126,231;  162,011;25910,561;15,39590
 264,99; 4165,305;  187,703;26077,975;15,36331
 265,59; 4135,652;  167,779;26263,178;15,20526
 266,19; 4172,429;  155,703;26358,343;15,32947
 266,78; 4143,541;  211,241;26526,645;14,94296
 267,38; 4129,413;  182,856;26574,819;14,95363
 267,98; 4086,949;  174,933;26521,482;14,84830
 268,58; 4070,080;  183,549;26637,110;14,69190
 269,17; 3999,893;  172,010;26578,078;14,49622
 269,77; 3969,109;  184,627;26360,820;14,45773
 270,37; 3879,473;  154,395;26285,663;14,25525
 270,96; 3858,189;  216,088;26114,464;14,06305
 271,56; 3774,818;  183,011;25847,017;13,99550
 272,16; 3687,992;  177,242;25662,532;13,77559
 272,75; 3662,797;  170,319;25533,878;13,76967
 273,35; 3629,891;  189,934;25558,768;13,55977
 273,95; 3567,924;  176,473;25489,682;13,39795
 274,54; 3555,270;  152,012;25534,849;13,40771
 275,14; 3593,824;  193,550;26005,943;13,17303
 275,74; 3521,568;  158,472;26014,058;13,00723
 276,33; 3598,456;  197,242;26447,525;12,95687
 276,93; 3642,492;  182,858;26857,798;12,96960
 277,53; 3687,629;  180,935;27406,403;12,88020
 278,12; 3686,169;  159,781;27918,410;12,70376
 278,72; 3826,466;  202,935;28556,100;12,77999
 279,32; 3841,072;  173,319;29138,181;12,66277
 279,91; 3931,234;  163,473;29950,309;12,64908
 280,51; 4014,870;  178,243;30461,040;12,66933
 281,11; 4118,671;  177,781;31261,061;12,67849
 281,70; 4182,085;  161,012;31734,847;12,73546
 282,30; 4296,895;  157,704;32402,786;12,83666
 282,90; 4379,011;  169,781;32829,260;12,88824
 283,49; 4500,710;  186,319;33285,956;13,03456
 284,09; 4604,191;  205,704;33770,223;13,10457
 284,69; 4703,215;  200,627;34065,929;13,29558
 285,28; 4794,910;  185,858;34456,727;13,44889
 285,88; 4940,416;  214,319;34623,622;13,73494
 286,47; 4981,115;  180,396;34740,226;13,89104
 287,07; 5078,176;  205,627;34790,839;14,08853
 287,67; 5192,446;  186,089;34931,222;14,40880
 288,26; 5290,946;  187,242;34812,403;14,73987
 288,86; 5455,690;  168,396;34889,979;15,22769
 289,46; 5629,873;  190,242;35024,454;15,61577
 290,05; 5809,663;  176,320;35064,746;16,14674
 290,65; 5997,376;  171,627;35334,474;16,56791
 291,24; 6235,043;  183,858;35382,728;17,19142
 291,84; 6454,228;  195,550;35559,419;17,69795
 292,44; 6685,801;  176,474;35643,051;18,35341
 293,03; 6978,492;  237,166;35704,989;19,00688
 293,63; 7079,909;  174,011;35930,474;19,31371
 294,22; 7328,222;  201,012;36147,108;19,82749
 294,82; 7470,165;  173,780;36066,967;20,32805
 295,41; 7573,547;  160,627;35770,539;20,81701
 296,01; 7705,062;  215,934;35568,408;21,18417
 296,61; 7728,673;  189,242;35304,185;21,47072
 297,20; 7737,224;  185,934;34895,865;21,75542
 297,80; 7778,411;  192,474;34654,879;22,01221
 298,39; 7759,779;  161,011;34265,466;22,28087
 298,99; 7859,291;  188,242;34203,943;22,55150
 299,58; 7782,247;  194,935;33946,341;22,47999
 300,18; 7768,468;  208,474;33765,785;22,52861
 300,78; 7754,266;  167,089;33266,446;22,92243
 301,37; 7780,709;  187,241;33370,355;22,88353
 301,97; 7780,925;  187,473;33330,898;22,91088
 302,56; 7728,054;  178,242;33182,632;22,87518
 303,16; 7707,204;  163,627;33180,943;22,84734
 303,75; 7744,683;  176,243;33163,819;22,94330
 304,35; 7777,710;  169,397;33468,616;22,84832
 304,94; 7781,089;  182,396;33377,843;22,89077
 305,54; 7741,230;  196,473;33270,715;22,81158
 306,13; 7723,746;  152,782;33197,809;22,91105
 306,73; 7677,148;  160,089;32978,372;22,90509
 307,33; 7625,475;  185,243;32896,675;22,74505
 307,92; 7640,825;  189,319;32981,544;22,72339
 308,52; 7734,937;  165,627;33521,982;22,69226
 309,11; 7865,963;  169,780;34004,442;22,74645
 309,71; 7856,608;  153,395;34272,898;22,57715
 310,30; 7892,328;  163,089;34384,044;22,58627
 310,90; 7997,020;  192,935;34746,275;22,58562
 311,49; 8035,190;  189,089;34846,296;22,63916
 312,09; 8004,340;  158,550;35067,187;22,47521
 312,68; 8150,741;  214,704;35454,057;22,52038
 313,28; 8086,133;  158,781;35637,775;22,34379
 313,87; 8067,920;  146,627;35637,822;22,31904
 314,47; 8157,160;  169,934;35921,682;22,34080
 315,06; 8182,580;  157,704;36088,779;22,33408
 315,66; 8177,417;  163,858;36229,648;22,21928
 316,25; 8119,803;  145,550;36163,538;22,13964
 316,85; 8097,941;  141,935;36211,499;22,05739
 317,44; 8112,242;  162,319;36309,758;21,99305
 318,04; 8084,806;  151,627;36276,585;21,96038
 318,63; 8026,622;  146,935;36258,419;21,82044
 319,22; 8073,852;  172,857;36442,469;21,78406
 319,82; 8048,219;  169,473;36451,752;21,71514
 320,41; 7956,503;  175,473;36422,431;21,46671
 321,01; 7952,382;  184,935;36415,404;21,43899
 321,60; 7958,538;  178,704;36469,158;21,43769
 322,20; 7857,990;  168,781;36444,181;21,19676
 322,79; 7949,208;  208,781;36518,826;21,31759
 323,39; 7859,509;  175,397;36502,710;21,15244
 323,98; 7795,691;  162,935;36368,639;21,08164
 324,58; 7779,181;  174,242;36243,259;21,08441
 325,17; 7705,673;  182,165;36086,068;20,95457
 325,76; 7684,537;  181,396;35892,001;21,01096
 326,36; 7586,729;  155,320;35319,109;21,13370
 326,95; 7538,651;  190,012;35150,659;21,01975
 327,55; 7369,452;  155,473;34758,932;20,84757
 328,14; 7280,267;  178,858;34183,029;20,88393
 328,74; 7188,542;  195,627;33785,675;20,81842
 329,33; 7140,346;  182,935;33325,981;20,99207
 329,92; 6947,897;  162,626;32790,233;20,79610
 330,52; 6803,931;  167,935;32078,807;20,79541
 331,11; 6705,627;  179,088;31670,667;20,72471
 331,71; 6579,542;  175,396;31085,078;20,71890
 332,30; 6444,936;  180,627;30673,381;20,54360
 332,89; 6402,055;  217,627;30068,310;20,71788
 333,49; 6247,509;  191,550;29441,783;20,70397
 334,08; 6121,132;  173,242;29024,115;20,61598
 334,68; 6006,400;  179,165;28619,410;20,48940
 335,27; 5947,001;  193,397;28249,166;20,50774
 335,86; 5943,166;  210,550;28048,513;20,59280
 336,46; 5799,088;  188,012;27722,418;20,37842
 337,05; 5741,064;  163,011;27538,804;20,37586
 337,65; 5732,336;  151,704;27324,227;20,53778
 338,24; 5788,884;  212,550;27404,497;20,50730
 338,83; 5744,883;  199,935;27215,933;20,52468
 339,43; 5680,199;  161,780;27137,636;20,45688
 340,02; 5722,614;  174,550;27034,345;20,65565
 340,61; 5767,106;  156,935;27081,655;20,83651
 341,21; 5764,004;  207,165;27127,136;20,64207
 341,80; 5768,568;  167,858;27089,021;20,80412
 342,40; 5791,929;  173,243;27183,858;20,80177
 342,99; 5844,055;  173,858;27301,771;20,90171
 343,58; 5906,577;  174,550;27407,135;21,04841
 344,18; 5949,356;  180,397;27534,054;21,09027
 344,77; 6029,115;  167,934;27938,512;21,10572
 345,36; 6125,189;  156,012;28227,505;21,26420
 345,96; 6259,218;  186,320;28591,921;21,37923
 346,55; 6308,136;  163,320;28765,731;21,48356
 347,14; 6458,428;  150,858;29104,307;21,78521
 347,74; 6533,214;  142,859;29570,951;21,71515
 348,33; 6754,105;  173,782;30201,656;21,91405
 348,92; 6877,643;  181,705;30830,675;21,84719
 349,52; 7074,655;  156,475;31299,084;22,21452
 350,11; 7172,490;  164,934;31503,823;22,36057
 350,70; 7180,684;  166,627;31565,591;22,33850
 351,29; 7157,131;  162,933;31400,551;22,39030
 351,89; 7231,950;  181,472;31358,164;22,61458
 352,48; 7277,646;  152,781;31379,912;22,81627
 353,07; 7331,845;  170,397;31238,987;23,05044
 353,67; 7364,588;  189,552;31219,948;23,12260
 354,26; 7352,133;  174,397;31035,354;23,25831
 354,85; 7382,825;  171,704;30735,640;23,59356
 355,45; 7389,611;  157,781;30675,316;23,69729
 356,04; 7380,777;  168,320;30625,906;23,68033
 356,63; 7446,662;  194,781;30333,526;24,06165
 357,22; 7447,820;  178,318;30260,522;24,16546
 357,82; 7431,474;  190,780;30082,839;24,22280
 358,41; 7520,052;  188,781;29928,010;24,65185
 359,00; 7475,596;  172,473;29705,068;24,72903
 359,60; 7553,103;  186,243;29656,681;24,99746
 360,19; 7533,221;  184,935;29499,090;25,06736
 360,78; 7541,541;  175,550;29240,517;25,34320
 361,37; 7574,515;  169,473;29133,628;25,56623
 361,97; 7593,594;  174,627;29018,138;25,72144
 362,56; 7541,120;  161,088;28693,973;25,86500
 363,15; 7579,121;  205,396;28486,786;26,07271
 363,74; 7490,607;  166,857;28089,840;26,22840
 364,34; 7488,456;  180,396;27703,756;26,55221
 364,93; 7391,009;  156,626;27300,575;26,65191
 365,52; 7289,474;  151,781;26868,590;26,71611
 366,11; 7334,301;  167,704;26571,115;27,14269
 366,71; 7337,160;  165,550;26184,315;27,56322
 367,30; 7279,779;  174,319;25850,334;27,67353
 367,89; 7244,839;  204,012;25716,866;27,59717
 368,48; 7232,477;  185,396;25321,601;28,03558
 369,07; 7120,068;  179,396;24872,053;28,10824
 369,67; 7093,010;  194,703;24613,370;28,25014
 370,26; 7038,861;  164,319;24353,198;28,42026
 370,85; 7024,230;  175,473;24095,389;28,63203
 371,44; 7013,519;  176,088;23840,471;28,89334
 372,03; 6972,469;  151,780;23549,187;29,15147
 372,63; 6946,483;  144,627;23282,740;29,39676
 373,22; 6925,238;  169,012;22976,843;29,62240
 373,81; 6842,448;  157,011;22684,188;29,67721
 374,40; 6776,972;  164,858;22480,076;29,63051
 374,99; 6811,827;  161,781;22210,782;30,16031
 375,59; 6770,809;  159,781;21936,080;30,35882
 376,18; 6783,786;  191,858;21756,744;30,56788
 376,77; 6716,977;  185,858;21535,420;30,59135
 377,36; 6784,577;  196,781;21526,787;30,88511
 377,95; 6703,644;  179,319;21289,692;30,90578
 378,55; 6673,613;  159,320;21111,250;31,09161
 379,14; 6702,795;  180,627;20965,432;31,37950
 379,73; 6708,360;  179,319;20953,453;31,42870
 380,32; 6797,837;  185,396;20940,031;31,86007
 380,91; 6732,153;  169,473;20815,426;31,78677
 381,50; 6764,862;  185,627;20802,238;31,91230
 382,10; 6753,837;  168,089;20598,415;32,23516
 382,69; 6789,373;  152,319;20565,906;32,51292
 383,28; 6827,857;  193,627;20570,546;32,55757
 383,87; 6805,832;  166,780;20416,760;32,78547
 384,46; 6804,510;  154,857;20365,570;32,90163
 385,05; 6887,619;  189,550;20403,037;33,13663
 385,64; 6830,762;  159,242;20407,576;32,94849
 386,24; 6889,333;  153,780;20326,347;33,38967
 386,83; 6953,402;  195,472;20434,684;33,39028
 387,42; 6989,401;  193,396;20531,183;33,41566
 388,01; 7137,050;  173,318;20707,785;33,91241
 388,60; 7229,671;  174,857;20882,232;34,06909
 389,19; 7324,080;  148,779;21179,223;34,11864
 389,78; 7422,608;  158,933;21399,147;34,19775
 390,37; 7642,697;  218,010;21923,000;34,20728
 390,96; 7731,937;  177,703;21992,095;34,62959
 391,56; 7769,826;  178,471;22222,132;34,43781
 392,15; 7919,267;  166,856;22451,233;34,78855
 392,74; 7992,139;  137,163;22602,095;34,96550
 393,33; 8077,716;  165,086;22937,837;34,74604
 393,92; 8298,156;  182,624;23340,175;35,04486
 394,51; 8364,398;  154,856;23532,431;35,11717
 395,10; 8550,202;  196,161;23799,208;35,39391
 395,69; 8584,394;  183,238;23859,141;35,48399
 396,28; 8637,567;  179,930;24003,788;35,50070
 396,87; 8690,401;  185,698;24106,506;35,55358
 397,46; 8799,695;  187,082;24267,319;35,76631
 398,06; 8893,721;  196,158;24457,662;35,84923
 398,65; 8916,331;  181,311;24429,499;36,02339
 399,24; 8977,629;  195,156;24635,459;35,93438
 399,83; 8984,648;  159,846;24668,156;36,00739
 400,42; 9118,233;  209,151;24840,145;36,17021
 401,01; 9174,143;  177,917;24927,239;36,34938
 401,60; 9192,724;  200,529;24993,593;36,26900
 402,19; 9188,267;  205,911;24794,712;36,53027
 402,78; 9243,804;  203,214;24936,973;36,55162
 403,37; 9186,359;  195,209;24678,939;36,72296
 403,96; 9151,591;  182,204;24613,057;36,71336
 404,55; 9148,322;  188,198;24449,022;36,93248
 405,14; 9103,341;  192,270;24342,339;36,89874
 405,73; 9041,935;  205,956;24282,307;36,69983
 406,32; 9094,134;  204,336;24197,053;37,05207
 406,91; 8944,410;  198,716;23854,300;36,97095
 407,50; 8879,200;  182,637;23730,657;36,93119
 408,09; 8777,560;  171,404;23428,345;37,00468
 408,68; 8783,354;  198,480;23218,852;37,29251
 409,27; 8689,159;  173,712;23079,496;37,17597
 409,86; 8653,637;  182,331;22935,458;37,23139
 410,45; 8680,111;  212,181;22859,844;37,38986
 411,04; 8650,937;  219,645;22790,649;37,35453
 411,63; 8480,812;  193,803;22535,929;37,09141
 412,22; 8436,424;  196,730;22251,126;37,36078
 412,81; 8345,585;  209,578;21999,350;37,33865
 413,40; 8247,008;  210,349;21628,426;37,52279
 413,99; 8120,487;  241,425;21414,048;37,21344
 414,58; 7909,575;  185,964;20959,934;37,17927
 415,17; 7831,866;  187,886;20722,461;37,22492
 415,76; 7804,538;  191,499;20613,014;37,27950
 416,35; 7736,399;  178,731;20458,633;37,26679
 416,94; 7753,870;  216,807;20504,127;37,15159
 417,53; 7776,741;  182,116;20743,475;36,93639
 418,12; 7830,290;  182,963;20812,130;37,07046
 418,71; 7947,030;  197,349;21237,931;36,83207
 419,30; 7979,778;  192,809;21266,041;36,95195
 419,89; 8027,254;  189,579;21507,440;36,76577
 420,48; 8178,323;  207,503;21793,397;36,92606
 421,07; 8183,453;  208,041;21857,039;36,83963
 421,66; 8157,170;  170,888;21773,423;36,96919
 422,25; 8133,754;  178,505;21775,810;36,83445
 422,84; 8177,805;  227,275;21774,119;36,89881
 423,43; 8054,999;  192,813;21469,018;36,95295
 424,02; 8018,437;  215,967;21168,507;37,23878
 424,60; 7771,546;  189,507;20824,096;36,74432
 425,19; 7722,814;  203,045;20477,464;37,08994
 425,78; 7623,550;  209,814;20391,473;36,73502
 426,37; 7639,125;  207,968;20246,882;37,08363
 426,96; 7527,867;  199,045;20218,916;36,60774
 427,55; 7486,220;  192,585;19960,493;36,89634
 428,14; 7377,452;  191,124;19793,329;36,66082
 428,73; 7296,098;  205,354;19583,055;36,59229
 429,32; 7263,838;  211,122;19584,749;36,40369
 429,91; 7286,505;  233,892;19529,175;36,55097
 430,50; 7207,474;  218,662;19366,276;36,49965
 431,08; 7128,188;  230,432;19301,206;36,16925
 431,67; 7127,328;  264,740;19215,174;36,21336
 432,26; 7041,739;  273,971;18971,642;36,19578
 432,85; 6944,521;  291,586;18493,128;36,55149
 433,44; 6804,246;  295,587;18235,717;36,27989
 434,03; 6612,157;  302,357;17860,136;35,93735
 434,62; 6479,434;  266,126;17454,038;36,14929
 435,21; 6416,975;  289,663;17279,103;36,06542
 435,79; 6279,672;  269,126;17147,510;35,61091
 436,38; 6270,418;  274,742;17013,446;35,81924
 436,97; 6217,882;  269,666;16897,955;35,77167
 437,56; 6113,898;  268,744;16698,406;35,57684
 438,15; 6091,389;  246,897;16649,840;35,63075
 438,74; 6096,044;  260,513;16620,721;35,66905
 439,33; 6054,456;  238,359;16702,690;35,32544
 439,91; 6052,906;  210,667;16714,475;35,39934
 440,50; 6092,055;  250,052;16805,245;35,28804
 441,09; 6116,453;  256,130;16853,992;35,30770
 441,68; 6057,118;  238,977;16900,162;34,92033
 442,27; 6081,594;  214,130;16875,370;35,21625
 442,86; 6041,556;  203,132;16871,062;35,02789
 443,44; 6052,457;  209,670;16929,052;34,94619
 444,03; 6152,297;  269,670;16947,455;35,27223
 444,62; 6008,285;  212,901;16741,408;35,06296
 445,21; 5929,840;  230,285;16662,740;34,68474
 445,80; 5924,007;  246,133;16529,484;34,86920
 446,39; 5876,648;  270,748;16293,581;34,98695
 446,97; 5683,330;  216,441;16023,894;34,58425
 447,56; 5604,111;  201,980;15930,231;34,34667
 448,15; 5555,114;  210,595;15658,197;34,59772
 448,74; 5450,246;  232,057;15404,330;34,39293
 449,33; 5375,893;  223,134;15306,025;34,16294
 449,91; 5309,547;  209,904;15043,812;34,37829
 450,50; 5176,024;  210,596;14809,734;34,01179
 451,09; 5155,733;  228,212;14737,085;33,96212
 451,68; 5118,253;  245,520;14670,903;33,77888
 452,26; 5075,874;  231,674;14547,251;33,83866
 452,85; 4993,061;  223,059;14474,527;33,47025
 453,44; 4990,268;  233,598;14477,789;33,39375
 454,03; 4952,365;  208,751;14409,440;33,40411
 454,61; 4914,350;  194,368;14394,196;33,23972
 455,20; 4997,688;  242,753;14645,484;33,01412
 455,79; 5001,184;  233,829;14545,669;33,31057
 456,38; 4987,569;  240,753;14664,252;32,91029
 456,97; 5006,522;  215,138;14693,862;33,09258
 457,55; 4992,338;  219,369;14753,117;32,84059
 458,14; 4979,702;  243,907;14678,960;32,80760
 458,73; 4921,267;  227,292;14572,523;32,72150
 459,31; 4929,205;  261,908;14695,757;32,33577
 459,90; 4964,726;  266,062;14768,901;32,39824
 460,49; 5043,809;  291,600;14853,519;32,63450
 461,08; 4987,854;  212,986;14904,789;32,50022
 461,66; 4943,234;  223,370;14996,133;31,94977
 462,25; 5010,070;  218,294;15105,889;32,18637
 462,84; 4993,091;  250,909;15144,195;31,84107
 463,43; 4913,220;  192,910;15112,974;31,63733
 464,01; 4952,216;  227,295;15124,710;31,71638
 464,60; 4962,577;  262,910;15008,810;31,87101
 465,19; 4831,775;  206,372;14735,058;31,83635
 465,77; 4825,857;  231,219;14816,098;31,50275
 466,36; 4819,925;  234,602;14635,482;31,84057
 466,95; 4663,584;  213,910;14334,107;31,51283
 467,53; 4597,743;  225,373;13996,613;31,75001
 468,12; 4498,464;  251,681;13737,703;31,49026
 468,71; 4405,498;  222,372;13525,250;31,44527
 469,29; 4259,148;  218,142;13284,806;30,92607
 469,88; 4193,582;  216,912;13029,244;31,03783
 470,47; 4269,692;  273,451;13158,601;31,01431
 471,06; 4236,984;  229,990;13148,888;31,01653
 471,64; 4247,795;  234,066;13269,622;30,79062
 472,23; 4221,360;  203,529;13264,171;30,76289
 472,81; 4237,055;  211,144;13426,775;30,46326
 473,40; 4271,922;  215,298;13491,086;30,55656
 473,99; 4384,793;  295,299;13668,872;30,57892
 474,57; 4363,553;  215,529;13761,338;30,62220
 475,16; 4432,890;  223,221;14021,827;30,50793
 475,75; 4443,523;  241,222;14083,900;30,35757
 476,33; 4453,683;  252,992;14178,270;30,16594
 476,92; 4475,604;  237,683;14238,856;30,26833
 477,51; 4452,626;  238,069;14284,269;30,00497
 478,09; 4452,830;  239,376;14291,303;29,98489
 478,68; 4426,236;  255,530;14172,497;29,96849
 479,27; 4463,649;  267,145;14274,601;29,95907
 479,85; 4394,264;  240,223;14264,334;29,62071
 480,44; 4457,626;  224,684;14440,310;29,77669
 481,02; 4791,126;  238,685;16174,261;28,56778
 481,61; 5401,592;  268,531;18120,700;28,75315
 482,20; 5748,881;  251,608;19269,034;28,90650
 482,78; 5987,481;  266,069;20038,514;28,93629
 483,37; 6168,628;  275,147;20557,589;29,05706
 483,95; 6239,462;  289,917;20826,718;28,97017
 484,54; 6266,201;  306,300;20939,986;28,88433
 485,13; 6226,591;  269,840;20848,071;28,94686
 485,71; 6145,801;  258,302;20600,108;28,94286
 486,30; 6101,467;  292,225;20289,066;29,05080
 486,88; 6020,825;  318,148;19848,199;29,19950
 487,47; 5799,799;  301,840;19068,101;29,29704
 488,05; 5528,174;  290,302;18135,509;29,35170
 488,64; 5148,436;  296,149;16826,665;29,35351
 489,23; 4585,867;  299,533;14648,069;29,87297
 489,81; 3933,174;  292,533;12727,450;29,27756
 490,40; 3683,754;  262,918;12174,203;28,71928
 490,98; 3626,477;  241,687;12001,033;28,78383
 491,57; 3554,681;  267,610;11920,719;28,20768
 492,15; 3528,213;  240,841;11848,427;28,32089
 492,74; 3521,285;  248,302;11756,522;28,44039
 493,32; 3468,840;  269,380;11664,759;28,07682
 493,91; 3411,998;  247,611;11538,005;28,02725
 494,50; 3411,429;  253,920;11551,377;27,94885
 495,08; 3353,484;  237,920;11464,411;27,75190
 495,67; 3381,223;  258,534;11410,599;28,00099
 496,25; 3324,343;  202,535;11338,494;28,03358
 496,84; 3298,290;  218,688;11293,372;27,80759
 497,42; 3295,673;  205,227;11275,329;27,91705
 498,01; 3276,293;  235,380;11233,343;27,64978
 498,59; 3229,217;  206,919;11143,273;27,63533
 499,18; 3205,992;  202,457;11113,159;27,52834
 499,76; 3218,790;  221,611;11029,806;27,73061
 500,35; 3110,036;  213,612;10794,348;27,37451
 500,93; 3106,689;  209,996;10775,504;27,41650
 501,52; 3084,693;  206,535;10692,500;27,44772
 502,10; 3052,644;  218,536;10608,342;27,27778
 502,69; 2986,283;  212,459;10452,275;27,08861
 503,27; 2946,259;  189,766;10305,740;27,24892
 503,86; 2909,820;  203,305;10219,637;27,02102
 504,44; 2871,101;  181,152;10105,382;27,10486
 505,03; 2786,190;  184,305; 9814,353;27,01840
 505,61; 2763,215;  193,151; 9686,655;27,07181
 506,19; 2711,385;  210,152; 9553,006;26,77162
 506,78; 2596,760;  181,152; 9330,300;26,40254
 507,36; 2597,067;  190,305; 9200,216;26,71238
 507,95; 2530,862;  197,383; 9079,567;26,27145
 508,53; 2503,146;  188,998; 8945,710;26,42713
 509,12; 2465,063;  198,845; 8786,400;26,38957
 509,70; 2455,305;  214,230; 8617,135;26,67025
 510,29; 2405,609;  226,922; 8521,180;26,26741
 510,87; 2302,968;  190,614; 8322,616;25,97581
 511,46; 2267,532;  194,614; 8135,117;26,10562
 512,04; 2239,308;  195,922; 8010,260;26,14918
 512,62; 2192,428;  201,076; 7840,767;26,06588
 513,21; 2126,670;  175,845; 7675,851;26,01098
 513,79; 2098,898;  196,231; 7565,749;25,81806
 514,38; 2051,263;  184,385; 7423,098;25,79020
 514,96; 2063,782;  215,769; 7305,234;26,06703
 515,54; 1966,364;  176,693; 7155,496;25,64439
 516,13; 1975,422;  209,616; 7052,501;25,80499
 516,71; 1949,960;  194,693; 6922,234;26,09077
 517,30; 1854,670;  187,078; 6804,706;25,19924
 517,88; 1852,634;  212,770; 6736,359;25,13745
 518,46; 1814,925;  178,540; 6619,488;25,40596
 519,05; 1789,642;  190,156; 6566,140;25,08611
 519,63; 1775,104;  196,309; 6533,682;24,91246
 520,22; 1780,227;  211,541; 6472,086;25,05670
 520,80; 1728,696;  200,541; 6413,441;24,59648
 521,38; 1775,329;  221,156; 6378,678;25,24024
 521,97; 1691,643;  184,464; 6303,939;24,62923
 522,55; 1704,298;  200,772; 6314,105;24,59421
 523,13; 1672,687;  181,541; 6333,124;24,24004
 523,72; 1664,735;  197,540; 6271,219;24,15662
 524,30; 1702,932;  211,542; 6450,215;23,90557
 524,89; 1680,882;  180,772; 6416,601;24,05630
 525,47; 1708,677;  202,696; 6547,297;23,73642
 526,05; 1688,439;  171,619; 6550,887;23,77734
 526,64; 1709,397;  203,773; 6701,691;23,17087
 527,22; 1754,999;  202,157; 6795,446;23,55185
 527,80; 1793,708;  233,234; 6919,050;23,34006
 528,39; 1735,122;  192,081; 7006,777;22,64285
 528,97; 1788,070;  202,388; 7150,926;22,82036
 529,55; 1814,943;  209,926; 7310,064;22,60544
 530,14; 1853,017;  215,081; 7543,808;22,34953
 530,72; 1854,274;  196,927; 7637,114;22,27561
 531,30; 1855,256;  183,004; 7742,240;22,12196
 531,89; 1907,538;  198,389; 7837,915;22,37245
 532,47; 1915,550;  227,620; 7895,267;22,01366
 533,05; 1919,196;  230,157; 7966,554;21,83237
 533,63; 1908,426;  228,312; 8043,921;21,49691
 534,22; 1900,310;  198,004; 8116,293;21,49841
 534,80; 1945,758;  219,774; 8110,030;21,87487
 535,38; 2004,993;  296,004; 8220,505;21,56588
 535,97; 1940,471;  223,697; 8181,626;21,57313
 536,55; 1974,316;  257,313; 8293,586;21,36567
 537,13; 1949,490;  265,312; 8221,060;21,16932
 537,71; 1975,944;  304,389; 8292,475;20,92560
 538,30; 1959,180;  324,928; 8378,768;20,29160
 538,88; 1985,414;  358,005; 8484,878;20,02503
 539,46; 2052,335;  402,313; 8679,350;19,93494
 540,05; 2053,735;  415,236; 8811,236;19,51524
 540,63; 2115,823;  474,313; 9016,258;19,21706
 541,21; 2113,747;  497,313; 9124,994;18,73544
 541,79; 2139,107;  543,852; 9286,054;18,24775
 542,38; 2180,497;  566,313; 9436,804;18,19724
 542,96; 2189,472;  586,621; 9648,923;17,68701
 543,54; 2254,137;  585,544; 9774,071;18,15953
 544,12; 2218,048;  554,544; 9925,738;17,75125
 544,70; 2215,314;  541,852;10034,565;17,62892
 545,29; 2272,483;  552,928;10167,424;17,88502
 545,87; 2262,491;  520,775;10175,823;18,03944
 546,45; 2246,154;  469,543;10213,458;18,23302
 547,03; 2258,761;  460,313;10338,275;18,20667
 547,62; 2238,307;  440,159;10371,653;18,10552
 548,20; 2309,092;  429,621;10649,692;18,39000
 548,78; 2318,511;  392,545;10726,633;18,63702
 549,36; 2342,775;  360,391;10947,316;18,72483
 549,94; 2356,861;  322,929;11006,747;19,03750
 550,53; 2358,263;  324,622;11243,183;18,62554
 551,11; 2360,970;  301,699;11440,296;18,48770
 551,69; 2428,290;  316,314;11775,094;18,43107
 552,27; 2405,012;  258,468;12019,913;18,25068
 552,85; 2475,458;  273,776;12331,800;18,25906
 553,44; 2535,689;  266,084;12661,243;18,31042
 554,02; 2587,971;  283,699;13009,915;18,10650
 554,60; 2575,503;  228,699;13317,373;17,93003
 555,18; 2659,904;  264,391;13670,068;17,86939
 555,76; 2689,983;  237,545;13982,808;17,84206
 556,34; 2766,460;  247,930;14373,251;17,82989
 556,93; 2800,568;  235,545;14761,461;17,65825
 557,51; 2821,458;  214,238;15113,995;17,49841
 558,09; 2886,607;  248,699;15461,243;17,34035
 558,67; 2958,407;  246,931;15807,594;17,42520
 559,25; 2985,063;  245,623;16052,149;17,33107
 559,83; 3026,374;  225,470;16360,625;17,35902
 560,41; 3054,239;  229,007;16748,020;17,10291
 561,00; 3108,202;  232,315;17058,150;17,09209
 561,58; 3120,575;  228,469;17273,626;16,96732
 562,16; 3152,238;  220,930;17603,283;16,86370
 562,74; 3228,778;  205,545;17974,133;17,01448
 563,32; 3258,709;  193,854;18466,437;16,77297
 563,90; 3331,420;  226,931;18797,564;16,71719
 564,48; 3363,788;  234,392;19240,173;16,46550
 565,06; 3452,502;  222,085;19811,180;16,49090
 565,65; 3560,297;  222,470;20536,897;16,43082
 566,23; 3710,393;  270,469;21375,060;16,29941
 566,81; 3778,090;  223,777;21991,961;16,32802
 567,39; 3898,865;  236,700;22887,870;16,16766
 567,97; 4031,788;  238,238;23568,060;16,26052
 568,55; 4149,608;  248,085;24331,907;16,19977
 569,13; 4207,853;  219,931;25091,035;16,03436
 569,71; 4330,957;  221,545;26028,403;15,92372
 570,29; 4558,198;  258,468;26992,073;16,08361
 570,87; 4639,849;  253,161;27666,210;16,00219
 571,45; 4721,076;  249,931;28319,910;15,92857
 572,03; 4766,472;  213,008;28803,973;15,92623
 572,61; 4827,315;  209,008;29491,672;15,77147
 573,20; 4955,481;  237,392;30208,755;15,74199
 573,78; 5007,567;  222,008;30773,869;15,66372
 574,36; 5074,719;  242,777;31246,514;15,58503
 574,94; 5188,002;  284,316;31638,691;15,63956
 575,52; 5147,732;  237,163;31890,279;15,51370
 576,10; 5212,291;  301,316;32476,509;15,26323
 576,68; 5283,896;  280,393;33059,293;15,26440
 577,26; 5402,069;  290,778;33663,469;15,31579
 577,84; 5482,574;  299,392;34257,356;15,26352
 578,42; 5536,154;  337,470;34447,841;15,24077
 579,00; 5469,118;  296,623;34622,839;15,06864
 579,58; 5489,680;  321,470;34793,157;14,99262
 580,16; 5399,262;  302,470;34834,726;14,75951
 580,74; 5456,668;  314,316;34963,385;14,84124
 581,32; 5406,263;  297,778;35007,191;14,71787
 581,90; 5356,584;  325,624;35003,337;14,50776
 582,48; 5365,428;  324,009;35042,081;14,52102
 583,06; 5317,998;  329,701;35222,640;14,29601
 583,64; 5306,746;  313,931;35325,674;14,26040
 584,22; 5200,171;  323,701;35070,002;14,03450
 584,80; 5146,460;  335,393;34670,124;14,01225
 585,38; 5049,424;  333,007;34418,597;13,83698
 585,96; 4981,688;  316,316;34450,724;13,66765
 586,54; 4998,693;  330,470;34470,574;13,67372
 587,12; 4957,801;  295,086;34696,133;13,55399
 587,70; 4940,478;  331,162;34753,613;13,39044
 588,28; 4903,674;  318,470;34764,330;13,31133
 588,86; 4843,369;  315,701;34867,916;13,10384
 589,44; 4811,199;  292,163;34889,572;13,06178
 590,02; 4815,970;  309,548;35182,730;12,92231
 590,59; 4815,399;  279,547;35275,416;12,96111
 591,17; 4795,876;  284,241;35504,999;12,80959
 591,75; 4787,576;  279,317;35586,313;12,76874
 592,33; 4792,681;  293,086;35815,051;12,66708
 592,91; 4769,133;  252,779;35952,788;12,65085
 593,49; 4827,492;  259,472;36396,482;12,64084
 594,07; 4819,276;  273,010;36539,862;12,53559
 594,65; 4830,675;  278,932;36458,604;12,58094
 595,23; 4835,267;  267,163;36971,785;12,44558
 595,81; 4795,766;  264,933;37058,179;12,31431
 596,39; 4775,686;  259,009;37120,051;12,25325
 596,97; 4765,339;  260,856;37369,541;12,13862
 597,55; 4766,098;  251,163;37243,691;12,20499
 598,12; 4724,530;  243,626;37252,491;12,10765
 598,70; 4719,547;  238,395;37384,802;12,06349
 599,28; 4731,738;  252,702;37532,327;12,01470
 599,86; 4714,499;  251,087;37624,562;11,94273
 600,44; 4693,587;  218,164;37634,990;11,96099
 601,02; 4765,896;  261,473;37607,537;12,06131
 601,60; 4650,100;  249,010;37692,240;11,75404
 602,18; 4612,303;  227,087;37760,235;11,68358
 602,75; 4632,514;  228,086;37816,367;11,71756
 603,33; 4616,994;  244,856;37813,806;11,63764
 603,91; 4569,637;  228,472;37735,988;11,57412
 604,49; 4588,261;  255,549;37919,537;11,50359
 605,07; 4578,757;  258,087;37892,202;11,48073
 605,65; 4559,235;  263,087;37828,516;11,43644
 606,23; 4571,585;  345,009;38089,766;11,19778
 606,80; 4564,720;  375,394;38053,273;11,11879
 607,38; 4500,812;  420,088;38173,625;10,80885
 607,96; 4537,118;  460,856;38192,653;10,80326
 608,54; 4541,748;  528,318;38274,038;10,63281
 609,12; 4518,449;  537,702;38322,952;10,53519
 609,70; 4517,091;  574,087;38394,109;10,42570
 610,27; 4503,200;  572,471;38341,038;10,40741
 610,85; 4510,119;  583,010;38466,100;10,36639
 611,43; 4478,842;  580,549;38473,524;10,28764
 612,01; 4400,660;  557,010;38197,877;10,21138
 612,59; 4408,386;  540,164;38279,216;10,24992
 613,16; 4333,657;  514,163;38255,019;10,12032
 613,74; 4323,186;  475,933;38005,563;10,25124
 614,32; 4312,771;  446,318;38048,722;10,28246
 614,90; 4313,786;  421,779;37967,523;10,36604
 615,48; 4247,803;  369,471;37642,276;10,40526
 616,05; 4204,074;  333,624;37708,292;10,35581
 616,63; 4195,422;  337,778;37300,539;10,43657
 617,21; 4182,573;  335,855;37342,529;10,39466
 617,79; 4118,736;  325,471;37239,624;10,27591
 618,36; 4141,578;  323,779;37037,877;10,39873
 618,94; 4022,400;  255,394;36831,614;10,29906
 619,52; 4031,378;  285,701;36580,373;10,32018
 620,10; 3988,974;  280,009;36601,034;10,21162
 620,67; 3972,998;  278,547;36485,988;10,20357
 621,25; 3953,626;  311,010;36332,193;10,11243
 621,83; 3924,875;  285,086;36254,353;10,11916
 622,41; 3962,211;  323,471;36257,268;10,12623
 622,98; 3926,590;  299,778;36033,766;10,14948
 623,56; 3854,686;  295,086;35950,300; 9,98340
 624,14; 3835,881;  271,164;35808,053;10,03103
 624,72; 3831,517;  283,086;35743,165;10,00683
 625,29; 3820,724;  268,624;35732,595;10,01608
 625,87; 3864,453;  308,010;35786,641;10,02419
 626,45; 3774,233;  265,624;35596,350; 9,93076
 627,02; 3757,078;  263,010;35574,791; 9,89491
 627,60; 3747,909;  258,626;35490,755; 9,90370
 628,18; 3741,603;  244,240;35594,183; 9,89355
 628,76; 3719,920;  259,547;35594,347; 9,79310
 629,33; 3725,387;  269,317;35636,853; 9,77187
 629,91; 3708,897;  256,009;35550,649; 9,78304
 630,49; 3750,857;  277,471;35666,134; 9,81497
 631,06; 3701,877;  271,317;35835,899; 9,64600
 631,64; 3726,486;  264,855;35698,240; 9,76941
 632,22; 3652,814;  239,239;35773,392; 9,60646
 632,79; 3717,775;  258,470;36012,918; 9,67517
 633,37; 3729,350;  234,471;36065,005; 9,75391
 633,95; 3693,146;  257,547;36057,791; 9,59658
 634,52; 3695,839;  224,702;36271,469; 9,62954
 635,10; 3691,363;  223,625;36225,572; 9,63209
 635,68; 3713,288;  239,470;36398,362; 9,60709
 636,25; 3684,255;  225,931;36481,485; 9,53874
 636,83; 3665,996;  212,240;36640,886; 9,48088
 637,41; 3699,374;  215,701;36642,490; 9,56349
 637,98; 3719,377;  249,162;36838,310; 9,48427
 638,56; 3730,957;  245,085;37009,638; 9,48161
 639,13; 3689,016;  224,470;37001,112; 9,42051
 639,71; 3786,247;  269,394;37268,903; 9,50514
 640,29; 3674,948;  200,394;37032,628; 9,43346
 640,86; 3712,406;  214,086;37229,056; 9,45109
 641,44; 3725,017;  222,317;37145,176; 9,48654
 642,02; 3705,706;  238,471;37227,218; 9,37376
 642,59; 3684,932;  210,163;37250,569; 9,38102
 643,17; 3691,467;  216,624;37360,919; 9,35498
 643,74; 3688,847;  213,317;37234,731; 9,38789
 644,32; 3677,228;  251,548;37263,082; 9,25571
 644,89; 3670,916;  233,086;37256,971; 9,28544
 645,47; 3705,374;  262,317;37298,860; 9,29638
 646,05; 3700,062;  226,009;37154,057; 9,40763
 646,62; 3651,443;  230,855;37231,484; 9,24467
 647,20; 3718,439;  238,932;37420,758; 9,35808
 647,77; 3650,281;  210,009;37197,954; 9,30106
 648,35; 3636,585;  213,086;37083,689; 9,28517
 648,92; 3673,273;  241,009;37129,425; 9,30445
 649,50; 3614,192;  203,778;37099,929; 9,24328
 650,08; 3634,034;  198,317;37006,356; 9,33415
 650,65; 3641,184;  201,471;37262,092; 9,28132
 651,23; 3728,949;  207,548;38161,904; 9,27799
 651,80; 3835,330;  209,779;39002,254; 9,34602
 652,38; 3906,865;  215,394;39431,451; 9,41316
 652,95; 3954,014;  196,932;39754,571; 9,49774
 653,53; 3972,010;  219,702;39976,998; 9,43804
 654,10; 4047,160;  243,932;40173,964; 9,52473
 654,68; 3944,541;  211,086;40104,007; 9,35869
 655,25; 3970,537;  201,702;40172,896; 9,42888
 655,83; 3996,687;  206,394;40271,246; 9,46039
 656,40; 4023,760;  227,394;40136,674; 9,51249
 656,98; 3981,910;  207,471;40074,255; 9,46763
 657,55; 3978,213;  212,702;39932,682; 9,48014
 658,13; 3943,055;  201,702;39496,571; 9,52123
 658,70; 3918,205;  232,086;39202,922; 9,45866
 659,28; 3835,509;  222,010;38260,888; 9,49949
 659,85; 3735,197;  218,856;37545,777; 9,42039
 660,43; 3751,347;  228,856;37693,743; 9,40211
 661,00; 3767,574;  211,856;37842,786; 9,44892
 661,58; 3790,878;  199,856;38096,290; 9,47588
 662,15; 3773,412;  195,548;38274,641; 9,39588
 662,73; 3894,716;  255,779;38669,760; 9,47295
 663,30; 3841,712;  216,087;38896,649; 9,37325
 663,88; 3878,169;  216,779;39132,077; 9,40861
 664,45; 3915,704;  207,702;39339,350; 9,47571
 665,03; 3949,854;  216,010;39734,162; 9,44843
 665,60; 4094,542;  273,933;40079,436; 9,59819
 666,17; 4027,923;  218,164;40213,633; 9,52548
 666,75; 4084,226;  210,010;40594,291; 9,59338
 667,32; 4138,838;  226,548;40927,949; 9,61217
 667,90; 4168,449;  213,471;41280,069; 9,63064
 668,47; 4211,368;  229,625;41381,727; 9,67567
 669,05; 4258,980;  208,087;41795,539; 9,74066
 669,62; 4235,822;  185,395;41861,736; 9,71877
 670,19; 4280,510;  204,087;41920,856; 9,77167
 670,77; 4322,198;  216,241;42237,283; 9,77119
 671,34; 4303,425;  204,856;42056,634; 9,79306
 671,92; 4369,267;  201,856;42458,907; 9,86205
 672,49; 4376,494;  232,010;42329,565; 9,84495
 673,06; 4334,798;  171,472;42392,685; 9,86075
 673,64; 4370,717;  187,625;42370,959; 9,91646
 674,21; 4385,636;  191,087;42297,848; 9,96170
 674,79; 4470,555;  211,241;42510,506;10,06948
 675,36; 4473,705;  224,626;42634,395;10,01911
 675,93; 4424,547;  185,395;42558,822;10,00427
 676,51; 4501,005;  231,472;42655,250;10,06401
 677,08; 4501,616;  211,856;42699,062;10,09659
 677,65; 4535,612;  204,933;42771,259;10,17396
 678,23; 4542,839;  209,395;43135,224;10,09519
 678,80; 4590,143;  195,780;43281,960;10,19901
 679,38; 4605,293;  207,933;43472,695;10,16384
 679,95; 4681,135;  217,626;43720,276;10,26032
 680,52; 4702,669;  206,318;43988,780;10,26975
 681,10; 4794,434;  218,472;44433,439;10,34935
 681,67; 4814,277;  219,164;44791,097;10,30943
 682,24; 4838,350;  191,857;44849,909;10,40460
 682,82; 4940,192;  199,626;45425,798;10,48191
 683,39; 5051,726;  238,857;45725,302;10,58089
 683,96; 5034,030;  202,780;45906,730;10,57075
 684,54; 5100,641;  195,395;46337,080;10,63083
 685,11; 5153,637;  224,318;46704,200;10,60527
 685,68; 5247,403;  214,087;47093,627;10,73670
 686,25; 5274,475;  195,857;47210,209;10,80227
 686,83; 5300,241;  202,857;47313,175;10,82010
 687,40; 5349,852;  189,241;47709,294;10,85986
 687,97; 5449,771;  227,241;48147,183;10,89845
 688,55; 5450,690;  191,472;48144,688;10,96739
 689,12; 5467,532;  186,318;48370,731;10,96042
 689,69; 5519,221;  179,780;48471,696;11,05659
 690,26; 5583,678;  210,395;48612,355;11,10138
 690,84; 5565,597;  194,934;48750,474;11,06087
 691,41; 5669,286;  207,703;48757,671;11,24941
 691,98; 5700,513;  211,703;49097,099;11,22791
 692,56; 5706,893;  184,472;49191,141;11,26871
 693,13; 5803,966;  249,549;49151,953;11,35817
 693,70; 5836,347;  224,934;49352,304;11,42217
 694,27; 5790,112;  206,549;49474,193;11,33312
 694,84; 5835,800;  199,780;49548,005;11,42092
 695,42; 5899,181;  233,703;49732,125;11,44577
 695,99; 5930,177;  217,472;49894,398;11,49971
 696,56; 5959,865;  192,396;49755,595;11,63660
 697,13; 6033,323;  209,549;50070,792;11,67996
 697,71; 6047,627;  186,934;50102,065;11,74131
 698,28; 6087,007;  199,242;50599,416;11,68203
 698,85; 6055,695;  166,088;50532,536;11,69351
 699,42; 6122,538;  185,549;50656,348;11,76321
 699,99; 6196,764;  218,626;50743,006;11,83218
 700,57; 6254,607;  206,857;50905,049;11,92893
 701,14; 6247,218;  192,396;51031,092;11,90987
 701,71; 6296,676;  219,319;51123,596;11,93879
 702,28; 6354,210;  203,703;51221,716;12,05556
 702,85; 6358,437;  208,242;51270,682;12,04446
 703,43; 6432,664;  222,396;51474,417;12,11712
 704,00; 6497,506;  230,627;51701,844;12,17550
 704,57; 6499,425;  214,165;51713,964;12,20444
 705,14; 6572,113;  242,242;52035,391;12,22144
 705,71; 6619,263;  248,396;51984,357;12,31419
 706,28; 6584,336;  217,011;51819,246;12,33924
 706,86; 6655,332;  240,627;52259,212;12,33156
 707,43; 6722,943;  266,165;52100,947;12,45646
 708,00; 6726,939;  244,704;52080,529;12,50532
 708,57; 6698,397;  209,319;52025,495;12,52327
 709,14; 6802,931;  242,550;52156,076;12,63713
 709,71; 6822,927;  223,627;52259,580;12,68219
 710,28; 6848,770;  219,550;52565,623;12,66422
 710,86; 6882,843;  227,242;52586,358;12,71145
 711,43; 6972,146;  244,165;52668,709;12,83365
 712,00; 7009,065;  229,935;52860,752;12,88053
 712,57; 7072,446;  239,935;52817,564;12,99509
 713,14; 7075,365;  218,550;53009,683;12,98857
 713,71; 7066,130;  226,012;52880,957;12,99046
 714,28; 7117,280;  224,012;52901,077;13,08590
 714,85; 7116,122;  196,627;52665,427;13,18783
 715,42; 7189,349;  215,627;52958,316;13,22216
 716,00; 7271,730;  254,396;53062,897;13,28826
 716,57; 7299,264;  206,089;53119,248;13,40531
 717,14; 7291,491;  200,165;53041,752;13,41997
 717,71; 7349,410;  192,858;53116,180;13,52249
 718,28; 7450,406;  225,550;53222,453;13,63260
 718,85; 7427,787;  194,935;53175,342;13,65194
 719,42; 7489,860;  223,396;53318,154;13,68584
 719,99; 7465,009;  195,704;53138,120;13,73059
 720,56; 7568,313;  222,089;53585,702;13,76636
 721,13; 7586,848;  202,012;53579,437;13,83513
 721,70; 7609,998;  192,166;53442,864;13,93002
 722,27; 7684,378;  219,166;53494,446;14,01253
 722,84; 7790,836;  247,396;53590,565;14,14134
 723,41; 7699,678;  191,243;53629,608;14,05065
 723,98; 7804,751;  201,243;53860,420;14,17001
 724,55; 7868,208;  238,320;53924,848;14,21192
 725,12; 7852,820;  158,627;53764,737;14,35320
 725,69; 7974,047;  196,781;54047,395;14,44230
 726,27; 8002,273;  207,858;54041,976;14,47858
 726,84; 8071,500;  204,627;54414,634;14,51185
 727,41; 8112,112;  223,550;54344,370;14,57583
 727,98; 8171,108;  224,935;54713,797;14,58311
 728,55; 8230,565;  240,166;54539,301;14,71552
 729,12; 8217,484;  190,935;54672,806;14,73251
 729,69; 8309,172;  232,012;54866,079;14,78411
 730,26; 8361,399;  237,320;55057,584;14,81948
 730,82; 8355,088;  206,935;54970,703;14,87873
 731,39; 8393,853;  210,551;54992,592;14,93793
 731,96; 8572,233;  203,397;55354,174;15,17447
 732,53; 8565,999;  223,166;55482,293;15,09766
 733,10; 8615,072;  231,243;55594,952;15,14318
 733,67; 8693,452;  230,397;55848,148;15,21646
 734,24; 8655,371;  216,858;55370,191;15,30010
 734,81; 8739,444;  229,012;55575,696;15,37659
 735,38; 8774,979;  215,320;55266,508;15,54855
 735,95; 8789,667;  205,166;55096,550;15,63907
 736,52; 8797,971;  235,089;55317,593;15,54556
 737,09; 8833,198;  228,397;55024,636;15,70327
 737,66; 8927,963;  262,243;55225,910;15,76627
 738,23; 8930,805;  206,397;55259,568;15,84724
 738,80; 9110,109;  258,243;55575,226;16,00208
 739,37; 9128,182;  241,474;55747,961;16,01021
 739,94; 9109,639;  218,859;55748,235;16,01095
 740,51; 9276,174;  305,474;55838,432;16,15383
 741,07; 9216,785;  224,859;55750,474;16,19419
 741,64; 9323,781;  240,551;55956,363;16,30279
 742,21; 9324,854;  217,166;56078,637;16,30406
 742,78; 9328,004;  201,243;55809,218;16,41268
 743,35; 9405,308;  212,551;56235,107;16,40903
 743,92; 9515,073;  264,013;56241,073;16,52652
 744,49; 9517,300;  228,013;56096,501;16,62706
 745,06; 9517,296;  210,013;56166,697;16,63301
 745,63; 9582,753;  207,090;56169,586;16,75348
 746,19; 9599,749;  209,551;56107,168;16,79892
 746,76; 9675,976;  230,551;56238,749;16,86436
 747,33; 9703,972;  217,859;56054,484;16,98905
 747,90; 9822,276;  240,397;56400,219;17,06180
 748,47; 9829,426;  222,244;56178,493;17,16910
 749,04; 9925,575;  226,782;56162,305;17,33924
 749,61; 9951,341;  248,244;56187,732;17,34570
 750,17; 9992,567;  238,244;56351,544;17,38327
 750,74;10041,948;  231,859;56209,510;17,52501
 751,31;10117,790;  220,244;56066,092;17,72298
 751,88;10069,325;  201,167;56004,750;17,68374
 752,45;10106,628;  221,013;56076,562;17,69854
 753,02;10110,086;  235,013;55992,758;17,71067
 753,58;10175,620;  207,474;55871,724;17,90763
 754,15;10234,309;  215,936;56093,767;17,92907
 754,72;10214,151;  207,167;55855,195;17,98264
 755,29;10194,608;  199,705;55814,468;17,97167
 755,86;10332,528;  221,167;55911,973;18,15625
 756,42;10391,754;  227,244;55749,323;18,30715
 756,99;10371,827;  196,859;55730,289;18,32224
 757,56;10406,131;  197,398;55635,024;18,41481
 758,13;10440,512;  170,705;55714,529;18,48956
 758,70;10524,738;  187,321;55711,879;18,61774
 759,26;10548,119;  197,090;55807,076;18,61362
 759,83;10601,346;  198,090;55915,426;18,67149
 760,40;10638,419;  184,321;55664,008;18,84311
 760,97;10650,799;  177,936;55709,897;18,85916
 761,53;10597,334;  175,167;55292,862;18,90893
 762,10;10670,714;  171,321;55418,675;19,00434
 762,67;10731,172;  208,706;55261,102;19,11355
 763,24;10674,168;  154,552;55011,376;19,17650
 763,80;10732,164;  190,706;55073,418;19,20725
 764,37;10789,929;  192,859;54953,307;19,35169
 764,94;10723,618;  183,090;54539,889;19,39137
 765,50;10750,075;  178,398;54532,855;19,44951
 766,07;10836,456;  221,936;54550,974;19,53747
 766,64;10794,990;  181,321;54185,171;19,65354
 767,21;10804,832;  189,629;54028,368;19,71666
 767,77;10829,059;  206,475;54018,180;19,74029
 768,34;10826,055;  207,937;53990,223;19,74278
 768,91;10852,744;  214,013;53849,189;19,83536
 769,47;10912,893;  210,937;53857,308;19,94908
 770,04;10960,889;  202,783;53783,428;20,07834
 770,61;10886,732;  202,475;53440,009;20,06903
 771,18;10836,343;  187,629;53325,744;20,03969
 771,74;10992,108;  202,552;53585,249;20,21171
 772,31;10944,720;  210,706;53371,599;20,19156
 772,88;10985,639;  184,167;53081,873;20,41955
 773,44;10935,635;  197,860;52800,070;20,41316
 774,01;10969,323;  210,860;53040,959;20,36427
 774,58;10947,704;  196,168;52673,232;20,48807
 775,14;11008,007;  189,014;52862,506;20,53973
 775,71;11019,157;  190,552;52706,241;20,61975
 776,27;11160,923;  237,937;52611,361;20,85597
 776,84;11150,611;  254,706;52651,711;20,79490
 777,41;11152,145;  217,860;52505,216;20,91191
 777,97;11048,680;  199,629;52204,258;20,86170
 778,54;11127,522;  203,322;52232,301;20,99638
 779,11;11170,749;  232,322;52317,729;21,00094
 779,67;11147,591;  192,398;52169,925;21,07679
 780,24;11132,433;  215,552;51941,430;21,10526
 780,80;11216,660;  230,552;51913,242;21,25684
 781,37;11233,579;  215,399;51974,054;21,28761
 781,94;11165,267;  213,783;51672,020;21,28228
 782,50;11201,417;  219,706;51698,678;21,33242
 783,07;11175,567;  237,014;51642,875;21,27881
 783,63;11177,717;  190,322;51544,302;21,39541
 784,20;11259,867;  235,553;51440,268;21,52988
 784,77;11180,093;  214,322;51211,388;21,50275
 785,33;11192,089;  196,937;51066,508;21,61440
 785,90;11274,086;  212,476;51080,397;21,74575
 786,46;11309,697;  234,553;50914,132;21,85327
 787,03;11264,462;  197,783;50790,867;21,87390
 787,59;11316,535;  208,322;50631,140;22,03013
 788,16;11340,839;  216,706;50664,568;22,05075
 788,73;11367,373;  223,399;50437,380;22,19297
 789,29;11244,985;  205,168;50103,192;22,12476
 789,86;11364,981;  231,245;50010,466;22,36623
 790,42;11340,438;  213,168;49875,124;22,40602
 790,99;11274,434;  228,553;49488,321;22,42374
 791,55;11266,815;  209,168;49533,286;22,41834
 792,12;11307,042;  231,476;49512,406;22,47434
 792,68;11279,268;  208,937;49095,680;22,64485
 793,25;11291,572;  226,937;48901,569;22,73183
 793,81;11319,107;  268,937;48494,612;22,91346
 794,38;11200,026;  196,322;48275,962;22,88641
 794,94;11250,791;  198,476;48162,005;23,04316
 795,51;11238,249;  230,938;47886,279;23,09775
 796,07;11166,475;  218,476;47564,168;23,12354
 796,64;11257,010;  226,399;47808,672;23,18219
 797,20;11153,621;  224,015;47354,022;23,19033
 797,77;11089,848;  205,015;46997,065;23,26214
 798,33;11075,613;  222,245;46805,723;23,29875
 798,90;11137,225;  243,861;46821,074;23,38775
 799,46;11053,298;  220,015;46297,578;23,51097
 800,03;11048,063;  220,861;46275,929;23,50925
 800,59;11078,674;  235,476;45994,818;23,69614
 801,15;11033,439;  230,476;45830,245;23,69083
 801,72;10959,205;  230,322;45478,057;23,71142
 802,28;10985,739;  259,399;45207,562;23,86380
 802,85;10910,889;  228,784;45054,297;23,83041
 803,41;10936,270;  218,092;44878,263;23,99941
 803,98;10883,189;  215,553;44497,306;24,09036
 804,54;10834,185;  229,015;44161,733;24,13957
 805,11;10817,565;  224,784;44049,161;24,17098
 805,67;10851,408;  250,323;43958,357;24,25432
 806,23;10770,019;  230,169;43495,939;24,36071
 806,80;10745,861;  247,476;43403,212;24,32674
 807,36;10762,549;  239,630;43432,563;24,36259
 807,93;10737,007;  233,630;43096,836;24,50441
 808,49;10649,157;  205,169;42759,648;24,54263
 809,05;10633,461;  191,092;42576,537;24,63668
 809,62;10680,072;  232,092;42497,119;24,72015
 810,18;10669,376;  229,553;42374,084;24,77148
 810,74;10526,679;  199,015;42189,589;24,59520
 811,31;10524,368;  195,784;41949,555;24,73689
 811,87;10547,825;  217,554;41813,598;24,83475
 812,44;10637,360;  237,630;41883,564;24,97178
 813,00;10496,740;  181,092;41517,683;24,95525
 813,56;10551,044;  232,861;41640,265;24,91869
 814,13;10521,348;  225,861;41665,077;24,84479
 814,69;10505,498;  229,554;41382,735;24,96999
 815,25;10491,340;  200,400;40900,778;25,28463
 815,82;10529,028;  230,631;40897,513;25,32379
 816,38;10509,947;  252,092;40699,633;25,36089
 816,94;10367,712;  206,477;40456,060;25,24557
 817,51;10380,401;  201,400;40201,795;25,44725
 818,07;10304,320;  203,169;39878,530;25,45951
 818,63;10310,931;  229,708;39651,188;25,57292
 819,20;10330,235;  224,938;39564,231;25,68754
 819,76;10220,077;  207,246;39142,813;25,71641
 820,32;10231,535;  256,169;39117,471;25,66915
 820,89;10134,838;  243,323;38874,668;25,60490
 821,45;10064,988;  212,785;38522,018;25,71757
 822,01;10104,600;  239,015;38368,753;25,87373
 822,57;10105,057;  236,939;38122,411;26,04724
 823,14;10005,515;  209,246;38010,685;25,91507
 823,70; 9986,511;  211,477;37733,420;26,05151
 824,26; 9900,430;  211,015;37560,001;25,94291
 824,82; 9985,503;  228,708;37415,813;26,23704
 825,39; 9908,960;  217,708;37118,241;26,26318
 825,95; 9917,264;  232,477;37037,976;26,31342
 826,51; 9878,260;  230,016;36661,711;26,48311
 827,08; 9917,410;  246,554;36741,062;26,49948
 827,64; 9903,791;  231,785;36610,028;26,58734
 828,20; 9786,171;  206,554;36350,070;26,50439
 828,76; 9806,706;  235,708;36260,344;26,56792
 829,32; 9832,548;  241,862;36114,079;26,73569
 829,89; 9804,544;  203,631;35993,507;26,82578
 830,45; 9815,463;  215,785;35818,396;26,96341
 831,01; 9744,690;  216,554;35771,515;26,79833
 831,57; 9742,763;  223,477;35624,789;26,88964
 832,14; 9795,528;  218,477;35559,832;27,09871
 832,70; 9690,293;  210,862;35379,029;26,95458
 833,26; 9735,751;  184,939;35228,994;27,25373
 833,82; 9704,285;  221,016;35148,960;27,15095
 834,38; 9733,589;  204,785;35247,772;27,19176
 834,95; 9740,354;  209,400;35016,815;27,38196
 835,51; 9753,350;  182,401;34926,781;27,54676
 836,07; 9808,346;  223,785;35040,593;27,52855
 836,63; 9861,881;  231,708;35020,098;27,68214
 837,19; 9823,492;  219,401;34756,987;27,80765
 837,75; 9736,642;  185,708;34560,029;27,78508
 838,32; 9845,099;  231,554;34622,841;27,95343
 838,88; 9865,403;  238,016;34675,500;27,95613
 839,44; 9835,938;  219,401;34458,235;28,08664
 840,00; 9866,241;  222,324;34399,278;28,21760
 840,56; 9790,930;  203,862;34165,551;28,22907
 841,12; 9775,618;  199,862;34099,825;28,24710
 841,68; 9781,460;  190,324;33935,483;28,42226
 842,25; 9790,995;  200,708;33989,449;28,38308
 842,81; 9791,452;  189,708;33763,569;28,59887
 843,37; 9760,910;  186,939;33641,996;28,61741
 843,93; 9767,060;  202,709;33671,808;28,57666
 844,49; 9847,132;  213,555;33658,697;28,80412
 845,05; 9733,513;  179,016;33464,586;28,70462
 845,61; 9792,971;  226,785;33565,552;28,69388
 846,17; 9833,736;  206,632;33410,441;28,99397
 846,73; 9822,501;  211,093;33349,099;29,00418
 847,29; 9850,189;  198,555;33127,527;29,31046
 847,86; 9781,647;  209,170;33115,185;29,09036
 848,42; 9753,720;  195,401;32856,920;29,26477
 848,98; 9765,639;  205,632;32878,732;29,25957
 849,54; 9798,173;  203,247;32831,467;29,40683
 850,10; 9788,400;  216,478;32745,279;29,42599
 850,66; 9724,935;  199,478;32511,168;29,47991
 851,22; 9808,315;  191,016;32407,211;29,85237
 851,78; 9817,004;  239,786;32581,485;29,61260
 852,34; 9788,769;  219,324;32270,451;29,85681
 852,90; 9820,611;  207,478;32195,570;30,05222
 853,46; 9772,684;  188,247;31920,459;30,20412
 854,02; 9841,372;  216,401;31898,425;30,37991
 854,58; 9809,215;  205,401;31641,468;30,55030
 855,14; 9795,980;  193,940;31606,511;30,56751
 855,70; 9693,207;  166,555;31445,400;30,45717
 856,26; 9716,203;  224,709;31435,827;30,41062
 856,82; 9670,506;  194,709;31250,563;30,51211
 857,38; 9751,964;  230,017;31264,144;30,68218
 857,94; 9678,268;  211,555;31077,110;30,67080
 858,50; 9717,648;  213,324;30971,845;30,89981
 859,06; 9676,260;  204,786;30794,119;30,96332
 859,62; 9679,640;  214,171;30736,161;31,01197
 860,18; 9618,867;  208,171;30545,666;31,02002
 860,74; 9609,171;  177,325;30374,247;31,23446
 861,30; 9594,090;  176,094;30279,598;31,28538
 861,86; 9658,009;  231,248;30364,948;31,28312
 862,42; 9593,313;  210,709;30084,991;31,40696
 862,98; 9621,847;  235,325;30010,880;31,52426
 863,54; 9553,228;  206,325;29777,692;31,60795
 864,10; 9624,839;  200,632;29861,504;31,77320
 864,66; 9513,527;  177,786;29653,008;31,67318
 865,22; 9594,216;  209,632;29465,590;32,07751
 865,78; 9541,673;  211,786;29383,402;31,98276
 866,34; 9493,131;  207,017;29318,368;31,89860
 866,90; 9453,819;  226,017;29252,410;31,79107
 867,45; 9421,661;  221,786;28986,223;31,98351
 868,01; 9354,273;  213,171;28949,573;31,81018
 868,57; 9330,884;  209,556;28593,231;32,13583
 869,13; 9329,419;  190,248;28553,351;32,22204
 869,69; 9303,107;  189,402;28412,317;32,29186
 870,25; 9318,488;  194,940;28284,052;32,48073
 870,81; 9344,560;  213,786;28210,941;32,61322
 871,37; 9338,403;  207,171;28206,676;32,61212
 871,93; 9357,860;  226,863;27964,181;32,91954
 872,49; 9374,241;  223,094;27773,531;33,21598
 873,04; 9260,006;  203,402;27623,651;33,02889
 873,60; 9261,771;  197,556;27409,694;33,30946
 874,16; 9247,767;  207,017;27378,121;33,27340
 874,72; 9256,921;  194,248;27259,121;33,48500
 875,28; 9293,306;  209,479;27254,583;33,58769
 875,84; 9266,613;  207,787;27177,429;33,58898
 876,40; 9318,306;  203,094;27136,583;33,84341
 876,95; 9340,921;  220,094;27097,275;33,93521
 877,51; 9343,306;  234,633;27088,583;33,91930
 878,07; 9421,613;  242,017;27203,967;34,04648
 878,63; 9365,921;  203,787;27116,967;34,04330
 879,19; 9464,075;  226,171;27111,044;34,36097
 879,75; 9503,537;  205,479;27221,660;34,41663
 880,30; 9548,998;  204,710;27218,813;34,59041
 880,86; 9634,306;  235,787;27351,352;34,66097
 881,42; 9644,229;  192,710;27380,737;34,76353
 881,98; 9729,613;  231,248;27497,737;34,83531
 882,54; 9796,075;  207,787;27677,813;34,90455
 883,09; 9854,844;  222,556;27728,890;35,01844
 883,65; 9913,152;  189,863;27895,967;35,09439
 884,21;10078,152;  234,479;28106,967;35,31681
 884,77;10089,075;  204,479;28148,198;35,37323
 885,32;10137,921;  208,017;28301,967;35,34535
 885,88;10273,152;  248,633;28505,121;35,47688
 886,44;10380,767;  220,479;28639,429;35,75181
 887,00;10434,537;  237,402;28713,352;35,80964
 887,56;10510,460;  208,633;28820,737;36,00514
 888,11;10507,537;  208,556;28820,660;35,99519
 888,67;10641,921;  237,402;29049,583;36,11153
 889,23;10620,460;  213,633;29155,737;35,95740
 889,79;10600,613;  197,556;28932,198;36,20389
 890,34;10621,229;  210,863;28913,044;36,27029
 890,90;10758,613;  264,710;29075,352;36,42371
 891,46;10665,613;  194,402;28963,967;36,39684
 892,01;10748,613;  233,402;29017,660;36,53112
 892,57;10725,152;  239,633;28921,813;36,55761
 893,13;10659,229;  209,402;28708,275;36,66751
 893,69;10653,383;  199,787;28602,583;36,80481
 894,24;10671,460;  226,479;28535,967;36,89569
 894,80;10663,537;  229,171;28394,275;37,04714
 895,36;10604,537;  217,787;28279,198;37,01435
 895,91;10563,767;  210,402;27991,890;37,26714
 896,47;10567,383;  227,710;27950,352;37,29685
 897,03;10487,383;  203,556;27715,429;37,37960
 897,58;10467,613;  228,556;27554,275;37,47041
 898,14;10439,844;  224,094;27410,737;37,57636
 898,70;10332,383;  184,863;27270,583;37,46446
 899,25;10417,460;  208,248;27270,583;37,72480
 899,81;10330,767;  227,017;27002,352;37,73529
 900,37;10256,075;  183,863;26745,967;37,91948
 900,92;10299,921;  222,402;26673,737;38,09834
 901,48;10227,921;  206,633;26537,429;38,05919
 902,03;10184,690;  206,479;26396,737;38,09894
 902,59;10199,537;  209,402;26331,275;38,24433
 903,15;10131,613;  229,479;26172,352;38,16900
 903,70;10014,921;  215,556;25943,121;38,08897
 904,26; 9977,460;  203,402;25826,737;38,14514
 904,82;10043,690;  216,248;25825,506;38,37457
 905,37; 9987,229;  219,710;25617,660;38,45790
 905,93; 9927,767;  206,633;25516,275;38,40882
 906,48; 9955,613;  214,787;25397,813;38,68013
 907,04; 9915,460;  231,556;25286,275;38,65102
 907,60; 9901,537;  210,094;25075,044;38,97632
 908,15; 9837,767;  195,710;24944,660;38,95946
 908,71; 9912,229;  240,479;25003,737;39,05686
 909,26; 9848,613;  195,556;24794,044;39,24248
 909,82; 9851,460;  223,017;24712,506;39,31663
 910,37; 9838,844;  248,325;24564,660;39,44065
 910,93; 9789,537;  199,094;24395,275;39,63618
 911,48; 9760,229;  203,479;24242,583;39,75502
 912,04; 9681,613;  207,633;24199,275;39,48867
 912,60; 9752,537;  209,710;24197,352;39,78226
 913,15; 9710,844;  214,863;23988,813;39,94280
 913,71; 9614,921;  200,940;23847,506;39,81120
 914,26; 9594,998;  193,479;23809,506;39,80991
 914,82; 9624,767;  209,863;23623,352;40,21145
 915,37; 9569,767;  200,940;23601,813;40,03623
 915,93; 9588,613;  245,940;23394,660;40,35935
 916,48; 9467,383;  204,094;23331,275;40,05369
 917,04; 9483,075;  227,325;23243,583;40,21397
 917,59; 9476,229;  242,248;23199,275;40,22289
 918,15; 9372,229;  186,402;22993,352;40,27644
 918,70; 9389,383;  202,940;22793,198;40,66550
 919,26; 9392,460;  209,787;22780,121;40,68470
 919,81; 9303,690;  203,248;22632,583;40,57384
 920,37; 9273,921;  201,940;22625,583;40,45721
 920,92; 9284,383;  221,633;22410,660;40,84339
 921,48; 9237,767;  192,017;22187,121;41,12620
 922,03; 9240,998;  211,402;22143,967;41,16981
 922,59; 9233,613;  206,094;22018,583;41,38693
 923,14; 9179,460;  202,556;21817,813;41,53040
 923,69; 9157,767;  222,248;21830,967;41,35145
 924,25; 9128,537;  218,017;21819,660;41,24927
 924,80; 9032,306;  220,094;21615,275;41,18783
 925,36; 9056,844;  208,094;21564,198;41,43429
 925,91; 9045,537;  207,248;21413,583;41,67759
 926,47; 8985,613;  194,633;21391,813;41,47241
 927,02; 9029,383;  244,325;21247,429;41,82743
 927,57; 8898,921;  203,479;21142,121;41,52821
 928,13; 8900,921;  196,710;21022,044;41,79626
 928,68; 8895,306;  199,710;20910,198;41,98644
 929,24; 8809,690;  180,171;20668,967;42,11823
 929,79; 8831,537;  192,094;20609,813;42,31345
 930,34; 8785,690;  203,940;20470,044;42,34534
 930,90; 8771,767;  195,710;20437,890;42,36726
 931,45; 8782,767;  210,248;20363,121;42,53745
 932,01; 8746,152;  220,940;20308,275;42,44073
 932,56; 8700,152;  223,094;20166,044;42,50654
 933,11; 8725,690;  222,248;20138,506;42,69598
 933,67; 8611,690;  207,940;19942,352;42,58424
 934,22; 8616,229;  206,940;19883,121;42,73842
 934,77; 8620,537;  238,248;19814,660;42,81831
 935,33; 8612,998;  229,248;19655,890;43,15594
 935,88; 8579,306;  219,094;19545,737;43,25744
 936,43; 8564,229;  201,863;19378,275;43,60756
 936,99; 8498,306;  213,633;19397,275;43,18613
 937,54; 8465,152;  190,248;19157,660;43,62695
 938,09; 8442,152;  218,863;19201,429;43,32022
 938,65; 8401,383;  204,479;19017,121;43,57125
 939,20; 8394,306;  198,787;19036,890;43,50501
 939,75; 8317,152;  197,710;18855,583;43,51751
 940,31; 8313,690;  190,633;18727,890;43,82017
 940,86; 8332,921;  206,556;18781,352;43,74942
 941,41; 8345,152;  260,171;18636,506;43,99670
 941,96; 8252,537;  202,094;18465,583;44,07943
 942,52; 8259,537;  205,094;18439,506;44,17166
 943,07; 8195,075;  183,325;18308,429;44,20251
 943,62; 8234,690;  204,248;18210,967;44,59692
 944,18; 8189,152;  193,402;18141,121;44,55023
 944,73; 8194,767;  211,171;18004,121;44,86944
 945,28; 8110,229;  171,940;17833,506;44,94669
 945,83; 8154,690;  210,171;17933,275;44,82578
 946,39; 8157,229;  203,479;17847,198;45,07978
 946,94; 8123,844;  221,325;17754,890;45,07081
 947,49; 8037,229;  199,402;17674,890;44,85040
 948,04; 8120,844;  225,325;17612,275;45,41061
 948,59; 8094,690;  225,863;17549,275;45,42308
 949,15; 8070,921;  193,710;17439,044;45,67735
 949,70; 8053,306;  194,940;17307,737;45,92099
 950,25; 8007,998;  221,710;17227,583;45,78588
 950,80; 7964,383;  177,094;17162,583;45,84671
 951,36; 7906,921;  168,633;17053,813;45,82888
 951,91; 7964,767;  216,017;17033,660;46,07513
 952,46; 7889,152;  186,710;16851,198;46,22069
 953,01; 7926,690;  220,017;16874,429;46,27406
 953,56; 7860,229;  190,710;16723,813;46,38887
 954,11; 7836,613;  210,017;16666,429;46,34422
 954,67; 7819,152;  190,325;16595,660;46,50211
 955,22; 7754,921;  176,940;16448,506;46,57192
 955,77; 7778,998;  226,710;16405,967;46,67883
 956,32; 7729,998;  240,863;16313,429;46,59576
 956,87; 7676,383;  192,248;16185,506;46,79556
 957,42; 7657,152;  200,710;16126,352;46,82036
 957,98; 7605,613;  191,171;16080,890;46,66188
 958,53; 7643,613;  219,171;15989,044;47,07991
 959,08; 7622,613;  188,710;15911,044;47,28244
 959,63; 7517,537;  189,940;15775,121;47,01643
 960,18; 7532,306;  210,402;15762,737;47,07913
 960,73; 7495,998;  216,325;15724,198;46,94179
 961,28; 7429,152;  184,710;15541,352;47,17465
 961,83; 7494,383;  214,633;15585,737;47,35997
 962,39; 7429,844;  191,171;15382,429;47,65026
 962,94; 7413,537;  219,017;15371,967;47,47933
 963,49; 7352,613;  210,402;15196,352;47,65938
 964,04; 7391,921;  219,940;15130,352;48,10049
 964,59; 7319,152;  176,633;15055,660;48,00394
 965,14; 7331,690;  215,479;15025,198;48,05096
 965,69; 7336,767;  204,787;14934,583;48,41873
 966,24; 7270,921;  200,633;14815,352;48,37786
 966,79; 7252,690;  218,863;14717,506;48,51369
 967,34; 7218,306;  185,094;14596,506;48,80307
 967,89; 7184,613;  202,787;14507,044;48,80943
 968,44; 7159,075;  198,017;14452,967;48,83256
 968,99; 7171,075;  213,863;14338,198;49,25692
 969,55; 7095,613;  202,094;14296,506;48,90959
 970,10; 7120,306;  205,940;14232,660;49,29425
 970,65; 7053,921;  220,094;14076,890;49,31751
 971,20; 6989,075;  196,402;14068,506;48,96642
 971,75; 6947,383;  188,094;13866,813;49,41463
 972,30; 6935,998;  201,787;13871,352;49,26427
 972,85; 6901,767;  190,325;13710,044;49,64188
 973,40; 6842,460;  195,940;13601,583;49,58001
 973,95; 6856,460;  212,633;13533,275;49,87618
 974,50; 6855,460;  232,787;13453,737;50,09226
 975,05; 6780,306;  204,248;13365,967;49,96352
 975,60; 6804,460;  219,094;13343,660;50,17587
 976,15; 6750,613;  199,325;13193,429;50,41739
 976,70; 6722,152;  219,094;13112,890;50,43556
 977,25; 6705,767;  205,633;13075,890;50,50509
 977,80; 6648,306;  194,633;12895,121;50,81437
 978,35; 6566,921;  215,171;12774,583;50,57363
 978,89; 6547,537;  183,325;12760,737;50,60033
 979,44; 6545,306;  209,017;12666,967;50,86141
 979,99; 6435,152;  185,325;12527,506;50,63795
 980,54; 6421,690;  232,325;12426,352;50,75735
 981,09; 6363,306;  216,248;12317,967;50,79491
 981,64; 6333,383;  213,094;12252,506;50,83545
 982,19; 6329,613;  238,633;12166,275;51,06609
 982,74; 6303,229;  226,787;12040,660;51,43480
 983,29; 6198,767;  202,556;11867,198;51,40502
 983,84; 6129,306;  215,633;11817,506;50,97171
 984,39; 6198,306;  255,171;11742,737;51,73537
 984,94; 6069,075;  189,402;11602,583;51,51652
 985,49; 6104,383;  232,402;11616,737;51,57948
 986,03; 6064,998;  235,863;11483,737;51,82433
 986,58; 5978,537;  250,248;11272,583;51,96983
 987,13; 5907,767;  217,940;11179,121;51,90889
 987,68; 5875,306;  224,863;11124,813;51,83916
 988,23; 5881,998;  223,402;11041,660;52,30598
 988,78; 5798,690;  194,940;10871,044;52,48872
 989,33; 5785,844;  222,633;10793,429;52,62812
 989,88; 5747,306;  228,940;10750,583;52,44776
 990,42; 5672,229;  211,556;10600,583;52,56193
 990,97; 5598,767;  207,171;10519,275;52,28415
 991,52; 5598,306;  233,710;10440,429;52,55946
 992,07; 5563,844;  236,710;10326,121;52,79926
 992,62; 5486,075;  223,710;10224,352;52,62027
 993,17; 5460,844;  221,017;10097,890;53,05148
 993,71; 5416,767;  223,094;10045,275;52,87699
 994,26; 5315,690;  204,863; 9927,275;52,56748
 994,81; 5333,537;  242,633; 9874,198;52,85645
 995,36; 5234,075;  206,940; 9703,429;52,93677
 995,91; 5253,306;  215,863; 9595,506;53,70612
 996,45; 5190,690;  221,402; 9499,890;53,55709
 997,00; 5086,537;  195,710; 9390,429;53,19169
 997,55; 5035,921;  220,863; 9359,506;52,68898
 998,10; 5024,460;  236,787; 9199,429;53,41810
 998,65; 5014,306;  214,325; 9193,044;53,45953
 999,19; 4944,690;  231,787; 9026,660;53,58695
 999,74; 4898,690;  241,094; 8959,506;53,42253
1000,29; 4839,998;  235,863; 8835,813;53,53676
1000,84; 4763,152;  209,094; 8706,352;53,59444
1001,38; 4707,690;  212,017; 8637,967;53,35509
1001,93; 4707,075;  237,633; 8545,044;53,80066
1002,48; 4618,075;  200,402; 8430,583;53,67650
1003,03; 4619,306;  218,017; 8380,583;53,92041
1003,57; 4555,690;  223,940; 8267,813;53,85155
1004,12; 4545,075;  240,325; 8173,352;54,26365
1004,67; 4441,690;  216,787; 8122,429;53,44163
1005,22; 4417,537;  214,171; 7957,890;54,28096
1005,76; 4317,613;  204,017; 7781,429;54,28762
1006,31; 4316,152;  233,094; 7764,890;54,21094
1006,86; 4228,460;  211,094; 7661,967;53,91805
1007,40; 4164,152;  198,863; 7516,121;54,19091
1007,95; 4140,152;  215,556; 7444,506;54,28999
1008,50; 4092,767;  217,940; 7290,737;54,78494
1009,04; 4014,537;  215,325; 7252,044;53,99123
1009,59; 3951,921;  221,094; 7065,506;54,50910
1010,14; 3914,613;  215,171; 6978,121;54,70161
1010,68; 3865,844;  210,402; 6885,352;54,76359
1011,23; 3813,152;  215,633; 6783,583;54,77385
1011,78; 3763,229;  230,556; 6716,813;54,46396
1012,32; 3740,998;  227,633; 6596,275;55,16663
1012,87; 3706,844;  239,248; 6569,044;54,78211
1013,42; 3638,921;  200,863; 6439,352;55,11043
1013,96; 3690,383;  236,479; 6478,429;55,33373
1014,51; 3617,306;  183,248; 6356,044;55,63213
1015,06; 3627,537;  194,248; 6373,660;55,56012
1015,60; 3665,767;  248,863; 6441,660;55,17546
1016,15; 3663,690;  200,479; 6417,044;55,70940
1016,69; 3705,690;  215,171; 6450,737;55,97759
1017,24; 3693,306;  191,248; 6452,506;55,93218
1017,79; 3792,767;  244,710; 6527,890;56,46913
1018,33; 3795,767;  206,556; 6545,967;56,61742
1018,88; 3818,844;  222,710; 6613,737;56,26849
1019,42; 3873,690;  217,402; 6592,813;57,34984
1019,97; 3824,383;  207,787; 6645,583;56,17755
1020,51; 3969,767;  221,248; 6675,352;58,07962
1021,06; 3898,306;  195,787; 6637,275;57,47925
1021,61; 3882,152;  180,556; 6637,429;57,32800
1022,15; 3861,152;  178,863; 6638,121;57,00792
1022,70; 3891,383;  216,094; 6619,583;57,39510
1023,24; 3838,383;  191,710; 6585,583;57,03387
1023,79; 3885,767;  213,017; 6536,813;58,07825
1024,33; 3813,537;  211,325; 6439,660;57,83587
1024,88; 3769,306;  218,325; 6365,737;57,76384
1025,42; 3712,075;  213,940; 6206,352;58,37607
1025,97; 3662,690;  197,248; 6175,967;57,96295
1026,51; 3548,229;  171,940; 6032,967;57,60575
1027,06; 3569,767;  199,633; 6030,737;57,79583
1027,60; 3526,229;  203,248; 5913,660;58,19162
1028,15; 3490,152;  220,094; 5816,813;58,42812
1028,69; 3370,537;  181,633; 5645,967;58,35850
1029,24; 3371,152;  202,325; 5606,352;58,63825
1029,78; 3292,383;  189,710; 5507,121;58,34931
1030,33; 3261,537;  174,402; 5402,121;59,05318
1030,87; 3238,383;  197,402; 5345,813;59,06639
1031,42; 3193,460;  183,248; 5266,275;59,22085
1031,96; 3180,998;  213,940; 5201,121;59,49369
1032,51; 3113,613;  191,094; 5094,967;59,59614
1033,05; 3128,690;  208,940; 5082,429;59,91088
1033,60; 3015,844;  174,094; 4932,121;59,72539
1034,14; 2985,921;  202,787; 4839,198;60,02777
1034,69; 2981,306;  199,633; 4803,506;60,42028
1035,23; 2941,690;  203,248; 4736,429;60,40885
1035,77; 2919,921;  198,248; 4712,044;60,29677
1036,32; 2844,229;  184,248; 4588,660;60,39356
1036,86; 2823,613;  201,325; 4551,044;60,28638
1037,41; 2790,383;  211,787; 4464,275;60,63735
1037,95; 2725,537;  181,402; 4387,813;60,48230
1038,50; 2721,152;  196,787; 4359,352;60,64446
1039,04; 2724,690;  211,479; 4286,506;61,67350
1039,58; 2650,229;  177,325; 4229,198;61,03113
1040,13; 2608,152;  201,940; 4152,429;60,90922
1040,67; 2617,306;  231,479; 4135,506;61,11195
1041,21; 2574,690;  230,248; 4055,275;61,29218
1041,76; 2492,921;  186,940; 3982,890;60,74845
1042,30; 2495,690;  199,171; 3926,121;61,61927
1042,85; 2436,998;  201,787; 3836,967;61,48832
1043,39; 2403,613;  190,863; 3820,352;60,96589
1043,93; 2393,537;  220,710; 3775,583;61,12249
1044,48; 2362,537;  206,556; 3680,660;62,05862
1045,02; 2327,460;  199,633; 3651,967;61,63443
1045,56; 2305,229;  225,171; 3618,813;61,29278
1046,11; 2276,075;  209,633; 3548,506;61,89041
1046,65; 2237,767;  216,787; 3522,890;61,12877
1047,19; 2204,998;  192,325; 3449,660;61,78896
1047,74; 2149,613;  179,556; 3397,121;61,22821
1048,28; 2138,229;  207,171; 3367,429;61,10444
1048,82; 2148,152;  215,556; 3326,890;62,11470
1049,37; 2104,844;  213,171; 3282,660;61,62828
1049,91; 2062,306;  214,171; 3209,737;61,69569
1050,45; 2067,767;  218,633; 3190,583;62,21957
1050,99; 2033,306;  208,863; 3146,506;62,10567
1051,54; 1994,921;  201,402; 3081,198;62,27938
1052,08; 1987,075;  221,710; 3041,813;62,59930
1052,62; 1967,767;  219,633; 2988,967;63,12472
1053,16; 1932,075;  197,171; 2941,737;63,21233
1053,71; 1916,690;  208,787; 2931,660;62,72433
1054,25; 1890,306;  212,402; 2884,737;62,78794
1054,79; 1876,844;  206,402; 2830,737;63,65203
1055,33; 1813,998;  182,940; 2764,506;63,18096
1055,88; 1833,921;  217,325; 2750,198;63,82460
1056,42; 1809,460;  223,171; 2709,813;63,79239
1056,96; 1786,229;  216,094; 2692,352;63,40756
1057,50; 1761,152;  221,787; 2617,198;64,26309
1058,05; 1732,844;  209,633; 2604,890;63,59280
1058,59; 1725,767;  225,710; 2565,506;64,11061
1059,13; 1663,844;  195,094; 2498,352;63,76837
1059,67; 1660,998;  218,787; 2483,044;63,69467
1060,21; 1625,767;  206,633; 2443,429;63,44497
1060,76; 1616,921;  227,017; 2397,506;64,03645
1061,30; 1611,152;  234,787; 2387,198;63,94527
1061,84; 1583,844;  216,325; 2339,198;64,41832
1062,38; 1536,921;  198,248; 2289,044;64,02695
1062,92; 1572,844;  247,171; 2322,275;63,88466
1063,46; 1541,767;  228,556; 2237,583;65,36555
1064,01; 1502,460;  213,325; 2211,044;64,53032
1064,55; 1484,383;  219,633; 2195,352;64,01466
1065,09; 1444,152;  183,863; 2112,813;65,33547
1065,63; 1480,613;  238,248; 2152,737;64,89281
1066,17; 1460,613;  239,479; 2103,737;65,50246
1066,71; 1436,229;  233,171; 2065,275;65,66537
1067,25; 1397,537;  211,479; 2028,352;65,28016
1067,80; 1401,844;  229,633; 2043,275;64,63301
1068,34; 1413,613;  245,940; 2019,813;65,82619
1068,88; 1357,844;  216,325; 1951,044;65,80426
1069,42; 1365,613;  244,863; 1978,660;64,64139
1069,96; 1342,383;  210,863; 1900,583;66,96493
1070,50; 1362,383;  247,556; 1924,506;66,47944
1071,04; 1298,613;  206,479; 1880,967;65,22199
1071,58; 1303,921;  222,017; 1857,044;66,17040
1072,12; 1297,152;  209,017; 1830,967;67,08805
1072,66; 1269,152;  208,479; 1832,967;65,29274
1073,21; 1278,537;  233,325; 1825,813;65,63385
1073,75; 1240,767;  226,863; 1769,737;65,71531
1074,29; 1231,152;  215,479; 1754,429;65,99780
1074,83; 1246,229;  240,940; 1737,813;67,15923
1075,37; 1229,075;  230,325; 1721,737;66,96676
1075,91; 1216,229;  227,787; 1700,583;67,11331
1076,45; 1180,690;  222,710; 1648,737;67,17831
1076,99; 1182,306;  240,940; 1644,121;67,08796
1077,53; 1157,460;  207,940; 1628,429;66,84456
1078,07; 1155,537;  220,556; 1626,506;66,50171
1078,61; 1149,690;  224,787; 1581,813;68,15663
1079,15; 1121,460;  214,710; 1570,044;66,90230
1079,69; 1110,537;  220,094; 1539,813;67,47210
1080,23; 1147,921;  236,094; 1549,275;69,43651
1080,77; 1143,613;  252,171; 1544,967;68,95459
1081,31; 1061,844;  215,325; 1492,737;66,26833
1081,85; 1089,460;  233,171; 1495,506;67,83371
1082,39; 1076,613;  213,325; 1457,275;69,39897
1082,93; 1056,460;  225,094; 1455,967;67,54274
1083,47; 1026,383;  210,940; 1399,813;68,58952
1084,01; 1060,690;  234,479; 1432,429;68,96878
1084,55; 1030,152;  219,171; 1379,044;69,91979
1085,09; 1022,537;  233,402; 1387,813;68,35817
1085,63; 1005,075;  218,248; 1364,121;68,66615
1086,17;  987,306;  216,479; 1355,275;67,68788
1086,71;  984,229;  216,787; 1319,506;69,59544
1087,24;  995,767;  247,863; 1344,890;68,17552
1087,78;  981,921;  231,325; 1316,121;69,19237
1088,32;  941,460;  207,710; 1275,813;68,69650
1088,86;  955,767;  242,402; 1294,352;67,81362
1089,40;  939,921;  232,710; 1262,890;68,64927
1089,94;  906,767;  196,556; 1243,121;67,86117
1090,48;  910,690;  229,325; 1235,352;67,72834
1091,02;  919,460;  232,710; 1212,352;70,10212
1091,56;  889,998;  229,940; 1211,737;67,22961
1092,10;  875,229;  213,248; 1173,121;68,96545
1092,63;  900,075;  241,863; 1199,660;68,72146
1093,17;  879,998;  234,710; 1157,813;69,90421
1093,71;  856,998;  210,248; 1145,275;69,16913
1094,25;  874,767;  242,171; 1160,583;68,87938
1094,79;  840,998;  231,556; 1116,121;68,89737
1095,33;  844,998;  219,094; 1106,275;70,54975
1095,87;  835,998;  221,402; 1097,275;70,16955
1096,40;  807,921;  211,402; 1064,890;69,89189
1096,94;  835,306;  220,710; 1059,506;73,27122
1097,48;  813,229;  232,171; 1075,813;68,87489
1098,02;  793,383;  232,017; 1032,506;70,12785
1098,56;  765,152;  206,094; 1007,967;69,71898
1099,10;  759,383;  206,633;  993,506;70,24640
1099,63;  760,537;  202,787;  988,967;70,94424
1100,17;  769,152;  222,863;  985,506;71,63102
1100,71;  787,613;  232,940;  991,737;73,09909

