
Integration time [ms]: 140,000
Averaging Nr. [scans]: 13
Smoothing Nr. [pixels]: 0
Data measured with spectrometer [name]: 2009305U1
Wave   ;Sample   ;Dark     ;Reference;Reflectance
[nm]   ;[counts] ;[counts] ;[counts] ;[%]

 175,72;  204,044;  185,479;  195,256;189,89662
 176,32;  227,611;  214,863;  213,589; 0,00000
 176,92;  255,057;  238,402;  244,147;289,89650
 177,52;  265,072;  239,171;  255,101;162,59573
 178,12;  247,040;  218,325;  215,567; 0,00000
 178,72;  264,233;  248,709;  238,776; 0,00000
 179,32;  246,516;  248,094;  241,542; 0,00000
 179,92;  252,206;  235,094;  233,146; 0,00000
 180,52;  249,224;  229,480;  243,972;136,24281
 181,12;  261,028;  244,710;  253,779;179,93367
 181,73;  273,478;  269,479;  266,724; 0,00000
 182,33;  362,182;  325,403;  327,235;2007,38790
 182,93;  260,154;  264,325;  263,605; 0,00000
 183,53;  234,613;  235,709;  223,292; 0,00000
 184,13;  236,640;  236,093;  221,711; 0,00000
 184,73;  283,272;  251,478;  257,984;488,70347
 185,33;  268,071;  223,703;  341,427;37,68789
 185,93;  275,054;  228,779;  366,740;33,54248
 186,53;  300,112;  248,010;  359,067;46,91445
 187,13;  325,262;  274,472;  411,352;37,10514
 187,73;  283,653;  238,933;  352,642;39,32888
 188,33;  280,678;  238,856;  363,204;33,63331
 188,93;  296,438;  245,547;  371,130;40,52410
 189,53;  302,534;  249,392;  378,224;41,24886
 190,13;  342,307;  273,390;  396,734;55,87371
 190,73;  294,982;  223,776;  357,743;53,15213
 191,34;  318,299;  262,315;  381,146;47,11247
 191,94;  288,156;  235,624;  353,574;44,53750
 192,54;  310,522;  242,088;  410,064;40,74005
 193,14;  306,268;  255,626;  389,518;37,82311
 193,74;  294,489;  251,934;  380,684;33,05276
 194,34;  301,938;  243,165;  382,870;42,06933
 194,94;  266,350;  214,165;  356,176;36,74736
 195,54;  239,097;  209,241;  329,743;24,77588
 196,14;  268,417;  217,550;  352,435;37,71183
 196,74;  255,120;  216,472;  355,469;27,80477
 197,34;  251,481;  190,627;  347,445;38,80529
 197,94;  266,216;  220,165;  381,711;28,50650
 198,54;  281,938;  222,703;  386,849;36,08637
 199,14;  261,446;  222,781;  387,587;23,46098
 199,74;  240,134;  196,320;  389,699;22,65711
 200,34;  254,407;  191,781;  399,400;30,16382
 200,94;  278,715;  212,858;  445,923;28,25694
 201,54;  268,934;  205,396;  445,617;26,44976
 202,14;  306,315;  216,397;  481,328;33,94026
 202,74;  285,397;  214,089;  491,643;25,69172
 203,34;  265,143;  199,243;  512,548;21,03383
 203,94;  248,829;  171,089;  515,499;22,57189
 204,54;  307,522;  235,472;  607,818;19,35016
 205,14;  290,428;  201,243;  625,848;21,00436
 205,74;  330,538;  225,936;  717,479;21,28033
 206,34;  318,456;  196,166;  752,632;21,97619
 206,94;  316,495;  197,781;  803,742;19,59104
 207,54;  311,027;  181,935;  836,884;19,71025
 208,14;  336,590;  196,166;  931,384;19,09965
 208,74;  358,615;  213,243; 1002,408;18,42102
 209,34;  374,621;  187,704; 1131,861;19,79726
 209,94;  398,459;  214,396; 1205,746;18,56691
 210,54;  425,184;  211,320; 1331,090;19,09894
 211,14;  446,392;  212,550; 1444,831;18,97636
 211,73;  462,243;  205,396; 1570,587;18,81402
 212,33;  500,874;  217,781; 1692,428;19,19734
 212,93;  515,471;  198,550; 1777,647;20,06974
 213,53;  501,764;  179,627; 1863,519;19,13048
 214,13;  554,457;  180,167; 1947,134;21,18266
 214,73;  551,777;  186,704; 1956,174;20,63173
 215,33;  544,459;  160,858; 1986,361;21,01346
 215,93;  600,435;  193,628; 2151,394;20,77913
 216,53;  597,232;  156,858; 2213,685;21,41035
 217,13;  681,392;  203,551; 2475,000;21,03685
 217,73;  745,271;  187,320; 2705,924;22,15318
 218,33;  758,310;  139,013; 2915,972;22,30127
 218,93;  873,660;  178,937; 3285,822;22,36076
 219,53;  943,459;  189,397; 3601,083;22,10231
 220,13; 1009,056;  162,628; 3919,631;22,52934
 220,73; 1106,373;  187,627; 4345,430;22,09690
 221,32; 1218,384;  177,781; 4807,485;22,47667
 221,92; 1334,899;  169,705; 5226,097;23,04398
 222,52; 1424,315;  170,320; 5728,902;22,55962
 223,12; 1530,223;  178,166; 6210,697;22,41276
 223,72; 1641,680;  189,705; 6609,886;22,61580
 224,32; 1734,701;  185,090; 7038,082;22,61219
 224,92; 1771,281;  176,013; 7429,681;21,99257
 225,52; 1872,260;  194,551; 7914,699;21,73156
 226,12; 1943,302;  189,320; 8156,380;22,01542
 226,72; 1978,494;  153,089; 8544,829;21,75240
 227,31; 2035,611;  151,397; 8937,273;21,44595
 227,91; 2148,035;  173,781; 9431,250;21,32607
 228,51; 2221,767;  178,242; 9836,402;21,15853
 229,11; 2271,988;  175,705;10277,773;20,75103
 229,71; 2335,747;  173,935;10569,057;20,79641
 230,31; 2376,878;  164,936;10971,690;20,46815
 230,91; 2423,443;  158,704;11316,961;20,29653
 231,51; 2459,312;  165,782;11651,599;19,96837
 232,10; 2505,500;  152,244;11950,374;19,94601
 232,70; 2476,861;  182,934;12128,177;19,20368
 233,30; 2560,911;  207,551;12409,368;19,28696
 233,90; 2508,029;  177,705;12542,581;18,84632
 234,50; 2493,832;  175,705;12624,090;18,62191
 235,10; 2469,742;  175,936;12587,604;18,48105
 235,70; 2457,868;  192,012;12589,246;18,27711
 236,29; 2378,453;  189,396;12470,908;17,82400
 236,89; 2316,713;  161,781;12355,974;17,67179
 237,49; 2279,130;  179,012;12190,487;17,48426
 238,09; 2169,841;  177,474;11885,708;17,01680
 238,69; 2124,797;  191,550;11608,161;16,93363
 239,29; 2021,404;  167,243;11324,076;16,61906
 239,89; 1934,903;  185,934;10841,376;16,41385
 240,48; 1814,266;  171,089;10430,461;16,01635
 241,08; 1757,075;  164,550; 9925,725;16,31488
 241,68; 1712,233;  193,704; 9670,747;16,02324
 242,28; 1621,867;  166,243; 9327,389;15,88910
 242,88; 1630,145;  200,551; 8918,630;16,39803
 243,48; 1557,135;  205,858; 8599,299;16,09920
 244,07; 1508,769;  186,320; 8384,233;16,13153
 244,67; 1518,580;  192,705; 8187,529;16,58418
 245,27; 1533,474;  202,012; 8095,587;16,86767
 245,87; 1541,169;  194,474; 7980,459;17,29640
 246,47; 1542,510;  192,781; 7916,835;17,47436
 247,06; 1603,001;  177,243; 7990,336;18,24832
 247,66; 1639,939;  177,474; 8048,290;18,58086
 248,26; 1751,929;  214,473; 8269,036;19,08801
 248,86; 1833,962;  189,012; 8400,903;20,03132
 249,46; 1892,932;  144,551; 8617,949;20,63377
 250,05; 2074,814;  196,243; 9060,084;21,19365
 250,65; 2192,730;  167,858; 9437,415;21,84432
 251,25; 2368,872;  178,320; 9988,396;22,32961
 251,85; 2583,541;  171,858;10651,004;23,01413
 252,44; 2789,963;  140,627;11248,852;23,85022
 253,04; 3089,603;  195,781;12089,583;24,33051
 253,64; 3332,044;  142,242;12890,197;25,02206
 254,24; 3687,358;  194,627;13790,358;25,68991
 254,84; 4051,547;  169,089;14803,334;26,52995
 255,43; 4401,510;  179,396;15864,429;26,91811
 256,03; 4784,568;  190,396;16954,300;27,40514
 256,63; 5182,523;  182,088;18131,034;27,85921
 257,23; 5546,301;  168,319;18989,457;28,57416
 257,82; 5949,632;  182,703;20170,973;28,85156
 258,42; 6295,175;  146,242;20962,190;29,53953
 259,02; 6714,513;  187,627;21970,194;29,96381
 259,62; 7027,866;  170,934;22616,087;30,54972
 260,21; 7358,674;  188,243;23208,899;31,14781
 260,81; 7541,235;  174,935;23814,389;31,16104
 261,41; 7787,077;  165,626;24249,895;31,64493
 262,01; 8050,435;  206,780;24823,697;31,86287
 262,60; 8213,685;  166,088;25190,303;32,15924
 263,20; 8367,230;  174,473;25501,198;32,34827
 263,80; 8554,576;  190,934;25666,154;32,83050
 264,40; 8618,488;  162,011;25910,561;32,84254
 264,99; 8742,283;  187,703;26077,975;33,04168
 265,59; 8831,953;  167,779;26263,178;33,20192
 266,19; 8891,879;  155,703;26358,343;33,34082
 266,78; 8980,570;  211,241;26526,645;33,32394
 267,38; 8999,262;  182,856;26574,819;33,40565
 267,98; 8996,329;  174,933;26521,482;33,48217
 268,58; 8941,226;  183,549;26637,110;33,10585
 269,17; 8963,608;  172,010;26578,078;33,29385
 269,77; 8865,219;  184,627;26360,820;33,16217
 270,37; 8797,424;  154,395;26285,663;33,07543
 270,96; 8775,691;  216,088;26114,464;33,05073
 271,56; 8620,718;  183,011;25847,017;32,87759
 272,16; 8584,263;  177,242;25662,532;32,98774
 272,75; 8477,195;  170,319;25533,878;32,75122
 273,35; 8423,540;  189,934;25558,768;32,45559
 273,95; 8396,497;  176,473;25489,682;32,47326
 274,54; 8335,186;  152,012;25534,849;32,23900
 275,14; 8424,358;  193,550;26005,943;31,88704
 275,74; 8411,087;  158,472;26014,058;31,91811
 276,33; 8555,242;  197,242;26447,525;31,83966
 276,93; 8574,341;  182,858;26857,798;31,45830
 277,53; 8719,294;  180,935;27406,403;31,36166
 278,12; 8844,838;  159,781;27918,410;31,28777
 278,72; 8993,675;  202,935;28556,100;31,00444
 279,32; 9226,672;  173,319;29138,181;31,25633
 279,91; 9433,132;  163,473;29950,309;31,11999
 280,51; 9615,035;  178,243;30461,040;31,16222
 281,11; 9773,712;  177,781;31261,061;30,87168
 281,70; 9925,885;  161,012;31734,847;30,92711
 282,30;10150,026;  157,704;32402,786;30,98867
 282,90;10304,587;  169,781;32829,260;31,03175
 283,49;10457,535;  186,319;33285,956;31,03120
 284,09;10637,859;  205,704;33770,223;31,08090
 284,69;10743,700;  200,627;34065,929;31,13238
 285,28;10964,248;  185,858;34456,727;31,45059
 285,88;11047,748;  214,319;34623,622;31,48401
 286,47;11076,054;  180,396;34740,226;31,52694
 287,07;11214,677;  205,627;34790,839;31,83167
 287,67;11266,520;  186,089;34931,222;31,89060
 288,26;11357,108;  187,242;34812,403;32,25939
 288,86;11420,990;  168,396;34889,979;32,40807
 289,46;11686,430;  190,242;35024,454;33,00258
 290,05;11739,415;  176,320;35064,746;33,14307
 290,65;11969,689;  171,627;35334,474;33,55264
 291,24;12125,237;  183,858;35382,728;33,92546
 291,84;12233,908;  195,550;35559,419;34,04141
 292,44;12429,500;  176,474;35643,051;34,54809
 293,03;12619,988;  237,166;35704,989;34,91283
 293,63;12682,628;  174,011;35930,474;34,98281
 294,22;12805,037;  201,012;36147,108;35,06368
 294,82;12803,537;  173,780;36066,967;35,18706
 295,41;12750,193;  160,627;35770,539;35,35411
 296,01;12773,614;  215,934;35568,408;35,52136
 296,61;12664,224;  189,242;35304,185;35,52613
 297,20;12519,540;  185,934;34895,865;35,53336
 297,80;12364,014;  192,474;34654,879;35,31831
 298,39;12171,311;  161,011;34265,466;35,21622
 298,99;12096,650;  188,242;34203,943;35,00856
 299,58;11888,662;  194,935;33946,341;34,64664
 300,18;11785,808;  208,474;33765,785;34,50018
 300,78;11523,392;  167,089;33266,446;34,30974
 301,37;11353,331;  187,241;33370,355;33,64991
 301,97;11323,240;  187,473;33330,898;33,59872
 302,56;11217,240;  178,242;33182,632;33,44706
 303,16;10995,451;  163,627;33180,943;32,80650
 303,75;10888,847;  176,243;33163,819;32,47466
 304,35;10874,133;  169,397;33468,616;32,14711
 304,94;10831,289;  182,396;33377,843;32,07938
 305,54;10661,999;  196,473;33270,715;31,64253
 306,13;10524,218;  152,782;33197,809;31,38577
 306,73;10310,138;  160,089;32978,372;30,92803
 307,33;10214,340;  185,243;32896,675;30,65930
 307,92;10124,024;  189,319;32981,544;30,29592
 308,52;10119,828;  165,627;33521,982;29,84199
 309,11;10156,054;  169,780;34004,442;29,51492
 309,71;10121,069;  153,395;34272,898;29,21401
 310,30;10094,785;  163,089;34384,044;29,02227
 310,90;10107,862;  192,935;34746,275;28,69456
 311,49; 9990,126;  189,089;34846,296;28,27994
 312,09; 9972,305;  158,550;35067,187;28,11269
 312,68; 9970,456;  214,704;35454,057;27,68425
 313,28; 9843,409;  158,781;35637,775;27,29679
 313,87; 9748,256;  146,627;35637,822;27,05355
 314,47; 9739,173;  169,934;35921,682;26,76579
 315,06; 9678,268;  157,704;36088,779;26,49674
 315,66; 9648,844;  163,858;36229,648;26,29912
 316,25; 9475,265;  145,550;36163,538;25,90293
 316,85; 9336,011;  141,935;36211,499;25,48984
 317,44; 9281,772;  162,319;36309,758;25,22849
 318,04; 9211,623;  151,627;36276,585;25,07960
 318,63; 9068,541;  146,935;36258,419;24,70573
 319,22; 9013,137;  172,857;36442,469;24,37379
 319,82; 8881,679;  169,473;36451,752;24,01229
 320,41; 8787,992;  175,473;36422,431;23,76067
 321,01; 8695,728;  184,935;36415,404;23,49071
 321,60; 8653,805;  178,704;36469,158;23,35353
 322,20; 8491,227;  168,781;36444,181;22,94240
 322,79; 8430,132;  208,781;36518,826;22,64208
 323,39; 8351,691;  175,397;36502,710;22,50729
 323,98; 8249,538;  162,935;36368,639;22,33516
 324,58; 8179,923;  174,242;36243,259;22,19545
 325,17; 8073,640;  182,165;36086,068;21,97943
 325,76; 7979,918;  181,396;35892,001;21,83811
 326,36; 7743,828;  155,320;35319,109;21,58046
 326,95; 7703,428;  190,012;35150,659;21,49107
 327,55; 7529,340;  155,473;34758,932;21,30962
 328,14; 7399,479;  178,858;34183,029;21,23451
 328,74; 7270,245;  195,627;33785,675;21,06165
 329,33; 7199,258;  182,935;33325,981;21,16982
 329,92; 7043,872;  162,626;32790,233;21,09026
 330,52; 6855,505;  167,935;32078,807;20,95703
 331,11; 6711,361;  179,088;31670,667;20,74292
 331,71; 6539,671;  175,396;31085,078;20,58991
 332,30; 6459,520;  180,627;30673,381;20,59143
 332,89; 6315,445;  217,627;30068,310;20,42773
 333,49; 6165,523;  191,550;29441,783;20,42368
 334,08; 6051,630;  173,242;29024,115;20,37508
 334,68; 5961,145;  179,165;28619,410;20,33027
 335,27; 5910,860;  193,397;28249,166;20,37892
 335,86; 5831,361;  210,550;28048,513;20,19117
 336,46; 5777,678;  188,012;27722,418;20,30066
 337,05; 5698,479;  163,011;27538,804;20,22030
 337,65; 5699,163;  151,704;27324,227;20,41570
 338,24; 5713,330;  212,550;27404,497;20,22944
 338,83; 5713,130;  199,935;27215,933;20,40715
 339,43; 5679,468;  161,780;27137,636;20,45417
 340,02; 5658,026;  174,550;27034,345;20,41518
 340,61; 5671,250;  156,935;27081,655;20,48049
 341,21; 5725,784;  207,165;27127,136;20,50009
 341,80; 5710,978;  167,858;27089,021;20,59020
 342,40; 5757,536;  173,243;27183,858;20,67444
 342,99; 5792,522;  173,858;27301,771;20,71174
 343,58; 5863,412;  174,550;27407,135;20,88991
 344,18; 5893,800;  180,397;27534,054;20,88716
 344,77; 5999,280;  167,934;27938,512;20,99829
 345,36; 6117,351;  156,012;28227,505;21,23628
 345,96; 6207,986;  186,320;28591,921;21,19887
 346,55; 6346,894;  163,320;28765,731;21,61907
 347,14; 6415,590;  150,858;29104,307;21,63726
 347,74; 6570,447;  142,859;29570,951;21,84168
 348,33; 6766,762;  173,782;30201,656;21,95620
 348,92; 6940,802;  181,705;30830,675;22,05326
 349,52; 7135,739;  156,475;31299,084;22,41066
 350,11; 7216,507;  164,934;31503,823;22,50103
 350,70; 7300,811;  166,627;31565,591;22,72108
 351,29; 7293,457;  162,933;31400,551;22,82672
 351,89; 7389,036;  181,472;31358,164;23,11844
 352,48; 7438,142;  152,781;31379,912;23,33023
 353,07; 7534,507;  170,397;31238,987;23,70275
 353,67; 7578,362;  189,552;31219,948;23,81152
 354,26; 7565,993;  174,397;31035,354;23,95129
 354,85; 7599,988;  171,704;30735,640;24,30408
 355,45; 7622,170;  157,781;30675,316;24,45935
 356,04; 7706,510;  168,320;30625,906;24,74979
 356,63; 7762,631;  194,781;30333,526;25,11004
 357,22; 7731,293;  178,318;30260,522;25,10778
 357,82; 7798,429;  190,780;30082,839;25,45040
 358,41; 7886,081;  188,781;29928,010;25,88265
 359,00; 7850,024;  172,473;29705,068;25,99687
 359,60; 7913,620;  186,243;29656,681;26,22077
 360,19; 7995,277;  184,935;29499,090;26,64359
 360,78; 8054,820;  175,550;29240,517;27,10916
 361,37; 8054,353;  169,473;29133,628;27,22289
 361,97; 8163,558;  174,627;29018,138;27,69750
 362,56; 8126,494;  161,088;28693,973;27,91658
 363,15; 8180,119;  205,396;28486,786;28,19778
 363,74; 8123,571;  166,857;28089,840;28,49522
 364,34; 8110,396;  180,396;27703,756;28,81189
 364,93; 8055,532;  156,626;27300,575;29,10006
 365,52; 8033,823;  151,781;26868,590;29,50218
 366,11; 8044,581;  167,704;26571,115;29,83280
 366,71; 8015,060;  165,550;26184,315;30,16865
 367,30; 7984,546;  174,319;25850,334;30,41838
 367,89; 8020,052;  204,012;25716,866;30,63569
 368,48; 7981,330;  185,396;25321,601;31,01476
 369,07; 7945,042;  179,396;24872,053;31,44921
 369,67; 7948,962;  194,703;24613,370;31,75546
 370,26; 7913,801;  164,319;24353,198;32,03738
 370,85; 7925,651;  175,473;24095,389;32,40052
 371,44; 7908,757;  176,088;23840,471;32,67640
 372,03; 7891,568;  151,780;23549,187;33,07968
 372,63; 7840,211;  144,627;23282,740;33,25934
 373,22; 7852,690;  169,012;22976,843;33,68877
 373,81; 7762,941;  157,011;22684,188;33,76335
 374,40; 7787,805;  164,858;22480,076;34,16030
 374,99; 7776,645;  161,781;22210,782;34,53609
 375,59; 7736,032;  159,781;21936,080;34,79127
 376,18; 7796,268;  191,858;21756,744;35,26293
 376,77; 7784,512;  185,858;21535,420;35,59162
 377,36; 7821,674;  196,781;21526,787;35,74726
 377,95; 7792,281;  179,319;21289,692;36,06266
 378,55; 7789,958;  159,320;21111,250;36,41974
 379,14; 7821,194;  180,627;20965,432;36,76035
 379,73; 7855,733;  179,319;20953,453;36,95179
 380,32; 7948,191;  185,396;20940,031;37,40271
 380,91; 7912,913;  169,473;20815,426;37,50585
 381,50; 7985,643;  185,627;20802,238;37,83365
 382,10; 8001,345;  168,089;20598,415;38,34132
 382,69; 8060,679;  152,319;20565,906;38,74067
 383,28; 8065,890;  193,627;20570,546;38,63324
 383,87; 8078,162;  166,780;20416,760;39,06859
 384,46; 8117,283;  154,857;20365,570;39,39706
 385,05; 8191,087;  189,550;20403,037;39,58514
 385,64; 8215,350;  159,242;20407,576;39,78652
 386,24; 8231,601;  153,780;20326,347;40,04359
 386,83; 8350,874;  195,472;20434,684;40,29506
 387,42; 8438,571;  193,396;20531,183;40,54116
 388,01; 8564,745;  173,318;20707,785;40,86508
 388,60; 8767,241;  174,857;20882,232;41,49432
 389,19; 8811,719;  148,779;21179,223;41,19238
 389,78; 9014,829;  158,933;21399,147;41,69400
 390,37; 9299,928;  218,010;21923,000;41,84253
 390,96; 9370,090;  177,703;21992,095;42,13909
 391,56; 9502,955;  178,471;22222,132;42,30007
 392,15; 9649,333;  166,856;22451,233;42,55213
 392,74; 9746,011;  137,163;22602,095;42,77266
 393,33; 9996,654;  165,086;22937,837;43,17251
 393,92;10211,849;  182,624;23340,175;43,30866
 394,51;10314,835;  154,856;23532,431;43,46037
 395,10;10443,579;  196,161;23799,208;43,41566
 395,69;10584,100;  183,238;23859,141;43,93016
 396,28;10667,871;  179,930;24003,788;44,02285
 396,87;10770,762;  185,698;24106,506;44,25044
 397,46;10833,462;  187,082;24267,319;44,21211
 398,06;10965,335;  196,158;24457,662;44,38792
 398,65;11055,554;  181,311;24429,499;44,84559
 399,24;11174,002;  195,156;24635,459;44,92107
 399,83;11217,627;  159,846;24668,156;45,11850
 400,42;11301,759;  209,151;24840,145;45,03516
 401,01;11465,775;  177,917;24927,239;45,60876
 401,60;11441,140;  200,529;24993,593;45,33772
 402,19;11495,922;  205,911;24794,712;45,91526
 402,78;11546,036;  203,214;24936,973;45,85968
 403,37;11491,853;  195,209;24678,939;46,13939
 403,96;11434,397;  182,204;24613,057;46,05731
 404,55;11498,714;  188,198;24449,022;46,62049
 405,14;11442,568;  192,270;24342,339;46,58495
 405,73;11470,569;  205,956;24282,307;46,78704
 406,32;11428,324;  204,336;24197,053;46,78081
 406,91;11321,843;  198,716;23854,300;47,02115
 407,50;11369,862;  182,637;23730,657;47,50814
 408,09;11209,648;  171,404;23428,345;47,46215
 408,68;11196,968;  198,480;23218,852;47,77720
 409,27;11134,272;  173,712;23079,496;47,85062
 409,86;11107,439;  182,331;22935,458;48,01585
 410,45;11190,079;  212,181;22859,844;48,47254
 411,04;11127,115;  219,645;22790,649;48,32514
 411,63;10976,653;  193,803;22535,929;48,26242
 412,22;10945,234;  196,730;22251,126;48,73633
 412,81;10784,323;  209,578;21999,350;48,53078
 413,40;10695,755;  210,349;21628,426;48,95587
 413,99;10585,249;  241,425;21414,048;48,85471
 414,58;10331,185;  185,964;20959,934;48,83622
 415,17;10274,242;  187,886;20722,461;49,11889
 415,76;10188,283;  191,499;20613,014;48,95221
 416,35;10118,787;  178,731;20458,633;49,01432
 416,94;10131,514;  216,807;20504,127;48,87145
 417,53;10228,066;  182,116;20743,475;48,85840
 418,12;10291,464;  182,963;20812,130;49,00101
 418,71;10585,391;  197,349;21237,931;49,37146
 419,30;10617,858;  192,809;21266,041;49,47058
 419,89;10719,501;  189,579;21507,440;49,39484
 420,48;10914,404;  207,503;21793,397;49,60138
 421,07;10941,301;  208,041;21857,039;49,57855
 421,66;10949,577;  170,888;21773,423;49,89548
 422,25;10962,110;  178,505;21775,810;49,93033
 422,84;10973,500;  227,275;21774,119;49,87378
 423,43;10829,441;  192,813;21469,018;49,99307
 424,02;10764,876;  215,967;21168,507;50,34669
 424,60;10492,432;  189,507;20824,096;49,93036
 425,19;10388,472;  203,045;20477,464;50,23782
 425,78;10397,283;  209,814;20391,473;50,47885
 426,37;10284,880;  207,968;20246,882;50,28672
 426,96;10285,799;  199,045;20218,916;50,38371
 427,55;10184,670;  192,585;19960,493;50,54700
 428,14;10095,223;  191,124;19793,329;50,52544
 428,73; 9962,772;  205,354;19583,055;50,35385
 429,32; 9980,974;  211,122;19584,749;50,42862
 429,91;10035,024;  233,892;19529,175;50,79548
 430,50; 9907,742;  218,662;19366,276;50,60202
 431,08; 9811,271;  230,432;19301,206;50,23833
 431,67; 9824,406;  264,740;19215,174;50,44563
 432,26; 9717,534;  273,971;18971,642;50,50663
 432,85; 9562,624;  291,586;18493,128;50,93545
 433,44; 9381,206;  295,587;18235,717;50,64411
 434,03; 9184,203;  302,357;17860,136;50,58638
 434,62; 9023,245;  266,126;17454,038;50,94929
 435,21; 8875,056;  289,663;17279,103;50,53370
 435,79; 8783,787;  269,126;17147,510;50,44713
 436,38; 8754,426;  274,742;17013,446;50,65914
 436,97; 8670,477;  269,666;16897,955;50,52120
 437,56; 8568,493;  268,744;16698,406;50,51686
 438,15; 8522,657;  246,897;16649,840;50,45289
 438,74; 8554,377;  260,513;16620,721;50,69534
 439,33; 8532,346;  238,359;16702,690;50,37549
 439,91; 8546,147;  210,667;16714,475;50,50641
 440,50; 8582,702;  250,052;16805,245;50,33255
 441,09; 8654,852;  256,130;16853,992;50,60123
 441,68; 8656,088;  238,977;16900,162;50,51928
 442,27; 8649,188;  214,130;16875,370;50,62683
 442,86; 8626,004;  203,132;16871,062;50,53340
 443,44; 8652,280;  209,670;16929,052;50,49595
 444,03; 8699,107;  269,670;16947,455;50,54290
 444,62; 8624,781;  212,901;16741,408;50,89316
 445,21; 8505,547;  230,285;16662,740;50,35925
 445,80; 8499,733;  246,133;16529,484;50,68736
 446,39; 8353,272;  270,748;16293,581;50,44379
 446,97; 8239,396;  216,441;16023,894;50,75425
 447,56; 8130,808;  201,980;15930,231;50,41137
 448,15; 8021,613;  210,595;15658,197;50,56460
 448,74; 7896,982;  232,057;15404,330;50,51929
 449,33; 7839,898;  223,134;15306,025;50,49936
 449,91; 7733,474;  209,904;15043,812;50,71873
 450,50; 7600,117;  210,596;14809,734;50,61614
 451,09; 7536,770;  228,212;14737,085;50,37302
 451,68; 7512,501;  245,520;14670,903;50,37635
 452,26; 7444,454;  231,674;14547,251;50,38413
 452,85; 7352,868;  223,059;14474,527;50,02859
 453,44; 7381,086;  233,598;14477,789;50,17827
 454,03; 7336,745;  208,751;14409,440;50,19470
 454,61; 7287,075;  194,368;14394,196;49,94925
 455,20; 7413,371;  242,753;14645,484;49,78652
 455,79; 7370,708;  233,829;14545,669;49,86696
 456,38; 7406,384;  240,753;14664,252;49,68025
 456,97; 7438,091;  215,138;14693,862;49,88667
 457,55; 7403,809;  219,369;14753,117;49,43281
 458,14; 7414,783;  243,907;14678,960;49,67683
 458,73; 7380,798;  227,292;14572,523;49,86679
 459,31; 7370,301;  261,908;14695,757;49,24808
 459,90; 7427,716;  266,062;14768,901;49,38105
 460,49; 7490,048;  291,600;14853,519;49,43337
 461,08; 7452,997;  212,986;14904,789;49,27925
 461,66; 7489,121;  223,370;14996,133;49,18343
 462,25; 7541,820;  218,294;15105,889;49,19214
 462,84; 7548,908;  250,909;15144,195;49,00194
 463,43; 7502,353;  192,910;15112,974;48,99070
 464,01; 7471,379;  227,295;15124,710;48,62645
 464,60; 7463,646;  262,910;15008,810;48,83213
 465,19; 7365,898;  206,372;14735,058;49,27855
 465,77; 7344,696;  231,219;14816,098;48,77296
 466,36; 7257,371;  234,602;14635,482;48,76625
 466,95; 7098,798;  213,910;14334,107;48,75915
 467,53; 6935,765;  225,373;13996,613;48,72758
 468,12; 6848,359;  251,681;13737,703;48,91493
 468,71; 6686,307;  222,372;13525,250;48,59050
 469,29; 6525,360;  218,142;13284,806;48,26954
 469,88; 6387,858;  216,912;13029,244;48,16411
 470,47; 6449,440;  273,451;13158,601;47,93106
 471,06; 6418,254;  229,990;13148,888;47,90086
 471,64; 6435,210;  234,066;13269,622;47,57099
 472,23; 6415,351;  203,529;13264,171;47,56138
 472,81; 6444,162;  211,144;13426,775;47,16398
 473,40; 6515,418;  215,298;13491,086;47,45572
 473,99; 6653,377;  295,299;13668,872;47,54211
 474,57; 6649,374;  215,529;13761,338;47,49694
 475,16; 6705,149;  223,221;14021,827;46,97523
 475,75; 6770,862;  241,222;14083,900;47,17035
 476,33; 6815,819;  252,992;14178,270;47,12887
 476,92; 6782,605;  237,683;14238,856;46,74553
 477,51; 6827,907;  238,069;14284,269;46,91545
 478,09; 6831,133;  239,376;14291,303;46,90999
 478,68; 6801,344;  255,530;14172,497;47,03478
 479,27; 6758,580;  267,145;14274,601;46,34271
 479,85; 6705,703;  240,223;14264,334;46,10260
 480,44; 6783,953;  224,684;14440,310;46,14126
 481,02; 7377,437;  238,685;16174,261;44,79758
 481,61; 8303,031;  268,531;18120,700;45,00574
 482,20; 8796,604;  251,608;19269,034;44,93245
 482,78; 9171,951;  266,069;20038,514;45,04189
 483,37; 9368,823;  275,147;20557,589;44,83521
 483,95; 9495,502;  289,917;20826,718;44,82483
 484,54; 9577,889;  306,300;20939,986;44,93424
 485,13; 9506,978;  269,840;20848,071;44,88791
 485,71; 9423,921;  258,302;20600,108;45,05804
 486,30; 9287,378;  292,225;20289,066;44,98287
 486,88; 9180,608;  318,148;19848,199;45,37858
 487,47; 8728,224;  301,840;19068,101;44,90177
 488,05; 8382,646;  290,302;18135,509;45,34744
 488,64; 7760,024;  296,149;16826,665;45,15210
 489,23; 6873,266;  299,533;14648,069;45,81466
 489,81; 5915,148;  292,533;12727,450;45,21634
 490,40; 5550,914;  262,918;12174,203;44,39484
 490,98; 5410,943;  241,687;12001,033;43,95870
 491,57; 5357,047;  267,610;11920,719;43,67450
 492,15; 5301,140;  240,841;11848,427;43,59475
 492,74; 5251,377;  248,302;11756,522;43,47393
 493,32; 5194,614;  269,380;11664,759;43,22133
 493,91; 5111,829;  247,611;11538,005;43,08280
 494,50; 5121,131;  253,920;11551,377;43,08236
 495,08; 5056,417;  237,920;11464,411;42,92078
 495,67; 5081,763;  258,534;11410,599;43,24965
 496,25; 4936,236;  202,535;11338,494;42,50825
 496,84; 4882,760;  218,688;11293,372;42,11472
 497,42; 4898,339;  205,227;11275,329;42,39448
 498,01; 4873,349;  235,380;11233,343;42,17117
 498,59; 4800,404;  206,919;11143,273;42,00198
 499,18; 4780,306;  202,457;11113,159;41,95742
 499,76; 4726,326;  221,611;11029,806;41,67869
 500,35; 4607,522;  213,612;10794,348;41,52745
 500,93; 4563,064;  209,996;10775,504;41,20075
 501,52; 4520,930;  206,535;10692,500;41,14447
 502,10; 4470,995;  218,536;10608,342;40,92915
 502,69; 4371,410;  212,459;10452,275;40,61549
 503,27; 4263,252;  189,766;10305,740;40,26786
 503,86; 4268,559;  203,305;10219,637;40,58626
 504,44; 4197,287;  181,152;10105,382;40,46798
 505,03; 4042,921;  184,305; 9814,353;40,06850
 505,61; 3991,567;  193,151; 9686,655;40,01069
 506,19; 3946,990;  210,152; 9553,006;39,99675
 506,78; 3788,150;  181,152; 9330,300;39,42441
 507,36; 3723,864;  190,305; 9200,216;39,21857
 507,95; 3666,688;  197,383; 9079,567;39,05914
 508,53; 3599,195;  188,998; 8945,710;38,94381
 509,12; 3509,171;  198,845; 8786,400;38,54795
 509,70; 3466,532;  214,230; 8617,135;38,70450
 510,29; 3385,405;  226,922; 8521,180;38,08035
 510,87; 3287,467;  190,614; 8322,616;38,08230
 511,46; 3205,200;  194,614; 8135,117;37,91430
 512,04; 3131,045;  195,922; 8010,260;37,56073
 512,62; 3099,888;  201,076; 7840,767;37,94410
 513,21; 2994,987;  175,845; 7675,851;37,58853
 513,79; 2938,915;  196,231; 7565,749;37,21659
 514,38; 2854,899;  184,385; 7423,098;36,89211
 514,96; 2861,385;  215,769; 7305,234;37,31756
 515,54; 2748,432;  176,693; 7155,496;36,85072
 516,13; 2727,154;  209,616; 7052,501;36,79059
 516,71; 2663,892;  194,693; 6922,234;36,70284
 517,30; 2573,477;  187,078; 6804,706;36,06125
 517,88; 2586,238;  212,770; 6736,359;36,38286
 518,46; 2494,242;  178,540; 6619,488;35,95281
 519,05; 2494,703;  190,156; 6566,140;36,14419
 519,63; 2433,359;  196,309; 6533,682;35,29933
 520,22; 2423,729;  211,541; 6472,086;35,33539
 520,80; 2351,302;  200,541; 6413,441;34,61766
 521,38; 2357,873;  221,156; 6378,678;34,70093
 521,97; 2299,840;  184,464; 6303,939;34,56793
 522,55; 2280,325;  200,772; 6314,105;34,01667
 523,13; 2253,887;  181,541; 6333,124;33,68802
 523,72; 2216,541;  197,540; 6271,219;33,24182
 524,30; 2280,915;  211,542; 6450,215;33,17009
 524,89; 2242,644;  180,772; 6416,601;33,06492
 525,47; 2279,961;  202,696; 6547,297;32,74068
 526,05; 2248,624;  171,619; 6550,887;32,55867
 526,64; 2279,745;  203,773; 6701,691;31,94826
 527,22; 2332,486;  202,157; 6795,446;32,31057
 527,80; 2352,913;  233,234; 6919,050;31,70412
 528,39; 2354,743;  192,081; 7006,777;31,73527
 528,97; 2338,928;  202,388; 7150,926;30,74805
 529,55; 2378,693;  209,926; 7310,064;30,54542
 530,14; 2447,774;  215,081; 7543,808;30,46495
 530,72; 2410,923;  196,927; 7637,114;29,75726
 531,30; 2455,654;  183,004; 7742,240;30,06455
 531,89; 2475,234;  198,389; 7837,915;29,80348
 532,47; 2480,749;  227,620; 7895,267;29,38489
 533,05; 2489,303;  230,157; 7966,554;29,20152
 533,63; 2491,235;  228,312; 8043,921;28,95390
 534,22; 2479,366;  198,004; 8116,293;28,81130
 534,80; 2508,810;  219,774; 8110,030;29,01092
 535,38; 2595,358;  296,004; 8220,505;29,01576
 535,97; 2464,088;  223,697; 8181,626;28,15295
 536,55; 2509,939;  257,313; 8293,586;28,03073
 537,13; 2490,285;  265,312; 8221,060;27,96686
 537,71; 2520,096;  304,389; 8292,475;27,73766
 538,30; 2490,207;  324,928; 8378,768;26,88506
 538,88; 2509,232;  358,005; 8484,878;26,47053
 539,46; 2575,679;  402,313; 8679,350;26,25778
 540,05; 2552,137;  415,236; 8811,236;25,45141
 540,63; 2608,340;  474,313; 9016,258;24,98292
 541,21; 2653,811;  497,313; 9124,994;24,99510
 541,79; 2679,775;  543,852; 9286,054;24,43233
 542,38; 2680,795;  566,313; 9436,804;23,83726
 542,96; 2712,230;  586,621; 9648,923;23,45550
 543,54; 2758,795;  585,544; 9774,071;23,65179
 544,12; 2746,705;  554,544; 9925,738;23,39254
 544,70; 2755,369;  541,852;10034,565;23,31806
 545,29; 2793,346;  552,928;10167,424;23,30250
 545,87; 2792,160;  520,775;10175,823;23,52536
 546,45; 2751,017;  469,543;10213,458;23,41435
 547,03; 2780,870;  460,313;10338,275;23,49226
 547,62; 2787,063;  440,159;10371,653;23,63092
 548,20; 2808,136;  429,621;10649,692;23,27298
 548,78; 2810,267;  392,545;10726,633;23,39560
 549,36; 2835,071;  360,391;10947,316;23,37486
 549,94; 2847,516;  322,929;11006,747;23,63001
 550,53; 2878,225;  324,622;11243,183;23,38772
 551,11; 2894,949;  301,699;11440,296;23,28166
 551,69; 2931,773;  316,314;11775,094;22,82493
 552,27; 2935,167;  258,468;12019,913;22,75825
 552,85; 3028,647;  273,776;12331,800;22,84678
 553,44; 3049,913;  266,084;12661,243;22,45901
 554,02; 3113,606;  283,699;13009,915;22,23683
 554,60; 3106,273;  228,699;13317,373;21,98522
 555,18; 3209,342;  264,391;13670,068;21,96794
 555,76; 3240,393;  237,545;13982,808;21,84642
 556,34; 3328,892;  247,930;14373,251;21,81162
 556,93; 3375,445;  235,545;14761,461;21,61585
 557,51; 3404,615;  214,238;15113,995;21,41228
 558,09; 3451,314;  248,699;15461,243;21,05246
 558,67; 3534,892;  246,931;15807,594;21,12995
 559,25; 3550,725;  245,623;16052,149;20,90973
 559,83; 3587,170;  225,470;16360,625;20,83463
 560,41; 3631,398;  229,007;16748,020;20,59681
 561,00; 3697,928;  232,315;17058,150;20,59697
 561,58; 3704,295;  228,469;17273,626;20,39187
 562,16; 3733,003;  220,930;17603,283;20,20482
 562,74; 3746,198;  205,545;17974,133;19,92647
 563,32; 3803,790;  193,854;18466,437;19,75602
 563,90; 3882,602;  226,931;18797,564;19,68523
 564,48; 3970,365;  234,392;19240,173;19,65704
 565,06; 4046,740;  222,085;19811,180;19,52441
 565,65; 4148,139;  222,470;20536,897;19,32454
 566,23; 4327,289;  270,469;21375,060;19,22245
 566,81; 4368,268;  223,777;21991,961;19,03922
 567,39; 4558,841;  236,700;22887,870;19,08131
 567,97; 4663,641;  238,238;23568,060;18,96887
 568,55; 4793,723;  248,085;24331,907;18,87424
 569,13; 4866,167;  219,931;25091,035;18,68126
 569,71; 5026,316;  221,545;26028,403;18,61819
 570,29; 5182,740;  258,468;26992,073;18,41978
 570,87; 5317,215;  253,161;27666,210;18,47315
 571,45; 5359,286;  249,931;28319,910;18,20221
 572,03; 5380,073;  213,008;28803,973;18,07237
 572,61; 5466,710;  209,008;29491,672;17,95500
 573,20; 5620,528;  237,392;30208,755;17,96093
 573,78; 5713,039;  222,008;30773,869;17,97282
 574,36; 5717,373;  242,777;31246,514;17,65786
 574,94; 5809,998;  284,316;31638,691;17,62332
 575,52; 5758,872;  237,163;31890,279;17,44444
 576,10; 5889,498;  301,316;32476,509;17,36798
 576,68; 5963,942;  280,393;33059,293;17,33905
 577,26; 6053,393;  290,778;33663,469;17,26746
 577,84; 6068,376;  299,392;34257,356;16,98860
 578,42; 6100,957;  337,470;34447,841;16,89658
 579,00; 6050,518;  296,623;34622,839;16,76239
 579,58; 6059,319;  321,470;34793,157;16,64511
 580,16; 5991,674;  302,470;34834,726;16,47504
 580,74; 6001,003;  314,316;34963,385;16,41223
 581,32; 5933,330;  297,778;35007,191;16,23638
 581,90; 5919,584;  325,624;35003,337;16,13128
 582,48; 5906,461;  324,009;35042,081;16,07938
 583,06; 5880,675;  329,701;35222,640;15,90859
 583,64; 5868,808;  313,931;35325,674;15,86575
 584,22; 5767,425;  323,701;35070,002;15,66706
 584,80; 5692,603;  335,393;34670,124;15,60289
 585,38; 5566,730;  333,007;34418,597;15,35465
 585,96; 5517,389;  316,316;34450,724;15,23704
 586,54; 5512,464;  330,470;34470,574;15,17861
 587,12; 5453,755;  295,086;34696,133;14,99568
 587,70; 5465,257;  331,162;34753,613;14,91496
 588,28; 5417,606;  318,470;34764,330;14,80334
 588,86; 5380,273;  315,701;34867,916;14,65773
 589,44; 5307,983;  292,163;34889,572;14,49767
 590,02; 5333,408;  309,548;35182,730;14,40609
 590,59; 5289,066;  279,547;35275,416;14,31460
 591,17; 5278,693;  284,241;35504,999;14,18042
 591,75; 5273,451;  279,317;35586,313;14,14488
 592,33; 5284,035;  293,086;35815,051;14,05032
 592,91; 5272,077;  252,779;35952,788;14,05965
 593,49; 5282,620;  259,472;36396,482;13,90029
 594,07; 5317,300;  273,010;36539,862;13,90882
 594,65; 5277,847;  278,932;36458,604;13,81692
 595,23; 5287,974;  267,163;36971,785;13,67896
 595,81; 5257,033;  264,933;37058,179;13,56798
 596,39; 5253,403;  259,009;37120,051;13,54925
 596,97; 5239,041;  260,856;37369,541;13,41515
 597,55; 5209,829;  251,163;37243,691;13,40451
 598,12; 5172,833;  243,626;37252,491;13,31899
 598,70; 5167,825;  238,395;37384,802;13,27028
 599,28; 5167,725;  252,702;37532,327;13,18421
 599,86; 5156,337;  251,087;37624,562;13,12495
 600,44; 5099,699;  218,164;37634,990;13,04636
 601,02; 5154,139;  261,473;37607,537;13,10089
 601,60; 5084,002;  249,010;37692,240;12,91286
 602,18; 5038,617;  227,087;37760,235;12,81941
 602,75; 5043,627;  228,086;37816,367;12,81128
 603,33; 5026,684;  244,856;37813,806;12,72814
 603,91; 5015,278;  228,472;37735,988;12,76226
 604,49; 5015,923;  255,549;37919,537;12,63906
 605,07; 5008,840;  258,087;37892,202;12,62353
 605,65; 5016,385;  263,087;37828,516;12,65338
 606,23; 5013,055;  345,009;38089,766;12,36740
 606,80; 4989,745;  375,394;38053,273;12,24684
 607,38; 4960,756;  420,088;38173,625;12,02713
 607,96; 4952,809;  460,856;38192,653;11,90496
 608,54; 5001,041;  528,318;38274,038;11,84962
 609,12; 4931,261;  537,702;38322,952;11,62771
 609,70; 4931,040;  574,087;38394,109;11,52023
 610,27; 4929,177;  572,471;38341,038;11,53527
 610,85; 4935,475;  583,010;38466,100;11,48920
 611,43; 4904,884;  580,549;38473,524;11,41197
 612,01; 4849,326;  557,010;38197,877;11,40334
 612,59; 4873,329;  540,164;38279,216;11,48191
 613,16; 4792,230;  514,163;38255,019;11,33537
 613,74; 4801,892;  475,933;38005,563;11,52678
 614,32; 4781,954;  446,318;38048,722;11,53021
 614,90; 4771,126;  421,779;37967,523;11,58413
 615,48; 4703,385;  369,471;37642,276;11,62755
 616,05; 4657,680;  333,624;37708,292;11,56948
 616,63; 4642,667;  337,778;37300,539;11,64656
 617,21; 4647,159;  335,855;37342,529;11,65007
 617,79; 4611,706;  325,471;37239,624;11,61136
 618,36; 4608,804;  323,779;37037,877;11,67133
 618,94; 4490,537;  255,394;36831,614;11,57895
 619,52; 4481,968;  285,701;36580,373;11,56166
 620,10; 4484,659;  280,009;36601,034;11,57635
 620,67; 4486,336;  278,547;36485,988;11,62134
 621,25; 4441,292;  311,010;36332,193;11,46626
 621,83; 4457,479;  285,086;36254,353;11,59988
 622,41; 4465,222;  323,471;36257,268;11,52606
 622,98; 4425,039;  299,778;36033,766;11,54436
 623,56; 4408,240;  295,086;35950,300;11,53591
 624,14; 4364,825;  271,164;35808,053;11,51947
 624,72; 4376,099;  283,086;35743,165;11,54259
 625,29; 4410,678;  268,624;35732,595;11,67961
 625,87; 4419,203;  308,010;35786,641;11,58780
 626,45; 4344,238;  265,624;35596,350;11,54410
 627,02; 4337,668;  263,010;35574,791;11,53909
 627,60; 4303,455;  258,626;35490,755;11,48051
 628,18; 4306,876;  244,240;35594,183;11,49262
 628,76; 4291,367;  259,547;35594,347;11,41034
 629,33; 4334,668;  269,317;35636,853;11,49459
 629,91; 4324,428;  256,009;35550,649;11,52701
 630,49; 4342,359;  277,471;35666,134;11,48641
 631,06; 4357,868;  271,317;35835,899;11,49051
 631,64; 4354,336;  264,855;35698,240;11,54132
 632,22; 4301,810;  239,239;35773,392;11,43286
 632,79; 4382,017;  258,470;36012,918;11,53296
 633,37; 4365,742;  234,471;36065,005;11,53003
 633,95; 4377,651;  257,547;36057,791;11,50859
 634,52; 4369,932;  224,702;36271,469;11,49959
 635,10; 4422,950;  223,625;36225,572;11,66416
 635,68; 4420,751;  239,470;36398,362;11,56363
 636,25; 4417,209;  225,931;36481,485;11,56038
 636,83; 4455,983;  212,240;36640,886;11,64947
 637,41; 4474,595;  215,701;36642,490;11,69166
 637,98; 4521,148;  249,162;36838,310;11,67556
 638,56; 4507,484;  245,085;37009,638;11,59377
 639,13; 4532,646;  224,470;37001,112;11,71443
 639,71; 4619,343;  269,394;37268,903;11,75678
 640,29; 4522,586;  200,394;37032,628;11,73481
 640,86; 4572,537;  214,086;37229,056;11,77483
 641,44; 4563,026;  222,317;37145,176;11,75616
 642,02; 4602,516;  238,471;37227,218;11,79831
 642,59; 4570,005;  210,163;37250,569;11,77050
 643,17; 4606,341;  216,624;37360,919;11,81801
 643,74; 4574,138;  213,317;37234,731;11,77919
 644,32; 4612,166;  251,548;37263,082;11,78178
 644,89; 4635,655;  233,086;37256,971;11,89116
 645,47; 4682,452;  262,317;37298,860;11,93452
 646,05; 4636,787;  226,009;37154,057;11,94425
 646,62; 4666,661;  230,855;37231,484;11,98846
 647,20; 4643,382;  238,932;37420,758;11,84570
 647,77; 4641,409;  210,009;37197,954;11,98066
 648,35; 4644,206;  213,086;37083,689;12,01803
 648,92; 4687,927;  241,009;37129,425;12,05505
 649,50; 4644,493;  203,778;37099,929;12,03571
 650,08; 4657,982;  198,317;37006,356;12,11601
 650,65; 4693,702;  201,471;37262,092;12,12131
 651,23; 4829,807;  207,548;38161,904;12,17847
 651,80; 4990,835;  209,779;39002,254;12,32470
 652,38; 5063,478;  215,394;39431,451;12,36250
 652,95; 5142,044;  196,932;39754,571;12,50103
 653,53; 5194,149;  219,702;39976,998;12,51204
 654,10; 5249,792;  243,932;40173,964;12,53658
 654,68; 5221,897;  211,086;40104,007;12,56065
 655,25; 5237,694;  201,702;40172,896;12,59905
 655,83; 5248,260;  206,394;40271,246;12,58426
 656,40; 5341,442;  227,394;40136,674;12,81418
 656,98; 5313,316;  207,471;40074,255;12,80727
 657,55; 5298,267;  212,702;39932,682;12,80354
 658,13; 5261,218;  201,702;39496,571;12,87577
 658,70; 5236,707;  232,086;39202,922;12,84196
 659,28; 5120,427;  222,010;38260,888;12,87740
 659,85; 5027,686;  218,856;37545,777;12,88301
 660,43; 5052,560;  228,856;37693,743;12,87527
 661,00; 5075,434;  211,856;37842,786;12,92442
 661,58; 5093,769;  199,856;38096,290;12,91392
 662,15; 5181,182;  195,548;38274,641;13,09284
 662,73; 5242,286;  255,779;38669,760;12,98097
 663,30; 5296,699;  216,087;38896,649;13,13479
 663,88; 5296,342;  216,779;39132,077;13,05287
 664,45; 5371,216;  207,702;39339,350;13,19524
 665,03; 5399,321;  216,010;39734,162;13,11628
 665,60; 5561,887;  273,933;40079,436;13,28448
 666,17; 5556,146;  218,164;40213,633;13,34647
 666,75; 5603,096;  210,010;40594,291;13,35442
 667,32; 5717,355;  226,548;40927,949;13,49046
 667,90; 5747,152;  213,471;41280,069;13,47489
 668,47; 5798,641;  229,625;41381,727;13,53276
 669,05; 5849,208;  208,087;41795,539;13,56448
 669,62; 5868,159;  185,395;41861,736;13,63547
 670,19; 5900,648;  204,087;41920,856;13,65533
 670,77; 5998,214;  216,241;42237,283;13,75971
 671,34; 6006,704;  204,856;42056,634;13,86285
 671,92; 6063,885;  201,856;42458,907;13,87231
 672,49; 6090,759;  232,010;42329,565;13,91708
 673,06; 6125,172;  171,472;42392,685;14,10121
 673,64; 6130,276;  187,625;42370,959;14,08768
 674,21; 6157,612;  191,087;42297,848;14,16999
 674,79; 6238,409;  211,241;42510,506;14,24887
 675,36; 6295,821;  224,626;42634,395;14,31556
 675,93; 6230,926;  185,395;42558,822;14,26727
 676,51; 6305,723;  231,472;42655,250;14,31804
 677,08; 6373,289;  211,856;42699,062;14,50186
 677,65; 6394,625;  204,933;42771,259;14,54129
 678,23; 6468,884;  209,395;43135,224;14,58210
 678,80; 6486,219;  195,780;43281,960;14,59967
 679,38; 6556,093;  207,933;43472,695;14,67282
 679,95; 6634,352;  217,626;43720,276;14,75020
 680,52; 6680,610;  206,318;43988,780;14,78741
 681,10; 6831,253;  218,472;44433,439;14,95598
 681,67; 6912,589;  219,164;44791,097;15,01713
 682,24; 6945,694;  191,857;44849,909;15,12345
 682,82; 7053,721;  199,626;45425,798;15,15515
 683,39; 7191,134;  238,857;45725,302;15,28428
 683,96; 7242,777;  202,780;45906,730;15,40348
 684,54; 7320,805;  195,395;46337,080;15,44246
 685,11; 7446,679;  224,318;46704,200;15,53868
 685,68; 7561,937;  214,087;47093,627;15,67390
 686,25; 7607,196;  195,857;47210,209;15,76399
 686,83; 7630,070;  202,857;47313,175;15,76558
 687,40; 7746,252;  189,241;47709,294;15,90278
 687,97; 7912,972;  227,241;48147,183;16,03869
 688,55; 7901,153;  191,472;48144,688;16,07751
 689,12; 7940,797;  186,318;48370,731;16,09333
 689,69; 8019,055;  179,780;48471,696;16,23310
 690,26; 8072,006;  210,395;48612,355;16,24234
 690,84; 8126,188;  194,934;48750,474;16,33440
 691,41; 8181,446;  207,703;48757,671;16,42379
 691,98; 8255,782;  211,703;49097,099;16,45497
 692,56; 8331,117;  184,472;49191,141;16,62354
 693,13; 8410,607;  249,549;49151,953;16,68846
 693,70; 8448,096;  224,934;49352,304;16,73845
 694,27; 8429,893;  206,549;49474,193;16,69117
 694,84; 8537,306;  199,780;49548,005;16,89529
 695,42; 8593,256;  233,703;49732,125;16,88853
 695,99; 8609,746;  217,472;49894,398;16,89371
 696,56; 8620,389;  192,396;49755,595;17,00454
 697,13; 8793,878;  209,549;50070,792;17,21644
 697,71; 8810,752;  186,934;50102,065;17,27696
 698,28; 8896,780;  199,242;50599,416;17,25696
 698,85; 8951,193;  166,088;50532,536;17,44238
 699,42; 8965,374;  185,549;50656,348;17,39585
 699,99; 9039,325;  218,626;50743,006;17,45830
 700,57; 9137,507;  206,857;50905,049;17,61532
 701,14; 9153,996;  192,396;51031,092;17,62752
 701,71; 9345,409;  219,319;51123,596;17,92794
 702,28; 9382,590;  203,703;51221,716;17,99146
 702,85; 9399,772;  208,242;51270,682;18,00057
 703,43; 9509,031;  222,396;51474,417;18,11955
 704,00; 9591,366;  230,627;51701,844;18,18636
 704,57; 9622,548;  214,165;51713,964;18,26878
 705,14; 9736,114;  242,242;52035,391;18,33036
 705,71; 9770,296;  248,396;51984,357;18,40480
 706,28; 9784,170;  217,011;51819,246;18,54020
 706,86; 9899,351;  240,627;52259,212;18,56783
 707,43;10004,610;  266,165;52100,947;18,78747
 708,00; 9984,868;  244,704;52080,529;18,79041
 708,57; 9997,050;  209,319;52025,495;18,88934
 709,14;10133,309;  242,550;52156,076;19,05237
 709,71;10196,952;  223,627;52259,580;19,16622
 710,28;10280,518;  219,550;52565,623;19,22010
 710,86;10315,854;  227,242;52586,358;19,26811
 711,43;10410,112;  244,165;52668,709;19,39158
 712,00;10410,140;  229,935;52860,752;19,34267
 712,57;10517,091;  239,935;52817,564;19,54663
 713,14;10590,042;  218,550;53009,683;19,64628
 713,71;10608,608;  226,012;52880,957;19,71818
 714,28;10701,713;  224,012;52901,077;19,89044
 714,85;10679,125;  196,627;52665,427;19,97854
 715,42;10743,922;  215,627;52958,316;19,96162
 716,00;10890,950;  254,396;53062,897;20,14175
 716,57;10924,363;  206,089;53119,248;20,25635
 717,14;10956,006;  200,165;53041,752;20,35488
 717,71;10987,803;  192,858;53116,180;20,39733
 718,28;11169,446;  225,550;53222,453;20,65007
 718,85;11100,705;  194,935;53175,342;20,58453
 719,42;11231,656;  223,396;53318,154;20,73323
 719,99;11174,991;  195,704;53138,120;20,73817
 720,56;11291,327;  222,089;53585,702;20,74304
 721,13;11379,816;  202,012;53579,437;20,94107
 721,70;11398,459;  192,166;53442,864;21,04441
 722,27;11462,872;  219,166;53494,446;21,10492
 722,84;11553,284;  247,396;53590,565;21,19463
 723,41;11575,081;  191,243;53629,608;21,30274
 723,98;11657,647;  201,243;53860,420;21,35032
 724,55;11706,983;  238,320;53924,848;21,36227
 725,12;11690,549;  158,627;53764,737;21,51233
 725,69;11843,192;  196,781;54047,395;21,62726
 726,27;11956,605;  207,858;54041,976;21,82398
 726,84;12051,632;  204,627;54414,634;21,85391
 727,41;12145,891;  223,550;54344,370;22,02912
 727,98;12280,073;  224,935;54713,797;22,12404
 728,55;12288,870;  240,166;54539,301;22,18949
 729,12;12340,051;  190,935;54672,806;22,29937
 729,69;12469,464;  232,012;54866,079;22,39894
 730,26;12522,492;  237,320;55057,584;22,40991
 730,82;12553,750;  206,935;54970,703;22,54559
 731,39;12629,624;  210,551;54992,592;22,66997
 731,96;12816,114;  203,397;55354,174;22,86952
 732,53;12943,449;  223,166;55482,293;23,01933
 733,10;13007,246;  231,243;55594,952;23,07649
 733,67;13086,889;  230,397;55848,148;23,11581
 734,24;13085,379;  216,858;55370,191;23,33226
 734,81;13154,945;  229,012;55575,696;23,35448
 735,38;13130,511;  215,320;55266,508;23,46033
 735,95;13204,078;  205,166;55096,550;23,68115
 736,52;13239,721;  235,089;55317,593;23,60937
 737,09;13208,441;  228,397;55024,636;23,68784
 737,66;13377,238;  262,243;55225,910;23,86121
 738,23;13461,727;  206,397;55259,568;24,07732
 738,80;13580,217;  258,243;55575,226;24,08297
 739,37;13668,860;  241,474;55747,961;24,19066
 739,94;13786,580;  218,859;55748,235;24,43341
 740,51;13888,223;  305,474;55838,432;24,45890
 741,07;13822,559;  224,859;55750,474;24,48906
 741,64;13922,356;  240,551;55956,363;24,55641
 742,21;14067,845;  217,166;56078,637;24,79469
 742,78;14050,488;  201,243;55809,218;24,90514
 743,35;14198,670;  212,551;56235,107;24,96516
 743,92;14275,082;  264,013;56241,073;25,03002
 744,49;14360,033;  228,013;56096,501;25,29515
 745,06;14301,753;  210,013;56166,697;25,18330
 745,63;14360,704;  207,090;56169,586;25,29125
 746,19;14478,886;  209,551;56107,168;25,52763
 746,76;14535,837;  230,551;56238,749;25,54141
 747,33;14559,249;  217,859;56054,484;25,68456
 747,90;14712,969;  240,397;56400,219;25,77033
 748,47;14697,074;  222,244;56178,493;25,86812
 749,04;14806,025;  226,782;56162,305;26,06437
 749,61;14757,284;  248,244;56187,732;25,93703
 750,17;14884,158;  238,244;56351,544;26,10061
 750,74;14955,416;  231,859;56209,510;26,30256
 751,31;14895,752;  220,244;56066,092;26,27860
 751,88;14973,241;  201,167;56004,750;26,47155
 752,45;15031,346;  221,013;56076,562;26,51542
 753,02;15031,220;  235,013;55992,758;26,53659
 753,58;15014,094;  207,474;55871,724;26,59987
 754,15;15084,275;  215,936;56093,767;26,60865
 754,72;15131,149;  207,167;55855,195;26,81853
 755,29;15107,408;  199,705;55814,468;26,80530
 755,86;15175,590;  221,167;55911,973;26,85259
 756,42;15283,079;  227,244;55749,323;27,11684
 756,99;15286,261;  196,859;55730,289;27,17174
 757,56;15270,519;  197,398;55635,024;27,18933
 758,13;15370,855;  170,705;55714,529;27,36605
 758,70;15471,113;  187,321;55711,879;27,52618
 759,26;15537,526;  197,090;55807,076;27,58576
 759,83;15621,015;  198,090;55915,426;27,68066
 760,40;15602,658;  184,321;55664,008;27,79096
 760,97;15633,917;  177,936;55709,897;27,83259
 761,53;15634,791;  175,167;55292,862;28,04839
 762,10;15627,511;  171,321;55418,675;27,97634
 762,67;15729,616;  208,706;55261,102;28,19298
 763,24;15622,028;  154,552;55011,376;28,19608
 763,80;15748,748;  190,706;55073,418;28,34780
 764,37;15744,853;  192,859;54953,307;28,40005
 764,94;15595,650;  183,090;54539,889;28,35443
 765,50;15701,139;  178,398;54532,855;28,55836
 766,07;15748,936;  221,936;54550,974;28,57956
 766,64;15697,426;  181,321;54185,171;28,73148
 767,21;15740,838;  189,629;54028,368;28,88479
 767,77;15748,328;  206,475;54018,180;28,88192
 768,34;15733,971;  207,937;53990,223;28,86830
 768,91;15804,999;  214,013;53849,189;29,06858
 769,47;15819,872;  210,937;53857,308;29,09598
 770,04;15854,823;  202,783;53783,428;29,21212
 770,61;15798,697;  202,475;53440,009;29,29554
 771,18;15815,264;  187,629;53325,744;29,40946
 771,74;15903,984;  202,552;53585,249;29,41296
 772,31;15855,242;  210,706;53371,599;29,42866
 772,88;15819,039;  184,167;53081,873;29,55681
 773,44;15750,760;  197,860;52800,070;29,56701
 774,01;15886,403;  210,860;53040,959;29,67161
 774,58;15837,431;  196,168;52673,232;29,80590
 775,14;15884,843;  189,014;52862,506;29,79835
 775,71;15896,178;  190,552;52706,241;29,90654
 776,27;16094,283;  237,937;52611,361;30,27556
 776,84;16044,542;  254,706;52651,711;30,13500
 777,41;16020,262;  217,860;52505,216;30,22222
 777,97;16017,905;  199,629;52204,258;30,41705
 778,54;16095,394;  203,322;52232,301;30,54466
 779,11;16088,730;  232,322;52317,729;30,44309
 779,67;16111,835;  192,398;52169,925;30,62754
 780,24;16105,478;  215,552;51941,430;30,71949
 780,80;16165,967;  230,552;51913,242;30,83318
 781,37;16173,534;  215,399;51974,054;30,83182
 781,94;16112,100;  213,783;51672,020;30,89557
 782,50;16210,897;  219,706;51698,678;31,06354
 783,07;16235,694;  237,014;51642,875;31,12229
 783,63;16200,876;  190,322;51544,302;31,17685
 784,20;16235,057;  235,553;51440,268;31,24615
 784,77;16158,547;  214,322;51211,388;31,26498
 785,33;16187,113;  196,937;51066,508;31,43368
 785,90;16235,756;  212,476;51080,397;31,49977
 786,46;16221,938;  234,553;50914,132;31,54601
 787,03;16279,889;  197,783;50790,867;31,78716
 787,59;16223,224;  208,322;50631,140;31,76122
 788,16;16249,329;  216,706;50664,568;31,78058
 788,73;16240,049;  223,399;50437,380;31,89679
 789,29;16143,461;  205,168;50103,192;31,94173
 789,86;16192,105;  231,245;50010,466;32,06330
 790,42;16196,056;  213,168;49875,124;32,18336
 790,99;16112,929;  228,553;49488,321;32,24615
 791,55;16098,188;  209,168;49533,286;32,21349
 792,12;16176,062;  231,476;49512,406;32,35447
 792,68;16052,474;  208,937;49095,680;32,40866
 793,25;16051,733;  226,937;48901,569;32,51138
 793,81;16065,222;  268,937;48494,612;32,75493
 794,38;15920,558;  196,322;48275,962;32,70456
 794,94;16002,663;  198,476;48162,005;32,95043
 795,51;15949,229;  230,938;47886,279;32,98327
 796,07;15936,103;  218,476;47564,168;33,19759
 796,64;16039,438;  226,399;47808,672;33,23305
 797,20;15886,851;  224,015;47354,022;33,23326
 797,77;15813,725;  205,015;46997,065;33,35761
 798,33;15802,599;  222,245;46805,723;33,44609
 798,90;15832,780;  243,861;46821,074;33,46898
 799,46;15689,347;  220,015;46297,578;33,57237
 800,03;15684,451;  220,861;46275,929;33,57631
 800,59;15686,325;  235,476;45994,818;33,76545
 801,15;15675,661;  230,476;45830,245;33,87119
 801,72;15577,073;  230,322;45478,057;33,91717
 802,28;15536,024;  259,399;45207,562;33,98721
 802,85;15455,975;  228,784;45054,297;33,96992
 803,41;15466,157;  218,092;44878,263;34,14242
 803,98;15354,262;  215,553;44497,306;34,18724
 804,54;15370,751;  229,015;44161,733;34,46574
 805,11;15282,856;  224,784;44049,161;34,36004
 805,67;15280,345;  250,323;43958,357;34,38732
 806,23;15182,680;  230,169;43495,939;34,55968
 806,80;15251,247;  247,476;43403,212;34,76657
 807,36;15209,890;  239,630;43432,563;34,65905
 807,93;15241,072;  233,630;43096,836;35,01241
 808,49;15130,561;  205,169;42759,648;35,07361
 809,05;15083,589;  191,092;42576,537;35,13587
 809,62;15172,847;  232,092;42497,119;35,35016
 810,18;15109,875;  229,553;42374,084;35,30784
 810,74;15035,672;  199,015;42189,589;35,33330
 811,31;15021,469;  195,784;41949,555;35,50742
 811,87;15050,036;  217,554;41813,598;35,65840
 812,44;15089,756;  237,630;41883,564;35,66285
 813,00;15026,322;  181,092;41517,683;35,91305
 813,56;15119,042;  232,861;41640,265;35,95053
 814,13;15113,147;  225,861;41665,077;35,92560
 814,69;15031,713;  229,554;41382,735;35,96845
 815,25;14982,433;  200,400;40900,778;36,31916
 815,82;15001,615;  230,631;40897,513;36,32190
 816,38;15046,566;  252,092;40699,633;36,57694
 816,94;14887,363;  206,477;40456,060;36,47463
 817,51;14791,083;  201,400;40201,795;36,47385
 818,07;14772,726;  203,169;39878,530;36,72193
 818,63;14779,139;  229,708;39651,188;36,90737
 819,20;14803,397;  224,938;39564,231;37,05826
 819,76;14600,348;  207,246;39142,813;36,96646
 820,32;14640,837;  256,169;39117,471;37,01541
 820,89;14590,634;  243,323;38874,668;37,13904
 821,45;14571,278;  212,785;38522,018;37,48050
 822,01;14431,613;  239,015;38368,753;37,22186
 822,57;14473,872;  236,939;38122,411;37,57887
 823,14;14365,053;  209,246;38010,685;37,44780
 823,70;14340,004;  211,477;37733,420;37,65404
 824,26;14227,032;  211,015;37560,001;37,52717
 824,82;14283,675;  228,708;37415,813;37,79527
 825,39;14207,472;  217,708;37118,241;37,91209
 825,95;14200,500;  232,477;37037,976;37,95091
 826,51;14049,297;  230,016;36661,711;37,93203
 827,08;14170,325;  246,554;36741,062;38,15306
 827,64;14135,045;  231,785;36610,028;38,21861
 828,20;14013,611;  206,554;36350,070;38,20065
 828,76;14070,870;  235,708;36260,344;38,40472
 829,32;14075,975;  241,862;36114,079;38,56498
 829,89;13960,618;  203,631;35993,507;38,43821
 830,45;14052,800;  215,785;35818,396;38,86517
 831,01;13994,827;  216,554;35771,515;38,75204
 831,57;13985,317;  223,477;35624,789;38,87381
 832,14;13987,960;  218,477;35559,832;38,96139
 832,70;13923,219;  210,862;35379,029;38,99082
 833,26;13853,323;  184,939;35228,994;39,00343
 833,82;13901,120;  221,016;35148,960;39,16665
 834,38;13899,994;  204,785;35247,772;39,08117
 834,95;13888,253;  209,400;35016,815;39,29867
 835,51;13850,588;  182,401;34926,781;39,33928
 836,07;14002,539;  223,785;35040,593;39,57501
 836,63;14010,183;  231,708;35020,098;39,60653
 837,19;13988,056;  219,401;34756,987;39,86572
 837,75;13868,700;  185,708;34560,029;39,80585
 838,32;13932,035;  231,554;34622,841;39,83707
 838,88;14034,448;  238,016;34675,500;40,06225
 839,44;14002,860;  219,401;34458,235;40,25680
 840,00;14001,426;  222,324;34399,278;40,31694
 840,56;13955,762;  203,862;34165,551;40,49239
 841,12;13974,097;  199,862;34099,825;40,63201
 841,68;13903,510;  190,324;33935,483;40,63749
 842,25;13971,999;  200,708;33989,449;40,75704
 842,81;13929,642;  189,708;33763,569;40,92450
 843,37;13898,978;  186,939;33641,996;40,98645
 843,93;13957,236;  202,709;33671,808;41,09620
 844,49;14025,033;  213,555;33658,697;41,29592
 845,05;13917,754;  179,016;33464,586;41,27536
 845,61;14018,397;  226,785;33565,552;41,36809
 846,17;13978,117;  206,632;33410,441;41,47562
 846,73;14026,606;  211,093;33349,099;41,69084
 847,29;13953,326;  198,555;33127,527;41,77103
 847,86;13960,123;  209,170;33115,185;41,78857
 848,42;13946,690;  195,401;32856,920;42,10242
 848,98;14019,410;  205,632;32878,732;42,27875
 849,54;14049,668;  203,247;32831,467;42,43695
 850,10;13995,235;  216,478;32745,279;42,35864
 850,66;14003,032;  199,478;32511,168;42,72000
 851,22;13958,598;  191,016;32407,211;42,73497
 851,78;14014,164;  239,786;32581,485;42,59015
 852,34;13921,038;  219,324;32270,451;42,74956
 852,90;13909,681;  207,478;32195,570;42,83533
 853,46;13878,171;  188,247;31920,459;43,14204
 854,02;13936,660;  216,401;31898,425;43,30613
 854,58;13873,226;  205,401;31641,468;43,47817
 855,14;13879,408;  193,940;31606,511;43,56685
 855,70;13752,513;  166,555;31445,400;43,43497
 856,26;13899,002;  224,709;31435,827;43,81225
 856,82;13869,261;  194,709;31250,563;44,03212
 857,38;13857,827;  230,017;31264,144;43,91234
 857,94;13792,778;  211,555;31077,110;44,00123
 858,50;13780,190;  213,324;30971,845;44,10767
 859,06;13760,064;  204,786;30794,119;44,31374
 859,62;13683,477;  214,171;30736,161;44,12984
 860,18;13683,274;  208,171;30545,666;44,41732
 860,74;13697,456;  177,325;30374,247;44,77321
 861,30;13583,406;  176,094;30279,598;44,53738
 861,86;13653,280;  231,248;30364,948;44,54160
 862,42;13598,231;  210,709;30084,991;44,81287
 862,98;13706,951;  235,325;30010,880;45,24391
 863,54;13598,364;  206,325;29777,692;45,28718
 864,10;13656,007;  200,632;29861,504;45,36406
 864,66;13581,035;  177,786;29653,008;45,47294
 865,22;13568,216;  209,632;29465,590;45,66107
 865,78;13549,398;  211,786;29383,402;45,72120
 866,34;13509,272;  207,017;29318,368;45,69439
 866,90;13413,146;  226,017;29252,410;45,43151
 867,45;13381,097;  221,786;28986,223;45,74854
 868,01;13351,509;  213,171;28949,573;45,72019
 868,57;13307,076;  209,556;28593,231;46,14455
 869,13;13332,334;  190,248;28553,351;46,33515
 869,69;13292,824;  189,402;28412,317;46,42831
 870,25;13293,082;  194,940;28284,052;46,63067
 870,81;13313,418;  213,786;28210,941;46,78915
 871,37;13354,061;  207,171;28206,676;46,95401
 871,93;13254,781;  226,863;27964,181;46,96892
 872,49;13216,040;  223,094;27773,531;47,16058
 873,04;13102,606;  203,402;27623,651;47,04262
 873,60;13080,326;  197,556;27409,694;47,34200
 874,16;13078,200;  207,017;27378,121;47,37085
 874,72;13133,892;  194,248;27259,121;47,80974
 875,28;13055,431;  209,479;27254,583;47,49825
 875,84;13095,585;  207,787;27177,429;47,78631
 876,40;13063,508;  203,094;27136,583;47,74878
 876,95;13118,585;  220,094;27097,275;47,99049
 877,51;13144,508;  234,633;27088,583;48,07440
 878,07;13217,738;  242,017;27203,967;48,12605
 878,63;13203,508;  203,787;27116,967;48,30243
 879,19;13239,585;  226,171;27111,044;48,40422
 879,75;13381,892;  205,479;27221,660;48,77230
 880,30;13363,046;  204,710;27218,813;48,70914
 880,86;13562,431;  235,787;27351,352;49,14758
 881,42;13535,277;  192,710;27380,737;49,07516
 881,98;13596,585;  231,248;27497,737;49,01745
 882,54;13696,200;  207,787;27677,813;49,10229
 883,09;13848,354;  222,556;27728,890;49,53695
 883,65;13931,738;  189,863;27895,967;49,59873
 884,21;14108,815;  234,479;28106,967;49,77789
 884,77;14153,738;  204,479;28148,198;49,91912
 885,32;14260,123;  208,017;28301,967;50,01826
 885,88;14432,354;  248,633;28505,121;50,19633
 886,44;14548,508;  220,479;28639,429;50,41716
 887,00;14625,431;  237,402;28713,352;50,52695
 887,56;14740,123;  208,633;28820,737;50,78791
 888,11;14738,969;  208,556;28820,660;50,78415
 888,67;14954,892;  237,402;29049,583;51,08079
 889,23;14966,738;  213,633;29155,737;50,97455
 889,79;14951,585;  197,556;28932,198;51,34579
 890,34;14995,046;  210,863;28913,044;51,50892
 890,90;15157,585;  264,710;29075,352;51,69227
 891,46;15063,431;  194,402;28963,967;51,68319
 892,01;15076,200;  233,402;29017,660;51,56568
 892,57;15085,738;  239,633;28921,813;51,76073
 893,13;15009,200;  209,402;28708,275;51,93117
 893,69;15094,508;  199,787;28602,583;52,44104
 894,24;15014,815;  226,479;28535,967;52,23809
 894,80;14971,046;  229,171;28394,275;52,34092
 895,36;14898,969;  217,787;28279,198;52,31805
 895,91;14830,123;  210,402;27991,890;52,62397
 896,47;14870,815;  227,710;27950,352;52,82002
 897,03;14753,738;  203,556;27715,429;52,88692
 897,58;14702,431;  228,556;27554,275;52,96796
 898,14;14655,892;  224,094;27410,737;53,08415
 898,70;14530,662;  184,863;27270,583;52,96443
 899,25;14562,892;  208,248;27270,583;53,04289
 899,81;14517,200;  227,017;27002,352;53,37070
 900,37;14330,046;  183,863;26745,967;53,25701
 900,92;14455,815;  222,402;26673,737;53,80981
 901,48;14429,431;  206,633;26537,429;54,01583
 902,03;14274,508;  206,479;26396,737;53,71474
 902,59;14284,662;  209,402;26331,275;53,88304
 903,15;14280,738;  229,479;26172,352;54,16231
 903,70;14112,508;  215,556;25943,121;54,01581
 904,26;14058,892;  203,402;25826,737;54,07372
 904,82;14091,431;  216,248;25825,506;54,18034
 905,37;14134,738;  219,710;25617,660;54,78800
 905,93;14069,585;  206,633;25516,275;54,77340
 906,48;14055,431;  214,787;25397,813;54,96021
 907,04;14009,431;  231,556;25286,275;54,99114
 907,60;13910,508;  210,094;25075,044;55,09930
 908,15;13947,662;  195,710;24944,660;55,56580
 908,71;13899,815;  240,479;25003,737;55,15969
 909,26;13810,815;  195,556;24794,044;55,34998
 909,82;13836,969;  223,017;24712,506;55,59100
 910,37;13871,431;  248,325;24564,660;56,02450
 910,93;13738,046;  199,094;24395,275;55,95491
 911,48;13660,969;  203,479;24242,583;55,98166
 912,04;13639,662;  207,633;24199,275;55,98628
 912,60;13691,123;  209,710;24197,352;56,20149
 913,15;13620,815;  214,863;23988,813;56,38925
 913,71;13529,200;  200,940;23847,506;56,36446
 914,26;13537,738;  193,479;23809,506;56,50510
 914,82;13541,354;  209,863;23623,352;56,93936
 915,37;13460,585;  200,940;23601,813;56,66303
 915,93;13475,892;  245,940;23394,660;57,15198
 916,48;13458,585;  204,094;23331,275;57,31131
 917,04;13425,200;  227,325;23243,583;57,34153
 917,59;13411,815;  242,248;23199,275;57,36617
 918,15;13207,354;  186,402;22993,352;57,09204
 918,70;13260,508;  202,940;22793,198;57,80176
 919,26;13260,277;  209,787;22780,121;57,82143
 919,81;13193,738;  203,248;22632,583;57,91741
 920,37;13170,277;  201,940;22625,583;57,83332
 920,92;13097,508;  221,633;22410,660;58,02812
 921,48;13045,738;  192,017;22187,121;58,43901
 922,03;13018,123;  211,402;22143,967;58,39135
 922,59;12925,969;  206,094;22018,583;58,31464
 923,14;12961,277;  202,556;21817,813;59,02646
 923,69;12919,123;  222,248;21830,967;58,75811
 924,25;12955,969;  218,017;21819,660;58,96752
 924,80;12793,738;  220,094;21615,275;58,76858
 925,36;12749,738;  208,094;21564,198;58,72627
 925,91;12726,815;  207,248;21413,583;59,03692
 926,47;12690,508;  194,633;21391,813;58,95065
 927,02;12697,354;  244,325;21247,429;59,29137
 927,57;12603,738;  203,479;21142,121;59,22189
 928,13;12541,277;  196,710;21022,044;59,27668
 928,68;12516,508;  199,710;20910,198;59,47131
 929,24;12410,046;  180,171;20668,967;59,69055
 929,79;12443,815;  192,094;20609,813;60,00534
 930,34;12353,431;  203,940;20470,044;59,94981
 930,90;12318,892;  195,710;20437,890;59,89069
 931,45;12316,969;  210,248;20363,121;60,07442
 932,01;12275,046;  220,940;20308,275;60,00849
 932,56;12213,508;  223,094;20166,044;60,12357
 933,11;12229,585;  222,248;20138,506;60,28912
 933,67;12127,738;  207,940;19942,352;60,40108
 934,22;12075,892;  206,940;19883,121;60,32142
 934,77;12073,123;  238,248;19814,660;60,45477
 935,33;12001,431;  229,248;19655,890;60,59813
 935,88;11930,277;  219,094;19545,737;60,59605
 936,43;11894,815;  201,863;19378,275;60,97570
 936,99;11858,969;  213,633;19397,275;60,70451
 937,54;11742,815;  190,248;19157,660;60,90745
 938,09;11750,585;  218,863;19201,429;60,74901
 938,65;11724,200;  204,479;19017,121;61,23393
 939,20;11639,508;  198,787;19036,890;60,73181
 939,75;11633,123;  197,710;18855,583;61,29002
 940,31;11580,508;  190,633;18727,890;61,44315
 940,86;11614,585;  206,556;18781,352;61,41671
 941,41;11625,892;  260,171;18636,506;61,84977
 941,96;11525,200;  202,094;18465,583;61,99859
 942,52;11446,662;  205,094;18439,506;61,65029
 943,07;11437,046;  183,325;18308,429;62,08914
 943,62;11393,508;  204,248;18210,967;62,13936
 944,18;11388,892;  193,402;18141,121;62,37835
 944,73;11310,200;  211,171;18004,121;62,37880
 945,28;11164,046;  171,940;17833,506;62,23744
 945,83;11228,123;  210,171;17933,275;62,16717
 946,39;11285,969;  203,479;17847,198;62,81267
 946,94;11227,277;  221,325;17754,890;62,77076
 947,49;11191,738;  199,402;17674,890;62,90146
 948,04;11195,969;  225,325;17612,275;63,09700
 948,59;11109,277;  225,863;17549,275;62,82489
 949,15;11091,892;  193,710;17439,044;63,19496
 949,70;11017,969;  194,940;17307,737;63,24524
 950,25;11048,431;  221,710;17227,583;63,66460
 950,80;11001,738;  177,094;17162,583;63,72878
 951,36;10915,200;  168,633;17053,813;63,64496
 951,91;11046,431;  216,017;17033,660;64,39912
 952,46;10867,123;  186,710;16851,198;64,09086
 953,01;10916,815;  220,017;16874,429;64,22802
 953,56;10868,046;  190,710;16723,813;64,58156
 954,11;10797,508;  210,017;16666,429;64,33657
 954,67;10777,815;  190,325;16595,660;64,53688
 955,22;10668,892;  176,940;16448,506;64,48029
 955,77;10685,431;  226,710;16405,967;64,64278
 956,32;10668,277;  240,863;16313,429;64,87709
 956,87;10632,892;  192,248;16185,506;65,28154
 957,42;10550,277;  200,710;16126,352;64,98681
 957,98;10531,738;  191,171;16080,890;65,07709
 958,53;10538,277;  219,171;15989,044;65,43557
 959,08;10377,585;  188,710;15911,044;64,80510
 959,63;10376,431;  189,940;15775,121;65,36010
 960,18;10428,815;  210,402;15762,737;65,70341
 960,73;10358,200;  216,325;15724,198;65,39823
 961,28;10325,277;  184,710;15541,352;66,03375
 961,83;10352,662;  214,633;15585,737;65,95511
 962,39;10207,354;  191,171;15382,429;65,93386
 962,94;10243,738;  219,017;15371,967;66,15689
 963,49;10142,815;  210,402;15196,352;66,27817
 964,04;10110,046;  219,940;15130,352;66,33020
 964,59;10106,815;  176,633;15055,660;66,73946
 965,14;10123,969;  215,479;15025,198;66,90532
 965,69;10054,431;  204,787;14934,583;66,86884
 966,24; 9936,892;  200,633;14815,352;66,61955
 966,79; 9961,815;  218,863;14717,506;67,19906
 967,34; 9853,508;  185,094;14596,506;67,08859
 967,89; 9821,969;  202,787;14507,044;67,24699
 968,44; 9819,738;  198,017;14452,967;67,49740
 968,99; 9789,585;  213,863;14338,198;67,79591
 969,55; 9744,123;  202,094;14296,506;67,70080
 970,10; 9778,892;  205,940;14232,660;68,24798
 970,65; 9724,815;  220,094;14076,890;68,59249
 971,20; 9611,508;  196,402;14068,506;67,87078
 971,75; 9539,815;  188,094;13866,813;68,36694
 972,30; 9543,046;  201,787;13871,352;68,33619
 972,85; 9532,508;  190,325;13710,044;69,10042
 973,40; 9453,815;  195,940;13601,583;69,05954
 973,95; 9426,969;  212,633;13533,275;69,17337
 974,50; 9399,354;  232,787;13453,737;69,33365
 975,05; 9284,508;  204,248;13365,967;68,98992
 975,60; 9311,892;  219,094;13343,660;69,28076
 976,15; 9246,738;  199,325;13193,429;69,62707
 976,70; 9183,892;  219,094;13112,890;69,52800
 977,25; 9167,046;  205,633;13075,890;69,62886
 977,80; 9056,585;  194,633;12895,121;69,77647
 978,35; 8961,200;  215,171;12774,583;69,63725
 978,89; 8940,046;  183,325;12760,737;69,62260
 979,44; 8955,277;  209,017;12666,967;70,20625
 979,99; 8885,277;  185,325;12527,506;70,48958
 980,54; 8846,431;  232,325;12426,352;70,64201
 981,09; 8789,046;  216,248;12317,967;70,83951
 981,64; 8704,354;  213,094;12252,506;70,52886
 982,19; 8694,585;  238,633;12166,275;70,89374
 982,74; 8598,815;  226,787;12040,660;70,86608
 983,29; 8524,200;  202,556;11867,198;71,34076
 983,84; 8471,738;  215,633;11817,506;71,16183
 984,39; 8471,200;  255,171;11742,737;71,52106
 984,94; 8351,046;  189,402;11602,583;71,51069
 985,49; 8339,892;  232,402;11616,737;71,21620
 986,03; 8337,815;  235,863;11483,737;72,03097
 986,58; 8264,431;  250,248;11272,583;72,70858
 987,13; 8133,662;  217,940;11179,121;72,21595
 987,68; 8073,123;  224,863;11124,813;72,00271
 988,23; 8068,508;  223,402;11041,660;72,51728
 988,78; 7941,738;  194,940;10871,044;72,56203
 989,33; 7937,200;  222,633;10793,429;72,98000
 989,88; 7912,046;  228,940;10750,583;73,02193
 990,42; 7811,046;  211,556;10600,583;73,14920
 990,97; 7756,892;  207,171;10519,275;73,21223
 991,52; 7730,123;  233,710;10440,429;73,44587
 992,07; 7683,200;  236,710;10326,121;73,80500
 992,62; 7590,277;  223,710;10224,352;73,66094
 993,17; 7527,354;  221,017;10097,890;73,97419
 993,71; 7480,508;  223,094;10045,275;73,88801
 994,26; 7361,123;  204,863; 9927,275;73,60581
 994,81; 7339,815;  242,633; 9874,198;73,68670
 995,36; 7307,585;  206,940; 9703,429;74,77126
 995,91; 7222,738;  215,863; 9595,506;74,70301
 996,45; 7134,123;  221,402; 9499,890;74,50266
 997,00; 7070,431;  195,710; 9390,429;74,76815
 997,55; 7085,892;  220,863; 9359,506;75,12088
 998,10; 7007,123;  236,787; 9199,429;75,53952
 998,65; 6969,892;  214,325; 9193,044;75,23977
 999,19; 6909,046;  231,787; 9026,660;75,92218
 999,74; 6837,354;  241,094; 8959,506;75,65896
1000,29; 6752,738;  235,863; 8835,813;75,77806
1000,84; 6664,277;  209,094; 8706,352;75,96783
1001,38; 6593,200;  212,017; 8637,967;75,73250
1001,93; 6566,354;  237,633; 8545,044;76,18163
1002,48; 6436,892;  200,402; 8430,583;75,77586
1003,03; 6445,277;  218,017; 8380,583;76,29047
1003,57; 6355,508;  223,940; 8267,813;76,22655
1004,12; 6342,969;  240,325; 8173,352;76,92706
1004,67; 6230,046;  216,787; 8122,429;76,06288
1005,22; 6098,969;  214,171; 7957,890;75,99447
1005,76; 6029,046;  204,017; 7781,429;76,87360
1006,31; 6004,738;  233,094; 7764,890;76,63038
1006,86; 5870,200;  211,094; 7661,967;75,95225
1007,40; 5801,123;  198,863; 7516,121;76,56228
1007,95; 5771,354;  215,556; 7444,506;76,85484
1008,50; 5642,200;  217,940; 7290,737;76,69187
1009,04; 5601,508;  215,325; 7252,044;76,54395
1009,59; 5493,354;  221,094; 7065,506;77,03014
1010,14; 5423,969;  215,171; 6978,121;77,01962
1010,68; 5343,815;  210,402; 6885,352;76,90565
1011,23; 5300,123;  215,633; 6783,583;77,41366
1011,78; 5262,123;  230,556; 6716,813;77,57273
1012,32; 5157,200;  227,633; 6596,275;77,40374
1012,87; 5116,662;  239,248; 6569,044;77,05483
1013,42; 5047,585;  200,863; 6439,352;77,69063
1013,96; 5087,508;  236,479; 6478,429;77,71656
1014,51; 5025,123;  183,248; 6356,044;78,43893
1015,06; 5021,662;  194,248; 6373,660;78,12093
1015,60; 5112,892;  248,863; 6441,660;78,54334
1016,15; 5094,431;  200,479; 6417,044;78,72437
1016,69; 5166,200;  215,171; 6450,737;79,39984
1017,24; 5153,969;  191,248; 6452,506;79,26077
1017,79; 5250,123;  244,710; 6527,890;79,66369
1018,33; 5259,815;  206,556; 6545,967;79,71181
1018,88; 5346,815;  222,710; 6613,737;80,17656
1019,42; 5382,277;  217,402; 6592,813;81,01242
1019,97; 5370,508;  207,787; 6645,583;80,19392
1020,51; 5480,200;  221,248; 6675,352;81,48229
1021,06; 5427,662;  195,787; 6637,275;81,22152
1021,61; 5455,892;  180,556; 6637,429;81,70110
1022,15; 5417,662;  178,863; 6638,121;81,10527
1022,70; 5477,277;  216,094; 6619,583;82,16120
1023,24; 5426,662;  191,710; 6585,583;81,87450
1023,79; 5402,200;  213,017; 6536,813;82,05803
1024,33; 5362,969;  211,325; 6439,660;82,71303
1024,88; 5315,046;  218,325; 6365,737;82,90841
1025,42; 5214,585;  213,940; 6206,352;83,44961
1025,97; 5160,508;  197,248; 6175,967;83,01543
1026,51; 5017,892;  171,940; 6032,967;82,68094
1027,06; 5001,046;  199,633; 6030,737;82,34142
1027,60; 4949,892;  203,248; 5913,660;83,12263
1028,15; 4879,200;  220,094; 5816,813;83,24709
1028,69; 4749,815;  181,633; 5645,967;83,59998
1029,24; 4698,508;  202,325; 5606,352;83,20060
1029,78; 4611,123;  189,710; 5507,121;83,14973
1030,33; 4511,969;  174,402; 5402,121;82,97246
1030,87; 4478,585;  197,402; 5345,813;83,15541
1031,42; 4358,969;  183,248; 5266,275;82,15029
1031,96; 4356,892;  213,940; 5201,121;83,07202
1032,51; 4260,046;  191,094; 5094,967;82,97425
1033,05; 4242,200;  208,940; 5082,429;82,75919
1033,60; 4114,662;  174,094; 4932,121;82,81936
1034,14; 4091,815;  202,787; 4839,198;83,88015
1034,69; 4049,046;  199,633; 4803,506;83,61250
1035,23; 4003,585;  203,248; 4736,429;83,83377
1035,77; 3939,046;  198,248; 4712,044;82,87477
1036,32; 3853,738;  184,248; 4588,660;83,31398
1036,86; 3850,585;  201,325; 4551,044;83,89644
1037,41; 3795,200;  211,787; 4464,275;84,26627
1037,95; 3698,815;  181,402; 4387,813;83,62029
1038,50; 3680,277;  196,787; 4359,352;83,68614
1039,04; 3657,892;  211,479; 4286,506;84,57400
1039,58; 3572,815;  177,325; 4229,198;83,80051
1040,13; 3507,662;  201,940; 4152,429;83,67880
1040,67; 3504,969;  231,479; 4135,506;83,84907
1041,21; 3476,354;  230,248; 4055,275;84,86491
1041,76; 3383,662;  186,940; 3982,890;84,21400
1042,30; 3378,662;  199,171; 3926,121;85,31079
1042,85; 3311,200;  201,787; 3836,967;85,53669
1043,39; 3249,585;  190,863; 3820,352;84,27417
1043,93; 3242,815;  220,710; 3775,583;85,01304
1044,48; 3177,508;  206,556; 3680,660;85,51707
1045,02; 3130,662;  199,633; 3651,967;84,89991
1045,56; 3128,892;  225,171; 3618,813;85,56356
1046,11; 3076,277;  209,633; 3548,506;85,85664
1046,65; 3016,277;  216,787; 3522,890;84,67642
1047,19; 2986,969;  192,325; 3449,660;85,79543
1047,74; 2919,738;  179,556; 3397,121;85,16323
1048,28; 2909,969;  207,171; 3367,429;85,52461
1048,82; 2879,046;  215,556; 3326,890;85,60604
1049,37; 2842,662;  213,171; 3282,660;85,66543
1049,91; 2817,123;  214,171; 3209,737;86,89351
1050,45; 2775,585;  218,633; 3190,583;86,03617
1050,99; 2750,123;  208,863; 3146,506;86,50677
1051,54; 2665,892;  201,402; 3081,198;85,57864
1052,08; 2701,892;  221,710; 3041,813;87,94650
1052,62; 2639,277;  219,633; 2988,967;87,37277
1053,16; 2586,200;  197,171; 2941,737;87,04580
1053,71; 2559,738;  208,787; 2931,660;86,34086
1054,25; 2518,969;  212,402; 2884,737;86,31282
1054,79; 2524,123;  206,402; 2830,737;88,31653
1055,33; 2417,354;  182,940; 2764,506;86,55266
1055,88; 2432,969;  217,325; 2750,198;87,47553
1056,42; 2423,277;  223,171; 2709,813;88,47697
1056,96; 2384,969;  216,094; 2692,352;87,58681
1057,50; 2361,815;  221,787; 2617,198;89,33867
1058,05; 2302,354;  209,633; 2604,890;87,36935
1058,59; 2294,585;  225,710; 2565,506;88,42116
1059,13; 2229,508;  195,094; 2498,352;88,32765
1059,67; 2223,200;  218,787; 2483,044;88,52409
1060,21; 2184,662;  206,633; 2443,429;88,43134
1060,76; 2177,354;  227,017; 2397,506;89,85703
1061,30; 2169,892;  234,787; 2387,198;89,90408
1061,84; 2085,969;  216,325; 2339,198;88,07141
1062,38; 2050,892;  198,248; 2289,044;88,60951
1062,92; 2104,123;  247,171; 2322,275;89,48718
1063,46; 2045,277;  228,556; 2237,583;90,42791
1064,01; 2006,969;  213,325; 2211,044;89,78460
1064,55; 1996,277;  219,633; 2195,352;89,92392
1065,09; 1942,662;  183,863; 2112,813;91,17904
1065,63; 1970,969;  238,248; 2152,737;90,50570
1066,17; 1940,200;  239,479; 2103,737;91,22779
1066,71; 1923,662;  233,171; 2065,275;92,27045
1067,25; 1858,892;  211,479; 2028,352;90,67301
1067,80; 1879,277;  229,633; 2043,275;90,95753
1068,34; 1831,508;  245,940; 2019,813;89,38448
1068,88; 1801,046;  216,325; 1951,044;91,35318
1069,42; 1796,431;  244,863; 1978,660;89,48960
1069,96; 1756,354;  210,863; 1900,583;91,46433
1070,50; 1782,123;  247,556; 1924,506;91,50943
1071,04; 1718,354;  206,479; 1880,967;90,28877
1071,58; 1685,046;  222,017; 1857,044;89,48041
1072,12; 1672,277;  209,017; 1830,967;90,21607
1072,66; 1679,277;  208,479; 1832,967;90,53915
1073,21; 1676,431;  233,325; 1825,813;90,61954
1073,75; 1626,738;  226,863; 1769,737;90,73170
1074,29; 1616,662;  215,479; 1754,429;91,04797
1074,83; 1627,354;  240,940; 1737,813;92,62064
1075,37; 1595,969;  230,325; 1721,737;91,56723
1075,91; 1559,969;  227,787; 1700,583;90,45262
1076,45; 1540,969;  222,710; 1648,737;92,44283
1076,99; 1526,200;  240,940; 1644,121;91,59615
1077,53; 1495,123;  207,940; 1628,429;90,61550
1078,07; 1504,738;  220,556; 1626,506;91,33914
1078,61; 1467,200;  224,787; 1581,813;91,55408
1079,15; 1468,123;  214,710; 1570,044;92,48000
1079,69; 1447,585;  220,094; 1539,813;93,01148
1080,23; 1458,815;  236,094; 1549,275;93,11141
1080,77; 1463,431;  252,171; 1544,967;93,69301
1081,31; 1396,123;  215,325; 1492,737;92,43678
1081,85; 1402,585;  233,171; 1495,506;92,63894
1082,39; 1384,046;  213,325; 1457,275;94,11320
1082,93; 1363,969;  225,094; 1455,967;92,52579
1083,47; 1327,354;  210,940; 1399,813;93,90518
1084,01; 1353,738;  234,479; 1432,429;93,43125
1084,55; 1316,046;  219,171; 1379,044;94,56854
1085,09; 1317,277;  233,402; 1387,813;93,88983
1085,63; 1277,892;  218,248; 1364,121;92,47483
1086,17; 1280,815;  216,479; 1355,275;93,46155
1086,71; 1261,277;  216,787; 1319,506;94,71952
1087,24; 1264,969;  247,863; 1344,890;92,71475
1087,78; 1250,277;  231,325; 1316,121;93,93027
1088,32; 1204,585;  207,710; 1275,813;93,33128
1088,86; 1238,892;  242,402; 1294,352;94,72792
1089,40; 1210,738;  232,710; 1262,890;94,93759
1089,94; 1171,662;  196,556; 1243,121;93,17199
1090,48; 1191,508;  229,325; 1235,352;95,64184
1091,02; 1168,738;  232,710; 1212,352;95,54802
1091,56; 1169,200;  229,940; 1211,737;95,66748
1092,10; 1135,200;  213,248; 1173,121;96,04936
1092,63; 1158,123;  241,863; 1199,660;95,66332
1093,17; 1116,892;  234,710; 1157,813;95,56700
1093,71; 1101,508;  210,248; 1145,275;95,31914
1094,25; 1102,354;  242,171; 1160,583;93,65983
1094,79; 1070,815;  231,556; 1116,121;94,87819
1095,33; 1069,277;  219,094; 1106,275;95,82970
1095,87; 1051,431;  221,402; 1097,275;94,76588
1096,40; 1007,046;  211,402; 1064,890;93,22261
1096,94; 1035,815;  220,710; 1059,506;97,17567
1097,48; 1056,662;  232,171; 1075,813;97,72985
1098,02;  989,277;  232,017; 1032,506;94,59969
1098,56;  974,508;  206,094; 1007,967;95,82732
1099,10;  960,200;  206,633;  993,506;95,76733
1099,63;  964,585;  202,787;  988,967;96,89859
1100,17;  962,277;  222,863;  985,506;96,95416
1100,71;  985,200;  232,940;  991,737;99,13856

