
Integration time [ms]: 140,000
Averaging Nr. [scans]: 13
Smoothing Nr. [pixels]: 0
Data measured with spectrometer [name]: 2009305U1
Wave   ;Sample   ;Dark     ;Reference;Reflectance
[nm]   ;[counts] ;[counts] ;[counts] ;[%]

 175,72;  200,669;  185,479;  195,256;155,37125
 176,32;  234,146;  214,863;  213,589; 0,00000
 176,92;  251,081;  238,402;  244,147;220,68032
 177,52;  259,444;  239,171;  255,101;127,26621
 178,12;  224,256;  218,325;  215,567; 0,00000
 178,72;  268,069;  248,709;  238,776; 0,00000
 179,32;  244,129;  248,094;  241,542; 0,00000
 179,92;  254,322;  235,094;  233,146; 0,00000
 180,52;  245,002;  229,480;  243,972;107,10966
 181,12;  255,431;  244,710;  253,779;118,21456
 181,73;  281,932;  269,479;  266,724; 0,00000
 182,33;  359,161;  325,403;  327,235;1842,54016
 182,93;  277,146;  264,325;  263,605; 0,00000
 183,53;  233,415;  235,709;  223,292; 0,00000
 184,13;  242,095;  236,093;  221,711; 0,00000
 184,73;  273,189;  251,478;  257,984;333,71258
 185,33;  258,783;  223,703;  341,427;29,79860
 185,93;  283,054;  228,779;  366,740;39,34111
 186,53;  301,922;  248,010;  359,067;48,54470
 187,13;  312,384;  274,472;  411,352;27,69694
 187,73;  275,931;  238,933;  352,642;32,53779
 188,33;  281,073;  238,856;  363,204;33,95049
 188,93;  278,901;  245,547;  371,130;26,55955
 189,53;  287,130;  249,392;  378,224;29,29235
 190,13;  325,524;  273,390;  396,734;42,26706
 190,73;  261,035;  223,776;  357,743;27,81239
 191,34;  306,870;  262,315;  381,146;37,49467
 191,94;  275,984;  235,624;  353,574;34,21771
 192,54;  291,245;  242,088;  410,064;29,26441
 193,14;  304,258;  255,626;  389,518;36,32167
 193,74;  287,519;  251,934;  380,684;27,63885
 194,34;  291,953;  243,165;  382,870;34,92249
 194,94;  252,959;  214,165;  356,176;27,31798
 195,54;  239,722;  209,241;  329,743;25,29474
 196,14;  258,768;  217,550;  352,435;30,55838
 196,74;  258,950;  216,472;  355,469;30,56035
 197,34;  249,693;  190,627;  347,445;37,66518
 197,94;  260,947;  220,165;  381,711;25,24511
 198,54;  272,059;  222,703;  386,849;30,06814
 199,14;  260,351;  222,781;  387,587;22,79636
 199,74;  257,034;  196,320;  389,699;31,39672
 200,34;  239,740;  191,781;  399,400;23,09967
 200,94;  285,962;  212,858;  445,923;31,36629
 201,54;  276,338;  205,396;  445,617;29,53193
 202,14;  293,435;  216,397;  481,328;29,07838
 202,74;  284,386;  214,089;  491,643;25,32737
 203,34;  263,937;  199,243;  512,548;20,64876
 203,94;  241,005;  171,089;  515,499;20,30013
 204,54;  319,082;  235,472;  607,818;22,45483
 205,14;  278,411;  201,243;  625,848;18,17411
 205,74;  341,262;  225,936;  717,479;23,46219
 206,34;  316,580;  196,166;  752,632;21,63915
 206,94;  337,114;  197,781;  803,742;22,99368
 207,54;  310,778;  181,935;  836,884;19,67225
 208,14;  336,544;  196,166;  931,384;19,09343
 208,74;  357,609;  213,243; 1002,408;18,29353
 209,34;  360,589;  187,704; 1131,861;18,31099
 209,94;  388,820;  214,396; 1205,746;17,59460
 210,54;  415,643;  211,320; 1331,090;18,24689
 211,14;  441,069;  212,550; 1444,831;18,54439
 211,73;  467,665;  205,396; 1570,587;19,21113
 212,33;  491,509;  217,781; 1692,428;18,56231
 212,93;  509,088;  198,550; 1777,647;19,66555
 213,53;  500,984;  179,627; 1863,519;19,08419
 214,13;  542,792;  180,167; 1947,134;20,52245
 214,73;  546,511;  186,704; 1956,174;20,33417
 215,33;  532,974;  160,858; 1986,361;20,38431
 215,93;  592,785;  193,628; 2151,394;20,38840
 216,53;  582,320;  156,858; 2213,685;20,68536
 217,13;  689,002;  203,551; 2475,000;21,37186
 217,73;  728,690;  187,320; 2705,924;21,49484
 218,33;  756,310;  139,013; 2915,972;22,22925
 218,93;  873,362;  178,937; 3285,822;22,35118
 219,53;  946,763;  189,397; 3601,083;22,19914
 220,13;  991,928;  162,628; 3919,631;22,07344
 220,73; 1118,418;  187,627; 4345,430;22,38660
 221,32; 1253,839;  177,781; 4807,485;23,24249
 221,92; 1368,784;  169,705; 5226,097;23,71413
 222,52; 1472,800;  170,320; 5728,902;23,43187
 223,12; 1576,850;  178,166; 6210,697;23,18568
 223,72; 1723,148;  189,705; 6609,886;23,88474
 224,32; 1826,309;  185,090; 7038,082;23,94895
 224,92; 1912,737;  176,013; 7429,681;23,94270
 225,52; 2012,182;  194,551; 7914,699;23,54399
 226,12; 2059,071;  189,320; 8156,380;23,46852
 226,72; 2160,431;  153,089; 8544,829;23,92046
 227,31; 2259,321;  151,397; 8937,273;23,99219
 227,91; 2359,441;  173,781; 9431,250;23,60969
 228,51; 2449,686;  178,242; 9836,402;23,51839
 229,11; 2568,783;  175,705;10277,773;23,68900
 229,71; 2650,063;  173,935;10569,057;23,82010
 230,31; 2723,441;  164,936;10971,690;23,67506
 230,91; 2788,582;  158,704;11316,961;23,56890
 231,51; 2873,964;  165,782;11651,599;23,57849
 232,10; 2940,959;  152,244;11950,374;23,63693
 232,70; 2992,415;  182,934;12128,177;23,51966
 233,30; 3051,735;  207,551;12409,368;23,30951
 233,90; 3042,240;  177,705;12542,581;23,16671
 234,50; 3068,947;  175,705;12624,090;23,24191
 235,10; 3079,198;  175,936;12587,604;23,39140
 235,70; 3094,817;  192,012;12589,246;23,41494
 236,29; 3002,994;  189,396;12470,908;22,90922
 236,89; 2948,837;  161,781;12355,974;22,85560
 237,49; 2888,977;  179,012;12190,487;22,56146
 238,09; 2810,811;  177,474;11885,708;22,49133
 238,69; 2771,375;  191,550;11608,161;22,59712
 239,29; 2577,625;  167,243;11324,076;21,60454
 239,89; 2486,409;  185,934;10841,376;21,58967
 240,48; 2355,931;  171,089;10430,461;21,29606
 241,08; 2255,695;  164,550; 9925,725;21,42309
 241,68; 2155,810;  193,704; 9670,747;20,70378
 242,28; 2004,702;  166,243; 9327,389;20,06800
 242,88; 1961,706;  200,551; 8918,630;20,20118
 243,48; 1886,832;  205,858; 8599,299;20,02723
 244,07; 1766,561;  186,320; 8384,233;19,27614
 244,67; 1746,757;  192,705; 8187,529;19,43823
 245,27; 1675,126;  202,012; 8095,587;18,66220
 245,87; 1658,981;  194,474; 7980,459;18,80953
 246,47; 1634,468;  192,781; 7916,835;18,66490
 247,06; 1634,839;  177,243; 7990,336;18,65582
 247,66; 1653,126;  177,474; 8048,290;18,74840
 248,26; 1706,868;  214,473; 8269,036;18,52856
 248,86; 1747,296;  189,012; 8400,903;18,97595
 249,46; 1764,973;  144,551; 8617,949;19,12364
 250,05; 1908,488;  196,243; 9060,084;19,31718
 250,65; 1973,094;  167,858; 9437,415;19,47490
 251,25; 2112,653;  178,320; 9988,396;19,71783
 251,85; 2260,743;  171,858;10651,004;19,93374
 252,44; 2436,190;  140,627;11248,852;20,66543
 253,04; 2691,956;  195,781;12089,583;20,98719
 253,64; 2876,199;  142,242;12890,197;21,44624
 254,24; 3193,727;  194,627;13790,358;22,05913
 254,84; 3478,204;  169,089;14803,334;22,61213
 255,43; 3752,958;  179,396;15864,429;22,78326
 256,03; 4096,788;  190,396;16954,300;23,30240
 256,63; 4478,880;  182,088;18131,034;23,93896
 257,23; 4806,879;  168,319;18989,457;24,64548
 257,82; 5185,155;  182,703;20170,973;25,02694
 258,42; 5497,597;  146,242;20962,190;25,70796
 259,02; 5931,102;  187,627;21970,194;26,36730
 259,62; 6227,395;  170,934;22616,087;26,98338
 260,21; 6460,899;  188,243;23208,899;27,24795
 260,81; 6725,935;  174,935;23814,389;27,71215
 261,41; 6977,311;  165,626;24249,895;28,28271
 262,01; 7257,930;  206,780;24823,697;28,64351
 262,60; 7479,571;  166,088;25190,303;29,22562
 263,20; 7695,272;  174,473;25501,198;29,69511
 263,80; 7859,845;  190,934;25666,154;30,10341
 264,40; 8037,885;  162,011;25910,561;30,58764
 264,99; 8153,718;  187,703;26077,975;30,76837
 265,59; 8269,067;  167,779;26263,178;31,04489
 266,19; 8452,220;  155,703;26358,343;31,66291
 266,78; 8623,297;  211,241;26526,645;31,96628
 267,38; 8657,269;  182,856;26574,819;32,10982
 267,98; 8715,895;  174,933;26521,482;32,41776
 268,58; 8738,542;  183,549;26637,110;32,33967
 269,17; 8827,187;  172,010;26578,078;32,77723
 269,77; 8809,918;  184,627;26360,820;32,95090
 270,37; 8747,633;  154,395;26285,663;32,88489
 270,96; 8770,830;  216,088;26114,464;33,03196
 271,56; 8691,615;  183,011;25847,017;33,15384
 272,16; 8625,970;  177,242;25662,532;33,15139
 272,75; 8666,969;  170,319;25533,878;33,49944
 273,35; 8633,743;  189,934;25558,768;33,28418
 273,95; 8604,114;  176,473;25489,682;33,29345
 274,54; 8641,787;  152,012;25534,849;33,44691
 275,14; 8785,708;  193,550;26005,943;33,28695
 275,74; 8811,406;  158,472;26014,058;33,46640
 276,33; 9031,175;  197,242;26447,525;33,65271
 276,93; 9153,912;  182,858;26857,798;33,63102
 277,53; 9301,601;  180,935;27406,403;33,50049
 278,12; 9484,091;  159,781;27918,410;33,59067
 278,72; 9784,072;  202,935;28556,100;33,79213
 279,32; 9908,159;  173,319;29138,181;33,60914
 279,91;10250,496;  163,473;29950,309;33,86403
 280,51;10503,104;  178,243;30461,040;34,09481
 281,11;10758,385;  177,781;31261,061;34,03954
 281,70;10987,498;  161,012;31734,847;34,28943
 282,30;11253,692;  157,704;32402,786;34,41141
 282,90;11435,564;  169,781;32829,260;34,49468
 283,49;11749,119;  186,319;33285,956;34,93331
 284,09;11979,021;  205,704;33770,223;35,07667
 284,69;12141,271;  200,627;34065,929;35,25923
 285,28;12375,107;  185,858;34456,727;35,56738
 285,88;12602,381;  214,319;34623,622;36,00207
 286,47;12662,881;  180,396;34740,226;36,11848
 287,07;12835,476;  205,627;34790,839;36,51806
 287,67;13048,370;  186,089;34931,222;37,01894
 288,26;13180,989;  187,242;34812,403;37,52689
 288,86;13381,379;  168,396;34889,979;38,05409
 289,46;13583,170;  190,242;35024,454;38,44763
 290,05;13830,432;  176,320;35064,746;39,13651
 290,65;14062,302;  171,627;35334,474;39,50384
 291,24;14336,098;  183,858;35382,728;40,20652
 291,84;14575,111;  195,550;35559,419;40,66173
 292,44;14769,642;  176,474;35643,051;41,14625
 293,03;15057,004;  237,166;35704,989;41,78390
 293,63;15160,838;  174,011;35930,474;41,91362
 294,22;15396,171;  201,012;36147,108;42,27207
 294,82;15462,003;  173,780;36066,967;42,59366
 295,41;15381,344;  160,627;35770,539;42,74292
 296,01;15484,494;  215,934;35568,408;43,18951
 296,61;15347,244;  189,242;35304,185;43,16681
 297,20;15152,638;  185,934;34895,865;43,11937
 297,80;15034,847;  192,474;34654,879;43,06830
 298,39;14822,281;  161,011;34265,466;42,98931
 298,99;14766,403;  188,242;34203,943;42,85715
 299,58;14564,535;  194,935;33946,341;42,57482
 300,18;14411,354;  208,474;33765,785;42,32425
 300,78;14138,300;  167,089;33266,446;42,20992
 301,37;14029,712;  187,241;33370,355;41,71541
 301,97;13945,059;  187,473;33330,898;41,50925
 302,56;13822,310;  178,242;33182,632;41,34016
 303,16;13698,629;  163,627;33180,943;40,99365
 303,75;13484,733;  176,243;33163,819;40,34395
 304,35;13465,842;  169,397;33468,616;39,93020
 304,94;13390,486;  182,396;33377,843;39,78886
 305,54;13222,686;  196,473;33270,715;39,38476
 306,13;13059,764;  152,782;33197,809;39,05877
 306,73;12861,053;  160,089;32978,372;38,70088
 307,33;12697,662;  185,243;32896,675;38,25091
 307,92;12578,038;  189,319;32981,544;37,77944
 308,52;12569,707;  165,627;33521,982;37,18656
 309,11;12656,871;  169,780;34004,442;36,90621
 309,71;12575,870;  153,395;34272,898;36,40872
 310,30;12557,270;  163,089;34384,044;36,21810
 310,90;12603,655;  192,935;34746,275;35,91757
 311,49;12488,545;  189,089;34846,296;35,48888
 312,09;12348,695;  158,550;35067,187;34,92014
 312,68;12422,523;  214,704;35454,057;34,64257
 313,28;12292,731;  158,781;35637,775;34,20038
 313,87;12132,827;  146,627;35637,822;33,77232
 314,47;12118,885;  169,934;35921,682;33,42201
 315,06;11994,046;  157,704;36088,779;32,94180
 315,66;11925,926;  163,858;36229,648;32,61281
 316,25;11700,662;  145,550;36163,538;32,08150
 316,85;11581,088;  141,935;36211,499;31,71414
 317,44;11458,195;  162,319;36309,758;31,24945
 318,04;11306,906;  151,627;36276,585;30,87970
 318,63;11147,224;  146,935;36258,419;30,46202
 319,22;11068,755;  172,857;36442,469;30,04140
 319,82;10878,235;  169,473;36451,752;29,51513
 320,41;10718,985;  175,473;36422,431;29,08799
 321,01;10600,748;  184,935;36415,404;28,74877
 321,60;10424,739;  178,704;36469,158;28,23342
 322,20;10281,157;  168,781;36444,181;27,87668
 322,79;10206,063;  208,781;36518,826;27,53310
 323,39;10000,647;  175,397;36502,710;27,04645
 323,98; 9869,455;  162,935;36368,639;26,80937
 324,58; 9694,878;  174,242;36243,259;26,39561
 325,17; 9551,721;  182,165;36086,068;26,09621
 325,76; 9395,725;  181,396;35892,001;25,80278
 326,36; 9185,851;  155,320;35319,109;25,68134
 326,95; 9037,046;  190,012;35150,659;25,30569
 327,55; 8803,364;  155,473;34758,932;24,99141
 328,14; 8614,683;  178,858;34183,029;24,80821
 328,74; 8422,165;  195,627;33785,675;24,49100
 329,33; 8228,442;  182,935;33325,981;24,27510
 329,92; 7956,990;  162,626;32790,233;23,88886
 330,52; 7749,238;  167,935;32078,807;23,75774
 331,11; 7575,756;  179,088;31670,667;23,48776
 331,71; 7342,727;  175,396;31085,078;23,18798
 332,30; 7180,948;  180,627;30673,381;22,95732
 332,89; 7059,255;  217,627;30068,310;22,91950
 333,49; 6854,909;  191,550;29441,783;22,78053
 334,08; 6671,732;  173,242;29024,115;22,52441
 334,68; 6525,860;  179,165;28619,410;22,31589
 335,27; 6439,568;  193,397;28249,166;22,26341
 335,86; 6346,371;  210,550;28048,513;22,04120
 336,46; 6208,841;  188,012;27722,418;21,86656
 337,05; 6167,876;  163,011;27538,804;21,93494
 337,65; 6063,569;  151,704;27324,227;21,75678
 338,24; 6088,635;  212,550;27404,497;21,60965
 338,83; 6021,813;  199,935;27215,933;21,54974
 339,43; 6007,320;  161,780;27137,636;21,66952
 340,02; 5951,125;  174,550;27034,345;21,50640
 340,61; 5973,491;  156,935;27081,655;21,60303
 341,21; 5966,011;  207,165;27127,136;21,39247
 341,80; 5915,544;  167,858;27089,021;21,35007
 342,40; 5942,340;  173,243;27183,858;21,35863
 342,99; 5975,332;  173,858;27301,771;21,38562
 343,58; 5978,288;  174,550;27407,135;21,31174
 344,18; 6031,047;  180,397;27534,054;21,38891
 344,77; 6133,382;  167,934;27938,512;21,48118
 345,36; 6180,584;  156,012;28227,505;21,46153
 345,96; 6285,860;  186,320;28591,921;21,47302
 346,55; 6334,458;  163,320;28765,731;21,57559
 347,14; 6440,006;  150,858;29104,307;21,72158
 347,74; 6532,802;  142,859;29570,951;21,71375
 348,33; 6730,369;  173,782;30201,656;21,83500
 348,92; 6900,008;  181,705;30830,675;21,92016
 349,52; 6967,372;  156,475;31299,084;21,87003
 350,11; 7109,392;  164,934;31503,823;22,15923
 350,70; 7185,978;  166,627;31565,591;22,35536
 351,29; 7164,110;  162,933;31400,551;22,41264
 351,89; 7225,547;  181,472;31358,164;22,59404
 352,48; 7290,851;  152,781;31379,912;22,85855
 353,07; 7338,516;  170,397;31238,987;23,07192
 353,67; 7344,015;  189,552;31219,948;23,05631
 354,26; 7383,254;  174,397;31035,354;23,35915
 354,85; 7411,831;  171,704;30735,640;23,68846
 355,45; 7393,213;  157,781;30675,316;23,70910
 356,04; 7442,583;  168,320;30625,906;23,88326
 356,63; 7526,934;  194,781;30333,526;24,32800
 357,22; 7517,197;  178,318;30260,522;24,39608
 357,82; 7537,901;  190,780;30082,839;24,57884
 358,41; 7599,050;  188,781;29928,010;24,91749
 359,00; 7627,337;  172,473;29705,068;25,24283
 359,60; 7681,079;  186,243;29656,681;25,43171
 360,19; 7760,103;  184,935;29499,090;25,84133
 360,78; 7810,689;  175,550;29240,517;26,26922
 361,37; 7823,603;  169,473;29133,628;26,42622
 361,97; 7859,539;  174,627;29018,138;26,64347
 362,56; 7852,999;  161,088;28693,973;26,95806
 363,15; 7851,536;  205,396;28486,786;27,03594
 363,74; 7880,201;  166,857;28089,840;27,62364
 364,34; 7894,867;  180,396;27703,756;28,02881
 364,93; 7799,975;  156,626;27300,575;28,15857
 365,52; 7775,064;  151,781;26868,590;28,53366
 366,11; 7771,661;  167,704;26571,115;28,79915
 366,71; 7748,063;  165,550;26184,315;29,14248
 367,30; 7724,781;  174,319;25850,334;29,40667
 367,89; 7809,208;  204,012;25716,866;29,80927
 368,48; 7792,491;  185,396;25321,601;30,26350
 369,07; 7726,440;  179,396;24872,053;30,56392
 369,67; 7722,796;  194,703;24613,370;30,82925
 370,26; 7718,191;  164,319;24353,198;31,22870
 370,85; 7697,662;  175,473;24095,389;31,44739
 371,44; 7720,206;  176,088;23840,471;31,87963
 372,03; 7747,884;  151,780;23549,187;32,46558
 372,63; 7721,746;  144,627;23282,740;32,74735
 373,22; 7699,176;  169,012;22976,843;33,01570
 373,81; 7618,183;  157,011;22684,188;33,12076
 374,40; 7677,162;  164,858;22480,076;33,66449
 374,99; 7619,144;  161,781;22210,782;33,82177
 375,59; 7608,403;  159,781;21936,080;34,20518
 376,18; 7686,912;  191,858;21756,744;34,75583
 376,77; 7688,487;  185,858;21535,420;35,14184
 377,36; 7805,226;  196,781;21526,787;35,67015
 377,95; 7708,968;  179,319;21289,692;35,66801
 378,55; 7721,825;  159,320;21111,250;36,09455
 379,14; 7776,902;  180,627;20965,432;36,54725
 379,73; 7823,488;  179,319;20953,453;36,79657
 380,32; 7905,171;  185,396;20940,031;37,19543
 380,91; 7915,831;  169,473;20815,426;37,51999
 381,50; 7995,375;  185,627;20802,238;37,88085
 382,10; 7982,094;  168,089;20598,415;38,24709
 382,69; 8075,389;  152,319;20565,906;38,81273
 383,28; 8107,757;  193,627;20570,546;38,83870
 383,87; 8126,646;  166,780;20416,760;39,30802
 384,46; 8179,439;  154,857;20365,570;39,70460
 385,05; 8280,204;  189,550;20403,037;40,02602
 385,64; 8295,738;  159,242;20407,576;40,18353
 386,24; 8315,842;  153,780;20326,347;40,46119
 386,83; 8468,904;  195,472;20434,684;40,87823
 387,42; 8607,720;  193,396;20531,183;41,37286
 388,01; 8730,276;  173,318;20707,785;41,67119
 388,60; 8924,608;  174,857;20882,232;42,25427
 389,19; 9061,789;  148,779;21179,223;42,38146
 389,78; 9248,708;  158,933;21399,147;42,79512
 390,37; 9552,003;  218,010;21923,000;43,00390
 390,96; 9647,723;  177,703;21992,095;43,41180
 391,56; 9761,538;  178,471;22222,132;43,47312
 392,15; 9972,721;  166,856;22451,233;44,00332
 392,74;10075,570;  137,163;22602,095;44,23965
 393,33;10293,489;  165,086;22937,837;44,47597
 393,92;10585,051;  182,624;23340,175;44,92024
 394,51;10725,370;  154,856;23532,431;45,21647
 395,10;10900,547;  196,161;23799,208;45,35171
 395,69;11014,251;  183,238;23859,141;45,74699
 396,28;11141,338;  179,930;24003,788;46,01021
 396,87;11275,505;  185,698;24106,506;46,36050
 397,46;11383,697;  187,082;24267,319;46,49711
 398,06;11538,722;  196,158;24457,662;46,75128
 398,65;11648,321;  181,311;24429,499;47,29017
 399,24;11745,332;  195,156;24635,459;47,25873
 399,83;11823,533;  159,846;24668,156;47,59075
 400,42;11963,460;  209,151;24840,145;47,72162
 401,01;12058,382;  177,917;24927,239;48,00319
 401,60;12214,020;  200,529;24993,593;48,45505
 402,19;12259,846;  205,911;24794,712;49,02205
 402,78;12272,948;  203,214;24936,973;48,79863
 403,37;12259,530;  195,209;24678,939;49,27485
 403,96;12239,906;  182,204;24613,057;49,35440
 404,55;12242,387;  188,198;24449,022;49,68582
 405,14;12238,012;  192,270;24342,339;49,87871
 405,73;12285,898;  205,956;24282,307;50,17348
 406,32;12324,180;  204,336;24197,053;50,51468
 406,91;12228,107;  198,716;23854,300;50,85222
 407,50;12200,153;  182,637;23730,657;51,03408
 408,09;12092,219;  171,404;23428,345;51,25702
 408,68;12124,900;  198,480;23218,852;51,80811
 409,27;12046,506;  173,712;23079,496;51,83317
 409,86;12036,965;  182,331;22935,458;52,10112
 410,45;12065,836;  212,181;22859,844;52,33942
 411,04;12050,312;  219,645;22790,649;52,41533
 411,63;11962,464;  193,803;22535,929;52,67476
 412,22;11907,545;  196,730;22251,126;53,09968
 412,81;11778,629;  209,578;21999,350;53,09395
 413,40;11611,786;  210,349;21628,426;53,23278
 413,99;11520,898;  241,425;21414,048;53,27386
 414,58;11352,271;  185,964;20959,934;53,75143
 415,17;11230,697;  187,886;20722,461;53,77667
 415,76;11190,865;  191,499;20613,014;53,86165
 416,35;11134,225;  178,731;20458,633;54,02144
 416,94;11178,154;  216,807;20504,127;54,03053
 417,53;11373,334;  182,116;20743,475;54,42840
 418,12;11441,861;  182,963;20812,130;54,57757
 418,71;11663,024;  197,349;21237,931;54,49315
 419,30;11775,601;  192,809;21266,041;54,96448
 419,89;11914,232;  189,579;21507,440;54,99920
 420,48;12144,417;  207,503;21793,397;55,29960
 421,07;12182,304;  208,041;21857,039;55,31093
 421,66;12226,193;  170,888;21773,423;55,80505
 422,25;12226,982;  178,505;21775,810;55,78694
 422,84;12227,048;  227,275;21774,119;55,69156
 423,43;12090,873;  192,813;21469,018;55,92191
 424,02;12009,992;  215,967;21168,507;56,28924
 424,60;11754,787;  189,507;20824,096;56,04803
 425,19;11642,023;  203,045;20477,464;56,42074
 425,78;11574,498;  209,814;20391,473;56,31194
 426,37;11555,981;  207,968;20246,882;56,62988
 426,96;11471,664;  199,045;20218,916;56,30715
 427,55;11412,469;  192,585;19960,493;56,75807
 428,14;11284,505;  191,124;19793,329;56,59252
 428,73;11183,918;  205,354;19583,055;56,65565
 429,32;11254,489;  211,122;19584,749;57,00206
 429,91;11304,771;  233,892;19529,175;57,37609
 430,50;11172,488;  218,662;19366,276;57,20727
 431,08;11117,403;  230,432;19301,206;57,08720
 431,67;11115,857;  264,740;19215,174;57,26052
 432,26;11002,235;  273,971;18971,642;57,37754
 432,85;10818,445;  291,586;18493,128;57,83498
 433,44;10587,670;  295,587;18235,717;57,36906
 434,03;10423,238;  302,357;17860,136;57,64329
 434,62;10183,771;  266,126;17454,038;57,70128
 435,21;10120,160;  289,663;17279,103;57,86240
 435,79;10011,001;  269,126;17147,510;57,71806
 436,38; 9923,681;  274,742;17013,446;57,64448
 436,97; 9875,386;  269,666;16897,955;57,76734
 437,56; 9818,614;  268,744;16698,406;58,12579
 438,15; 9752,729;  246,897;16649,840;57,95199
 438,74; 9795,100;  260,513;16620,721;58,27913
 439,33; 9757,277;  238,359;16702,690;57,81540
 439,91; 9749,667;  210,667;16714,475;57,79878
 440,50; 9836,280;  250,052;16805,245;57,90466
 441,09; 9886,204;  256,130;16853,992;58,01997
 441,68; 9855,895;  238,977;16900,162;57,72049
 442,27; 9897,325;  214,130;16875,370;58,11809
 442,86; 9891,867;  203,132;16871,062;58,12801
 443,44; 9925,169;  209,670;16929,052;58,10920
 444,03; 9995,883;  269,670;16947,455;58,31837
 444,62; 9902,404;  212,901;16741,408;58,62298
 445,21; 9840,386;  230,285;16662,740;58,48244
 445,80; 9758,141;  246,133;16529,484;58,41554
 446,39; 9660,958;  270,748;16293,581;58,60518
 446,97; 9492,846;  216,441;16023,894;58,68374
 447,56; 9345,718;  201,980;15930,231;58,13576
 448,15; 9243,531;  210,595;15658,197;58,47468
 448,74; 9164,023;  232,057;15404,330;58,87032
 449,33; 9070,005;  223,134;15306,025;58,65500
 449,91; 8890,615;  209,904;15043,812;58,51938
 450,50; 8742,160;  210,596;14809,734;58,43882
 451,09; 8732,011;  228,212;14737,085;58,61102
 451,68; 8664,015;  245,520;14670,903;58,35891
 452,26; 8650,541;  231,674;14547,251;58,80913
 452,85; 8507,489;  223,059;14474,527;58,13036
 453,44; 8555,038;  233,598;14477,789;58,41988
 454,03; 8492,293;  208,751;14409,440;58,33197
 454,61; 8422,924;  194,368;14394,196;57,94828
 455,20; 8539,560;  242,753;14645,484;57,60579
 455,79; 8523,345;  233,829;14545,669;57,92069
 456,38; 8600,068;  240,753;14664,252;57,95622
 456,97; 8627,758;  215,138;14693,862;58,10333
 457,55; 8588,861;  219,369;14753,117;57,58660
 458,14; 8593,345;  243,907;14678,960;57,84141
 458,73; 8523,285;  227,292;14572,523;57,83102
 459,31; 8541,722;  261,908;14695,757;57,36387
 459,90; 8626,180;  266,062;14768,901;57,64470
 460,49; 8664,427;  291,600;14853,519;57,49810
 461,08; 8675,385;  212,986;14904,789;57,59946
 461,66; 8679,322;  223,370;14996,133;57,24015
 462,25; 8719,955;  218,294;15105,889;57,10567
 462,84; 8731,040;  250,909;15144,195;56,93929
 463,43; 8726,936;  192,910;15112,974;57,19832
 464,01; 8701,087;  227,295;15124,710;56,88095
 464,60; 8724,006;  262,910;15008,810;57,37931
 465,19; 8538,157;  206,372;14735,058;57,34713
 465,77; 8465,297;  231,219;14816,098;56,45627
 466,36; 8393,107;  234,602;14635,482;56,65282
 466,95; 8218,275;  213,910;14334,107;56,68735
 467,53; 8005,385;  225,373;13996,613;56,49463
 468,12; 7832,406;  251,681;13737,703;56,21172
 468,71; 7680,230;  222,372;13525,250;56,06199
 469,29; 7519,608;  218,142;13284,806;55,87858
 469,88; 7361,315;  216,912;13029,244;55,76193
 470,47; 7488,156;  273,451;13158,601;55,99240
 471,06; 7415,573;  229,990;13148,888;55,62071
 471,64; 7414,358;  234,066;13269,622;55,08236
 472,23; 7440,474;  203,529;13264,171;55,41033
 472,81; 7450,479;  211,144;13426,775;54,77858
 473,40; 7497,533;  215,298;13491,086;54,85350
 473,99; 7653,721;  295,299;13668,872;55,02211
 474,57; 7668,346;  215,529;13761,338;55,01936
 475,16; 7701,653;  223,221;14021,827;54,19701
 475,75; 7817,295;  241,222;14083,900;54,72982
 476,33; 7776,396;  252,992;14178,270;54,02696
 476,92; 7818,529;  237,683;14238,856;54,14436
 477,51; 7802,174;  238,069;14284,269;53,85161
 478,09; 7807,703;  239,376;14291,303;53,85971
 478,68; 7741,542;  255,530;14172,497;53,79054
 479,27; 7738,388;  267,145;14274,601;53,33761
 479,85; 7730,064;  240,223;14264,334;53,40689
 480,44; 7784,004;  224,684;14440,310;53,17613
 481,02; 8387,886;  238,685;16174,261;51,13842
 481,61; 9490,004;  268,531;18120,700;51,65464
 482,20;10095,125;  251,608;19269,034;51,76051
 482,78;10507,341;  266,069;20038,514;51,79568
 483,37;10670,126;  275,147;20557,589;51,25112
 483,95;10904,301;  289,917;20826,718;51,68470
 484,54;10979,349;  306,300;20939,986;51,72633
 485,13;10839,597;  269,840;20848,071;51,36378
 485,71;10721,604;  258,302;20600,108;51,43743
 486,30;10621,441;  292,225;20289,066;51,65424
 486,88;10299,855;  318,148;19848,199;51,10948
 487,47; 9948,883;  301,840;19068,101;51,40631
 488,05; 9449,994;  290,302;18135,509;51,32858
 488,64; 8752,899;  296,149;16826,665;51,15841
 489,23; 7745,032;  299,533;14648,069;51,89030
 489,81; 6592,095;  292,533;12727,450;50,66026
 490,40; 6264,133;  262,918;12174,203;50,38260
 490,98; 6118,399;  241,687;12001,033;49,97482
 491,57; 6047,867;  267,610;11920,719;49,60270
 492,15; 5977,644;  240,841;11848,427;49,42287
 492,74; 5949,710;  248,302;11756,522;49,54205
 493,32; 5863,777;  269,380;11664,759;49,09355
 493,91; 5796,404;  247,611;11538,005;49,14614
 494,50; 5758,106;  253,920;11551,377;48,72058
 495,08; 5691,407;  237,920;11464,411;48,57695
 495,67; 5656,441;  258,534;11410,599;48,40276
 496,25; 5544,439;  202,535;11338,494;47,96986
 496,84; 5512,143;  218,688;11293,372;47,79780
 497,42; 5463,715;  205,227;11275,329;47,50171
 498,01; 5424,310;  235,380;11233,343;47,18083
 498,59; 5376,601;  206,919;11143,273;47,27061
 499,18; 5331,709;  202,457;11113,159;47,01120
 499,76; 5307,909;  221,611;11029,806;47,05964
 500,35; 5158,730;  213,612;10794,348;46,73699
 500,93; 5070,528;  209,996;10775,504;46,00377
 501,52; 5022,823;  206,535;10692,500;45,93081
 502,10; 4999,777;  218,536;10608,342;46,01858
 502,69; 4907,475;  212,459;10452,275;45,85059
 503,27; 4796,370;  189,766;10305,740;45,53791
 503,86; 4719,744;  203,305;10219,637;45,09075
 504,44; 4651,759;  181,152;10105,382;45,04739
 505,03; 4490,007;  184,305; 9814,353;44,71111
 505,61; 4407,695;  193,151; 9686,655;44,39398
 506,19; 4325,623;  210,152; 9553,006;44,04940
 506,78; 4185,641;  181,152; 9330,300;43,76898
 507,36; 4110,812;  190,305; 9200,216;43,51327
 507,95; 4020,161;  197,383; 9079,567;43,03871
 508,53; 3951,232;  188,998; 8945,710;42,96400
 509,12; 3861,985;  198,845; 8786,400;42,65638
 509,70; 3822,449;  214,230; 8617,135;42,94014
 510,29; 3730,523;  226,922; 8521,180;42,24128
 510,87; 3623,890;  190,614; 8322,616;42,21932
 511,46; 3544,808;  194,614; 8135,117;42,19121
 512,04; 3453,924;  195,922; 8010,260;41,69261
 512,62; 3412,568;  201,076; 7840,767;42,03695
 513,21; 3285,248;  175,845; 7675,851;41,45867
 513,79; 3228,997;  196,231; 7565,749;41,15284
 514,38; 3158,019;  184,385; 7423,098;41,07959
 514,96; 3142,756;  215,769; 7305,234;41,28643
 515,54; 3016,731;  176,693; 7155,496;40,69520
 516,13; 2973,121;  209,616; 7052,501;40,38509
 516,71; 2891,952;  194,693; 6922,234;40,09279
 517,30; 2844,494;  187,078; 6804,706;40,15663
 517,88; 2794,495;  212,770; 6736,359;39,57522
 518,46; 2724,975;  178,540; 6619,488;39,53510
 519,05; 2674,648;  190,156; 6566,140;38,96642
 519,63; 2621,816;  196,309; 6533,682;38,27307
 520,22; 2618,058;  211,541; 6472,086;38,43943
 520,80; 2562,227;  200,541; 6413,441;38,01262
 521,38; 2551,262;  221,156; 6378,678;37,84162
 521,97; 2492,131;  184,464; 6303,939;37,71021
 522,55; 2476,311;  200,772; 6314,105;37,22256
 523,13; 2435,414;  181,541; 6333,124;36,63890
 523,72; 2386,746;  197,540; 6271,219;36,04415
 524,30; 2444,814;  211,542; 6450,215;35,79723
 524,89; 2404,761;  180,772; 6416,601;35,66469
 525,47; 2465,741;  202,696; 6547,297;35,66883
 526,05; 2407,994;  171,619; 6550,887;35,05693
 526,64; 2442,133;  203,773; 6701,691;34,44734
 527,22; 2456,348;  202,157; 6795,446;34,18917
 527,80; 2488,391;  233,234; 6919,050;33,73046
 528,39; 2485,451;  192,081; 7006,777;33,65329
 528,97; 2473,831;  202,388; 7150,926;32,68951
 529,55; 2539,371;  209,926; 7310,064;32,80844
 530,14; 2593,735;  215,081; 7543,808;32,45658
 530,72; 2562,976;  196,927; 7637,114;31,80094
 531,30; 2577,596;  183,004; 7742,240;31,67770
 531,89; 2592,331;  198,389; 7837,915;31,33627
 532,47; 2625,796;  227,620; 7895,267;31,27656
 533,05; 2621,477;  230,157; 7966,554;30,90999
 533,63; 2622,177;  228,312; 8043,921;30,62929
 534,22; 2597,844;  198,004; 8116,293;30,30755
 534,80; 2620,375;  219,774; 8110,030;30,42488
 535,38; 2677,893;  296,004; 8220,505;30,05727
 535,97; 2570,667;  223,697; 8181,626;29,49223
 536,55; 2657,407;  257,313; 8293,586;29,86576
 537,13; 2615,931;  265,312; 8221,060;29,54617
 537,71; 2609,301;  304,389; 8292,475;28,85437
 538,30; 2625,940;  324,928; 8378,768;28,57038
 538,88; 2633,514;  358,005; 8484,878;27,99981
 539,46; 2701,247;  402,313; 8679,350;27,77484
 540,05; 2735,468;  415,236; 8811,236;27,63497
 540,63; 2788,049;  474,313; 9016,258;27,08676
 541,21; 2796,586;  497,313; 9124,994;26,64995
 541,79; 2837,783;  543,852; 9286,054;26,23974
 542,38; 2875,992;  566,313; 9436,804;26,03778
 542,96; 2889,197;  586,621; 9648,923;25,40829
 543,54; 2939,126;  585,544; 9774,071;25,61436
 544,12; 2916,532;  554,544; 9925,738;25,20477
 544,70; 2920,016;  541,852;10034,565;25,05252
 545,29; 2975,923;  552,928;10167,424;25,20147
 545,87; 2952,783;  520,775;10175,823;25,18898
 546,45; 2882,685;  469,543;10213,458;24,76563
 547,03; 2889,694;  460,313;10338,275;24,59395
 547,62; 2890,593;  440,159;10371,653;24,67336
 548,20; 2934,122;  429,621;10649,692;24,50571
 548,78; 2912,654;  392,545;10726,633;24,38636
 549,36; 2908,870;  360,391;10947,316;24,07195
 549,94; 2901,238;  322,929;11006,747;24,13284
 550,53; 2939,149;  324,622;11243,183;23,94571
 551,11; 2930,280;  301,699;11440,296;23,59885
 551,69; 2991,888;  316,314;11775,094;23,34956
 552,27; 2968,541;  258,468;12019,913;23,04201
 552,85; 3026,212;  273,776;12331,800;22,82659
 553,44; 3059,496;  266,084;12661,243;22,53632
 554,02; 3118,217;  283,699;13009,915;22,27306
 554,60; 3120,047;  228,699;13317,373;22,09045
 555,18; 3175,144;  264,391;13670,068;21,71284
 555,76; 3221,465;  237,545;13982,808;21,70871
 556,34; 3280,864;  247,930;14373,251;21,47161
 556,93; 3315,468;  235,545;14761,461;21,20295
 557,51; 3315,350;  214,238;15113,995;20,81317
 558,09; 3375,648;  248,699;15461,243;20,55507
 558,67; 3464,614;  246,931;15807,594;20,67831
 559,25; 3493,731;  245,623;16052,149;20,54916
 559,83; 3481,127;  225,470;16360,625;20,17742
 560,41; 3546,637;  229,007;16748,020;20,08371
 561,00; 3584,032;  232,315;17058,150;19,92006
 561,58; 3588,160;  228,469;17273,626;19,71053
 562,16; 3591,254;  220,930;17603,283;19,38934
 562,74; 3640,345;  205,545;17974,133;19,33074
 563,32; 3688,828;  193,854;18466,437;19,12687
 563,90; 3747,323;  226,931;18797,564;18,95677
 564,48; 3786,795;  234,392;19240,173;18,69117
 565,06; 3874,402;  222,085;19811,180;18,64465
 565,65; 3986,035;  222,470;20536,897;18,52656
 566,23; 4112,622;  270,469;21375,060;18,20529
 566,81; 4212,355;  223,777;21991,961;18,32297
 567,39; 4310,533;  236,700;22887,870;17,98509
 567,97; 4411,933;  238,238;23568,060;17,88996
 568,55; 4586,769;  248,085;24331,907;18,01493
 569,13; 4630,800;  219,931;25091,035;17,73492
 569,71; 4788,340;  221,545;26028,403;17,69605
 570,29; 4958,767;  258,468;26992,073;17,58199
 570,87; 5047,189;  253,161;27666,210;17,48812
 571,45; 5124,247;  249,931;28319,910;17,36487
 572,03; 5114,274;  213,008;28803,973;17,14271
 572,61; 5205,761;  209,008;29491,672;17,06386
 573,20; 5299,101;  237,392;30208,755;16,88849
 573,78; 5357,999;  222,008;30773,869;16,81073
 574,36; 5458,140;  242,777;31246,514;16,82172
 574,94; 5471,244;  284,316;31638,691;16,54292
 575,52; 5408,472;  237,163;31890,279;16,33744
 576,10; 5532,172;  301,316;32476,509;16,25742
 576,68; 5565,607;  280,393;33059,293;16,12383
 577,26; 5644,916;  290,778;33663,469;16,04347
 577,84; 5640,745;  299,392;34257,356;15,72931
 578,42; 5697,230;  337,470;34447,841;15,71299
 579,00; 5622,016;  296,623;34622,839;15,51407
 579,58; 5642,483;  321,470;34793,157;15,43589
 580,16; 5550,073;  302,470;34834,726;15,19624
 580,74; 5523,850;  314,316;34963,385;15,03513
 581,32; 5471,780;  297,778;35007,191;14,90663
 581,90; 5452,527;  325,624;35003,337;14,78443
 582,48; 5442,398;  324,009;35042,081;14,74272
 583,06; 5392,679;  329,701;35222,640;14,51004
 583,64; 5375,595;  313,931;35325,674;14,45705
 584,22; 5269,758;  323,701;35070,002;14,23477
 584,80; 5157,178;  335,393;34670,124;14,04346
 585,38; 5049,788;  333,007;34418,597;13,83805
 585,96; 4990,859;  316,316;34450,724;13,69452
 586,54; 4969,292;  330,470;34470,574;13,58760
 587,12; 4926,727;  295,086;34696,133;13,46366
 587,70; 4918,712;  331,162;34753,613;13,32720
 588,28; 4845,197;  318,470;34764,330;13,14157
 588,86; 4800,748;  315,701;34867,916;12,98049
 589,44; 4753,727;  292,163;34889,572;12,89566
 590,02; 4722,356;  309,548;35182,730;12,65387
 590,59; 4706,822;  279,547;35275,416;12,65085
 591,17; 4713,628;  284,241;35504,999;12,57607
 591,75; 4667,889;  279,317;35586,313;12,42975
 592,33; 4679,374;  293,086;35815,051;12,34810
 592,91; 4612,830;  252,779;35952,788;12,21302
 593,49; 4628,512;  259,472;36396,482;12,09021
 594,07; 4616,350;  273,010;36539,862;11,97606
 594,65; 4636,042;  278,932;36458,604;12,04298
 595,23; 4632,468;  267,163;36971,785;11,89307
 595,81; 4603,634;  264,933;37058,179;11,79211
 596,39; 4579,145;  259,009;37120,051;11,72006
 596,97; 4558,335;  260,856;37369,541;11,58079
 597,55; 4522,669;  251,163;37243,691;11,54694
 598,12; 4465,601;  243,626;37252,491;11,40801
 598,70; 4434,006;  238,395;37384,802;11,29480
 599,28; 4396,365;  252,702;37532,327;11,11509
 599,86; 4419,836;  251,087;37624,562;11,15430
 600,44; 4390,531;  218,164;37634,990;11,15105
 601,02; 4437,899;  261,473;37607,537;11,18304
 601,60; 4351,744;  249,010;37692,240;10,95721
 602,18; 4300,859;  227,087;37760,235;10,85380
 602,75; 4243,319;  228,086;37816,367;10,68214
 603,33; 4246,245;  244,856;37813,806;10,65079
 603,91; 4192,891;  228,472;37735,988;10,56967
 604,49; 4219,782;  255,549;37919,537;10,52526
 605,07; 4155,898;  258,087;37892,202;10,35712
 605,65; 4175,272;  263,087;37828,516;10,41432
 606,23; 4193,756;  345,009;38089,766;10,19677
 606,80; 4157,055;  375,394;38053,273;10,03682
 607,38; 4154,014;  420,088;38173,625; 9,89027
 607,96; 4140,047;  460,856;38192,653; 9,75090
 608,54; 4154,085;  528,318;38274,038; 9,60577
 609,12; 4122,644;  537,702;38322,952; 9,48768
 609,70; 4137,854;  574,087;38394,109; 9,42296
 610,27; 4132,126;  572,471;38341,038; 9,42491
 610,85; 4095,223;  583,010;38466,100; 9,27119
 611,43; 4095,912;  580,549;38473,524; 9,27708
 612,01; 3999,482;  557,010;38197,877; 9,14557
 612,59; 4001,453;  540,164;38279,216; 9,17164
 613,16; 3936,561;  514,163;38255,019; 9,06815
 613,74; 3938,603;  475,933;38005,563; 9,22650
 614,32; 3911,528;  446,318;38048,722; 9,21540
 614,90; 3905,074;  421,779;37967,523; 9,27747
 615,48; 3797,686;  369,471;37642,276; 9,19763
 616,05; 3810,342;  333,624;37708,292; 9,30234
 616,63; 3769,382;  337,778;37300,539; 9,28395
 617,21; 3785,262;  335,855;37342,529; 9,32104
 617,79; 3717,059;  325,471;37239,624; 9,18777
 618,36; 3727,557;  323,779;37037,877; 9,27104
 618,94; 3621,513;  255,394;36831,614; 9,20303
 619,52; 3637,815;  285,701;36580,373; 9,23583
 620,10; 3596,498;  280,009;36601,034; 9,13104
 620,67; 3565,048;  278,547;36485,988; 9,07687
 621,25; 3619,034;  311,010;36332,193; 9,18355
 621,83; 3536,684;  285,086;36254,353; 9,03993
 622,41; 3565,053;  323,471;36257,268; 9,02098
 622,98; 3518,374;  299,778;36033,766; 9,00710
 623,56; 3476,676;  295,086;35950,300; 8,92321
 624,14; 3488,131;  271,164;35808,053; 9,05247
 624,72; 3427,616;  283,086;35743,165; 8,86780
 625,29; 3456,034;  268,624;35732,595; 8,98774
 625,87; 3469,247;  308,010;35786,641; 8,91026
 626,45; 3397,320;  265,624;35596,350; 8,86394
 627,02; 3394,699;  263,010;35574,791; 8,86868
 627,60; 3347,677;  258,626;35490,755; 8,76771
 628,18; 3356,490;  244,240;35594,183; 8,80412
 628,76; 3333,765;  259,547;35594,347; 8,70026
 629,33; 3359,228;  269,317;35636,853; 8,73657
 629,91; 3349,344;  256,009;35550,649; 8,76432
 630,49; 3390,718;  277,471;35666,134; 8,79730
 631,06; 3367,251;  271,317;35835,899; 8,70511
 631,64; 3331,096;  264,855;35698,240; 8,65354
 632,22; 3303,951;  239,239;35773,392; 8,62469
 632,79; 3348,386;  258,470;36012,918; 8,64205
 633,37; 3335,276;  234,471;36065,005; 8,65409
 633,95; 3352,509;  257,547;36057,791; 8,64509
 634,52; 3326,839;  224,702;36271,469; 8,60587
 635,10; 3370,654;  223,625;36225,572; 8,74128
 635,68; 3377,429;  239,470;36398,362; 8,67825
 636,25; 3363,612;  225,931;36481,485; 8,65435
 636,83; 3362,612;  212,240;36640,886; 8,64806
 637,41; 3400,612;  215,701;36642,490; 8,74332
 637,98; 3472,408;  249,162;36838,310; 8,80930
 638,56; 3440,540;  245,085;37009,638; 8,69167
 639,13; 3430,683;  224,470;37001,112; 8,71807
 639,71; 3499,413;  269,394;37268,903; 8,72990
 640,29; 3411,732;  200,394;37032,628; 8,71883
 640,86; 3431,754;  214,086;37229,056; 8,69288
 641,44; 3443,699;  222,317;37145,176; 8,72463
 642,02; 3482,952;  238,471;37227,218; 8,77154
 642,59; 3497,127;  210,163;37250,569; 8,87400
 643,17; 3465,226;  216,624;37360,919; 8,74590
 643,74; 3430,863;  213,317;37234,731; 8,69104
 644,32; 3503,885;  251,548;37263,082; 8,78736
 644,89; 3494,446;  233,086;37256,971; 8,80880
 645,47; 3481,237;  262,317;37298,860; 8,69120
 646,05; 3487,182;  226,009;37154,057; 8,83115
 646,62; 3513,357;  230,855;37231,484; 8,87148
 647,20; 3532,225;  238,932;37420,758; 8,85727
 647,77; 3494,170;  210,009;37197,954; 8,87900
 648,35; 3490,500;  213,086;37083,689; 8,88896
 648,92; 3532,830;  241,009;37129,425; 8,92372
 649,50; 3487,313;  203,778;37099,929; 8,89940
 650,08; 3464,412;  198,317;37006,356; 8,87332
 650,65; 3545,126;  201,471;37262,092; 9,02212
 651,23; 3634,763;  207,548;38161,904; 9,02983
 651,80; 3734,247;  209,779;39002,254; 9,08544
 652,38; 3850,499;  215,394;39431,451; 9,26943
 652,95; 3863,829;  196,932;39754,571; 9,26976
 653,53; 3927,235;  219,702;39976,998; 9,32542
 654,10; 3981,949;  243,932;40173,964; 9,36142
 654,68; 3929,664;  211,086;40104,007; 9,32140
 655,25; 3965,301;  201,702;40172,896; 9,41578
 655,83; 3990,938;  206,394;40271,246; 9,44605
 656,40; 4040,960;  227,394;40136,674; 9,55559
 656,98; 3990,213;  207,471;40074,255; 9,48845
 657,55; 4018,004;  212,702;39932,682; 9,58032
 658,13; 3971,872;  201,702;39496,571; 9,59456
 658,70; 3969,663;  232,086;39202,922; 9,59070
 659,28; 3866,146;  222,010;38260,888; 9,58003
 659,85; 3804,630;  218,856;37545,777; 9,60640
 660,43; 3831,805;  228,856;37693,743; 9,61687
 661,00; 3827,750;  211,856;37842,786; 9,60884
 661,58; 3883,618;  199,856;38096,290; 9,72060
 662,15; 3899,179;  195,548;38274,641; 9,72615
 662,73; 4017,277;  255,779;38669,760; 9,79200
 663,30; 4025,607;  216,087;38896,649; 9,84867
 663,88; 4026,244;  216,779;39132,077; 9,78912
 664,45; 4076,882;  207,702;39339,350; 9,88760
 665,03; 4145,134;  216,010;39734,162; 9,94258
 665,60; 4274,310;  273,933;40079,436;10,04981
 666,17; 4203,563;  218,164;40213,633; 9,96463
 666,75; 4319,507;  210,010;40594,291;10,17598
 667,32; 4357,529;  226,548;40927,949;10,14948
 667,90; 4422,936;  213,471;41280,069;10,25034
 668,47; 4450,881;  229,625;41381,727;10,25769
 669,05; 4494,980;  208,087;41795,539;10,30814
 669,62; 4517,155;  185,395;41861,736;10,39381
 670,19; 4542,639;  204,087;41920,856;10,40002
 670,77; 4606,276;  216,241;42237,283;10,44723
 671,34; 4630,452;  204,856;42056,634;10,57445
 671,92; 4673,243;  201,856;42458,907;10,58140
 672,49; 4705,495;  232,010;42329,565;10,62647
 673,06; 4711,748;  171,472;42392,685;10,75354
 673,64; 4732,693;  187,625;42370,959;10,77456
 674,21; 4787,099;  191,087;42297,848;10,91514
 674,79; 4832,967;  211,241;42510,506;10,92626
 675,36; 4848,143;  224,626;42634,395;10,90201
 675,93; 4821,627;  185,395;42558,822;10,94137
 676,51; 4895,264;  231,472;42655,250;10,99334
 677,08; 4950,516;  211,856;42699,062;11,15315
 677,65; 4983,154;  204,933;42771,259;11,22535
 678,23; 5006,253;  209,395;43135,224;11,17476
 678,80; 5075,736;  195,780;43281,960;11,32604
 679,38; 5109,989;  207,933;43472,695;11,33036
 679,95; 5211,703;  217,626;43720,276;11,47994
 680,52; 5230,263;  206,318;43988,780;11,47479
 681,10; 5363,285;  218,472;44433,439;11,63591
 681,67; 5367,307;  219,164;44791,097;11,55019
 682,24; 5447,098;  191,857;44849,909;11,76774
 682,82; 5579,043;  199,626;45425,798;11,89448
 683,39; 5673,142;  238,857;45725,302;11,94704
 683,96; 5728,010;  202,780;45906,730;12,08917
 684,54; 5769,108;  195,395;46337,080;12,07956
 685,11; 5873,361;  224,318;46704,200;12,15374
 685,68; 5999,075;  214,087;47093,627;12,34011
 686,25; 5985,328;  195,857;47210,209;12,31426
 686,83; 6081,273;  202,857;47313,175;12,47798
 687,40; 6166,987;  189,241;47709,294;12,57942
 687,97; 6287,778;  227,241;48147,183;12,64721
 688,55; 6295,877;  191,472;48144,688;12,72992
 689,12; 6373,437;  186,318;48370,731;12,84050
 689,69; 6408,690;  179,780;48471,696;12,89845
 690,26; 6437,173;  210,395;48612,355;12,86472
 690,84; 6546,580;  194,934;48750,474;13,08120
 691,41; 6581,525;  207,703;48757,671;13,12837
 691,98; 6690,470;  211,703;49097,099;13,25297
 692,56; 6698,415;  184,472;49191,141;13,29195
 693,13; 6831,590;  249,549;49151,953;13,45955
 693,70; 6845,228;  224,934;49352,304;13,47577
 694,27; 6875,480;  206,549;49474,193;13,53613
 694,84; 6940,656;  199,780;49548,005;13,65981
 695,42; 7053,370;  233,703;49732,125;13,77754
 695,99; 7094,623;  217,472;49894,398;13,84375
 696,56; 7101,491;  192,396;49755,595;13,93997
 697,13; 7212,128;  209,549;50070,792;14,04413
 697,71; 7211,919;  186,934;50102,065;14,07386
 698,28; 7325,941;  199,242;50599,416;14,14023
 698,85; 7340,271;  166,088;50532,536;14,24397
 699,42; 7438,831;  185,549;50656,348;14,37124
 699,99; 7493,853;  218,626;50743,006;14,39944
 700,57; 7507,567;  206,857;50905,049;14,40034
 701,14; 7580,127;  192,396;51031,092;14,53171
 701,71; 7690,072;  219,319;51123,596;14,67608
 702,28; 7703,248;  203,703;51221,716;14,69980
 702,85; 7776,808;  208,242;51270,682;14,82218
 703,43; 7843,522;  222,396;51474,417;14,86990
 704,00; 7970,237;  230,627;51701,844;15,03677
 704,57; 7944,797;  214,165;51713,964;15,01099
 705,14; 8066,050;  242,242;52035,391;15,10587
 705,71; 8098,841;  248,396;51984,357;15,17406
 706,28; 8080,093;  217,011;51819,246;15,23787
 706,86; 8224,961;  240,627;52259,212;15,34900
 707,43; 8298,445;  266,165;52100,947;15,49593
 708,00; 8329,159;  244,704;52080,529;15,59627
 708,57; 8316,719;  209,319;52025,495;15,64647
 709,14; 8412,357;  242,550;52156,076;15,73734
 709,71; 8471,917;  223,627;52259,580;15,85114
 710,28; 8563,939;  219,550;52565,623;15,94081
 710,86; 8604,268;  227,242;52586,358;15,99917
 711,43; 8692,829;  244,165;52668,709;16,11585
 712,00; 8727,850;  229,935;52860,752;16,14627
 712,57; 8795,719;  239,935;52817,564;16,27267
 713,14; 8845,510;  218,550;53009,683;16,34168
 713,71; 8925,455;  226,012;52880,957;16,52161
 714,28; 8933,400;  224,012;52901,077;16,53355
 714,85; 8975,575;  196,627;52665,427;16,73175
 715,42; 9025,597;  215,627;52958,316;16,70368
 716,00; 9180,773;  254,396;53062,897;16,90329
 716,57; 9143,025;  206,089;53119,248;16,88982
 717,14; 9237,355;  200,165;53041,752;17,10242
 717,71; 9270,146;  192,858;53116,180;17,15177
 718,28; 9336,630;  225,550;53222,453;17,19172
 718,85; 9336,805;  194,935;53175,342;17,25519
 719,42; 9489,904;  223,396;53318,154;17,45277
 719,99; 9447,772;  195,704;53138,120;17,47572
 720,56; 9578,255;  222,089;53585,702;17,53286
 721,13; 9665,662;  202,012;53579,437;17,72969
 721,70; 9669,145;  192,166;53442,864;17,79691
 722,27; 9726,706;  219,166;53494,446;17,84606
 722,84; 9869,266;  247,396;53590,565;18,03768
 723,41; 9851,288;  191,243;53629,608;18,07698
 723,98; 9992,387;  201,243;53860,420;18,24691
 724,55;10093,332;  238,320;53924,848;18,35658
 725,12;10050,353;  158,627;53764,737;18,45261
 725,69;10135,683;  196,781;54047,395;18,45643
 726,27;10225,782;  207,858;54041,976;18,60887
 726,84;10334,881;  204,627;54414,634;18,68705
 727,41;10412,133;  223,550;54344,370;18,82563
 727,98;10556,771;  224,935;54713,797;18,96137
 728,55;10596,562;  240,166;54539,301;19,07286
 729,12;10644,276;  190,935;54672,806;19,18682
 729,69;10728,990;  232,012;54866,079;19,21325
 730,26;10776,858;  237,320;55057,584;19,22562
 730,82;10836,572;  206,935;54970,703;19,40998
 731,39;10931,748;  210,551;54992,592;19,57064
 731,96;11033,077;  203,397;55354,174;19,63650
 732,53;11135,330;  223,166;55482,293;19,74726
 733,10;11141,890;  231,243;55594,952;19,70722
 733,67;11268,758;  230,397;55848,148;19,84683
 734,24;11267,088;  216,858;55370,191;20,03547
 734,81;11380,110;  229,012;55575,696;20,14773
 735,38;11329,978;  215,320;55266,508;20,18968
 735,95;11368,769;  205,166;55096,550;20,33762
 736,52;11470,099;  235,089;55317,593;20,39669
 737,09;11456,120;  228,397;55024,636;20,48995
 737,66;11559,835;  262,243;55225,910;20,55465
 738,23;11656,933;  206,397;55259,568;20,79905
 738,80;11771,109;  258,243;55575,226;20,81253
 739,37;11812,669;  241,474;55747,961;20,84656
 739,94;11939,307;  218,859;55748,235;21,10675
 740,51;11985,790;  305,474;55838,432;21,03312
 741,07;11916,735;  224,859;55750,474;21,05673
 741,64;12076,065;  240,551;55956,363;21,24265
 742,21;12175,317;  217,166;56078,637;21,40680
 742,78;12149,647;  201,243;55809,218;21,48685
 743,35;12256,207;  212,551;56235,107;21,49787
 743,92;12384,614;  264,013;56241,073;21,65280
 744,49;12427,866;  228,013;56096,501;21,83673
 745,06;12442,504;  210,013;56166,697;21,86064
 745,63;12481,372;  207,090;56169,586;21,93305
 746,19;12576,086;  209,551;56107,168;22,12355
 746,76;12603,954;  230,551;56238,749;22,09213
 747,33;12690,668;  217,859;56054,484;22,33804
 747,90;12776,690;  240,397;56400,219;22,32253
 748,47;12783,404;  222,244;56178,493;22,44818
 749,04;12885,657;  226,782;56162,305;22,63119
 749,61;12898,832;  248,244;56187,732;22,61477
 750,17;12955,239;  238,244;56351,544;22,66307
 750,74;13027,722;  231,859;56209,510;22,85888
 751,31;13016,590;  220,244;56066,092;22,91369
 751,88;13097,612;  201,167;56004,750;23,11043
 752,45;13143,249;  221,013;56076,562;23,13510
 753,02;13183,040;  235,013;55992,758;23,22194
 753,58;13174,524;  207,474;55871,724;23,29511
 754,15;13320,853;  215,936;56093,767;23,45280
 754,72;13268,491;  207,167;55855,195;23,47131
 755,29;13296,128;  199,705;55814,468;23,54846
 755,86;13411,150;  221,167;55911,973;23,68431
 756,42;13540,249;  227,244;55749,323;23,97786
 756,99;13486,194;  196,859;55730,289;23,93033
 757,56;13507,754;  197,398;55635,024;24,00961
 758,13;13544,160;  170,705;55714,529;24,07730
 758,70;13710,644;  187,321;55711,879;24,35557
 759,26;13774,281;  197,090;55807,076;24,41502
 759,83;13851,303;  198,090;55915,426;24,50442
 760,40;13864,863;  184,321;55664,008;24,65865
 760,97;13890,116;  177,936;55709,897;24,69241
 761,53;13830,984;  175,167;55292,862;24,77574
 762,10;13931,775;  171,321;55418,675;24,90699
 762,67;14004,489;  208,706;55261,102;25,05937
 763,24;13956,973;  154,552;55011,376;25,16081
 763,80;14087,841;  190,706;55073,418;25,32152
 764,37;14022,862;  192,859;54953,307;25,25546
 764,94;14042,730;  183,090;54539,889;25,49753
 765,50;14091,752;  178,398;54532,855;25,59745
 766,07;14146,467;  221,936;54550,974;25,63000
 766,64;14118,796;  181,321;54185,171;25,80830
 767,21;14111,049;  189,629;54028,368;25,85763
 767,77;14234,071;  206,475;54018,180;26,06793
 768,34;14221,323;  207,937;53990,223;26,05577
 768,91;14211,653;  214,013;53849,189;26,09787
 769,47;14279,136;  210,937;53857,308;26,22395
 770,04;14294,081;  202,783;53783,428;26,29923
 770,61;14255,795;  202,475;53440,009;26,39739
 771,18;14297,509;  187,629;53325,744;26,55322
 771,74;14383,378;  202,552;53585,249;26,56446
 772,31;14383,169;  210,706;53371,599;26,65956
 772,88;14343,883;  184,167;53081,873;26,76811
 773,44;14344,674;  197,860;52800,070;26,89395
 774,01;14492,773;  210,860;53040,959;27,03367
 774,58;14414,102;  196,168;52673,232;27,09362
 775,14;14437,047;  189,014;52862,506;27,04972
 775,71;14464,146;  190,552;52706,241;27,17968
 776,27;14564,322;  237,937;52611,361;27,35430
 776,84;14712,574;  254,706;52651,711;27,59293
 777,41;14609,750;  217,860;52505,216;27,52461
 777,97;14598,310;  199,629;52204,258;27,68731
 778,54;14580,717;  203,322;52232,301;27,63344
 779,11;14656,662;  232,322;52317,729;27,69363
 779,67;14631,684;  192,398;52169,925;27,77986
 780,24;14673,321;  215,552;51941,430;27,95075
 780,80;14709,574;  230,552;51913,242;28,01522
 781,37;14740,365;  215,399;51974,054;28,06287
 781,94;14733,848;  213,783;51672,020;28,21718
 782,50;14787,793;  219,706;51698,678;28,29910
 783,07;14832,353;  237,014;51642,875;28,39236
 783,63;14815,914;  190,322;51544,302;28,47996
 784,20;14829,705;  235,553;51440,268;28,50158
 784,77;14836,188;  214,322;51211,388;28,67198
 785,33;14795,749;  196,937;51066,508;28,69852
 785,90;14893,386;  212,476;51080,397;28,86084
 786,46;14894,254;  234,553;50914,132;28,92625
 787,03;14961,276;  197,783;50790,867;29,18085
 787,59;14925,990;  208,322;50631,140;29,18851
 788,16;15008,166;  216,706;50664,568;29,32029
 788,73;14970,341;  223,399;50437,380;29,36820
 789,29;14888,979;  205,168;50103,192;29,42764
 789,86;14949,308;  231,245;50010,466;29,56668
 790,42;15028,253;  213,168;49875,124;29,83186
 790,99;14883,736;  228,553;49488,321;29,75082
 791,55;14943,528;  209,168;49533,286;29,87252
 792,12;15031,934;  231,476;49512,406;30,03283
 792,68;14867,110;  208,937;49095,680;29,98394
 793,25;14862,747;  226,937;48901,569;30,06866
 793,81;14884,153;  268,937;48494,612;30,30588
 794,38;14740,252;  196,322;48275,962;30,24967
 794,94;14782,505;  198,476;48162,005;30,40650
 795,51;14831,758;  230,938;47886,279;30,63837
 796,07;14752,703;  218,476;47564,168;30,69810
 796,64;14857,878;  226,399;47808,672;30,74985
 797,20;14746,362;  224,015;47354,022;30,81338
 797,77;14649,230;  205,015;46997,065;30,86895
 798,33;14689,175;  222,245;46805,723;31,05592
 798,90;14717,196;  243,861;46821,074;31,07386
 799,46;14575,834;  220,015;46297,578;31,15577
 800,03;14606,548;  220,861;46275,929;31,23584
 800,59;14553,339;  235,476;45994,818;31,28949
 801,15;14523,361;  230,476;45830,245;31,34420
 801,72;14400,767;  230,322;45478,057;31,31747
 802,28;14385,943;  259,399;45207,562;31,42852
 802,85;14342,811;  228,784;45054,297;31,48659
 803,41;14365,141;  218,092;44878,263;31,67710
 803,98;14288,393;  215,553;44497,306;31,78022
 804,54;14276,723;  229,015;44161,733;31,97550
 805,11;14282,975;  224,784;44049,161;32,07847
 805,67;14235,536;  250,323;43958,357;31,99689
 806,23;14121,404;  230,169;43495,939;32,10676
 806,80;14174,887;  247,476;43403,212;32,27244
 807,36;14135,140;  239,630;43432,563;32,17079
 807,93;14148,623;  233,630;43096,836;32,46372
 808,49;14068,030;  205,169;42759,648;32,57674
 809,05;14050,590;  191,092;42576,537;32,69872
 809,62;14065,304;  232,092;42497,119;32,72969
 810,18;14054,865;  229,553;42374,084;32,80452
 810,74;13923,271;  199,015;42189,589;32,68414
 811,31;13927,985;  195,784;41949,555;32,88853
 811,87;13983,546;  217,554;41813,598;33,09447
 812,44;14086,875;  237,630;41883,564;33,25474
 813,00;14005,128;  181,092;41517,683;33,44261
 813,56;14115,534;  232,861;41640,265;33,52703
 814,13;14072,633;  225,861;41665,077;33,41466
 814,69;14046,809;  229,554;41382,735;33,57518
 815,25;13952,215;  200,400;40900,778;33,78793
 815,82;14004,468;  230,631;40897,513;33,86991
 816,38;13983,874;  252,092;40699,633;33,94961
 816,94;13868,050;  206,477;40456,060;33,94215
 817,51;13789,149;  201,400;40201,795;33,96904
 818,07;13771,325;  203,169;39878,530;34,19794
 818,63;13790,039;  229,708;39651,188;34,39833
 819,20;13798,138;  224,938;39564,231;34,50291
 819,76;13621,313;  207,246;39142,813;34,45196
 820,32;13644,874;  256,169;39117,471;34,45254
 820,89;13617,819;  243,323;38874,668;34,62084
 821,45;13514,071;  212,785;38522,018;34,72084
 822,01;13479,862;  239,015;38368,753;34,72577
 822,57;13533,653;  236,939;38122,411;35,09713
 823,14;13392,983;  209,246;38010,685;34,87628
 823,70;13293,082;  211,477;37733,420;34,86388
 824,26;13344,719;  211,015;37560,001;35,16482
 824,82;13430,049;  228,708;37415,813;35,49978
 825,39;13259,378;  217,708;37118,241;35,34277
 825,95;13381,246;  232,477;37037,976;35,72501
 826,51;13195,883;  230,016;36661,711;35,58953
 827,08;13285,598;  246,554;36741,062;35,72878
 827,64;13235,312;  231,785;36610,028;35,74534
 828,20;13215,949;  206,554;36350,070;35,99372
 828,76;13256,048;  235,708;36260,344;36,14288
 829,32;13216,762;  241,862;36114,079;36,16977
 829,89;13182,015;  203,631;35993,507;36,26272
 830,45;13218,267;  215,785;35818,396;36,52115
 831,01;13162,289;  216,554;35771,515;36,41049
 831,57;13178,926;  223,477;35624,789;36,59596
 832,14;13157,564;  218,477;35559,832;36,61174
 832,70;13083,124;  210,862;35379,029;36,60203
 833,26;13079,454;  184,939;35228,994;36,79516
 833,82;13154,475;  221,016;35148,960;37,02897
 834,38;13203,728;  204,785;35247,772;37,09428
 834,95;13191,596;  209,400;35016,815;37,29721
 835,51;13112,464;  182,401;34926,781;37,21483
 836,07;13254,717;  223,785;35040,593;37,42713
 836,63;13292,354;  231,708;35020,098;37,54312
 837,19;13210,299;  219,401;34756,987;37,61380
 837,75;13155,475;  185,708;34560,029;37,73097
 838,32;13266,573;  231,554;34622,841;37,90210
 838,88;13246,595;  238,016;34675,500;37,77448
 839,44;13262,463;  219,401;34458,235;38,09435
 840,00;13257,485;  222,324;34399,278;38,14021
 840,56;13231,584;  203,862;34165,551;38,36005
 841,12;13282,221;  199,862;34099,825;38,59107
 841,68;13162,859;  190,324;33935,483;38,44265
 842,25;13200,957;  200,708;33989,449;38,47509
 842,81;13221,364;  189,708;33763,569;38,81489
 843,37;13202,155;  186,939;33641,996;38,90358
 843,93;13238,408;  202,709;33671,808;38,94846
 844,49;13243,814;  213,555;33658,697;38,96010
 845,05;13230,682;  179,016;33464,586;39,21118
 845,61;13335,550;  226,785;33565,552;39,31988
 846,17;13239,726;  206,632;33410,441;39,25180
 846,73;13178,594;  211,093;33349,099;39,13181
 847,29;13203,616;  198,555;33127,527;39,49428
 847,86;13192,638;  209,170;33115,185;39,45621
 848,42;13182,352;  195,401;32856,920;39,76224
 848,98;13183,297;  205,632;32878,732;39,71972
 849,54;13209,857;  203,247;32831,467;39,86307
 850,10;13187,648;  216,478;32745,279;39,87595
 850,66;13190,593;  199,478;32511,168;40,20562
 851,22;13137,076;  191,016;32407,211;40,18494
 851,78;13215,714;  239,786;32581,485;40,12136
 852,34;13108,351;  219,324;32270,451;40,21396
 852,90;13109,296;  207,478;32195,570;40,33319
 853,46;13080,164;  188,247;31920,459;40,62722
 854,02;13150,032;  216,401;31898,425;40,82325
 854,58;13058,592;  205,401;31641,468;40,88677
 855,14;13094,768;  193,940;31606,511;41,06900
 855,70;13105,482;  166,555;31445,400;41,36638
 856,26;13037,427;  224,709;31435,827;41,05178
 856,82;13017,911;  194,709;31250,563;41,29077
 857,38;13032,086;  230,017;31264,144;41,25159
 857,94;12972,339;  211,555;31077,110;41,34312
 858,50;12975,515;  213,324;30971,845;41,49156
 859,06;12935,613;  204,786;30794,119;41,61852
 859,62;13010,943;  214,171;30736,161;41,92640
 860,18;12955,273;  208,171;30545,666;42,01765
 860,74;12865,448;  177,325;30374,247;42,01794
 861,30;12854,547;  176,094;30279,598;42,11620
 861,86;12920,800;  231,248;30364,948;42,11083
 862,42;12850,822;  210,709;30084,991;42,31102
 862,98;12853,536;  235,325;30010,880;42,37775
 863,54;12829,096;  206,325;29777,692;42,68579
 864,10;12901,272;  200,632;29861,504;42,81951
 864,66;12814,909;  177,786;29653,008;42,87372
 865,22;12810,700;  209,632;29465,590;43,07180
 865,78;12766,414;  211,786;29383,402;43,03714
 866,34;12829,590;  207,017;29318,368;43,35963
 866,90;12776,843;  226,017;29252,410;43,23936
 867,45;12735,018;  221,786;28986,223;43,50244
 868,01;12720,271;  213,171;28949,573;43,52354
 868,57;12645,754;  209,556;28593,231;43,81462
 869,13;12580,315;  190,248;28553,351;43,68375
 869,69;12609,875;  189,402;28412,317;44,00847
 870,25;12552,589;  194,940;28284,052;43,99445
 870,81;12576,457;  213,786;28210,941;44,15688
 871,37;12581,864;  207,171;28206,676;44,19611
 871,93;12512,732;  226,863;27964,181;44,29364
 872,49;12497,369;  223,094;27773,531;44,55202
 873,04;12415,699;  203,402;27623,651;44,53751
 873,60;12405,720;  197,556;27409,694;44,86294
 874,16;12429,896;  207,017;27378,121;44,98484
 874,72;12394,512;  194,248;27259,121;45,07785
 875,28;12403,973;  209,479;27254,583;45,08947
 875,84;12415,127;  207,787;27177,429;45,26326
 876,40;12434,050;  203,094;27136,583;45,41170
 876,95;12450,665;  220,094;27097,275;45,50541
 877,51;12566,742;  234,633;27088,583;45,92289
 878,07;12632,281;  242,017;27203,967;45,95463
 878,63;12691,512;  203,787;27116,967;46,40003
 879,19;12738,665;  226,171;27111,044;46,54102
 879,75;12754,204;  205,479;27221,660;46,44892
 880,30;12831,512;  204,710;27218,813;46,74152
 880,86;12979,896;  235,787;27351,352;46,99924
 881,42;13003,819;  192,710;27380,737;47,12041
 881,98;13048,127;  231,248;27497,737;47,00598
 882,54;13212,742;  207,787;27677,813;47,34235
 883,09;13342,050;  222,556;27728,890;47,69626
 883,65;13413,127;  189,863;27895,967;47,72690
 884,21;13587,127;  234,479;28106,967;47,90619
 884,77;13684,512;  204,479;28148,198;48,23994
 885,32;13809,588;  208,017;28301,967;48,41459
 885,88;13900,127;  248,633;28505,121;48,31278
 886,44;14079,665;  220,479;28639,429;48,76741
 887,00;14175,588;  237,402;28713,352;48,94722
 887,56;14275,281;  208,633;28820,737;49,16328
 888,11;14361,588;  208,556;28820,660;49,46519
 888,67;14519,127;  237,402;29049,583;49,56836
 889,23;14562,742;  213,633;29155,737;49,57867
 889,79;14579,358;  197,556;28932,198;50,05039
 890,34;14573,665;  210,863;28913,044;50,04080
 890,90;14832,435;  264,710;29075,352;50,56369
 891,46;14669,512;  194,402;28963,967;50,31397
 892,01;14710,281;  233,402;29017,660;50,29443
 892,57;14675,281;  239,633;28921,813;50,32967
 893,13;14647,742;  209,402;28708,275;50,66285
 893,69;14589,973;  199,787;28602,583;50,66468
 894,24;14606,819;  226,479;28535,967;50,79689
 894,80;14615,050;  229,171;28394,275;51,07696
 895,36;14473,819;  217,787;28279,198;50,80298
 895,91;14442,435;  210,402;27991,890;51,22847
 896,47;14423,050;  227,710;27950,352;51,20486
 897,03;14313,435;  203,556;27715,429;51,28651
 897,58;14255,127;  228,556;27554,275;51,33102
 898,14;14195,358;  224,094;27410,737;51,39018
 898,70;14094,435;  184,863;27270,583;51,35389
 899,25;14100,819;  208,248;27270,583;51,33545
 899,81;14069,665;  227,017;27002,352;51,69925
 900,37;14013,512;  183,863;26745,967;52,06533
 900,92;14037,127;  222,402;26673,737;52,22695
 901,48;13989,204;  206,633;26537,429;52,34392
 902,03;14005,665;  206,479;26396,737;52,68824
 902,59;13921,973;  209,402;26331,275;52,49459
 903,15;13870,665;  229,479;26172,352;52,58163
 903,70;13746,973;  215,556;25943,121;52,59502
 904,26;13741,127;  203,402;25826,737;52,83358
 904,82;13691,973;  216,248;25825,506;52,62052
 905,37;13712,742;  219,710;25617,660;53,12646
 905,93;13648,358;  206,633;25516,275;53,10911
 906,48;13698,204;  214,787;25397,813;53,54169
 907,04;13669,358;  231,556;25286,275;53,63382
 907,60;13616,973;  210,094;25075,044;53,91878
 908,15;13523,973;  195,710;24944,660;53,85385
 908,71;13586,050;  240,479;25003,737;53,89263
 909,26;13478,588;  195,556;24794,044;53,99939
 909,82;13477,665;  223,017;24712,506;54,12383
 910,37;13521,127;  248,325;24564,660;54,58389
 910,93;13419,973;  199,094;24395,275;54,64035
 911,48;13379,127;  203,479;24242,583;54,80923
 912,04;13314,665;  207,633;24199,275;54,63166
 912,60;13316,665;  209,710;24197,352;54,64045
 913,15;13241,435;  214,863;23988,813;54,79347
 913,71;13213,896;  200,940;23847,506;55,03106
 914,26;13196,204;  193,479;23809,506;55,05890
 914,82;13176,281;  209,863;23623,352;55,38012
 915,37;13178,896;  200,940;23601,813;55,45928
 915,93;13125,973;  245,940;23394,660;55,64037
 916,48;13085,204;  204,094;23331,275;55,69684
 917,04;13067,204;  227,325;23243,583;55,78613
 917,59;13083,358;  242,248;23199,275;55,93542
 918,15;12917,742;  186,402;22993,352;55,82220
 918,70;12994,742;  202,940;22793,198;56,62530
 919,26;12934,204;  209,787;22780,121;56,37673
 919,81;12820,204;  203,248;22632,583;56,25203
 920,37;12793,819;  201,940;22625,583;56,15448
 920,92;12822,896;  221,633;22410,660;56,79052
 921,48;12741,358;  192,017;22187,121;57,05515
 922,03;12791,588;  211,402;22143,967;57,35848
 922,59;12701,588;  206,094;22018,583;57,28596
 923,14;12661,281;  202,556;21817,813;57,63857
 923,69;12648,127;  222,248;21830,967;57,50400
 924,25;12649,742;  218,017;21819,660;57,54991
 924,80;12568,588;  220,094;21615,275;57,71624
 925,36;12548,665;  208,094;21564,198;57,78475
 925,91;12437,896;  207,248;21413,583;57,67450
 926,47;12459,127;  194,633;21391,813;57,85908
 927,02;12427,358;  244,325;21247,429;58,00587
 927,57;12344,588;  203,479;21142,121;57,98423
 928,13;12389,050;  196,710;21022,044;58,54571
 928,68;12355,742;  199,710;20910,198;58,69506
 929,24;12324,204;  180,171;20668,967;59,27158
 929,79;12259,281;  192,094;20609,813;59,10154
 930,34;12189,665;  203,940;20470,044;59,14173
 930,90;12144,973;  195,710;20437,890;59,03150
 931,45;12195,050;  210,248;20363,121;59,46945
 932,01;12152,512;  220,940;20308,275;59,39848
 932,56;12128,973;  223,094;20166,044;59,69969
 933,11;12103,973;  222,248;20138,506;59,65842
 933,67;12064,435;  207,940;19942,352;60,08030
 934,22;12049,973;  206,940;19883,121;60,18969
 934,77;12013,358;  238,248;19814,660;60,14948
 935,33;11903,973;  229,248;19655,890;60,09646
 935,88;11947,050;  219,094;19545,737;60,68284
 936,43;11914,973;  201,863;19378,275;61,08082
 936,99;11853,204;  213,633;19397,275;60,67446
 937,54;11734,588;  190,248;19157,660;60,86408
 938,09;11789,742;  218,863;19201,429;60,95530
 938,65;11668,127;  204,479;19017,121;60,93587
 939,20;11621,050;  198,787;19036,890;60,63383
 939,75;11623,973;  197,710;18855,583;61,24098
 940,31;11564,588;  190,633;18727,890;61,35727
 940,86;11609,665;  206,556;18781,352;61,39023
 941,41;11581,204;  260,171;18636,506;61,60659
 941,96;11569,204;  202,094;18465,583;62,23953
 942,52;11455,819;  205,094;18439,506;61,70051
 943,07;11361,127;  183,325;18308,429;61,67028
 943,62;11402,896;  204,248;18210,967;62,19150
 944,18;11385,050;  193,402;18141,121;62,35694
 944,73;11333,742;  211,171;18004,121;62,51111
 945,28;11198,204;  171,940;17833,506;62,43084
 945,83;11284,588;  210,171;17933,275;62,48577
 946,39;11266,588;  203,479;17847,198;62,70282
 946,94;11244,665;  221,325;17754,890;62,86993
 947,49;11156,204;  199,402;17674,890;62,69812
 948,04;11202,819;  225,325;17612,275;63,13640
 948,59;11145,973;  225,863;17549,275;63,03672
 949,15;11136,665;  193,710;17439,044;63,45459
 949,70;11086,358;  194,940;17307,737;63,64487
 950,25;11002,819;  221,710;17227,583;63,39639
 950,80;10990,512;  177,094;17162,583;63,66268
 951,36;10936,512;  168,633;17053,813;63,77118
 951,91;10941,665;  216,017;17033,660;63,77617
 952,46;10801,588;  186,710;16851,198;63,69760
 953,01;10892,204;  220,017;16874,429;64,08024
 953,56;10822,358;  190,710;16723,813;64,30522
 954,11;10806,512;  210,017;16666,429;64,39128
 954,67;10778,973;  190,325;16595,660;64,54393
 955,22;10699,050;  176,940;16448,506;64,66563
 955,77;10721,588;  226,710;16405,967;64,86626
 956,32;10747,742;  240,863;16313,429;65,37151
 956,87;10590,358;  192,248;16185,506;65,01558
 957,42;10542,281;  200,710;16126,352;64,93660
 957,98;10517,435;  191,171;16080,890;64,98707
 958,53;10540,896;  219,171;15989,044;65,45218
 959,08;10426,973;  188,710;15911,044;65,11923
 959,63;10400,127;  189,940;15775,121;65,51215
 960,18;10415,512;  210,402;15762,737;65,61786
 960,73;10419,204;  216,325;15724,198;65,79161
 961,28;10359,588;  184,710;15541,352;66,25718
 961,83;10341,588;  214,633;15585,737;65,88307
 962,39;10253,050;  191,171;15382,429;66,23467
 962,94;10303,127;  219,017;15371,967;66,54882
 963,49;10192,358;  210,402;15196,352;66,60876
 964,04;10166,742;  219,940;15130,352;66,71045
 964,59;10150,050;  176,633;15055,660;67,03004
 965,14;10126,973;  215,479;15025,198;66,92561
 965,69;10099,204;  204,787;14934,583;67,17281
 966,24;10041,127;  200,633;14815,352;67,33276
 966,79; 9975,896;  218,863;14717,506;67,29618
 967,34; 9912,281;  185,094;14596,506;67,49642
 967,89; 9930,358;  202,787;14507,044;68,00473
 968,44; 9833,588;  198,017;14452,967;67,59456
 968,99; 9896,588;  213,863;14338,198;68,55349
 969,55; 9843,819;  202,094;14296,506;68,40814
 970,10; 9839,742;  205,940;14232,660;68,68179
 970,65; 9821,512;  220,094;14076,890;69,29031
 971,20; 9688,588;  196,402;14068,506;68,42644
 971,75; 9578,127;  188,094;13866,813;68,64702
 972,30; 9594,204;  201,787;13871,352;68,71043
 972,85; 9524,896;  190,325;13710,044;69,04412
 973,40; 9459,050;  195,940;13601,583;69,09859
 973,95; 9434,127;  212,633;13533,275;69,22710
 974,50; 9422,973;  232,787;13453,737;69,51230
 975,05; 9323,588;  204,248;13365,967;69,28685
 975,60; 9287,742;  219,094;13343,660;69,09675
 976,15; 9334,204;  199,325;13193,429;70,30018
 976,70; 9311,742;  219,094;13112,890;70,51956
 977,25; 9294,512;  205,633;13075,890;70,61925
 977,80; 9177,896;  194,633;12895,121;70,73164
 978,35; 9096,512;  215,171;12774,583;70,71462
 978,89; 9067,588;  183,325;12760,737;70,63666
 979,44; 9124,512;  209,017;12666,967;71,56470
 979,99; 8953,742;  185,325;12527,506;71,04431
 980,54; 8938,819;  232,325;12426,352;71,39966
 981,09; 8913,896;  216,248;12317,967;71,87118
 981,64; 8821,358;  213,094;12252,506;71,50070
 982,19; 8849,896;  238,633;12166,275;72,19586
 982,74; 8733,896;  226,787;12040,660;72,00949
 983,29; 8635,127;  202,556;11867,198;72,29173
 983,84; 8623,050;  215,633;11817,506;72,46603
 984,39; 8600,127;  255,171;11742,737;72,64338
 984,94; 8512,358;  189,402;11602,583;72,92407
 985,49; 8463,435;  232,402;11616,737;72,30139
 986,03; 8423,973;  235,863;11483,737;72,79696
 986,58; 8352,435;  250,248;11272,583;73,50699
 987,13; 8317,665;  217,940;11179,121;73,89464
 987,68; 8194,127;  224,863;11124,813;73,11284
 988,23; 8189,896;  223,402;11041,660;73,63935
 988,78; 8094,050;  194,940;10871,044;73,98869
 989,33; 8029,281;  222,633;10793,429;73,85109
 989,88; 8046,512;  228,940;10750,583;74,29991
 990,42; 7959,281;  211,556;10600,583;74,57604
 990,97; 7853,127;  207,171;10519,275;74,14545
 991,52; 7836,973;  233,710;10440,429;74,49273
 992,07; 7775,742;  236,710;10326,121;74,72222
 992,62; 7682,512;  223,710;10224,352;74,58323
 993,17; 7629,435;  221,017;10097,890;75,00772
 993,71; 7547,665;  223,094;10045,275;74,57174
 994,26; 7517,281;  204,863; 9927,275;75,21197
 994,81; 7486,973;  242,633; 9874,198;75,21457
 995,36; 7347,665;  206,940; 9703,429;75,19332
 995,91; 7345,973;  215,863; 9595,506;76,01686
 996,45; 7278,435;  221,402; 9499,890;76,05800
 997,00; 7182,665;  195,710; 9390,429;75,98879
 997,55; 7168,127;  220,863; 9359,506;76,02074
 998,10; 7026,050;  236,787; 9199,429;75,75069
 998,65; 7039,512;  214,325; 9193,044;76,01515
 999,19; 6959,512;  231,787; 9026,660;76,49599
 999,74; 6857,588;  241,094; 8959,506;75,89105
1000,29; 6799,050;  235,863; 8835,813;76,31657
1000,84; 6725,512;  209,094; 8706,352;76,68847
1001,38; 6669,512;  212,017; 8637,967;76,63817
1001,93; 6658,204;  237,633; 8545,044;77,28726
1002,48; 6499,127;  200,402; 8430,583;76,53204
1003,03; 6518,512;  218,017; 8380,583;77,18767
1003,57; 6406,973;  223,940; 8267,813;76,86636
1004,12; 6350,665;  240,325; 8173,352;77,02407
1004,67; 6316,050;  216,787; 8122,429;77,15076
1005,22; 6242,204;  214,171; 7957,890;77,84415
1005,76; 6151,358;  204,017; 7781,429;78,48776
1006,31; 6145,588;  233,094; 7764,890;78,50045
1006,86; 6010,204;  211,094; 7661,967;77,83128
1007,40; 5972,050;  198,863; 7516,121;78,89823
1007,95; 5913,050;  215,556; 7444,506;78,81496
1008,50; 5810,588;  217,940; 7290,737;79,07266
1009,04; 5745,204;  215,325; 7252,044;78,58604
1009,59; 5653,896;  221,094; 7065,506;79,37573
1010,14; 5585,050;  215,171; 6978,121;79,40143
1010,68; 5485,358;  210,402; 6885,352;79,02615
1011,23; 5405,742;  215,633; 6783,583;79,02176
1011,78; 5387,435;  230,556; 6716,813;79,50469
1012,32; 5339,588;  227,633; 6596,275;80,26759
1012,87; 5278,358;  239,248; 6569,044;79,60935
1013,42; 5196,127;  200,863; 6439,352;80,07170
1013,96; 5232,588;  236,479; 6478,429;80,04085
1014,51; 5137,665;  183,248; 6356,044;80,26212
1015,06; 5163,358;  194,248; 6373,660;80,41396
1015,60; 5268,665;  248,863; 6441,660;81,05873
1016,15; 5256,050;  200,479; 6417,044;81,32419
1016,69; 5317,127;  215,171; 6450,737;81,82026
1017,24; 5378,358;  191,248; 6452,506;82,84453
1017,79; 5458,742;  244,710; 6527,890;82,98397
1018,33; 5426,204;  206,556; 6545,967;82,33648
1018,88; 5567,742;  222,710; 6613,737;83,63339
1019,42; 5619,665;  217,402; 6592,813;84,73592
1019,97; 5589,204;  207,787; 6645,583;83,59099
1020,51; 5650,281;  221,248; 6675,352;84,11753
1021,06; 5657,512;  195,787; 6637,275;84,78980
1021,61; 5652,127;  180,556; 6637,429;84,74026
1022,15; 5619,127;  178,863; 6638,121;84,22428
1022,70; 5678,358;  216,094; 6619,583;85,30137
1023,24; 5633,588;  191,710; 6585,583;85,11084
1023,79; 5590,588;  213,017; 6536,813;85,03707
1024,33; 5571,973;  211,325; 6439,660;86,06872
1024,88; 5508,973;  218,325; 6365,737;86,06302
1025,42; 5423,512;  213,940; 6206,352;86,93614
1025,97; 5365,973;  197,248; 6175,967;86,45204
1026,51; 5247,204;  171,940; 6032,967;86,59342
1027,06; 5222,819;  199,633; 6030,737;86,14469
1027,60; 5133,665;  203,248; 5913,660;86,34084
1028,15; 5061,973;  220,094; 5816,813;86,51281
1028,69; 4956,588;  181,633; 5645,967;87,38403
1029,24; 4920,050;  202,325; 5606,352;87,30018
1029,78; 4805,050;  189,710; 5507,121;86,79675
1030,33; 4702,358;  174,402; 5402,121;86,61436
1030,87; 4687,127;  197,402; 5345,813;87,20602
1031,42; 4640,665;  183,248; 5266,275;87,69218
1031,96; 4551,050;  213,940; 5201,121;86,96516
1032,51; 4468,588;  191,094; 5094,967;87,22685
1033,05; 4415,742;  208,940; 5082,429;86,32014
1033,60; 4348,358;  174,094; 4932,121;87,73098
1034,14; 4288,588;  202,787; 4839,198;88,12423
1034,69; 4233,973;  199,633; 4803,506;87,62927
1035,23; 4167,050;  203,248; 4736,429;87,43975
1035,77; 4135,973;  198,248; 4712,044;87,23755
1036,32; 4060,896;  184,248; 4588,660;88,01739
1036,86; 4028,973;  201,325; 4551,044;87,99759
1037,41; 3957,742;  211,787; 4464,275;88,08856
1037,95; 3903,588;  181,402; 4387,813;88,48841
1038,50; 3828,127;  196,787; 4359,352;87,23804
1039,04; 3820,127;  211,479; 4286,506;88,55520
1039,58; 3745,281;  177,325; 4229,198;88,05695
1040,13; 3712,819;  201,940; 4152,429;88,87202
1040,67; 3716,435;  231,479; 4135,506;89,26567
1041,21; 3639,665;  230,248; 4055,275;89,13447
1041,76; 3560,204;  186,940; 3982,890;88,86480
1042,30; 3558,896;  199,171; 3926,121;90,14677
1042,85; 3461,281;  201,787; 3836,967;89,66526
1043,39; 3425,050;  190,863; 3820,352;89,10861
1043,93; 3368,281;  220,710; 3775,583;88,54243
1044,48; 3329,665;  206,556; 3680,660;89,89684
1045,02; 3293,742;  199,633; 3651,967;89,62369
1045,56; 3285,050;  225,171; 3618,813;90,16504
1046,11; 3216,050;  209,633; 3548,506;90,04287
1046,65; 3165,050;  216,787; 3522,890;89,17637
1047,19; 3137,512;  192,325; 3449,660;90,41707
1047,74; 3046,819;  179,556; 3397,121;89,11283
1048,28; 3072,358;  207,171; 3367,429;90,66307
1048,82; 3038,435;  215,556; 3326,890;90,72887
1049,37; 2980,742;  213,171; 3282,660;90,16392
1049,91; 2934,588;  214,171; 3209,737;90,81482
1050,45; 2912,742;  218,633; 3190,583;90,65124
1050,99; 2854,127;  208,863; 3146,506;90,04716
1051,54; 2800,973;  201,402; 3081,198;90,26928
1052,08; 2820,435;  221,710; 3041,813;92,14998
1052,62; 2768,204;  219,633; 2988,967;92,02829
1053,16; 2716,281;  197,171; 2941,737;91,78537
1053,71; 2711,896;  208,787; 2931,660;91,92899
1054,25; 2642,819;  212,402; 2884,737;90,94734
1054,79; 2626,435;  206,402; 2830,737;92,21510
1055,33; 2557,512;  182,940; 2764,506;91,98183
1055,88; 2541,281;  217,325; 2750,198;91,75177
1056,42; 2541,665;  223,171; 2709,813;93,23795
1056,96; 2489,204;  216,094; 2692,352;91,79617
1057,50; 2467,896;  221,787; 2617,198;93,76717
1058,05; 2401,358;  209,633; 2604,890;91,50268
1058,59; 2404,435;  225,710; 2565,506;93,11602
1059,13; 2342,665;  195,094; 2498,352;93,24059
1059,67; 2334,819;  218,787; 2483,044;93,45370
1060,21; 2253,358;  206,633; 2443,429;91,50253
1060,76; 2270,665;  227,017; 2397,506;94,15614
1061,30; 2270,435;  234,787; 2387,198;94,57523
1061,84; 2209,819;  216,325; 2339,198;93,90548
1062,38; 2126,973;  198,248; 2289,044;92,24835
1062,92; 2178,973;  247,171; 2322,275;93,09423
1063,46; 2113,819;  228,556; 2237,583;93,83963
1064,01; 2089,896;  213,325; 2211,044;93,93568
1064,55; 2077,973;  219,633; 2195,352;94,05893
1065,09; 2005,050;  183,863; 2112,813;94,41336
1065,63; 2031,204;  238,248; 2152,737;93,65195
1066,17; 2027,127;  239,479; 2103,737;95,89061
1066,71; 1986,973;  233,171; 2065,275;95,72612
1067,25; 1934,588;  211,479; 2028,352;94,83929
1067,80; 1961,127;  229,633; 2043,275;95,47055
1068,34; 1942,204;  245,940; 2019,813;95,62485
1068,88; 1880,204;  216,325; 1951,044;95,91632
1069,42; 1901,742;  244,863; 1978,660;95,56365
1069,96; 1853,896;  210,863; 1900,583;97,23702
1070,50; 1851,435;  247,556; 1924,506;95,64262
1071,04; 1780,512;  206,479; 1880,967;94,00081
1071,58; 1785,358;  222,017; 1857,044;95,61557
1072,12; 1755,281;  209,017; 1830,967;95,33361
1072,66; 1750,050;  208,479; 1832,967;94,89579
1073,21; 1758,588;  233,325; 1825,813;95,77862
1073,75; 1694,665;  226,863; 1769,737;95,13433
1074,29; 1693,435;  215,479; 1754,429;96,03663
1074,83; 1694,588;  240,940; 1737,813;97,11231
1075,37; 1691,588;  230,325; 1721,737;97,97855
1075,91; 1649,281;  227,787; 1700,583;96,51670
1076,45; 1623,204;  222,710; 1648,737;98,20952
1076,99; 1630,050;  240,940; 1644,121;98,99720
1077,53; 1558,588;  207,940; 1628,429;95,08335
1078,07; 1567,050;  220,556; 1626,506;95,77113
1078,61; 1540,281;  224,787; 1581,813;96,93943
1079,15; 1532,050;  214,710; 1570,044;97,19669
1079,69; 1518,050;  220,094; 1539,813;98,35090
1080,23; 1510,050;  236,094; 1549,275;97,01298
1080,77; 1519,512;  252,171; 1544,967;98,03095
1081,31; 1441,896;  215,325; 1492,737;96,02005
1081,85; 1460,512;  233,171; 1495,506;97,22782
1082,39; 1434,973;  213,325; 1457,275;98,20717
1082,93; 1436,973;  225,094; 1455,967;98,45685
1083,47; 1392,435;  210,940; 1399,813;99,37934
1084,01; 1409,281;  234,479; 1432,429;98,06769
1084,55; 1367,435;  219,171; 1379,044;98,99906
1085,09; 1374,973;  233,402; 1387,813;98,88771
1085,63; 1331,435;  218,248; 1364,121;97,14746
1086,17; 1333,742;  216,479; 1355,275;98,10917
1086,71; 1313,281;  216,787; 1319,506;99,43549
1087,24; 1314,973;  247,863; 1344,890;97,27287
1087,78; 1290,358;  231,325; 1316,121;97,62504
1088,32; 1263,742;  207,710; 1275,813;98,86985
1088,86; 1279,896;  242,402; 1294,352;98,62581
1089,40; 1249,973;  232,710; 1262,890;98,74611
1089,94; 1196,973;  196,556; 1243,121;95,59052
1090,48; 1221,665;  229,325; 1235,352;98,63955
1091,02; 1215,050;  232,710; 1212,352;100,27541
1091,56; 1197,512;  229,940; 1211,737;98,55112
1092,10; 1163,358;  213,248; 1173,121;98,98284
1092,63; 1193,819;  241,863; 1199,660;99,39023
1093,17; 1172,665;  234,710; 1157,813;101,60891
1093,71; 1141,742;  210,248; 1145,275;99,62218
1094,25; 1127,665;  242,171; 1160,583;96,41584
1094,79; 1102,358;  231,556; 1116,121;98,44404
1095,33; 1087,819;  219,094; 1106,275;97,91973
1095,87; 1089,588;  221,402; 1097,275;99,12241
1096,40; 1062,819;  211,402; 1064,890;99,75733
1096,94; 1059,050;  220,710; 1059,506;99,94566
1097,48; 1071,127;  232,171; 1075,813;99,44449
1098,02; 1037,588;  232,017; 1032,506;100,63495
1098,56;  999,127;  206,094; 1007,967;98,89753
1099,10; 1003,742;  206,633;  993,506;101,30091
1099,63;  998,819;  202,787;  988,967;101,25314
1100,17;  987,435;  222,863;  985,506;100,25292
1100,71; 1003,281;  232,940;  991,737;101,52139

