
Integration time [ms]: 140,000
Averaging Nr. [scans]: 13
Smoothing Nr. [pixels]: 0
Data measured with spectrometer [name]: 2009305U1
Wave   ;Sample   ;Dark     ;Reference;Reflectance
[nm]   ;[counts] ;[counts] ;[counts] ;[%]

 175,72;  211,646;  202,783;  223,076;43,67375
 176,32;  231,257;  235,325;  233,183; 0,00000
 176,92;  273,507;  268,169;  269,200;517,45774
 177,52;  266,076;  268,091;  262,076; 0,00000
 178,12;  238,128;  257,324;  243,700; 0,00000
 178,72;  257,152;  265,095;  258,217; 0,00000
 179,32;  266,856;  268,863;  252,136; 0,00000
 179,92;  261,121;  265,631;  267,970;-192,85236
 180,52;  259,100;  242,858;  269,559;60,82786
 181,12;  255,446;  264,246;  270,140;-149,29670
 181,73;  283,391;  278,015;  276,393; 0,00000
 182,33;  370,271;  376,706;  385,901;-69,97846
 182,93;  282,857;  282,630;  284,119;15,26326
 183,53;  255,068;  252,787;  239,042; 0,00000
 184,13;  259,180;  254,095;  245,230; 0,00000
 184,73;  292,637;  287,018;  290,658;154,39229
 185,33;  266,301;  245,652;  366,512;17,08523
 185,93;  267,337;  240,884;  362,674;21,72022
 186,53;  305,971;  262,499;  382,538;36,21550
 187,13;  317,733;  282,650;  413,897;26,73064
 187,73;  282,578;  248,500;  374,807;26,98062
 188,33;  277,956;  249,501;  377,832;22,17326
 188,93;  298,898;  266,120;  368,764;31,93401
 189,53;  292,024;  262,277;  393,555;22,65959
 190,13;  323,673;  296,435;  419,072;22,21045
 190,73;  274,882;  227,586;  359,537;35,84328
 191,34;  306,253;  271,352;  391,243;29,11038
 191,94;  285,111;  246,733;  373,358;30,30839
 192,54;  287,014;  264,572;  390,298;17,85012
 193,14;  292,469;  262,112;  410,063;20,51815
 193,74;  297,527;  267,728;  401,768;22,23173
 194,34;  300,512;  265,958;  394,183;26,94835
 194,94;  255,019;  225,420;  368,414;20,69983
 195,54;  236,079;  199,036;  342,674;25,78886
 196,14;  258,600;  234,957;  373,055;17,12044
 196,74;  254,882;  238,575;  362,324;13,17707
 197,34;  235,503;  200,263;  355,217;22,74178
 197,94;  261,908;  232,342;  391,563;18,56867
 198,54;  283,968;  239,265;  407,700;26,54051
 199,14;  255,722;  217,032;  395,974;21,62140
 199,74;  245,017;  208,186;  379,854;21,45515
 200,34;  238,780;  205,108;  400,093;17,26886
 200,94;  274,796;  241,418;  444,773;16,41396
 201,54;  257,582;  224,801;  446,157;14,80887
 202,14;  289,354;  252,185;  507,021;14,58571
 202,74;  272,146;  220,186;  489,414;19,29981
 203,34;  251,712;  206,876;  509,469;14,81722
 203,94;  230,987;  177,569;  523,345;15,44871
 204,54;  295,953;  251,804;  597,516;12,77054
 205,14;  264,013;  210,570;  593,619;13,95194
 205,74;  313,351;  248,030;  688,863;14,81769
 206,34;  271,735;  218,877;  712,170;10,71524
 206,94;  281,445;  224,493;  773,666;10,37060
 207,54;  264,864;  194,262;  814,576;11,38161
 208,14;  295,302;  212,338;  885,999;12,31538
 208,74;  299,988;  216,647;  970,102;11,06115
 209,34;  299,026;  210,032; 1064,247;10,41825
 209,94;  321,110;  223,416; 1142,978;10,62399
 210,54;  323,916;  216,877; 1246,089;10,40009
 211,14;  342,673;  209,955; 1381,448;11,32895
 211,73;  351,921;  219,109; 1508,743;10,29839
 212,33;  387,731;  231,956; 1610,123;11,30307
 212,93;  378,704;  216,109; 1698,572;10,96791
 213,53;  361,130;  181,647; 1761,367;11,36168
 214,13;  392,206;  222,952; 1870,209;10,27489
 214,73;  371,585;  185,954; 1909,790;10,76849
 215,33;  382,726;  179,186; 1934,593;11,59504
 215,93;  415,881;  211,184; 2074,162;10,98763
 216,53;  407,866;  162,801; 2134,072;12,43179
 217,13;  482,580;  225,953; 2347,307;12,09729
 217,73;  494,319;  204,338; 2559,692;12,31157
 218,33;  490,167;  161,336; 2756,969;12,66861
 218,93;  552,754;  202,873; 3086,277;12,13433
 219,53;  592,540;  209,336; 3414,311;11,95651
 220,13;  616,518;  170,028; 3703,166;12,63720
 220,73;  695,779;  187,878; 4085,892;13,02974
 221,32;  748,450;  195,109; 4505,948;12,83603
 221,92;  808,615;  192,721; 5000,632;12,81001
 222,52;  863,344;  178,184; 5377,901;13,17687
 223,12;  919,000;  189,030; 5845,465;12,90513
 223,72;  977,988;  197,260; 6327,192;12,73632
 224,32; 1054,754;  209,106; 6727,234;12,97378
 224,92; 1071,337;  182,568; 7030,294;12,97904
 225,52; 1135,972;  212,723; 7406,315;12,83432
 226,12; 1193,960;  189,953; 7683,610;13,39808
 226,72; 1211,255;  171,723; 8090,059;13,12816
 227,31; 1231,068;  166,338; 8448,196;12,85617
 227,91; 1344,707;  195,185; 8938,251;13,14782
 228,51; 1374,660;  182,417; 9244,174;13,15686
 229,11; 1433,922;  189,108; 9710,850;13,07339
 229,71; 1467,145;  184,032; 9960,751;13,12417
 230,31; 1546,315;  160,260;10437,610;13,48651
 230,91; 1548,988;  168,495;10697,503;13,11133
 231,51; 1589,055;  183,415;11064,521;12,91818
 232,10; 1659,507;  172,875;11342,525;13,30957
 232,70; 1660,128;  198,958;11545,952;12,87715
 233,30; 1713,378;  214,492;11780,828;12,95904
 233,90; 1709,653;  192,799;11954,734;12,89630
 234,50; 1750,885;  186,799;12056,551;13,17707
 235,10; 1749,722;  175,260;12065,525;13,24160
 235,70; 1804,934;  208,724;12036,862;13,49502
 236,29; 1745,842;  203,417;12020,602;13,05239
 236,89; 1723,462;  168,495;11895,824;13,25935
 237,49; 1732,405;  201,338;11816,486;13,18164
 238,09; 1663,735;  181,339;11438,324;13,16868
 238,69; 1670,588;  224,957;11167,550;13,21105
 239,29; 1602,486;  186,185;10841,999;13,29135
 239,89; 1561,495;  196,802;10545,226;13,18744
 240,48; 1479,164;  176,492;10114,692;13,10772
 241,08; 1442,644;  177,185; 9764,264;13,19962
 241,68; 1429,342;  213,415; 9396,209;13,24136
 242,28; 1353,738;  178,723; 8995,542;13,32697
 242,88; 1353,194;  219,721; 8679,166;13,39890
 243,48; 1341,263;  225,954; 8415,452;13,61878
 244,07; 1278,136;  209,339; 8129,234;13,49510
 244,67; 1294,278;  207,338; 7988,298;13,96923
 245,27; 1297,690;  208,109; 7823,974;14,30673
 245,87; 1285,484;  210,260; 7761,226;14,23956
 246,47; 1297,261;  196,109; 7668,914;14,73546
 247,06; 1289,009;  181,416; 7757,721;14,61917
 247,66; 1321,039;  185,646; 7774,213;14,96189
 248,26; 1402,801;  215,955; 7894,268;15,45711
 248,86; 1440,622;  207,725; 8133,290;15,55595
 249,46; 1482,298;  159,953; 8304,717;16,23552
 250,05; 1598,803;  204,262; 8681,392;16,45063
 250,65; 1646,134;  184,263; 9076,110;16,44058
 251,25; 1787,914;  178,031; 9575,474;17,13108
 251,85; 1928,831;  186,264;10085,469;17,60310
 252,44; 2054,571;  157,878;10815,700;17,79625
 253,04; 2270,164;  208,493;11581,892;18,12713
 253,64; 2408,562;  152,725;12308,123;18,55832
 254,24; 2660,584;  196,339;13277,281;18,83844
 254,84; 2856,144;  177,184;14242,179;19,04701
 255,43; 3097,794;  190,801;15248,200;19,30608
 256,03; 3354,680;  196,956;16293,995;19,61680
 256,63; 3654,430;  204,341;17391,115;20,07409
 257,23; 3865,345;  177,495;18380,307;20,25979
 257,82; 4143,769;  194,496;19349,209;20,61776
 258,42; 4351,248;  155,496;20233,042;20,89773
 259,02; 4648,390;  210,262;21264,273;21,07973
 259,62; 4815,760;  187,189;22043,709;21,17707
 260,21; 4999,126;  199,878;22644,055;21,38304
 260,81; 5176,753;  193,646;23073,388;21,77956
 261,41; 5310,861;  172,265;23729,055;21,81365
 262,01; 5498,555;  209,497;24161,474;22,08193
 262,60; 5566,730;  163,649;24635,307;22,07893
 263,20; 5688,609;  179,802;24886,046;22,29723
 263,80; 5769,859;  212,651;25112,931;22,31785
 264,40; 5817,111;  168,189;25329,644;22,45070
 264,99; 5947,048;  198,574;25487,905;22,73083
 265,59; 5945,036;  180,191;25693,956;22,59504
 266,19; 6009,001;  181,035;25895,888;22,66381
 266,78; 6079,826;  221,190;26007,807;22,71968
 267,38; 6050,062;  200,268;26049,674;22,63029
 267,98; 6040,726;  181,575;26073,568;22,62920
 268,58; 6071,030;  196,037;26109,273;22,67178
 269,17; 6037,368;  195,653;26127,166;22,52747
 269,77; 6025,954;  204,957;25881,747;22,67027
 270,37; 5963,967;  165,420;25820,286;22,60213
 270,96; 5962,445;  232,111;25659,008;22,53651
 271,56; 5839,321;  184,033;25321,482;22,49746
 272,16; 5805,913;  181,496;25124,230;22,54932
 272,75; 5750,290;  191,265;25101,268;22,31644
 273,35; 5738,272;  189,726;25037,080;22,33053
 273,95; 5657,817;  188,419;25027,841;22,01902
 274,54; 5639,491;  169,185;25041,157;21,99386
 275,14; 5733,616;  216,496;25396,256;21,91093
 275,74; 5676,270;  168,419;25453,756;21,78278
 276,33; 5810,675;  213,649;25923,068;21,77033
 276,93; 5825,132;  196,031;26222,952;21,62800
 277,53; 5933,907;  186,032;26759,098;21,63045
 278,12; 6027,545;  174,418;27305,491;21,57352
 278,72; 6290,003;  227,801;27881,948;21,92149
 279,32; 6320,869;  182,955;28489,106;21,68403
 279,91; 6461,920;  165,494;29258,003;21,64277
 280,51; 6655,867;  191,724;29692,657;21,91165
 281,11; 6800,041;  186,494;30550,063;21,78119
 281,70; 6883,089;  171,417;30892,465;21,84714
 282,30; 7050,090;  182,572;31552,097;21,89232
 282,90; 7196,349;  186,264;31954,418;22,06639
 283,49; 7355,106;  202,572;32544,115;22,11562
 284,09; 7501,926;  210,417;33120,456;22,15588
 284,69; 7666,140;  213,340;33350,085;22,49104
 285,28; 7770,784;  206,341;33762,422;22,54269
 285,88; 7991,710;  248,188;33983,397;22,95383
 286,47; 7992,745;  187,187;34005,615;23,08078
 287,07; 8168,727;  220,263;34062,995;23,48647
 287,67; 8298,494;  209,415;34281,991;23,74073
 288,26; 8383,399;  182,878;34188,713;24,11504
 288,86; 8538,821;  179,956;34213,674;24,56054
 289,46; 8735,511;  205,340;34318,149;25,00577
 290,05; 8946,465;  177,493;34392,670;25,62890
 290,65; 9172,716;  194,803;34598,709;26,09562
 291,24; 9366,185;  195,186;34663,653;26,60693
 291,84; 9620,507;  216,495;34767,653;27,21765
 292,44; 9804,908;  194,569;34984,204;27,62414
 293,03;10105,246;  266,417;35057,914;28,27941
 293,63;10236,009;  184,495;35259,170;28,65747
 294,22;10437,211;  214,417;35324,264;29,11660
 294,82;10573,687;  191,727;35373,820;29,50921
 295,41;10543,781;  176,802;35114,234;29,67299
 296,01;10695,527;  229,265;34972,568;30,12455
 296,61;10660,565;  217,571;34673,495;30,30827
 297,20;10568,200;  195,496;34283,409;30,42927
 297,80;10528,705;  199,031;34159,264;30,41697
 298,39;10450,523;  177,418;33729,931;30,61799
 298,99;10409,554;  207,880;33549,640;30,59729
 299,58;10382,983;  210,415;33295,880;30,74633
 300,18;10255,150;  225,416;33137,170;30,47462
 300,78;10134,211;  187,186;32737,294;30,55912
 301,37;10044,521;  209,497;32747,285;30,22647
 301,97;10088,710;  208,417;32702,747;30,40620
 302,56; 9987,490;  199,418;32668,944;30,14541
 303,16; 9852,370;  171,341;32483,179;29,96125
 303,75; 9828,322;  187,570;32527,127;29,81102
 304,35; 9848,919;  181,030;32758,768;29,67637
 304,94; 9801,208;  206,340;32808,922;29,42978
 305,54; 9738,296;  218,801;32760,717;29,25302
 306,13; 9624,604;  161,799;32549,192;29,21756
 306,73; 9527,552;  166,876;32358,217;29,07824
 307,33; 9463,716;  206,261;32238,521;28,90041
 307,92; 9417,201;  215,878;32305,469;28,67386
 308,52; 9475,378;  173,495;32763,140;28,54245
 309,11; 9526,377;  188,650;33278,833;28,21902
 309,71; 9559,879;  180,728;33595,521;28,06886
 310,30; 9603,747;  184,648;33756,969;28,05615
 310,90; 9662,209;  221,263;34201,739;27,78344
 311,49; 9575,799;  201,955;34294,529;27,49527
 312,09; 9531,259;  170,800;34375,033;27,36637
 312,68; 9667,976;  253,955;34837,982;27,22072
 313,28; 9540,509;  162,878;34973,469;26,93902
 313,87; 9491,387;  162,955;35103,286;26,69818
 314,47; 9506,986;  191,188;35314,764;26,52292
 315,06; 9463,744;  176,032;35427,858;26,34675
 315,66; 9452,490;  170,954;35644,803;26,16444
 316,25; 9356,857;  159,034;35543,003;25,99432
 316,85; 9322,494;  148,493;35519,422;25,93656
 317,44; 9278,155;  183,266;35761,610;25,56299
 318,04; 9144,150;  174,495;35684,512;25,25951
 318,63; 9115,029;  161,030;35697,110;25,19692
 319,22; 9096,558;  183,341;35919,858;24,94148
 319,82; 9026,918;  182,341;35890,217;24,76926
 320,41; 8997,396;  206,187;35837,512;24,67270
 321,01; 8909,246;  201,878;35853,636;24,42339
 321,60; 8864,570;  196,879;35932,315;24,25517
 322,20; 8741,623;  181,417;35834,568;24,00968
 322,79; 8721,068;  206,186;35983,059;23,79996
 323,39; 8670,582;  177,876;36015,401;23,69780
 323,98; 8595,988;  168,109;35860,333;23,61265
 324,58; 8535,933;  175,495;35863,803;23,42626
 325,17; 8460,371;  188,111;35597,918;23,36150
 325,76; 8405,520;  208,186;35442,927;23,26492
 326,36; 8249,813;  178,416;35062,418;23,13782
 326,95; 8174,024;  207,494;34654,585;23,12686
 327,55; 8024,589;  165,341;34435,627;22,93313
 328,14; 7853,532;  176,954;33976,875;22,71182
 328,74; 7761,194;  209,649;33581,833;22,62826
 329,33; 7664,946;  194,262;33143,444;22,67335
 329,92; 7505,644;  177,496;32534,162;22,64803
 330,52; 7376,079;  187,954;31833,499;22,71449
 331,11; 7214,663;  181,879;31384,670;22,53896
 331,71; 7086,535;  180,033;30840,773;22,52556
 332,30; 6980,054;  201,263;30513,538;22,36319
 332,89; 6890,767;  251,339;29853,004;22,42924
 333,49; 6725,732;  193,725;29360,170;22,39562
 334,08; 6637,958;  191,879;28852,042;22,49142
 334,68; 6501,622;  183,879;28470,875;22,33444
 335,27; 6446,777;  207,646;28061,551;22,39948
 335,86; 6457,432;  242,264;27758,670;22,58714
 336,46; 6330,198;  198,954;27412,880;22,52981
 337,05; 6305,784;  184,956;27302,884;22,57115
 337,65; 6224,407;  173,264;27034,230;22,52765
 338,24; 6341,170;  222,955;27085,038;22,77640
 338,83; 6295,883;  204,801;26985,781;22,74406
 339,43; 6303,817;  176,264;27007,948;22,83700
 340,02; 6326,018;  172,418;26819,350;23,09309
 340,61; 6372,651;  199,263;26869,734;23,14690
 341,21; 6426,501;  221,726;26907,986;23,25082
 341,80; 6441,387;  192,418;26842,333;23,44836
 342,40; 6475,561;  190,108;26908,012;23,52525
 342,99; 6527,382;  183,262;27124,927;23,54762
 343,58; 6637,869;  174,416;27215,521;23,90233
 344,18; 6719,696;  202,031;27425,670;23,94119
 344,77; 6835,662;  168,342;27631,055;24,27772
 345,36; 6958,408;  170,187;27880,046;24,49750
 345,96; 7115,824;  209,878;28225,999;24,64990
 346,55; 7216,465;  160,414;28529,653;24,87219
 347,14; 7359,995;  170,415;28847,768;25,07058
 347,74; 7494,792;  151,567;29286,025;25,20461
 348,33; 7781,528;  183,259;29809,653;25,64696
 348,92; 8005,254;  191,412;30461,670;25,81359
 349,52; 8159,571;  163,028;30981,773;25,94701
 350,11; 8321,527;  178,495;31156,136;26,28680
 350,70; 8423,679;  172,955;31370,055;26,44709
 351,29; 8462,178;  167,652;30998,482;26,90335
 351,89; 8566,976;  189,035;31043,016;27,15352
 352,48; 8642,400;  165,263;31080,991;27,42014
 353,07; 8700,874;  199,877;31018,525;27,58394
 353,67; 8783,174;  208,720;30924,636;27,91534
 354,26; 8850,626;  182,492;30742,969;28,36387
 354,85; 8840,850;  191,185;30553,794;28,48789
 355,45; 8928,451;  167,879;30387,704;28,98948
 356,04; 8999,624;  176,107;30300,521;29,29025
 356,63; 9015,368;  215,340;30143,683;29,40366
 357,22; 9083,072;  184,651;30004,914;29,84018
 357,82; 9107,204;  184,881;29789,615;30,13816
 358,41; 9175,621;  207,109;29677,551;30,43223
 359,00; 9232,218;  180,264;29523,687;30,84832
 359,60; 9338,231;  188,647;29385,452;31,33762
 360,19; 9378,516;  205,415;29244,627;31,58867
 360,78; 9414,605;  184,264;29115,982;31,90388
 361,37; 9439,594;  188,187;28952,632;32,16265
 361,97; 9511,733;  189,109;28871,525;32,50292
 362,56; 9525,138;  180,034;28572,824;32,91365
 363,15; 9586,613;  252,264;28254,174;33,33469
 363,74; 9529,067;  192,265;27927,153;33,66447
 364,34; 9486,521;  213,341;27511,914;33,96947
 364,93; 9471,125;  173,573;27122,042;34,50123
 365,52; 9401,971;  144,571;26657,209;34,91693
 366,11; 9387,003;  182,803;26510,580;34,96003
 366,71; 9330,942;  182,726;26033,397;35,38870
 367,30; 9340,530;  202,264;25600,875;35,97939
 367,89; 9307,077;  220,031;25410,251;36,07371
 368,48; 9284,582;  196,957;25136,221;36,43902
 369,07; 9244,372;  201,417;24677,978;36,94536
 369,67; 9194,951;  219,342;24411,221;37,10174
 370,26; 9202,886;  180,417;24057,200;37,78763
 370,85; 9178,954;  189,341;23916,469;37,88749
 371,44; 9226,020;  192,802;23630,935;38,54069
 372,03; 9139,537;  167,726;23441,884;38,54838
 372,63; 9123,951;  160,494;23097,204;39,07909
 373,22; 9097,731;  185,186;22806,076;39,39962
 373,81; 8993,553;  157,648;22493,499;39,55930
 374,40; 9015,317;  178,416;22326,768;39,89869
 374,99; 8981,378;  178,110;21951,247;40,43178
 375,59; 8978,106;  171,877;21685,465;40,93334
 376,18; 8990,601;  212,187;21588,978;41,06516
 376,77; 9001,139;  201,109;21345,961;41,61783
 377,36; 9010,752;  220,648;21386,559;41,52953
 377,95; 8974,072;  206,495;21008,080;42,14860
 378,55; 8955,092;  175,185;20865,482;42,43490
 379,14; 9007,505;  198,341;20764,435;42,83343
 379,73; 9026,202;  188,341;20679,533;43,13005
 380,32; 9154,134;  199,648;20785,187;43,49892
 380,91; 9075,222;  168,265;20505,662;43,79595
 381,50; 9121,819;  197,726;20493,781;43,96959
 382,10; 9121,365;  188,033;20415,495;44,16438
 382,69; 9203,610;  166,187;20415,140;44,63156
 383,28; 9274,727;  212,957;20278,243;45,16143
 383,87; 9228,771;  180,803;20158,687;45,28992
 384,46; 9225,505;  164,035;20098,191;45,45700
 385,05; 9278,803;  202,188;20130,657;45,54597
 385,64; 9364,234;  191,111;20107,273;46,05869
 386,24; 9365,990;  157,881;20034,508;46,32632
 386,83; 9502,373;  202,035;20097,307;46,74647
 387,42; 9590,748;  198,034;20214,495;46,92495
 388,01; 9672,905;  204,421;20376,102;46,93949
 388,60; 9896,890;  191,573;20645,700;47,44919
 389,19;10006,605;  173,731;20876,619;47,49518
 389,78;10174,575;  179,730;21079,542;47,82265
 390,37;10492,658;  245,651;21567,854;48,05792
 390,96;10572,645;  187,497;21720,102;48,22988
 391,56;10705,392;  195,116;21867,529;48,49610
 392,15;10810,722;  177,961;22123,550;48,45056
 392,74;10922,339;  165,656;22259,956;48,68533
 393,33;11133,050;  183,347;22620,311;48,80207
 393,92;11373,896;  189,427;22947,576;49,14490
 394,51;11551,475;  169,347;23210,674;49,39875
 395,10;11690,146;  202,353;23428,230;49,46118
 395,69;11831,048;  187,122;23572,315;49,79187
 396,28;11884,941;  193,046;23641,657;49,86178
 396,87;11973,845;  200,741;23763,072;49,96579
 397,46;12108,628;  198,128;23866,734;50,32193
 398,06;12245,125;  212,746;24134,695;50,29849
 398,65;12337,718;  191,828;24181,618;50,62941
 399,24;12403,725;  208,906;24321,503;50,57447
 399,83;12417,501;  171,684;24319,059;50,71283
 400,42;12526,323;  215,999;24455,828;50,78552
 401,01;12606,911;  189,315;24579,165;50,91297
 401,60;12735,038;  200,942;24618,383;51,33256
 402,19;12738,267;  214,489;24606,438;51,34390
 402,78;12710,501;  214,888;24515,643;51,42068
 403,37;12671,165;  204,440;24392,169;51,54153
 403,96;12650,163;  205,994;24258,463;51,73760
 404,55;12671,780;  213,319;24201,147;51,93659
 405,14;12569,348;  189,797;24097,719;51,78012
 405,73;12559,060;  211,200;24017,330;51,86840
 406,32;12587,363;  210,366;23847,172;52,36324
 406,91;12418,523;  205,150;23610,749;52,18141
 407,50;12361,696;  210,619;23473,501;52,23376
 408,09;12216,279;  179,317;23120,120;52,46966
 408,68;12245,526;  198,628;23067,402;52,67837
 409,27;12108,645;  183,854;22837,885;52,63872
 409,86;12097,480;  192,997;22744,676;52,78757
 410,45;12087,079;  221,449;22600,509;53,02113
 411,04;12022,266;  227,516;22570,531;52,78943
 411,63;11863,773;  214,426;22318,946;52,70120
 412,22;11815,905;  220,876;22082,741;53,03769
 412,81;11673,020;  216,872;21846,497;52,96508
 413,40;11487,279;  232,559;21486,489;52,95360
 413,99;11348,194;  276,330;21131,343;53,08970
 414,58;11101,110;  198,868;20717,382;53,13369
 415,17;11026,854;  202,718;20540,377;53,22213
 415,76;10961,793;  198,723;20346,860;53,41968
 416,35;10849,073;  185,874;20116,937;53,50040
 416,94;10854,475;  225,568;20175,971;53,27665
 417,53;10998,083;  207,257;20432,621;53,35294
 418,12;11039,923;  206,948;20476,583;53,44435
 418,71;11241,353;  218,021;20830,454;53,47904
 419,30;11266,018;  200,024;21000,647;53,20030
 419,89;11357,509;  184,639;21139,429;53,31893
 420,48;11547,588;  222,405;21442,613;53,36980
 421,07;11592,723;  216,251;21448,407;53,58133
 421,66;11641,444;  184,941;21541,095;53,64497
 422,25;11582,538;  205,167;21438,937;53,58149
 422,84;11664,308;  224,397;21543,476;53,66044
 423,43;11437,192;  212,168;21238,301;53,38606
 424,02;11390,711;  231,628;21043,172;53,61968
 424,60;11104,822;  201,392;20533,831;53,62579
 425,19;10901,175;  211,703;20236,510;53,38115
 425,78;10899,630;  217,626;20175,442;53,52291
 426,37;10840,823;  232,085;20050,925;53,52855
 426,96;10722,811;  206,624;19918,959;53,34826
 427,55;10637,019;  199,467;19767,762;53,33910
 428,14;10536,500;  195,158;19549,673;53,43116
 428,73;10432,704;  216,929;19338,557;53,42524
 429,32;10403,737;  218,470;19324,100;53,31029
 429,91;10398,239;  226,160;19366,831;53,14380
 430,50;10293,463;  228,466;19204,852;53,03959
 431,08;10230,654;  231,772;19005,087;53,26114
 431,67;10185,237;  263,463;18962,207;53,06118
 432,26;10090,212;  269,923;18770,057;53,08226
 432,85; 9884,145;  291,770;18411,160;52,93983
 433,44; 9711,379;  305,845;18063,668;52,96558
 434,03; 9507,751;  316,149;17727,545;52,79072
 434,62; 9207,622;  271,614;17264,989;52,58525
 435,21; 9214,381;  287,923;17079,211;53,16124
 435,79; 9047,587;  290,535;16870,613;52,81671
 436,38; 8994,768;  276,994;16773,698;52,84555
 436,97; 8934,600;  282,686;16719,515;52,63737
 437,56; 8805,465;  278,143;16522,498;52,49406
 438,15; 8704,730;  260,837;16400,241;52,31850
 438,74; 8726,150;  274,067;16463,122;52,20862
 439,33; 8727,442;  249,683;16410,092;52,46005
 439,91; 8756,780;  217,450;16527,489;52,35628
 440,50; 8837,457;  264,835;16518,258;52,74349
 441,09; 8829,219;  270,832;16642,156;52,27670
 441,68; 8817,512;  245,445;16657,322;52,23087
 442,27; 8820,628;  230,908;16633,609;52,36772
 442,86; 8824,426;  205,057;16680,985;52,31492
 443,44; 8787,262;  221,288;16739,976;51,85626
 444,03; 8852,742;  301,826;16785,378;51,87545
 444,62; 8753,110;  224,441;16606,793;52,06010
 445,21; 8672,981;  230,442;16478,895;51,95904
 445,80; 8621,847;  261,747;16379,635;51,86846
 446,39; 8503,853;  281,055;16095,117;51,99675
 446,97; 8344,441;  220,128;15973,656;51,57139
 447,56; 8216,301;  225,126;15675,759;51,72069
 448,15; 8088,821;  227,205;15514,190;51,42686
 448,74; 7973,831;  236,128;15319,861;51,29833
 449,33; 7904,926;  225,588;15159,938;51,42063
 449,91; 7746,650;  221,893;14881,259;51,33071
 450,50; 7642,157;  218,893;14701,182;51,25753
 451,09; 7574,369;  228,662;14577,224;51,19472
 451,68; 7491,525;  246,815;14526,502;50,73437
 452,26; 7469,273;  243,891;14416,541;50,98116
 452,85; 7365,811;  232,045;14236,357;50,93978
 453,44; 7397,641;  249,734;14298,998;50,87745
 454,03; 7323,354;  215,659;14234,959;50,69935
 454,61; 7296,278;  215,426;14233,712;50,51154
 455,20; 7411,905;  237,194;14401,613;50,65305
 455,79; 7390,690;  247,196;14396,801;50,48546
 456,38; 7415,503;  239,115;14480,917;50,38961
 456,97; 7451,082;  231,885;14521,528;50,52049
 457,55; 7442,767;  217,114;14533,011;50,47293
 458,14; 7449,934;  253,039;14534,934;50,39174
 458,73; 7382,635;  238,575;14474,263;50,18416
 459,31; 7387,299;  268,650;14548,340;49,85157
 459,90; 7433,997;  266,190;14576,024;50,09008
 460,49; 7463,985;  332,190;14714,566;49,58704
 461,08; 7464,577;  225,418;14821,831;49,59546
 461,66; 7480,368;  233,881;14804,485;49,73360
 462,25; 7534,000;  237,571;14858,391;49,90437
 462,84; 7567,445;  271,341;14942,699;49,73026
 463,43; 7467,268;  203,107;14914,396;49,37815
 464,01; 7467,112;  227,875;14922,900;49,26319
 464,60; 7480,243;  289,108;14916,310;49,16276
 465,19; 7304,521;  203,644;14633,323;49,21022
 465,77; 7276,576;  234,488;14644,208;48,87040
 466,36; 7282,208;  253,876;14500,596;49,33298
 466,95; 7064,970;  235,491;14160,297;49,04542
 467,53; 6909,183;  231,256;13904,259;48,84024
 468,12; 6802,258;  264,718;13623,195;48,93926
 468,71; 6662,652;  232,643;13386,361;48,88358
 469,29; 6500,669;  209,102;13108,374;48,77459
 469,88; 6394,767;  221,793;12873,810;48,79043
 470,47; 6429,617;  281,329;13000,088;48,34031
 471,06; 6408,719;  237,022;12947,067;48,55763
 471,64; 6447,699;  233,792;13032,571;48,55078
 472,23; 6408,293;  217,710;13049,729;48,24325
 472,81; 6416,974;  210,405;13158,182;47,93541
 473,40; 6472,654;  228,710;13282,644;47,83189
 473,99; 6644,917;  320,172;13507,891;47,95936
 474,57; 6678,244;  231,864;13569,434;48,33249
 475,16; 6710,195;  244,173;13707,849;48,02568
 475,75; 6789,314;  246,093;13878,533;47,99743
 476,33; 6822,068;  249,861;13953,439;47,95979
 476,92; 6782,085;  256,018;14004,336;47,46811
 477,51; 6815,975;  251,939;14140,131;47,26343
 478,09; 6839,501;  247,631;14150,857;47,41252
 478,68; 6765,448;  258,938;14016,819;47,29297
 479,27; 6786,553;  283,401;14136,618;46,94326
 479,85; 6772,824;  253,092;14043,426;47,27755
 480,44; 6770,630;  230,937;14183,015;46,87254
 481,02; 7327,796;  256,397;15469,503;46,48228
 481,61; 8293,805;  276,706;17579,866;46,33315
 482,20; 8854,339;  254,936;18794,122;46,38501
 482,78; 9283,989;  289,553;19617,836;46,53510
 483,37; 9451,801;  275,010;20203,289;46,04909
 483,95; 9629,253;  300,395;20526,956;46,12182
 484,54; 9677,629;  310,629;20749,998;45,82823
 485,13; 9621,651;  271,931;20638,075;45,90815
 485,71; 9495,166;  248,932;20437,114;45,80023
 486,30; 9417,154;  292,932;20118,225;46,02314
 486,88; 9224,072;  339,393;19756,357;45,75730
 487,47; 8879,066;  305,469;18999,951;45,86165
 488,05; 8418,043;  299,930;18136,204;45,51462
 488,64; 7829,522;  282,236;16822,511;45,62975
 489,23; 6957,280;  309,545;14968,763;45,34850
 489,81; 5940,384;  293,544;12807,451;45,12451
 490,40; 5648,013;  247,698;12153,204;45,35982
 490,98; 5461,074;  242,851;11883,187;44,82880
 491,57; 5413,253;  268,775;11811,644;44,56845
 492,15; 5374,683;  249,774;11741,426;44,59680
 492,74; 5345,902;  269,622;11602,755;44,79150
 493,32; 5264,231;  278,159;11485,375;44,48984
 493,91; 5235,999;  253,927;11425,618;44,59551
 494,50; 5169,878;  258,078;11390,601;44,12118
 495,08; 5138,882;  238,001;11299,943;44,30398
 495,67; 5136,978;  266,389;11347,058;43,95573
 496,25; 5056,012;  210,002;11181,105;44,17067
 496,84; 4983,997;  223,158;11147,524;43,58001
 497,42; 4988,707;  213,232;11127,631;43,75390
 498,01; 4967,522;  252,004;11103,571;43,45472
 498,59; 4918,883;  216,232;11009,652;43,56960
 499,18; 4898,446;  219,850;10958,695;43,56703
 499,76; 4839,247;  243,310;10887,110;43,17947
 500,35; 4744,142;  235,923;10681,110;43,16073
 500,93; 4707,682;  225,617;10649,729;42,99709
 501,52; 4679,801;  227,463;10557,033;43,10284
 502,10; 4676,873;  229,922;10562,332;43,03886
 502,69; 4590,037;  226,536;10390,879;42,92949
 503,27; 4456,826;  213,308;10160,811;42,65913
 503,86; 4444,723;  226,690;10117,319;42,64675
 504,44; 4329,514;  198,920; 9980,832;42,22685
 505,03; 4259,453;  189,612; 9763,187;42,51119
 505,61; 4166,556;  214,305; 9626,644;41,99010
 506,19; 4116,691;  228,305; 9506,148;41,91045
 506,78; 3972,785;  197,995; 9318,823;41,38648
 507,36; 3943,347;  202,305; 9169,435;41,71950
 507,95; 3844,543;  206,609; 8967,935;41,52264
 508,53; 3801,302;  200,457; 8839,080;41,68310
 509,12; 3729,545;  219,917; 8732,153;41,23039
 509,70; 3659,665;  233,301; 8577,503;41,06281
 510,29; 3604,279;  242,531; 8439,392;41,01262
 510,87; 3491,039;  205,533; 8183,986;41,17974
 511,46; 3426,078;  189,533; 8086,332;40,98553
 512,04; 3350,882;  205,686; 7932,627;40,70429
 512,62; 3288,374;  209,918; 7792,058;40,60141
 513,21; 3176,688;  196,454; 7627,370;40,10588
 513,79; 3165,201;  203,297; 7534,648;40,40052
 514,38; 3059,765;  191,990; 7356,845;40,02559
 514,96; 3027,825;  225,683; 7260,366;39,83324
 515,54; 2923,517;  189,990; 7101,935;39,54788
 516,13; 2911,122;  216,759; 7077,247;39,27364
 516,71; 2877,316;  199,219; 6900,285;39,96524
 517,30; 2777,849;  189,602; 6777,909;39,28546
 517,88; 2740,780;  217,833; 6696,640;38,94153
 518,46; 2683,293;  189,756; 6589,999;38,96005
 519,05; 2648,129;  202,139; 6529,725;38,65597
 519,63; 2625,717;  208,063; 6461,883;38,65884
 520,22; 2595,660;  236,291; 6396,901;38,29765
 520,80; 2535,507;  208,599; 6356,563;37,84843
 521,38; 2540,037;  249,677; 6324,495;37,70252
 521,97; 2498,727;  209,598; 6288,674;37,65587
 522,55; 2482,217;  221,444; 6249,687;37,50301
 523,13; 2448,727;  193,905; 6226,473;37,37748
 523,72; 2443,147;  201,756; 6181,499;37,48307
 524,30; 2488,833;  226,366; 6308,794;37,19679
 524,89; 2436,190;  189,905; 6273,875;36,92136
 525,47; 2490,423;  223,134; 6436,029;36,49327
 526,05; 2455,659;  185,826; 6496,311;35,96923
 526,64; 2531,140;  235,903; 6544,114;36,38491
 527,22; 2535,649;  223,904; 6686,717;35,76996
 527,80; 2591,483;  252,441; 6790,704;35,77467
 528,39; 2584,949;  215,440; 6899,738;35,44888
 528,97; 2617,129;  217,518; 7022,426;35,26295
 529,55; 2694,683;  229,520; 7231,490;35,20670
 530,14; 2733,118;  228,209; 7420,922;34,82565
 530,72; 2711,963;  213,672; 7478,076;34,39087
 531,30; 2730,350;  183,747; 7650,123;34,10762
 531,89; 2775,933;  206,363; 7726,644;34,16854
 532,47; 2804,669;  243,593; 7835,225;33,73551
 533,05; 2810,880;  239,903; 7874,131;33,67697
 533,63; 2799,108;  234,747; 7890,418;33,49623
 534,22; 2796,387;  205,131; 7928,713;33,54993
 534,80; 2822,355;  238,822; 8044,909;33,09639
 535,38; 2896,554;  320,516; 8141,619;32,93701
 535,97; 2802,459;  210,516; 8068,277;32,98577
 536,55; 2827,834;  273,514; 8157,157;32,40024
 537,13; 2832,155;  276,440; 8150,866;32,45589
 537,71; 2827,539;  310,132; 8166,896;32,04126
 538,30; 2837,601;  325,669; 8256,648;31,67240
 538,88; 2845,403;  354,052; 8327,755;31,24459
 539,46; 2932,691;  408,899; 8514,845;31,13507
 540,05; 2956,161;  403,975; 8620,114;31,06308
 540,63; 2995,121;  457,975; 8814,059;30,36286
 541,21; 3074,211;  482,589; 8956,486;30,58358
 541,79; 3074,948;  507,436; 9126,469;29,78886
 542,38; 3113,237;  539,360; 9204,913;29,70239
 542,96; 3142,893;  556,588; 9376,337;29,32403
 543,54; 3197,764;  570,282; 9579,255;29,16517
 544,12; 3226,062;  529,435; 9696,845;29,41537
 544,70; 3186,627;  511,204; 9855,285;28,63228
 545,29; 3263,241;  522,668; 9943,533;29,09046
 545,87; 3259,486;  520,743; 9958,777;29,01815
 546,45; 3242,475;  476,206; 9995,260;29,06034
 547,03; 3272,815;  450,282;10089,230;29,28259
 547,62; 3263,438;  417,974;10221,298;29,02551
 548,20; 3313,601;  428,819;10364,644;29,03414
 548,78; 3279,617;  388,124;10462,580;28,70124
 549,36; 3332,470;  369,740;10717,879;28,63056
 549,94; 3315,671;  330,820;10753,931;28,63686
 550,53; 3373,322;  327,432;11007,285;28,51995
 551,11; 3376,050;  309,508;11176,781;28,21813
 551,69; 3441,417;  320,355;11465,273;28,00435
 552,27; 3445,913;  271,818;11710,093;27,74977
 552,85; 3519,062;  280,585;12103,593;27,39131
 553,44; 3591,028;  286,663;12378,961;27,32620
 554,02; 3697,946;  300,124;12654,093;27,50389
 554,60; 3701,958;  233,585;12918,320;27,34289
 555,18; 3778,591;  265,355;13307,016;26,93857
 555,76; 3860,731;  260,893;13653,371;26,87955
 556,34; 3922,697;  275,430;13991,273;26,59164
 556,93; 3985,908;  262,201;14388,948;26,35927
 557,51; 4044,794;  232,891;14755,170;26,24866
 558,09; 4100,013;  265,740;15098,345;25,85030
 558,67; 4190,994;  261,429;15430,691;25,90478
 559,25; 4228,456;  270,968;15672,170;25,69597
 559,83; 4291,071;  237,582;16057,644;25,62246
 560,41; 4336,112;  243,199;16329,657;25,44322
 561,00; 4412,334;  255,967;16659,478;25,33827
 561,58; 4421,334;  238,584;16947,418;25,03316
 562,16; 4451,637;  242,969;17243,768;24,75570
 562,74; 4516,994;  223,508;17582,388;24,73366
 563,32; 4575,929;  210,043;18026,918;24,50421
 563,90; 4668,010;  249,583;18359,508;24,39782
 564,48; 4725,603;  249,200;18754,734;24,18954
 565,06; 4824,487;  242,506;19298,508;24,04482
 565,65; 4975,880;  246,888;19959,760;23,98936
 566,23; 5144,921;  296,736;20662,926;23,80506
 566,81; 5265,468;  245,660;21389,059;23,74173
 567,39; 5445,222;  256,197;22319,811;23,51847
 567,97; 5562,336;  266,198;22873,619;23,42655
 568,55; 5752,568;  280,582;23783,234;23,28242
 569,13; 5830,019;  243,813;24431,824;23,09493
 569,71; 5995,495;  243,893;25404,965;22,85913
 570,29; 6264,519;  278,893;26342,713;22,96527
 570,87; 6391,595;  285,354;27066,849;22,80022
 571,45; 6403,325;  267,198;27717,085;22,35393
 572,03; 6471,171;  235,274;28116,067;22,36629
 572,61; 6598,794;  222,274;28951,153;22,19551
 573,20; 6741,540;  257,430;29551,008;22,13492
 573,78; 6834,791;  243,890;30118,426;22,06194
 574,36; 6883,959;  262,505;30688,687;21,76235
 574,94; 6943,659;  321,427;31016,324;21,57437
 575,52; 6932,831;  249,810;31214,294;21,58286
 576,10; 7020,354;  303,887;31765,832;21,34790
 576,68; 7053,353;  298,581;32340,773;21,08087
 577,26; 7184,374;  307,963;33090,559;20,97580
 577,84; 7219,170;  313,198;33542,837;20,78257
 578,42; 7293,763;  358,965;33877,397;20,68951
 579,00; 7192,653;  313,197;33915,396;20,47323
 579,58; 7223,817;  358,042;34096,174;20,35019
 580,16; 7136,356;  308,195;34110,435;20,20032
 580,74; 7165,737;  316,195;34375,401;20,11069
 581,32; 7073,482;  322,273;34369,747;19,82881
 581,90; 7063,582;  329,272;34303,123;19,82204
 582,48; 6972,526;  328,272;34453,713;19,47009
 583,06; 6970,854;  318,273;34590,426;19,41104
 583,64; 6938,319;  324,889;34648,614;19,26781
 584,22; 6849,246;  342,040;34468,170;19,06810
 584,80; 6723,553;  336,965;34092,063;18,92037
 585,38; 6614,397;  355,353;33784,696;18,72320
 585,96; 6517,477;  315,735;33751,666;18,54813
 586,54; 6515,496;  348,733;33736,897;18,46991
 587,12; 6416,362;  309,118;33973,303;18,14167
 587,70; 6432,474;  337,812;34128,093;18,03673
 588,28; 6384,605;  313,272;34026,730;18,00863
 588,86; 6344,129;  321,502;34187,085;17,78392
 589,44; 6268,355;  299,423;34186,969;17,61394
 590,02; 6309,635;  309,347;34351,666;17,62597
 590,59; 6208,337;  284,964;34578,662;17,27248
 591,17; 6253,811;  303,729;34693,392;17,30195
 591,75; 6198,233;  278,884;34799,016;17,14753
 592,33; 6197,526;  308,962;35008,140;16,97033
 592,91; 6170,432;  255,499;35236,029;16,90921
 593,49; 6182,433;  267,883;35565,798;16,75609
 594,07; 6191,736;  287,883;35788,794;16,63015
 594,65; 6137,772;  300,271;35772,234;16,45666
 595,23; 6138,060;  283,270;36175,414;16,31218
 595,81; 6134,038;  296,116;36321,884;16,20485
 596,39; 6066,849;  287,423;36461,525;15,97669
 596,97; 6097,476;  275,576;36559,935;16,04521
 597,55; 6016,750;  274,194;36480,627;15,86060
 598,12; 5962,565;  245,497;36512,422;15,76386
 598,70; 5911,353;  245,191;36662,042;15,55918
 599,28; 5919,325;  283,268;36867,952;15,40551
 599,86; 5889,729;  254,499;36829,033;15,40752
 600,44; 5789,926;  241,883;36966,538;15,10713
 601,02; 5808,518;  294,496;36932,542;15,04999
 601,60; 5764,776;  272,500;36973,021;14,96512
 602,18; 5685,139;  247,113;36930,397;14,82426
 602,75; 5648,195;  250,654;37065,533;14,66130
 603,33; 5644,665;  264,960;37078,508;14,61338
 603,91; 5605,954;  243,035;37002,533;14,58921
 604,49; 5607,657;  282,883;37014,085;14,49660
 605,07; 5562,553;  284,884;37183,136;14,30330
 605,65; 5516,113;  295,267;37189,832;14,15072
 606,23; 5499,672;  350,041;37287,012;13,94167
 606,80; 5468,394;  384,885;37392,670;13,73632
 607,38; 5403,944;  421,958;37380,170;13,48005
 607,96; 5419,005;  461,808;37486,820;13,38878
 608,54; 5421,465;  524,959;37474,354;13,25192
 609,12; 5376,519;  539,270;37559,580;13,06647
 609,70; 5388,291;  571,960;37639,811;12,99328
 610,27; 5323,558;  564,655;37785,358;12,78564
 610,85; 5313,744;  585,114;37749,956;12,72339
 611,43; 5278,721;  582,806;37736,841;12,63904
 612,01; 5180,305;  548,577;37484,273;12,53998
 612,59; 5167,813;  556,806;37576,841;12,45544
 613,16; 5086,663;  524,194;37437,341;12,36001
 613,74; 5062,560;  490,268;37386,495;12,39230
 614,32; 5031,595;  458,882;37316,730;12,40635
 614,90; 4987,859;  435,038;37231,995;12,37282
 615,48; 4892,074;  373,040;36866,751;12,38305
 616,05; 4854,306;  343,348;36856,845;12,35422
 616,63; 4787,845;  365,733;36721,862;12,16332
 617,21; 4794,234;  348,193;36611,311;12,26050
 617,79; 4742,837;  343,885;36569,405;12,14324
 618,36; 4675,905;  342,807;36469,119;11,99430
 618,94; 4576,043;  295,886;36158,627;11,93483
 619,52; 4570,648;  312,425;35846,388;11,98353
 620,10; 4501,293;  292,039;35860,123;11,83436
 620,67; 4508,433;  298,349;35807,388;11,85637
 621,25; 4455,914;  324,807;35706,204;11,67593
 621,83; 4422,213;  303,117;35599,982;11,66986
 622,41; 4392,204;  359,501;35657,281;11,42481
 622,98; 4347,072;  317,503;35302,550;11,51798
 623,56; 4324,929;  318,272;35275,700;11,46153
 624,14; 4262,512;  306,191;35161,063;11,35084
 624,72; 4247,225;  301,424;35078,179;11,34609
 625,29; 4236,901;  285,810;35174,072;11,32498
 625,87; 4224,408;  332,731;35105,191;11,19184
 626,45; 4136,672;  287,042;34915,213;11,11705
 627,02; 4119,465;  292,346;34950,879;11,04236
 627,60; 4094,922;  271,267;34878,764;11,04863
 628,18; 4021,596;  258,270;34918,965;10,85762
 628,76; 4017,299;  265,041;34954,439;10,81673
 629,33; 4056,558;  292,963;34885,867;10,87967
 629,91; 4008,524;  276,962;34917,431;10,77226
 630,49; 4022,840;  291,117;35059,687;10,73303
 631,06; 4032,005;  289,195;35196,452;10,72215
 631,64; 3986,130;  288,888;35120,640;10,61458
 632,22; 3943,345;  248,811;35036,563;10,62021
 632,79; 3983,855;  282,427;35309,704;10,56727
 633,37; 3972,095;  252,577;35401,709;10,58211
 633,95; 3943,635;  262,657;35488,114;10,44977
 634,52; 3946,297;  246,578;35618,944;10,45935
 635,10; 3927,539;  264,039;35689,738;10,34136
 635,68; 3938,592;  264,504;35817,610;10,33408
 636,25; 3941,391;  248,351;35772,503;10,39586
 636,83; 3890,222;  228,964;35999,593;10,23538
 637,41; 3933,181;  249,273;36041,354;10,29252
 637,98; 3953,525;  283,504;36243,636;10,20580
 638,56; 3927,652;  264,044;36299,657;10,16663
 639,13; 3915,310;  242,349;36295,589;10,18760
 639,71; 4006,317;  312,810;36469,841;10,21518
 640,29; 3886,328;  224,194;36269,643;10,15977
 640,86; 3907,576;  241,348;36562,378;10,09395
 641,44; 3894,363;  240,810;36416,421;10,09949
 642,02; 3885,458;  268,117;36501,617; 9,98341
 642,59; 3885,552;  241,117;36507,968;10,04894
 643,17; 3886,339;  242,656;36583,780;10,02634
 643,74; 3869,819;  243,425;36595,976; 9,97562
 644,32; 3904,067;  270,809;36562,865;10,01116
 644,89; 3869,008;  263,963;36575,523; 9,92809
 645,47; 3874,487;  266,886;36564,951; 9,93882
 646,05; 3866,889;  263,502;36439,147; 9,96081
 646,62; 3861,907;  248,117;36521,421; 9,96267
 647,20; 3834,232;  254,732;36625,464; 9,84170
 647,77; 3815,711;  233,271;36563,429; 9,86079
 648,35; 3788,344;  230,886;36454,011; 9,82096
 648,92; 3853,208;  254,040;36523,592; 9,92339
 649,50; 3796,687;  220,886;36442,327; 9,87206
 650,08; 3814,551;  220,886;36275,985; 9,96715
 650,65; 3795,569;  236,039;36535,335; 9,80606
 651,23; 3870,048;  213,193;37329,378; 9,85245
 651,80; 4021,450;  217,193;38230,959;10,00758
 652,38; 4044,083;  230,809;38683,233; 9,91686
 652,95; 4085,793;  216,885;39039,891; 9,96550
 653,53; 4107,657;  243,116;39355,241; 9,88067
 654,10; 4184,598;  269,347;39470,284; 9,98765
 654,68; 4145,077;  215,885;39351,865;10,03984
 655,25; 4142,633;  215,577;39531,139; 9,98855
 655,83; 4145,958;  211,654;39701,489; 9,96283
 656,40; 4198,591;  262,347;39471,994;10,03897
 656,98; 4145,301;  218,116;39510,806; 9,99470
 657,55; 4138,780;  228,039;39312,694;10,00582
 658,13; 4081,644;  223,423;38933,891; 9,96687
 658,70; 4079,277;  250,500;38701,780; 9,95748
 659,28; 4040,679;  231,192;37787,977;10,14327
 659,85; 3947,312;  247,962;36911,327;10,09005
 660,43; 3962,638;  245,577;37010,600;10,11032
 661,00; 3966,040;  217,038;37113,336;10,16092
 661,58; 3978,211;  226,808;37430,224;10,08349
 662,15; 4018,460;  214,038;37623,575;10,16966
 662,73; 4113,785;  296,269;37994,771;10,12644
 663,30; 4106,957;  233,346;38122,814;10,22345
 663,88; 4147,743;  238,115;38285,165;10,27577
 664,45; 4147,530;  221,192;38475,515;10,26378
 665,03; 4197,240;  225,192;38934,096;10,26133
 665,60; 4318,104;  315,961;39296,524;10,26702
 666,17; 4290,968;  231,730;39435,643;10,35416
 666,75; 4325,832;  237,884;39837,917;10,32309
 667,32; 4395,311;  257,422;40136,652;10,37605
 667,90; 4409,713;  248,576;40373,925;10,37034
 668,47; 4477,731;  254,268;40711,507;10,43932
 669,05; 4503,518;  238,422;41041,319;10,45292
 669,62; 4498,458;  215,268;41094,207;10,47774
 670,19; 4529,476;  207,576;41221,096;10,53774
 670,77; 4610,878;  225,191;41436,831;10,64186
 671,34; 4599,896;  222,653;41280,489;10,66116
 671,92; 4662,067;  223,268;41671,994;10,70913
 672,49; 4690,854;  249,114;41653,036;10,72782
 673,06; 4692,180;  180,576;41684,848;10,87022
 673,64; 4712,120;  209,037;41721,814;10,84746
 674,21; 4709,907;  198,806;41601,780;10,89560
 674,79; 4781,848;  237,498;41879,361;10,91293
 675,36; 4803,404;  243,345;41950,096;10,93362
 675,93; 4786,806;  207,883;41798,447;11,00952
 676,51; 4854,055;  233,883;41996,797;11,06286
 677,08; 4856,457;  238,267;42145,609;11,02000
 677,65; 4924,628;  227,344;42244,575;11,17942
 678,23; 4968,338;  235,806;42378,002;11,22991
 678,80; 5012,433;  226,344;42468,276;11,33018
 679,38; 5018,604;  215,421;42651,934;11,31852
 679,95; 5125,007;  226,498;42874,669;11,48586
 680,52; 5138,486;  226,806;43211,404;11,42660
 681,10; 5226,657;  242,344;43619,908;11,49053
 681,67; 5322,598;  240,652;43908,336;11,63777
 682,24; 5301,539;  205,882;43960,840;11,64589
 682,82; 5435,864;  215,113;44518,267;11,78415
 683,39; 5544,651;  261,805;44947,541;11,82222
 683,96; 5534,207;  228,113;45163,353;11,80831
 684,54; 5614,686;  214,882;45566,549;11,90652
 685,11; 5770,011;  261,574;45995,977;12,04441
 685,68; 5775,952;  220,343;46347,635;12,04408
 686,25; 5821,047;  209,574;46329,678;12,16709
 686,83; 5876,295;  224,266;46587,182;12,19084
 687,40; 5984,390;  205,805;46909,071;12,37298
 687,97; 6077,792;  262,882;47309,114;12,35999
 688,55; 6069,348;  212,266;47325,926;12,43181
 689,12; 6119,519;  191,728;47588,045;12,50686
 689,69; 6229,229;  201,497;47694,703;12,69178
 690,26; 6236,401;  218,035;47746,208;12,66273
 690,84; 6285,265;  217,112;48066,327;12,68182
 691,41; 6360,436;  228,343;48172,062;12,79019
 691,98; 6390,685;  228,189;48503,951;12,76520
 692,56; 6486,241;  220,650;48556,763;12,96254
 693,13; 6554,951;  276,573;48519,652;13,01405
 693,70; 6624,122;  239,343;48637,233;13,19227
 694,27; 6634,371;  216,419;48796,430;13,21109
 694,84; 6675,004;  213,189;48898,011;13,27275
 695,42; 6786,944;  261,650;49019,361;13,38310
 695,99; 6765,270;  217,727;49180,327;13,37254
 696,56; 6829,826;  216,496;49034,062;13,54703
 697,13; 6914,843;  232,650;49420,720;13,58499
 697,71; 6960,399;  209,727;49394,686;13,72508
 698,28; 7012,263;  217,727;49714,037;13,72736
 698,85; 7037,896;  199,727;49725,003;13,80743
 699,42; 7122,222;  202,342;49934,584;13,91427
 699,99; 7258,162;  240,803;50030,319;14,09405
 700,57; 7265,795;  232,342;50115,362;14,09990
 701,14; 7275,121;  206,573;50235,712;14,12886
 701,71; 7391,754;  232,803;50426,062;14,26277
 702,28; 7416,310;  229,034;50475,259;14,30411
 702,85; 7492,481;  224,495;50574,686;14,43487
 703,43; 7583,114;  251,342;50838,037;14,49348
 704,00; 7658,055;  245,726;50977,849;14,61072
 704,57; 7712,765;  235,188;51011,738;14,72644
 705,14; 7785,552;  252,880;51250,088;14,77075
 705,71; 7865,492;  259,880;51277,054;14,90795
 706,28; 7844,972;  231,880;51163,327;14,94772
 706,86; 7961,451;  260,187;51476,755;15,03666
 707,43; 7994,853;  289,957;51421,721;15,06871
 708,00; 8061,717;  259,803;51456,071;15,23922
 708,57; 7986,042;  234,956;51246,421;15,19479
 709,14; 8103,444;  261,879;51501,926;15,30359
 709,71; 8144,770;  241,572;51586,738;15,39229
 710,28; 8250,557;  236,418;51710,165;15,56937
 710,86; 8333,651;  244,725;51954,054;15,64307
 711,43; 8412,669;  267,495;51845,866;15,79184
 712,00; 8398,456;  249,494;51973,447;15,75471
 712,57; 8507,704;  261,802;52051,182;15,92199
 713,14; 8565,799;  234,417;52193,994;16,03435
 713,71; 8599,509;  246,802;52137,652;16,09668
 714,28; 8613,372;  235,033;52217,926;16,11749
 714,85; 8635,775;  221,110;51842,968;16,30059
 715,42; 8761,177;  225,417;52187,396;16,42693
 716,00; 8871,579;  300,033;52292,977;16,48598
 716,57; 8822,674;  233,263;52374,943;16,47321
 717,14; 8892,076;  211,725;52272,447;16,67351
 717,71; 8920,940;  212,725;52283,874;16,72369
 718,28; 9088,650;  265,955;52493,917;16,89266
 718,85; 9056,744;  204,955;52412,575;16,95498
 719,42; 9183,300;  241,878;52662,080;17,05721
 719,99; 9157,780;  219,571;52385,892;17,13406
 720,56; 9318,951;  243,417;52752,242;17,28383
 721,13; 9307,969;  217,032;52790,823;17,29177
 721,70; 9337,448;  203,724;52633,174;17,42098
 722,27; 9458,158;  232,186;52831,601;17,54007
 722,84; 9571,098;  288,493;52843,721;17,66257
 723,41; 9489,655;  208,032;52888,686;17,61866
 723,98; 9615,595;  221,570;53198,268;17,73237
 724,55; 9785,690;  256,724;53259,772;17,97815
 725,12; 9732,861;  181,185;53261,738;17,99468
 725,69; 9874,033;  208,570;53273,627;18,21436
 726,27; 9922,050;  221,570;53351,208;18,25813
 726,84; 9994,299;  233,031;53717,558;18,25064
 727,41;10045,624;  241,262;53692,986;18,34246
 727,98;10145,719;  235,493;53909,259;18,46382
 728,55;10236,198;  274,339;53881,456;18,58309
 729,12;10274,831;  209,185;54031,575;18,70160
 729,69;10364,772;  235,339;54118,464;18,79890
 730,26;10439,635;  239,108;54533,507;18,78744
 730,82;10470,345;  229,569;54254,781;18,95555
 731,39;10552,517;  229,031;54317,746;19,08621
 731,96;10675,227;  214,800;54680,251;19,20562
 732,53;10735,629;  236,185;54873,678;19,21656
 733,10;10837,108;  243,031;54889,028;19,38674
 733,67;10940,434;  236,184;55261,302;19,45339
 734,24;10927,067;  217,031;54871,499;19,59590
 734,81;10984,700;  259,492;54910,464;19,62492
 735,38;10975,179;  232,954;54665,661;19,73487
 735,95;10963,889;  228,107;54563,473;19,75837
 736,52;11096,445;  236,723;54779,823;19,91035
 737,09;11129,232;  248,646;54388,712;20,09711
 737,66;11240,865;  286,030;54600,140;20,16941
 738,23;11265,421;  226,030;54758,721;20,24362
 738,80;11466,515;  307,722;55002,148;20,40207
 739,37;11419,995;  261,645;55128,652;20,33708
 739,94;11487,166;  236,953;55163,387;20,48233
 740,51;11719,953;  366,338;55300,507;20,66767
 741,07;11621,971;  233,722;55208,781;20,71530
 741,64;11723,680;  273,107;55394,054;20,77354
 742,21;11796,544;  238,722;55571,558;20,88782
 742,78;11816,254;  213,030;55299,755;21,06356
 743,35;11975,195;  232,183;55646,105;21,19145
 743,92;12075,059;  280,876;55889,379;21,20932
 744,49;12144,384;  273,183;55738,191;21,40305
 745,06;12100,171;  230,568;55709,695;21,39472
 745,63;12175,112;  223,029;55595,276;21,58497
 746,19;12201,822;  227,183;55560,858;21,64078
 746,76;12198,301;  236,798;55580,516;21,61312
 747,33;12235,472;  243,183;55549,020;21,68359
 747,90;12398,874;  263,798;55781,140;21,85817
 748,47;12452,431;  240,875;55719,336;22,01134
 749,04;12499,602;  244,567;55769,148;22,07137
 749,61;12579,850;  279,183;55687,729;22,19995
 750,17;12667,022;  265,413;55746,234;22,35297
 750,74;12631,270;  251,875;55801,200;22,28541
 751,31;12662,596;  232,413;55590,319;22,45421
 751,88;12694,690;  216,336;55543,208;22,55388
 752,45;12811,246;  231,490;55604,251;22,71831
 753,02;12843,495;  260,413;55423,140;22,81084
 753,58;12911,205;  232,490;55410,875;22,97768
 754,15;12997,838;  219,028;55610,918;23,06982
 754,72;13005,701;  230,028;55382,806;23,16415
 755,29;13014,719;  221,721;55210,541;23,26473
 755,86;13106,198;  253,490;55419,430;23,29827
 756,42;13161,139;  251,336;55133,781;23,52265
 756,99;13101,157;  215,182;55231,285;23,42219
 757,56;13200,713;  229,874;55230,405;23,58312
 758,13;13224,038;  179,951;55113,447;23,74523
 758,70;13408,748;  215,489;55279,875;23,95969
 759,26;13485,689;  202,643;55239,687;24,13474
 759,83;13566,937;  227,028;55372,883;24,19023
 760,40;13576,339;  210,566;55218,311;24,29798
 760,97;13654,434;  206,489;55244,353;24,43399
 761,53;13638,375;  185,643;54956,396;24,56189
 762,10;13623,008;  186,412;54850,362;24,58036
 762,67;13712,410;  214,489;54907,097;24,67961
 763,24;13728,658;  173,874;54437,601;24,97946
 763,80;13796,138;  207,797;54611,798;24,97673
 764,37;13782,078;  211,181;54580,148;24,96074
 764,94;13715,711;  197,258;54198,499;25,03360
 765,50;13812,267;  205,335;54206,695;25,19739
 766,07;13926,900;  237,489;54177,507;25,37895
 766,64;13894,303;  214,719;53884,319;25,48851
 767,21;13878,013;  213,873;53796,977;25,50084
 767,77;13933,415;  234,719;53682,943;25,62984
 768,34;13941,740;  223,950;53621,448;25,68995
 768,91;14061,373;  233,719;53493,260;25,96277
 769,47;14057,545;  232,488;53468,072;25,96958
 770,04;14028,639;  245,719;53389,037;25,93538
 770,61;14088,503;  219,180;53037,695;26,25845
 771,18;14095,751;  211,334;53017,969;26,29294
 771,74;14222,308;  226,873;53148,935;26,44537
 772,31;14193,402;  236,103;52924,131;26,49046
 772,88;14184,035;  205,796;52656,174;26,65041
 773,44;14180,207;  202,565;52564,832;26,69411
 774,01;14282,686;  233,796;52605,952;26,82511
 774,58;14263,088;  215,642;52376,456;26,93103
 775,14;14320,644;  208,411;52458,191;27,00917
 775,71;14404,431;  210,795;52348,926;27,22314
 776,27;14497,679;  273,641;52254,661;27,36391
 776,84;14550,159;  312,180;52286,243;27,39439
 777,41;14541,022;  226,411;52017,901;27,63893
 777,97;14481,578;  215,795;51779,713;27,66621
 778,54;14529,904;  231,641;52002,294;27,61847
 779,11;14590,383;  260,641;51813,490;27,79622
 779,67;14558,093;  216,487;51780,072;27,81344
 780,24;14578,187;  231,949;51504,576;27,98031
 780,80;14674,282;  235,949;51658,234;28,07797
 781,37;14677,377;  237,795;51581,200;28,12354
 781,94;14695,010;  230,948;51445,858;28,24190
 782,50;14785,566;  228,179;51259,670;28,52628
 783,07;14814,199;  257,564;51261,097;28,54044
 783,63;14813,986;  221,871;51107,909;28,67607
 784,20;14821,388;  248,179;51014,798;28,70628
 784,77;14845,021;  232,410;50773,302;28,91245
 785,33;14806,192;  210,102;50667,037;28,92782
 785,90;14932,210;  228,102;50623,926;29,17723
 786,46;14838,305;  256,102;50497,815;29,02410
 787,03;14885,091;  228,102;50236,243;29,30921
 787,59;14846,263;  232,563;50226,978;29,23066
 788,16;14922,742;  235,871;50217,020;29,38482
 788,73;14863,067;  236,409;50094,217;29,33675
 789,29;14839,777;  230,640;49793,875;29,47575
 789,86;14925,564;  258,178;49607,226;29,72172
 790,42;14886,813;  238,101;49520,038;29,72430
 790,99;14865,984;  241,871;49234,388;29,84969
 791,55;14880,617;  233,255;49198,969;29,91351
 792,12;14931,558;  270,794;49232,320;29,94344
 792,68;14808,037;  239,178;48915,901;29,92983
 793,25;14878,824;  249,409;48664,020;30,21694
 793,81;14894,149;  318,486;48265,909;30,39926
 794,38;14795,782;  209,870;48136,952;30,43355
 794,94;14806,800;  239,870;48136,610;30,41320
 795,51;14782,279;  243,255;47862,730;30,53168
 796,07;14706,374;  234,101;47650,696;30,52154
 796,64;14814,391;  262,870;47746,046;30,64564
 797,20;14712,101;  246,178;47193,089;30,81337
 797,77;14629,426;  215,408;46881,670;30,88745
 798,33;14657,829;  244,177;46734,251;31,00372
 798,90;14643,462;  251,485;46698,063;30,98609
 799,46;14568,095;  221,947;46181,798;31,21452
 800,03;14609,189;  244,100;46101,918;31,32528
 800,59;14584,284;  259,254;45974,191;31,33556
 801,15;14582,840;  253,023;45733,850;31,50738
 801,72;14481,858;  240,946;45340,585;31,57655
 802,28;14494,337;  267,946;45057,089;31,76303
 802,85;14520,431;  238,254;44917,132;31,96629
 803,41;14459,911;  228,562;44717,636;31,98841
 803,98;14396,082;  231,946;44265,909;32,16639
 804,54;14370,484;  234,331;44154,568;32,18597
 805,11;14346,194;  247,715;43862,841;32,32475
 805,67;14337,212;  262,254;43846,653;32,29357
 806,23;14266,768;  249,177;43371,003;32,50695
 806,80;14252,632;  260,023;43244,277;32,55287
 807,36;14265,726;  258,253;43238,243;32,59068
 807,93;14340,590;  267,176;43079,055;32,87268
 808,49;14221,146;  233,561;42628,559;32,99348
 809,05;14186,087;  231,561;42517,909;33,00007
 809,62;14223,797;  264,407;42372,183;33,15157
 810,18;14297,430;  250,638;42348,149;33,36727
 810,74;14234,217;  218,022;41992,576;33,55199
 811,31;14252,234;  227,407;41870,234;33,67886
 811,87;14273,944;  254,330;41773,046;33,76697
 812,44;14267,962;  268,176;41687,781;33,79990
 813,00;14190,595;  204,637;41421,439;33,93266
 813,56;14296,766;  255,176;41486,559;34,05559
 814,13;14278,630;  234,945;41479,140;34,05009
 814,69;14304,725;  243,099;41172,414;34,35588
 815,25;14174,512;  209,022;40779,533;34,42276
 815,82;14224,452;  260,637;40770,038;34,47056
 816,38;14198,393;  289,637;40586,696;34,51556
 816,94;14151,257;  226,637;40272,969;34,77127
 817,51;14123,736;  220,637;40085,166;34,87586
 818,07;14053,754;  221,022;39734,670;35,00748
 818,63;13980,233;  234,021;39568,482;34,94699
 819,20;14004,174;  245,329;39580,525;34,97846
 819,76;13938,960;  223,483;39195,260;35,19336
 820,32;13999,440;  248,252;39074,764;35,41700
 820,89;13866,380;  247,021;38918,807;35,21782
 821,45;13813,090;  217,406;38530,927;35,48534
 822,01;13774,800;  252,867;38313,739;35,52712
 822,57;13741,202;  252,559;38158,628;35,58439
 823,14;13695,759;  216,867;37916,132;35,75373
 823,70;13645,699;  220,021;37639,482;35,87887
 824,26;13623,563;  219,482;37478,602;35,97530
 824,82;13622,427;  256,867;37394,875;35,98890
 825,39;13499,137;  228,251;37042,534;36,04820
 825,95;13594,001;  238,328;37083,730;36,24787
 826,51;13519,480;  239,790;36697,234;36,42518
 827,08;13596,113;  270,251;36758,662;36,52081
 827,64;13547,823;  252,097;36598,781;36,58030
 828,20;13416,148;  214,867;36265,901;36,61832
 828,76;13505,320;  253,866;36258,636;36,80472
 829,32;13496,183;  261,251;36200,987;36,82535
 829,89;13464,970;  209,789;35935,106;37,10305
 830,45;13510,065;  237,482;36000,687;37,11240
 831,01;13439,621;  232,712;35591,269;37,35138
 831,57;13410,869;  240,328;35661,388;37,18280
 832,14;13476,656;  221,020;35632,585;37,43307
 832,70;13416,135;  219,558;35308,551;37,60888
 833,26;13364,922;  199,020;35184,824;37,63213
 833,82;13422,324;  229,404;35104,636;37,82891
 834,38;13400,111;  222,558;35095,140;37,78772
 834,95;13422,744;  213,635;35052,260;37,91513
 835,51;13376,223;  190,635;34868,072;38,02354
 836,07;13452,087;  234,173;34910,423;38,11806
 836,63;13508,566;  244,866;34946,158;38,22250
 837,19;13478,507;  234,558;34790,893;38,32568
 837,75;13311,679;  204,481;34431,166;38,29526
 838,32;13526,312;  244,942;34548,901;38,71672
 838,88;13500,560;  241,481;34645,175;38,53970
 839,44;13489,962;  248,865;34467,987;38,69502
 840,00;13559,057;  241,404;34451,337;38,92920
 840,56;13434,305;  222,404;34168,149;38,92064
 841,12;13426,631;  218,634;34182,961;38,88785
 841,68;13412,187;  196,173;33923,004;39,18546
 842,25;13466,589;  232,557;33917,970;39,28713
 842,81;13357,068;  204,942;33732,782;39,22748
 843,37;13374,163;  200,634;33731,594;39,28766
 843,93;13421,642;  227,557;33568,329;39,57342
 844,49;13432,583;  237,788;33657,910;39,48159
 845,05;13443,062;  187,557;33455,260;39,84497
 845,61;13504,541;  245,095;33466,918;39,91185
 846,17;13481,635;  222,172;33305,653;40,07880
 846,73;13487,269;  230,634;33273,542;40,11945
 847,29;13432,440;  211,326;33127,123;40,16647
 847,86;13458,765;  210,249;33033,859;40,36276
 848,42;13352,629;  223,095;32902,594;40,17667
 848,98;13437,493;  228,403;32852,098;40,48925
 849,54;13524,049;  214,633;32873,756;40,75252
 850,10;13433,759;  232,403;32833,183;40,49399
 850,66;13450,777;  212,326;32636,534;40,82891
 851,22;13409,179;  196,864;32571,269;40,81099
 851,78;13561,812;  250,018;32602,235;41,14647
 852,34;13412,829;  232,710;32403,047;40,96979
 852,90;13441,616;  216,556;32242,782;41,29447
 853,46;13417,557;  213,402;32069,671;41,44916
 854,02;13456,421;  231,787;32082,329;41,52091
 854,58;13329,669;  227,171;31738,910;41,57974
 855,14;13339,610;  217,941;31687,953;41,69579
 855,70;13317,858;  177,633;31580,226;41,84440
 856,26;13341,030;  226,171;31551,500;41,86663
 856,82;13298,509;  220,633;31325,773;42,04410
 857,38;13278,450;  247,940;31349,508;41,89663
 857,94;13207,467;  217,786;31077,320;42,09293
 858,50;13241,716;  258,940;31058,594;42,15234
 859,06;13145,426;  215,479;30823,713;42,24336
 859,62;13155,366;  231,709;30848,525;42,21098
 860,18;13070,846;  224,786;30541,876;42,37234
 860,74;13120,094;  197,325;30524,072;42,61179
 861,30;13051,881;  191,171;30301,807;42,71152
 861,86;13088,514;  272,632;30376,235;42,57259
 862,42;13036,455;  219,709;30222,431;42,71861
 862,98;13023,626;  257,247;30116,705;42,75489
 863,54;12986,490;  222,170;29941,901;42,94897
 864,10;12978,738;  223,093;30022,636;42,80483
 864,66;12875,910;  204,016;29791,295;42,82886
 865,22;12885,620;  215,939;29593,491;43,12708
 865,78;12820,099;  222,862;29471,842;43,06898
 866,34;12766,501;  213,170;29417,038;42,98517
 866,90;12767,826;  236,555;29302,158;43,11375
 867,45;12685,306;  230,785;29035,970;43,23708
 868,01;12729,554;  229,324;28878,936;43,63141
 868,57;12670,649;  217,862;28688,363;43,73926
 869,13;12624,436;  205,708;28673,560;43,62369
 869,69;12543,607;  214,400;28441,756;43,67822
 870,25;12526,778;  186,785;28315,337;43,86999
 870,81;12533,181;  220,400;28380,765;43,72380
 871,37;12493,506;  230,862;28330,577;43,63975
 871,93;12474,062;  238,939;28173,081;43,79989
 872,49;12445,234;  262,246;27799,893;44,24121
 873,04;12387,944;  205,477;27732,782;44,25594
 873,60;12396,038;  205,708;27540,440;44,59649
 874,16;12314,210;  232,400;27473,483;44,35143
 874,72;12303,517;  212,938;27433,175;44,41761
 875,28;12292,440;  219,708;27361,713;44,47988
 875,84;12342,825;  230,246;27350,483;44,66251
 876,40;12336,056;  211,631;27344,867;44,68477
 876,95;12358,517;  223,323;27303,098;44,81276
 877,51;12397,671;  246,323;27297,637;44,91962
 878,07;12455,133;  263,400;27292,483;45,10598
 878,63;12507,902;  222,169;27272,867;45,41743
 879,19;12571,979;  240,400;27318,867;45,54017
 879,75;12612,825;  207,554;27394,790;45,62903
 880,30;12630,517;  226,554;27456,252;45,55307
 880,86;12793,056;  267,246;27557,790;45,89798
 881,42;12855,363;  217,938;27581,175;46,18396
 881,98;12889,979;  227,785;27704,867;46,08275
 882,54;12958,056;  216,246;27817,637;46,16365
 883,09;13094,671;  237,400;27976,790;46,35023
 883,65;13155,056;  203,169;28121,944;46,39131
 884,21;13328,287;  251,323;28417,021;46,42869
 884,77;13383,825;  211,631;28439,637;46,66357
 885,32;13526,979;  221,938;28643,483;46,81322
 885,88;13688,210;  263,323;28852,944;46,95720
 886,44;13781,517;  227,015;28875,021;47,31395
 887,00;13821,287;  250,477;28933,944;47,31231
 887,56;13923,748;  225,323;29002,329;47,60198
 888,11;13968,056;  221,785;29072,483;47,64623
 888,67;14134,440;  256,785;29292,867;47,79452
 889,23;14179,825;  226,015;29292,867;48,00592
 889,79;14118,287;  210,323;29163,252;48,03646
 890,34;14150,363;  231,862;29147,252;48,13527
 890,90;14307,440;  299,554;29313,098;48,28051
 891,46;14188,056;  230,477;29165,790;48,23718
 892,01;14282,979;  241,631;29178,713;48,52372
 892,57;14256,671;  246,785;29092,252;48,56876
 893,13;14169,440;  211,400;28971,021;48,53346
 893,69;14204,133;  202,631;28899,713;48,79068
 894,24;14184,748;  230,400;28829,175;48,79352
 894,80;14151,825;  234,169;28582,867;49,09451
 895,36;14077,979;  226,477;28442,175;49,09147
 895,91;14067,133;  225,169;28280,560;49,33798
 896,47;14055,363;  242,708;28191,329;49,42160
 897,03;13898,902;  219,092;27945,252;49,33900
 897,58;13830,594;  244,246;27851,483;49,21300
 898,14;13766,133;  234,708;27640,483;49,37436
 898,70;13714,056;  202,092;27523,637;49,45534
 899,25;13776,979;  230,785;27537,021;49,60843
 899,81;13715,440;  245,477;27311,175;49,76766
 900,37;13547,210;  209,785;27044,790;49,70159
 900,92;13620,594;  231,938;27062,560;49,90066
 901,48;13551,056;  212,477;26888,790;50,00158
 902,03;13507,517;  222,477;26758,098;50,06493
 902,59;13465,517;  225,477;26678,944;50,05030
 903,15;13443,056;  239,477;26485,560;50,30686
 903,70;13329,363;  227,477;26196,021;50,45291
 904,26;13279,594;  227,400;26080,175;50,48663
 904,82;13249,594;  229,938;26143,560;50,24252
 905,37;13227,748;  234,708;26013,175;50,40269
 905,93;13163,825;  210,631;25805,867;50,60783
 906,48;13097,517;  231,708;25697,175;50,52257
 907,04;13058,594;  239,785;25643,637;50,46010
 907,60;12949,902;  240,708;25437,021;50,44069
 908,15;12899,056;  218,554;25329,021;50,49887
 908,71;12943,902;  249,246;25351,021;50,57274
 909,26;12836,056;  223,938;25228,867;50,43853
 909,82;12812,748;  235,169;25071,637;50,64158
 910,37;12775,594;  273,015;25014,175;50,53352
 910,93;12651,979;  216,631;24674,021;50,84495
 911,48;12681,517;  212,785;24616,867;51,09281
 912,04;12627,210;  213,631;24466,637;51,18367
 912,60;12671,056;  231,938;24515,560;51,22431
 913,15;12525,056;  239,092;24347,329;50,96168
 913,71;12443,363;  215,092;24093,252;51,21111
 914,26;12516,363;  190,938;24063,406;51,63029
 914,82;12443,594;  229,785;23958,329;51,47307
 915,37;12388,363;  214,323;23861,329;51,48238
 915,93;12472,979;  270,169;23812,637;51,83318
 916,48;12344,594;  216,938;23582,560;51,90384
 917,04;12316,594;  237,169;23521,021;51,87898
 917,59;12345,363;  257,631;23477,713;52,05723
 918,15;12195,363;  197,323;23245,021;52,05743
 918,70;12146,440;  219,092;23222,175;51,85109
 919,26;12144,287;  236,862;23058,560;52,17589
 919,81;12078,440;  207,862;22928,175;52,24655
 920,37;12061,287;  218,938;22839,483;52,35218
 920,92;12083,363;  261,400;22781,021;52,49628
 921,48;11976,210;  199,785;22525,637;52,74793
 922,03;11994,363;  205,477;22530,098;52,80666
 922,59;11919,594;  225,246;22402,483;52,73131
 923,14;11852,440;  224,785;22233,406;52,83228
 923,69;11842,517;  250,015;22170,252;52,88493
 924,25;11826,594;  245,938;22132,098;52,91315
 924,80;11685,594;  219,862;21961,790;52,73558
 925,36;11648,056;  207,631;21846,406;52,87002
 925,91;11626,363;  224,015;21753,175;52,96235
 926,47;11615,363;  202,323;21673,637;53,15483
 927,02;11646,594;  285,862;21626,944;53,23410
 927,57;11540,287;  214,092;21334,329;53,62721
 928,13;11482,210;  210,092;21322,713;53,39042
 928,68;11445,671;  229,092;21243,560;53,37551
 929,24;11348,440;  191,092;21028,867;53,54386
 929,79;11271,363;  206,323;20950,252;53,34110
 930,34;11291,594;  220,477;20785,021;53,83595
 930,90;11252,517;  214,015;20762,790;53,71854
 931,45;11236,210;  226,554;20754,021;53,63378
 932,01;11166,363;  234,785;20661,098;53,51714
 932,56;11086,287;  246,246;20478,175;53,57888
 933,11;11124,517;  252,169;20502,867;53,68876
 933,67;11052,133;  219,092;20311,867;53,91510
 934,22;11060,056;  216,477;20255,790;54,11153
 934,77;10960,287;  252,708;20143,560;53,83168
 935,33;10923,979;  227,092;20010,944;54,06878
 935,88;10905,440;  235,862;19929,021;54,17911
 936,43;10891,210;  227,862;19856,175;54,32636
 936,99;10822,287;  232,554;19695,560;54,40954
 937,54;10746,056;  212,169;19608,867;54,30763
 938,09;10752,748;  239,554;19555,637;54,42715
 938,65;10676,594;  232,400;19423,175;54,42299
 939,20;10618,902;  206,323;19300,175;54,53367
 939,75;10652,440;  204,323;19170,329;55,08865
 940,31;10567,517;  211,246;19116,713;54,77924
 940,86;10598,517;  227,015;19065,944;55,05356
 941,41;10593,133;  313,400;19135,406;54,61550
 941,96;10507,363;  210,477;18889,329;55,12591
 942,52;10461,825;  217,631;18806,790;55,10843
 943,07;10385,056;  201,785;18710,637;55,01838
 943,62;10361,979;  212,477;18644,637;55,06410
 944,18;10326,363;  203,323;18555,406;55,16017
 944,73;10290,440;  220,477;18409,175;55,36385
 945,28;10213,133;  191,554;18242,944;55,51694
 945,83;10235,210;  207,323;18343,175;55,29317
 946,39;10250,287;  213,246;18264,790;55,60212
 946,94;10198,902;  245,246;18136,175;55,63521
 947,49;10139,748;  209,169;18047,329;55,67042
 948,04;10216,056;  256,554;17943,329;56,31045
 948,59;10103,748;  240,169;17960,867;55,66134
 949,15;10061,902;  203,400;17842,867;55,88889
 949,70;10042,517;  214,092;17716,252;56,15550
 950,25;10006,979;  239,169;17592,329;56,28836
 950,80; 9978,671;  185,323;17440,483;56,75606
 951,36; 9915,825;  193,015;17370,175;56,60313
 951,91; 9929,902;  233,477;17399,098;56,48747
 952,46; 9848,517;  199,554;17230,098;56,65681
 953,01; 9875,056;  226,631;17255,406;56,65954
 953,56; 9766,133;  195,169;17099,021;56,62001
 954,11; 9777,287;  222,554;17028,406;56,85361
 954,67; 9724,440;  214,862;16967,560;56,76446
 955,22; 9710,594;  200,015;16814,560;57,24249
 955,77; 9701,440;  248,400;16765,560;57,23163
 956,32; 9685,825;  270,400;16704,406;57,29233
 956,87; 9551,440;  207,092;16558,944;57,14550
 957,42; 9549,210;  215,631;16537,944;57,18294
 957,98; 9519,671;  208,554;16381,713;57,57142
 958,53; 9505,902;  245,938;16348,790;57,50511
 959,08; 9438,748;  204,708;16229,175;57,62463
 959,63; 9401,671;  212,246;16089,483;57,87799
 960,18; 9417,210;  223,708;16043,560;58,11370
 960,73; 9365,363;  225,169;16017,560;57,87721
 961,28; 9333,133;  193,554;15881,175;58,25981
 961,83; 9374,517;  243,323;15852,098;58,50039
 962,39; 9318,825;  196,938;15762,329;58,60365
 962,94; 9291,440;  235,400;15630,944;58,82248
 963,49; 9206,287;  215,785;15523,713;58,73101
 964,04; 9213,133;  235,785;15473,329;58,91598
 964,59; 9147,902;  194,015;15376,175;58,97637
 965,14; 9144,517;  239,554;15334,713;58,99218
 965,69; 9078,594;  219,015;15295,098;58,76579
 966,24; 9026,671;  206,631;15172,560;58,93413
 966,79; 8997,440;  224,323;15031,790;59,24793
 967,34; 8888,671;  190,169;14944,867;58,95412
 967,89; 8946,979;  216,400;14881,867;59,53154
 968,44; 8910,210;  218,400;14821,252;59,52132
 968,99; 8844,440;  226,862;14712,790;59,48931
 969,55; 8832,748;  218,554;14667,406;59,61854
 970,10; 8747,748;  226,708;14514,637;59,63804
 970,65; 8723,440;  239,092;14459,329;59,66390
 971,20; 8657,287;  211,631;14306,867;59,91851
 971,75; 8627,287;  197,169;14216,021;60,13415
 972,30; 8581,056;  219,092;14145,175;60,04534
 972,85; 8515,133;  204,554;14088,021;59,85953
 973,40; 8456,594;  203,708;13950,560;60,03474
 973,95; 8483,056;  227,554;13891,406;60,41856
 974,50; 8443,517;  248,323;13904,406;60,01131
 975,05; 8397,287;  211,785;13704,483;60,66616
 975,60; 8343,517;  228,862;13682,175;60,31715
 976,15; 8340,671;  212,477;13600,944;60,71042
 976,70; 8266,825;  226,862;13493,637;60,60224
 977,25; 8210,287;  235,246;13457,867;60,31361
 977,80; 8162,440;  208,554;13293,098;60,78841
 978,35; 8039,287;  234,708;13092,175;60,70075
 978,89; 8040,363;  201,169;13054,560;60,98931
 979,44; 8035,363;  223,862;13040,021;60,95041
 979,99; 7916,056;  212,169;12829,867;61,05620
 980,54; 7924,363;  246,785;12840,637;60,96291
 981,09; 7919,056;  242,938;12647,713;61,88034
 981,64; 7808,594;  228,708;12520,406;61,66672
 982,19; 7800,210;  270,246;12500,713;61,56726
 982,74; 7696,133;  234,477;12373,713;61,46726
 983,29; 7615,056;  200,092;12258,944;61,48980
 983,84; 7592,671;  232,554;12145,329;61,78340
 984,39; 7609,671;  298,862;12130,406;61,79083
 984,94; 7456,671;  205,323;11949,867;61,74227
 985,49; 7472,902;  245,862;11916,483;61,92507
 986,03; 7424,517;  243,015;11837,252;61,94027
 986,58; 7372,287;  282,477;11682,944;62,18876
 987,13; 7234,594;  212,015;11573,252;61,81175
 987,68; 7224,363;  241,554;11430,098;62,41035
 988,23; 7187,210;  243,477;11445,406;61,98694
 988,78; 7115,287;  210,400;11289,560;62,32320
 989,33; 7052,979;  248,477;11125,483;62,55859
 989,88; 7048,748;  258,169;11165,790;62,25536
 990,42; 6958,363;  230,708;10973,713;62,62359
 990,97; 6899,517;  213,092;10828,329;62,98894
 991,52; 6853,594;  241,246;10779,329;62,74716
 992,07; 6793,748;  258,631;10725,790;62,43449
 992,62; 6724,825;  235,554;10580,175;62,73087
 993,17; 6658,363;  240,092;10459,483;62,80483
 993,71; 6611,517;  243,092;10406,483;62,66044
 994,26; 6537,133;  219,092;10208,944;63,24458
 994,81; 6542,210;  253,323;10201,021;63,21952
 995,36; 6445,902;  215,785;10082,483;63,14288
 995,91; 6402,210;  230,246; 9978,713;63,31214
 996,45; 6313,133;  232,631; 9855,867;63,18562
 997,00; 6197,210;  200,708; 9710,098;63,05874
 997,55; 6242,594;  244,938; 9694,021;63,47342
 998,10; 6106,440;  249,323; 9601,713;62,62695
 998,65; 6131,056;  228,323; 9486,098;63,75973
 999,19; 6037,594;  248,246; 9399,483;63,26301
 999,74; 5978,363;  259,708; 9297,560;63,27450
1000,29; 5917,287;  239,246; 9177,790;63,52310
1000,84; 5854,133;  226,938; 9035,790;63,88113
1001,38; 5833,902;  233,169; 8965,175;64,14028
1001,93; 5751,440;  245,554; 8920,790;63,46670
1002,48; 5669,287;  206,400; 8758,098;63,88072
1003,03; 5676,594;  239,938; 8675,252;64,45114
1003,57; 5580,902;  242,554; 8621,483;63,71158
1004,12; 5534,517;  260,631; 8573,406;63,44315
1004,67; 5457,210;  224,246; 8447,790;63,63392
1005,22; 5376,210;  221,400; 8250,406;64,20234
1005,76; 5291,210;  210,554; 8124,329;64,20015
1006,31; 5241,594;  243,938; 8095,790;63,64939
1006,86; 5195,748;  216,246; 7914,713;64,68173
1007,40; 5092,287;  211,246; 7821,021;64,14172
1007,95; 5037,440;  227,708; 7688,483;64,46693
1008,50; 4954,210;  238,323; 7620,637;63,88088
1009,04; 4914,133;  230,246; 7458,483;64,79985
1009,59; 4802,748;  232,015; 7371,252;64,02271
1010,14; 4731,671;  220,169; 7282,713;63,87927
1010,68; 4688,056;  233,708; 7158,560;64,32409
1011,23; 4604,594;  235,092; 7054,790;64,07178
1011,78; 4576,133;  253,246; 6960,713;64,44886
1012,32; 4532,594;  252,400; 6872,252;64,65695
1012,87; 4536,594;  257,246; 6859,790;64,81362
1013,42; 4399,748;  220,169; 6710,021;64,40176
1013,96; 4474,363;  254,708; 6728,944;65,17611
1014,51; 4394,133;  192,938; 6595,790;65,61442
1015,06; 4393,671;  199,938; 6633,406;65,18620
1015,60; 4487,517;  276,477; 6714,790;65,40595
1016,15; 4447,902;  222,631; 6685,406;65,37859
1016,69; 4494,517;  226,400; 6689,867;66,03448
1017,24; 4502,287;  203,554; 6703,637;66,13351
1017,79; 4598,594;  266,938; 6809,637;66,20596
1018,33; 4578,133;  225,323; 6806,406;66,14124
1018,88; 4679,440;  242,323; 6915,021;66,49660
1019,42; 4682,671;  235,708; 6899,560;66,73263
1019,97; 4706,825;  222,015; 6909,098;67,06676
1020,51; 4768,210;  259,400; 7042,944;66,46687
1021,06; 4768,363;  198,631; 6987,560;67,31154
1021,61; 4758,902;  185,938; 6998,406;67,12639
1022,15; 4746,902;  176,862; 6896,175;68,01350
1022,70; 4756,902;  222,323; 6941,560;67,48652
1023,24; 4717,133;  209,169; 6894,560;67,43007
1023,79; 4686,363;  234,246; 6823,175;67,56967
1024,33; 4677,363;  225,554; 6770,098;68,02322
1024,88; 4628,363;  233,477; 6724,021;67,71214
1025,42; 4567,671;  234,400; 6536,021;68,76439
1025,97; 4470,748;  214,400; 6473,713;68,00024
1026,51; 4387,287;  196,400; 6368,867;67,89646
1027,06; 4379,825;  216,631; 6318,252;68,23095
1027,60; 4288,133;  228,631; 6212,713;67,83833
1028,15; 4261,517;  241,785; 6148,329;68,05558
1028,69; 4157,671;  198,708; 5937,483;68,98621
1029,24; 4085,594;  219,323; 5908,329;67,96040
1029,78; 4023,979;  204,708; 5835,560;67,82759
1030,33; 3921,517;  197,323; 5678,790;67,94156
1030,87; 3912,594;  208,862; 5635,637;68,24924
1031,42; 3852,748;  192,862; 5513,867;68,78186
1031,96; 3810,902;  236,785; 5473,098;68,25637
1032,51; 3775,902;  203,938; 5401,867;68,71898
1033,05; 3734,671;  216,400; 5335,790;68,72442
1033,60; 3636,287;  198,938; 5221,406;68,43943
1034,14; 3612,748;  221,400; 5148,098;68,83613
1034,69; 3588,594;  213,785; 5084,867;69,28254
1035,23; 3525,363;  214,708; 5009,944;69,04051
1035,77; 3517,056;  220,092; 4922,944;70,10562
1036,32; 3418,671;  197,477; 4838,790;69,40264
1036,86; 3407,594;  223,169; 4806,021;69,48566
1037,41; 3372,287;  232,400; 4710,483;70,11676
1037,95; 3275,594;  191,092; 4640,175;69,32894
1038,50; 3272,671;  209,323; 4594,790;69,85226
1039,04; 3232,825;  231,246; 4555,713;69,40922
1039,58; 3161,133;  200,477; 4461,252;69,48632
1040,13; 3133,825;  210,246; 4394,790;69,86612
1040,67; 3125,440;  244,323; 4399,637;69,33574
1041,21; 3109,825;  247,554; 4267,867;71,19522
1041,76; 3009,287;  202,554; 4193,175;70,33323
1042,30; 2990,210;  207,631; 4173,713;70,15938
1042,85; 2906,133;  215,323; 4094,175;69,37129
1043,39; 2888,825;  195,323; 3985,944;71,05701
1043,93; 2883,133;  242,015; 3993,637;70,39936
1044,48; 2818,133;  227,015; 3932,483;69,92687
1045,02; 2781,671;  211,785; 3880,021;70,05782
1045,56; 2780,671;  240,708; 3851,021;70,35299
1046,11; 2733,056;  227,554; 3785,406;70,42176
1046,65; 2719,210;  229,477; 3706,406;71,60724
1047,19; 2650,517;  212,938; 3668,637;70,53796
1047,74; 2594,671;  195,862; 3568,944;71,11624
1048,28; 2572,594;  224,400; 3561,252;70,37154
1048,82; 2597,363;  249,938; 3558,790;70,94379
1049,37; 2526,671;  236,400; 3450,867;71,24886
1049,91; 2502,979;  225,092; 3414,560;71,41903
1050,45; 2467,594;  239,169; 3391,637;70,68828
1050,99; 2421,210;  219,246; 3353,483;70,25518
1051,54; 2400,056;  213,169; 3251,175;71,98428
1052,08; 2381,671;  249,938; 3258,098;70,86501
1052,62; 2342,517;  241,323; 3228,790;70,33363
1053,16; 2305,056;  220,554; 3136,867;71,47729
1053,71; 2287,517;  226,092; 3101,252;71,69776
1054,25; 2254,363;  244,169; 3059,867;71,39239
1054,79; 2228,363;  237,246; 3008,252;71,85540
1055,33; 2172,210;  200,092; 2939,637;71,98706
1055,88; 2184,825;  239,400; 2941,098;72,00749
1056,42; 2170,210;  237,477; 2872,252;73,35475
1056,96; 2115,825;  247,015; 2844,483;71,94738
1057,50; 2088,056;  230,477; 2794,098;72,45918
1058,05; 2073,440;  230,015; 2762,252;72,79829
1058,59; 2064,363;  247,938; 2739,252;72,91034
1059,13; 1974,210;  213,708; 2670,175;71,66804
1059,67; 1991,210;  235,015; 2639,175;73,04815
1060,21; 1941,594;  232,092; 2573,098;73,02425
1060,76; 1924,594;  239,554; 2571,329;72,26428
1061,30; 1919,902;  259,400; 2576,329;71,66823
1061,84; 1881,363;  232,938; 2493,406;72,92408
1062,38; 1817,825;  217,477; 2432,329;72,25531
1062,92; 1873,671;  267,708; 2475,637;72,73620
1063,46; 1813,748;  250,323; 2372,560;73,66874
1064,01; 1787,056;  219,169; 2363,944;73,10261
1064,55; 1759,056;  244,477; 2310,790;73,29860
1065,09; 1711,671;  210,400; 2239,329;73,99329
1065,63; 1719,902;  252,554; 2300,790;71,63958
1066,17; 1715,748;  258,323; 2235,637;73,70733
1066,71; 1690,748;  252,015; 2232,252;72,65459
1067,25; 1675,825;  233,169; 2154,790;75,07493
1067,80; 1633,902;  250,554; 2176,867;71,81324
1068,34; 1652,517;  262,323; 2144,560;73,85864
1068,88; 1593,517;  220,246; 2092,483;73,34923
1069,42; 1626,210;  250,246; 2101,252;74,33599
1069,96; 1560,210;  231,092; 2018,713;74,35117
1070,50; 1588,287;  260,092; 2062,713;73,68127
1071,04; 1520,210;  223,169; 1975,252;74,02849
1071,58; 1523,517;  233,092; 1960,560;74,70040
1072,12; 1506,363;  234,554; 1946,560;74,28769
1072,66; 1486,440;  241,785; 1936,021;73,46411
1073,21; 1500,133;  253,246; 1939,098;73,96181
1073,75; 1464,594;  239,862; 1893,790;74,04990
1074,29; 1453,748;  239,708; 1876,637;74,16574
1074,83; 1464,902;  262,092; 1872,329;74,69770
1075,37; 1434,902;  259,631; 1832,483;74,72230
1075,91; 1417,594;  247,631; 1794,790;75,62009
1076,45; 1385,594;  247,785; 1770,790;74,70816
1076,99; 1383,210;  258,938; 1749,483;75,42689
1077,53; 1347,210;  231,323; 1710,790;75,42489
1078,07; 1346,440;  243,477; 1723,560;74,52039
1078,61; 1321,748;  241,400; 1669,637;75,64210
1079,15; 1312,594;  234,246; 1688,867;74,13257
1079,69; 1293,287;  240,785; 1637,944;75,33154
1080,23; 1305,825;  253,323; 1646,867;75,52698
1080,77; 1345,287;  301,938; 1673,175;76,08812
1081,31; 1273,748;  230,092; 1598,175;76,28602
1081,85; 1266,979;  247,323; 1598,560;75,46094
1082,39; 1210,363;  235,631; 1560,329;73,58150
1082,93; 1254,671;  250,554; 1558,867;76,74899
1083,47; 1188,902;  225,938; 1506,867;75,17697
1084,01; 1213,671;  253,938; 1542,560;74,47749
1084,55; 1185,825;  232,554; 1488,713;75,88774
1085,09; 1195,594;  255,938; 1486,175;76,38009
1085,63; 1146,902;  252,477; 1455,944;74,32067
1086,17; 1143,671;  235,708; 1415,021;76,99085
1086,71; 1118,210;  219,246; 1411,175;75,42090
1087,24; 1157,594;  262,938; 1429,406;76,69789
1087,78; 1142,979;  251,092; 1379,944;79,00828
1088,32; 1078,287;  232,554; 1339,021;76,43540
1088,86; 1102,671;  253,554; 1374,944;75,72005
1089,40; 1084,133;  249,477; 1351,944;75,70798
1089,94; 1037,517;  218,092; 1316,560;74,59712
1090,48; 1055,671;  249,631; 1314,713;75,67867
1091,02; 1059,748;  255,015; 1325,867;75,14883
1091,56; 1041,517;  245,400; 1297,560;75,66507
1092,10; 1002,902;  220,785; 1261,329;75,16425
1092,63; 1038,133;  260,862; 1278,713;76,36387
1093,17; 1014,210;  253,246; 1245,252;76,70958
1093,71;  991,517;  226,246; 1209,637;77,81967
1094,25; 1017,594;  260,092; 1220,021;78,91230
1094,79;  965,440;  245,631; 1188,944;76,30651
1095,33;  976,902;  252,246; 1185,790;77,62415
1095,87;  952,287;  239,631; 1191,252;74,88860
1096,40;  906,440;  224,862; 1149,944;73,67761
1096,94;  929,825;  245,169; 1150,021;75,66495
1097,48;  932,979;  254,169; 1153,483;75,48087
1098,02;  907,440;  244,477; 1105,483;76,99872
1098,56;  885,748;  217,862; 1080,021;77,46669
1099,10;  869,056;  213,938; 1066,790;76,81489
1099,63;  854,748;  221,323; 1071,175;74,53357
1100,17;  884,440;  239,708; 1075,329;77,15610
1100,71;  898,363;  261,169; 1095,329;76,38757

