
Integration time [ms]: 140,000
Averaging Nr. [scans]: 13
Smoothing Nr. [pixels]: 0
Data measured with spectrometer [name]: 2009305U1
Wave   ;Sample   ;Dark     ;Reference;Reflectance
[nm]   ;[counts] ;[counts] ;[counts] ;[%]

 175,72;  210,186;  202,783;  223,076;36,47715
 176,32;  239,069;  235,325;  233,183; 0,00000
 176,92;  268,811;  268,169;  269,200;62,25122
 177,52;  270,918;  268,091;  262,076; 0,00000
 178,12;  234,989;  257,324;  243,700; 0,00000
 178,72;  269,820;  265,095;  258,217; 0,00000
 179,32;  255,587;  268,863;  252,136; 0,00000
 179,92;  261,877;  265,631;  267,970;-160,53457
 180,52;  256,224;  242,858;  269,559;50,05624
 181,12;  257,828;  264,246;  270,140;-108,88796
 181,73;  276,729;  278,015;  276,393; 0,00000
 182,33;  377,553;  376,706;  385,901; 9,21323
 182,93;  284,297;  282,630;  284,119;111,91593
 183,53;  248,856;  252,787;  239,042; 0,00000
 184,13;  232,989;  254,095;  245,230; 0,00000
 184,73;  295,652;  287,018;  290,658;237,24067
 185,33;  272,796;  245,652;  366,512;22,45968
 185,93;  274,316;  240,884;  362,674;27,44986
 186,53;  302,123;  262,499;  382,538;33,00997
 187,13;  323,011;  282,650;  413,897;30,75216
 187,73;  287,068;  248,500;  374,807;30,53523
 188,33;  289,331;  249,501;  377,832;31,03711
 188,93;  300,816;  266,120;  368,764;33,80211
 189,53;  306,711;  262,277;  393,555;33,84731
 190,13;  342,205;  296,435;  419,072;37,32176
 190,73;  283,699;  227,586;  359,537;42,52520
 191,34;  316,629;  271,352;  391,243;37,76526
 191,94;  289,486;  246,733;  373,358;33,76345
 192,54;  300,395;  264,572;  390,298;28,49295
 193,14;  313,270;  262,112;  410,063;34,57786
 193,74;  299,081;  267,728;  401,768;23,39095
 194,34;  295,610;  265,958;  394,183;23,12493
 194,94;  273,188;  225,420;  368,414;33,40569
 195,54;  239,849;  199,036;  342,674;28,41360
 196,14;  274,831;  234,957;  373,055;28,87348
 196,74;  256,587;  238,575;  362,324;14,55489
 197,34;  241,329;  200,263;  355,217;26,50175
 197,94;  271,520;  232,342;  391,563;24,60562
 198,54;  283,502;  239,265;  407,700;26,26384
 199,14;  260,184;  217,032;  395,974;24,11514
 199,74;  249,882;  208,186;  379,854;24,28880
 200,34;  256,459;  205,108;  400,093;26,33592
 200,94;  286,858;  241,418;  444,773;22,34543
 201,54;  266,190;  224,801;  446,157;18,69764
 202,14;  313,600;  252,185;  507,021;24,09985
 202,74;  274,501;  220,186;  489,414;20,17445
 203,34;  264,749;  206,876;  509,469;19,12574
 203,94;  238,935;  177,569;  523,345;17,74742
 204,54;  307,024;  251,804;  597,516;15,97295
 205,14;  277,779;  210,570;  593,619;17,54564
 205,74;  322,738;  248,030;  688,863;16,94704
 206,34;  304,035;  218,877;  712,170;17,26317
 206,94;  315,606;  224,493;  773,666;16,59092
 207,54;  294,039;  194,262;  814,576;16,08493
 208,14;  327,673;  212,338;  885,999;17,12055
 208,74;  330,475;  216,647;  970,102;15,10741
 209,34;  338,703;  210,032; 1064,247;15,06316
 209,94;  369,825;  223,416; 1142,978;15,92162
 210,54;  373,661;  216,877; 1246,089;15,23348
 211,14;  408,737;  209,955; 1381,448;16,96830
 211,73;  413,301;  219,109; 1508,743;15,05786
 212,33;  443,314;  231,956; 1610,123;15,33617
 212,93;  445,771;  216,109; 1698,572;15,49194
 213,53;  442,557;  181,647; 1761,367;16,51622
 214,13;  481,025;  222,952; 1870,209;15,66680
 214,73;  462,600;  185,954; 1909,790;16,04827
 215,33;  465,902;  179,186; 1934,593;16,33335
 215,93;  522,532;  211,184; 2074,162;16,71237
 216,53;  510,509;  162,801; 2134,072;17,63874
 217,13;  588,262;  225,953; 2347,307;17,07911
 217,73;  621,004;  204,338; 2559,692;17,69020
 218,33;  632,869;  161,336; 2756,969;18,16636
 218,93;  696,325;  202,873; 3086,277;17,11353
 219,53;  770,028;  209,336; 3414,311;17,49442
 220,13;  803,439;  170,028; 3703,166;17,92770
 220,73;  891,529;  187,878; 4085,892;18,05153
 221,32;  948,936;  195,109; 4505,948;17,48679
 221,92; 1046,555;  192,721; 5000,632;17,75895
 222,52; 1086,385;  178,184; 5377,901;17,46636
 223,12; 1171,940;  189,030; 5845,465;17,37686
 223,72; 1265,408;  197,260; 6327,192;17,42511
 224,32; 1327,466;  209,106; 6727,234;17,15768
 224,92; 1375,732;  182,568; 7030,294;17,42424
 225,52; 1458,919;  212,723; 7406,315;17,32369
 226,12; 1464,620;  189,953; 7683,610;17,00994
 226,72; 1507,849;  171,723; 8090,059;16,87383
 227,31; 1532,500;  166,338; 8448,196;16,49584
 227,91; 1604,716;  195,185; 8938,251;16,12170
 228,51; 1640,348;  182,417; 9244,174;16,08883
 229,11; 1716,238;  189,108; 9710,850;16,03835
 229,71; 1739,878;  184,032; 9960,751;15,91379
 230,31; 1797,143;  160,260;10437,610;15,92709
 230,91; 1803,622;  168,495;10697,503;15,52973
 231,51; 1854,271;  183,415;11064,521;15,35557
 232,10; 1872,218;  172,875;11342,525;15,21393
 232,70; 1916,456;  198,958;11545,952;15,13615
 233,30; 1932,592;  214,492;11780,828;14,85432
 233,90; 1914,858;  192,799;11954,734;14,64095
 234,50; 1911,558;  186,799;12056,551;14,53071
 235,10; 1880,886;  175,260;12065,525;14,34472
 235,70; 1917,690;  208,724;12036,862;14,44831
 236,29; 1871,981;  203,417;12020,602;14,11982
 236,89; 1773,701;  168,495;11895,824;13,68774
 237,49; 1781,830;  201,338;11816,486;13,60716
 238,09; 1736,958;  181,339;11438,324;13,81915
 238,69; 1738,682;  224,957;11167,550;13,83333
 239,29; 1643,007;  186,185;10841,999;13,67162
 239,89; 1581,896;  196,802;10545,226;13,38458
 240,48; 1519,686;  176,492;10114,692;13,51546
 241,08; 1471,641;  177,185; 9764,264;13,50209
 241,68; 1455,990;  213,415; 9396,209;13,53155
 242,28; 1395,980;  178,723; 8995,542;13,80609
 242,88; 1406,338;  219,721; 8679,166;14,02712
 243,48; 1367,671;  225,954; 8415,452;13,94124
 244,07; 1342,444;  209,339; 8129,234;14,30707
 244,67; 1367,376;  207,338; 7988,298;14,90867
 245,27; 1368,993;  208,109; 7823,974;15,24297
 245,87; 1413,233;  210,260; 7761,226;15,93138
 246,47; 1397,649;  196,109; 7668,914;16,07884
 247,06; 1454,294;  181,416; 7757,721;16,80078
 247,66; 1498,939;  185,646; 7774,213;17,30621
 248,26; 1598,888;  215,955; 7894,268;18,01089
 248,86; 1683,968;  207,725; 8133,290;18,62635
 249,46; 1728,496;  159,953; 8304,717;19,25830
 250,05; 1872,290;  204,262; 8681,392;19,67681
 250,65; 1984,273;  184,263; 9076,110;20,24337
 251,25; 2158,035;  178,031; 9575,474;21,06961
 251,85; 2325,372;  186,264;10085,469;21,60889
 252,44; 2501,203;  157,878;10815,700;21,98690
 253,04; 2761,067;  208,493;11581,892;22,44337
 253,64; 2909,685;  152,725;12308,123;22,68095
 254,24; 3263,823;  196,339;13277,281;23,45003
 254,84; 3526,496;  177,184;14242,179;23,81311
 255,43; 3860,696;  190,801;15248,200;24,37270
 256,03; 4157,010;  196,956;16293,995;24,60113
 256,63; 4496,583;  204,341;17391,115;24,97410
 257,23; 4768,307;  177,495;18380,307;25,22034
 257,82; 5135,613;  194,496;19349,209;25,79583
 258,42; 5353,330;  155,496;20233,042;25,88879
 259,02; 5723,041;  210,262;21264,273;26,18398
 259,62; 5936,788;  187,189;22043,709;26,30611
 260,21; 6106,762;  199,878;22644,055;26,31811
 260,81; 6336,763;  193,646;23073,388;26,84959
 261,41; 6483,165;  172,265;23729,055;26,79015
 262,01; 6686,404;  209,497;24161,474;27,04122
 262,60; 6799,768;  163,649;24635,307;27,11757
 263,20; 6898,736;  179,802;24886,046;27,19529
 263,80; 7033,762;  212,651;25112,931;27,39371
 264,40; 7093,893;  168,189;25329,644;27,52505
 264,99; 7146,438;  198,574;25487,905;27,47350
 265,59; 7209,591;  180,191;25693,956;27,55140
 266,19; 7220,460;  181,035;25895,888;27,37494
 266,78; 7289,333;  221,190;26007,807;27,41012
 267,38; 7215,056;  200,268;26049,674;27,13713
 267,98; 7239,883;  181,575;26073,568;27,26058
 268,58; 7229,476;  196,037;26109,273;27,14227
 269,17; 7201,730;  195,653;26127,166;27,01762
 269,77; 7107,804;  204,957;25881,747;26,88361
 270,37; 7042,412;  165,420;25820,286;26,80580
 270,96; 6942,746;  232,111;25659,008;26,39188
 271,56; 6874,541;  184,033;25321,482;26,61570
 272,16; 6757,476;  181,496;25124,230;26,36431
 272,75; 6668,662;  191,265;25101,268;26,00320
 273,35; 6654,399;  189,726;25037,080;26,01755
 273,95; 6551,360;  188,419;25027,841;25,61630
 274,54; 6545,033;  169,185;25041,157;25,63467
 275,14; 6593,390;  216,496;25396,256;25,32548
 275,74; 6535,384;  168,419;25453,756;25,18047
 276,33; 6608,819;  213,649;25923,068;24,87481
 276,93; 6664,037;  196,031;26222,952;24,85121
 277,53; 6801,910;  186,032;26759,098;24,89693
 278,12; 6853,888;  174,418;27305,491;24,61926
 278,72; 7035,565;  227,801;27881,948;24,61751
 279,32; 7093,681;  182,955;28489,106;24,41422
 279,91; 7289,447;  165,494;29258,003;24,48724
 280,51; 7422,516;  191,724;29692,657;24,51038
 281,11; 7587,483;  186,494;30550,063;24,37457
 281,70; 7667,153;  171,417;30892,465;24,39935
 282,30; 7815,849;  182,572;31552,097;24,33342
 282,90; 7941,864;  186,264;31954,418;24,41313
 283,49; 8059,020;  202,572;32544,115;24,29212
 284,09; 8249,946;  210,417;33120,456;24,42880
 284,69; 8363,229;  213,340;33350,085;24,59472
 285,28; 8476,556;  206,341;33762,422;24,64595
 285,88; 8616,953;  248,188;33983,397;24,80721
 286,47; 8614,781;  187,187;34005,615;24,92012
 287,07; 8745,291;  220,263;34062,995;25,19013
 287,67; 8883,517;  209,415;34281,991;25,45772
 288,26; 8982,090;  182,878;34188,713;25,87559
 288,86; 9081,162;  179,956;34213,674;26,15408
 289,46; 9270,689;  205,340;34318,149;26,57462
 290,05; 9416,645;  177,493;34392,670;27,00308
 290,65; 9621,144;  194,803;34598,709;27,39904
 291,24; 9767,888;  195,186;34663,653;27,77235
 291,84;10037,506;  216,495;34767,653;28,42455
 292,44;10244,386;  194,569;34984,204;28,88739
 293,03;10475,252;  266,417;35057,914;29,34290
 293,63;10575,361;  184,495;35259,170;29,62498
 294,22;10700,042;  214,417;35324,264;29,86520
 294,82;10793,730;  191,727;35373,820;30,13466
 295,41;10787,306;  176,802;35114,234;30,37002
 296,01;10888,469;  229,265;34972,568;30,67988
 296,61;10829,169;  217,571;34673,495;30,79760
 297,20;10725,353;  195,496;34283,409;30,89029
 297,80;10694,397;  199,031;34159,264;30,90487
 298,39;10488,911;  177,418;33729,931;30,73240
 298,99;10473,480;  207,880;33549,640;30,78902
 299,58;10323,832;  210,415;33295,880;30,56755
 300,18;10232,908;  225,416;33137,170;30,40704
 300,78;10072,968;  187,186;32737,294;30,37097
 301,37;10016,656;  209,497;32747,285;30,14083
 301,97; 9970,340;  208,417;32702,747;30,04193
 302,56; 9888,939;  199,418;32668,944;29,84189
 303,16; 9763,915;  171,341;32483,179;29,68749
 303,75; 9752,094;  187,570;32527,127;29,57531
 304,35; 9695,760;  181,030;32758,768;29,20623
 304,94; 9582,638;  206,340;32808,922;28,75937
 305,54; 9546,475;  218,801;32760,717;28,66357
 306,13; 9429,561;  161,799;32549,192;28,61534
 306,73; 9285,554;  166,876;32358,217;28,32649
 307,33; 9229,541;  206,261;32238,521;28,16935
 307,92; 9155,062;  215,878;32305,469;27,85696
 308,52; 9179,575;  173,495;32763,140;27,63479
 309,11; 9237,411;  188,650;33278,833;27,34576
 309,71; 9220,040;  180,728;33595,521;27,05183
 310,30; 9228,338;  184,648;33756,969;26,93794
 310,90; 9292,569;  221,263;34201,739;26,69564
 311,49; 9211,573;  201,955;34294,529;26,42692
 312,09; 9138,795;  170,800;34375,033;26,21896
 312,68; 9301,480;  253,955;34837,982;26,16099
 313,28; 9183,754;  162,878;34973,469;25,91417
 313,87; 9128,481;  162,955;35103,286;25,65953
 314,47; 9146,912;  191,188;35314,764;25,49776
 315,06; 9050,396;  176,032;35427,858;25,17420
 315,66; 9029,872;  170,954;35644,803;24,97309
 316,25; 8934,680;  159,034;35543,003;24,80119
 316,85; 8897,821;  148,493;35519,422;24,73593
 317,44; 8821,156;  183,266;35761,610;24,27850
 318,04; 8761,521;  174,495;35684,512;24,18198
 318,63; 8655,190;  161,030;35697,110;23,90292
 319,22; 8611,502;  183,341;35919,858;23,58417
 319,82; 8585,894;  182,341;35890,217;23,53417
 320,41; 8459,995;  206,187;35837,512;23,16447
 321,01; 8436,178;  201,878;35853,636;23,09648
 321,60; 8376,500;  196,879;35932,315;22,88938
 322,20; 8247,668;  181,417;35834,568;22,62423
 322,79; 8266,571;  206,186;35983,059;22,52959
 323,39; 8214,200;  177,876;36015,401;22,42433
 323,98; 8118,859;  168,109;35860,333;22,27586
 324,58; 8085,596;  175,495;35863,803;22,16440
 325,17; 7989,922;  188,111;35597,918;22,03291
 325,76; 7945,280;  208,186;35442,927;21,95871
 326,36; 7827,116;  178,416;35062,418;21,92610
 326,95; 7703,839;  207,494;34654,585;21,76191
 327,55; 7595,232;  165,341;34435,627;21,68027
 328,14; 7464,127;  176,954;33976,875;21,55973
 328,74; 7388,857;  209,649;33581,833;21,51255
 329,33; 7313,608;  194,262;33143,444;21,60705
 329,92; 7146,940;  177,496;32534,162;21,53944
 330,52; 6993,795;  187,954;31833,499;21,50647
 331,11; 6884,751;  181,879;31384,670;21,48164
 331,71; 6744,755;  180,033;30840,773;21,41084
 332,30; 6625,331;  201,263;30513,538;21,19296
 332,89; 6598,381;  251,339;29853,004;21,44150
 333,49; 6453,783;  193,725;29360,170;21,46322
 334,08; 6338,288;  191,879;28852,042;21,44583
 334,68; 6224,734;  183,879;28470,875;21,35559
 335,27; 6181,444;  207,646;28061,551;21,44690
 335,86; 6182,367;  242,264;27758,670;21,58750
 336,46; 6084,511;  198,954;27412,880;21,62701
 337,05; 6063,864;  184,956;27302,884;21,67904
 337,65; 6058,140;  173,264;27034,230;21,90865
 338,24; 6130,336;  222,955;27085,038;21,99152
 338,83; 6093,614;  204,801;26985,781;21,98879
 339,43; 6121,440;  176,264;27007,948;22,15730
 340,02; 6125,187;  172,418;26819,350;22,33942
 340,61; 6166,683;  199,263;26869,734;22,37463
 341,21; 6215,241;  221,726;26907,986;22,45918
 341,80; 6256,323;  192,418;26842,333;22,75394
 342,40; 6314,842;  190,108;26908,012;22,92371
 342,99; 6336,458;  183,262;27124,927;22,83896
 343,58; 6462,992;  174,416;27215,521;23,25562
 344,18; 6573,799;  202,031;27425,670;23,40528
 344,77; 6680,740;  168,342;27631,055;23,71360
 345,36; 6875,224;  170,187;27880,046;24,19730
 345,96; 6974,880;  209,878;28225,999;24,14682
 346,55; 7108,190;  160,414;28529,653;24,49053
 347,14; 7298,750;  170,415;28847,768;24,85702
 347,74; 7435,390;  151,567;29286,025;25,00072
 348,33; 7725,957;  183,259;29809,653;25,45938
 348,92; 7940,470;  191,412;30461,670;25,59958
 349,52; 8186,988;  163,028;30981,773;26,03597
 350,11; 8310,011;  178,495;31156,136;26,24963
 350,70; 8463,083;  172,955;31370,055;26,57339
 351,29; 8380,600;  167,652;30998,482;26,63875
 351,89; 8553,313;  189,035;31043,016;27,10924
 352,48; 8594,944;  165,263;31080,991;27,26664
 353,07; 8712,414;  199,877;31018,525;27,62138
 353,67; 8764,144;  208,720;30924,636;27,85339
 354,26; 8778,386;  182,492;30742,969;28,12748
 354,85; 8776,806;  191,185;30553,794;28,27696
 355,45; 8810,322;  167,879;30387,704;28,59859
 356,04; 8873,990;  176,107;30300,521;28,87320
 356,63; 8987,214;  215,340;30143,683;29,30959
 357,22; 9002,119;  184,651;30004,914;29,56871
 357,82; 9038,299;  184,881;29789,615;29,90541
 358,41; 9134,115;  207,109;29677,551;30,29139
 359,00; 9106,230;  180,264;29523,687;30,41897
 359,60; 9212,777;  188,647;29385,452;30,90794
 360,19; 9244,187;  205,415;29244,627;31,12609
 360,78; 9277,406;  184,264;29115,982;31,42967
 361,37; 9349,565;  188,187;28952,632;31,84966
 361,97; 9370,867;  189,109;28871,525;32,01180
 362,56; 9376,985;  180,034;28572,824;32,39185
 363,15; 9415,143;  252,264;28254,174;32,72234
 363,74; 9375,092;  192,265;27927,153;33,10930
 364,34; 9344,819;  213,341;27511,914;33,45039
 364,93; 9283,829;  173,573;27122,042;33,80621
 365,52; 9235,059;  144,571;26657,209;34,28738
 366,11; 9142,866;  182,803;26510,580;34,03274
 366,71; 9163,271;  182,726;26033,397;34,74009
 367,30; 9124,490;  202,264;25600,875;35,12880
 367,89; 9122,703;  220,031;25410,251;35,34178
 368,48; 9071,257;  196,957;25136,221;35,58365
 369,07; 9031,852;  201,417;24677,978;36,07711
 369,67; 8949,013;  219,342;24411,221;36,08513
 370,26; 8935,555;  180,417;24057,200;36,66800
 370,85; 8911,807;  189,341;23916,469;36,76158
 371,44; 8884,128;  192,802;23630,935;37,08199
 372,03; 8861,994;  167,726;23441,884;37,35589
 372,63; 8791,250;  160,494;23097,204;37,62857
 373,22; 8780,163;  185,186;22806,076;37,99575
 373,81; 8729,095;  157,648;22493,499;38,37528
 374,40; 8685,301;  178,416;22326,768;38,40866
 374,99; 8582,271;  178,110;21951,247;38,59876
 375,59; 8557,187;  171,877;21685,465;38,97681
 376,18; 8650,303;  212,187;21588,978;39,47326
 376,77; 8607,683;  201,109;21345,961;39,75707
 377,36; 8656,361;  220,648;21386,559;39,85518
 377,95; 8544,821;  206,495;21008,080;40,08505
 378,55; 8543,101;  175,185;20865,482;40,44367
 379,14; 8550,033;  198,341;20764,435;40,60903
 379,73; 8590,986;  188,341;20679,533;41,00613
 380,32; 8696,888;  199,648;20785,187;41,27771
 380,91; 8618,715;  168,265;20505,662;41,55128
 381,50; 8717,375;  197,726;20493,781;41,97687
 382,10; 8650,811;  188,033;20415,495;41,83806
 382,69; 8689,201;  166,187;20415,140;42,09114
 383,28; 8802,515;  212,957;20278,243;42,80805
 383,87; 8708,013;  180,803;20158,687;42,68325
 384,46; 8769,100;  164,035;20098,191;43,16744
 385,05; 8824,123;  202,188;20130,657;43,26441
 385,64; 8815,943;  191,111;20107,273;43,30570
 386,24; 8884,319;  157,881;20034,508;43,90301
 386,83; 8975,697;  202,035;20097,307;44,09923
 387,42; 9004,646;  198,034;20214,495;43,99685
 388,01; 9186,114;  204,421;20376,102;44,52625
 388,60; 9289,953;  191,573;20645,700;44,48188
 389,19; 9435,998;  173,731;20876,619;44,73901
 389,78; 9556,895;  179,730;21079,542;44,86722
 390,37; 9906,943;  245,651;21567,854;45,31094
 390,96; 9940,790;  187,497;21720,102;45,29546
 391,56;10044,023;  195,116;21867,529;45,44444
 392,15;10189,780;  177,961;22123,550;45,62110
 392,74;10300,933;  165,656;22259,956;45,87281
 393,33;10500,898;  183,347;22620,311;45,98461
 393,92;10728,346;  189,427;22947,576;46,30833
 394,51;10840,753;  169,347;23210,674;46,31420
 395,10;11025,372;  202,353;23428,230;46,59897
 395,69;11107,322;  187,122;23572,315;46,69707
 396,28;11154,062;  193,046;23641,657;46,74484
 396,87;11260,855;  200,741;23763,072;46,93981
 397,46;11333,778;  198,128;23866,734;47,04819
 398,06;11479,213;  212,746;24134,695;47,09678
 398,65;11522,136;  191,828;24181,618;47,22971
 399,24;11627,324;  208,906;24321,503;47,35457
 399,83;11643,794;  171,684;24319,059;47,50873
 400,42;11777,696;  215,999;24455,828;47,69711
 401,01;11842,195;  189,315;24579,165;47,77758
 401,60;11926,988;  200,942;24618,383;48,02324
 402,19;11913,096;  214,489;24606,438;47,96093
 402,78;11888,367;  214,888;24515,643;48,03752
 403,37;11851,447;  204,440;24392,169;48,15255
 403,96;11808,455;  205,994;24258,463;48,23813
 404,55;11766,699;  213,319;24201,147;48,16351
 405,14;11709,510;  189,797;24097,719;48,18367
 405,73;11715,860;  211,200;24017,330;48,32646
 406,32;11687,939;  210,366;23847,172;48,55805
 406,91;11594,992;  205,150;23610,749;48,66289
 407,50;11551,006;  210,619;23473,501;48,74885
 408,09;11422,019;  179,317;23120,120;49,00745
 408,68;11381,946;  198,628;23067,402;48,90213
 409,27;11266,836;  183,854;22837,885;48,92278
 409,86;11259,121;  192,997;22744,676;49,07007
 410,45;11242,751;  221,449;22600,509;49,24828
 411,04;11259,758;  227,516;22570,531;49,37670
 411,63;11077,465;  214,426;22318,946;49,14397
 412,22;11024,148;  220,876;22082,741;49,41606
 412,81;10889,316;  216,872;21846,497;49,34179
 413,40;10821,123;  232,559;21486,489;49,81932
 413,99;10654,603;  276,330;21131,343;49,76392
 414,58;10396,953;  198,868;20717,382;49,70187
 415,17;10327,014;  202,718;20540,377;49,78103
 415,76;10173,092;  198,723;20346,860;49,50517
 416,35;10138,933;  185,874;20116,937;49,93742
 416,94;10175,493;  225,568;20175,971;49,87330
 417,53;10284,003;  207,257;20432,621;49,82232
 418,12;10356,276;  206,948;20476,583;50,07159
 418,71;10594,412;  218,021;20830,454;50,34045
 419,30;10589,311;  200,024;21000,647;49,94700
 419,89;10730,029;  184,639;21139,429;50,32449
 420,48;10874,592;  222,405;21442,613;50,19832
 421,07;10936,018;  216,251;21448,407;50,48836
 421,66;10895,434;  184,941;21541,095;50,15179
 422,25;10940,090;  205,167;21438,937;50,55590
 422,84;10939,793;  224,397;21543,476;50,26200
 423,43;10806,166;  212,168;21238,301;50,38491
 424,02;10712,822;  231,628;21043,172;50,36240
 424,60;10458,586;  201,392;20533,831;50,44743
 425,19;10368,077;  211,703;20236,510;50,71896
 425,78;10271,270;  217,626;20175,442;50,37447
 426,37;10223,282;  232,085;20050,925;50,41262
 426,96;10195,980;  206,624;19918,959;50,67566
 427,55;10077,466;  199,467;19767,762;50,47961
 428,14; 9936,820;  195,158;19549,673;50,33276
 428,73; 9910,499;  216,929;19338,557;50,69427
 429,32; 9881,838;  218,470;19324,100;50,57864
 429,91; 9898,480;  226,160;19366,831;50,53282
 430,50; 9832,672;  228,466;19204,852;50,61135
 431,08; 9693,977;  231,772;19005,087;50,40242
 431,67; 9685,327;  263,463;18962,207;50,38768
 432,26; 9589,568;  269,923;18770,057;50,37609
 432,85; 9472,624;  291,770;18411,160;50,66867
 433,44; 9281,345;  305,845;18063,668;50,54392
 434,03; 9081,588;  316,149;17727,545;50,34311
 434,62; 8862,424;  271,614;17264,989;50,55388
 435,21; 8784,197;  287,923;17079,211;50,59929
 435,79; 8677,294;  290,535;16870,613;50,58335
 436,38; 8608,391;  276,994;16773,698;50,50340
 436,97; 8567,309;  282,686;16719,515;50,40280
 437,56; 8495,130;  278,143;16522,498;50,58364
 438,15; 8385,640;  260,837;16400,241;50,34141
 438,74; 8410,466;  274,067;16463,122;50,25864
 439,33; 8478,911;  249,683;16410,092;50,92215
 439,91; 8458,178;  217,450;16527,489;50,52549
 440,50; 8473,242;  264,835;16518,258;50,50263
 441,09; 8567,745;  270,832;16642,156;50,67955
 441,68; 8555,203;  245,445;16657,322;50,63258
 442,27; 8545,586;  230,908;16633,609;50,69091
 442,86; 8500,778;  205,057;16680,985;50,35056
 443,44; 8537,407;  221,288;16739,976;50,34370
 444,03; 8606,369;  301,826;16785,378;50,38079
 444,62; 8500,348;  224,441;16606,793;50,51721
 445,21; 8454,957;  230,442;16478,895;50,61722
 445,80; 8403,163;  261,747;16379,635;50,51168
 446,39; 8325,732;  281,055;16095,117;50,87040
 446,97; 8149,045;  220,128;15973,656;50,33105
 447,56; 8053,903;  225,126;15675,759;50,66962
 448,15; 7926,173;  227,205;15514,190;50,36289
 448,74; 7818,848;  236,128;15319,861;50,27084
 449,33; 7732,882;  225,588;15159,938;50,26864
 449,91; 7622,237;  221,893;14881,259;50,48202
 450,50; 7532,815;  218,893;14701,182;50,50253
 451,09; 7491,168;  228,662;14577,224;50,61487
 451,68; 7406,801;  246,815;14526,502;50,14106
 452,26; 7345,677;  243,891;14416,541;50,10909
 452,85; 7313,058;  232,045;14236,357;50,56309
 453,44; 7320,438;  249,734;14298,998;50,32793
 454,03; 7272,091;  215,659;14234,959;50,33369
 454,61; 7254,877;  215,426;14233,712;50,21621
 455,20; 7372,563;  237,194;14401,613;50,37530
 455,79; 7368,958;  247,196;14396,801;50,33188
 456,38; 7427,314;  239,115;14480,917;50,47254
 456,97; 7465,328;  231,885;14521,528;50,62018
 457,55; 7432,674;  217,114;14533,011;50,40243
 458,14; 7436,819;  253,039;14534,934;50,29991
 458,73; 7421,497;  238,575;14474,263;50,45715
 459,31; 7436,877;  268,650;14548,340;50,19875
 459,90; 7453,596;  266,190;14576,024;50,22704
 460,49; 7538,521;  332,190;14714,566;50,10529
 461,08; 7545,007;  225,418;14821,831;50,14649
 461,66; 7567,363;  233,881;14804,485;50,33066
 462,25; 7641,855;  237,571;14858,391;50,64205
 462,84; 7626,984;  271,341;14942,699;50,13608
 463,43; 7585,478;  203,107;14914,396;50,18167
 464,01; 7616,931;  227,875;14922,900;50,28271
 464,60; 7614,632;  289,108;14916,310;50,08151
 465,19; 7445,308;  203,644;14633,323;50,18590
 465,77; 7452,722;  234,488;14644,208;50,09281
 466,36; 7428,191;  253,876;14500,596;50,35766
 466,95; 7263,768;  235,491;14160,297;50,47307
 467,53; 7105,368;  231,256;13904,259;50,27507
 468,12; 6953,049;  264,718;13623,195;50,06807
 468,71; 6807,403;  232,643;13386,361;49,98404
 469,29; 6679,437;  209,102;13108,374;50,16047
 469,88; 6547,879;  221,793;12873,810;50,00061
 470,47; 6621,754;  281,329;13000,088;49,85097
 471,06; 6532,827;  237,022;12947,067;49,53409
 471,64; 6599,707;  233,792;13032,571;49,73846
 472,23; 6566,057;  217,710;13049,729;49,47271
 472,81; 6606,137;  210,405;13158,182;49,39638
 473,40; 6674,915;  228,710;13282,644;49,38132
 473,99; 6822,033;  320,172;13507,891;49,30239
 474,57; 6820,765;  231,864;13569,434;49,40106
 475,16; 6897,850;  244,173;13707,849;49,41947
 475,75; 6983,803;  246,093;13878,533;49,42409
 476,33; 6971,796;  249,861;13953,439;49,05241
 476,92; 6997,734;  256,018;14004,336;49,03666
 477,51; 7024,772;  251,939;14140,131;48,76685
 478,09; 7031,701;  247,631;14150,857;48,79493
 478,68; 7007,616;  258,938;14016,819;49,05318
 479,27; 6992,856;  283,401;14136,618;48,43247
 479,85; 6989,718;  253,092;14043,426;48,85035
 480,44; 7003,019;  230,937;14183,015;48,53816
 481,02; 7646,020;  256,397;15469,503;48,57406
 481,61; 8621,531;  276,706;17579,866;48,22717
 482,20; 9206,508;  254,936;18794,122;48,28460
 482,78; 9517,631;  289,553;19617,836;47,74391
 483,37; 9825,133;  275,010;20203,289;47,92247
 483,95; 9997,153;  300,395;20526,956;47,94072
 484,54; 9967,630;  310,629;20749,998;47,24706
 485,13; 9958,400;  271,931;20638,075;47,56162
 485,71; 9858,716;  248,932;20437,114;47,60104
 486,30; 9752,183;  292,932;20118,225;47,71304
 486,88; 9569,537;  339,393;19756,357;47,53649
 487,47; 9226,430;  305,469;18999,951;47,71975
 488,05; 8819,136;  299,930;18136,204;47,76338
 488,64; 8160,325;  282,236;16822,511;47,62973
 489,23; 7322,177;  309,545;14968,763;47,83770
 489,81; 6216,035;  293,544;12807,451;47,32727
 490,40; 5859,198;  247,698;12153,204;47,13365
 490,98; 5696,642;  242,851;11883,187;46,85252
 491,57; 5665,170;  268,775;11811,644;46,75090
 492,15; 5630,989;  249,774;11741,426;46,82716
 492,74; 5570,523;  269,622;11602,755;46,77348
 493,32; 5527,045;  278,159;11485,375;46,83488
 493,91; 5458,121;  253,927;11425,618;46,58377
 494,50; 5451,637;  258,078;11390,601;46,65213
 495,08; 5393,733;  238,001;11299,943;46,60784
 495,67; 5347,836;  266,389;11347,058;45,85867
 496,25; 5272,891;  210,002;11181,105;46,14749
 496,84; 5263,876;  223,158;11147,524;46,14197
 497,42; 5253,144;  213,232;11127,631;46,17673
 498,01; 5238,485;  252,004;11103,571;45,95172
 498,59; 5163,506;  216,232;11009,652;45,83602
 499,18; 5127,416;  219,850;10958,695;45,69920
 499,76; 5101,918;  243,310;10887,110;45,64731
 500,35; 4992,374;  235,923;10681,110;45,53725
 500,93; 4978,148;  225,617;10649,729;45,59171
 501,52; 4939,326;  227,463;10557,033;45,61529
 502,10; 4893,075;  229,922;10562,332;45,13132
 502,69; 4777,830;  226,536;10390,879;44,77706
 503,27; 4703,633;  213,308;10160,811;45,14023
 503,86; 4627,866;  226,690;10117,319;44,49844
 504,44; 4582,385;  198,920; 9980,832;44,81195
 505,03; 4415,252;  189,612; 9763,187;44,13858
 505,61; 4382,099;  214,305; 9626,644;44,28010
 506,19; 4313,374;  228,305; 9506,148;44,03038
 506,78; 4233,328;  197,995; 9318,823;44,24305
 507,36; 4113,153;  202,305; 9169,435;43,61315
 507,95; 4037,267;  206,609; 8967,935;43,72235
 508,53; 3982,127;  200,457; 8839,080;43,77631
 509,12; 3915,125;  219,917; 8732,153;43,41054
 509,70; 3859,156;  233,301; 8577,503;43,45359
 510,29; 3798,610;  242,531; 8439,392;43,38342
 510,87; 3675,086;  205,533; 8183,986;43,48653
 511,46; 3587,860;  189,533; 8086,332;43,03424
 512,04; 3517,150;  205,686; 7932,627;42,85609
 512,62; 3473,174;  209,918; 7792,058;43,03871
 513,21; 3344,837;  196,454; 7627,370;42,36870
 513,79; 3314,849;  203,297; 7534,648;42,44173
 514,38; 3226,539;  191,990; 7356,845;42,35324
 514,96; 3175,741;  225,683; 7260,366;41,93591
 515,54; 3110,052;  189,990; 7101,935;42,24661
 516,13; 3053,681;  216,759; 7077,247;41,35161
 516,71; 2961,927;  199,219; 6900,285;41,22790
 517,30; 2919,900;  189,602; 6777,909;41,44158
 517,88; 2896,715;  217,833; 6696,640;41,34838
 518,46; 2806,106;  189,756; 6589,999;40,87893
 519,05; 2755,353;  202,139; 6529,725;40,35053
 519,63; 2740,727;  208,063; 6461,883;40,49787
 520,22; 2738,161;  236,291; 6396,901;40,61075
 520,80; 2638,322;  208,599; 6356,563;39,52078
 521,38; 2674,109;  249,677; 6324,495;39,90955
 521,97; 2621,800;  209,598; 6288,674;39,68041
 522,55; 2606,046;  221,444; 6249,687;39,55716
 523,13; 2574,419;  193,905; 6226,473;39,46103
 523,72; 2554,228;  201,756; 6181,499;39,34070
 524,30; 2602,983;  226,366; 6308,794;39,07350
 524,89; 2564,115;  189,905; 6273,875;39,02402
 525,47; 2593,752;  223,134; 6436,029;38,15641
 526,05; 2585,170;  185,826; 6496,311;38,02155
 526,64; 2635,290;  235,903; 6544,114;38,03593
 527,22; 2668,803;  223,904; 6686,717;37,83026
 527,80; 2721,196;  252,441; 6790,704;37,75857
 528,39; 2698,302;  215,440; 6899,738;37,14469
 528,97; 2755,687;  217,518; 7022,426;37,29910
 529,55; 2801,383;  229,520; 7231,490;36,73056
 530,14; 2871,704;  228,209; 7420,922;36,75240
 530,72; 2855,078;  213,672; 7478,076;36,36094
 531,30; 2898,326;  183,747; 7650,123;36,35739
 531,89; 2913,593;  206,363; 7726,644;35,99905
 532,47; 2953,547;  243,593; 7835,225;35,69660
 533,05; 2939,652;  239,903; 7874,131;35,36375
 533,63; 2956,181;  234,747; 7890,418;35,54796
 534,22; 2934,320;  205,131; 7928,713;35,33580
 534,80; 2965,132;  238,822; 8044,909;34,92543
 535,38; 3049,473;  320,516; 8141,619;34,89222
 535,97; 2941,287;  210,516; 8068,277;34,75253
 536,55; 2978,237;  273,514; 8157,157;34,30803
 537,13; 2943,463;  276,440; 8150,866;33,86943
 537,71; 2936,687;  310,132; 8166,896;33,43049
 538,30; 2951,526;  325,669; 8256,648;33,10886
 538,88; 2963,731;  354,052; 8327,755;32,72858
 539,46; 3056,147;  408,899; 8514,845;32,65810
 540,05; 3072,126;  403,975; 8620,114;32,47450
 540,63; 3101,885;  457,975; 8814,059;31,64054
 541,21; 3139,967;  482,589; 8956,486;31,35957
 541,79; 3173,157;  507,436; 9126,469;30,92831
 542,38; 3208,810;  539,360; 9204,913;30,80531
 542,96; 3250,299;  556,588; 9376,337;30,54180
 543,54; 3302,288;  570,282; 9579,255;30,32539
 544,12; 3293,693;  529,435; 9696,845;30,15310
 544,70; 3319,469;  511,204; 9855,285;30,05395
 545,29; 3352,529;  522,668; 9943,533;30,03823
 545,87; 3351,157;  520,743; 9958,777;29,98944
 546,45; 3326,163;  476,206; 9995,260;29,93950
 547,03; 3321,285;  450,282;10089,230;29,78543
 547,62; 3366,410;  417,974;10221,298;30,07588
 548,20; 3417,543;  428,819;10364,644;30,08027
 548,78; 3418,038;  388,124;10462,580;30,07521
 549,36; 3419,460;  369,740;10717,879;29,47120
 549,94; 3453,579;  330,820;10753,931;29,95995
 550,53; 3500,337;  327,432;11007,285;29,70925
 551,11; 3480,173;  309,508;11176,781;29,17627
 551,69; 3551,064;  320,355;11465,273;28,98819
 552,27; 3595,345;  271,818;11710,093;29,05619
 552,85; 3667,244;  280,585;12103,593;28,64465
 553,44; 3741,654;  286,663;12378,961;28,57183
 554,02; 3813,392;  300,124;12654,093;28,43838
 554,60; 3806,775;  233,585;12918,320;28,16921
 555,18; 3935,727;  265,355;13307,016;28,14344
 555,76; 3954,567;  260,893;13653,371;27,58021
 556,34; 4075,598;  275,430;13991,273;27,70641
 556,93; 4148,856;  262,201;14388,948;27,51274
 557,51; 4182,260;  232,891;14755,170;27,19524
 558,09; 4291,410;  265,740;15098,345;27,14068
 558,67; 4328,229;  261,429;15430,691;26,80948
 559,25; 4409,080;  270,968;15672,170;26,86876
 559,83; 4402,156;  237,582;16057,644;26,32464
 560,41; 4481,086;  243,199;16329,657;26,34443
 561,00; 4553,809;  255,967;16659,478;26,20074
 561,58; 4561,264;  238,584;16947,418;25,87063
 562,16; 4601,235;  242,969;17243,768;25,63565
 562,74; 4655,993;  223,508;17582,388;25,53439
 563,32; 4740,073;  210,043;18026,918;25,42550
 563,90; 4802,481;  249,583;18359,508;25,14035
 564,48; 4882,420;  249,200;18754,734;25,03694
 565,06; 5013,109;  242,506;19298,508;25,03465
 565,65; 5095,941;  246,888;19959,760;24,59841
 566,23; 5309,332;  296,736;20662,926;24,61234
 566,81; 5400,920;  245,660;21389,059;24,38236
 567,39; 5556,221;  256,197;22319,811;24,02156
 567,97; 5699,590;  266,198;22873,619;24,03366
 568,55; 5883,677;  280,582;23783,234;23,84027
 569,13; 6001,533;  243,813;24431,824;23,80402
 569,71; 6116,152;  243,893;25404,965;23,33867
 570,29; 6372,214;  278,893;26342,713;23,37847
 570,87; 6521,749;  285,354;27066,849;23,28621
 571,45; 6586,910;  267,198;27717,085;23,02273
 572,03; 6617,378;  235,274;28116,067;22,89069
 572,61; 6736,036;  222,274;28951,153;22,67322
 573,20; 6849,963;  257,430;29551,008;22,50505
 573,78; 6948,632;  243,890;30118,426;22,44300
 574,36; 7050,330;  262,505;30688,687;22,30916
 574,94; 7107,536;  321,427;31016,324;22,10826
 575,52; 7073,193;  249,810;31214,294;22,03616
 576,10; 7197,939;  303,887;31765,832;21,91235
 576,68; 7220,163;  298,581;32340,773;21,60146
 577,26; 7356,223;  307,963;33090,559;21,50001
 577,84; 7388,829;  313,198;33542,837;21,29313
 578,42; 7443,701;  358,965;33877,397;21,13684
 579,00; 7329,807;  313,197;33915,396;20,88140
 579,58; 7395,254;  358,042;34096,174;20,85833
 580,16; 7288,335;  308,195;34110,435;20,64993
 580,74; 7302,008;  316,195;34375,401;20,51079
 581,32; 7205,631;  322,273;34369,747;20,21694
 581,90; 7204,924;  329,272;34303,123;20,23807
 582,48; 7159,817;  328,272;34453,713;20,01892
 583,06; 7105,783;  318,273;34590,426;19,80474
 583,64; 7070,956;  324,889;34648,614;19,65424
 584,22; 7052,146;  342,040;34468,170;19,66266
 584,80; 6953,440;  336,965;34092,063;19,60141
 585,38; 6815,874;  355,353;33784,696;19,32590
 585,96; 6751,210;  315,735;33751,666;19,24718
 586,54; 6683,409;  348,733;33736,897;18,97282
 587,12; 6625,299;  309,118;33973,303;18,76232
 587,70; 6625,653;  337,812;34128,093;18,60843
 588,28; 6560,678;  313,272;34026,730;18,53090
 588,86; 6521,364;  321,502;34187,085;18,30726
 589,44; 6460,417;  299,423;34186,969;18,18070
 590,02; 6473,252;  309,347;34351,666;18,10660
 590,59; 6465,844;  284,964;34578,662;18,02337
 591,17; 6464,547;  303,729;34693,392;17,91474
 591,75; 6439,000;  278,884;34799,016;17,84500
 592,33; 6442,445;  308,962;35008,140;17,67616
 592,91; 6425,039;  255,499;35236,029;17,63707
 593,49; 6430,127;  267,883;35565,798;17,45781
 594,07; 6385,101;  287,883;35788,794;17,17482
 594,65; 6382,760;  300,271;35772,234;17,14731
 595,23; 6409,570;  283,270;36175,414;17,06864
 595,81; 6391,365;  296,116;36321,884;16,91914
 596,39; 6339,612;  287,423;36461,525;16,73072
 596,97; 6333,921;  275,576;36559,935;16,69685
 597,55; 6309,632;  274,194;36480,627;16,66952
 598,12; 6248,768;  245,497;36512,422;16,55302
 598,70; 6241,335;  245,191;36662,042;16,46530
 599,28; 6210,705;  283,268;36867,952;16,20196
 599,86; 6209,360;  254,499;36829,033;16,28144
 600,44; 6145,238;  241,883;36966,538;16,07464
 601,02; 6169,566;  294,496;36932,542;16,03544
 601,60; 6088,873;  272,500;36973,021;15,84820
 602,18; 6059,059;  247,113;36930,397;15,84358
 602,75; 6017,691;  250,654;37065,533;15,66496
 603,33; 6035,823;  264,960;37078,508;15,67592
 603,91; 5998,182;  243,035;37002,533;15,65622
 604,49; 5976,855;  282,883;37014,085;15,50173
 605,07; 5947,072;  284,884;37183,136;15,34541
 605,65; 5926,825;  295,267;37189,832;15,26392
 606,23; 5928,083;  350,041;37287,012;15,10151
 606,80; 5899,881;  384,885;37392,670;14,90226
 607,38; 5831,353;  421,958;37380,170;14,63652
 607,96; 5861,393;  461,808;37486,820;14,58361
 608,54; 5848,014;  524,959;37474,354;14,40634
 609,12; 5811,481;  539,270;37559,580;14,24140
 609,70; 5807,733;  571,960;37639,811;14,12484
 610,27; 5785,637;  564,655;37785,358;14,02709
 610,85; 5803,758;  585,114;37749,956;14,04188
 611,43; 5743,084;  582,806;37736,841;13,88888
 612,01; 5697,890;  548,577;37484,273;13,94129
 612,59; 5684,328;  556,806;37576,841;13,85067
 613,16; 5592,572;  524,194;37437,341;13,73055
 613,74; 5563,347;  490,268;37386,495;13,74959
 614,32; 5569,410;  458,882;37316,730;13,86551
 614,90; 5539,060;  435,038;37231,995;13,87077
 615,48; 5460,960;  373,040;36866,751;13,94191
 616,05; 5402,657;  343,348;36856,845;13,85600
 616,63; 5387,584;  365,733;36721,862;13,81294
 617,21; 5377,770;  348,193;36611,311;13,86968
 617,79; 5322,310;  343,885;36569,405;13,74287
 618,36; 5285,569;  342,807;36469,119;13,68189
 618,94; 5187,234;  295,886;36158,627;13,63908
 619,52; 5193,940;  312,425;35846,388;13,73760
 620,10; 5146,354;  292,039;35860,123;13,64795
 620,67; 5133,876;  298,349;35807,388;13,61774
 621,25; 5110,083;  324,807;35706,204;13,52483
 621,83; 5071,793;  303,117;35599,982;13,51020
 622,41; 5110,125;  359,501;35657,281;13,45870
 622,98; 5031,327;  317,503;35302,550;13,47383
 623,56; 5016,160;  318,272;35275,700;13,43888
 624,14; 4990,289;  306,191;35161,063;13,43886
 624,72; 4975,249;  301,424;35078,179;13,43951
 625,29; 4966,760;  285,810;35174,072;13,41698
 625,87; 5013,198;  332,731;35105,191;13,46027
 626,45; 4913,464;  287,042;34915,213;13,36029
 627,02; 4891,004;  292,346;34950,879;13,26847
 627,60; 4853,442;  271,267;34878,764;13,24041
 628,18; 4860,404;  258,270;34918,965;13,27767
 628,76; 4854,308;  265,041;34954,439;13,22960
 629,33; 4883,326;  292,963;34885,867;13,26967
 629,91; 4874,200;  276,962;34917,431;13,27129
 630,49; 4911,169;  291,117;35059,687;13,28801
 631,06; 4895,310;  289,195;35196,452;13,19529
 631,64; 4881,368;  288,888;35120,640;13,18475
 632,22; 4860,652;  248,811;35036,563;13,25708
 632,79; 4915,714;  282,427;35309,704;13,22765
 633,37; 4867,475;  252,577;35401,709;13,12948
 633,95; 4917,243;  262,657;35488,114;13,21370
 634,52; 4937,223;  246,578;35618,944;13,26076
 635,10; 4946,059;  264,039;35689,738;13,21645
 635,68; 4960,903;  264,504;35817,610;13,20953
 636,25; 4955,927;  248,351;35772,503;13,25176
 636,83; 4966,385;  228,964;35999,593;13,24388
 637,41; 5014,515;  249,273;36041,354;13,31368
 637,98; 5073,422;  283,504;36243,636;13,32008
 638,56; 5034,030;  264,044;36299,657;13,23687
 639,13; 5023,833;  242,349;36295,589;13,26229
 639,71; 5147,951;  312,810;36469,841;13,37262
 640,29; 5042,504;  224,194;36269,643;13,36732
 640,86; 5090,855;  241,348;36562,378;13,35179
 641,44; 5081,513;  240,810;36416,421;13,38112
 642,02; 5118,710;  268,117;36501,617;13,38704
 642,59; 5129,984;  241,117;36507,968;13,48026
 643,17; 5140,797;  242,656;36583,780;13,47823
 643,74; 5150,686;  243,425;36595,976;13,49908
 644,32; 5177,191;  270,809;36562,865;13,51916
 644,89; 5179,618;  263,963;36575,523;13,53744
 645,47; 5209,354;  266,886;36564,951;13,61634
 646,05; 5229,628;  263,502;36439,147;13,72782
 646,62; 5181,594;  248,117;36521,421;13,60085
 647,20; 5210,714;  254,732;36625,464;13,62629
 647,77; 5195,218;  233,271;36563,429;13,65793
 648,35; 5205,569;  230,886;36454,011;13,73345
 648,92; 5227,997;  254,040;36523,592;13,71386
 649,50; 5220,886;  220,886;36442,327;13,80398
 650,08; 5209,006;  220,886;36275,985;13,83472
 650,65; 5253,819;  236,039;36535,335;13,82335
 651,23; 5349,708;  213,193;37329,378;13,83902
 651,80; 5534,982;  217,193;38230,959;13,98911
 652,38; 5637,179;  230,809;38683,233;14,05989
 652,95; 5681,145;  216,885;39039,891;14,07480
 653,53; 5741,342;  243,116;39355,241;14,05760
 654,10; 5824,923;  269,347;39470,284;14,17205
 654,68; 5780,813;  215,885;39351,865;14,21947
 655,25; 5802,625;  215,577;39531,139;14,21078
 655,83; 5852,284;  211,654;39701,489;14,28375
 656,40; 5875,865;  262,347;39471,994;14,31668
 656,98; 5836,447;  218,116;39510,806;14,29867
 657,55; 5884,951;  228,039;39312,694;14,47349
 658,13; 5827,687;  223,423;38933,891;14,47739
 658,70; 5812,961;  250,500;38701,780;14,46626
 659,28; 5692,465;  231,192;37787,977;14,54138
 659,85; 5600,739;  247,962;36911,327;14,59980
 660,43; 5620,167;  245,577;37010,600;14,61876
 661,00; 5633,441;  217,038;37113,336;14,68007
 661,58; 5719,022;  226,808;37430,224;14,76266
 662,15; 5705,989;  214,038;37623,575;14,68062
 662,73; 5896,647;  296,269;37994,771;14,85570
 663,30; 5886,075;  233,346;38122,814;14,91900
 663,88; 5959,195;  238,115;38285,165;15,03686
 664,45; 5998,776;  221,192;38475,515;15,10309
 665,03; 6084,127;  225,192;38934,096;15,13589
 665,60; 6254,786;  315,961;39296,524;15,23535
 666,17; 6199,829;  231,730;39435,643;15,22322
 666,75; 6290,257;  237,884;39837,917;15,28376
 667,32; 6409,838;  257,422;40136,652;15,42762
 667,90; 6456,958;  248,576;40373,925;15,47247
 668,47; 6537,001;  254,268;40711,507;15,52932
 669,05; 6606,044;  238,422;41041,319;15,60581
 669,62; 6626,626;  215,268;41094,207;15,68377
 670,19; 6666,208;  207,576;41221,096;15,74757
 670,77; 6765,943;  225,191;41436,831;15,87113
 671,34; 6787,525;  222,653;41280,489;15,98933
 671,92; 6865,106;  223,268;41671,994;16,02423
 672,49; 6921,072;  249,114;41653,036;16,11431
 673,06; 6905,962;  180,576;41684,848;16,20408
 673,64; 6939,236;  209,037;41721,814;16,21235
 674,21; 6969,125;  198,806;41601,780;16,35225
 674,79; 7044,629;  237,498;41879,361;16,34685
 675,36; 7109,826;  243,345;41950,096;16,46372
 675,93; 7113,793;  207,883;41798,447;16,60451
 676,51; 7151,297;  233,883;41996,797;16,56353
 677,08; 7203,417;  238,267;42145,609;16,62036
 677,65; 7254,537;  227,344;42244,575;16,72455
 678,23; 7326,042;  235,806;42378,002;16,82455
 678,80; 7387,162;  226,344;42468,276;16,95192
 679,38; 7436,359;  215,421;42651,934;17,01586
 679,95; 7556,787;  226,498;42874,669;17,18782
 680,52; 7593,599;  226,806;43211,404;17,13822
 681,10; 7749,027;  242,344;43619,908;17,30545
 681,67; 7792,454;  240,652;43908,336;17,29380
 682,24; 7911,575;  205,882;43960,840;17,61102
 682,82; 7993,541;  215,113;44518,267;17,55728
 683,39; 8218,507;  261,805;44947,541;17,80591
 683,96; 8260,704;  228,113;45163,353;17,87593
 684,54; 8324,362;  214,882;45566,549;17,88133
 685,11; 8513,482;  261,574;45995,977;18,04311
 685,68; 8559,372;  220,343;46347,635;18,07830
 686,25; 8638,261;  209,574;46329,678;18,27552
 686,83; 8693,073;  224,266;46587,182;18,26634
 687,40; 8835,963;  205,805;46909,071;18,47870
 687,97; 9003,544;  262,882;47309,114;18,57888
 688,55; 9010,203;  212,266;47325,926;18,67385
 689,12; 9128,477;  191,728;47588,045;18,85537
 689,69; 9182,750;  201,497;47694,703;18,91061
 690,26; 9268,024;  218,035;47746,208;19,04132
 690,84; 9330,452;  217,112;48066,327;19,04595
 691,41; 9396,649;  228,343;48172,062;19,12306
 691,98; 9532,846;  228,189;48503,951;19,27397
 692,56; 9536,043;  220,650;48556,763;19,27212
 693,13; 9661,701;  276,573;48519,652;19,45383
 693,70; 9748,668;  239,343;48637,233;19,64822
 694,27; 9748,249;  216,419;48796,430;19,62089
 694,84; 9822,985;  213,189;48898,011;19,73879
 695,42; 9955,489;  261,650;49019,361;19,88165
 695,99;10046,532;  217,727;49180,327;20,07411
 696,56;10035,883;  216,496;49034,062;20,11445
 697,13;10179,849;  232,650;49420,720;20,22279
 697,71;10230,892;  209,727;49394,686;20,37445
 698,28;10315,782;  217,727;49714,037;20,40163
 698,85;10382,671;  199,727;49725,003;20,56111
 699,42;10401,099;  202,342;49934,584;20,50733
 699,99;10529,142;  240,803;50030,319;20,66366
 700,57;10595,031;  232,342;50115,362;20,77398
 701,14;10656,536;  206,573;50235,712;20,88775
 701,71;10807,117;  232,803;50426,062;21,06720
 702,28;10827,776;  229,034;50475,259;21,09361
 702,85;10893,127;  224,495;50574,686;21,18886
 703,43;11035,401;  251,342;50838,037;21,31797
 704,00;11146,982;  245,726;50977,849;21,48788
 704,57;11137,256;  235,188;51011,738;21,47068
 705,14;11298,607;  252,880;51250,088;21,65947
 705,71;11378,342;  259,880;51277,054;21,79357
 706,28;11367,078;  231,880;51163,327;21,86311
 706,86;11440,967;  260,187;51476,755;21,83040
 707,43;11541,702;  289,957;51421,721;22,00539
 708,00;11586,592;  259,803;51456,071;22,12425
 708,57;11599,404;  234,956;51246,421;22,27822
 709,14;11688,755;  261,879;51501,926;22,30067
 709,71;11789,413;  241,572;51586,738;22,49061
 710,28;11846,918;  236,418;51710,165;22,55616
 710,86;11959,346;  244,725;51954,054;22,65475
 711,43;12064,081;  267,495;51845,866;22,87119
 712,00;12062,047;  249,494;51973,447;22,83768
 712,57;12180,090;  261,802;52051,182;23,01300
 713,14;12250,441;  234,417;52193,994;23,12572
 713,71;12254,407;  246,802;52137,652;23,14012
 714,28;12373,220;  235,033;52217,926;23,35035
 714,85;12306,263;  221,110;51842,968;23,41092
 715,42;12435,921;  225,417;52187,396;23,49892
 716,00;12578,195;  300,033;52292,977;23,61506
 716,57;12662,931;  233,263;52374,943;23,83826
 717,14;12635,358;  211,725;52272,447;23,86374
 717,71;12684,401;  212,725;52283,874;23,95122
 718,28;12840,214;  265,955;52493,917;24,07572
 718,85;12835,872;  204,955;52412,575;24,19363
 719,42;13026,377;  241,878;52662,080;24,38850
 719,99;12968,112;  219,571;52385,892;24,43826
 720,56;13142,079;  243,417;52752,242;24,56475
 721,13;13205,891;  217,032;52790,823;24,70596
 721,70;13277,857;  203,724;52633,174;24,93662
 722,27;13279,746;  232,186;52831,601;24,80552
 722,84;13430,251;  288,493;52843,721;25,00561
 723,41;13425,910;  208,032;52888,686;25,09057
 723,98;13532,107;  221,570;53198,268;25,12527
 724,55;13649,611;  256,724;53259,772;25,26815
 725,12;13720,424;  181,185;53261,738;25,50697
 725,69;13860,313;  208,570;53273,627;25,72643
 726,27;13961,510;  221,570;53351,208;25,86116
 726,84;14070,861;  233,031;53717,558;25,87258
 727,41;14200,750;  241,262;53692,986;26,11607
 727,98;14312,716;  235,493;53909,259;26,22738
 728,55;14332,913;  274,339;53881,456;26,22520
 729,12;14396,879;  209,185;54031,575;26,36021
 729,69;14505,307;  235,339;54118,464;26,48319
 730,26;14606,350;  239,108;54533,507;26,46174
 730,82;14633,547;  229,569;54254,781;26,66158
 731,39;14763,052;  229,031;54317,746;26,87071
 731,96;14892,633;  214,800;54680,251;26,94889
 732,53;15063,907;  236,185;54873,678;27,13837
 733,10;15131,412;  243,031;54889,028;27,24514
 733,67;15244,993;  236,184;55261,302;27,27629
 734,24;15191,806;  217,031;54871,499;27,39900
 734,81;15349,233;  259,492;54910,464;27,61111
 735,38;15287,892;  232,954;54665,661;27,65789
 735,95;15318,627;  228,107;54563,473;27,77292
 736,52;15454,440;  236,723;54779,823;27,90035
 737,09;15462,483;  248,646;54388,712;28,10088
 737,66;15599,757;  286,030;54600,140;28,19475
 738,23;15707,107;  226,030;54758,721;28,38862
 738,80;15862,458;  307,722;55002,148;28,43934
 739,37;15951,886;  261,645;55128,652;28,59686
 739,94;16010,314;  236,953;55163,387;28,71725
 740,51;16215,357;  366,338;55300,507;28,85093
 741,07;16187,554;  233,722;55208,781;29,02013
 741,64;16329,597;  273,107;55394,054;29,12956
 742,21;16432,640;  238,722;55571,558;29,26638
 742,78;16450,529;  213,030;55299,755;29,47625
 743,35;16526,649;  232,183;55646,105;29,40500
 743,92;16686,923;  280,876;55889,379;29,50277
 744,49;16694,043;  273,183;55738,191;29,60580
 745,06;16777,471;  230,568;55709,695;29,82546
 745,63;16807,283;  223,029;55595,276;29,95048
 746,19;16858,634;  227,183;55560,858;30,05665
 746,76;16940,600;  236,798;55580,516;30,18193
 747,33;17024,951;  243,183;55549,020;30,34357
 747,90;17127,225;  263,798;55781,140;30,37506
 748,47;17166,037;  240,875;55719,336;30,50763
 749,04;17236,388;  244,567;55769,148;30,60234
 749,61;17280,047;  279,183;55687,729;30,68275
 750,17;17386,859;  265,413;55746,234;30,86012
 750,74;17324,364;  251,875;55801,200;30,73393
 751,31;17363,022;  232,413;55590,319;30,94519
 751,88;17414,835;  216,336;55543,208;31,08525
 752,45;17564,647;  231,490;55604,251;31,30268
 753,02;17521,998;  260,413;55423,140;31,29212
 753,58;17543,656;  232,490;55410,875;31,37309
 754,15;17658,776;  219,028;55610,918;31,48430
 754,72;17619,358;  230,028;55382,806;31,52938
 755,29;17623,324;  221,721;55210,541;31,64571
 755,86;17797,675;  253,490;55419,430;31,80257
 756,42;17815,026;  251,336;55133,781;32,00238
 756,99;17784,684;  215,182;55231,285;31,93520
 757,56;17876,112;  229,874;55230,405;32,08376
 758,13;17928,078;  179,951;55113,447;32,30839
 758,70;18094,429;  215,489;55279,875;32,46915
 759,26;18239,857;  202,643;55239,687;32,77286
 759,83;18231,284;  227,028;55372,883;32,64843
 760,40;18289,712;  210,566;55218,311;32,86655
 760,97;18312,063;  206,489;55244,353;32,89658
 761,53;18261,567;  185,643;54956,396;33,00288
 762,10;18293,072;  186,412;54850,362;33,12359
 762,67;18363,038;  214,489;54907,097;33,18282
 763,24;18292,774;  173,874;54437,601;33,39044
 763,80;18493,894;  207,797;54611,798;33,61168
 764,37;18481,014;  211,181;54580,148;33,60342
 764,94;18387,442;  197,258;54198,499;33,68475
 765,50;18398,869;  205,335;54206,695;33,69088
 766,07;18558,220;  237,489;54177,507;33,96501
 766,64;18425,494;  214,719;53884,319;33,93127
 767,21;18468,383;  213,873;53796,977;34,06766
 767,77;18517,888;  234,719;53682,943;34,20725
 768,34;18525,700;  223,950;53621,448;34,27455
 768,91;18543,513;  233,719;53493,260;34,37843
 769,47;18615,940;  232,488;53468,072;34,53226
 770,04;18582,060;  245,719;53389,037;34,50357
 770,61;18507,103;  219,180;53037,695;34,62408
 771,18;18528,839;  211,334;53017,969;34,68788
 771,74;18637,728;  226,873;53148,935;34,78862
 772,31;18679,925;  236,103;52924,131;35,00572
 772,88;18626,276;  205,796;52656,174;35,11982
 773,44;18591,319;  202,565;52564,832;35,11833
 774,01;18716,285;  233,796;52605,952;35,29068
 774,58;18674,867;  215,642;52376,456;35,38907
 775,14;18707,218;  208,411;52458,191;35,40456
 775,71;18724,184;  210,795;52348,926;35,50835
 776,27;18857,612;  273,641;52254,661;35,75145
 776,84;18862,732;  312,180;52286,243;35,69194
 777,41;18851,852;  226,411;52017,901;35,96236
 777,97;18856,741;  215,795;51779,713;36,15114
 778,54;18877,861;  231,641;52002,294;36,01697
 779,11;18972,673;  260,641;51813,490;36,29680
 779,67;18996,870;  216,487;51780,072;36,42180
 780,24;19030,221;  231,949;51504,576;36,66337
 780,80;19090,264;  235,949;51658,234;36,66565
 781,37;19148,230;  237,795;51581,200;36,83128
 781,94;19130,812;  230,948;51445,858;36,90305
 782,50;19161,855;  228,179;51259,670;37,10195
 783,07;19174,437;  257,564;51261,097;37,08934
 783,63;19192,787;  221,871;51107,909;37,28118
 784,20;19165,061;  248,179;51014,798;37,26244
 784,77;19096,027;  232,410;50773,302;37,32348
 785,33;19153,224;  210,102;50667,037;37,54315
 785,90;19198,883;  228,102;50623,926;37,64356
 786,46;19203,618;  256,102;50497,815;37,71272
 787,03;19204,123;  228,102;50236,243;37,94586
 787,59;19216,166;  232,563;50226,978;37,97145
 788,16;19268,594;  235,871;50217,020;38,07980
 788,73;19222,945;  236,409;50094,217;38,08137
 789,29;19189,834;  230,640;49793,875;38,25254
 789,86;19274,262;  258,178;49607,226;38,53384
 790,42;19245,536;  238,101;49520,038;38,56877
 790,99;19046,271;  241,871;49234,388;38,38219
 791,55;19168,237;  233,255;49198,969;38,66988
 792,12;19228,126;  270,794;49232,320;38,71884
 792,68;19091,246;  239,178;48915,901;38,72912
 793,25;19212,290;  249,409;48664,020;39,16768
 793,81;19143,717;  318,486;48265,909;39,26224
 794,38;19031,683;  209,870;48136,952;39,27177
 794,94;19069,573;  239,870;48136,610;39,31312
 795,51;19026,924;  243,255;47862,730;39,44535
 796,07;18926,505;  234,101;47650,696;39,42165
 796,64;19005,241;  262,870;47746,046;39,47160
 797,20;18867,899;  246,178;47193,089;39,66549
 797,77;18798,865;  215,408;46881,670;39,82204
 798,33;18803,293;  244,177;46734,251;39,92060
 798,90;18833,490;  251,485;46698,063;40,00726
 799,46;18751,379;  221,947;46181,798;40,31656
 800,03;18733,115;  244,100;46101,918;40,31813
 800,59;18688,312;  259,254;45974,191;40,31299
 801,15;18696,585;  253,023;45733,850;40,55239
 801,72;18553,859;  240,946;45340,585;40,60545
 802,28;18545,210;  267,946;45057,089;40,80735
 802,85;18462,869;  238,254;44917,132;40,79023
 803,41;18470,989;  228,562;44717,636;41,00429
 803,98;18337,263;  231,946;44265,909;41,11671
 804,54;18292,613;  234,331;44154,568;41,11609
 805,11;18328,810;  247,715;43862,841;41,45602
 805,67;18258,315;  262,254;43846,653;41,29014
 806,23;18193,512;  249,177;43371,003;41,61311
 806,80;18220,170;  260,023;43244,277;41,78309
 807,36;18254,829;  258,253;43238,243;41,87199
 807,93;18228,257;  267,176;43079,055;41,95350
 808,49;18117,377;  233,561;42628,559;42,18379
 809,05;18029,112;  231,561;42517,909;42,08817
 809,62;18156,694;  264,407;42372,183;42,49165
 810,18;18064,814;  250,638;42348,149;42,31646
 810,74;18094,165;  218,022;41992,576;42,79194
 811,31;18048,900;  227,407;41870,234;42,79607
 811,87;18009,943;  254,330;41773,046;42,76532
 812,44;18070,755;  268,176;41687,781;42,98105
 813,00;18028,029;  204,637;41421,439;43,24302
 813,56;18113,919;  255,176;41486,559;43,31347
 814,13;18070,808;  234,945;41479,140;43,24454
 814,69;18115,389;  243,099;41172,414;43,66623
 815,25;17969,510;  209,022;40779,533;43,77684
 815,82;17955,091;  260,637;40770,038;43,67987
 816,38;17969,827;  289,637;40586,696;43,87464
 816,94;17811,639;  226,637;40272,969;43,91164
 817,51;17777,682;  220,637;40085,166;44,04177
 818,07;17697,187;  221,022;39734,670;44,22817
 818,63;17668,999;  234,021;39568,482;44,32494
 819,20;17691,581;  245,329;39580,525;44,35278
 819,76;17521,316;  223,483;39195,260;44,38554
 820,32;17515,205;  248,252;39074,764;44,47207
 820,89;17463,325;  247,021;38918,807;44,51903
 821,45;17353,291;  217,406;38530,927;44,72543
 822,01;17264,642;  252,867;38313,739;44,69623
 822,57;17127,916;  252,559;38158,628;44,51888
 823,14;17108,113;  216,867;37916,132;44,80524
 823,70;17009,233;  220,021;37639,482;44,86759
 824,26;16967,815;  219,482;37478,602;44,95096
 824,82;16993,396;  256,867;37394,875;45,06577
 825,39;16948,362;  228,251;37042,534;45,41746
 825,95;16968,252;  238,328;37083,730;45,40573
 826,51;16851,526;  239,790;36697,234;45,56473
 827,08;16935,415;  270,251;36758,662;45,67248
 827,64;16827,766;  252,097;36598,781;45,60435
 828,20;16786,270;  214,867;36265,901;45,96651
 828,76;16738,083;  253,866;36258,636;45,78342
 829,32;16668,203;  261,251;36200,987;45,65129
 829,89;16675,554;  209,789;35935,106;46,08990
 830,45;16578,597;  237,482;36000,687;45,69253
 831,01;16619,024;  232,712;35591,269;46,34327
 831,57;16601,837;  240,328;35661,388;46,19147
 832,14;16589,264;  221,020;35632,585;46,22288
 832,70;16466,538;  219,558;35308,551;46,30221
 833,26;16563,274;  199,020;35184,824;46,77398
 833,82;16532,394;  229,404;35104,636;46,74661
 834,38;16699,822;  222,558;35095,140;47,24991
 834,95;16573,095;  213,635;35052,260;46,95782
 835,51;16538,062;  190,635;34868,072;47,14139
 836,07;16633,336;  234,173;34910,423;47,29220
 836,63;16727,532;  244,866;34946,158;47,49871
 837,19;16669,037;  234,558;34790,893;47,55851
 837,75;16567,926;  204,481;34431,166;47,80903
 838,32;16577,662;  244,942;34548,901;47,61176
 838,88;16599,320;  241,481;34645,175;47,54675
 839,44;16606,210;  248,865;34467,987;47,80177
 840,00;16629,407;  241,404;34451,337;47,90422
 840,56;16483,527;  222,404;34168,149;47,90327
 841,12;16568,031;  218,634;34182,961;48,13697
 841,68;16492,074;  196,173;33923,004;48,31732
 842,25;16571,041;  232,557;33917,970;48,50314
 842,81;16453,776;  204,942;33732,782;48,46371
 843,37;16513,127;  200,634;33731,594;48,64905
 843,93;16498,093;  227,557;33568,329;48,80072
 844,49;16626,905;  237,788;33657,910;49,03967
 845,05;16523,256;  187,557;33455,260;49,10378
 845,61;16607,145;  245,095;33466,918;49,25091
 846,17;16476,342;  222,172;33305,653;49,13077
 846,73;16582,001;  230,634;33273,542;49,48525
 847,29;16468,813;  211,326;33127,123;49,39114
 847,86;16467,856;  210,249;33033,859;49,53022
 848,42;16412,592;  223,095;32902,594;49,54022
 848,98;16425,943;  228,403;32852,098;49,64962
 849,54;16444,601;  214,633;32873,756;49,69505
 850,10;16427,260;  232,403;32833,183;49,67629
 850,66;16365,226;  212,326;32636,534;49,81741
 851,22;16358,730;  196,864;32571,269;49,92174
 851,78;16442,081;  250,018;32602,235;50,04932
 852,34;16284,278;  232,710;32403,047;49,89556
 852,90;16221,014;  216,556;32242,782;49,97297
 853,46;16252,903;  213,402;32069,671;50,34959
 854,02;16282,638;  231,787;32082,329;50,39428
 854,58;16142,374;  227,171;31738,910;50,50563
 855,14;16111,032;  217,941;31687,953;50,50234
 855,70;16040,460;  177,633;31580,226;50,51439
 856,26;16059,503;  226,171;31551,500;50,54482
 856,82;16052,931;  220,633;31325,773;50,89930
 857,38;16075,589;  247,940;31349,508;50,89020
 857,94;16030,786;  217,786;31077,320;51,24186
 858,50;15995,445;  258,940;31058,594;51,09312
 859,06;15848,872;  215,479;30823,713;51,07578
 859,62;15962,377;  231,709;30848,525;51,37918
 860,18;15952,805;  224,786;30541,876;51,87839
 860,74;15884,925;  197,325;30524,072;51,72859
 861,30;15787,430;  191,171;30301,807;51,79651
 861,86;15923,165;  272,632;30376,235;51,98890
 862,42;15771,054;  219,709;30222,431;51,83311
 862,98;15831,482;  257,247;30116,705;52,15846
 863,54;15740,448;  222,170;29941,901;52,21540
 864,10;15784,337;  223,093;30022,636;52,21974
 864,66;15678,073;  204,016;29791,295;52,29970
 865,22;15646,039;  215,939;29593,491;52,52344
 865,78;15617,467;  222,862;29471,842;52,63296
 866,34;15558,510;  213,170;29417,038;52,54557
 866,90;15539,168;  236,555;29302,158;52,64853
 867,45;15425,442;  230,785;29035,970;52,74973
 868,01;15392,332;  229,324;28878,936;52,92570
 868,57;15376,990;  217,862;28688,363;53,24503
 869,13;15281,264;  205,708;28673,560;52,95642
 869,69;15316,615;  214,400;28441,756;53,50205
 870,25;15238,581;  186,785;28315,337;53,51074
 870,81;15233,162;  220,400;28380,765;53,31168
 871,37;15256,513;  230,862;28330,577;53,47261
 871,93;15158,172;  238,939;28173,081;53,40860
 872,49;15077,138;  262,246;27799,893;53,79868
 873,04;15002,873;  205,477;27732,782;53,75534
 873,60;14968,917;  205,708;27540,440;54,00898
 874,16;14977,575;  232,400;27473,483;54,12845
 874,72;14977,344;  212,938;27433,175;54,24055
 875,28;15009,883;  219,708;27361,713;54,49183
 875,84;15040,037;  230,246;27350,483;54,60790
 876,40;14967,883;  211,631;27344,867;54,38441
 876,95;14969,960;  223,323;27303,098;54,45627
 877,51;14976,190;  246,323;27297,637;54,45158
 878,07;15062,960;  263,400;27292,483;54,75421
 878,63;15109,806;  222,169;27272,867;55,03605
 879,19;15112,960;  240,400;27318,867;54,92393
 879,75;15161,190;  207,554;27394,790;55,00241
 880,30;15272,575;  226,554;27456,252;55,25592
 880,86;15369,190;  267,246;27557,790;55,33764
 881,42;15463,190;  217,938;27581,175;55,71436
 881,98;15540,729;  227,785;27704,867;55,72988
 882,54;15670,344;  216,246;27817,637;55,99029
 883,09;15822,960;  237,400;27976,790;56,18566
 883,65;15945,575;  203,169;28121,944;56,38645
 884,21;16066,806;  251,323;28417,021;56,15157
 884,77;16201,190;  211,631;28439,637;56,64431
 885,32;16299,729;  221,938;28643,483;56,56902
 885,88;16442,113;  263,323;28852,944;56,58973
 886,44;16504,421;  227,015;28875,021;56,81863
 887,00;16633,652;  250,477;28933,944;57,11714
 887,56;16788,729;  225,323;29002,329;57,55778
 888,11;16842,190;  221,785;29072,483;57,60833
 888,67;17039,806;  256,785;29292,867;57,80057
 889,23;17040,267;  226,015;29292,867;57,84683
 889,79;17065,113;  210,323;29163,252;58,21446
 890,34;17066,190;  231,862;29147,252;58,21927
 890,90;17206,344;  299,554;29313,098;58,27206
 891,46;17206,960;  230,477;29165,790;58,67046
 892,01;17192,421;  241,631;29178,713;58,57809
 892,57;17212,037;  246,785;29092,252;58,81427
 893,13;17027,960;  211,400;28971,021;58,47281
 893,69;17127,883;  202,631;28899,713;58,97900
 894,24;17089,267;  230,400;28829,175;58,94961
 894,80;17071,960;  234,169;28582,867;59,39529
 895,36;16932,113;  226,477;28442,175;59,20689
 895,91;16842,113;  225,169;28280,560;59,22906
 896,47;16848,960;  242,708;28191,329;59,41707
 897,03;16684,267;  219,092;27945,252;59,38498
 897,58;16634,498;  244,246;27851,483;59,36940
 898,14;16575,344;  234,708;27640,483;59,62479
 898,70;16435,729;  202,092;27523,637;59,41698
 899,25;16510,883;  230,785;27537,021;59,62044
 899,81;16315,729;  245,477;27311,175;59,37498
 900,37;16271,960;  209,785;27044,790;59,85531
 900,92;16226,960;  231,938;27062,560;59,61480
 901,48;16205,267;  212,477;26888,790;59,95128
 902,03;16146,652;  222,477;26758,098;60,01056
 902,59;16162,575;  225,477;26678,944;60,24578
 903,15;16056,113;  239,477;26485,560;60,26285
 903,70;15953,575;  227,477;26196,021;60,55826
 904,26;15852,421;  227,400;26080,175;60,43847
 904,82;15856,037;  229,938;26143,560;60,30071
 905,37;15783,652;  234,708;26013,175;60,31757
 905,93;15812,883;  210,631;25805,867;60,95764
 906,48;15706,806;  231,708;25697,175;60,76895
 907,04;15688,806;  239,785;25643,637;60,81370
 907,60;15569,806;  240,708;25437,021;60,83865
 908,15;15527,190;  218,554;25329,021;60,96516
 908,71;15539,498;  249,246;25351,021;60,91303
 909,26;15438,806;  223,938;25228,867;60,84747
 909,82;15356,113;  235,169;25071,637;60,88202
 910,37;15350,883;  273,015;25014,175;60,94244
 910,93;15232,267;  216,631;24674,021;61,39509
 911,48;15184,575;  212,785;24616,867;61,34953
 912,04;15053,344;  213,631;24466,637;61,18711
 912,60;15150,883;  231,938;24515,560;61,43624
 913,15;15056,267;  239,092;24347,329;61,46105
 913,71;14982,344;  215,092;24093,252;61,84418
 914,26;14946,883;  190,938;24063,406;61,81156
 914,82;14915,652;  229,785;23958,329;61,89114
 915,37;14849,037;  214,323;23861,329;61,88823
 915,93;14827,883;  270,169;23812,637;61,83597
 916,48;14737,267;  216,938;23582,560;62,14399
 917,04;14793,652;  237,169;23521,021;62,51750
 917,59;14712,883;  257,631;23477,713;62,25323
 918,15;14579,575;  197,323;23245,021;62,40212
 918,70;14564,190;  219,092;23222,175;62,36163
 919,26;14539,190;  236,862;23058,560;62,66987
 919,81;14444,960;  207,862;22928,175;62,66242
 920,37;14379,960;  218,938;22839,483;62,60248
 920,92;14361,806;  261,400;22781,021;62,61387
 921,48;14237,344;  199,785;22525,637;62,87581
 922,03;14337,267;  205,477;22530,098;63,30137
 922,59;14262,498;  225,246;22402,483;63,29577
 923,14;14202,729;  224,785;22233,406;63,51122
 923,69;14138,344;  250,015;22170,252;63,35848
 924,25;14180,344;  245,938;22132,098;63,66766
 924,80;14071,883;  219,862;21961,790;63,71110
 925,36;13962,652;  207,631;21846,406;63,56654
 925,91;13926,575;  224,015;21753,175;63,64651
 926,47;13869,421;  202,323;21673,637;63,65283
 927,02;13917,575;  285,862;21626,944;63,87545
 927,57;13772,113;  214,092;21334,329;64,19446
 928,13;13762,575;  210,092;21322,713;64,19138
 928,68;13755,960;  229,092;21243,560;64,36931
 929,24;13614,960;  191,092;21028,867;64,42083
 929,79;13650,575;  206,323;20950,252;64,81054
 930,34;13544,806;  220,477;20785,021;64,79273
 930,90;13580,729;  214,015;20762,790;65,04871
 931,45;13583,421;  226,554;20754,021;65,06827
 932,01;13510,344;  234,785;20661,098;64,99244
 932,56;13458,575;  246,246;20478,175;65,30435
 933,11;13458,498;  252,169;20502,867;65,21419
 933,67;13326,267;  219,092;20311,867;65,23327
 934,22;13415,806;  216,477;20255,790;65,86717
 934,77;13293,344;  252,708;20143,560;65,56098
 935,33;13231,729;  227,092;20010,944;65,73359
 935,88;13226,960;  235,862;19929,021;65,96757
 936,43;13222,344;  227,862;19856,175;66,20275
 936,99;13131,190;  232,554;19695,560;66,27258
 937,54;13006,037;  212,169;19608,867;65,95900
 938,09;13019,960;  239,554;19555,637;66,16458
 938,65;12969,113;  232,400;19423,175;66,36894
 939,20;12941,575;  206,323;19300,175;66,69818
 939,75;12855,421;  204,323;19170,329;66,70407
 940,31;12782,575;  211,246;19116,713;66,49573
 940,86;12778,729;  227,015;19065,944;66,62647
 941,41;12792,883;  313,400;19135,406;66,30262
 941,96;12705,883;  210,477;18889,329;66,89601
 942,52;12697,652;  217,631;18806,790;67,13602
 943,07;12648,729;  201,785;18710,637;67,24860
 943,62;12608,113;  212,477;18644,637;67,25005
 944,18;12578,344;  203,323;18555,406;67,43115
 944,73;12527,267;  220,477;18409,175;67,66174
 945,28;12359,267;  191,554;18242,944;67,40596
 945,83;12497,960;  207,323;18343,175;67,76983
 946,39;12432,498;  213,246;18264,790;67,69090
 946,94;12395,498;  245,246;18136,175;67,91292
 947,49;12314,113;  209,169;18047,329;67,85983
 948,04;12381,037;  256,554;17943,329;68,55112
 948,59;12279,037;  240,169;17960,867;67,93676
 949,15;12254,729;  203,400;17842,867;68,32025
 949,70;12213,883;  214,092;17716,252;68,56177
 950,25;12167,806;  239,169;17592,329;68,74043
 950,80;12094,729;  185,323;17440,483;69,01939
 951,36;12057,575;  193,015;17370,175;69,07172
 951,91;12101,037;  233,477;17399,098;69,13563
 952,46;11912,267;  199,554;17230,098;68,77475
 953,01;12006,729;  226,631;17255,406;69,17760
 953,56;11888,113;  195,169;17099,021;69,17325
 954,11;11923,960;  222,554;17028,406;69,62697
 954,67;11861,113;  214,862;16967,560;69,51866
 955,22;11766,344;  200,015;16814,560;69,61569
 955,77;11795,498;  248,400;16765,560;69,90971
 956,32;11796,267;  270,400;16704,406;70,13425
 956,87;11650,421;  207,092;16558,944;69,98185
 957,42;11609,190;  215,631;16537,944;69,80358
 957,98;11598,575;  208,554;16381,713;70,42545
 958,53;11565,575;  245,938;16348,790;70,29585
 959,08;11535,806;  204,708;16229,175;70,71123
 959,63;11468,498;  212,246;16089,483;70,89554
 960,18;11457,960;  223,708;16043,560;71,01364
 960,73;11393,729;  225,169;16017,560;70,72115
 961,28;11369,883;  193,554;15881,175;71,24298
 961,83;11334,421;  243,323;15852,098;71,05681
 962,39;11254,498;  196,938;15762,329;71,03940
 962,94;11211,883;  235,400;15630,944;71,29649
 963,49;11136,190;  215,785;15523,713;71,33823
 964,04;11171,267;  235,785;15473,329;71,76670
 964,59;11060,960;  194,015;15376,175;71,57706
 965,14;11087,498;  239,554;15334,713;71,86373
 965,69;11054,190;  219,015;15295,098;71,86996
 966,24;10911,113;  206,631;15172,560;71,52568
 966,79;10879,498;  224,323;15031,790;71,95812
 967,34;10775,652;  190,169;14944,867;71,74313
 967,89;10796,806;  216,400;14881,867;72,14503
 968,44;10751,806;  218,400;14821,252;72,13252
 968,99;10699,344;  226,862;14712,790;72,29417
 969,55;10648,498;  218,554;14667,406;72,18528
 970,10;10610,498;  226,708;14514,637;72,67527
 970,65;10547,498;  239,092;14459,329;72,49110
 971,20;10526,652;  211,631;14306,867;73,18090
 971,75;10506,729;  197,169;14216,021;73,54068
 972,30;10421,806;  219,092;14145,175;73,26334
 972,85;10343,498;  204,554;14088,021;73,02891
 973,40;10236,190;  203,708;13950,560;72,98022
 973,95;10267,575;  227,554;13891,406;73,47870
 974,50;10236,190;  248,323;13904,406;73,13860
 975,05;10105,113;  211,785;13704,483;73,32358
 975,60;10116,575;  228,862;13682,175;73,49649
 976,15;10053,113;  212,477;13600,944;73,50084
 976,70;10042,960;  226,862;13493,637;73,99008
 977,25; 9986,421;  235,246;13457,867;73,74616
 977,80; 9901,113;  208,554;13293,098;74,07640
 978,35; 9834,960;  234,708;13092,175;74,66674
 978,89; 9705,883;  201,169;13054,560;73,94713
 979,44; 9760,883;  223,862;13040,021;74,41403
 979,99; 9622,652;  212,169;12829,867;74,58161
 980,54; 9652,652;  246,785;12840,637;74,68618
 981,09; 9592,037;  242,938;12647,713;75,36693
 981,64; 9492,960;  228,708;12520,406;75,36999
 982,19; 9466,575;  270,246;12500,713;75,19197
 982,74; 9394,498;  234,477;12373,713;75,45797
 983,29; 9282,190;  200,092;12258,944;75,31478
 983,84; 9176,729;  232,554;12145,329;75,08053
 984,39; 9189,575;  298,862;12130,406;75,14415
 984,94; 9060,575;  205,323;11949,867;75,39886
 985,49; 9040,267;  245,862;11916,483;75,35508
 986,03; 8938,113;  243,015;11837,252;74,99500
 986,58; 8871,806;  282,477;11682,944;75,34190
 987,13; 8799,267;  212,015;11573,252;75,58378
 987,68; 8728,267;  241,554;11430,098;75,85181
 988,23; 8687,267;  243,477;11445,406;75,37800
 988,78; 8582,806;  210,400;11289,560;75,56896
 989,33; 8536,806;  248,477;11125,483;76,20046
 989,88; 8492,498;  258,169;11165,790;75,49152
 990,42; 8393,267;  230,708;10973,713;75,98022
 990,97; 8288,267;  213,092;10828,329;76,07155
 991,52; 8238,113;  241,246;10779,329;75,88541
 992,07; 8157,267;  258,631;10725,790;75,46113
 992,62; 8028,037;  235,554;10580,175;75,32884
 993,17; 8011,652;  240,092;10459,483;76,04719
 993,71; 7978,037;  243,092;10406,483;76,10594
 994,26; 7819,498;  219,092;10208,944;76,08127
 994,81; 7823,113;  253,323;10201,021;76,09590
 995,36; 7687,113;  215,785;10082,483;75,72269
 995,91; 7669,421;  230,246; 9978,713;76,31123
 996,45; 7583,729;  232,631; 9855,867;76,38904
 997,00; 7455,190;  200,708; 9710,098;76,28757
 997,55; 7524,498;  244,938; 9694,021;77,03986
 998,10; 7384,575;  249,323; 9601,713;76,29335
 998,65; 7355,575;  228,323; 9486,098;76,98666
 999,19; 7290,113;  248,246; 9399,483;76,94990
 999,74; 7188,806;  259,708; 9297,560;76,66753
1000,29; 7166,729;  239,246; 9177,790;77,50124
1000,84; 7051,421;  226,938; 9035,790;77,47301
1001,38; 6969,344;  233,169; 8965,175;77,14350
1001,93; 6996,960;  245,554; 8920,790;77,82388
1002,48; 6828,190;  206,400; 8758,098;77,43246
1003,03; 6829,344;  239,938; 8675,252;78,11690
1003,57; 6752,575;  242,554; 8621,483;77,69515
1004,12; 6690,190;  260,631; 8573,406;77,34553
1004,67; 6590,729;  224,246; 8447,790;77,41775
1005,22; 6453,883;  221,400; 8250,406;77,62459
1005,76; 6349,113;  210,554; 8124,329;77,56803
1006,31; 6382,729;  243,938; 8095,790;78,18271
1006,86; 6275,344;  216,246; 7914,713;78,70525
1007,40; 6169,113;  211,246; 7821,021;78,29229
1007,95; 6138,421;  227,708; 7688,483;79,22385
1008,50; 6035,575;  238,323; 7620,637;78,52893
1009,04; 5940,267;  230,246; 7458,483;78,99605
1009,59; 5906,344;  232,015; 7371,252;79,48089
1010,14; 5780,883;  220,169; 7282,713;78,73527
1010,68; 5694,421;  233,708; 7158,560;78,85675
1011,23; 5642,421;  235,092; 7054,790;79,28986
1011,78; 5609,498;  253,246; 6960,713;79,85506
1012,32; 5516,729;  252,400; 6872,252;79,52336
1012,87; 5545,037;  257,246; 6859,790;80,08716
1013,42; 5440,267;  220,169; 6710,021;80,43478
1013,96; 5471,037;  254,708; 6728,944;80,57056
1014,51; 5390,960;  192,938; 6595,790;81,18290
1015,06; 5403,421;  199,938; 6633,406;80,88147
1015,60; 5523,960;  276,477; 6714,790;81,50400
1016,15; 5456,037;  222,631; 6685,406;80,97769
1016,69; 5506,806;  226,400; 6689,867;81,69618
1017,24; 5535,498;  203,554; 6703,637;82,02887
1017,79; 5636,960;  266,938; 6809,637;82,07655
1018,33; 5646,190;  225,323; 6806,406;82,37045
1018,88; 5742,883;  242,323; 6915,021;82,43382
1019,42; 5778,344;  235,708; 6899,560;83,17467
1019,97; 5802,806;  222,015; 6909,098;83,45628
1020,51; 5883,498;  259,400; 7042,944;82,90796
1021,06; 5841,190;  198,631; 6987,560;83,11414
1021,61; 5867,190;  185,938; 6998,406;83,39492
1022,15; 5809,190;  176,862; 6896,175;83,82298
1022,70; 5836,190;  222,323; 6941,560;83,54918
1023,24; 5823,806;  209,169; 6894,560;83,98368
1023,79; 5797,113;  234,246; 6823,175;84,42749
1024,33; 5785,267;  225,554; 6770,098;84,95188
1024,88; 5685,267;  233,477; 6724,021;83,99589
1025,42; 5648,652;  234,400; 6536,021;85,91840
1025,97; 5540,806;  214,400; 6473,713;85,09569
1026,51; 5431,344;  196,400; 6368,867;84,81121
1027,06; 5361,960;  216,631; 6318,252;84,32724
1027,60; 5310,806;  228,631; 6212,713;84,92822
1028,15; 5241,575;  241,785; 6148,329;84,64832
1028,69; 5097,113;  198,708; 5937,483;85,35630
1029,24; 5078,037;  219,323; 5908,329;85,40532
1029,78; 4941,267;  204,708; 5835,560;84,11799
1030,33; 4893,883;  197,323; 5678,790;85,68070
1030,87; 4852,806;  208,862; 5635,637;85,57466
1031,42; 4768,652;  192,862; 5513,867;85,99484
1031,96; 4729,883;  236,785; 5473,098;85,80651
1032,51; 4619,421;  203,938; 5401,867;84,94696
1033,05; 4597,806;  216,400; 5335,790;85,58452
1033,60; 4498,267;  198,938; 5221,406;85,60193
1034,14; 4425,421;  221,400; 5148,098;85,33141
1034,69; 4403,652;  213,785; 5084,867;86,01511
1035,23; 4362,037;  214,708; 5009,944;86,48851
1035,77; 4333,190;  220,092; 4922,944;87,45966
1036,32; 4245,267;  197,477; 4838,790;87,21217
1036,86; 4197,190;  223,169; 4806,021;86,71502
1037,41; 4134,498;  232,400; 4710,483;87,13770
1037,95; 4052,960;  191,092; 4640,175;86,80143
1038,50; 4025,806;  209,323; 4594,790;87,02568
1039,04; 3963,037;  231,246; 4555,713;86,29480
1039,58; 3861,267;  200,477; 4461,252;85,91842
1040,13; 3833,806;  210,246; 4394,790;86,59389
1040,67; 3826,729;  244,323; 4399,637;86,21265
1041,21; 3767,575;  247,554; 4267,867;87,55589
1041,76; 3676,037;  202,554; 4193,175;87,04115
1042,30; 3682,806;  207,631; 4173,713;87,62235
1042,85; 3590,190;  215,323; 4094,175;87,00686
1043,39; 3560,960;  195,323; 3985,944;88,78852
1043,93; 3550,037;  242,015; 3993,637;88,17578
1044,48; 3475,729;  227,015; 3932,483;87,67352
1045,02; 3412,883;  211,785; 3880,021;87,26531
1045,56; 3423,806;  240,708; 3851,021;88,16681
1046,11; 3389,421;  227,554; 3785,406;88,87012
1046,65; 3313,113;  229,477; 3706,406;88,68851
1047,19; 3242,883;  212,938; 3668,637;87,67966
1047,74; 3205,652;  195,862; 3568,944;89,22966
1048,28; 3168,729;  224,400; 3561,252;88,23672
1048,82; 3163,190;  249,938; 3558,790;88,04419
1049,37; 3121,498;  236,400; 3450,867;89,75354
1049,91; 3093,113;  225,092; 3414,560;89,92164
1050,45; 3032,498;  239,169; 3391,637;88,60770
1050,99; 3006,729;  219,246; 3353,483;88,93658
1051,54; 2922,498;  213,169; 3251,175;89,18116
1052,08; 2936,344;  249,938; 3258,098;89,30396
1052,62; 2873,421;  241,323; 3228,790;88,10467
1053,16; 2816,037;  220,554; 3136,867;88,99876
1053,71; 2803,652;  226,092; 3101,252;89,64927
1054,25; 2766,421;  244,169; 3059,867;89,57821
1054,79; 2737,883;  237,246; 3008,252;90,24292
1055,33; 2666,652;  200,092; 2939,637;90,03540
1055,88; 2710,190;  239,400; 2941,098;91,45324
1056,42; 2648,498;  237,477; 2872,252;91,50767
1056,96; 2613,190;  247,015; 2844,483;91,09547
1057,50; 2555,190;  230,477; 2794,098;90,68085
1058,05; 2525,729;  230,015; 2762,252;90,65952
1058,59; 2518,575;  247,938; 2739,252;91,14215
1059,13; 2430,344;  213,708; 2670,175;90,23676
1059,67; 2434,729;  235,015; 2639,175;91,49615
1060,21; 2379,806;  232,092; 2573,098;91,74319
1060,76; 2356,960;  239,554; 2571,329;90,80661
1061,30; 2343,883;  259,400; 2576,329;89,96749
1061,84; 2315,498;  232,938; 2493,406;92,12961
1062,38; 2248,883;  217,477; 2432,329;91,71745
1062,92; 2251,267;  267,708; 2475,637;89,83802
1063,46; 2188,806;  250,323; 2372,560;91,34150
1064,01; 2141,575;  219,169; 2363,944;89,63205
1064,55; 2150,883;  244,477; 2310,790;92,26121
1065,09; 2077,575;  210,400; 2239,329;92,02762
1065,63; 2113,344;  252,554; 2300,790;90,84841
1066,17; 2072,729;  258,323; 2235,637;91,76116
1066,71; 2030,498;  252,015; 2232,252;89,81163
1067,25; 2010,421;  233,169; 2154,790;92,48711
1067,80; 2013,037;  250,554; 2176,867;91,49511
1068,34; 1974,190;  262,323; 2144,560;90,94857
1068,88; 1924,575;  220,246; 2092,483;91,03171
1069,42; 1926,729;  250,246; 2101,252;90,57145
1069,96; 1887,267;  231,092; 2018,713;92,64687
1070,50; 1901,267;  260,092; 2062,713;91,04381
1071,04; 1833,037;  223,169; 1975,252;91,88307
1071,58; 1819,344;  233,092; 1960,560;91,82529
1072,12; 1815,113;  234,554; 1946,560;92,32210
1072,66; 1808,498;  241,785; 1936,021;92,47312
1073,21; 1809,344;  253,246; 1939,098;92,30337
1073,75; 1769,113;  239,862; 1893,790;92,46177
1074,29; 1736,729;  239,708; 1876,637;91,45304
1074,83; 1754,190;  262,092; 1872,329;92,66329
1075,37; 1700,267;  259,631; 1832,483;91,59391
1075,91; 1690,883;  247,631; 1794,790;93,28397
1076,45; 1659,498;  247,785; 1770,790;92,69259
1076,99; 1643,421;  258,938; 1749,483;92,88437
1077,53; 1604,729;  231,323; 1710,790;92,83110
1078,07; 1624,344;  243,477; 1723,560;93,29663
1078,61; 1597,575;  241,400; 1669,637;94,95451
1079,15; 1561,421;  234,246; 1688,867;91,23853
1079,69; 1543,421;  240,785; 1637,944;93,23463
1080,23; 1560,498;  253,323; 1646,867;93,80219
1080,77; 1572,344;  301,938; 1673,175;92,64673
1081,31; 1491,267;  230,092; 1598,175;92,18558
1081,85; 1495,729;  247,323; 1598,560;92,38988
1082,39; 1473,806;  235,631; 1560,329;93,46847
1082,93; 1459,113;  250,554; 1558,867;92,37539
1083,47; 1417,806;  225,938; 1506,867;93,04711
1084,01; 1426,037;  253,938; 1542,560;90,95754
1084,55; 1393,190;  232,554; 1488,713;92,39563
1085,09; 1420,037;  255,938; 1486,175;94,62392
1085,63; 1374,652;  252,477; 1455,944;93,24516
1086,17; 1356,729;  235,708; 1415,021;95,05710
1086,71; 1321,344;  219,246; 1411,175;92,46341
1087,24; 1370,267;  262,938; 1429,406;94,93012
1087,78; 1335,575;  251,092; 1379,944;96,06953
1088,32; 1274,729;  232,554; 1339,021;94,18941
1088,86; 1297,806;  253,554; 1374,944;93,12118
1089,40; 1284,960;  249,477; 1351,944;93,92412
1089,94; 1243,960;  218,092; 1316,560;93,39079
1090,48; 1245,421;  249,631; 1314,713;93,49419
1091,02; 1241,960;  255,015; 1325,867;92,16440
1091,56; 1215,729;  245,400; 1297,560;92,22259
1092,10; 1196,652;  220,785; 1261,329;93,78432
1092,63; 1207,883;  260,862; 1278,713;93,04115
1093,17; 1184,960;  253,246; 1245,252;93,92218
1093,71; 1175,421;  226,246; 1209,637;96,52067
1094,25; 1184,575;  260,092; 1220,021;96,30742
1094,79; 1128,498;  245,631; 1188,944;93,59215
1095,33; 1125,344;  252,246; 1185,790;93,52509
1095,87; 1115,960;  239,631; 1191,252;92,08800
1096,40; 1074,729;  224,862; 1149,944;91,86933
1096,94; 1089,498;  245,169; 1150,021;93,31127
1097,48; 1088,344;  254,169; 1153,483;92,75687
1098,02; 1073,113;  244,477; 1105,483;96,24053
1098,56; 1022,267;  217,862; 1080,021;93,30126
1099,10; 1021,652;  213,938; 1066,790;94,70735
1099,63; 1026,575;  221,323; 1071,175;94,75203
1100,17; 1028,190;  239,708; 1075,329;94,35887
1100,71; 1042,498;  261,169; 1095,329;93,66659

