
Integration time [ms]: 140,000
Averaging Nr. [scans]: 13
Smoothing Nr. [pixels]: 0
Data measured with spectrometer [name]: 2009305U1
Wave   ;Sample   ;Dark     ;Reference;Reflectance
[nm]   ;[counts] ;[counts] ;[counts] ;[%]

 175,72;  207,957;  202,783;  223,076;25,49507
 176,32;  230,750;  235,325;  233,183; 0,00000
 176,92;  274,519;  268,169;  269,200;615,53515
 177,52;  266,513;  268,091;  262,076; 0,00000
 178,12;  249,120;  257,324;  243,700; 0,00000
 178,72;  270,494;  265,095;  258,217; 0,00000
 179,32;  255,423;  268,863;  252,136; 0,00000
 179,92;  253,908;  265,631;  267,970;-501,33698
 180,52;  246,457;  242,858;  269,559;13,47682
 181,12;  268,146;  264,246;  270,140;66,16453
 181,73;  289,790;  278,015;  276,393; 0,00000
 182,33;  368,064;  376,706;  385,901;-93,97963
 182,93;  277,358;  282,630;  284,119;-353,99827
 183,53;  237,343;  252,787;  239,042; 0,00000
 184,13;  245,896;  254,095;  245,230; 0,00000
 184,73;  301,637;  287,018;  290,658;401,69533
 185,33;  273,725;  245,652;  366,512;23,22796
 185,93;  279,377;  240,884;  362,674;31,60573
 186,53;  293,765;  262,499;  382,538;26,04698
 187,13;  321,581;  282,650;  413,897;29,66219
 187,73;  290,254;  248,500;  374,807;33,05745
 188,33;  286,556;  249,501;  377,832;28,87469
 188,93;  290,954;  266,120;  368,764;24,19435
 189,53;  279,135;  262,277;  393,555;12,84178
 190,13;  336,249;  296,435;  419,072;32,46488
 190,73;  265,887;  227,586;  359,537;29,02667
 191,34;  303,644;  271,352;  391,243;26,93490
 191,94;  280,067;  246,733;  373,358;26,32495
 192,54;  298,336;  264,572;  390,298;26,85517
 193,14;  308,477;  262,112;  410,063;31,33776
 193,74;  311,019;  267,728;  401,768;32,29739
 194,34;  295,688;  265,958;  394,183;23,18606
 194,94;  269,321;  225,420;  368,414;30,70165
 195,54;  232,383;  199,036;  342,674;23,21565
 196,14;  268,629;  234,957;  373,055;24,38297
 196,74;  257,402;  238,575;  362,324;15,21384
 197,34;  244,912;  200,263;  355,217;28,81424
 197,94;  269,852;  232,342;  391,563;23,55837
 198,54;  286,841;  239,265;  407,700;28,24573
 199,14;  273,845;  217,032;  395,974;31,74932
 199,74;  250,308;  208,186;  379,854;24,53689
 200,34;  246,934;  205,108;  400,093;21,45057
 200,94;  283,707;  241,418;  444,773;20,79577
 201,54;  267,119;  224,801;  446,157;19,11741
 202,14;  295,322;  252,185;  507,021;16,92735
 202,74;  265,400;  220,186;  489,414;16,79391
 203,34;  253,146;  206,876;  509,469;15,29103
 203,94;  233,483;  177,569;  523,345;16,17059
 204,54;  305,109;  251,804;  597,516;15,41887
 205,14;  265,287;  210,570;  593,619;14,28442
 205,74;  318,450;  248,030;  688,863;15,97439
 206,34;  281,916;  218,877;  712,170;12,77919
 206,94;  303,365;  224,493;  773,666;14,36204
 207,54;  283,469;  194,262;  814,576;14,38103
 208,14;  299,845;  212,338;  885,999;12,98972
 208,74;  301,455;  216,647;  970,102;11,25590
 209,34;  326,888;  210,032; 1064,247;13,68001
 209,94;  337,404;  223,416; 1142,978;12,39589
 210,54;  348,569;  216,877; 1246,089;12,79548
 211,14;  354,401;  209,955; 1381,448;12,33010
 211,73;  369,939;  219,109; 1508,743;11,69558
 212,33;  395,090;  231,956; 1610,123;11,83702
 212,93;  395,991;  216,109; 1698,572;12,13399
 213,53;  366,688;  181,647; 1761,367;11,71350
 214,13;  417,962;  222,952; 1870,209;11,83846
 214,73;  409,091;  185,954; 1909,790;12,94421
 215,33;  390,558;  179,186; 1934,593;12,04122
 215,93;  447,716;  211,184; 2074,162;12,69644
 216,53;  420,045;  162,801; 2134,072;13,04964
 217,13;  482,936;  225,953; 2347,307;12,11407
 217,73;  505,719;  204,338; 2559,692;12,79558
 218,33;  510,549;  161,336; 2756,969;13,45384
 218,93;  581,939;  202,873; 3086,277;13,14648
 219,53;  636,012;  209,336; 3414,311;13,31291
 220,13;  645,529;  170,028; 3703,166;13,45833
 220,73;  744,176;  187,878; 4085,892;14,27133
 221,32;  789,225;  195,109; 4505,948;13,78191
 221,92;  861,044;  192,721; 5000,632;13,90049
 222,52;  900,704;  178,184; 5377,901;13,89537
 223,12;  998,554;  189,030; 5845,465;14,31157
 223,72; 1043,864;  197,260; 6327,192;13,81097
 224,32; 1109,446;  209,106; 6727,234;13,81285
 224,92; 1156,176;  182,568; 7030,294;14,21797
 225,52; 1229,444;  212,723; 7406,315;14,13369
 226,12; 1267,915;  189,953; 7683,610;14,38498
 226,72; 1280,774;  171,723; 8090,059;14,00612
 227,31; 1319,427;  166,338; 8448,196;13,92307
 227,91; 1409,801;  195,185; 8938,251;13,89233
 228,51; 1468,791;  182,417; 9244,174;14,19564
 229,11; 1523,020;  189,108; 9710,850;14,00912
 229,71; 1561,719;  184,032; 9960,751;14,09151
 230,31; 1631,617;  160,260;10437,610;14,31650
 230,91; 1656,517;  168,495;10697,503;14,13259
 231,51; 1702,064;  183,415;11064,521;13,95676
 232,10; 1768,896;  172,875;11342,525;14,28891
 232,70; 1779,303;  198,958;11545,952;13,92744
 233,30; 1839,326;  214,492;11780,828;14,04796
 233,90; 1834,749;  192,799;11954,734;13,95986
 234,50; 1840,275;  186,799;12056,551;13,93017
 235,10; 1846,407;  175,260;12065,525;14,05475
 235,70; 1880,857;  208,724;12036,862;14,13691
 236,29; 1896,048;  203,417;12020,602;14,32347
 236,89; 1820,426;  168,495;11895,824;14,08617
 237,49; 1851,049;  201,338;11816,486;14,20310
 238,09; 1800,070;  181,339;11438,324;14,37979
 238,69; 1790,169;  224,957;11167,550;14,30385
 239,29; 1731,216;  186,185;10841,999;14,49942
 239,89; 1671,004;  196,802;10545,226;14,24566
 240,48; 1608,492;  176,492;10114,692;14,40905
 241,08; 1539,864;  177,185; 9764,264;14,21371
 241,68; 1519,785;  213,415; 9396,209;14,22627
 242,28; 1463,495;  178,723; 8995,542;14,57184
 242,88; 1467,348;  219,721; 8679,166;14,74833
 243,48; 1419,740;  225,954; 8415,452;14,57704
 244,07; 1377,146;  209,339; 8129,234;14,74524
 244,67; 1372,002;  207,338; 7988,298;14,96812
 245,27; 1334,324;  208,109; 7823,974;14,78775
 245,87; 1367,110;  210,260; 7761,226;15,32055
 246,47; 1365,517;  196,109; 7668,914;15,64885
 247,06; 1386,812;  181,416; 7757,721;15,91008
 247,66; 1401,729;  185,646; 7774,213;16,02520
 248,26; 1463,736;  215,955; 7894,268;16,25071
 248,86; 1505,905;  207,725; 8133,290;16,37965
 249,46; 1550,986;  159,953; 8304,717;17,07886
 250,05; 1683,335;  204,262; 8681,392;17,44781
 250,65; 1754,162;  184,263; 9076,110;17,65549
 251,25; 1885,112;  178,031; 9575,474;18,16537
 251,85; 2025,560;  186,264;10085,469;18,58024
 252,44; 2116,878;  157,878;10815,700;18,38086
 253,04; 2354,946;  208,493;11581,892;18,87257
 253,64; 2495,058;  152,725;12308,123;19,26990
 254,24; 2783,257;  196,339;13277,281;19,77624
 254,84; 2979,832;  177,184;14242,179;19,92641
 255,43; 3226,670;  190,801;15248,200;20,16197
 256,03; 3536,524;  196,956;16293,995;20,74648
 256,63; 3784,541;  204,341;17391,115;20,83113
 257,23; 3999,025;  177,495;18380,307;20,99417
 257,82; 4296,507;  194,496;19349,209;21,41515
 258,42; 4550,661;  155,496;20233,042;21,89094
 259,02; 4806,078;  210,262;21264,273;21,82870
 259,62; 4997,072;  187,189;22043,709;22,00663
 260,21; 5160,820;  199,878;22644,055;22,10347
 260,81; 5345,219;  193,646;23073,388;22,51587
 261,41; 5514,231;  172,265;23729,055;22,67697
 262,01; 5691,576;  209,497;24161,474;22,88779
 262,60; 5721,333;  163,649;24635,307;22,71070
 263,20; 5840,457;  179,802;24886,046;22,91184
 263,80; 5942,939;  212,651;25112,931;23,01295
 264,40; 5974,814;  168,189;25329,644;23,07746
 264,99; 6047,858;  198,574;25487,905;23,12945
 265,59; 6066,382;  180,191;25693,956;23,07065
 266,19; 6106,787;  181,035;25895,888;23,04408
 266,78; 6161,123;  221,190;26007,807;23,03494
 267,38; 6153,817;  200,268;26049,674;23,03167
 267,98; 6133,126;  181,575;26073,568;22,98607
 268,58; 6133,547;  196,037;26109,273;22,91304
 269,17; 6123,910;  195,653;26127,166;22,86121
 269,77; 6028,874;  204,957;25881,747;22,68164
 270,37; 5968,760;  165,420;25820,286;22,62081
 270,96; 5962,641;  232,111;25659,008;22,53728
 271,56; 5855,578;  184,033;25321,482;22,56214
 272,16; 5796,169;  181,496;25124,230;22,51026
 272,75; 5741,884;  191,265;25101,268;22,28269
 273,35; 5683,589;  189,726;25037,080;22,11045
 273,95; 5671,732;  188,419;25027,841;22,07504
 274,54; 5675,776;  169,185;25041,157;22,13974
 275,14; 5698,187;  216,496;25396,256;21,77023
 275,74; 5633,690;  168,419;25453,756;21,61439
 276,33; 5750,892;  213,649;25923,068;21,53780
 276,93; 5792,979;  196,031;26222,952;21,50446
 277,53; 5849,511;  186,032;26759,098;21,31286
 278,12; 5956,589;  174,418;27305,491;21,31199
 278,72; 6096,718;  227,801;27881,948;21,22255
 279,32; 6181,847;  182,955;28489,106;21,19289
 279,91; 6345,336;  165,494;29258,003;21,24204
 280,51; 6471,264;  191,724;29692,657;21,28590
 281,11; 6670,066;  186,494;30550,063;21,35313
 281,70; 6742,829;  171,417;30892,465;21,39058
 282,30; 6907,117;  182,572;31552,097;21,43655
 282,90; 6981,597;  186,264;31954,418;21,39039
 283,49; 7199,282;  202,572;32544,115;21,63382
 284,09; 7317,325;  210,417;33120,456;21,59495
 284,69; 7430,787;  213,340;33350,085;21,78080
 285,28; 7607,247;  206,341;33762,422;22,05533
 285,88; 7757,726;  248,188;33983,397;22,26024
 286,47; 7755,903;  187,187;34005,615;22,38045
 287,07; 7956,230;  220,263;34062,995;22,85858
 287,67; 8057,817;  209,415;34281,991;23,03437
 288,26; 8164,497;  182,878;34188,713;23,47132
 288,86; 8302,846;  179,956;34213,674;23,86718
 289,46; 8535,031;  205,340;34318,149;24,41807
 290,05; 8701,187;  177,493;34392,670;24,91203
 290,65; 8978,512;  194,803;34598,709;25,53114
 291,24; 9173,505;  195,186;34663,653;26,04792
 291,84; 9440,925;  216,495;34767,653;26,69789
 292,44; 9630,900;  194,569;34984,204;27,12397
 293,03; 9930,793;  266,417;35057,914;27,77798
 293,63;10045,865;  184,495;35259,170;28,11536
 294,22;10338,162;  214,417;35324,264;28,83449
 294,82;10476,105;  191,727;35373,820;29,23185
 295,41;10512,214;  176,802;35114,234;29,58263
 296,01;10663,181;  229,265;34972,568;30,03144
 296,61;10648,715;  217,571;34673,495;30,27388
 297,20;10586,205;  195,496;34283,409;30,48209
 297,80;10656,371;  199,031;34159,264;30,79290
 298,39;10485,099;  177,418;33729,931;30,72104
 298,99;10511,219;  207,880;33549,640;30,90220
 299,58;10442,539;  210,415;33295,880;30,92634
 300,18;10458,825;  225,416;33137,170;31,09348
 300,78;10279,786;  187,186;32737,294;31,00635
 301,37;10320,561;  209,497;32747,285;31,07483
 301,97;10270,915;  208,417;32702,747;30,96694
 302,56;10242,302;  199,418;32668,944;30,93018
 303,16;10247,694;  171,341;32483,179;31,18471
 303,75;10176,582;  187,570;32527,127;30,88791
 304,35;10251,764;  181,030;32758,768;30,91293
 304,94;10226,283;  206,340;32808,922;30,73359
 305,54;10206,378;  218,801;32760,717;30,69142
 306,13;10148,325;  161,799;32549,192;30,83461
 306,73;10089,533;  166,876;32358,217;30,82399
 307,33;10027,082;  206,261;32238,521;30,65916
 307,92;10035,448;  215,878;32305,469;30,60048
 308,52;10140,056;  173,495;32763,140;30,58199
 309,11;10285,291;  188,650;33278,833;30,51250
 309,71;10289,519;  180,728;33595,521;30,25244
 310,30;10372,271;  184,648;33756,969;30,34531
 310,90;10476,502;  221,263;34201,739;30,17980
 311,49;10430,902;  201,955;34294,529;30,00344
 312,09;10473,018;  170,800;34375,033;30,11972
 312,68;10572,380;  253,955;34837,982;29,83581
 313,28;10573,217;  162,878;34973,469;29,90566
 313,87;10526,576;  162,955;35103,286;29,66091
 314,47;10612,763;  191,188;35314,764;29,67117
 315,06;10576,469;  176,032;35427,858;29,50326
 315,66;10601,557;  170,954;35644,803;29,40364
 316,25;10523,987;  159,034;35543,003;29,29279
 316,85;10419,732;  148,493;35519,422;29,03865
 317,44;10457,333;  183,266;35761,610;28,87731
 318,04;10329,943;  174,495;35684,512;28,59883
 318,63;10383,014;  161,030;35697,110;28,76509
 319,22;10357,952;  183,341;35919,858;28,47119
 319,82;10271,129;  182,341;35890,217;28,25368
 320,41;10206,667;  206,187;35837,512;28,06654
 321,01;10181,493;  201,878;35853,636;27,99193
 321,60;10153,343;  196,879;35932,315;27,86160
 322,20;10067,431;  181,417;35834,568;27,72831
 322,79;10059,027;  206,186;35983,059;27,53969
 323,39; 9992,373;  177,876;36015,401;27,38609
 323,98; 9920,378;  168,109;35860,333;27,32323
 324,58; 9868,076;  175,495;35863,803;27,15898
 325,17; 9816,298;  188,111;35597,918;27,19074
 325,76; 9671,997;  208,186;35442,927;26,85932
 326,36; 9559,665;  178,416;35062,418;26,89270
 326,95; 9455,828;  207,494;34654,585;26,84794
 327,55; 9286,319;  165,341;34435,627;26,61483
 328,14; 9135,088;  176,954;33976,875;26,50342
 328,74; 9010,685;  209,649;33581,833;26,37237
 329,33; 8914,163;  194,262;33143,444;26,46470
 329,92; 8688,967;  177,496;32534,162;26,30515
 330,52; 8509,976;  187,954;31833,499;26,29761
 331,11; 8337,824;  181,879;31384,670;26,13851
 331,71; 8180,951;  180,033;30840,773;26,09500
 332,30; 8040,976;  201,263;30513,538;25,86316
 332,89; 7941,793;  251,339;29853,004;25,97980
 333,49; 7760,693;  193,725;29360,170;25,94409
 334,08; 7574,992;  191,879;28852,042;25,76089
 334,68; 7459,512;  183,879;28470,875;25,72077
 335,27; 7367,601;  207,646;28061,551;25,70539
 335,86; 7333,671;  242,264;27758,670;25,77156
 336,46; 7228,123;  198,954;27412,880;25,82931
 337,05; 7154,170;  184,956;27302,884;25,69966
 337,65; 7108,532;  173,264;27034,230;25,81913
 338,24; 7176,166;  222,955;27085,038;25,88485
 338,83; 7129,360;  204,801;26985,781;25,85626
 339,43; 7098,970;  176,264;27007,948;25,80049
 340,02; 7097,195;  172,418;26819,350;25,98715
 340,61; 7113,757;  199,263;26869,734;25,92565
 341,21; 7176,916;  221,726;26907,986;26,06281
 341,80; 7176,799;  192,418;26842,333;26,20789
 342,40; 7217,248;  190,108;26908,012;26,30124
 342,99; 7214,024;  183,262;27124,927;26,09624
 343,58; 7335,086;  174,416;27215,521;26,48069
 344,18; 7404,110;  202,031;27425,670;26,45524
 344,77; 7493,444;  168,342;27631,055;26,67290
 345,36; 7665,212;  170,187;27880,046;27,04823
 345,96; 7770,971;  209,878;28225,999;26,98837
 346,55; 7851,895;  160,414;28529,653;27,11205
 347,14; 8007,460;  170,415;28847,768;27,32834
 347,74; 8146,118;  151,567;29286,025;27,44019
 348,33; 8431,860;  183,259;29809,653;27,84207
 348,92; 8618,049;  191,412;30461,670;27,83801
 349,52; 8813,533;  163,028;30981,773;28,06897
 350,11; 8910,574;  178,495;31156,136;28,18833
 350,70; 9023,852;  172,955;31370,055;28,37090
 351,29; 9007,392;  167,652;30998,482;28,67175
 351,89; 9121,887;  189,035;31043,016;28,95202
 352,48; 9148,332;  165,263;31080,991;29,05663
 353,07; 9231,795;  199,877;31018,525;29,30667
 353,67; 9312,246;  208,720;30924,636;29,63781
 354,26; 9313,326;  182,492;30742,969;29,87792
 354,85; 9312,483;  191,185;30553,794;30,04122
 355,45; 9312,505;  167,879;30387,704;30,26035
 356,04; 9378,050;  176,107;30300,521;30,54646
 356,63; 9446,119;  215,340;30143,683;30,84293
 357,22; 9436,932;  184,651;30004,914;31,02682
 357,82; 9413,065;  184,881;29789,615;31,17131
 358,41; 9497,609;  207,109;29677,551;31,52481
 359,00; 9486,144;  180,264;29523,687;31,71368
 359,60; 9573,992;  188,647;29385,452;32,14511
 360,19; 9617,999;  205,415;29244,627;32,41336
 360,78; 9615,800;  184,264;29115,982;32,59930
 361,37; 9651,033;  188,187;28952,632;32,89772
 361,97; 9701,912;  189,109;28871,525;33,16597
 362,56; 9688,706;  180,034;28572,824;33,48974
 363,15; 9782,008;  252,264;28254,174;34,03248
 363,74; 9617,015;  192,265;27927,153;33,98157
 364,34; 9603,354;  213,341;27511,914;34,39745
 364,93; 9554,566;  173,573;27122,042;34,81086
 365,52; 9458,824;  144,571;26657,209;35,13137
 366,11; 9494,625;  182,803;26510,580;35,36881
 366,71; 9367,029;  182,726;26033,397;35,52830
 367,30; 9380,558;  202,264;25600,875;36,13699
 367,89; 9391,462;  220,031;25410,251;36,40870
 368,48; 9318,557;  196,957;25136,221;36,57525
 369,07; 9236,852;  201,417;24677,978;36,91464
 369,67; 9250,756;  219,342;24411,221;37,33242
 370,26; 9176,855;  180,417;24057,200;37,67860
 370,85; 9172,728;  189,341;23916,469;37,86125
 371,44; 9146,025;  192,802;23630,935;38,19939
 372,03; 9090,373;  167,726;23441,884;38,33714
 372,63; 9090,233;  160,494;23097,204;38,93208
 373,22; 9052,867;  185,186;22806,076;39,20129
 373,81; 8985,862;  157,648;22493,499;39,52486
 374,40; 8941,800;  178,416;22326,768;39,56675
 374,99; 8904,603;  178,110;21951,247;40,07917
 375,59; 8871,391;  171,877;21685,465;40,43730
 376,18; 8909,625;  212,187;21588,978;40,68636
 376,77; 8914,107;  201,109;21345,961;41,20624
 377,36; 8896,361;  220,648;21386,559;40,98908
 377,95; 8870,417;  206,495;21008,080;41,65030
 378,55; 8870,416;  175,185;20865,482;42,02565
 379,14; 8874,880;  198,341;20764,435;42,18856
 379,73; 8919,266;  188,341;20679,533;42,60818
 380,32; 8990,778;  199,648;20785,187;42,70537
 380,91; 8952,003;  168,265;20505,662;43,19008
 381,50; 9033,939;  197,726;20493,781;43,53660
 382,10; 8988,470;  188,033;20415,495;43,50737
 382,69; 9081,975;  166,187;20415,140;44,03086
 383,28; 9133,830;  212,957;20278,243;44,45924
 383,87; 9053,252;  180,803;20158,687;44,41136
 384,46; 9117,703;  164,035;20098,191;44,91621
 385,05; 9128,457;  202,188;20130,657;44,79155
 385,64; 9229,856;  191,111;20107,273;45,38397
 386,24; 9235,623;  157,881;20034,508;45,67043
 386,83; 9301,558;  202,035;20097,307;45,73711
 387,42; 9458,013;  198,034;20214,495;46,26182
 388,01; 9550,553;  204,421;20376,102;46,33293
 388,60; 9753,998;  191,573;20645,700;46,75059
 389,19; 9888,437;  173,731;20876,619;46,92440
 389,78;10032,682;  179,730;21079,542;47,14373
 390,37;10337,541;  245,651;21567,854;47,33043
 390,96;10445,178;  187,497;21720,102;47,63790
 391,56;10567,668;  195,116;21867,529;47,86062
 392,15;10749,923;  177,961;22123,550;48,17352
 392,74;10854,629;  165,656;22259,956;48,37887
 393,33;11075,718;  183,347;22620,311;48,54654
 393,92;11320,686;  189,427;22947,576;48,91109
 394,51;11435,503;  169,347;23210,674;48,89543
 395,10;11664,092;  202,353;23428,230;49,34900
 395,69;11727,840;  187,122;23572,315;49,35054
 396,28;11826,203;  193,046;23641,657;49,61128
 396,87;11941,503;  200,741;23763,072;49,82853
 397,46;11976,300;  198,128;23866,734;49,76285
 398,06;12158,580;  212,746;24134,695;49,93671
 398,65;12211,419;  191,828;24181,618;50,10294
 399,24;12397,631;  208,906;24321,503;50,54920
 399,83;12331,445;  171,684;24319,059;50,35645
 400,42;12559,215;  215,999;24455,828;50,92122
 401,01;12617,617;  189,315;24579,165;50,95686
 401,60;12749,064;  200,942;24618,383;51,39000
 402,19;12693,366;  214,489;24606,438;51,15982
 402,78;12742,007;  214,888;24515,643;51,55033
 403,37;12674,847;  204,440;24392,169;51,55675
 403,96;12651,143;  205,994;24258,463;51,74167
 404,55;12632,006;  213,319;24201,147;51,77079
 405,14;12561,815;  189,797;24097,719;51,74861
 405,73;12569,351;  211,200;24017,330;51,91163
 406,32;12555,184;  210,366;23847,172;52,22710
 406,91;12471,793;  205,150;23610,749;52,40901
 407,50;12442,601;  210,619;23473,501;52,58154
 408,09;12248,199;  179,317;23120,120;52,60880
 408,68;12261,871;  198,628;23067,402;52,74985
 409,27;12195,988;  183,854;22837,885;53,02427
 409,86;12171,262;  192,997;22744,676;53,11474
 410,45;12147,203;  221,449;22600,509;53,28979
 411,04;12064,267;  227,516;22570,531;52,97741
 411,63;11999,747;  214,426;22318,946;53,31634
 412,22;11885,010;  220,876;22082,741;53,35379
 412,81;11789,252;  216,872;21846,497;53,50245
 413,40;11610,017;  232,559;21486,489;53,53108
 413,99;11499,498;  276,330;21131,343;53,81520
 414,58;11289,209;  198,868;20717,382;54,05041
 415,17;11209,715;  202,718;20540,377;54,12126
 415,76;11121,918;  198,723;20346,860;54,21442
 416,35;11063,847;  185,874;20116,937;54,57798
 416,94;11101,454;  225,568;20175,971;54,51462
 417,53;11218,054;  207,257;20432,621;54,44054
 418,12;11262,304;  206,948;20476,583;54,54147
 418,71;11564,292;  218,021;20830,454;55,04576
 419,30;11577,915;  200,024;21000,647;54,69976
 419,89;11715,698;  184,639;21139,429;55,02827
 420,48;11937,775;  222,405;21442,613;55,20855
 421,07;12003,114;  216,251;21448,407;55,51421
 421,66;11986,144;  184,941;21541,095;55,25903
 422,25;12000,288;  205,167;21438,937;55,54888
 422,84;11948,668;  224,397;21543,476;54,99427
 423,43;11839,847;  212,168;21238,301;55,30108
 424,02;11740,187;  231,628;21043,172;55,29892
 424,60;11539,269;  201,392;20533,831;55,76250
 425,19;11381,956;  211,703;20236,510;55,78207
 425,78;11351,274;  217,626;20175,442;55,78591
 426,37;11345,249;  232,085;20050,925;56,07374
 426,96;11198,097;  206,624;19918,959;55,75937
 427,55;11083,439;  199,467;19767,762;55,62044
 428,14;10989,200;  195,158;19549,673;55,77015
 428,73;10906,050;  216,929;19338,557;55,90068
 429,32;10957,834;  218,470;19324,100;56,21047
 429,91;10953,017;  226,160;19366,831;56,04222
 430,50;10847,978;  228,466;19204,852;55,96172
 431,08;10763,208;  231,772;19005,087;56,09790
 431,67;10764,954;  263,463;18962,207;56,16148
 432,26;10667,446;  269,923;18770,057;56,20242
 432,85;10495,930;  291,770;18411,160;56,31625
 433,44;10314,910;  305,845;18063,668;56,36426
 434,03;10083,417;  316,149;17727,545;56,09698
 434,62; 9857,666;  271,614;17264,989;56,41052
 435,21; 9793,170;  287,923;17079,211;56,60821
 435,79; 9638,994;  290,535;16870,613;56,38368
 436,38; 9630,901;  276,994;16773,698;56,70167
 436,97; 9584,704;  282,686;16719,515;56,59254
 437,56; 9431,201;  278,143;16522,498;56,34608
 438,15; 9384,277;  260,837;16400,241;56,52898
 438,74; 9412,369;  274,067;16463,122;56,44741
 439,33; 9442,407;  249,683;16410,092;56,88423
 439,91; 9454,263;  217,450;16527,489;56,63268
 440,50; 9518,847;  264,835;16518,258;56,93577
 441,09; 9553,816;  270,832;16642,156;56,70271
 441,68; 9573,193;  245,445;16657,322;56,83535
 442,27; 9595,752;  230,908;16633,609;57,09330
 442,86; 9530,364;  205,057;16680,985;56,59958
 443,44; 9595,710;  221,288;16739,976;56,75040
 444,03; 9678,098;  301,826;16785,378;56,88260
 444,62; 9556,002;  224,441;16606,793;56,96106
 445,21; 9505,671;  230,442;16478,895;57,08377
 445,80; 9438,294;  261,747;16379,635;56,93393
 446,39; 9320,526;  281,055;16095,117;57,16097
 446,97; 9134,912;  220,128;15973,656;56,58913
 447,56; 9031,307;  225,126;15675,759;56,99560
 448,15; 8965,814;  227,205;15514,190;57,16371
 448,74; 8832,383;  236,128;15319,861;56,99023
 449,33; 8711,714;  225,588;15159,938;56,82287
 449,91; 8617,566;  221,893;14881,259;57,27173
 450,50; 8470,968;  218,893;14701,182;56,98046
 451,09; 8434,365;  228,662;14577,224;57,18833
 451,68; 8385,195;  246,815;14526,502;56,99270
 452,26; 8317,644;  243,891;14416,541;56,96714
 452,85; 8258,328;  232,045;14236,357;57,31294
 453,44; 8302,809;  249,734;14298,998;57,32026
 454,03; 8225,211;  215,659;14234,959;57,13232
 454,61; 8218,223;  215,426;14233,712;57,08827
 455,20; 8374,326;  237,194;14401,613;57,44769
 455,79; 8338,014;  247,196;14396,801;57,18052
 456,38; 8387,650;  239,115;14480,917;57,21562
 456,97; 8436,569;  231,885;14521,528;57,41700
 457,55; 8390,685;  217,114;14533,011;57,09437
 458,14; 8476,955;  253,039;14534,934;57,58281
 458,73; 8336,098;  238,575;14474,263;56,88185
 459,31; 8423,257;  268,650;14548,340;57,10633
 459,90; 8476,636;  266,190;14576,024;57,37625
 460,49; 8550,860;  332,190;14714,566;57,14403
 461,08; 8582,510;  225,418;14821,831;57,25442
 461,66; 8587,061;  233,881;14804,485;57,32899
 462,25; 8666,105;  237,571;14858,391;57,64747
 462,84; 8690,077;  271,341;14942,699;57,38212
 463,43; 8621,100;  203,107;14914,396;57,22132
 464,01; 8641,139;  227,875;14922,900;57,25247
 464,60; 8642,030;  289,108;14916,310;57,10540
 465,19; 8407,067;  203,644;14633,323;56,85105
 465,77; 8415,285;  234,488;14644,208;56,77277
 466,36; 8434,581;  253,876;14500,596;57,42167
 466,95; 8238,976;  235,491;14160,297;57,47646
 467,53; 8090,028;  231,256;13904,259;57,47656
 468,12; 7938,752;  264,718;13623,195;57,44693
 468,71; 7801,905;  232,643;13386,361;57,54465
 469,29; 7623,340;  209,102;13108,374;57,47796
 469,88; 7442,454;  221,793;12873,810;57,07122
 470,47; 7543,203;  281,329;13000,088;57,09577
 471,06; 7484,034;  237,022;12947,067;57,01799
 471,64; 7539,435;  233,792;13032,571;57,08078
 472,23; 7522,761;  217,710;13049,729;56,92831
 472,81; 7559,958;  210,405;13158,182;56,76305
 473,40; 7657,534;  228,710;13282,644;56,90870
 473,99; 7829,342;  320,172;13507,891;56,94063
 474,57; 7825,933;  231,864;13569,434;56,93743
 475,16; 7881,166;  244,173;13707,849;56,72294
 475,75; 8005,356;  246,093;13878,533;56,91764
 476,33; 8023,494;  249,861;13953,439;56,72704
 476,92; 8054,240;  256,018;14004,336;56,72128
 477,51; 8081,928;  251,939;14140,131;56,37875
 478,09; 8075,853;  247,631;14150,857;56,30507
 478,68; 8039,473;  258,938;14016,819;56,55330
 479,27; 8041,091;  283,401;14136,618;55,99919
 479,85; 8013,431;  253,092;14043,426;56,27376
 480,44; 8063,268;  230,937;14183,015;56,13738
 481,02; 8779,360;  256,397;15469,503;56,02382
 481,61; 9967,702;  276,706;17579,866;56,00709
 482,20;10605,842;  254,936;18794,122;55,83258
 482,78;11126,526;  289,553;19617,836;56,06796
 483,37;11398,943;  275,010;20203,289;55,81984
 483,95;11596,536;  300,395;20526,956;55,84806
 484,54;11663,981;  310,629;20749,998;55,54649
 485,13;11580,680;  271,931;20638,075;55,52720
 485,71;11414,829;  248,932;20437,114;55,30908
 486,30;11308,984;  292,932;20118,225;55,56565
 486,88;11108,368;  339,393;19756,357;55,46168
 487,47;10672,136;  305,469;18999,951;55,45308
 488,05;10170,993;  299,930;18136,204;55,34263
 488,64; 9454,939;  282,236;16822,511;55,45677
 489,23; 8411,067;  309,545;14968,763;55,26571
 489,81; 7187,874;  293,544;12807,451;55,09334
 490,40; 6763,156;  247,698;12153,204;54,72643
 490,98; 6573,683;  242,851;11883,187;54,38702
 491,57; 6541,883;  268,775;11811,644;54,34617
 492,15; 6475,386;  249,774;11741,426;54,17508
 492,74; 6418,979;  269,622;11602,755;54,25999
 493,32; 6367,408;  278,159;11485,375;54,33329
 493,91; 6292,436;  253,927;11425,618;54,05188
 494,50; 6266,661;  258,078;11390,601;53,97323
 495,08; 6199,078;  238,001;11299,943;53,88816
 495,67; 6155,484;  266,389;11347,058;53,14747
 496,25; 6069,835;  210,002;11181,105;53,41152
 496,84; 6058,306;  223,158;11147,524;53,41407
 497,42; 6021,184;  213,232;11127,631;53,21366
 498,01; 5966,032;  252,004;11103,571;52,65625
 498,59; 5894,982;  216,232;11009,652;52,61307
 499,18; 5882,404;  219,850;10958,695;52,72964
 499,76; 5855,318;  243,310;10887,110;52,72560
 500,35; 5746,092;  235,923;10681,110;52,75319
 500,93; 5659,429;  225,617;10649,729;52,12734
 501,52; 5648,807;  227,463;10557,033;52,48373
 502,10; 5611,675;  229,922;10562,332;52,08614
 502,69; 5506,175;  226,536;10390,879;51,94275
 503,27; 5349,953;  213,308;10160,811;51,63754
 503,86; 5316,024;  226,690;10117,319;51,45612
 504,44; 5235,907;  198,920; 9980,832;51,49286
 505,03; 5099,695;  189,612; 9763,187;51,28788
 505,61; 5032,199;  214,305; 9626,644;51,18700
 506,19; 4950,442;  228,305; 9506,148;50,89693
 506,78; 4806,408;  197,995; 9318,823;50,52626
 507,36; 4724,382;  202,305; 9169,435;50,42948
 507,95; 4628,098;  206,609; 8967,935;50,46598
 508,53; 4558,214;  200,457; 8839,080;50,44504
 509,12; 4474,682;  219,917; 8732,153;49,98410
 509,70; 4390,124;  233,301; 8577,503;49,81690
 510,29; 4332,241;  242,531; 8439,392;49,89361
 510,87; 4198,482;  205,533; 8183,986;50,04666
 511,46; 4107,749;  189,533; 8086,332;49,61778
 512,04; 4001,157;  205,686; 7932,627;49,11997
 512,62; 3961,751;  209,918; 7792,058;49,48251
 513,21; 3833,302;  196,454; 7627,370;48,94212
 513,79; 3726,753;  203,297; 7534,648;48,06012
 514,38; 3636,095;  191,990; 7356,845;48,06943
 514,96; 3623,395;  225,683; 7260,366;48,29944
 515,54; 3523,019;  189,990; 7101,935;48,22129
 516,13; 3471,931;  216,759; 7077,247;47,44812
 516,71; 3382,579;  199,219; 6900,285;47,50528
 517,30; 3339,432;  189,602; 6777,909;47,80939
 517,88; 3308,255;  217,833; 6696,640;47,70048
 518,46; 3192,201;  189,756; 6589,999;46,91143
 519,05; 3143,968;  202,139; 6529,725;46,49212
 519,63; 3129,622;  208,063; 6461,883;46,71639
 520,22; 3105,468;  236,291; 6396,901;46,57293
 520,80; 3047,302;  208,599; 6356,563;46,17306
 521,38; 3055,859;  249,677; 6324,495;46,19369
 521,97; 3007,223;  209,598; 6288,674;46,02056
 522,55; 2950,548;  221,444; 6249,687;45,27197
 523,13; 2940,923;  193,905; 6226,473;45,53646
 523,72; 2909,486;  201,756; 6181,499;45,28172
 524,30; 2988,783;  226,366; 6308,794;45,41636
 524,89; 2961,211;  189,905; 6273,875;45,55094
 525,47; 2973,279;  223,134; 6436,029;44,26512
 526,05; 3002,981;  185,826; 6496,311;44,64244
 526,64; 3022,118;  235,903; 6544,114;44,16807
 527,22; 3076,950;  223,904; 6686,717;44,14559
 527,80; 3162,498;  252,441; 6790,704;44,50811
 528,39; 3116,527;  215,440; 6899,738;43,40152
 528,97; 3180,185;  217,518; 7022,426;43,53721
 529,55; 3225,962;  229,520; 7231,490;42,79427
 530,14; 3323,105;  228,209; 7420,922;43,02822
 530,72; 3318,340;  213,672; 7478,076;42,73810
 531,30; 3382,478;  183,747; 7650,123;42,84181
 531,89; 3423,977;  206,363; 7726,644;42,78582
 532,47; 3481,496;  243,593; 7835,225;42,65095
 533,05; 3441,343;  239,903; 7874,131;41,93535
 533,63; 3455,949;  234,747; 7890,418;42,07603
 534,22; 3462,008;  205,131; 7928,713;42,16796
 534,80; 3477,215;  238,822; 8044,909;41,48548
 535,38; 3564,986;  320,516; 8141,619;41,48354
 535,97; 3446,691;  210,516; 8068,277;41,18444
 536,55; 3499,069;  273,514; 8157,157;40,91452
 537,13; 3439,166;  276,440; 8150,866;40,16452
 537,71; 3435,331;  310,132; 8166,896;39,77718
 538,30; 3463,239;  325,669; 8256,648;39,56093
 538,88; 3474,917;  354,052; 8327,755;39,13947
 539,46; 3552,156;  408,899; 8514,845;38,77718
 540,05; 3608,976;  403,975; 8620,114;39,00860
 540,63; 3639,036;  457,975; 8814,059;38,06880
 541,21; 3686,953;  482,589; 8956,486;37,81453
 541,79; 3756,068;  507,436; 9126,469;37,69138
 542,38; 3787,988;  539,360; 9204,913;37,48898
 542,96; 3803,554;  556,588; 9376,337;36,81472
 543,54; 3883,062;  570,282; 9579,255;36,77200
 544,12; 3908,809;  529,435; 9696,845;36,86290
 544,70; 3920,790;  511,204; 9855,285;36,48926
 545,29; 3975,163;  522,668; 9943,533;36,64732
 545,87; 3943,453;  520,743; 9958,777;36,26507
 546,45; 3914,811;  476,206; 9995,260;36,12339
 547,03; 3890,166;  450,282;10089,230;35,68734
 547,62; 3937,766;  417,974;10221,298;35,90407
 548,20; 3979,894;  428,819;10364,644;35,74010
 548,78; 4012,868;  388,124;10462,580;35,97955
 549,36; 4006,780;  369,740;10717,879;35,14681
 549,94; 4035,512;  330,820;10753,931;35,54305
 550,53; 4103,781;  327,432;11007,285;35,35956
 551,11; 4113,254;  309,508;11176,781;35,00185
 551,69; 4210,854;  320,355;11465,273;34,90828
 552,27; 4260,700;  271,818;11710,093;34,87311
 552,85; 4343,791;  280,585;12103,593;34,36694
 553,44; 4434,448;  286,663;12378,961;34,30105
 554,02; 4532,755;  300,124;12654,093;34,26130
 554,60; 4553,223;  233,585;12918,320;34,05383
 555,18; 4677,664;  265,355;13307,016;33,83242
 555,76; 4755,005;  260,893;13653,371;33,55699
 556,34; 4867,937;  275,430;13991,273;33,48323
 556,93; 4901,168;  262,201;14388,948;32,83818
 557,51; 4971,746;  232,891;14755,170;32,63162
 558,09; 5100,955;  265,740;15098,345;32,59856
 558,67; 5185,626;  261,429;15430,691;32,46168
 559,25; 5250,299;  270,968;15672,170;32,33079
 559,83; 5294,173;  237,582;16057,644;31,96315
 560,41; 5362,692;  243,199;16329,657;31,82486
 561,00; 5397,358;  255,967;16659,478;31,34323
 561,58; 5419,880;  238,584;16947,418;31,00932
 562,16; 5493,698;  242,969;17243,768;30,88518
 562,74; 5505,737;  223,508;17582,388;30,42955
 563,32; 5632,171;  210,043;18026,918;30,43254
 563,90; 5680,723;  249,583;18359,508;29,98985
 564,48; 5763,140;  249,200;18754,734;29,79617
 565,06; 5908,601;  242,506;19298,508;29,73391
 565,65; 6096,974;  246,888;19959,760;29,67648
 566,23; 6256,263;  296,736;20662,926;29,26186
 566,81; 6405,066;  245,660;21389,059;29,13158
 567,39; 6593,974;  256,197;22319,811;28,72502
 567,97; 6735,480;  266,198;22873,619;28,61574
 568,55; 6898,783;  280,582;23783,234;28,15938
 569,13; 7067,150;  243,813;24431,824;28,20958
 569,71; 7240,235;  243,893;25404,965;27,80622
 570,29; 7498,454;  278,893;26342,713;27,69955
 570,87; 7670,474;  285,354;27066,849;27,57546
 571,45; 7718,085;  267,198;27717,085;27,14360
 572,03; 7812,485;  235,274;28116,067;27,17717
 572,61; 7917,993;  222,274;28951,153;26,78740
 573,20; 8038,365;  257,430;29551,008;26,56192
 573,78; 8174,883;  243,890;30118,426;26,54767
 574,36; 8284,003;  262,505;30688,687;26,36380
 574,94; 8370,689;  321,427;31016,324;26,22345
 575,52; 8301,931;  249,810;31214,294;26,00438
 576,10; 8439,750;  303,887;31765,832;25,85937
 576,68; 8494,119;  298,581;32340,773;25,57733
 577,26; 8623,883;  307,963;33090,559;25,36688
 577,84; 8677,105;  313,198;33542,837;25,17002
 578,42; 8754,727;  358,965;33877,397;25,04819
 579,00; 8638,672;  313,197;33915,396;24,77658
 579,58; 8651,172;  358,042;34096,174;24,58088
 580,16; 8536,641;  308,195;34110,435;24,34290
 580,74; 8547,223;  316,195;34375,401;24,16682
 581,32; 8479,834;  322,273;34369,747;23,95937
 581,90; 8431,312;  329,272;34303,123;23,84787
 582,48; 8416,276;  328,272;34453,713;23,70080
 583,06; 8381,232;  318,273;34590,426;23,52627
 583,64; 8296,496;  324,889;34648,614;23,22477
 584,22; 8223,156;  342,040;34468,170;23,09408
 584,80; 8127,998;  336,965;34092,063;23,08106
 585,38; 7954,375;  355,353;33784,696;22,73159
 585,96; 7872,048;  315,735;33751,666;22,59938
 586,54; 7861,298;  348,733;33736,897;22,50068
 587,12; 7843,100;  309,118;33973,303;22,37981
 587,70; 7849,399;  337,812;34128,093;22,23002
 588,28; 7775,098;  313,272;34026,730;22,13308
 588,86; 7703,824;  321,502;34187,085;21,79889
 589,44; 7682,915;  299,423;34186,969;21,78822
 590,02; 7717,877;  309,347;34351,666;21,76271
 590,59; 7618,123;  284,964;34578,662;21,38340
 591,17; 7700,776;  303,729;34693,392;21,50951
 591,75; 7645,962;  278,884;34799,016;21,34140
 592,33; 7664,231;  308,962;35008,140;21,19724
 592,91; 7579,316;  255,499;35236,029;20,93684
 593,49; 7628,312;  267,883;35565,798;20,85230
 594,07; 7677,521;  287,883;35788,794;20,81535
 594,65; 7582,400;  300,271;35772,234;20,52925
 595,23; 7638,278;  283,270;36175,414;20,49197
 595,81; 7599,104;  296,116;36321,884;20,27157
 596,39; 7576,416;  287,423;36461,525;20,14975
 596,97; 7564,046;  275,576;36559,935;20,08708
 597,55; 7524,302;  274,194;36480,627;20,02437
 598,12; 7481,983;  245,497;36512,422;19,95340
 598,70; 7434,578;  245,191;36662,042;19,74192
 599,28; 7456,329;  283,268;36867,952;19,60673
 599,86; 7410,305;  254,499;36829,033;19,56500
 600,44; 7321,978;  241,883;36966,538;19,27886
 601,02; 7357,159;  294,496;36932,542;19,27685
 601,60; 7298,445;  272,500;36973,021;19,14399
 602,18; 7207,978;  247,113;36930,397;18,97558
 602,75; 7213,368;  250,654;37065,533;18,91277
 603,33; 7145,369;  264,960;37078,508;18,68988
 603,91; 7088,858;  243,035;37002,533;18,62328
 604,49; 7120,545;  282,883;37014,085;18,61541
 605,07; 7071,807;  284,884;37183,136;18,39362
 605,65; 7008,467;  295,267;37189,832;18,19563
 606,23; 6965,691;  350,041;37287,012;17,91065
 606,80; 7011,867;  384,885;37392,670;17,90699
 607,38; 6939,366;  421,958;37380,170;17,63453
 607,96; 6941,538;  461,808;37486,820;17,50095
 608,54; 6953,197;  524,959;37474,354;17,39741
 609,12; 6927,926;  539,270;37559,580;17,25716
 609,70; 6901,687;  571,960;37639,811;17,07605
 610,27; 6877,339;  564,655;37785,358;16,96014
 610,85; 6855,568;  585,114;37749,956;16,87200
 611,43; 6810,866;  582,806;37736,841;16,76281
 612,01; 6697,722;  548,577;37484,273;16,64825
 612,59; 6689,975;  556,806;37576,841;16,56716
 613,16; 6643,349;  524,194;37437,341;16,57717
 613,74; 6582,197;  490,268;37386,495;16,51098
 614,32; 6585,277;  458,882;37316,730;16,62168
 614,90; 6486,147;  435,038;37231,995;16,44459
 615,48; 6427,937;  373,040;36866,751;16,59162
 616,05; 6367,995;  343,348;36856,845;16,49978
 616,63; 6355,205;  365,733;36721,862;16,47445
 617,21; 6251,319;  348,193;36611,311;16,27859
 617,79; 6226,956;  343,885;36569,405;16,24013
 618,36; 6188,999;  342,807;36469,119;16,18264
 618,94; 6092,732;  295,886;36158,627;16,16398
 619,52; 6050,694;  312,425;35846,388;16,14869
 620,10; 5990,562;  292,039;35860,123;16,02145
 620,67; 5964,341;  298,349;35807,388;15,95648
 621,25; 5926,425;  324,807;35706,204;15,83210
 621,83; 5875,214;  303,117;35599,982;15,78638
 622,41; 5903,787;  359,501;35657,281;15,70718
 622,98; 5797,030;  317,503;35302,550;15,66249
 623,56; 5799,964;  318,272;35275,700;15,68105
 624,14; 5721,272;  306,191;35161,063;15,53608
 624,72; 5704,058;  301,424;35078,179;15,53519
 625,29; 5715,638;  285,810;35174,072;15,56348
 625,87; 5718,072;  332,731;35105,191;15,48737
 626,45; 5609,376;  287,042;34915,213;15,36995
 627,02; 5625,173;  292,346;34950,879;15,38676
 627,60; 5610,265;  271,267;34878,764;15,42729
 628,18; 5571,233;  258,270;34918,965;15,32850
 628,76; 5600,843;  265,041;34954,439;15,38165
 629,33; 5604,331;  292,963;34885,867;15,35392
 629,91; 5566,562;  276,962;34917,431;15,27000
 630,49; 5607,589;  291,117;35059,687;15,29103
 631,06; 5590,830;  289,195;35196,452;15,18777
 631,64; 5603,112;  288,888;35120,640;15,25684
 632,22; 5526,161;  248,811;35036,563;15,17014
 632,79; 5612,912;  282,427;35309,704;15,21810
 633,37; 5579,071;  252,577;35401,709;15,15398
 633,95; 5606,931;  262,657;35488,114;15,17162
 634,52; 5568,652;  246,578;35618,944;15,04585
 635,10; 5579,132;  264,039;35689,738;15,00350
 635,68; 5596,642;  264,504;35817,610;14,99767
 636,25; 5597,698;  248,351;35772,503;15,05834
 636,83; 5640,459;  228,964;35999,593;15,12832
 637,41; 5631,362;  249,273;36041,354;15,03709
 637,98; 5655,819;  283,504;36243,636;14,93964
 638,56; 5691,838;  264,044;36299,657;15,06231
 639,13; 5696,085;  242,349;36295,589;15,12690
 639,71; 5749,697;  312,810;36469,841;15,03687
 640,29; 5670,711;  224,194;36269,643;15,11014
 640,86; 5668,825;  241,348;36562,378;14,94307
 641,44; 5681,093;  240,810;36416,421;15,03854
 642,02; 5742,899;  268,117;36501,617;15,10972
 642,59; 5748,321;  241,117;36507,968;15,18523
 643,17; 5733,051;  242,656;36583,780;15,10794
 643,74; 5779,011;  243,425;36595,976;15,22750
 644,32; 5748,510;  270,809;36562,865;15,09339
 644,89; 5729,316;  263,963;36575,523;15,05128
 645,47; 5792,584;  266,886;36564,951;15,22312
 646,05; 5747,314;  263,502;36439,147;15,15885
 646,62; 5747,197;  248,117;36521,421;15,16013
 647,20; 5770,388;  254,732;36625,464;15,16509
 647,77; 5750,271;  233,271;36563,429;15,18573
 648,35; 5710,462;  230,886;36454,011;15,12729
 648,92; 5784,423;  254,040;36523,592;15,24800
 649,50; 5718,152;  220,886;36442,327;15,17683
 650,08; 5721,728;  220,886;36275,985;15,25677
 650,65; 5763,380;  236,039;36535,335;15,22713
 651,23; 5898,956;  213,193;37329,378;15,31882
 651,80; 6025,224;  217,193;38230,959;15,27876
 652,38; 6147,569;  230,809;38683,233;15,38722
 652,95; 6206,991;  216,885;39039,891;15,42927
 653,53; 6253,643;  243,116;39355,241;15,36743
 654,10; 6328,219;  269,347;39470,284;15,45594
 654,68; 6291,487;  215,885;39351,865;15,52434
 655,25; 6303,678;  215,577;39531,139;15,48522
 655,83; 6325,792;  211,654;39701,489;15,48281
 656,40; 6373,598;  262,347;39471,994;15,58609
 656,98; 6330,712;  218,116;39510,806;15,55657
 657,55; 6359,827;  228,039;39312,694;15,68848
 658,13; 6321,710;  223,423;38933,891;15,75359
 658,70; 6302,439;  250,500;38701,780;15,73924
 659,28; 6188,554;  231,192;37787,977;15,86228
 659,85; 6060,283;  247,962;36911,327;15,85321
 660,43; 6088,782;  245,577;37010,600;15,89338
 661,00; 6125,819;  217,038;37113,336;16,01456
 661,58; 6183,933;  226,808;37430,224;16,01231
 662,15; 6226,047;  214,038;37623,575;16,07079
 662,73; 6343,700;  296,269;37994,771;16,04157
 663,30; 6343,045;  233,346;38122,814;16,12506
 663,88; 6445,313;  238,115;38285,165;16,31453
 664,45; 6469,811;  221,192;38475,515;16,33441
 665,03; 6565,849;  225,192;38934,096;16,38036
 665,60; 6744,732;  315,961;39296,524;16,49225
 666,17; 6710,308;  231,730;39435,643;16,52533
 666,75; 6796,191;  237,884;39837,917;16,56137
 667,32; 6901,536;  257,422;40136,652;16,66059
 667,90; 6953,342;  248,576;40373,925;16,70955
 668,47; 7053,456;  254,268;40711,507;16,80586
 669,05; 7141,647;  238,422;41041,319;16,91847
 669,62; 7139,761;  215,268;41094,207;16,93902
 670,19; 7229,337;  207,576;41221,096;17,12060
 670,77; 7260,913;  225,191;41436,831;17,07217
 671,34; 7274,796;  222,653;41280,489;17,17612
 671,92; 7393,910;  223,268;41671,994;17,30003
 672,49; 7415,255;  249,114;41653,036;17,30788
 673,06; 7413,292;  180,576;41684,848;17,42644
 673,64; 7431,099;  209,037;41721,814;17,39720
 674,21; 7491,290;  198,806;41601,780;17,61343
 674,79; 7581,788;  237,498;41879,361;17,63679
 675,36; 7610,979;  243,345;41950,096;17,66533
 675,93; 7602,478;  207,883;41798,447;17,77950
 676,51; 7665,977;  233,883;41996,797;17,79592
 677,08; 7739,399;  238,267;42145,609;17,89932
 677,65; 7768,051;  227,344;42244,575;17,94670
 678,23; 7882,473;  235,806;42378,002;18,14492
 678,80; 7873,664;  226,344;42468,276;18,10362
 679,38; 7983,932;  215,421;42651,934;18,30620
 679,95; 8028,815;  226,498;42874,669;18,29461
 680,52; 8159,930;  226,806;43211,404;18,45574
 681,10; 8263,505;  242,344;43619,908;18,49150
 681,67; 8322,004;  240,652;43908,336;18,50648
 682,24; 8381,503;  205,882;43960,840;18,68501
 682,82; 8528,463;  215,113;44518,267;18,76469
 683,39; 8716,577;  261,805;44947,541;18,92052
 683,96; 8770,460;  228,113;45163,353;19,01035
 684,54; 8861,805;  214,882;45566,549;19,06638
 685,11; 9026,766;  261,574;45995,977;19,16542
 685,68; 9126,880;  220,343;46347,635;19,30860
 686,25; 9188,763;  209,574;46329,678;19,46914
 686,83; 9227,877;  224,266;46587,182;19,41985
 687,40; 9383,376;  205,805;46909,071;19,65081
 687,97; 9533,798;  262,882;47309,114;19,70597
 688,55; 9531,681;  212,266;47325,926;19,78071
 689,12; 9632,641;  191,728;47588,045;19,91909
 689,69; 9698,986;  201,497;47694,703;19,99757
 690,26; 9741,023;  218,035;47746,208;20,03651
 690,84; 9822,060;  217,112;48066,327;20,07337
 691,41; 9889,636;  228,343;48172,062;20,15132
 691,98; 9979,519;  228,189;48503,951;20,19923
 692,56;10008,403;  220,650;48556,763;20,24936
 693,13;10093,671;  276,573;48519,652;20,34923
 693,70;10204,323;  239,343;48637,233;20,58970
 694,27;10221,899;  216,419;48796,430;20,59588
 694,84;10281,628;  213,189;48898,011;20,68086
 695,42;10443,896;  261,650;49019,361;20,88336
 695,99;10470,395;  217,727;49180,327;20,93980
 696,56;10552,279;  216,496;49034,062;21,17226
 697,13;10649,700;  232,650;49420,720;21,17800
 697,71;10706,353;  209,727;49394,686;21,34113
 698,28;10827,159;  217,727;49714,037;21,43480
 698,85;10856,889;  199,727;49725,003;21,51863
 699,42;10977,464;  202,342;49934,584;21,66627
 699,99;11024,809;  240,803;50030,319;21,65919
 700,57;11105,308;  232,342;50115,362;21,79693
 701,14;11166,807;  206,573;50235,712;21,90770
 701,71;11275,767;  232,803;50426,062;22,00089
 702,28;11299,650;  229,034;50475,259;22,03273
 702,85;11383,457;  224,495;50574,686;22,16270
 703,43;11525,956;  251,342;50838,037;22,28771
 704,00;11603,147;  245,726;50977,849;22,38704
 704,57;11652,491;  235,188;51011,738;22,48539
 705,14;11759,836;  252,880;51250,088;22,56389
 705,71;11868,566;  259,880;51277,054;22,75447
 706,28;11901,141;  231,880;51163,327;22,91170
 706,86;12044,102;  260,187;51476,755;23,00801
 707,43;12103,139;  289,957;51421,721;23,10341
 708,00;12109,484;  259,803;51456,071;23,14560
 708,57;12150,675;  234,956;51246,421;23,35890
 709,14;12238,943;  261,879;51501,926;23,37442
 709,71;12266,826;  241,572;51586,738;23,42042
 710,28;12466,940;  236,418;51710,165;23,76070
 710,86;12472,747;  244,725;51954,054;23,64761
 711,43;12639,015;  267,495;51845,866;23,98587
 712,00;12697,975;  249,494;51973,447;24,06715
 712,57;12767,243;  261,802;52051,182;24,14673
 713,14;12869,665;  234,417;52193,994;24,31746
 713,71;12895,625;  246,802;52137,652;24,37583
 714,28;12965,354;  235,033;52217,926;24,48944
 714,85;12957,315;  221,110;51842,968;24,67212
 715,42;13070,198;  225,417;52187,396;24,71958
 716,00;13208,004;  300,033;52292,977;24,82639
 716,57;13297,580;  233,263;52374,943;25,05542
 717,14;13237,848;  211,725;52272,447;25,02102
 717,71;13375,424;  212,725;52283,874;25,27830
 718,28;13444,153;  265,955;52493,917;25,23207
 718,85;13489,652;  204,955;52412,575;25,44590
 719,42;13567,381;  241,878;52662,080;25,42055
 719,99;13616,726;  219,571;52385,892;25,68162
 720,56;13730,764;  243,417;52752,242;25,68587
 721,13;13765,262;  217,032;52790,823;25,76993
 721,70;13816,761;  203,724;52633,174;25,96449
 722,27;13847,337;  232,186;52831,601;25,88461
 722,84;14007,912;  288,493;52843,721;26,10477
 723,41;14063,411;  208,032;52888,686;26,30070
 723,98;14156,833;  221,570;53198,268;26,30451
 724,55;14283,793;  256,724;53259,772;26,46465
 725,12;14276,446;  181,185;53261,738;26,55447
 725,69;14404,252;  208,570;53273,627;26,75147
 726,27;14510,597;  221,570;53351,208;26,89464
 726,84;14650,403;  233,031;53717,558;26,95616
 727,41;14697,287;  241,262;53692,986;27,04501
 727,98;14803,401;  235,493;53909,259;27,14158
 728,55;14885,900;  274,339;53881,456;27,25676
 729,12;14917,321;  209,185;54031,575;27,32717
 729,69;15062,666;  235,339;54118,464;27,51757
 730,26;15161,934;  239,108;54533,507;27,48502
 730,82;15143,971;  229,569;54254,781;27,60637
 731,39;15305,316;  229,031;54317,746;27,87325
 731,96;15470,661;  214,800;54680,251;28,01016
 732,53;15579,237;  236,185;54873,678;28,08154
 733,10;15647,120;  243,031;54889,028;28,18887
 733,67;15795,234;  236,184;55261,302;28,27627
 734,24;15752,118;  217,031;54871,499;28,42418
 734,81;15828,462;  259,492;54910,464;28,48800
 735,38;15829,730;  232,954;54665,661;28,65332
 735,95;15889,075;  228,107;54563,473;28,82279
 736,52;16002,959;  236,723;54779,823;28,90601
 737,09;15958,073;  248,646;54388,712;29,01627
 737,66;16133,033;  286,030;54600,140;29,17659
 738,23;16170,301;  226,030;54758,721;29,23801
 738,80;16367,338;  307,722;55002,148;29,36244
 739,37;16485,991;  261,645;55128,652;29,57031
 739,94;16483,951;  236,953;55163,387;29,57956
 740,51;16671,681;  366,338;55300,507;29,68160
 741,07;16665,102;  233,722;55208,781;29,88879
 741,64;16760,524;  273,107;55394,054;29,91135
 742,21;16852,177;  238,722;55571,558;30,02459
 742,78;16927,522;  213,030;55299,755;30,34214
 743,35;17039,636;  232,183;55646,105;30,33074
 743,92;17116,211;  280,876;55889,379;30,27475
 744,49;17212,095;  273,183;55738,191;30,53982
 745,06;17284,440;  230,568;55709,695;30,73926
 745,63;17288,169;  223,029;55595,276;30,81894
 746,19;17426,899;  227,183;55560,858;31,08363
 746,76;17401,628;  236,798;55580,516;31,01496
 747,33;17521,896;  243,183;55549,020;31,24211
 747,90;17663,164;  263,798;55781,140;31,34042
 748,47;17684,663;  240,875;55719,336;31,44245
 749,04;17782,777;  244,567;55769,148;31,58639
 749,61;17741,352;  279,183;55687,729;31,51530
 750,17;17904,774;  265,413;55746,234;31,79362
 750,74;17910,581;  251,875;55801,200;31,78924
 751,31;17906,772;  232,413;55590,319;31,92743
 751,88;18003,501;  216,336;55543,208;32,14923
 752,45;18129,846;  231,490;55604,251;32,32339
 753,02;18121,883;  260,413;55423,140;32,37960
 753,58;18158,613;  232,490;55410,875;32,48758
 754,15;18200,035;  219,028;55610,918;32,46144
 754,72;18156,072;  230,028;55382,806;32,50252
 755,29;18224,570;  221,721;55210,541;32,73911
 755,86;18309,685;  253,490;55419,430;32,73069
 756,42;18402,414;  251,336;55133,781;33,07265
 756,99;18413,990;  215,182;55231,285;33,07906
 757,56;18419,258;  229,874;55230,405;33,07129
 758,13;18450,987;  179,951;55113,447;33,26028
 758,70;18587,332;  215,489;55279,875;33,36429
 759,26;18669,369;  202,643;55239,687;33,55327
 759,83;18686,176;  227,028;55372,883;33,47332
 760,40;18709,136;  210,566;55218,311;33,62903
 760,97;18708,327;  206,489;55244,353;33,61656
 761,53;18675,056;  185,643;54956,396;33,75782
 762,10;18692,940;  186,412;54850,362;33,85509
 762,67;18808,515;  214,489;54907,097;33,99733
 763,24;18693,091;  173,874;54437,601;34,12817
 763,80;18898,667;  207,797;54611,798;34,35569
 764,37;18828,704;  211,181;54580,148;34,24292
 764,94;18739,049;  197,258;54198,499;34,33586
 765,50;18846,240;  205,335;54206,695;34,51932
 766,07;18927,431;  237,489;54177,507;34,64949
 766,64;18790,160;  214,719;53884,319;34,61073
 767,21;18863,198;  213,873;53796,977;34,80449
 767,77;18888,004;  234,719;53682,943;34,89973
 768,34;18889,657;  223,950;53621,448;34,95614
 768,91;18940,617;  233,719;53493,260;35,12403
 769,47;18999,500;  232,488;53468,072;35,25276
 770,04;19005,922;  245,719;53389,037;35,30115
 770,61;18883,959;  219,180;53037,695;35,33757
 771,18;18974,535;  211,334;53017,969;35,53190
 771,74;18964,803;  226,873;53148,935;35,40665
 772,31;19049,994;  236,103;52924,131;35,70809
 772,88;19035,031;  205,796;52656,174;35,89914
 773,44;18998,145;  202,565;52564,832;35,89528
 774,01;19120,182;  233,796;52605,952;36,06189
 774,58;19049,835;  215,642;52376,456;36,10794
 775,14;19152,180;  208,411;52458,191;36,25617
 775,71;19144,602;  210,795;52348,926;36,31470
 776,27;19184,870;  273,641;52254,661;36,38103
 776,84;19355,907;  312,180;52286,243;36,64083
 777,41;19232,559;  226,411;52017,901;36,69744
 777,97;19121,058;  215,795;51779,713;36,66374
 778,54;19216,480;  231,641;52002,294;36,67104
 779,11;19222,825;  260,641;51813,490;36,78203
 779,67;19307,708;  216,487;51780,072;37,02462
 780,24;19299,591;  231,949;51504,576;37,18874
 780,80;19344,936;  235,949;51658,234;37,16091
 781,37;19316,512;  237,795;51581,200;37,15904
 781,94;19299,318;  230,948;51445,858;37,23207
 782,50;19296,509;  228,179;51259,670;37,36581
 783,07;19393,085;  257,564;51261,097;37,51803
 783,63;19325,045;  221,871;51107,909;37,54109
 784,20;19367,313;  248,179;51014,798;37,66084
 784,77;19315,812;  232,410;50773,302;37,75834
 785,33;19290,234;  210,102;50667,037;37,81469
 785,90;19372,886;  228,102;50623,926;37,98883
 786,46;19303,539;  256,102;50497,815;37,91160
 787,03;19294,422;  228,102;50236,243;38,12643
 787,59;19311,152;  232,563;50226,978;38,16144
 788,16;19365,958;  235,871;50217,020;38,27460
 788,73;19303,611;  236,409;50094,217;38,24316
 789,29;19199,802;  230,640;49793,875;38,27265
 789,86;19224,762;  258,178;49607,226;38,43354
 790,42;19285,261;  238,101;49520,038;38,64937
 790,99;19118,221;  241,871;49234,388;38,52905
 791,55;19233,258;  233,255;49198,969;38,80267
 792,12;19198,680;  270,794;49232,320;38,65869
 792,68;19154,025;  239,178;48915,901;38,85809
 793,25;19146,678;  249,409;48664,020;39,03216
 793,81;19121,484;  318,486;48265,909;39,21587
 794,38;18991,290;  209,870;48136,952;39,18749
 794,94;18966,635;  239,870;48136,610;39,09820
 795,51;18924,365;  243,255;47862,730;39,22998
 796,07;18837,017;  234,101;47650,696;39,23292
 796,64;18918,824;  262,870;47746,046;39,28961
 797,20;18793,169;  246,178;47193,089;39,50631
 797,77;18697,129;  215,408;46881,670;39,60403
 798,33;18670,243;  244,177;46734,251;39,63441
 798,90;18672,511;  251,485;46698,063;39,66067
 799,46;18525,240;  221,947;46181,798;39,82453
 800,03;18583,278;  244,100;46101,918;39,99139
 800,59;18505,853;  259,254;45974,191;39,91387
 801,15;18479,044;  253,023;45733,850;40,07408
 801,72;18398,620;  240,946;45340,585;40,26124
 802,28;18316,580;  267,946;45057,089;40,29690
 802,85;18258,310;  238,254;44917,132;40,33238
 803,41;18213,347;  228,562;44717,636;40,42517
 803,98;18131,692;  231,946;44265,909;40,64986
 804,54;18012,883;  234,331;44154,568;40,47918
 805,11;17989,997;  247,715;43862,841;40,67919
 805,67;17933,111;  262,254;43846,653;40,54400
 806,23;17825,379;  249,177;43371,003;40,75941
 806,80;17891,185;  260,023;43244,277;41,01772
 807,36;17818,915;  258,253;43238,243;40,85776
 807,93;17741,183;  267,176;43079,055;40,81579
 808,49;17669,066;  233,561;42628,559;41,12633
 809,05;17563,180;  231,561;42517,909;40,98632
 809,62;17568,679;  264,407;42372,183;41,09519
 810,18;17575,947;  250,638;42348,149;41,15519
 810,74;17476,292;  218,022;41992,576;41,31288
 811,31;17501,714;  227,407;41870,234;41,48207
 811,87;17506,751;  254,330;41773,046;41,55336
 812,44;17508,557;  268,176;41687,781;41,62372
 813,00;17407,287;  204,637;41421,439;41,73698
 813,56;17398,786;  255,176;41486,559;41,57903
 814,13;17532,284;  234,945;41479,140;41,93885
 814,69;17366,860;  243,099;41172,414;41,83740
 815,25;17299,359;  209,022;40779,533;42,12502
 815,82;17274,780;  260,637;40770,038;42,00048
 816,38;17341,125;  289,637;40586,696;42,31447
 816,94;17168,086;  226,637;40272,969;42,30462
 817,51;17048,738;  220,637;40085,166;42,21322
 818,07;16989,622;  221,022;39734,670;42,43749
 818,63;16946,966;  234,021;39568,482;42,48932
 819,20;16993,311;  245,329;39580,525;42,57760
 819,76;16791,118;  223,483;39195,260;42,51188
 820,32;16875,693;  248,252;39074,764;42,82497
 820,89;16768,961;  247,021;38918,807;42,72350
 821,45;16616,075;  217,406;38530,927;42,80126
 822,01;16538,959;  252,867;38313,739;42,78959
 822,57;16551,534;  252,559;38158,628;42,99833
 823,14;16480,341;  216,867;37916,132;43,14003
 823,70;16370,224;  220,021;37639,482;43,15990
 824,26;16327,492;  219,482;37478,602;43,23240
 824,82;16408,914;  256,867;37394,875;43,49196
 825,39;16302,490;  228,251;37042,534;43,66305
 825,95;16338,142;  238,328;37083,730;43,69558
 826,51;16151,179;  239,790;36697,234;43,64373
 827,08;16229,447;  270,251;36758,662;43,73771
 827,64;16188,254;  252,097;36598,781;43,84487
 828,20;16061,983;  214,867;36265,901;43,95745
 828,76;16084,328;  253,866;36258,636;43,96768
 829,32;16133,058;  261,251;36200,987;44,16228
 829,89;15940,095;  209,789;35935,106;44,03126
 830,45;15988,286;  237,482;36000,687;44,04192
 831,01;15986,015;  232,712;35591,269;44,55302
 831,57;15942,591;  240,328;35661,388;44,33030
 832,14;15879,782;  221,020;35632,585;44,21934
 832,70;15855,435;  219,558;35308,551;44,56063
 833,26;15905,087;  199,020;35184,824;44,89269
 833,82;15876,663;  229,404;35104,636;44,86639
 834,38;15924,162;  222,558;35095,140;45,02564
 834,95;15832,353;  213,635;35052,260;44,83161
 835,51;15786,928;  190,635;34868,072;44,97533
 836,07;15822,812;  234,173;34910,423;44,95480
 836,63;15934,387;  244,866;34946,158;45,21308
 837,19;15859,117;  234,558;34790,893;45,21475
 837,75;15673,231;  204,481;34431,166;45,19500
 838,32;15764,653;  244,942;34548,901;45,24175
 838,88;15890,844;  241,481;34645,175;45,48745
 839,44;15828,112;  248,865;34467,987;45,52790
 840,00;15838,610;  241,404;34451,337;45,59262
 840,56;15754,801;  222,404;34168,149;45,75654
 841,12;15762,992;  218,634;34182,961;45,76672
 841,68;15759,799;  196,173;33923,004;46,14613
 842,25;15770,144;  232,557;33917,970;46,12556
 842,81;15683,335;  204,942;33732,782;46,16579
 843,37;15699,218;  200,634;33731,594;46,22171
 843,93;15673,025;  227,557;33568,329;46,32606
 844,49;15735,216;  237,788;33657,910;46,37155
 845,05;15700,791;  187,557;33455,260;46,63152
 845,61;15788,136;  245,095;33466,918;46,78563
 846,17;15632,327;  222,172;33305,653;46,57960
 846,73;15762,134;  230,634;33273,542;47,00403
 847,29;15677,709;  211,326;33127,123;46,98772
 847,86;15664,362;  210,249;33033,859;47,08231
 848,42;15655,322;  223,095;32902,594;47,22296
 848,98;15644,975;  228,403;32852,098;47,25575
 849,54;15679,243;  214,633;32873,756;47,35158
 850,10;15598,664;  232,403;32833,183;47,13464
 850,66;15569,240;  212,326;32636,534;47,36250
 851,22;15582,969;  196,864;32571,269;47,52552
 851,78;15594,084;  250,018;32602,235;47,42817
 852,34;15460,967;  232,710;32403,047;47,33633
 852,90;15450,620;  216,556;32242,782;47,56746
 853,46;15340,118;  213,402;32069,671;47,48427
 854,02;15470,386;  231,787;32082,329;47,84408
 854,58;15335,116;  227,171;31738,910;47,94386
 855,14;15237,614;  217,941;31687,953;47,72694
 855,70;15222,805;  177,633;31580,226;47,91061
 856,26;15229,304;  226,171;31551,500;47,89458
 856,82;15214,264;  220,633;31325,773;48,20307
 857,38;15135,763;  247,940;31349,508;47,86840
 857,94;15141,108;  217,786;31077,320;48,35887
 858,50;15090,145;  258,940;31058,594;48,15380
 859,06;14994,644;  215,479;30823,713;48,28493
 859,62;14967,758;  231,709;30848,525;48,13057
 860,18;14943,411;  224,786;30541,876;48,54894
 860,74;14849,756;  197,325;30524,072;48,31521
 861,30;14772,562;  191,171;30301,807;48,42605
 861,86;14881,676;  272,632;30376,235;48,52922
 862,42;14690,252;  219,709;30222,431;48,23077
 862,98;14768,366;  257,247;30116,705;48,59806
 863,54;14692,865;  222,170;29941,901;48,69053
 864,10;14773,594;  223,093;30022,636;48,82793
 864,66;14550,016;  204,016;29791,295;48,48705
 865,22;14556,515;  215,939;29593,491;48,81474
 865,78;14572,552;  222,862;29471,842;49,06048
 866,34;14525,435;  213,170;29417,038;49,00811
 866,90;14453,395;  236,555;29302,158;48,91294
 867,45;14360,202;  230,785;29035,970;49,05164
 868,01;14351,085;  229,324;28878,936;49,29128
 868,57;14256,968;  217,862;28688,363;49,31106
 869,13;14178,313;  205,708;28673,560;49,08205
 869,69;14173,812;  214,400;28441,756;49,45349
 870,25;14160,926;  186,785;28315,337;49,67956
 870,81;14172,194;  220,400;28380,765;49,54408
 871,37;14135,462;  230,862;28330,577;49,48307
 871,93;14032,115;  238,939;28173,081;49,37748
 872,49;13952,998;  262,246;27799,893;49,71649
 873,04;13798,189;  205,477;27732,782;49,37902
 873,60;13817,380;  205,708;27540,440;49,79625
 874,16;13816,033;  232,400;27473,483;49,86451
 874,72;13737,340;  212,938;27433,175;49,68510
 875,28;13704,033;  219,708;27361,713;49,68065
 875,84;13724,494;  230,246;27350,483;49,75712
 876,40;13743,571;  211,631;27344,867;49,87219
 876,95;13708,494;  223,323;27303,098;49,79794
 877,51;13766,648;  246,323;27297,637;49,98029
 878,07;13805,802;  263,400;27292,483;50,10308
 878,63;13824,110;  222,169;27272,867;50,28314
 879,19;13845,417;  240,400;27318,867;50,24294
 879,75;13969,110;  207,554;27394,790;50,61771
 880,30;13950,033;  226,554;27456,252;50,39894
 880,86;14098,571;  267,246;27557,790;50,68175
 881,42;14103,417;  217,938;27581,175;50,74502
 881,98;14220,648;  227,785;27704,867;50,92558
 882,54;14225,263;  216,246;27817,637;50,75475
 883,09;14416,879;  237,400;27976,790;51,11676
 883,65;14474,340;  203,169;28121,944;51,11675
 884,21;14641,417;  251,323;28417,021;51,09085
 884,77;14725,187;  211,631;28439,637;51,41545
 885,32;14818,802;  221,938;28643,483;51,35845
 885,88;14922,110;  263,323;28852,944;51,27311
 886,44;15057,725;  227,015;28875,021;51,76873
 887,00;15104,725;  250,477;28933,944;51,78679
 887,56;15154,956;  225,323;29002,329;51,88042
 888,11;15216,879;  221,785;29072,483;51,97481
 888,67;15403,417;  256,785;29292,867;52,16486
 889,23;15311,340;  226,015;29292,867;51,89872
 889,79;15361,340;  210,323;29163,252;52,32983
 890,34;15388,648;  231,862;29147,252;52,41771
 890,90;15513,879;  299,554;29313,098;52,43870
 891,46;15465,802;  230,477;29165,790;52,65305
 892,01;15543,417;  241,631;29178,713;52,87951
 892,57;15528,494;  246,785;29092,252;52,97785
 893,13;15450,956;  211,400;28971,021;52,98942
 893,69;15471,648;  202,631;28899,713;53,20756
 894,24;15432,417;  230,400;28829,175;53,15618
 894,80;15326,956;  234,169;28582,867;53,23979
 895,36;15372,648;  226,477;28442,175;53,67994
 895,91;15209,802;  225,169;28280,560;53,41089
 896,47;15166,879;  242,708;28191,329;53,39860
 897,03;15062,725;  219,092;27945,252;53,53656
 897,58;15034,417;  244,246;27851,483;53,57353
 898,14;14961,110;  234,708;27640,483;53,73467
 898,70;14875,879;  202,092;27523,637;53,70775
 899,25;14896,494;  230,785;27537,021;53,70828
 899,81;14881,263;  245,477;27311,175;54,07504
 900,37;14689,263;  209,785;27044,790;53,95743
 900,92;14725,263;  231,938;27062,560;54,01785
 901,48;14644,494;  212,477;26888,790;54,10049
 902,03;14580,725;  222,477;26758,098;54,10933
 902,59;14545,340;  225,477;26678,944;54,13227
 903,15;14450,187;  239,477;26485,560;54,14412
 903,70;14313,802;  227,477;26196,021;54,24380
 904,26;14273,187;  227,400;26080,175;54,32990
 904,82;14334,263;  229,938;26143,560;54,42823
 905,37;14259,571;  234,708;26013,175;54,40534
 905,93;14156,802;  210,631;25805,867;54,48737
 906,48;14141,879;  231,708;25697,175;54,62366
 907,04;14158,417;  239,785;25643,637;54,78946
 907,60;14061,417;  240,708;25437,021;54,85211
 908,15;13977,802;  218,554;25329,021;54,79487
 908,71;13986,340;  249,246;25351,021;54,72559
 909,26;13949,417;  223,938;25228,867;54,89109
 909,82;13892,879;  235,169;25071,637;54,99055
 910,37;13949,110;  273,015;25014,175;55,27669
 910,93;13859,417;  216,631;24674,021;55,78186
 911,48;13699,571;  212,785;24616,867;55,26447
 912,04;13712,110;  213,631;24466,637;55,65693
 912,60;13715,187;  231,938;24515,560;55,52404
 913,15;13634,263;  239,092;24347,329;55,56263
 913,71;13507,033;  215,092;24093,252;55,66568
 914,26;13518,494;  190,938;24063,406;55,82815
 914,82;13456,340;  229,785;23958,329;55,74112
 915,37;13403,340;  214,323;23861,329;55,77458
 915,93;13419,956;  270,169;23812,637;55,85560
 916,48;13305,648;  216,938;23582,560;56,01696
 917,04;13268,187;  237,169;23521,021;55,96590
 917,59;13297,571;  257,631;23477,713;56,15803
 918,15;13172,802;  197,323;23245,021;56,29837
 918,70;13133,725;  219,092;23222,175;56,14305
 919,26;13142,187;  236,862;23058,560;56,54849
 919,81;13004,725;  207,862;22928,175;56,32345
 920,37;13023,571;  218,938;22839,483;56,60621
 920,92;12963,725;  261,400;22781,021;56,40559
 921,48;12835,187;  199,785;22525,637;56,59539
 922,03;12916,110;  205,477;22530,098;56,93549
 922,59;12870,263;  225,246;22402,483;57,01800
 923,14;12784,110;  224,785;22233,406;57,06548
 923,69;12804,648;  250,015;22170,252;57,27417
 924,25;12779,571;  245,938;22132,098;57,26739
 924,80;12648,033;  219,862;21961,790;57,16223
 925,36;12706,494;  207,631;21846,406;57,76142
 925,91;12590,263;  224,015;21753,175;57,43953
 926,47;12569,571;  202,323;21673,637;57,59894
 927,02;12619,110;  285,862;21626,944;57,79111
 927,57;12434,879;  214,092;21334,329;57,86292
 928,13;12488,340;  210,092;21322,713;58,15596
 928,68;12434,187;  229,092;21243,560;58,07948
 929,24;12338,648;  191,092;21028,867;58,29584
 929,79;12281,725;  206,323;20950,252;58,21174
 930,34;12205,571;  220,477;20785,021;58,28038
 930,90;12122,571;  214,015;20762,790;57,95263
 931,45;12190,110;  226,554;20754,021;58,28072
 932,01;12113,110;  234,785;20661,098;58,15207
 932,56;12070,571;  246,246;20478,175;58,44388
 933,11;12124,725;  252,169;20502,867;58,62788
 933,67;11918,110;  219,092;20311,867;58,22500
 934,22;11948,494;  216,477;20255,790;58,54501
 934,77;11867,725;  252,708;20143,560;58,39376
 935,33;11815,648;  227,092;20010,944;58,57583
 935,88;11781,571;  235,862;19929,021;58,62802
 936,43;11691,879;  227,862;19856,175;58,40551
 936,99;11677,263;  232,554;19695,560;58,80237
 937,54;11584,110;  212,169;19608,867;58,62823
 938,09;11581,571;  239,554;19555,637;58,71800
 938,65;11532,110;  232,400;19423,175;58,88094
 939,20;11452,110;  206,323;19300,175;58,89742
 939,75;11337,033;  204,323;19170,329;58,69823
 940,31;11350,879;  211,246;19116,713;58,92281
 940,86;11428,110;  227,015;19065,944;59,45717
 941,41;11429,571;  313,400;19135,406;59,05944
 941,96;11202,263;  210,477;18889,329;58,84616
 942,52;11131,494;  217,631;18806,790;58,71090
 943,07;11133,263;  201,785;18710,637;59,06082
 943,62;11092,802;  212,477;18644,637;59,02903
 944,18;11072,879;  203,323;18555,406;59,22791
 944,73;11077,187;  220,477;18409,175;59,68932
 945,28;10944,263;  191,554;18242,944;59,56721
 945,83;10925,725;  207,323;18343,175;59,10063
 946,39;10917,571;  213,246;18264,790;59,29867
 946,94;10901,879;  245,246;18136,175;59,56445
 947,49;10813,187;  209,169;18047,329;59,44569
 948,04;10833,340;  256,554;17943,329;59,80054
 948,59;10765,802;  240,169;17960,867;59,39739
 949,15;10749,263;  203,400;17842,867;59,78561
 949,70;10683,263;  214,092;17716,252;59,81645
 950,25;10659,340;  239,169;17592,329;60,04769
 950,80;10593,263;  185,323;17440,483;60,31784
 951,36;10522,263;  193,015;17370,175;60,13362
 951,91;10584,494;  233,477;17399,098;60,30086
 952,46;10459,648;  199,554;17230,098;60,24525
 953,01;10496,571;  226,631;17255,406;60,30933
 953,56;10433,725;  195,169;17099,021;60,56936
 954,11;10421,648;  222,554;17028,406;60,68775
 954,67;10387,494;  214,862;16967,560;60,72235
 955,22;10293,648;  200,015;16814,560;60,75179
 955,77;10289,571;  248,400;16765,560;60,79236
 956,32;10246,879;  270,400;16704,406;60,70631
 956,87;10184,033;  207,092;16558,944;61,01413
 957,42;10167,879;  215,631;16537,944;60,97327
 957,98;10091,417;  208,554;16381,713;61,10657
 958,53;10072,802;  245,938;16348,790;61,02561
 959,08;10041,263;  204,708;16229,175;61,38460
 959,63;10010,802;  212,246;16089,483;61,71449
 960,18; 9998,956;  223,708;16043,560;61,79102
 960,73; 9924,033;  225,169;16017,560;61,41479
 961,28; 9857,263;  193,554;15881,175;61,60086
 961,83; 9866,340;  243,323;15852,098;61,65133
 962,39; 9728,879;  196,938;15762,329;61,23804
 962,94; 9758,263;  235,400;15630,944;61,85467
 963,49; 9638,033;  215,785;15523,713;61,55142
 964,04; 9644,033;  235,785;15473,329;61,74386
 964,59; 9582,494;  194,015;15376,175;61,83889
 965,14; 9611,187;  239,554;15334,713;62,08369
 965,69; 9540,263;  219,015;15295,098;61,82805
 966,24; 9515,033;  206,631;15172,560;62,19729
 966,79; 9485,033;  224,323;15031,790;62,54081
 967,34; 9363,263;  190,169;14944,867;62,17067
 967,89; 9390,033;  216,400;14881,867;62,55261
 968,44; 9325,033;  218,400;14821,252;62,36201
 968,99; 9405,725;  226,862;14712,790;63,36400
 969,55; 9339,340;  218,554;14667,406;63,12465
 970,10; 9284,494;  226,708;14514,637;63,39468
 970,65; 9237,802;  239,092;14459,329;63,28101
 971,20; 9155,187;  211,631;14306,867;63,45091
 971,75; 9107,340;  197,169;14216,021;63,55849
 972,30; 9080,879;  219,092;14145,175;63,63445
 972,85; 9004,725;  204,554;14088,021;63,38598
 973,40; 8937,956;  203,708;13950,560;63,53635
 973,95; 8943,033;  227,554;13891,406;63,78493
 974,50; 8927,417;  248,323;13904,406;63,55479
 975,05; 8813,110;  211,785;13704,483;63,74800
 975,60; 8838,571;  228,862;13682,175;63,99694
 976,15; 8739,110;  212,477;13600,944;63,68640
 976,70; 8724,956;  226,862;13493,637;64,05546
 977,25; 8705,725;  235,246;13457,867;64,06051
 977,80; 8656,802;  208,554;13293,098;64,56662
 978,35; 8496,187;  234,708;13092,175;64,25433
 978,89; 8516,571;  201,169;13054,560;64,69423
 979,44; 8487,571;  223,862;13040,021;64,47883
 979,99; 8367,571;  212,169;12829,867;64,63463
 980,54; 8332,571;  246,785;12840,637;64,20424
 981,09; 8294,263;  242,938;12647,713;64,90505
 981,64; 8276,340;  228,708;12520,406;65,47210
 982,19; 8223,879;  270,246;12500,713;65,03131
 982,74; 8201,417;  234,477;12373,713;65,62967
 983,29; 8126,417;  200,092;12258,944;65,73035
 983,84; 8025,879;  232,554;12145,329;65,41990
 984,39; 8007,033;  298,862;12130,406;65,14932
 984,94; 7923,340;  205,323;11949,867;65,71577
 985,49; 7873,494;  245,862;11916,483;65,35756
 986,03; 7854,263;  243,015;11837,252;65,64682
 986,58; 7811,110;  282,477;11682,944;66,03793
 987,13; 7718,033;  212,015;11573,252;66,06690
 987,68; 7699,648;  241,554;11430,098;66,65831
 988,23; 7600,879;  243,477;11445,406;65,67978
 988,78; 7519,187;  210,400;11289,560;65,96878
 989,33; 7484,956;  248,477;11125,483;66,53006
 989,88; 7473,956;  258,169;11165,790;66,15362
 990,42; 7374,417;  230,708;10973,713;66,49638
 990,97; 7297,725;  213,092;10828,329;66,74022
 991,52; 7250,879;  241,246;10779,329;66,51715
 992,07; 7219,802;  258,631;10725,790;66,50487
 992,62; 7190,879;  235,554;10580,175;67,23615
 993,17; 7070,033;  240,092;10459,483;66,83315
 993,71; 7027,187;  243,092;10406,483;66,75031
 994,26; 6965,417;  219,092;10208,944;67,53178
 994,81; 6904,802;  253,323;10201,021;66,86450
 995,36; 6885,725;  215,785;10082,483;67,60053
 995,91; 6783,494;  230,246; 9978,713;67,22337
 996,45; 6768,340;  232,631; 9855,867;67,91592
 997,00; 6626,263;  200,708; 9710,098;67,57064
 997,55; 6614,033;  244,938; 9694,021;67,40437
 998,10; 6578,879;  249,323; 9601,713;67,67848
 998,65; 6500,494;  228,323; 9486,098;67,75031
 999,19; 6430,648;  248,246; 9399,483;67,55810
 999,74; 6365,033;  259,708; 9297,560;67,55283
1000,29; 6310,340;  239,246; 9177,790;67,92039
1000,84; 6216,648;  226,938; 9035,790;67,99648
1001,38; 6223,110;  233,169; 8965,175;68,59753
1001,93; 6119,187;  245,554; 8920,790;67,70574
1002,48; 6026,263;  206,400; 8758,098;68,05506
1003,03; 6023,340;  239,938; 8675,252;68,56179
1003,57; 5952,879;  242,554; 8621,483;68,15101
1004,12; 5877,494;  260,631; 8573,406;67,56905
1004,67; 5804,033;  224,246; 8447,790;67,85136
1005,22; 5744,956;  221,400; 8250,406;68,79502
1005,76; 5622,263;  210,554; 8124,329;68,38342
1006,31; 5604,187;  243,938; 8095,790;68,26731
1006,86; 5491,187;  216,246; 7914,713;68,51936
1007,40; 5430,956;  211,246; 7821,021;68,59217
1007,95; 5408,494;  227,708; 7688,483;69,44033
1008,50; 5279,187;  238,323; 7620,637;68,28298
1009,04; 5209,110;  230,246; 7458,483;68,88075
1009,59; 5169,725;  232,015; 7371,252;69,16299
1010,14; 5077,571;  220,169; 7282,713;68,77694
1010,68; 5023,417;  233,708; 7158,560;69,16696
1011,23; 4977,494;  235,092; 7054,790;69,53976
1011,78; 4892,725;  253,246; 6960,713;69,16886
1012,32; 4798,110;  252,400; 6872,252;68,66784
1012,87; 4781,648;  257,246; 6859,790;68,52513
1013,42; 4700,340;  220,169; 6710,021;69,03349
1013,96; 4736,187;  254,708; 6728,944;69,22019
1014,51; 4704,340;  192,938; 6595,790;70,45926
1015,06; 4665,571;  199,938; 6633,406;69,41253
1015,60; 4762,417;  276,477; 6714,790;69,67571
1016,15; 4726,725;  222,631; 6685,406;69,69288
1016,69; 4766,956;  226,400; 6689,867;70,24954
1017,24; 4796,648;  203,554; 6703,637;70,66209
1017,79; 4849,494;  266,938; 6809,637;70,04076
1018,33; 4864,110;  225,323; 6806,406;70,48668
1018,88; 4946,802;  242,323; 6915,021;70,50340
1019,42; 4934,956;  235,708; 6899,560;70,51849
1019,97; 4941,802;  222,015; 6909,098;70,58065
1020,51; 5023,648;  259,400; 7042,944;70,23243
1021,06; 5033,187;  198,631; 6987,560;71,21235
1021,61; 5000,263;  185,938; 6998,406;70,66933
1022,15; 4984,648;  176,862; 6896,175;71,55175
1022,70; 5023,802;  222,323; 6941,560;71,45870
1023,24; 4977,571;  209,169; 6894,560;71,32571
1023,79; 4972,033;  234,246; 6823,175;71,90526
1024,33; 4941,725;  225,554; 6770,098;72,06264
1024,88; 4874,725;  233,477; 6724,021;71,50784
1025,42; 4797,725;  234,400; 6536,021;72,41510
1025,97; 4721,263;  214,400; 6473,713;72,00252
1026,51; 4611,571;  196,400; 6368,867;71,53009
1027,06; 4623,648;  216,631; 6318,252;72,22699
1027,60; 4521,879;  228,631; 6212,713;71,74446
1028,15; 4488,956;  241,785; 6148,329;71,90619
1028,69; 4329,187;  198,708; 5937,483;71,97492
1029,24; 4358,033;  219,323; 5908,329;72,74926
1029,78; 4259,802;  204,708; 5835,560;72,01564
1030,33; 4150,033;  197,323; 5678,790;72,11043
1030,87; 4133,648;  208,862; 5635,637;72,32263
1031,42; 4084,033;  192,862; 5513,867;73,12849
1031,96; 4052,263;  236,785; 5473,098;72,86575
1032,51; 3987,725;  203,938; 5401,867;72,79412
1033,05; 3957,725;  216,400; 5335,790;73,08146
1033,60; 3837,033;  198,938; 5221,406;72,43639
1034,14; 3829,879;  221,400; 5148,098;73,24335
1034,69; 3793,033;  213,785; 5084,867;73,47952
1035,23; 3728,494;  214,708; 5009,944;73,27661
1035,77; 3683,187;  220,092; 4922,944;73,63817
1036,32; 3614,956;  197,477; 4838,790;73,63172
1036,86; 3572,648;  223,169; 4806,021;73,08722
1037,41; 3539,956;  232,400; 4710,483;73,86098
1037,95; 3463,033;  191,092; 4640,175;73,54191
1038,50; 3450,956;  209,323; 4594,790;73,91761
1039,04; 3434,187;  231,246; 4555,713;74,06555
1039,58; 3332,417;  200,477; 4461,252;73,50635
1040,13; 3293,033;  210,246; 4394,790;73,67078
1040,67; 3303,494;  244,323; 4399,637;73,62071
1041,21; 3252,725;  247,554; 4267,867;74,74967
1041,76; 3171,725;  202,554; 4193,175;74,40373
1042,30; 3132,187;  207,631; 4173,713;73,73915
1042,85; 3061,571;  215,323; 4094,175;73,37862
1043,39; 3079,417;  195,323; 3985,944;76,08500
1043,93; 3047,263;  242,015; 3993,637;74,77429
1044,48; 2991,879;  227,015; 3932,483;74,61578
1045,02; 2933,648;  211,785; 3880,021;74,20087
1045,56; 2938,417;  240,708; 3851,021;74,72231
1046,11; 2866,417;  227,554; 3785,406;74,17013
1046,65; 2825,571;  229,477; 3706,406;74,66630
1047,19; 2786,033;  212,938; 3668,637;74,45946
1047,74; 2734,340;  195,862; 3568,944;75,25694
1048,28; 2708,340;  224,400; 3561,252;74,43963
1048,82; 2713,956;  249,938; 3558,790;74,46744
1049,37; 2667,187;  236,400; 3450,867;75,62020
1049,91; 2630,648;  225,092; 3414,560;75,42187
1050,45; 2607,802;  239,169; 3391,637;75,13584
1050,99; 2558,802;  219,246; 3353,483;74,64516
1051,54; 2518,571;  213,169; 3251,175;75,88537
1052,08; 2505,417;  249,938; 3258,098;74,97870
1052,62; 2463,571;  241,323; 3228,790;74,38569
1053,16; 2420,879;  220,554; 3136,867;75,44885
1053,71; 2408,956;  226,092; 3101,252;75,92147
1054,25; 2360,033;  244,169; 3059,867;75,14525
1054,79; 2360,802;  237,246; 3008,252;76,63484
1055,33; 2299,648;  200,092; 2939,637;76,63887
1055,88; 2293,033;  239,400; 2941,098;76,01266
1056,42; 2240,725;  237,477; 2872,252;76,03109
1056,96; 2217,263;  247,015; 2844,483;75,85266
1057,50; 2203,725;  230,477; 2794,098;76,97113
1058,05; 2155,417;  230,015; 2762,252;76,03563
1058,59; 2138,956;  247,938; 2739,252;75,90443
1059,13; 2077,571;  213,708; 2670,175;75,87577
1059,67; 2082,033;  235,015; 2639,175;76,82590
1060,21; 2038,417;  232,092; 2573,098;77,16021
1060,76; 2022,340;  239,554; 2571,329;76,45620
1061,30; 2014,187;  259,400; 2576,329;75,73761
1061,84; 1968,263;  232,938; 2493,406;76,76842
1062,38; 1905,648;  217,477; 2432,329;76,22050
1062,92; 1986,494;  267,708; 2475,637;77,84610
1063,46; 1879,263;  250,323; 2372,560;76,75584
1064,01; 1845,263;  219,169; 2363,944;75,81654
1064,55; 1850,110;  244,477; 2310,790;77,70518
1065,09; 1807,956;  210,400; 2239,329;78,73888
1065,63; 1807,033;  252,554; 2300,790;75,89352
1066,17; 1822,879;  258,323; 2235,637;79,12533
1066,71; 1796,340;  252,015; 2232,252;77,98690
1067,25; 1744,494;  233,169; 2154,790;78,64844
1067,80; 1725,110;  250,554; 2176,867;76,54807
1068,34; 1724,956;  262,323; 2144,560;77,70717
1068,88; 1661,263;  220,246; 2092,483;76,96769
1069,42; 1674,033;  250,246; 2101,252;76,91962
1069,96; 1637,725;  231,092; 2018,713;78,68740
1070,50; 1641,648;  260,092; 2062,713;76,64149
1071,04; 1592,417;  223,169; 1975,252;78,14974
1071,58; 1577,187;  233,092; 1960,560;77,80722
1072,12; 1560,956;  234,554; 1946,560;77,47649
1072,66; 1554,263;  241,785; 1936,021;77,46727
1073,21; 1546,110;  253,246; 1939,098;76,68903
1073,75; 1508,571;  239,862; 1893,790;76,70884
1074,29; 1496,033;  239,708; 1876,637;76,74891
1074,83; 1502,725;  262,092; 1872,329;77,04661
1075,37; 1491,110;  259,631; 1832,483;78,29592
1075,91; 1457,263;  247,631; 1794,790;78,18409
1076,45; 1441,571;  247,785; 1770,790;78,38359
1076,99; 1430,033;  258,938; 1749,483;78,56823
1077,53; 1394,956;  231,323; 1710,790;78,65214
1078,07; 1412,725;  243,477; 1723,560;78,99883
1078,61; 1376,648;  241,400; 1669,637;79,48600
1079,15; 1353,725;  234,246; 1688,867;76,96017
1079,69; 1347,417;  240,785; 1637,944;79,20589
1080,23; 1339,033;  253,323; 1646,867;77,90995
1080,77; 1371,648;  301,938; 1673,175;78,01058
1081,31; 1296,571;  230,092; 1598,175;77,95427
1081,85; 1311,802;  247,323; 1598,560;78,77813
1082,39; 1281,110;  235,631; 1560,329;78,92205
1082,93; 1276,340;  250,554; 1558,867;78,40526
1083,47; 1230,494;  225,938; 1506,867;78,42401
1084,01; 1259,263;  253,938; 1542,560;78,01556
1084,55; 1206,725;  232,554; 1488,713;77,55154
1085,09; 1222,263;  255,938; 1486,175;78,54790
1085,63; 1210,956;  252,477; 1455,944;79,64311
1086,17; 1199,571;  235,708; 1415,021;81,73090
1086,71; 1163,340;  219,246; 1411,175;79,20726
1087,24; 1191,571;  262,938; 1429,406;79,61069
1087,78; 1176,263;  251,092; 1379,944;81,95682
1088,32; 1113,879;  232,554; 1339,021;79,65215
1088,86; 1159,648;  253,554; 1374,944;80,80096
1089,40; 1127,648;  249,477; 1351,944;79,65507
1089,94; 1111,879;  218,092; 1316,560;81,36669
1090,48; 1111,187;  249,631; 1314,713;80,89097
1091,02; 1102,110;  255,015; 1325,867;79,10470
1091,56; 1085,571;  245,400; 1297,560;79,85206
1092,10; 1042,187;  220,785; 1261,329;78,93965
1092,63; 1070,648;  260,862; 1278,713;79,55838
1093,17; 1043,110;  253,246; 1245,252;79,62287
1093,71; 1016,263;  226,246; 1209,637;80,33608
1094,25; 1052,187;  260,092; 1220,021;82,51593
1094,79;  997,263;  245,631; 1188,944;79,68006
1095,33; 1004,033;  252,246; 1185,790;80,53036
1095,87; 1001,340;  239,631; 1191,252;80,04337
1096,40;  956,956;  224,862; 1149,944;79,13825
1096,94;  965,417;  245,169; 1150,021;79,59845
1097,48;  965,648;  254,169; 1153,483;79,11355
1098,02;  937,263;  244,477; 1105,483;80,46247
1098,56;  901,802;  217,862; 1080,021;79,32874
1099,10;  901,033;  213,938; 1066,790;80,56431
1099,63;  907,110;  221,323; 1071,175;80,69483
1100,17;  906,956;  239,708; 1075,329;79,85055
1100,71;  925,417;  261,169; 1095,329;79,63081

