
Integration time [ms]: 140,000
Averaging Nr. [scans]: 13
Smoothing Nr. [pixels]: 0
Data measured with spectrometer [name]: 2009305U1
Wave   ;Sample   ;Dark     ;Reference;Reflectance
[nm]   ;[counts] ;[counts] ;[counts] ;[%]

 175,72;  203,949;  202,783;  223,076; 5,74760
 176,32;  232,583;  235,325;  233,183; 0,00000
 176,92;  269,889;  268,169;  269,200;166,72531
 177,52;  272,350;  268,091;  262,076; 0,00000
 178,12;  244,675;  257,324;  243,700; 0,00000
 178,72;  273,307;  265,095;  258,217; 0,00000
 179,32;  253,414;  268,863;  252,136; 0,00000
 179,92;  262,120;  265,631;  267,970;-150,13642
 180,52;  250,117;  242,858;  269,559;27,18603
 181,12;  279,428;  264,246;  270,140;257,56748
 181,73;  295,505;  278,015;  276,393; 0,00000
 182,33;  381,549;  376,706;  385,901;52,67174
 182,93;  286,981;  282,630;  284,119;292,14729
 183,53;  244,107;  252,787;  239,042; 0,00000
 184,13;  239,491;  254,095;  245,230; 0,00000
 184,73;  295,400;  287,018;  290,658;230,30675
 185,33;  281,153;  245,652;  366,512;29,37401
 185,93;  273,447;  240,884;  362,674;26,73685
 186,53;  304,369;  262,499;  382,538;34,88089
 187,13;  323,167;  282,650;  413,897;30,87104
 187,73;  297,739;  248,500;  374,807;38,98409
 188,33;  291,063;  249,501;  377,832;32,38689
 188,93;  306,790;  266,120;  368,764;39,62215
 189,53;  305,238;  262,277;  393,555;32,72576
 190,13;  343,519;  296,435;  419,072;38,39326
 190,73;  277,147;  227,586;  359,537;37,56035
 191,34;  317,698;  271,352;  391,243;38,65730
 191,94;  288,095;  246,733;  373,358;32,66525
 192,54;  298,843;  264,572;  390,298;27,25850
 193,14;  309,537;  262,112;  410,063;32,05433
 193,74;  299,399;  267,728;  401,768;23,62783
 194,34;  295,459;  265,958;  394,183;23,00777
 194,94;  262,398;  225,420;  368,414;25,86027
 195,54;  240,230;  199,036;  342,674;28,67889
 196,14;  260,659;  234,957;  373,055;18,61138
 196,74;  268,538;  238,575;  362,324;24,21277
 197,34;  244,212;  200,263;  355,217;28,36215
 197,94;  267,798;  232,342;  391,563;22,26820
 198,54;  276,720;  239,265;  407,700;22,23746
 199,14;  262,519;  217,032;  395,974;25,41989
 199,74;  244,734;  208,186;  379,854;21,29010
 200,34;  247,703;  205,108;  400,093;21,84506
 200,94;  289,458;  241,418;  444,773;23,62394
 201,54;  266,104;  224,801;  446,157;18,65870
 202,14;  297,610;  252,185;  507,021;17,82536
 202,74;  266,103;  220,186;  489,414;17,05527
 203,34;  256,348;  206,876;  509,469;16,34924
 203,94;  237,918;  177,569;  523,345;17,45305
 204,54;  304,983;  251,804;  597,516;15,38235
 205,14;  262,580;  210,570;  593,619;13,57788
 205,74;  318,994;  248,030;  688,863;16,09772
 206,34;  291,226;  218,877;  712,170;14,66643
 206,94;  305,580;  224,493;  773,666;14,76527
 207,54;  277,441;  194,262;  814,576;13,40921
 208,14;  305,164;  212,338;  885,999;13,77925
 208,74;  325,719;  216,647;  970,102;14,47618
 209,34;  321,657;  210,032; 1064,247;13,06758
 209,94;  344,903;  223,416; 1142,978;13,21139
 210,54;  353,364;  216,877; 1246,089;13,26131
 211,14;  378,396;  209,955; 1381,448;14,37829
 211,73;  388,919;  219,109; 1508,743;13,16729
 212,33;  410,397;  231,956; 1610,123;12,94767
 212,93;  403,365;  216,109; 1698,572;12,63141
 213,53;  393,626;  181,647; 1761,367;13,41878
 214,13;  430,932;  222,952; 1870,209;12,62581
 214,73;  423,610;  185,954; 1909,790;13,78647
 215,33;  415,595;  179,186; 1934,593;13,46752
 215,93;  471,840;  211,184; 2074,162;13,99138
 216,53;  440,150;  162,801; 2134,072;14,06952
 217,13;  533,564;  225,953; 2347,307;14,50065
 217,73;  542,040;  204,338; 2559,692;14,33765
 218,33;  536,716;  161,336; 2756,969;14,46197
 218,93;  625,806;  202,873; 3086,277;14,66786
 219,53;  680,085;  209,336; 3414,311;14,68807
 220,13;  708,562;  170,028; 3703,166;15,24236
 220,73;  773,180;  187,878; 4085,892;15,01539
 221,32;  845,411;  195,109; 4505,948;15,08528
 221,92;  934,900;  192,721; 5000,632;15,43663
 222,52;  968,978;  178,184; 5377,901;15,20842
 223,12; 1063,240;  189,030; 5845,465;15,45514
 223,72; 1144,378;  197,260; 6327,192;15,45071
 224,32; 1193,440;  209,106; 6727,234;15,10147
 224,92; 1252,255;  182,568; 7030,294;15,62106
 225,52; 1312,410;  212,723; 7406,315;15,28703
 226,12; 1373,179;  189,953; 7683,610;15,78969
 226,72; 1412,641;  171,723; 8090,059;15,67145
 227,31; 1468,071;  166,338; 8448,196;15,71789
 227,91; 1571,011;  195,185; 8938,251;15,73619
 228,51; 1605,842;  182,417; 9244,174;15,70805
 229,11; 1696,164;  189,108; 9710,850;15,82753
 229,71; 1728,503;  184,032; 9960,751;15,79744
 230,31; 1791,655;  160,260;10437,610;15,87369
 230,91; 1833,151;  168,495;10697,503;15,81019
 231,51; 1862,625;  183,415;11064,521;15,43235
 232,10; 1958,516;  172,875;11342,525;15,98654
 232,70; 2014,075;  198,958;11545,952;15,99646
 233,30; 2058,271;  214,492;11780,828;15,94091
 233,90; 2063,548;  192,799;11954,734;15,90511
 234,50; 2060,456;  186,799;12056,551;15,78514
 235,10; 2098,640;  175,260;12065,525;16,17609
 235,70; 2119,549;  208,724;12036,862;16,15491
 236,29; 2078,657;  203,417;12020,602;15,86876
 236,89; 2055,689;  168,495;11895,824;16,09228
 237,49; 2056,856;  201,338;11816,486;15,97498
 238,09; 1991,995;  181,339;11438,324;16,08473
 238,69; 2006,028;  224,957;11167,550;16,27650
 239,29; 1893,303;  186,185;10841,999;16,02053
 239,89; 1843,335;  196,802;10545,226;15,91095
 240,48; 1779,810;  176,492;10114,692;16,13288
 241,08; 1712,010;  177,185; 9764,264;16,00931
 241,68; 1672,364;  213,415; 9396,209;15,88785
 242,28; 1588,948;  178,723; 8995,542;15,99472
 242,88; 1553,301;  219,721; 8679,166;15,76439
 243,48; 1524,333;  225,954; 8415,452;15,85420
 244,07; 1440,672;  209,339; 8129,234;15,54734
 244,67; 1423,595;  207,338; 7988,298;15,63118
 245,27; 1428,919;  208,109; 7823,974;16,02983
 245,87; 1407,070;  210,260; 7761,226;15,84976
 246,47; 1403,796;  196,109; 7668,914;16,16109
 247,06; 1395,056;  181,416; 7757,721;16,01890
 247,66; 1416,133;  185,646; 7774,213;16,21501
 248,26; 1476,396;  215,955; 7894,268;16,41559
 248,86; 1534,457;  207,725; 8133,290;16,73992
 249,46; 1545,025;  159,953; 8304,717;17,00567
 250,05; 1659,841;  204,262; 8681,392;17,17066
 250,65; 1732,381;  184,263; 9076,110;17,41053
 251,25; 1814,595;  178,031; 9575,474;17,41499
 251,85; 1944,981;  186,264;10085,469;17,76625
 252,44; 2085,303;  157,878;10815,700;18,08461
 253,04; 2280,565;  208,493;11581,892;18,21858
 253,64; 2414,827;  152,725;12308,123;18,60986
 254,24; 2671,318;  196,339;13277,281;18,92050
 254,84; 2845,332;  177,184;14242,179;18,97014
 255,43; 3142,057;  190,801;15248,200;19,60004
 256,03; 3365,165;  196,956;16293,995;19,68194
 256,63; 3644,428;  204,341;17391,115;20,01590
 257,23; 3886,027;  177,495;18380,307;20,37341
 257,82; 4168,998;  194,496;19349,209;20,74947
 258,42; 4376,983;  155,496;20233,042;21,02591
 259,02; 4640,642;  210,262;21264,273;21,04292
 259,62; 4874,137;  187,189;22043,709;21,44416
 260,21; 5050,473;  199,878;22644,055;21,61182
 260,81; 5211,825;  193,646;23073,388;21,93285
 261,41; 5364,875;  172,265;23729,055;22,04294
 262,01; 5523,737;  209,497;24161,474;22,18706
 262,60; 5656,335;  163,649;24635,307;22,44509
 263,20; 5825,996;  179,802;24886,046;22,85331
 263,80; 5930,968;  212,651;25112,931;22,96487
 264,40; 5941,660;  168,189;25329,644;22,94570
 264,99; 6043,168;  198,574;25487,905;23,11091
 265,59; 6142,277;  180,191;25693,956;23,36811
 266,19; 6207,568;  181,035;25895,888;23,43600
 266,78; 6283,999;  221,190;26007,807;23,51146
 267,38; 6281,277;  200,268;26049,674;23,52475
 267,98; 6298,122;  181,575;26073,568;23,62332
 268,58; 6324,708;  196,037;26109,273;23,65073
 269,17; 6328,832;  195,653;26127,166;23,65145
 269,77; 6302,751;  204,957;25881,747;23,74827
 270,37; 6248,860;  165,420;25820,286;23,71262
 270,96; 6253,213;  232,111;25659,008;23,68005
 271,56; 6192,397;  184,033;25321,482;23,90204
 272,16; 6116,859;  181,496;25124,230;23,79596
 272,75; 6100,921;  191,265;25101,268;23,72403
 273,35; 6102,721;  189,726;25037,080;23,79728
 273,95; 6085,213;  188,419;25027,841;23,73966
 274,54; 6051,533;  169,185;25041,157;23,65051
 275,14; 6157,444;  216,496;25396,256;23,59414
 275,74; 6133,982;  168,419;25453,756;23,59298
 276,33; 6249,397;  213,649;25923,068;23,47680
 276,93; 6319,687;  196,031;26222,952;23,52816
 277,53; 6486,180;  186,032;26759,098;23,70878
 278,12; 6562,827;  174,418;27305,491;23,54647
 278,72; 6791,365;  227,801;27881,948;23,73446
 279,32; 6875,627;  182,955;28489,106;23,64388
 279,91; 7044,088;  165,494;29258,003;23,64387
 280,51; 7215,980;  191,724;29692,657;23,81028
 281,11; 7431,442;  186,494;30550,063;23,86066
 281,70; 7547,966;  171,417;30892,465;24,01138
 282,30; 7784,012;  182,572;31552,097;24,23193
 282,90; 7910,043;  186,264;31954,418;24,31296
 283,49; 8081,628;  202,572;32544,115;24,36203
 284,09; 8253,273;  210,417;33120,456;24,43891
 284,69; 8415,827;  213,340;33350,085;24,75345
 285,28; 8550,058;  206,341;33762,422;24,86499
 285,88; 8766,044;  248,188;33983,397;25,24916
 286,47; 8819,366;  187,187;34005,615;25,52507
 287,07; 8971,334;  220,263;34062,995;25,85805
 287,67; 9087,717;  209,415;34281,991;26,05703
 288,26; 9216,781;  182,878;34188,713;26,56574
 288,86; 9425,781;  179,956;34213,674;27,16666
 289,46; 9618,750;  205,340;34318,149;27,59494
 290,05; 9846,611;  177,493;34392,670;28,25973
 290,65;10072,043;  194,803;34598,709;28,70965
 291,24;10355,704;  195,186;34663,653;29,47772
 291,84;10535,274;  216,495;34767,653;29,86522
 292,44;10793,040;  194,569;34984,204;30,46445
 293,03;11124,611;  266,417;35057,914;31,20933
 293,63;11253,474;  184,495;35259,170;31,55832
 294,22;11501,996;  214,417;35324,264;32,14933
 294,82;11655,998;  191,727;35373,820;32,58553
 295,41;11631,504;  176,802;35114,234;32,78633
 296,01;11792,875;  229,265;34972,568;33,28299
 296,61;11820,857;  217,571;34673,495;33,67574
 297,20;11648,921;  195,496;34283,409;33,59967
 297,80;11758,518;  199,031;34159,264;34,03830
 298,39;11639,135;  177,418;33729,931;34,16053
 298,99;11616,090;  207,880;33549,640;34,21598
 299,58;11567,379;  210,415;33295,880;34,32614
 300,18;11453,210;  225,416;33137,170;34,11485
 300,78;11324,780;  187,186;32737,294;34,21677
 301,37;11330,430;  209,497;32747,285;34,17851
 301,97;11327,642;  208,417;32702,747;34,21897
 302,56;11289,889;  199,418;32668,944;34,15655
 303,16;11222,413;  171,341;32483,179;34,20131
 303,75;11233,026;  187,570;32527,127;34,15463
 304,35;11260,855;  181,030;32758,768;34,01042
 304,94;11268,596;  206,340;32808,922;33,93061
 305,54;11199,026;  218,801;32760,717;33,74179
 306,13;11060,071;  161,799;32549,192;33,64973
 306,73;11021,302;  166,876;32358,217;33,71846
 307,33;10971,256;  206,261;32238,521;33,60673
 307,92;10904,796;  215,878;32305,469;33,30961
 308,52;11002,428;  173,495;32763,140;33,22814
 309,11;11123,737;  188,650;33278,833;33,04632
 309,71;11153,906;  180,728;33595,521;32,83928
 310,30;11184,119;  184,648;33756,969;32,76351
 310,90;11258,811;  221,263;34201,739;32,48203
 311,49;11230,181;  201,955;34294,529;32,34788
 312,09;11196,703;  170,800;34375,033;32,23549
 312,68;11294,242;  253,955;34837,982;31,92308
 313,28;11214,719;  162,878;34973,469;31,74850
 313,87;11175,919;  162,955;35103,286;31,51935
 314,47;11171,167;  191,188;35314,764;31,26099
 315,06;11112,950;  176,032;35427,858;31,02511
 315,66;11145,472;  170,954;35644,803;30,93692
 316,25;10988,351;  159,034;35543,003;30,60515
 316,85;10931,010;  148,493;35519,422;30,48412
 317,44;10909,583;  183,266;35761,610;30,14844
 318,04;10730,612;  174,495;35684,512;29,72715
 318,63;10629,010;  161,030;35697,110;29,45733
 319,22;10644,351;  183,341;35919,858;29,27261
 319,82;10503,966;  182,341;35890,217;28,90574
 320,41;10401,951;  206,187;35837,512;28,61461
 321,01;10348,164;  201,878;35853,636;28,45943
 321,60;10249,304;  196,879;35932,315;28,13013
 322,20;10138,750;  181,417;35834,568;27,92834
 322,79;10062,427;  206,186;35983,059;27,54920
 323,39; 9976,917;  177,876;36015,401;27,34296
 323,98; 9825,873;  168,109;35860,333;27,05845
 324,58; 9744,520;  175,495;35863,803;26,81277
 325,17; 9662,089;  188,111;35597,918;26,75524
 325,76; 9454,442;  208,186;35442,927;26,24187
 326,36; 9325,734;  178,416;35062,418;26,22210
 326,95; 9165,212;  207,494;34654,585;26,00428
 327,55; 8993,873;  165,341;34435,627;25,76148
 328,14; 8802,564;  176,954;33976,875;25,51962
 328,74; 8638,443;  209,649;33581,833;25,25695
 329,33; 8493,795;  194,262;33143,444;25,18889
 329,92; 8256,921;  177,496;32534,162;24,96989
 330,52; 8042,564;  187,954;31833,499;24,82059
 331,11; 7881,089;  181,879;31384,670;24,67475
 331,71; 7679,473;  180,033;30840,773;24,45942
 332,30; 7505,596;  201,263;30513,538;24,09695
 332,89; 7383,934;  251,339;29853,004;24,09525
 333,49; 7148,689;  193,725;29360,170;23,84577
 334,08; 7007,012;  191,879;28852,042;23,77911
 334,68; 6823,827;  183,879;28470,875;23,47350
 335,27; 6754,087;  207,646;28061,551;23,50278
 335,86; 6660,473;  242,264;27758,670;23,32503
 336,46; 6555,271;  198,954;27412,880;23,35686
 337,05; 6449,673;  184,956;27302,884;23,10176
 337,65; 6345,227;  173,264;27034,230;22,97744
 338,24; 6386,365;  222,955;27085,038;22,94465
 338,83; 6359,457;  204,801;26985,781;22,98144
 339,43; 6291,305;  176,264;27007,948;22,79037
 340,02; 6257,674;  172,418;26819,350;22,83661
 340,61; 6234,627;  199,263;26869,734;22,62939
 341,21; 6274,366;  221,726;26907,986;22,68074
 341,80; 6225,597;  192,418;26842,333;22,63864
 342,40; 6254,964;  190,108;26908,012;22,69960
 342,99; 6219,242;  183,262;27124,927;22,40388
 343,58; 6236,949;  174,416;27215,521;22,41969
 344,18; 6321,380;  202,031;27425,670;22,47807
 344,77; 6369,320;  168,342;27631,055;22,57963
 345,36; 6427,212;  170,187;27880,046;22,58050
 345,96; 6513,826;  209,878;28225,999;22,50115
 346,55; 6582,409;  160,414;28529,653;22,63718
 347,14; 6624,087;  170,415;28847,768;22,50442
 347,74; 6755,393;  151,567;29286,025;22,66672
 348,33; 6945,147;  183,259;29809,653;22,82386
 348,92; 7075,792;  191,412;30461,670;22,74305
 349,52; 7182,916;  163,028;30981,773;22,77798
 350,11; 7308,505;  178,495;31156,136;23,01663
 350,70; 7295,119;  172,955;31370,055;22,82957
 351,29; 7272,507;  167,652;30998,482;23,04464
 351,89; 7318,183;  189,035;31043,016;23,10609
 352,48; 7334,380;  165,263;31080,991;23,18922
 353,07; 7374,256;  199,877;31018,525;23,27934
 353,67; 7405,315;  208,720;30924,636;23,42953
 354,26; 7385,795;  182,492;30742,969;23,57065
 354,85; 7380,287;  191,185;30553,794;23,67749
 355,45; 7323,597;  167,879;30387,704;23,67888
 356,04; 7405,302;  176,107;30300,521;23,99779
 356,63; 7378,396;  215,340;30143,683;23,93402
 357,22; 7441,891;  184,651;30004,914;24,33661
 357,82; 7353,983;  184,881;29789,615;24,21607
 358,41; 7392,011;  207,109;29677,551;24,38003
 359,00; 7373,705;  180,264;29523,687;24,51466
 359,60; 7421,273;  188,647;29385,452;24,77198
 360,19; 7469,486;  205,415;29244,627;25,01470
 360,78; 7439,966;  184,264;29115,982;25,07871
 361,37; 7420,181;  188,187;28952,632;25,14213
 361,97; 7488,750;  189,109;28871,525;25,44988
 362,56; 7431,736;  180,034;28572,824;25,54065
 363,15; 7486,520;  252,264;28254,174;25,83487
 363,74; 7401,936;  192,265;27927,153;25,99495
 364,34; 7419,243;  213,341;27511,914;26,39663
 364,93; 7317,274;  173,573;27122,042;26,50875
 365,52; 7258,550;  144,571;26657,209;26,83241
 366,11; 7228,336;  182,803;26510,580;26,76083
 366,71; 7137,966;  182,726;26033,397;26,90545
 367,30; 7140,643;  202,264;25600,875;27,31795
 367,89; 7118,980;  220,031;25410,251;27,38741
 368,48; 7100,829;  196,957;25136,221;27,68274
 369,07; 7026,734;  201,417;24677,978;27,88512
 369,67; 6984,259;  219,342;24411,221;27,96359
 370,26; 6943,242;  180,417;24057,200;28,32385
 370,85; 6938,612;  189,341;23916,469;28,44538
 371,44; 6919,889;  192,802;23630,935;28,70146
 372,03; 6903,874;  167,726;23441,884;28,94261
 372,63; 6836,827;  160,494;23097,204;29,10763
 373,22; 6834,642;  185,186;22806,076;29,39520
 373,81; 6793,366;  157,648;22493,499;29,70882
 374,40; 6778,041;  178,416;22326,768;29,79736
 374,99; 6723,135;  178,110;21951,247;30,06009
 375,59; 6662,533;  171,877;21685,465;30,17003
 376,18; 6776,120;  212,187;21588,978;30,70588
 376,77; 6712,381;  201,109;21345,961;30,79365
 377,36; 6824,181;  220,648;21386,559;31,19891
 377,95; 6740,012;  206,495;21008,080;31,40875
 378,55; 6733,626;  175,185;20865,482;31,69815
 379,14; 6729,858;  198,341;20764,435;31,75867
 379,73; 6804,597;  188,341;20679,533;32,28829
 380,32; 6863,842;  199,648;20785,187;32,37318
 380,91; 6819,382;  168,265;20505,662;32,70388
 381,50; 6884,797;  197,726;20493,781;32,94764
 382,10; 6880,304;  188,033;20415,495;33,08508
 382,69; 6912,350;  166,187;20415,140;33,31611
 383,28; 6990,997;  212,957;20278,243;33,77993
 383,87; 6996,736;  180,803;20158,687;34,11739
 384,46; 6966,121;  164,035;20098,191;34,12277
 385,05; 7075,397;  202,188;20130,657;34,48940
 385,64; 7126,797;  191,111;20107,273;34,82441
 386,24; 7103,768;  157,881;20034,508;34,94500
 386,83; 7196,783;  202,035;20097,307;35,15784
 387,42; 7297,766;  198,034;20214,495;35,46947
 388,01; 7425,261;  204,421;20376,102;35,79692
 388,60; 7509,721;  191,573;20645,700;35,77834
 389,19; 7667,555;  173,731;20876,619;36,19700
 389,78; 7795,493;  179,730;21079,542;36,43938
 390,37; 8042,568;  245,651;21567,854;36,56713
 390,96; 8117,275;  187,497;21720,102;36,82684
 391,56; 8225,617;  195,116;21867,529;37,05402
 392,15; 8379,770;  177,961;22123,550;37,37338
 392,74; 8438,742;  165,656;22259,956;37,44443
 393,33; 8676,371;  183,347;22620,311;37,85282
 393,92; 8833,773;  189,427;22947,576;37,98352
 394,51; 8975,956;  169,347;23210,674;38,22093
 395,10; 9102,591;  202,353;23428,230;38,32036
 395,69; 9230,299;  187,122;23572,315;38,67053
 396,28; 9311,716;  193,046;23641,657;38,88789
 396,87; 9415,087;  200,741;23763,072;39,10626
 397,46; 9508,489;  198,128;23866,734;39,33633
 398,06; 9625,337;  212,746;24134,695;39,34709
 398,65; 9689,003;  191,828;24181,618;39,58840
 399,24; 9896,250;  208,906;24321,503;40,17545
 399,83; 9859,719;  171,684;24319,059;40,12045
 400,42;10010,541;  215,999;24455,828;40,40681
 401,01;10098,148;  189,315;24579,165;40,62687
 401,60;10140,312;  200,942;24618,383;40,70603
 402,19;10232,765;  214,489;24606,438;41,07206
 402,78;10235,716;  214,888;24515,643;41,23669
 403,37;10236,343;  204,440;24392,169;41,47517
 403,96;10213,418;  205,994;24258,463;41,60664
 404,55;10238,110;  213,319;24201,147;41,79116
 405,14;10264,308;  189,797;24097,719;42,13880
 405,73;10169,877;  211,200;24017,330;41,83241
 406,32;10202,073;  210,366;23847,172;42,27181
 406,91;10184,747;  205,150;23610,749;42,63765
 407,50;10120,768;  210,619;23473,501;42,60070
 408,09;10027,250;  179,317;23120,120;42,92759
 408,68;10061,653;  198,628;23067,402;43,12879
 409,27;10011,833;  183,854;22837,885;43,38292
 409,86; 9960,501;  192,997;22744,676;43,31165
 410,45;10003,077;  221,449;22600,509;43,70884
 411,04;10008,992;  227,516;22570,531;43,77868
 411,63; 9852,289;  214,426;22318,946;43,60132
 412,22; 9852,464;  220,876;22082,741;44,05657
 412,81; 9793,476;  216,872;21846,497;44,27540
 413,40; 9661,764;  232,559;21486,489;44,36452
 413,99; 9552,734;  276,330;21131,343;44,48045
 414,58; 9414,564;  198,868;20717,382;44,91405
 415,17; 9352,230;  202,718;20540,377;44,98803
 415,76; 9278,310;  198,723;20346,860;45,06415
 416,35; 9243,939;  185,874;20116,937;45,44697
 416,94; 9299,294;  225,568;20175,971;45,48142
 417,53; 9415,891;  207,257;20432,621;45,53013
 418,12; 9495,028;  206,948;20476,583;45,82263
 418,71; 9685,364;  218,021;20830,454;45,93025
 419,30; 9743,090;  200,024;21000,647;45,87875
 419,89; 9862,735;  184,639;21139,429;46,18560
 420,48;10099,133;  222,405;21442,613;46,54397
 421,07;10093,117;  216,251;21448,407;46,51843
 421,66;10171,099;  184,941;21541,095;46,76010
 422,25;10159,972;  205,167;21438,937;46,88195
 422,84;10193,125;  224,397;21543,476;46,75966
 423,43;10087,250;  212,168;21238,301;46,96576
 424,02; 9979,234;  231,628;21043,172;46,83749
 424,60; 9813,583;  201,392;20533,831;47,27515
 425,19; 9714,016;  211,703;20236,510;47,45271
 425,78; 9728,524;  217,626;20175,442;47,65500
 426,37; 9631,630;  232,085;20050,925;47,42732
 426,96; 9637,153;  206,624;19918,959;47,84075
 427,55; 9584,027;  199,467;19767,762;47,95799
 428,14; 9486,472;  195,158;19549,673;48,00593
 428,73; 9408,197;  216,929;19338,557;48,06739
 429,32; 9435,107;  218,470;19324,100;48,24042
 429,91; 9421,720;  226,160;19366,831;48,04200
 430,50; 9395,196;  228,466;19204,852;48,30598
 431,08; 9353,564;  231,772;19005,087;48,58914
 431,67; 9335,870;  263,463;18962,207;48,51881
 432,26; 9267,731;  269,923;18770,057;48,63644
 432,85; 9109,777;  291,770;18411,160;48,66614
 433,44; 8959,837;  305,845;18063,668;48,73340
 434,03; 8871,050;  316,149;17727,545;49,13392
 434,62; 8627,144;  271,614;17264,989;49,16934
 435,21; 8557,992;  287,923;17079,211;49,25214
 435,79; 8469,128;  290,535;16870,613;49,32783
 436,38; 8478,464;  276,994;16773,698;49,71581
 436,97; 8360,956;  282,686;16719,515;49,14737
 437,56; 8291,629;  278,143;16522,498;49,33090
 438,15; 8282,061;  260,837;16400,241;49,69963
 438,74; 8327,599;  274,067;16463,122;49,74677
 439,33; 8320,015;  249,683;16410,092;49,93891
 439,91; 8305,813;  217,450;16527,489;49,59132
 440,50; 8422,398;  264,835;16518,258;50,18981
 441,09; 8487,426;  270,832;16642,156;50,18894
 441,68; 8466,055;  245,445;16657,322;50,08939
 442,27; 8473,102;  230,908;16633,609;50,24901
 442,86; 8460,159;  205,057;16680,985;50,10402
 443,44; 8500,929;  221,288;16739,976;50,12287
 444,03; 8577,467;  301,826;16785,378;50,20545
 444,62; 8477,067;  224,441;16606,793;50,37510
 445,21; 8398,375;  230,442;16478,895;50,26899
 445,80; 8408,850;  261,747;16379,635;50,54696
 446,39; 8348,511;  281,055;16095,117;51,01445
 446,97; 8167,524;  220,128;15973,656;50,44836
 447,56; 8054,337;  225,126;15675,759;50,67243
 448,15; 8012,293;  227,205;15514,190;50,92625
 448,74; 7837,509;  236,128;15319,861;50,39456
 449,33; 7769,307;  225,588;15159,938;50,51254
 449,91; 7704,335;  221,893;14881,259;51,04206
 450,50; 7576,428;  218,893;14701,182;50,80368
 451,09; 7520,228;  228,662;14577,224;50,81740
 451,68; 7534,596;  246,815;14526,502;51,03600
 452,26; 7467,011;  243,891;14416,541;50,96520
 452,85; 7401,150;  232,045;14236,357;51,19212
 453,44; 7441,670;  249,734;14298,998;51,19084
 454,03; 7403,179;  215,659;14234,959;51,26875
 454,61; 7383,823;  215,426;14233,712;51,13605
 455,20; 7465,422;  237,194;14401,613;51,03088
 455,79; 7468,932;  247,196;14396,801;51,03842
 456,38; 7515,620;  239,115;14480,917;51,09259
 456,97; 7523,790;  231,885;14521,528;51,02930
 457,55; 7503,189;  217,114;14533,011;50,89499
 458,14; 7534,683;  253,039;14534,934;50,98514
 458,73; 7489,419;  238,575;14474,263;50,93427
 459,31; 7513,817;  268,650;14548,340;50,73757
 459,90; 7560,542;  266,190;14576,024;50,97440
 460,49; 7633,896;  332,190;14714,566;50,76842
 461,08; 7649,539;  225,418;14821,831;50,86264
 461,66; 7678,510;  233,881;14804,485;51,09348
 462,25; 7716,416;  237,571;14858,391;51,15202
 462,84; 7731,924;  271,341;14942,699;50,85135
 463,43; 7717,475;  203,107;14914,396;51,07892
 464,01; 7730,305;  227,875;14922,900;51,05422
 464,60; 7696,137;  289,108;14916,310;50,63873
 465,19; 7568,889;  203,644;14633,323;51,04233
 465,77; 7559,380;  234,488;14644,208;50,83299
 466,36; 7563,413;  253,876;14500,596;51,30681
 466,95; 7377,305;  235,491;14160,297;51,28843
 467,53; 7267,717;  231,256;13904,259;51,46244
 468,12; 7071,532;  264,718;13623,195;50,95502
 468,71; 6987,073;  232,643;13386,361;51,34997
 469,29; 6804,686;  209,102;13108,374;51,13144
 469,88; 6700,547;  221,793;12873,810;51,20728
 470,47; 6764,683;  281,329;13000,088;50,97474
 471,06; 6710,314;  237,022;12947,067;50,93052
 471,64; 6743,038;  233,792;13032,571;50,85834
 472,23; 6733,665;  217,710;13049,729;50,77887
 472,81; 6797,667;  210,405;13158,182;50,87562
 473,40; 6848,557;  228,710;13282,644;50,71151
 473,99; 6993,434;  320,172;13507,891;50,60209
 474,57; 6966,849;  231,864;13569,434;50,49634
 475,16; 7098,389;  244,173;13707,849;50,90895
 475,75; 7141,787;  246,093;13878,533;50,58297
 476,33; 7154,708;  249,861;13953,439;50,38719
 476,92; 7164,957;  256,018;14004,336;50,25298
 477,51; 7194,293;  251,939;14140,131;49,98746
 478,09; 7209,893;  247,631;14150,857;50,07660
 478,68; 7120,939;  258,938;14016,819;49,87687
 479,27; 7171,325;  283,401;14136,618;49,72075
 479,85; 7147,016;  253,092;14043,426;49,99099
 480,44; 7186,446;  230,937;14183,015;49,85285
 481,02; 7829,799;  256,397;15469,503;49,78209
 481,61; 8820,861;  276,706;17579,866;49,37916
 482,20; 9389,260;  254,936;18794,122;49,27036
 482,78; 9861,523;  289,553;19617,836;49,52313
 483,37;10114,612;  275,010;20203,289;49,37507
 483,95;10253,489;  300,395;20526,956;49,20804
 484,54;10320,015;  310,629;20749,998;48,97111
 485,13;10301,579;  271,931;20638,075;49,24667
 485,71;10152,842;  248,932;20437,114;49,05796
 486,30;10020,518;  292,932;20118,225;49,06655
 486,88; 9881,318;  339,393;19756,357;49,14221
 487,47; 9493,502;  305,469;18999,951;49,14837
 488,05; 9050,025;  299,930;18136,204;49,05786
 488,64; 8404,823;  282,236;16822,511;49,10793
 489,23; 7556,455;  309,545;14968,763;49,43585
 489,81; 6416,516;  293,544;12807,451;48,92934
 490,40; 6026,116;  247,698;12153,204;48,53568
 490,98; 5898,115;  242,851;11883,187;48,58334
 491,57; 5866,947;  268,775;11811,644;48,49896
 492,15; 5803,007;  249,774;11741,426;48,32406
 492,74; 5768,640;  269,622;11602,755;48,52160
 493,32; 5693,669;  278,159;11485,375;48,32164
 493,91; 5627,406;  253,927;11425,618;48,09907
 494,50; 5632,342;  258,078;11390,601;48,27535
 495,08; 5570,050;  238,001;11299,943;48,20175
 495,67; 5543,484;  266,389;11347,058;47,62433
 496,25; 5477,759;  210,002;11181,105;48,01483
 496,84; 5440,053;  223,158;11147,524;47,75467
 497,42; 5414,097;  213,232;11127,631;47,65141
 498,01; 5377,160;  252,004;11103,571;47,22964
 498,59; 5274,558;  216,232;11009,652;46,86490
 499,18; 5300,606;  219,850;10958,695;47,31194
 499,76; 5249,528;  243,310;10887,110;47,03413
 500,35; 5168,696;  235,923;10681,110;47,22532
 500,93; 5102,774;  225,617;10649,729;46,78726
 501,52; 5049,789;  227,463;10557,033;46,68468
 502,10; 5028,248;  229,922;10562,332;46,43957
 502,69; 4940,709;  226,536;10390,879;46,37951
 503,27; 4826,588;  213,308;10160,811;46,37627
 503,86; 4763,355;  226,690;10117,319;45,86832
 504,44; 4710,985;  198,920; 9980,832;46,12662
 505,03; 4605,847;  189,612; 9763,187;46,12942
 505,61; 4508,217;  214,305; 9626,644;45,62003
 506,19; 4453,401;  228,305; 9506,148;45,53963
 506,78; 4350,922;  197,995; 9318,823;45,53234
 507,36; 4275,062;  202,305; 9169,435;45,41874
 507,95; 4193,829;  206,609; 8967,935;45,50932
 508,53; 4113,368;  200,457; 8839,080;45,29555
 509,12; 4063,475;  219,917; 8732,153;45,15333
 509,70; 3986,090;  233,301; 8577,503;44,97481
 510,29; 3941,535;  242,531; 8439,392;45,12709
 510,87; 3777,799;  205,533; 8183,986;44,77392
 511,46; 3737,183;  189,533; 8086,332;44,92517
 512,04; 3650,351;  205,686; 7932,627;44,57994
 512,62; 3600,091;  209,918; 7792,058;44,71261
 513,21; 3498,628;  196,454; 7627,370;44,43831
 513,79; 3442,163;  203,297; 7534,648;44,17830
 514,38; 3379,518;  191,990; 7356,845;44,48838
 514,96; 3348,903;  225,683; 7260,366;44,39745
 515,54; 3251,225;  189,990; 7101,935;44,28906
 516,13; 3226,579;  216,759; 7077,247;43,87181
 516,71; 3116,116;  199,219; 6900,285;43,52885
 517,30; 3059,161;  189,602; 6777,909;43,55533
 517,88; 3042,331;  217,833; 6696,640;43,59595
 518,46; 2949,869;  189,756; 6589,999;43,12513
 519,05; 2910,929;  202,139; 6529,725;42,80922
 519,63; 2885,560;  208,063; 6461,883;42,81379
 520,22; 2862,251;  236,291; 6396,901;42,62500
 520,80; 2800,851;  208,599; 6356,563;42,16440
 521,38; 2799,975;  249,677; 6324,495;41,98147
 521,97; 2764,373;  209,598; 6288,674;42,02571
 522,55; 2723,019;  221,444; 6249,687;41,49758
 523,13; 2679,542;  193,905; 6226,473;41,20362
 523,72; 2662,038;  201,756; 6181,499;41,14361
 524,30; 2736,033;  226,366; 6308,794;41,26095
 524,89; 2695,665;  189,905; 6273,875;41,18626
 525,47; 2725,664;  223,134; 6436,029;40,27960
 526,05; 2715,033;  185,826; 6496,311;40,07943
 526,64; 2759,924;  235,903; 6544,114;40,01168
 527,22; 2775,202;  223,904; 6686,717;39,47659
 527,80; 2852,048;  252,441; 6790,704;39,75989
 528,39; 2817,908;  215,440; 6899,738;38,93405
 528,97; 2862,586;  217,518; 7022,426;38,87000
 529,55; 2937,572;  229,520; 7231,490;38,67557
 530,14; 2979,185;  228,209; 7420,922;38,24671
 530,72; 2988,416;  213,672; 7478,076;38,19645
 531,30; 3001,400;  183,747; 7650,123;37,73789
 531,89; 3067,292;  206,363; 7726,644;38,04285
 532,47; 3096,138;  243,593; 7835,225;37,57486
 533,05; 3112,832;  239,903; 7874,131;37,63222
 533,63; 3128,399;  234,747; 7890,418;37,79751
 534,22; 3086,522;  205,131; 7928,713;37,30641
 534,80; 3123,675;  238,822; 8044,909;36,95645
 535,38; 3192,277;  320,516; 8141,619;36,71810
 535,97; 3106,846;  210,516; 8068,277;36,85948
 536,55; 3170,136;  273,514; 8157,157;36,74218
 537,13; 3117,523;  276,440; 8150,866;36,07988
 537,71; 3142,846;  310,132; 8166,896;36,05446
 538,30; 3154,076;  325,669; 8256,648;35,66277
 538,88; 3194,920;  354,052; 8327,755;35,62797
 539,46; 3257,937;  408,899; 8514,845;35,14750
 540,05; 3256,567;  403,975; 8620,114;34,71937
 540,63; 3304,751;  457,975; 8814,059;34,06831
 541,21; 3384,304;  482,589; 8956,486;34,24298
 541,79; 3443,889;  507,436; 9126,469;34,06940
 542,38; 3431,044;  539,360; 9204,913;33,36987
 542,96; 3477,811;  556,588; 9376,337;33,12138
 543,54; 3536,335;  570,282; 9579,255;32,92332
 544,12; 3533,596;  529,435; 9696,845;32,77001
 544,70; 3564,303;  511,204; 9855,285;32,67415
 545,29; 3612,659;  522,668; 9943,533;32,79944
 545,87; 3618,120;  520,743; 9958,777;32,81803
 546,45; 3562,290;  476,206; 9995,260;32,42007
 547,03; 3557,720;  450,282;10089,230;32,23835
 547,62; 3596,366;  417,974;10221,298;32,42157
 548,20; 3643,150;  428,819;10364,644;32,35091
 548,78; 3642,301;  388,124;10462,580;32,30127
 549,36; 3638,716;  369,740;10717,879;31,59000
 549,94; 3656,642;  330,820;10753,931;31,90816
 550,53; 3728,071;  327,432;11007,285;31,84162
 551,11; 3742,377;  309,508;11176,781;31,58906
 551,69; 3822,209;  320,355;11465,273;31,42108
 552,27; 3818,179;  271,818;11710,093;31,00434
 552,85; 3904,623;  280,585;12103,593;30,65242
 553,44; 3955,440;  286,663;12378,961;30,33978
 554,02; 4046,470;  300,124;12654,093;30,32504
 554,60; 4081,423;  233,585;12918,320;30,33440
 555,18; 4204,455;  265,355;13307,016;30,20397
 555,76; 4244,870;  260,893;13653,371;29,74787
 556,34; 4349,992;  275,430;13991,273;29,70697
 556,93; 4414,378;  262,201;14388,948;29,39231
 557,51; 4477,084;  232,891;14755,170;29,22539
 558,09; 4548,793;  265,740;15098,345;28,87594
 558,67; 4633,821;  261,429;15430,691;28,82403
 559,25; 4680,022;  270,968;15672,170;28,62799
 559,83; 4742,144;  237,582;16057,644;28,47373
 560,41; 4801,207;  243,199;16329,657;28,33444
 561,00; 4888,929;  255,967;16659,478;28,24372
 561,58; 4894,130;  238,584;16947,418;27,86278
 562,16; 4955,500;  242,969;17243,768;27,71947
 562,74; 5026,362;  223,508;17582,388;27,66799
 563,32; 5120,852;  210,043;18026,918;27,56268
 563,90; 5224,991;  249,583;18359,508;27,47338
 564,48; 5278,192;  249,200;18754,734;27,17561
 565,06; 5409,099;  242,506;19298,508;27,11268
 565,65; 5538,681;  246,888;19959,760;26,84435
 566,23; 5758,437;  296,736;20662,926;26,81749
 566,81; 5860,576;  245,660;21389,059;26,55635
 567,39; 6109,421;  256,197;22319,811;26,52885
 567,97; 6225,576;  266,198;22873,619;26,36027
 568,55; 6426,959;  280,582;23783,234;26,15185
 569,13; 6547,529;  243,813;24431,824;26,06132
 569,71; 6742,054;  243,893;25404,965;25,82625
 570,29; 6987,455;  278,893;26342,713;25,73898
 570,87; 7131,793;  285,354;27066,849;25,56406
 571,45; 7242,160;  267,198;27717,085;25,40980
 572,03; 7295,497;  235,274;28116,067;25,32289
 572,61; 7478,190;  222,274;28951,153;25,25652
 573,20; 7613,668;  257,430;29551,008;25,11212
 573,78; 7693,713;  243,890;30118,426;24,93703
 574,36; 7779,837;  262,505;30688,687;24,70678
 574,94; 7835,343;  321,427;31016,324;24,47937
 575,52; 7791,280;  249,810;31214,294;24,35523
 576,10; 7940,173;  303,887;31765,832;24,27150
 576,68; 8011,066;  298,581;32340,773;24,06978
 577,26; 8095,218;  307,963;33090,559;23,75423
 577,84; 8205,575;  313,198;33542,837;23,75102
 578,42; 8189,943;  358,965;33877,397;23,36320
 579,00; 8161,575;  313,197;33915,396;23,35674
 579,58; 8189,266;  358,042;34096,174;23,21179
 580,16; 8083,512;  308,195;34110,435;23,00237
 580,74; 8091,573;  316,195;34375,401;22,82900
 581,32; 8032,451;  322,273;34369,747;22,64537
 581,90; 7922,358;  329,272;34303,123;22,34979
 582,48; 7918,912;  328,272;34453,713;22,24334
 583,06; 7872,835;  318,273;34590,426;22,04286
 583,64; 7895,312;  324,889;34648,614;22,05595
 584,22; 7760,664;  342,040;34468,170;21,73884
 584,80; 7599,958;  336,965;34092,063;21,51673
 585,38; 7497,699;  355,353;33784,696;21,36550
 585,96; 7386,067;  315,735;33751,666;21,14591
 586,54; 7393,326;  348,733;33736,897;21,09907
 587,12; 7278,942;  309,118;33973,303;20,70397
 587,70; 7317,897;  337,812;34128,093;20,65708
 588,28; 7263,573;  313,272;34026,730;20,61581
 588,86; 7211,757;  321,502;34187,085;20,34589
 589,44; 7117,971;  299,423;34186,969;20,12110
 590,02; 7135,448;  309,347;34351,666;20,05181
 590,59; 7068,172;  284,964;34578,662;19,77975
 591,17; 7085,184;  303,729;34693,392;19,71946
 591,75; 6992,016;  278,884;34799,016;19,44701
 592,33; 7041,355;  308,962;35008,140;19,40217
 592,91; 7028,923;  255,499;35236,029;19,36341
 593,49; 7033,076;  267,883;35565,798;19,16599
 594,07; 7037,615;  287,883;35788,794;19,01284
 594,65; 7019,741;  300,271;35772,234;18,94305
 595,23; 7013,033;  283,270;36175,414;18,74996
 595,81; 6990,971;  296,116;36321,884;18,58352
 596,39; 6948,002;  287,423;36461,525;18,41256
 596,97; 6923,816;  275,576;36559,935;18,32261
 597,55; 6895,987;  274,194;36480,627;18,28900
 598,12; 6818,168;  245,497;36512,422;18,12304
 598,70; 6807,892;  245,191;36662,042;18,02106
 599,28; 6865,400;  283,268;36867,952;17,99150
 599,86; 6809,892;  254,499;36829,033;17,92338
 600,44; 6749,584;  241,883;36966,538;17,72025
 601,02; 6754,059;  294,496;36932,542;17,63075
 601,60; 6692,324;  272,500;36973,021;17,49246
 602,18; 6634,907;  247,113;36930,397;17,41336
 602,75; 6586,063;  250,654;37065,533;17,20883
 603,33; 6559,738;  264,960;37078,508;17,09908
 603,91; 6543,029;  243,035;37002,533;17,13841
 604,49; 6535,338;  282,883;37014,085;17,02219
 605,07; 6483,186;  284,884;37183,136;16,79836
 605,65; 6444,753;  295,267;37189,832;16,66773
 606,23; 6445,988;  350,041;37287,012;16,50365
 606,80; 6409,802;  384,885;37392,670;16,28013
 607,38; 6401,737;  421,958;37380,170;16,17984
 607,96; 6336,879;  461,808;37486,820;15,86784
 608,54; 6359,107;  524,959;37474,354;15,78956
 609,12; 6310,233;  539,270;37559,580;15,58864
 609,70; 6242,692;  571,960;37639,811;15,29825
 610,27; 6235,448;  564,655;37785,358;15,23559
 610,85; 6189,000;  585,114;37749,956;15,07846
 611,43; 6181,646;  582,806;37736,841;15,06926
 612,01; 6079,416;  548,577;37484,273;14,97424
 612,59; 6044,985;  556,806;37576,841;14,82489
 613,16; 5970,310;  524,194;37437,341;14,75387
 613,74; 5968,169;  490,268;37386,495;14,84678
 614,32; 5923,846;  458,882;37316,730;14,82714
 614,90; 5845,078;  435,038;37231,995;14,70241
 615,48; 5790,772;  373,040;36866,751;14,84566
 616,05; 5738,587;  343,348;36856,845;14,77601
 616,63; 5676,711;  365,733;36721,862;14,60820
 617,21; 5653,125;  348,193;36611,311;14,62900
 617,79; 5591,448;  343,885;36569,405;14,48582
 618,36; 5575,693;  342,807;36469,119;14,48497
 618,94; 5455,879;  295,886;36158,627;14,38817
 619,52; 5435,572;  312,425;35846,388;14,41761
 620,10; 5407,386;  292,039;35860,123;14,38185
 620,67; 5389,757;  298,349;35807,388;14,33834
 621,25; 5330,232;  324,807;35706,204;14,14705
 621,83; 5306,125;  303,117;35599,982;14,17409
 622,41; 5328,433;  359,501;35657,281;14,07718
 622,98; 5230,250;  317,503;35302,550;14,04242
 623,56; 5221,204;  318,272;35275,700;14,02544
 624,14; 5147,016;  306,191;35161,063;13,88852
 624,72; 5114,218;  301,424;35078,179;13,83911
 625,29; 5106,173;  285,810;35174,072;13,81657
 625,87; 5112,478;  332,731;35105,191;13,74578
 626,45; 5045,588;  287,042;34915,213;13,74184
 627,02; 5000,217;  292,346;34950,879;13,58358
 627,60; 4936,892;  271,267;34878,764;13,48154
 628,18; 4952,386;  258,270;34918,965;13,54305
 628,76; 4919,080;  265,041;34954,439;13,41632
 629,33; 4937,664;  292,963;34885,867;13,42675
 629,91; 4869,463;  276,962;34917,431;13,25762
 630,49; 4932,895;  291,117;35059,687;13,35050
 631,06; 4934,157;  289,195;35196,452;13,30658
 631,64; 4893,496;  288,888;35120,640;13,21957
 632,22; 4860,158;  248,811;35036,563;13,25566
 632,79; 4907,358;  282,427;35309,704;13,20380
 633,37; 4884,278;  252,577;35401,709;13,17728
 633,95; 4908,789;  262,657;35488,114;13,18970
 634,52; 4863,295;  246,578;35618,944;13,05176
 635,10; 4892,186;  264,039;35689,738;13,06438
 635,68; 4890,943;  264,504;35817,610;13,01276
 636,25; 4896,836;  248,351;35772,503;13,08542
 636,83; 4878,157;  228,964;35999,593;12,99724
 637,41; 4870,866;  249,273;36041,354;12,91233
 637,98; 4904,759;  283,504;36243,636;12,85105
 638,56; 4899,129;  264,044;36299,657;12,86251
 639,13; 4888,111;  242,349;36295,589;12,88584
 639,71; 4981,772;  312,810;36469,841;12,91301
 640,29; 4841,552;  224,194;36269,643;12,80982
 640,86; 4861,565;  241,348;36562,378;12,72050
 641,44; 4849,731;  240,810;36416,421;12,74041
 642,02; 4902,359;  268,117;36501,617;12,78994
 642,59; 4880,218;  241,117;36507,968;12,79157
 643,17; 4836,230;  242,656;36583,780;12,64016
 643,74; 4816,551;  243,425;36595,976;12,57993
 644,32; 4862,948;  270,809;36562,865;12,65329
 644,89; 4877,191;  263,963;36575,523;12,70457
 645,47; 4837,588;  266,886;36564,951;12,59214
 646,05; 4818,755;  263,502;36439,147;12,59204
 646,62; 4820,767;  248,117;36521,421;12,60610
 647,20; 4826,857;  254,732;36625,464;12,57089
 647,77; 4802,869;  233,271;36563,429;12,57798
 648,35; 4772,266;  230,886;36454,011;12,53724
 648,92; 4809,971;  254,040;36523,592;12,56131
 649,50; 4741,214;  220,886;36442,327;12,47970
 650,08; 4778,150;  220,886;36275,985;12,63972
 650,65; 4785,393;  236,039;36535,335;12,53290
 651,23; 4876,406;  213,193;37329,378;12,56383
 651,80; 5058,803;  217,193;38230,959;12,73646
 652,38; 5116,585;  230,809;38683,233;12,70603
 652,95; 5165,597;  216,885;39039,891;12,74685
 653,53; 5188,225;  243,116;39355,241;12,64342
 654,10; 5281,699;  269,347;39470,284;12,78631
 654,68; 5235,020;  215,885;39351,865;12,82486
 655,25; 5214,340;  215,577;39531,139;12,71446
 655,83; 5231,045;  211,654;39701,489;12,71059
 656,40; 5258,826;  262,347;39471,994;12,74299
 656,98; 5258,839;  218,116;39510,806;12,82865
 657,55; 5253,159;  228,039;39312,694;12,85702
 658,13; 5215,172;  223,423;38933,891;12,89509
 658,70; 5156,953;  250,500;38701,780;12,76018
 659,28; 5053,274;  231,192;37787,977;12,83944
 659,85; 4943,209;  247,962;36911,327;12,80637
 660,43; 4962,760;  245,577;37010,600;12,83063
 661,00; 4978,542;  217,038;37113,336;12,90510
 661,58; 4990,247;  226,808;37430,224;12,80377
 662,15; 5032,336;  214,038;37623,575;12,87987
 662,73; 5156,272;  296,269;37994,771;12,89177
 663,30; 5148,977;  233,346;38122,814;12,97361
 663,88; 5217,451;  238,115;38285,165;13,08731
 664,45; 5214,540;  221,192;38475,515;13,05303
 665,03; 5262,091;  225,192;38934,096;13,01225
 665,60; 5442,796;  315,961;39296,524;13,15229
 666,17; 5376,809;  231,730;39435,643;13,12389
 666,75; 5450,129;  237,884;39837,917;13,16222
 667,32; 5525,449;  257,422;40136,652;13,20995
 667,90; 5544,231;  248,576;40373,925;13,19778
 668,47; 5585,090;  254,268;40711,507;13,17643
 669,05; 5659,948;  238,422;41041,319;13,28711
 669,62; 5636,730;  215,268;41094,207;13,26224
 670,19; 5687,512;  207,576;41221,096;13,36129
 670,77; 5728,909;  225,191;41436,831;13,35477
 671,34; 5734,922;  222,653;41280,489;13,42562
 671,92; 5814,857;  223,268;41671,994;13,49038
 672,49; 5808,408;  249,114;41653,036;13,42697
 673,06; 5775,959;  180,576;41684,848;13,48146
 673,64; 5851,049;  209,037;41721,814;13,59102
 674,21; 5799,061;  198,806;41601,780;13,52621
 674,79; 5897,228;  237,498;41879,361;13,59144
 675,36; 5955,625;  243,345;41950,096;13,69630
 675,93; 5920,099;  207,883;41798,447;13,73440
 676,51; 6002,573;  233,883;41996,797;13,81295
 677,08; 6038,124;  238,267;42145,609;13,83971
 677,65; 6035,059;  227,344;42244,575;13,82222
 678,23; 6067,072;  235,806;42378,002;13,83712
 678,80; 6145,469;  226,344;42468,276;14,01244
 679,38; 6160,712;  215,421;42651,934;14,00985
 679,95; 6239,879;  226,498;42874,669;14,09997
 680,52; 6275,353;  226,806;43211,404;14,07143
 681,10; 6379,135;  242,344;43619,908;14,14738
 681,67; 6421,224;  240,652;43908,336;14,15365
 682,24; 6468,237;  205,882;43960,840;14,31233
 682,82; 6545,634;  215,113;44518,267;14,28910
 683,39; 6675,646;  261,805;44947,541;14,35322
 683,96; 6708,197;  228,113;45163,353;14,42094
 684,54; 6745,133;  214,882;45566,549;14,39914
 685,11; 6907,530;  261,574;45995,977;14,53163
 685,68; 6978,543;  220,343;46347,635;14,65119
 686,25; 7015,324;  209,574;46329,678;14,75658
 686,83; 7067,414;  224,266;46587,182;14,75996
 687,40; 7144,888;  205,805;46909,071;14,85781
 687,97; 7243,362;  262,882;47309,114;14,83749
 688,55; 7220,836;  212,266;47325,926;14,87588
 689,12; 7280,156;  191,728;47588,045;14,95565
 689,69; 7301,707;  201,497;47694,703;14,94995
 690,26; 7359,028;  218,035;47746,208;15,02476
 690,84; 7434,194;  217,112;48066,327;15,08297
 691,41; 7492,206;  228,343;48172,062;15,15081
 691,98; 7555,065;  228,189;48503,951;15,17713
 692,56; 7541,847;  220,650;48556,763;15,14643
 693,13; 7640,859;  276,573;48519,652;15,26496
 693,70; 7675,641;  239,343;48637,233;15,36492
 694,27; 7727,885;  216,419;48796,430;15,46205
 694,84; 7714,897;  213,189;48898,011;15,40872
 695,42; 7842,140;  261,650;49019,361;15,54726
 695,99; 7882,614;  217,727;49180,327;15,65458
 696,56; 7897,935;  216,496;49034,062;15,73499
 697,13; 8002,793;  232,650;49420,720;15,79680
 697,71; 8012,652;  209,727;49394,686;15,86445
 698,28; 8122,126;  217,727;49714,037;15,96967
 698,85; 8121,446;  199,727;49725,003;15,99531
 699,42; 8166,613;  202,342;49934,584;16,01430
 699,99; 8261,318;  240,803;50030,319;16,10884
 700,57; 8333,099;  232,342;50115,362;16,23951
 701,14; 8333,343;  206,573;50235,712;16,24407
 701,71; 8410,817;  232,803;50426,062;16,29305
 702,28; 8461,214;  229,034;50475,259;16,38368
 702,85; 8502,688;  224,495;50574,686;16,44123
 703,43; 8551,239;  251,342;50838,037;16,40727
 704,00; 8671,944;  245,726;50977,849;16,60924
 704,57; 8706,495;  235,188;51011,738;16,68350
 705,14; 8740,661;  252,880;51250,088;16,64362
 705,71; 8822,520;  259,880;51277,054;16,78384
 706,28; 8826,379;  231,880;51163,327;16,87464
 706,86; 8927,622;  260,187;51476,755;16,92311
 707,43; 9016,173;  289,957;51421,721;17,06614
 708,00; 9024,416;  259,803;51456,071;17,11963
 708,57; 9022,429;  234,956;51246,421;17,22647
 709,14; 9082,980;  261,879;51501,926;17,21525
 709,71; 9132,377;  241,572;51586,738;17,31576
 710,28; 9252,928;  236,418;51710,165;17,51672
 710,86; 9262,556;  244,725;51954,054;17,43947
 711,43; 9315,876;  267,495;51845,866;17,54298
 712,00; 9396,196;  249,494;51973,447;17,68369
 712,57; 9384,286;  261,802;52051,182;17,61458
 713,14; 9492,067;  234,417;52193,994;17,81702
 713,71; 9547,080;  246,802;52137,652;17,92277
 714,28; 9556,554;  235,033;52217,926;17,93190
 714,85; 9572,028;  221,110;51842,968;18,11426
 715,42; 9666,118;  225,417;52187,396;18,16848
 716,00; 9733,899;  300,033;52292,977;18,14451
 716,57; 9748,604;  233,263;52374,943;18,24901
 717,14; 9773,924;  211,725;52272,447;18,36740
 717,71; 9843,014;  212,725;52283,874;18,49448
 718,28; 9917,026;  265,955;52493,917;18,47874
 718,85; 9937,039;  204,955;52412,575;18,64112
 719,42;10023,744;  241,878;52662,080;18,66049
 719,99;10008,833;  219,571;52385,892;18,76548
 720,56;10185,769;  243,417;52752,242;18,93463
 721,13;10108,320;  217,032;52790,823;18,81410
 721,70;10169,332;  203,724;52633,174;19,00765
 722,27;10265,960;  232,186;52831,601;19,07583
 722,84;10394,896;  288,493;52843,721;19,23006
 723,41;10318,832;  208,032;52888,686;19,19262
 723,98;10391,306;  221,570;53198,268;19,19662
 724,55;10491,318;  256,724;53259,772;19,30944
 725,12;10501,715;  181,185;53261,738;19,44315
 725,69;10600,882;  208,570;53273,627;19,58410
 726,27;10618,894;  221,570;53351,208;19,56973
 726,84;10751,291;  233,031;53717,558;19,66599
 727,41;10828,150;  241,262;53692,986;19,80645
 727,98;10877,932;  235,493;53909,259;19,82801
 728,55;11002,175;  274,339;53881,456;20,01196
 729,12;10955,803;  209,185;54031,575;19,96682
 729,69;11081,277;  235,339;54118,464;20,12864
 730,26;11163,444;  239,108;54533,507;20,12056
 730,82;11098,379;  229,569;54254,781;20,11803
 731,39;11263,622;  229,031;54317,746;20,40091
 731,96;11275,635;  214,800;54680,251;20,30798
 732,53;11433,263;  236,185;54873,678;20,49340
 733,10;11465,199;  243,031;54889,028;20,53612
 733,67;11566,980;  236,184;55261,302;20,59204
 734,24;11468,839;  217,031;54871,499;20,58717
 734,81;11613,236;  259,492;54910,464;20,77501
 735,38;11564,479;  232,954;54665,661;20,81749
 735,95;11541,338;  228,107;54563,473;20,82112
 736,52;11629,889;  236,723;54779,823;20,88837
 737,09;11638,748;  248,646;54388,712;21,03821
 737,66;11769,299;  286,030;54600,140;21,14233
 738,23;11798,850;  226,030;54758,721;21,22180
 738,80;11918,324;  307,722;55002,148;21,22813
 739,37;11935,952;  261,645;55128,652;21,27746
 739,94;12000,503;  236,953;55163,387;21,41692
 740,51;12192,823;  366,338;55300,507;21,52847
 741,07;12147,066;  233,722;55208,781;21,67045
 741,64;12211,310;  273,107;55394,054;21,65820
 742,21;12242,630;  238,722;55571,558;21,69400
 742,78;12263,566;  213,030;55299,755;21,87557
 743,35;12355,117;  232,183;55646,105;21,87705
 743,92;12449,437;  280,876;55889,379;21,88255
 744,49;12578,449;  273,183;55738,191;22,18564
 745,06;12525,693;  230,568;55709,695;22,16171
 745,63;12566,013;  223,029;55595,276;22,29092
 746,19;12639,872;  227,183;55560,858;22,43243
 746,76;12651,884;  236,798;55580,516;22,43269
 747,33;12761,666;  243,183;55549,020;22,63501
 747,90;12824,755;  263,798;55781,140;22,62529
 748,47;12889,229;  240,875;55719,336;22,79868
 749,04;12912,703;  244,567;55769,148;22,81537
 749,61;12990,870;  279,183;55687,729;22,94174
 750,17;13029,575;  265,413;55746,234;23,00644
 750,74;13086,510;  251,875;55801,200;23,10493
 751,31;13021,523;  232,413;55590,319;23,10259
 751,88;12982,535;  216,336;55543,208;23,07414
 752,45;13175,932;  231,490;55604,251;23,37691
 753,02;13163,176;  260,413;55423,140;23,39036
 753,58;13196,034;  232,490;55410,875;23,49388
 754,15;13306,739;  219,028;55610,918;23,62749
 754,72;13262,752;  230,028;55382,806;23,63022
 755,29;13292,611;  221,721;55210,541;23,77009
 755,86;13369,854;  253,490;55419,430;23,77620
 756,42;13476,328;  251,336;55133,781;24,09694
 756,99;13449,264;  215,182;55231,285;24,05492
 757,56;13461,199;  229,874;55230,405;24,05672
 758,13;13491,750;  179,951;55113,447;24,23257
 758,70;13568,224;  215,489;55279,875;24,24931
 759,26;13623,544;  202,643;55239,687;24,38521
 759,83;13694,480;  227,028;55372,883;24,42151
 760,40;13739,185;  210,566;55218,311;24,59403
 760,97;13757,121;  206,489;55244,353;24,62056
 761,53;13745,672;  185,643;54956,396;24,75779
 762,10;13803,146;  186,412;54850,362;24,90990
 762,67;13878,235;  214,489;54907,097;24,98280
 763,24;13761,632;  173,874;54437,601;25,04022
 763,80;13873,491;  207,797;54611,798;25,11891
 764,37;13834,965;  211,181;54580,148;25,05801
 764,94;13795,670;  197,258;54198,499;25,18167
 765,50;13844,298;  205,335;54206,695;25,25670
 766,07;13909,464;  237,489;54177,507;25,34663
 766,64;13899,631;  214,719;53884,319;25,49844
 767,21;13886,951;  213,873;53796,977;25,51752
 767,77;13962,809;  234,719;53682,943;25,68484
 768,34;13944,053;  223,950;53621,448;25,69428
 768,91;13920,142;  233,719;53493,260;25,69760
 769,47;13994,539;  232,488;53468,072;25,85123
 770,04;13981,321;  245,719;53389,037;25,84634
 770,61;13959,026;  219,180;53037,695;26,01331
 771,18;13987,731;  211,334;53017,969;26,08838
 771,74;14075,820;  226,873;53148,935;26,16857
 772,31;14100,140;  236,103;52924,131;26,31345
 772,88;14045,384;  205,796;52656,174;26,38606
 773,44;14025,781;  202,565;52564,832;26,39919
 774,01;14120,870;  233,796;52605,952;26,51614
 774,58;14035,729;  215,642;52376,456;26,49515
 775,14;14217,280;  208,411;52458,191;26,81135
 775,71;14167,600;  210,795;52348,926;26,76890
 776,27;14206,382;  273,641;52254,661;26,80352
 776,84;14313,472;  312,180;52286,243;26,93900
 777,41;14238,253;  226,411;52017,901;27,05433
 777,97;14256,497;  215,795;51779,713;27,22970
 778,54;14231,201;  231,641;52002,294;27,04150
 779,11;14352,906;  260,641;51813,490;27,33557
 779,67;14361,996;  216,487;51780,072;27,43314
 780,24;14347,393;  231,949;51504,576;27,53018
 780,80;14375,329;  235,949;51658,234;27,49660
 781,37;14440,495;  237,795;51581,200;27,66217
 781,94;14330,507;  230,948;51445,858;27,53018
 782,50;14434,597;  228,179;51259,670;27,83853
 783,07;14456,917;  257,564;51261,097;27,83994
 783,63;14407,007;  221,871;51107,909;27,87628
 784,20;14412,250;  248,179;51014,798;27,90036
 784,77;14397,724;  232,410;50773,302;28,02743
 785,33;14407,121;  210,102;50667,037;28,13690
 785,90;14414,441;  228,102;50623,926;28,14983
 786,46;14432,377;  256,102;50497,815;28,21615
 787,03;14405,159;  228,102;50236,243;28,34950
 787,59;14455,325;  232,563;50226,978;28,44870
 788,16;14526,799;  235,871;50217,020;28,59264
 788,73;14492,350;  236,409;50094,217;28,59320
 789,29;14469,824;  230,640;49793,875;28,72933
 789,86;14510,221;  258,178;49607,226;28,88008
 790,42;14560,696;  238,101;49520,038;29,06256
 790,99;14442,554;  241,871;49234,388;28,98541
 791,55;14468,182;  233,255;49198,969;29,07121
 792,12;14504,964;  270,794;49232,320;29,07215
 792,68;14562,823;  239,178;48915,901;29,42607
 793,25;14518,681;  249,409;48664,020;29,47307
 793,81;14474,540;  318,486;48265,909;29,52412
 794,38;14339,091;  209,870;48136,952;29,48066
 794,94;14376,411;  239,870;48136,610;29,51462
 795,51;14328,270;  243,255;47862,730;29,57827
 796,07;14269,975;  234,101;47650,696;29,60118
 796,64;14349,833;  262,870;47746,046;29,66727
 797,20;14307,846;  246,178;47193,089;29,95228
 797,77;14256,628;  215,408;46881,670;30,08859
 798,33;14225,409;  244,177;46734,251;30,07359
 798,90;14300,576;  251,485;46698,063;30,24785
 799,46;14198,358;  221,947;46181,798;30,41004
 800,03;14147,293;  244,100;46101,918;30,31804
 800,59;14098,152;  259,254;45974,191;30,27216
 801,15;14050,088;  253,023;45733,850;30,33600
 801,72;14032,715;  240,946;45340,585;30,58066
 802,28;13960,036;  267,946;45057,089;30,57011
 802,85;13939,202;  238,254;44917,132;30,66538
 803,41;13933,676;  228,562;44717,636;30,80557
 803,98;13893,150;  231,946;44265,909;31,02424
 804,54;13864,624;  234,331;44154,568;31,03420
 805,11;13822,098;  247,715;43862,841;31,12311
 805,67;13811,649;  262,254;43846,653;31,08772
 806,23;13735,739;  249,177;43371,003;31,27549
 806,80;13755,136;  260,023;43244,277;31,39548
 807,36;13748,072;  258,253;43238,243;31,38628
 807,93;13753,392;  267,176;43079,055;31,50111
 808,49;13696,635;  233,561;42628,559;31,75628
 809,05;13649,109;  231,561;42517,909;31,73021
 809,62;13669,045;  264,407;42372,183;31,83411
 810,18;13635,442;  250,638;42348,149;31,79476
 810,74;13614,147;  218,022;41992,576;32,06767
 811,31;13648,006;  227,407;41870,234;32,22788
 811,87;13669,403;  254,330;41773,046;32,31090
 812,44;13651,800;  268,176;41687,781;32,31229
 813,00;13609,428;  204,637;41421,439;32,52264
 813,56;13654,594;  255,176;41486,559;32,49811
 814,13;13692,068;  234,945;41479,140;32,62792
 814,69;13671,696;  243,099;41172,414;32,80924
 815,25;13589,939;  209,022;40779,533;32,98188
 815,82;13645,414;  260,637;40770,038;33,04116
 816,38;13647,195;  289,637;40586,696;33,14772
 816,94;13532,977;  226,637;40272,969;33,22736
 817,51;13496,374;  220,637;40085,166;33,30213
 818,07;13432,848;  221,022;39734,670;33,43611
 818,63;13440,322;  234,021;39568,482;33,57438
 819,20;13433,412;  245,329;39580,525;33,52744
 819,76;13296,117;  223,483;39195,260;33,54385
 820,32;13298,668;  248,252;39074,764;33,61212
 820,89;13143,988;  247,021;38918,807;33,34981
 821,45;13099,923;  217,406;38530,927;33,62395
 822,01;13071,244;  252,867;38313,739;33,67862
 822,57;13022,333;  252,559;38158,628;33,68794
 823,14;12986,807;  216,867;37916,132;33,87318
 823,70;12950,666;  220,021;37639,482;34,02145
 824,26;12877,909;  219,482;37478,602;33,97404
 824,82;12934,768;  256,867;37394,875;34,13727
 825,39;12792,011;  228,251;37042,534;34,12741
 825,95;12843,408;  238,328;37083,730;34,21073
 826,51;12733,652;  239,790;36697,234;34,26971
 827,08;12778,510;  270,251;36758,662;34,28009
 827,64;12708,138;  252,097;36598,781;34,27009
 828,20;12603,459;  214,867;36265,901;34,36404
 828,76;12701,702;  253,866;36258,636;34,57274
 829,32;12643,330;  261,251;36200,987;34,45234
 829,89;12665,958;  209,789;35935,106;34,86650
 830,45;12691,355;  237,482;36000,687;34,82315
 831,01;12597,444;  232,712;35591,269;34,96956
 831,57;12647,072;  240,328;35661,388;35,02646
 832,14;12625,700;  221,020;35632,585;35,03003
 832,70;12644,713;  219,558;35308,551;35,41041
 833,26;12587,033;  199,020;35184,824;35,40868
 833,82;12551,584;  229,404;35104,636;35,33218
 834,38;12625,673;  222,558;35095,140;35,56695
 834,95;12628,147;  213,635;35052,260;35,63434
 835,51;12528,929;  190,635;34868,072;35,58018
 836,07;12630,480;  234,173;34910,423;35,74870
 836,63;12627,185;  244,866;34946,158;35,68259
 837,19;12627,813;  234,558;34790,893;35,86392
 837,75;12519,902;  204,481;34431,166;35,98193
 838,32;12603,377;  244,942;34548,901;36,02626
 838,88;12607,004;  241,481;34645,175;35,94243
 839,44;12599,479;  248,865;34467,987;36,09272
 840,00;12605,337;  241,404;34451,337;36,14136
 840,56;12564,657;  222,404;34168,149;36,35876
 841,12;12537,516;  218,634;34182,961;36,27006
 841,68;12486,375;  196,173;33923,004;36,44043
 842,25;12525,926;  232,557;33917,970;36,49464
 842,81;12412,861;  204,942;33732,782;36,41129
 843,37;12476,028;  200,634;33731,594;36,60913
 843,93;12464,963;  227,557;33568,329;36,70403
 844,49;12499,207;  237,788;33657,910;36,68873
 845,05;12393,912;  187,557;33455,260;36,69131
 845,61;12520,232;  245,095;33466,918;36,94902
 846,17;12425,783;  222,172;33305,653;36,88732
 846,73;12478,026;  230,634;33273,542;37,06512
 847,29;12448,423;  211,326;33127,123;37,17697
 847,86;12449,974;  210,249;33033,859;37,28939
 848,42;12391,064;  223,095;32902,594;37,23426
 848,98;12403,384;  228,403;32852,098;37,31944
 849,54;12451,012;  214,633;32873,756;37,46695
 850,10;12422,409;  232,403;32833,183;37,39176
 850,66;12297,883;  212,326;32636,534;37,27325
 851,22;12262,511;  196,864;32571,269;37,26909
 851,78;12381,754;  250,018;32602,235;37,49893
 852,34;12285,151;  232,710;32403,047;37,46446
 852,90;12293,241;  216,556;32242,782;37,70874
 853,46;12260,177;  213,402;32069,671;37,81602
 854,02;12316,497;  231,787;32082,329;37,94193
 854,58;12202,509;  227,171;31738,910;38,00278
 855,14;12189,753;  217,941;31687,953;38,04197
 855,70;12094,611;  177,633;31580,226;37,94903
 856,26;12215,778;  226,171;31551,500;38,27448
 856,82;12162,098;  220,633;31325,773;38,39065
 857,38;12119,880;  247,940;31349,508;38,17151
 857,94;12099,815;  217,786;31077,320;38,50359
 858,50;12141,212;  258,940;31058,594;38,57924
 859,06;12034,379;  215,479;30823,713;38,61347
 859,62;12041,622;  231,709;30848,525;38,57329
 860,18;11994,327;  224,786;30541,876;38,82147
 860,74;11938,186;  197,325;30524,072;38,71454
 861,30;11905,891;  191,171;30301,807;38,90559
 861,86;11948,211;  272,632;30376,235;38,78466
 862,42;11895,531;  219,709;30222,431;38,91588
 862,98;11917,082;  257,247;30116,705;39,04905
 863,54;11847,248;  222,170;29941,901;39,11569
 864,10;11891,645;  223,093;30022,636;39,15682
 864,66;11779,350;  204,016;29791,295;39,12267
 865,22;11775,055;  215,939;29593,491;39,34676
 865,78;11768,991;  222,862;29471,842;39,47532
 866,34;11704,619;  213,170;29417,038;39,34906
 866,90;11742,939;  236,555;29302,158;39,58763
 867,45;11638,875;  230,785;29035,970;39,60429
 868,01;11630,426;  229,324;28878,936;39,79496
 868,57;11545,669;  217,862;28688,363;39,78787
 869,13;11513,912;  205,708;28673,560;39,72272
 869,69;11428,617;  214,400;28441,756;39,72819
 870,25;11387,014;  186,785;28315,337;39,81801
 870,81;11395,104;  220,400;28380,765;39,68238
 871,37;11423,193;  230,862;28330,577;39,83076
 871,93;11373,975;  238,939;28173,081;39,86174
 872,49;11301,372;  262,246;27799,893;40,08740
 873,04;11238,461;  205,477;27732,782;40,08015
 873,60;11190,243;  205,708;27540,440;40,18527
 874,16;11236,871;  232,400;27473,483;40,39660
 874,72;11254,025;  212,938;27433,175;40,56205
 875,28;11226,179;  219,708;27361,713;40,55143
 875,84;11159,102;  230,246;27350,483;40,29779
 876,40;11212,794;  211,631;27344,867;40,54497
 876,95;11262,179;  223,323;27303,098;40,76421
 877,51;11313,256;  246,323;27297,637;40,91089
 878,07;11279,717;  263,400;27292,483;40,75727
 878,63;11335,025;  222,169;27272,867;41,08159
 879,19;11312,717;  240,400;27318,867;40,88975
 879,75;11367,025;  207,554;27394,790;41,04673
 880,30;11408,640;  226,554;27456,252;41,06577
 880,86;11528,333;  267,246;27557,790;41,26369
 881,42;11513,563;  217,938;27581,175;41,28030
 881,98;11627,794;  227,785;27704,867;41,48916
 882,54;11683,563;  216,246;27817,637;41,54616
 883,09;11827,102;  237,400;27976,790;41,78067
 883,65;11808,179;  203,169;28121,944;41,56704
 884,21;12003,025;  251,323;28417,021;41,72345
 884,77;12040,794;  211,631;28439,637;41,90577
 885,32;12132,563;  221,938;28643,483;41,90703
 885,88;12253,410;  263,323;28852,944;41,93860
 886,44;12274,948;  227,015;28875,021;42,05505
 887,00;12352,333;  250,477;28933,944;42,19105
 887,56;12476,948;  225,323;29002,329;42,57436
 888,11;12489,948;  221,785;29072,483;42,52293
 888,67;12656,640;  256,785;29292,867;42,70499
 889,23;12691,563;  226,015;29292,867;42,88579
 889,79;12621,871;  210,323;29163,252;42,86802
 890,34;12711,717;  231,862;29147,252;43,15991
 890,90;12830,256;  299,554;29313,098;43,18915
 891,46;12788,717;  230,477;29165,790;43,40109
 892,01;12854,717;  241,631;29178,713;43,58797
 892,57;12848,102;  246,785;29092,252;43,68561
 893,13;12773,948;  211,400;28971,021;43,68120
 893,69;12738,410;  202,631;28899,713;43,68311
 894,24;12734,563;  230,400;28829,175;43,72272
 894,80;12679,410;  234,169;28582,867;43,90057
 895,36;12596,640;  226,477;28442,175;43,84142
 895,91;12489,794;  225,169;28280,560;43,71575
 896,47;12440,410;  242,708;28191,329;43,64330
 897,03;12378,333;  219,092;27945,252;43,85476
 897,58;12328,717;  244,246;27851,483;43,77284
 898,14;12269,948;  234,708;27640,483;43,91498
 898,70;12208,025;  202,092;27523,637;43,94310
 899,25;12208,563;  230,785;27537,021;43,86463
 899,81;12250,948;  245,477;27311,175;44,35678
 900,37;12106,563;  209,785;27044,790;44,33306
 900,92;12142,948;  231,938;27062,560;44,39334
 901,48;12112,948;  212,477;26888,790;44,61063
 902,03;12031,333;  222,477;26758,098;44,50190
 902,59;12018,333;  225,477;26678,944;44,57962
 903,15;12016,717;  239,477;26485,560;44,87237
 903,70;11913,487;  227,477;26196,021;45,00063
 904,26;11895,179;  227,400;26080,175;45,13163
 904,82;11886,025;  229,938;26143,560;44,98054
 905,37;11714,640;  234,708;26013,175;44,53303
 905,93;11764,179;  210,631;25805,867;45,13945
 906,48;11748,487;  231,708;25697,175;45,22508
 907,04;11724,102;  239,785;25643,637;45,20699
 907,60;11697,333;  240,708;25437,021;45,46945
 908,15;11626,179;  218,554;25329,021;45,42976
 908,71;11649,640;  249,246;25351,021;45,41669
 909,26;11632,487;  223,938;25228,867;45,62520
 909,82;11592,487;  235,169;25071,637;45,72839
 910,37;11594,640;  273,015;25014,175;45,76028
 910,93;11439,256;  216,631;24674,021;45,88644
 911,48;11440,025;  212,785;24616,867;46,00558
 912,04;11431,333;  213,631;24466,637;46,25283
 912,60;11447,025;  231,938;24515,560;46,18375
 913,15;11371,948;  239,092;24347,329;46,17864
 913,71;11298,487;  215,092;24093,252;46,41645
 914,26;11275,717;  190,938;24063,406;46,43332
 914,82;11357,256;  229,785;23958,329;46,89487
 915,37;11194,102;  214,323;23861,329;46,43200
 915,93;11231,563;  270,169;23812,637;46,56009
 916,48;11151,794;  216,938;23582,560;46,79891
 917,04;11217,025;  237,169;23521,021;47,15653
 917,59;11178,563;  257,631;23477,713;47,03227
 918,15;11058,410;  197,323;23245,021;47,12439
 918,70;11042,487;  219,092;23222,175;47,05193
 919,26;11065,640;  236,862;23058,560;47,44949
 919,81;10961,333;  207,862;22928,175;47,32977
 920,37;10973,256;  218,938;22839,483;47,54226
 920,92;10951,102;  261,400;22781,021;47,46839
 921,48;10839,025;  199,785;22525,637;47,65435
 922,03;10871,871;  205,477;22530,098;47,77861
 922,59;10835,640;  225,246;22402,483;47,84363
 923,14;10755,102;  224,785;22233,406;47,84633
 923,69;10789,102;  250,015;22170,252;48,07926
 924,25;10781,487;  245,938;22132,098;48,13795
 924,80;10615,333;  219,862;21961,790;47,81301
 925,36;10636,102;  207,631;21846,406;48,19345
 925,91;10552,102;  224,015;21753,175;47,97255
 926,47;10567,640;  202,323;21673,637;48,27519
 927,02;10573,025;  285,862;21626,944;48,20357
 927,57;10490,256;  214,092;21334,329;48,65553
 928,13;10487,871;  210,092;21322,713;48,68073
 928,68;10397,179;  229,092;21243,560;48,38613
 929,24;10318,179;  191,092;21028,867;48,59965
 929,79;10304,410;  206,323;20950,252;48,67972
 930,34;10288,487;  220,477;20785,021;48,95810
 930,90;10248,871;  214,015;20762,790;48,83433
 931,45;10291,102;  226,554;20754,021;49,02966
 932,01;10242,794;  234,785;20661,098;48,99567
 932,56;10200,179;  246,246;20478,175;49,19913
 933,11;10173,487;  252,169;20502,867;48,99247
 933,67;10116,179;  219,092;20311,867;49,25694
 934,22;10085,410;  216,477;20255,790;49,24786
 934,77;10054,563;  252,708;20143,560;49,27821
 935,33; 9929,333;  227,092;20010,944;49,04121
 935,88; 9920,948;  235,862;19929,021;49,17995
 936,43; 9919,410;  227,862;19856,175;49,37535
 936,99; 9857,640;  232,554;19695,560;49,45324
 937,54; 9801,025;  212,169;19608,867;49,43551
 938,09; 9800,640;  239,554;19555,637;49,49806
 938,65; 9732,025;  232,400;19423,175;49,50100
 939,20; 9684,025;  206,323;19300,175;49,63745
 939,75; 9648,640;  204,323;19170,329;49,79603
 940,31; 9602,256;  211,246;19116,713;49,67351
 940,86; 9603,717;  227,015;19065,944;49,77301
 941,41; 9659,640;  313,400;19135,406;49,65592
 941,96; 9515,794;  210,477;18889,329;49,81739
 942,52; 9482,256;  217,631;18806,790;49,83886
 943,07; 9399,179;  201,785;18710,637;49,69187
 943,62; 9405,487;  212,477;18644,637;49,87484
 944,18; 9366,640;  203,323;18555,406;49,93067
 944,73; 9369,794;  220,477;18409,175;50,30221
 945,28; 9231,025;  191,554;18242,944;50,07632
 945,83; 9313,410;  207,323;18343,175;50,21042
 946,39; 9277,717;  213,246;18264,790;50,21438
 946,94; 9202,794;  245,246;18136,175;50,06754
 947,49; 9152,871;  209,169;18047,329;50,13803
 948,04; 9178,179;  256,554;17943,329;50,44235
 948,59; 9142,102;  240,169;17960,867;50,23466
 949,15; 9073,563;  203,400;17842,867;50,28589
 949,70; 9066,410;  214,092;17716,252;50,57843
 950,25; 9067,563;  239,169;17592,329;50,87485
 950,80; 8972,717;  185,323;17440,483;50,92618
 951,36; 8910,871;  193,015;17370,175;50,75260
 951,91; 8954,948;  233,477;17399,098;50,80778
 952,46; 8792,563;  199,554;17230,098;50,45646
 953,01; 8895,563;  226,631;17255,406;50,90755
 953,56; 8721,333;  195,169;17099,021;50,43918
 954,11; 8808,333;  222,554;17028,406;51,08803
 954,67; 8694,871;  214,862;16967,560;50,61877
 955,22; 8635,871;  200,015;16814,560;50,77392
 955,77; 8687,871;  248,400;16765,560;51,09517
 956,32; 8664,256;  270,400;16704,406;51,07614
 956,87; 8543,102;  207,092;16558,944;50,97899
 957,42; 8508,640;  215,631;16537,944;50,80781
 957,98; 8524,640;  208,554;16381,713;51,41906
 958,53; 8506,102;  245,938;16348,790;51,29628
 959,08; 8437,179;  204,708;16229,175;51,37438
 959,63; 8385,948;  212,246;16089,483;51,48063
 960,18; 8414,487;  223,708;16043,560;51,77532
 960,73; 8364,256;  225,169;16017,560;51,53803
 961,28; 8316,102;  193,554;15881,175;51,77680
 961,83; 8317,794;  243,323;15852,098;51,73033
 962,39; 8277,794;  196,938;15762,329;51,91554
 962,94; 8224,410;  235,400;15630,944;51,89170
 963,49; 8174,640;  215,785;15523,713;51,99172
 964,04; 8178,640;  235,785;15473,329;52,12688
 964,59; 8105,563;  194,015;15376,175;52,11082
 965,14; 8114,256;  239,554;15334,713;52,16707
 965,69; 8084,410;  219,015;15295,098;52,17134
 966,24; 8024,717;  206,631;15172,560;52,23923
 966,79; 7952,256;  224,323;15031,790;52,18943
 967,34; 7913,333;  190,169;14944,867;52,34376
 967,89; 7884,333;  216,400;14881,867;52,28563
 968,44; 7856,794;  218,400;14821,252;52,30755
 968,99; 7845,717;  226,862;14712,790;52,59487
 969,55; 7796,794;  218,554;14667,406;52,44874
 970,10; 7742,871;  226,708;14514,637;52,60499
 970,65; 7714,256;  239,092;14459,329;52,56708
 971,20; 7650,717;  211,631;14306,867;52,77731
 971,75; 7573,333;  197,169;14216,021;52,61603
 972,30; 7569,025;  219,092;14145,175;52,77818
 972,85; 7516,487;  204,554;14088,021;52,66647
 973,40; 7469,256;  203,708;13950,560;52,85245
 973,95; 7462,102;  227,554;13891,406;52,94662
 974,50; 7440,333;  248,323;13904,406;52,66525
 975,05; 7366,487;  211,785;13704,483;53,02647
 975,60; 7399,333;  228,862;13682,175;53,29892
 976,15; 7371,179;  212,477;13600,944;53,46917
 976,70; 7273,025;  226,862;13493,637;53,11135
 977,25; 7268,256;  235,246;13457,867;53,18922
 977,80; 7221,333;  208,554;13293,098;53,59590
 978,35; 7152,871;  234,708;13092,175;53,80658
 978,89; 7101,717;  201,169;13054,560;53,68660
 979,44; 7091,102;  223,862;13040,021;53,58267
 979,99; 6995,025;  212,169;12829,867;53,75668
 980,54; 6954,410;  246,785;12840,637;53,26111
 981,09; 6979,948;  242,938;12647,713;54,30981
 981,64; 6885,871;  228,708;12520,406;54,15984
 982,19; 6876,871;  270,246;12500,713;54,01776
 982,74; 6803,025;  234,477;12373,713;54,11006
 983,29; 6720,410;  200,092;12258,944;54,07080
 983,84; 6694,179;  232,554;12145,329;54,24114
 984,39; 6757,717;  298,862;12130,406;54,59013
 984,94; 6584,102;  205,323;11949,867;54,31270
 985,49; 6619,487;  245,862;11916,483;54,61256
 986,03; 6561,410;  243,015;11837,252;54,49599
 986,58; 6474,333;  282,477;11682,944;54,31230
 987,13; 6381,563;  212,015;11573,252;54,30349
 987,68; 6403,256;  241,554;11430,098;55,07152
 988,23; 6360,410;  243,477;11445,406;54,60607
 988,78; 6257,179;  210,400;11289,560;54,57796
 989,33; 6246,794;  248,477;11125,483;55,14677
 989,88; 6235,563;  258,169;11165,790;54,80016
 990,42; 6135,256;  230,708;10973,713;54,96179
 990,97; 6099,025;  213,092;10828,329;55,44797
 991,52; 6095,025;  241,246;10779,329;55,54880
 992,07; 6070,487;  258,631;10725,790;55,52467
 992,62; 5992,102;  235,554;10580,175;55,64774
 993,17; 5896,871;  240,092;10459,483;55,35339
 993,71; 5913,025;  243,092;10406,483;55,78781
 994,26; 5806,025;  219,092;10208,944;55,92608
 994,81; 5816,333;  253,323;10201,021;55,92258
 995,36; 5739,025;  215,785;10082,483;55,97861
 995,91; 5674,256;  230,246; 9978,713;55,84477
 996,45; 5627,179;  232,631; 9855,867;56,05752
 997,00; 5522,794;  200,708; 9710,098;55,96664
 997,55; 5539,640;  244,938; 9694,021;56,03403
 998,10; 5474,333;  249,323; 9601,713;55,86817
 998,65; 5453,179;  228,323; 9486,098;56,43749
 999,19; 5374,256;  248,246; 9399,483;56,01439
 999,74; 5340,333;  259,708; 9297,560;56,21496
1000,29; 5278,102;  239,246; 9177,790;56,37222
1000,84; 5199,948;  226,938; 9035,790;56,45469
1001,38; 5146,487;  233,169; 8965,175;56,26791
1001,93; 5115,794;  245,554; 8920,790;56,13957
1002,48; 5031,794;  206,400; 8758,098;56,42615
1003,03; 5028,410;  239,938; 8675,252;56,76696
1003,57; 4979,948;  242,554; 8621,483;56,53938
1004,12; 4910,179;  260,631; 8573,406;55,93256
1004,67; 4850,487;  224,246; 8447,790;56,25604
1005,22; 4762,794;  221,400; 8250,406;56,56235
1005,76; 4697,025;  210,554; 8124,329;56,69192
1006,31; 4702,717;  243,938; 8095,790;56,78633
1006,86; 4636,563;  216,246; 7914,713;57,41815
1007,40; 4521,563;  211,246; 7821,021;56,64185
1007,95; 4476,102;  227,708; 7688,483;56,94307
1008,50; 4428,871;  238,323; 7620,637;56,76470
1009,04; 4339,948;  230,246; 7458,483;56,85622
1009,59; 4289,563;  232,015; 7371,252;56,83448
1010,14; 4201,333;  220,169; 7282,713;56,37010
1010,68; 4157,333;  233,708; 7158,560;56,66006
1011,23; 4104,025;  235,092; 7054,790;56,73173
1011,78; 4066,487;  253,246; 6960,713;56,85067
1012,32; 4069,717;  252,400; 6872,252;57,66469
1012,87; 4009,717;  257,246; 6859,790;56,83371
1013,42; 3925,256;  220,169; 6710,021;57,09046
1013,96; 3974,640;  254,708; 6728,944;57,45747
1014,51; 3877,563;  192,938; 6595,790;57,54662
1015,06; 3901,333;  199,938; 6633,406;57,53343
1015,60; 3993,871;  276,477; 6714,790;57,73863
1016,15; 3941,179;  222,631; 6685,406;57,53795
1016,69; 3957,179;  226,400; 6689,867;57,72101
1017,24; 4009,794;  203,554; 6703,637;58,55680
1017,79; 4061,640;  266,938; 6809,637;57,99904
1018,33; 4027,487;  225,323; 6806,406;57,77413
1018,88; 4057,640;  242,323; 6915,021;57,17803
1019,42; 4104,717;  235,708; 6899,560;58,05966
1019,97; 4103,871;  222,015; 6909,098;58,05006
1020,51; 4223,717;  259,400; 7042,944;58,44021
1021,06; 4155,487;  198,631; 6987,560;58,28395
1021,61; 4131,487;  185,938; 6998,406;57,91658
1022,15; 4133,410;  176,862; 6896,175;58,88322
1022,70; 4172,640;  222,323; 6941,560;58,79116
1023,24; 4146,025;  209,169; 6894,560;58,88745
1023,79; 4096,256;  234,246; 6823,175;58,61362
1024,33; 4075,948;  225,554; 6770,098;58,83365
1024,88; 4062,794;  233,477; 6724,021;58,99840
1025,42; 3984,333;  234,400; 6536,021;59,50743
1025,97; 3914,794;  214,400; 6473,713;59,11821
1026,51; 3791,410;  196,400; 6368,867;58,24267
1027,06; 3796,563;  216,631; 6318,252;58,67183
1027,60; 3764,179;  228,631; 6212,713;59,08254
1028,15; 3730,410;  241,785; 6148,329;59,06372
1028,69; 3601,717;  198,708; 5937,483;59,29854
1029,24; 3586,717;  219,323; 5908,329;59,19126
1029,78; 3503,717;  204,708; 5835,560;58,58811
1030,33; 3437,256;  197,323; 5678,790;59,10703
1030,87; 3425,717;  208,862; 5635,637;59,27749
1031,42; 3374,487;  192,862; 5513,867;59,79368
1031,96; 3351,487;  236,785; 5473,098;59,48272
1032,51; 3293,948;  203,938; 5401,867;59,44694
1033,05; 3254,025;  216,400; 5335,790;59,33568
1033,60; 3167,333;  198,938; 5221,406;59,10231
1034,14; 3162,487;  221,400; 5148,098;59,69691
1034,69; 3147,948;  213,785; 5084,867;60,23637
1035,23; 3055,487;  214,708; 5009,944;59,24168
1035,77; 3053,794;  220,092; 4922,944;60,25497
1036,32; 2981,487;  197,477; 4838,790;59,98323
1036,86; 2942,025;  223,169; 4806,021;59,32672
1037,41; 2911,179;  232,400; 4710,483;59,81977
1037,95; 2855,333;  191,092; 4640,175;59,88291
1038,50; 2826,948;  209,323; 4594,790;59,68862
1039,04; 2822,102;  231,246; 4555,713;59,91156
1039,58; 2730,179;  200,477; 4461,252;59,37187
1040,13; 2734,871;  210,246; 4394,790;60,33214
1040,67; 2735,025;  244,323; 4399,637;59,94017
1041,21; 2671,640;  247,554; 4267,867;60,29596
1041,76; 2613,179;  202,554; 4193,175;60,40726
1042,30; 2574,948;  207,631; 4173,713;59,68906
1042,85; 2537,333;  215,323; 4094,175;59,86332
1043,39; 2498,948;  195,323; 3985,944;60,77170
1043,93; 2492,102;  242,015; 3993,637;59,97638
1044,48; 2445,025;  227,015; 3932,483;59,85776
1045,02; 2397,256;  211,785; 3880,021;59,57825
1045,56; 2423,410;  240,708; 3851,021;60,45741
1046,11; 2333,794;  227,554; 3785,406;59,19978
1046,65; 2335,179;  229,477; 3706,406;60,56212
1047,19; 2282,179;  212,938; 3668,637;59,87908
1047,74; 2245,025;  195,862; 3568,944;60,75047
1048,28; 2235,563;  224,400; 3561,252;60,27128
1048,82; 2230,102;  249,938; 3558,790;59,84443
1049,37; 2177,256;  236,400; 3450,867;60,37877
1049,91; 2157,102;  225,092; 3414,560;60,57468
1050,45; 2125,717;  239,169; 3391,637;59,84354
1050,99; 2100,487;  219,246; 3353,483;60,02228
1051,54; 2061,640;  213,169; 3251,175;60,84489
1052,08; 2037,948;  249,938; 3258,098;59,43865
1052,62; 2019,563;  241,323; 3228,790;59,52334
1053,16; 1974,871;  220,554; 3136,867;60,15531
1053,71; 1978,179;  226,092; 3101,252;60,93876
1054,25; 1955,025;  244,169; 3059,867;60,76134
1054,79; 1926,025;  237,246; 3008,252;60,94462
1055,33; 1849,794;  200,092; 2939,637;60,21812
1055,88; 1850,717;  239,400; 2941,098;59,64091
1056,42; 1862,179;  237,477; 2872,252;61,66378
1056,96; 1850,794;  247,015; 2844,483;61,74395
1057,50; 1819,179;  230,477; 2794,098;61,97101
1058,05; 1774,179;  230,015; 2762,252;60,98022
1058,59; 1770,563;  247,938; 2739,252;61,11736
1059,13; 1680,948;  213,708; 2670,175;59,72969
1059,67; 1714,794;  235,015; 2639,175;61,55077
1060,21; 1669,640;  232,092; 2573,098;61,40728
1060,76; 1653,025;  239,554; 2571,329;60,61782
1061,30; 1653,487;  259,400; 2576,329;60,16959
1061,84; 1620,025;  232,938; 2493,406;61,36282
1062,38; 1572,871;  217,477; 2432,329;61,19570
1062,92; 1600,640;  267,708; 2475,637;60,37027
1063,46; 1562,871;  250,323; 2372,560;61,84740
1064,01; 1528,102;  219,169; 2363,944;61,02890
1064,55; 1521,563;  244,477; 2310,790;61,80507
1065,09; 1461,410;  210,400; 2239,329;61,65862
1065,63; 1512,256;  252,554; 2300,790;61,50178
1066,17; 1487,333;  258,323; 2235,637;62,15553
1066,71; 1457,333;  252,015; 2232,252;60,86734
1067,25; 1432,871;  233,169; 2154,790;62,43176
1067,80; 1426,025;  250,554; 2176,867;61,02180
1068,34; 1431,563;  262,323; 2144,560;62,11974
1068,88; 1386,871;  220,246; 2092,483;62,31184
1069,42; 1378,640;  250,246; 2101,252;60,96114
1069,96; 1338,333;  231,092; 2018,713;61,93932
1070,50; 1370,410;  260,092; 2062,713;61,59460
1071,04; 1302,563;  223,169; 1975,252;61,60635
1071,58; 1291,871;  233,092; 1960,560;61,29082
1072,12; 1300,640;  234,554; 1946,560;62,27120
1072,66; 1284,717;  241,785; 1936,021;61,55768
1073,21; 1281,640;  253,246; 1939,098;61,00146
1073,75; 1255,025;  239,862; 1893,790;61,37891
1074,29; 1242,333;  239,708; 1876,637;61,25037
1074,83; 1256,102;  262,092; 1872,329;61,73066
1075,37; 1238,102;  259,631; 1832,483;62,21000
1075,91; 1218,179;  247,631; 1794,790;62,73096
1076,45; 1211,563;  247,785; 1770,790;63,28137
1076,99; 1183,487;  258,938; 1749,483;62,02755
1077,53; 1162,179;  231,323; 1710,790;62,91831
1078,07; 1173,487;  243,477; 1723,560;62,83498
1078,61; 1138,256;  241,400; 1669,637;62,79462
1079,15; 1128,333;  234,246; 1688,867;61,46525
1079,69; 1116,256;  240,785; 1637,944;62,66078
1080,23; 1140,256;  253,323; 1646,867;63,64582
1080,77; 1153,871;  301,938; 1673,175;62,12879
1081,31; 1097,410;  230,092; 1598,175;63,39656
1081,85; 1094,333;  247,323; 1598,560;62,68404
1082,39; 1073,871;  235,631; 1560,329;63,27784
1082,93; 1064,102;  250,554; 1558,867;62,18296
1083,47; 1039,410;  225,938; 1506,867;63,50635
1084,01; 1052,102;  253,938; 1542,560;61,93934
1084,55; 1014,179;  232,554; 1488,713;62,22338
1085,09; 1030,410;  255,938; 1486,175;62,95303
1085,63;  998,871;  252,477; 1455,944;62,02032
1086,17;  992,256;  235,708; 1415,021;64,15157
1086,71;  968,333;  219,246; 1411,175;62,84658
1087,24;  992,487;  262,938; 1429,406;62,54338
1087,78;  974,025;  251,092; 1379,944;64,04141
1088,32;  929,333;  232,554; 1339,021;62,97329
1088,86;  962,948;  253,554; 1374,944;63,26024
1089,40;  924,487;  249,477; 1351,944;61,22718
1089,94;  905,794;  218,092; 1316,560;62,60559
1090,48;  910,025;  249,631; 1314,713;62,00403
1091,02;  907,102;  255,015; 1325,867;60,89418
1091,56;  908,794;  245,400; 1297,560;63,05072
1092,10;  869,102;  220,785; 1261,329;62,30560
1092,63;  903,102;  260,862; 1278,713;63,09762
1093,17;  881,487;  253,246; 1245,252;63,33032
1093,71;  846,871;  226,246; 1209,637;63,11075
1094,25;  881,871;  260,092; 1220,021;64,77343
1094,79;  838,256;  245,631; 1188,944;62,82376
1095,33;  846,179;  252,246; 1185,790;63,62127
1095,87;  830,717;  239,631; 1191,252;62,11364
1096,40;  794,563;  224,862; 1149,944;61,58389
1096,94;  813,640;  245,169; 1150,021;62,82477
1097,48;  807,256;  254,169; 1153,483;61,50097
1098,02;  790,256;  244,477; 1105,483;63,38852
1098,56;  744,871;  217,862; 1080,021;61,12669
1099,10;  760,256;  213,938; 1066,790;64,05770
1099,63;  760,256;  221,323; 1071,175;63,41489
1100,17;  755,948;  239,708; 1075,329;61,77924
1100,71;  776,948;  261,169; 1095,329;61,83215

