
Integration time [ms]: 140,000
Averaging Nr. [scans]: 13
Smoothing Nr. [pixels]: 0
Data measured with spectrometer [name]: 2009305U1
Wave   ;Sample   ;Dark     ;Reference;Reflectance
[nm]   ;[counts] ;[counts] ;[counts] ;[%]

 175,72;  209,869;  185,479;  195,256;249,47325
 176,32;  222,952;  214,863;  213,589; 0,00000
 176,92;  259,928;  238,402;  244,147;374,68007
 177,52;  254,032;  239,171;  255,101;93,28919
 178,12;  239,000;  218,325;  215,567; 0,00000
 178,72;  269,936;  248,709;  238,776; 0,00000
 179,32;  262,549;  248,094;  241,542; 0,00000
 179,92;  258,047;  235,094;  233,146; 0,00000
 180,52;  246,792;  229,480;  243,972;119,46115
 181,12;  264,106;  244,710;  253,779;213,87275
 181,73;  271,949;  269,479;  266,724; 0,00000
 182,33;  361,939;  325,403;  327,235;1994,14202
 182,93;  269,189;  264,325;  263,605; 0,00000
 183,53;  249,455;  235,709;  223,292; 0,00000
 184,13;  236,419;  236,093;  221,711; 0,00000
 184,73;  270,872;  251,478;  257,984;298,09437
 185,33;  274,944;  223,703;  341,427;43,52636
 185,93;  282,704;  228,779;  366,740;39,08709
 186,53;  302,414;  248,010;  359,067;48,98744
 187,13;  322,639;  274,472;  411,352;35,18937
 187,73;  282,774;  238,933;  352,642;38,55568
 188,33;  291,068;  238,856;  363,204;41,98861
 188,93;  285,549;  245,547;  371,130;31,85317
 189,53;  304,087;  249,392;  378,224;42,45479
 190,13;  326,551;  273,390;  396,734;43,09994
 190,73;  271,102;  223,776;  357,743;35,32639
 191,34;  317,066;  262,315;  381,146;46,07484
 191,94;  287,658;  235,624;  353,574;44,11507
 192,54;  314,648;  242,088;  410,064;43,19622
 193,14;  302,408;  255,626;  389,518;34,94003
 193,74;  306,924;  251,934;  380,684;42,71034
 194,34;  306,171;  243,165;  382,870;45,09979
 194,94;  268,027;  214,165;  356,176;37,92816
 195,54;  245,743;  209,241;  329,743;30,29107
 196,14;  264,821;  217,550;  352,435;35,04576
 196,74;  267,826;  216,472;  355,469;36,94584
 197,34;  252,931;  190,627;  347,445;39,73002
 197,94;  284,903;  220,165;  381,711;40,07434
 198,54;  297,187;  222,703;  386,849;45,37671
 199,14;  270,999;  222,781;  387,587;29,25721
 199,74;  261,995;  196,320;  389,699;33,96216
 200,34;  257,278;  191,781;  399,400;31,54671
 200,94;  288,077;  212,858;  445,923;32,27368
 201,54;  287,628;  205,396;  445,617;34,23170
 202,14;  311,822;  216,397;  481,328;36,01875
 202,74;  289,255;  214,089;  491,643;27,08167
 203,34;  274,758;  199,243;  512,548;24,10278
 203,94;  242,573;  171,089;  515,499;20,75549
 204,54;  322,369;  235,472;  607,818;23,33760
 205,14;  296,980;  201,243;  625,848;22,54749
 205,74;  350,996;  225,936;  717,479;25,44244
 206,34;  319,345;  196,166;  752,632;22,13604
 206,94;  344,143;  197,781;  803,742;24,15368
 207,54;  321,451;  181,935;  836,884;21,30186
 208,14;  357,947;  196,166;  931,384;22,00444
 208,74;  372,933;  213,243; 1002,408;20,23531
 209,34;  383,794;  187,704; 1131,861;20,76878
 209,94;  404,706;  214,396; 1205,746;19,19701
 210,54;  418,936;  211,320; 1331,090;18,54100
 211,14;  462,328;  212,550; 1444,831;20,26958
 211,73;  461,393;  205,396; 1570,587;18,75172
 212,33;  499,003;  217,781; 1692,428;19,07050
 212,93;  487,247;  198,550; 1777,647;18,28242
 213,53;  491,083;  179,627; 1863,519;18,49618
 214,13;  512,482;  180,167; 1947,134;18,80710
 214,73;  509,822;  186,704; 1956,174;18,26068
 215,33;  496,552;  160,858; 1986,361;18,38913
 215,93;  543,044;  193,628; 2151,394;17,84768
 216,53;  535,236;  156,858; 2213,685;18,39621
 217,13;  607,761;  203,551; 2475,000;17,79525
 217,73;  634,806;  187,320; 2705,924;17,76721
 218,33;  639,343;  139,013; 2915,972;18,01721
 218,93;  750,151;  178,937; 3285,822;18,38545
 219,53;  816,340;  189,397; 3601,083;18,37632
 220,13;  875,722;  162,628; 3919,631;18,98039
 220,73;  980,930;  187,627; 4345,430;19,07985
 221,32; 1092,933;  177,781; 4807,485;19,76696
 221,92; 1205,330;  169,705; 5226,097;20,48149
 222,52; 1276,623;  170,320; 5728,902;19,90260
 223,12; 1419,920;  178,166; 6210,697;20,58429
 223,72; 1531,686;  189,705; 6609,886;20,90254
 224,32; 1621,327;  185,090; 7038,082;20,95781
 224,92; 1715,290;  176,013; 7429,681;21,22068
 225,52; 1879,601;  194,551; 7914,699;21,82666
 226,12; 1966,823;  189,320; 8156,380;22,31065
 226,72; 2025,240;  153,089; 8544,829;22,30945
 227,31; 2179,511;  151,397; 8937,273;23,08380
 227,91; 2300,370;  173,781; 9431,250;22,97160
 228,51; 2435,366;  178,242; 9836,402;23,37013
 229,11; 2548,269;  175,705;10277,773;23,48593
 229,71; 2658,907;  173,935;10569,057;23,90517
 230,31; 2818,980;  164,936;10971,690;24,55913
 230,91; 2920,097;  158,704;11316,961;24,74753
 231,51; 3045,000;  165,782;11651,599;25,06759
 232,10; 3185,534;  152,244;11950,374;25,70992
 232,70; 3306,018;  182,934;12128,177;26,14500
 233,30; 3425,131;  207,551;12409,368;26,36968
 233,90; 3520,094;  177,705;12542,581;27,03132
 234,50; 3590,674;  175,705;12624,090;27,43303
 235,10; 3683,829;  175,936;12587,604;28,26287
 235,70; 3723,047;  192,012;12589,246;28,48244
 236,29; 3738,998;  189,396;12470,908;28,90200
 236,89; 3741,757;  161,781;12355,974;29,35804
 237,49; 3755,574;  179,012;12190,487;29,77621
 238,09; 3707,499;  177,474;11885,708;30,14994
 238,69; 3682,356;  191,550;11608,161;30,57655
 239,29; 3556,132;  167,243;11324,076;30,37501
 239,89; 3471,101;  185,934;10841,376;30,83089
 240,48; 3356,616;  171,089;10430,461;31,04993
 241,08; 3227,414;  164,550; 9925,725;31,37802
 241,68; 3140,357;  193,704; 9670,747;31,09253
 242,28; 3003,468;  166,243; 9327,389;30,97020
 242,88; 2919,478;  200,551; 8918,630;31,18723
 243,48; 2770,270;  205,858; 8599,299;30,55256
 244,07; 2647,641;  186,320; 8384,233;30,02375
 244,67; 2588,093;  192,705; 8187,529;29,96174
 245,27; 2519,624;  202,012; 8095,587;29,36074
 245,87; 2460,958;  194,474; 7980,459;29,10979
 246,47; 2398,660;  192,781; 7916,835;28,55857
 247,06; 2352,422;  177,243; 7990,336;27,84018
 247,66; 2333,295;  177,474; 8048,290;27,39005
 248,26; 2311,240;  214,473; 8269,036;26,03203
 248,86; 2286,423;  189,012; 8400,903;25,54114
 249,46; 2263,619;  144,551; 8617,949;25,00848
 250,05; 2339,239;  196,243; 9060,084;24,17683
 250,65; 2336,488;  167,858; 9437,415;23,39518
 251,25; 2389,593;  178,320; 9988,396;22,54084
 251,85; 2475,508;  171,858;10651,004;21,98319
 252,44; 2537,434;  140,627;11248,852;21,57687
 253,04; 2680,930;  195,781;12089,583;20,89448
 253,64; 2733,718;  142,242;12890,197;20,32856
 254,24; 2903,704;  194,627;13790,358;19,92594
 254,84; 3042,465;  169,089;14803,334;19,63460
 255,43; 3208,830;  179,396;15864,429;19,31417
 256,03; 3376,323;  190,396;16954,300;19,00468
 256,63; 3545,259;  182,088;18131,034;18,73743
 257,23; 3653,193;  168,319;18989,457;18,51575
 257,82; 3872,491;  182,703;20170,973;18,45976
 258,42; 3973,632;  146,242;20962,190;18,38682
 259,02; 4170,069;  187,627;21970,194;18,28270
 259,62; 4289,159;  170,934;22616,087;18,34795
 260,21; 4391,530;  188,243;23208,899;18,25876
 260,81; 4525,138;  174,935;23814,389;18,40230
 261,41; 4627,776;  165,626;24249,895;18,52724
 262,01; 4789,176;  206,780;24823,697;18,61483
 262,60; 4854,116;  166,088;25190,303;18,73397
 263,20; 4985,455;  174,473;25501,198;18,99567
 263,80; 5088,161;  190,934;25666,154;19,22350
 264,40; 5173,466;  162,011;25910,561;19,46306
 264,99; 5300,941;  187,703;26077,975;19,74965
 265,59; 5373,410;  167,779;26263,178;19,94846
 266,19; 5477,235;  155,703;26358,343;20,30914
 266,78; 5630,976;  211,241;26526,645;20,59530
 267,38; 5675,268;  182,856;26574,819;20,81093
 267,98; 5753,200;  174,933;26521,482;21,17267
 268,58; 5826,308;  183,549;26637,110;21,33081
 269,17; 5887,577;  172,010;26578,078;21,64490
 269,77; 5945,789;  184,627;26360,820;22,00917
 270,37; 5968,696;  154,395;26285,663;22,25036
 270,96; 6020,857;  216,088;26114,464;22,41364
 271,56; 6032,530;  183,011;25847,017;22,79269
 272,16; 6007,651;  177,242;25662,532;22,87755
 272,75; 6134,893;  170,319;25533,878;23,51632
 273,35; 6161,249;  189,934;25558,768;23,53800
 273,95; 6196,505;  176,473;25489,682;23,78218
 274,54; 6268,686;  152,012;25534,849;24,09768
 275,14; 6448,686;  193,550;26005,943;24,23307
 275,74; 6497,245;  158,472;26014,058;24,51607
 276,33; 6664,426;  197,242;26447,525;24,63663
 276,93; 6816,851;  182,858;26857,798;24,86976
 277,53; 7046,918;  180,935;27406,403;25,21897
 278,12; 7253,890;  159,781;27918,410;25,55641
 278,72; 7535,833;  202,935;28556,100;25,86272
 279,32; 7713,595;  173,319;29138,181;26,03249
 279,91; 7986,198;  163,473;29950,309;26,26236
 280,51; 8242,431;  178,243;30461,040;26,62960
 281,11; 8578,392;  177,781;31261,061;27,02614
 281,70; 8752,176;  161,012;31734,847;27,20976
 282,30; 9072,991;  157,704;32402,786;27,64852
 282,90; 9285,013;  169,781;32829,260;27,90991
 283,49; 9606,169;  186,319;33285,956;28,45907
 284,09; 9835,300;  205,704;33770,223;28,68981
 284,69;10112,389;  200,627;34065,929;29,26819
 285,28;10404,534;  185,858;34456,727;29,81738
 285,88;10740,289;  214,319;34623,622;30,59048
 286,47;10803,709;  180,396;34740,226;30,73890
 287,07;11070,137;  205,627;34790,839;31,41374
 287,67;11355,577;  186,089;34931,222;32,14691
 288,26;11542,719;  187,242;34812,403;32,79545
 288,86;11824,586;  168,396;34889,979;33,57044
 289,46;12222,268;  190,242;35024,454;34,54083
 290,05;12538,520;  176,320;35064,746;35,43353
 290,65;12961,877;  171,627;35334,474;36,37433
 291,24;13305,624;  183,858;35382,728;37,27894
 291,84;13722,105;  195,550;35559,419;38,24965
 292,44;14032,486;  176,474;35643,051;39,06780
 293,03;14485,760;  237,166;35704,989;40,17330
 293,63;14802,823;  174,011;35930,474;40,91236
 294,22;15226,565;  201,012;36147,108;41,80024
 294,82;15492,748;  173,780;36066,967;42,67932
 295,41;15547,253;  160,627;35770,539;43,20883
 296,01;15784,303;  215,934;35568,408;44,03757
 296,61;15829,148;  189,242;35304,185;44,53917
 297,20;15841,695;  185,934;34895,865;45,10456
 297,80;15944,975;  192,474;34654,879;45,70923
 298,39;15804,046;  161,011;34265,466;45,86801
 298,99;15868,586;  188,242;34203,943;46,09737
 299,58;15861,174;  194,935;33946,341;46,41655
 300,18;15838,454;  208,474;33765,785;46,57698
 300,78;15693,251;  167,089;33266,446;46,90775
 301,37;15719,827;  187,241;33370,355;46,80871
 301,97;15742,231;  187,473;33330,898;46,93166
 302,56;15716,430;  178,242;33182,632;47,07916
 303,16;15716,170;  163,627;33180,943;47,10420
 303,75;15669,406;  176,243;33163,819;46,96666
 304,35;15824,982;  169,397;33468,616;47,01487
 304,94;15752,052;  182,396;33377,843;46,90299
 305,54;15736,317;  196,473;33270,715;46,98473
 306,13;15609,916;  152,782;33197,809;46,77598
 306,73;15593,047;  160,089;32978,372;47,02549
 307,33;15410,779;  185,243;32896,675;46,54500
 307,92;15444,566;  189,319;32981,544;46,52093
 308,52;15656,543;  165,627;33521,982;46,44067
 309,11;15806,046;  169,780;34004,442;46,21375
 309,71;15967,887;  153,395;34272,898;46,35030
 310,30;15951,401;  163,089;34384,044;46,13639
 310,90;16143,939;  192,935;34746,275;46,16342
 311,49;16217,276;  189,089;34846,296;46,24777
 312,09;16143,106;  158,550;35067,187;45,78969
 312,68;16357,160;  214,704;35454,057;45,80804
 313,28;16337,643;  158,781;35637,775;45,60124
 313,87;16349,254;  146,627;35637,822;45,65253
 314,47;16377,483;  169,934;35921,682;45,33358
 315,06;16308,734;  157,704;36088,779;44,95003
 315,66;16384,799;  163,858;36229,648;44,97597
 316,25;16209,910;  145,550;36163,538;44,60094
 316,85;16105,660;  141,935;36211,499;44,25816
 317,44;16068,076;  162,319;36309,758;44,00244
 318,04;15974,281;  151,627;36276,585;43,79978
 318,63;15915,065;  146,935;36258,419;43,66514
 319,22;15888,785;  172,857;36442,469;43,33084
 319,82;15743,194;  169,473;36451,752;42,92377
 320,41;15552,258;  175,473;36422,431;42,42228
 321,01;15466,754;  184,935;36415,404;42,17947
 321,60;15392,707;  178,704;36469,158;41,92288
 322,20;15158,079;  168,781;36444,181;41,32083
 322,79;15120,753;  208,781;36518,826;41,06845
 323,39;15037,073;  175,397;36502,710;40,91047
 323,98;14899,317;  162,935;36368,639;40,70183
 324,58;14740,792;  174,242;36243,259;40,38521
 325,17;14572,595;  182,165;36086,068;40,08041
 325,76;14349,990;  181,396;35892,001;39,67615
 326,36;14165,315;  155,320;35319,109;39,84211
 326,95;13860,795;  190,012;35150,659;39,10335
 327,55;13602,622;  155,473;34758,932;38,86071
 328,14;13355,213;  178,858;34183,029;38,74923
 328,74;13127,049;  195,627;33785,675;38,49778
 329,33;12874,743;  182,935;33325,981;38,29403
 329,92;12541,021;  162,626;32790,233;37,93841
 330,52;12186,705;  167,935;32078,807;37,66356
 331,11;11958,187;  179,088;31670,667;37,40396
 331,71;11563,660;  175,396;31085,078;36,84368
 332,30;11357,360;  180,627;30673,381;36,65373
 332,89;11059,003;  217,627;30068,310;36,31869
 333,49;10750,198;  191,550;29441,783;36,09765
 334,08;10555,604;  173,242;29024,115;35,98630
 334,68;10232,428;  179,165;28619,410;35,34872
 335,27;10063,222;  193,397;28249,166;35,17931
 335,86; 9882,879;  210,550;28048,513;34,74510
 336,46; 9698,812;  188,012;27722,418;34,54151
 337,05; 9540,688;  163,011;27538,804;34,25536
 337,65; 9360,292;  151,704;27324,227;33,88934
 338,24; 9330,031;  212,550;27404,497;33,53008
 338,83; 9257,680;  199,935;27215,933;33,52734
 339,43; 9101,269;  161,780;27137,636;33,13885
 340,02; 9064,591;  174,550;27034,345;33,09795
 340,61; 8960,562;  156,935;27081,655;32,69719
 341,21; 8905,588;  207,165;27127,136;32,31215
 341,80; 8818,952;  167,858;27089,021;32,13492
 342,40; 8776,276;  173,243;27183,858;31,85056
 342,99; 8828,772;  173,858;27301,771;31,90409
 343,58; 8754,589;  174,550;27407,135;31,50652
 344,18; 8736,520;  180,397;27534,054;31,27963
 344,77; 8800,690;  167,934;27938,512;31,08598
 345,36; 8852,103;  156,012;28227,505;30,97837
 345,96; 8955,703;  186,320;28591,921;30,87202
 346,55; 8927,586;  163,320;28765,731;30,64170
 347,14; 8954,947;  150,858;29104,307;30,40774
 347,74; 9085,029;  142,859;29570,951;30,38651
 348,33; 9158,106;  173,782;30201,656;29,91994
 348,92; 9369,331;  181,705;30830,675;29,97695
 349,52; 9453,561;  156,475;31299,084;29,85327
 350,11; 9499,374;  164,934;31503,823;29,78548
 350,70; 9540,353;  166,627;31565,591;29,85362
 351,29; 9429,940;  162,933;31400,551;29,66618
 351,89; 9432,874;  181,472;31358,164;29,67410
 352,48; 9362,144;  152,781;31379,912;29,49155
 353,07; 9357,332;  170,397;31238,987;29,56985
 353,67; 9340,896;  189,552;31219,948;29,49155
 354,26; 9251,503;  174,397;31035,354;29,41291
 354,85; 9149,792;  171,704;30735,640;29,37478
 355,45; 9116,677;  157,781;30675,316;29,35655
 356,04; 9082,878;  168,320;30625,906;29,26876
 356,63; 9060,154;  194,781;30333,526;29,41520
 357,22; 9004,795;  178,318;30260,522;29,34119
 357,82; 8903,485;  190,780;30082,839;29,14722
 358,41; 8890,074;  188,781;29928,010;29,25864
 359,00; 8825,672;  172,473;29705,068;29,30050
 359,60; 8887,628;  186,243;29656,681;29,52581
 360,19; 8829,651;  184,935;29499,090;29,48990
 360,78; 8795,948;  175,550;29240,517;29,65907
 361,37; 8772,406;  169,473;29133,628;29,70200
 361,97; 8748,392;  174,627;29018,138;29,72511
 362,56; 8670,975;  161,088;28693,973;29,82484
 363,15; 8664,321;  205,396;28486,786;29,90986
 363,74; 8535,190;  166,857;28089,840;29,96934
 364,34; 8520,426;  180,396;27703,756;30,30164
 364,93; 8343,777;  156,626;27300,575;30,16197
 365,52; 8285,725;  151,781;26868,590;30,44504
 366,11; 8247,383;  167,704;26571,115;30,60089
 366,71; 8192,170;  165,550;26184,315;30,84935
 367,30; 8092,374;  174,319;25850,334;30,83833
 367,89; 8071,623;  204,012;25716,866;30,83783
 368,48; 8020,260;  185,396;25321,601;31,16964
 369,07; 7902,892;  179,396;24872,053;31,27851
 369,67; 7861,513;  194,703;24613,370;31,39733
 370,26; 7795,269;  164,319;24353,198;31,54735
 370,85; 7774,861;  175,473;24095,389;31,77013
 371,44; 7767,129;  176,088;23840,471;32,07791
 372,03; 7714,445;  151,780;23549,187;32,32266
 372,63; 7643,887;  144,627;23282,740;32,41085
 373,22; 7618,152;  169,012;22976,843;32,66045
 373,81; 7569,381;  157,011;22684,188;32,90412
 374,40; 7560,616;  164,858;22480,076;33,14222
 374,99; 7502,614;  161,781;22210,782;33,29327
 375,59; 7476,147;  159,781;21936,080;33,59784
 376,18; 7490,933;  191,858;21756,744;33,84704
 376,77; 7494,502;  185,858;21535,420;34,23323
 377,36; 7578,344;  196,781;21526,787;34,60648
 377,95; 7482,086;  179,319;21289,692;34,59326
 378,55; 7462,139;  159,320;21111,250;34,85511
 379,14; 7550,941;  180,627;20965,432;35,46011
 379,73; 7541,079;  179,319;20953,453;35,43715
 380,32; 7642,642;  185,396;20940,031;35,93051
 380,91; 7580,384;  169,473;20815,426;35,89523
 381,50; 7692,279;  185,627;20802,238;36,41070
 382,10; 7653,103;  168,089;20598,415;36,63678
 382,69; 7706,117;  152,319;20565,906;37,00377
 383,28; 7803,301;  193,627;20570,546;37,34458
 383,87; 7764,957;  166,780;20416,760;37,52190
 384,46; 7776,265;  154,857;20365,570;37,70974
 385,05; 7900,568;  189,550;20403,037;38,14789
 385,64; 7919,383;  159,242;20407,576;38,32483
 386,24; 7953,887;  153,780;20326,347;38,66691
 386,83; 8073,001;  195,472;20434,684;38,92211
 387,42; 8167,991;  193,396;20531,183;39,21073
 388,01; 8308,140;  173,318;20707,785;39,61545
 388,60; 8499,460;  174,857;20882,232;40,20115
 389,19; 8669,217;  148,779;21179,223;40,51478
 389,78; 8786,877;  158,933;21399,147;40,62080
 390,37; 9084,347;  218,010;21923,000;40,84930
 390,96; 9161,682;  177,703;21992,095;41,18372
 391,56; 9339,281;  178,471;22222,132;41,55757
 392,15; 9501,083;  166,856;22451,233;41,88687
 392,74; 9634,576;  137,163;22602,095;42,27662
 393,33; 9802,819;  165,086;22937,837;42,32134
 393,92;10123,841;  182,624;23340,175;42,92862
 394,51;10254,614;  154,856;23532,431;43,20276
 395,10;10472,086;  196,161;23799,208;43,53643
 395,69;10571,083;  183,238;23859,141;43,87518
 396,28;10731,185;  179,930;24003,788;44,28861
 396,87;10793,369;  185,698;24106,506;44,34495
 397,46;10947,009;  187,082;24267,319;44,68364
 398,06;11147,882;  196,158;24457,662;45,14033
 398,65;11234,461;  181,311;24429,499;45,58341
 399,24;11363,568;  195,156;24635,459;45,69670
 399,83;11376,002;  159,846;24668,156;45,76470
 400,42;11593,510;  209,151;24840,145;46,21965
 401,01;11683,174;  177,917;24927,239;46,48716
 401,60;11825,089;  200,529;24993,593;46,88634
 402,19;11828,960;  205,911;24794,712;47,26969
 402,78;11885,078;  203,214;24936,973;47,23044
 403,37;11936,923;  195,209;24678,939;47,95721
 403,96;11878,421;  182,204;24613,057;47,87478
 404,55;11884,326;  188,198;24449,022;48,20994
 405,14;11934,589;  192,270;24342,339;48,62230
 405,73;11924,374;  205,956;24282,307;48,67190
 406,32;11966,569;  204,336;24197,053;49,02418
 406,91;11893,851;  198,716;23854,300;49,43921
 407,50;11914,092;  182,637;23730,657;49,81929
 408,09;11819,247;  171,404;23428,345;50,08330
 408,68;11796,216;  198,480;23218,852;50,38031
 409,27;11852,059;  173,712;23079,496;50,98427
 409,86;11808,821;  182,331;22935,458;51,09843
 410,45;11866,152;  212,181;22859,844;51,45772
 411,04;11820,349;  219,645;22790,649;51,39649
 411,63;11733,143;  193,803;22535,929;51,64835
 412,22;11685,326;  196,730;22251,126;52,09209
 412,81;11558,545;  209,578;21999,350;52,08392
 413,40;11475,068;  210,349;21628,426;52,59444
 413,99;11332,972;  241,425;21414,048;52,38627
 414,58;11185,557;  185,964;20959,934;52,94892
 415,17;11080,234;  187,886;20722,461;53,04394
 415,76;11035,131;  191,499;20613,014;53,09906
 416,35;10990,939;  178,731;20458,633;53,31489
 416,94;11051,702;  216,807;20504,127;53,40722
 417,53;11173,147;  182,116;20743,475;53,45479
 418,12;11329,655;  182,963;20812,130;54,03365
 418,71;11582,325;  197,349;21237,931;54,10960
 419,30;11681,832;  192,809;21266,041;54,51951
 419,89;11791,120;  189,579;21507,440;54,42170
 420,48;12027,416;  207,503;21793,397;54,75758
 421,07;12093,803;  208,041;21857,039;54,90213
 421,66;12096,926;  170,888;21773,423;55,20666
 422,25;12175,220;  178,505;21775,810;55,54728
 422,84;12166,332;  227,275;21774,119;55,40977
 423,43;12065,902;  192,813;21469,018;55,80455
 424,02;11994,597;  215,967;21168,507;56,21576
 424,60;11775,021;  189,507;20824,096;56,14608
 425,19;11692,124;  203,045;20477,464;56,66786
 425,78;11611,022;  209,814;20391,473;56,49292
 426,37;11592,452;  207,968;20246,882;56,81188
 426,96;11564,910;  199,045;20218,916;56,77292
 427,55;11488,035;  192,585;19960,493;57,14034
 428,14;11368,093;  191,124;19793,329;57,01894
 428,73;11354,098;  205,354;19583,055;57,53388
 429,32;11313,304;  211,122;19584,749;57,30565
 429,91;11418,201;  233,892;19529,175;57,96395
 430,50;11333,970;  218,662;19366,276;58,05062
 431,08;11239,857;  230,432;19301,206;57,72930
 431,67;11249,271;  264,740;19215,174;57,96454
 432,26;11178,520;  273,971;18971,642;58,32036
 432,85;10967,826;  291,586;18493,128;58,65569
 433,44;10813,938;  295,587;18235,717;58,63029
 434,03;10577,795;  302,357;17860,136;58,52356
 434,62;10355,136;  266,126;17454,038;58,69829
 435,21;10271,805;  289,663;17279,103;58,75498
 435,79;10194,576;  269,126;17147,510;58,80569
 436,38;10142,843;  274,742;17013,446;58,95379
 436,97;10075,753;  269,666;16897,955;58,97231
 437,56; 9927,979;  268,744;16698,406;58,79144
 438,15; 9956,493;  246,897;16649,840;59,19423
 438,74; 9952,150;  260,513;16620,721;59,23908
 439,33; 9978,870;  238,359;16702,690;59,16129
 439,91;10000,040;  210,667;16714,475;59,31584
 440,50;10084,677;  250,052;16805,245;59,40508
 441,09;10140,288;  256,130;16853,992;59,55079
 441,68;10158,448;  238,977;16900,162;59,53641
 442,27;10119,361;  214,130;16875,370;59,45074
 442,86;10150,268;  203,132;16871,062;59,67829
 443,44;10250,972;  209,670;16929,052;60,05786
 444,03;10336,605;  269,670;16947,455;60,36134
 444,62;10178,202;  212,901;16741,408;60,29160
 445,21;10152,640;  230,285;16662,740;60,38267
 445,80;10122,072;  246,133;16529,484;60,65054
 446,39; 9994,826;  270,748;16293,581;60,68888
 446,97; 9784,515;  216,441;16023,894;60,52888
 447,56; 9687,236;  201,980;15930,231;60,30712
 448,15; 9607,116;  210,595;15658,197;60,82834
 448,74; 9470,109;  232,057;15404,330;60,88773
 449,33; 9391,465;  223,134;15306,025;60,78630
 449,91; 9231,824;  209,904;15043,812;60,81958
 450,50; 9128,910;  210,596;14809,734;61,08795
 451,09; 9095,651;  228,212;14737,085;61,11736
 451,68; 9033,727;  245,520;14670,903;60,92183
 452,26; 9001,027;  231,674;14547,251;61,25742
 452,85; 8916,648;  223,059;14474,527;61,00136
 453,44; 8894,526;  233,598;14477,789;60,80322
 454,03; 8908,575;  208,751;14409,440;61,26339
 454,61; 8853,446;  194,368;14394,196;60,98016
 455,20; 8982,475;  242,753;14645,484;60,68100
 455,79; 8965,663;  233,829;14545,669;61,01126
 456,38; 9070,168;  240,753;14664,252;61,21549
 456,97; 9074,932;  215,138;14693,862;61,19182
 457,55; 9071,933;  219,369;14753,117;60,91040
 458,14; 9095,147;  243,907;14678,960;61,31769
 458,73; 9007,930;  227,292;14572,523;61,20945
 459,31; 9078,353;  261,908;14695,757;61,08173
 459,90; 9131,343;  266,062;14768,901;61,12790
 460,49; 9214,498;  291,600;14853,519;61,27556
 461,08; 9187,931;  212,986;14904,789;61,08811
 461,66; 9282,016;  223,370;14996,133;61,31992
 462,25; 9327,172;  218,294;15105,889;61,18435
 462,84; 9350,543;  250,909;15144,195;61,09890
 463,43; 9284,325;  192,910;15112,974;60,93415
 464,01; 9318,309;  227,295;15124,710;61,02410
 464,60; 9314,744;  262,910;15008,810;61,38543
 465,19; 9167,157;  206,372;14735,058;61,67650
 465,77; 9122,534;  231,219;14816,098;60,96255
 466,36; 9097,881;  234,602;14635,482;61,54679
 466,95; 8883,395;  213,910;14334,107;61,39776
 467,53; 8730,186;  225,373;13996,613;61,75778
 468,12; 8547,329;  251,681;13737,703;61,51294
 468,71; 8438,806;  222,372;13525,250;61,76433
 469,29; 8222,495;  218,142;13284,806;61,25781
 469,88; 8061,410;  216,912;13029,244;61,22615
 470,47; 8164,367;  273,451;13158,601;61,24039
 471,06; 8046,800;  229,990;13148,888;60,50679
 471,64; 8127,044;  234,066;13269,622;60,54960
 472,23; 8171,553;  203,529;13264,171;61,00790
 472,81; 8225,145;  211,144;13426,775;60,64032
 473,40; 8304,315;  215,298;13491,086;60,93059
 473,99; 8401,967;  295,299;13668,872;60,61707
 474,57; 8458,805;  215,529;13761,338;60,85481
 475,16; 8561,915;  223,221;14021,827;60,43142
 475,75; 8669,806;  241,222;14083,900;60,88839
 476,33; 8683,048;  252,992;14178,270;60,53779
 476,92; 8653,975;  237,683;14238,856;60,11134
 477,51; 8751,112;  238,069;14284,269;60,60745
 478,09; 8757,262;  239,376;14291,303;60,61721
 478,68; 8707,418;  255,530;14172,497;60,73082
 479,27; 8721,604;  267,145;14274,601;60,35685
 479,85; 8701,850;  240,223;14264,334;60,33628
 480,44; 8745,280;  224,684;14440,310;59,93824
 481,02; 9561,812;  238,685;16174,261;58,50511
 481,61;10794,923;  268,531;18120,700;58,96422
 482,20;11537,211;  251,608;19269,034;59,34348
 482,78;11984,038;  266,069;20038,514;59,26414
 483,37;12253,656;  275,147;20557,589;59,05852
 483,95;12527,888;  289,917;20826,718;59,59045
 484,54;12631,388;  306,300;20939,986;59,73285
 485,13;12553,886;  269,840;20848,071;59,69437
 485,71;12400,807;  258,302;20600,108;59,69236
 486,30;12257,265;  292,225;20289,066;59,83465
 486,88;12012,127;  318,148;19848,199;59,87685
 487,47;11509,297;  301,840;19068,101;59,72131
 488,05;11062,361;  290,302;18135,509;60,36388
 488,64;10238,640;  296,149;16826,665;60,14628
 489,23; 9102,611;  299,533;14648,069;61,35175
 489,81; 7791,972;  292,533;12727,450;60,30952
 490,40; 7371,134;  262,918;12174,203;59,67631
 490,98; 7193,879;  241,687;12001,033;59,12057
 491,57; 7136,861;  267,610;11920,719;58,94780
 492,15; 7059,777;  240,841;11848,427;58,74552
 492,74; 6976,867;  248,302;11756,522;58,46747
 493,32; 6950,930;  269,380;11664,759;58,63385
 493,91; 6867,878;  247,611;11538,005;58,63628
 494,50; 6829,586;  253,920;11551,377;58,20483
 495,08; 6808,252;  237,920;11464,411;58,52525
 495,67; 6816,189;  258,534;11410,599;58,80216
 496,25; 6655,948;  202,535;11338,494;57,95112
 496,84; 6654,797;  218,688;11293,372;58,11551
 497,42; 6647,378;  205,227;11275,329;58,19415
 498,01; 6558,629;  235,380;11233,343;57,49473
 498,59; 6532,375;  206,919;11143,273;57,83880
 499,18; 6506,593;  202,457;11113,159;57,77938
 499,76; 6449,655;  221,611;11029,806;57,62335
 500,35; 6336,617;  213,612;10794,348;57,86936
 500,93; 6275,561;  209,996;10775,504;57,40912
 501,52; 6207,591;  206,535;10692,500;57,22941
 502,10; 6185,437;  218,536;10608,342;57,43034
 502,69; 6080,886;  212,459;10452,275;57,30989
 503,27; 5905,480;  189,766;10305,740;56,50186
 503,86; 5898,175;  203,305;10219,637;56,85584
 504,44; 5824,243;  181,152;10105,382;56,86175
 505,03; 5649,415;  184,305; 9814,353;56,75060
 505,61; 5566,279;  193,151; 9686,655;56,59794
 506,19; 5457,558;  210,152; 9553,006;56,16491
 506,78; 5314,945;  181,152; 9330,300;56,11224
 507,36; 5230,276;  190,305; 9200,216;55,93808
 507,95; 5127,361;  197,383; 9079,567;55,50412
 508,53; 5048,373;  188,998; 8945,710;55,49314
 509,12; 4965,602;  198,845; 8786,400;55,50773
 509,70; 4920,904;  214,230; 8617,135;56,01246
 510,29; 4782,042;  226,922; 8521,180;54,91896
 510,87; 4676,490;  190,614; 8322,616;55,16324
 511,46; 4610,316;  194,614; 8135,117;55,60985
 512,04; 4489,505;  195,922; 8010,260;54,94494
 512,62; 4431,312;  201,076; 7840,767;55,37183
 513,21; 4306,782;  175,845; 7675,851;55,07912
 513,79; 4249,128;  196,231; 7565,749;54,99541
 514,38; 4121,150;  184,385; 7423,098;54,38489
 514,96; 4085,322;  215,769; 7305,234;54,58173
 515,54; 3977,163;  176,693; 7155,496;54,45733
 516,13; 3910,739;  209,616; 7052,501;54,08717
 516,71; 3828,061;  194,693; 6922,234;54,00737
 517,30; 3762,764;  187,078; 6804,706;54,03274
 517,88; 3711,752;  212,770; 6736,359;53,63584
 518,46; 3621,776;  178,540; 6619,488;53,45853
 519,05; 3603,577;  190,156; 6566,140;53,53560
 519,63; 3557,909;  196,309; 6533,682;53,04406
 520,22; 3497,039;  211,541; 6472,086;52,47942
 520,80; 3438,310;  200,541; 6413,441;52,11366
 521,38; 3438,907;  221,156; 6378,678;52,25724
 521,97; 3406,188;  184,464; 6303,939;52,64708
 522,55; 3343,980;  200,772; 6314,105;51,41561
 523,13; 3331,106;  181,541; 6333,124;51,19926
 523,72; 3336,842;  197,540; 6271,219;51,68699
 524,30; 3374,317;  211,542; 6450,215;50,69629
 524,89; 3330,922;  180,772; 6416,601;50,51693
 525,47; 3393,454;  202,696; 6547,297;50,29092
 526,05; 3376,817;  171,619; 6550,887;50,24398
 526,64; 3408,958;  203,773; 6701,691;49,32634
 527,22; 3448,901;  202,157; 6795,446;49,24316
 527,80; 3502,122;  233,234; 6919,050;48,89289
 528,39; 3494,132;  192,081; 7006,777;48,45485
 528,97; 3574,303;  202,388; 7150,926;48,52696
 529,55; 3650,527;  209,926; 7310,064;48,45824
 530,14; 3709,412;  215,081; 7543,808;47,67991
 530,72; 3720,684;  196,927; 7637,114;47,36113
 531,30; 3743,991;  183,004; 7742,240;47,10776
 531,89; 3804,262;  198,389; 7837,915;47,20022
 532,47; 3844,948;  227,620; 7895,267;47,17651
 533,05; 3850,587;  230,157; 7966,554;46,79737
 533,63; 3837,751;  228,312; 8043,921;46,18244
 534,22; 3846,883;  198,004; 8116,293;46,08166
 534,80; 3896,912;  219,774; 8110,030;46,60354
 535,38; 3949,010;  296,004; 8220,505;46,09761
 535,97; 3903,981;  223,697; 8181,626;46,24676
 536,55; 3961,587;  257,313; 8293,586;46,09443
 537,13; 3909,925;  265,312; 8221,060;45,81106
 537,71; 3949,884;  304,389; 8292,475;45,63665
 538,30; 4015,511;  324,928; 8378,768;45,82389
 538,88; 4015,608;  358,005; 8484,878;45,00628
 539,46; 4105,780;  402,313; 8679,350;44,74388
 540,05; 4172,958;  415,236; 8811,236;44,75610
 540,63; 4241,241;  474,313; 9016,258;44,09918
 541,21; 4297,895;  497,313; 9124,994;44,05102
 541,79; 4344,166;  543,852; 9286,054;43,47090
 542,38; 4424,918;  566,313; 9436,804;43,49934
 542,96; 4469,352;  586,621; 9648,923;42,84486
 543,54; 4547,411;  585,544; 9774,071;43,11754
 544,12; 4575,027;  554,544; 9925,738;42,90257
 544,70; 4613,649;  541,852;10034,565;42,89393
 545,29; 4666,394;  552,928;10167,424;42,78400
 545,87; 4632,012;  520,775;10175,823;42,58122
 546,45; 4597,599;  469,543;10213,458;42,36547
 547,03; 4616,399;  460,313;10338,275;42,07433
 547,62; 4629,229;  440,159;10371,653;42,17965
 548,20; 4735,253;  429,621;10649,692;42,12918
 548,78; 4682,865;  392,545;10726,633;41,51619
 549,36; 4702,351;  360,391;10947,316;41,01248
 549,94; 4761,003;  322,929;11006,747;41,54015
 550,53; 4801,874;  324,622;11243,183;41,00588
 551,11; 4834,874;  301,699;11440,296;40,69789
 551,69; 4913,666;  316,314;11775,094;40,12078
 552,27; 4999,103;  258,468;12019,913;40,30657
 552,85; 5080,185;  273,776;12331,800;39,86067
 553,44; 5143,882;  266,084;12661,243;39,35245
 554,02; 5275,283;  283,699;13009,915;39,22284
 554,60; 5320,204;  228,699;13317,373;38,90008
 555,18; 5458,930;  264,391;13670,068;38,74880
 555,76; 5511,762;  237,545;13982,808;38,37116
 556,34; 5653,397;  247,930;14373,251;38,26792
 556,93; 5754,421;  235,545;14761,461;37,99331
 557,51; 5817,584;  214,238;15113,995;37,60696
 558,09; 5959,674;  248,699;15461,243;37,54122
 558,67; 6071,814;  246,931;15807,594;37,43338
 559,25; 6132,475;  245,623;16052,149;37,24318
 559,83; 6192,577;  225,470;16360,625;36,98203
 560,41; 6253,506;  229,007;16748,020;36,47009
 561,00; 6422,235;  232,315;17058,150;36,78819
 561,58; 6453,630;  228,469;17273,626;36,52158
 562,16; 6518,544;  220,930;17603,283;36,22993
 562,74; 6588,338;  205,545;17974,133;35,92178
 563,32; 6722,735;  193,854;18466,437;35,73047
 563,90; 6893,678;  226,931;18797,564;35,89941
 564,48; 6927,230;  234,392;19240,173;35,21475
 565,06; 7137,194;  222,085;19811,180;35,30081
 565,65; 7382,592;  222,470;20536,897;35,24649
 566,23; 7614,290;  270,469;21375,060;34,79727
 566,81; 7823,171;  223,777;21991,961;34,91056
 567,39; 8097,567;  236,700;22887,870;34,70402
 567,97; 8304,322;  238,238;23568,060;34,57413
 568,55; 8608,050;  248,085;24331,907;34,71195
 569,13; 8774,708;  219,931;25091,035;34,39645
 569,71; 9053,009;  221,545;26028,403;34,22138
 570,29; 9357,714;  258,468;26992,073;34,03673
 570,87; 9627,668;  253,161;27666,210;34,19724
 571,45; 9755,436;  249,931;28319,910;33,86360
 572,03; 9840,733;  213,008;28803,973;33,67401
 572,61;10067,650;  209,008;29491,672;33,66716
 573,20;10319,885;  237,392;30208,755;33,64042
 573,78;10452,061;  222,008;30773,869;33,48422
 574,36;10575,228;  242,777;31246,514;33,32647
 574,94;10671,822;  284,316;31638,691;33,12937
 575,52;10673,988;  237,163;31890,279;32,97250
 576,10;10846,821;  301,316;32476,509;32,77526
 576,68;10951,755;  280,393;33059,293;32,55558
 577,26;11192,535;  290,778;33663,469;32,66670
 577,84;11296,390;  299,392;34257,356;32,38415
 578,42;11330,028;  337,470;34447,841;32,22644
 579,00;11238,925;  296,623;34622,839;31,87739
 579,58;11290,759;  321,470;34793,157;31,82116
 580,16;11179,908;  302,470;34834,726;31,49935
 580,74;11193,549;  314,316;34963,385;31,39834
 581,32;11117,086;  297,778;35007,191;31,17111
 581,90;11029,970;  325,624;35003,337;30,86809
 582,48;10986,926;  324,009;35042,081;30,71287
 583,06;10940,888;  329,701;35222,640;30,41070
 583,64;10918,093;  313,931;35325,674;30,28744
 584,22;10746,322;  323,701;35070,002;29,99635
 584,80;10569,600;  335,393;34670,124;29,80716
 585,38;10362,463;  333,007;34418,597;29,42433
 585,96;10256,497;  316,316;34450,724;29,12071
 586,54;10200,504;  330,470;34470,574;28,91038
 587,12;10147,235;  295,086;34696,133;28,63910
 587,70;10135,062;  331,162;34753,613;28,48112
 588,28;10051,085;  318,470;34764,330;28,25482
 588,86; 9924,686;  315,701;34867,916;27,81004
 589,44; 9878,615;  292,163;34889,572;27,70858
 590,02; 9906,485;  309,548;35182,730;27,51953
 590,59; 9830,105;  279,547;35275,416;27,29053
 591,17; 9834,773;  284,241;35504,999;27,11620
 591,75; 9751,954;  279,317;35586,313;26,82935
 592,33; 9774,520;  293,086;35815,051;26,69175
 592,91; 9746,065;  252,779;35952,788;26,59183
 593,49; 9788,178;  259,472;36396,482;26,36827
 594,07; 9799,086;  273,010;36539,862;26,26662
 594,65; 9657,354;  278,932;36458,604;25,92180
 595,23; 9757,280;  267,163;36971,785;25,85537
 595,81; 9697,970;  264,933;37058,179;25,63796
 596,39; 9654,344;  259,009;37120,051;25,48852
 596,97; 9609,798;  260,856;37369,541;25,19341
 597,55; 9522,583;  251,163;37243,691;25,06295
 598,12; 9465,175;  243,626;37252,491;24,91714
 598,70; 9446,055;  238,395;37384,802;24,78749
 599,28; 9429,264;  252,702;37532,327;24,61549
 599,86; 9350,026;  251,087;37624,562;24,34598
 600,44; 9283,866;  218,164;37634,990;24,22894
 601,02; 9289,765;  261,473;37607,537;24,17468
 601,60; 9168,814;  249,010;37692,240;23,82221
 602,18; 9156,340;  227,087;37760,235;23,79031
 602,75; 9018,405;  228,086;37816,367;23,38580
 603,33; 9013,378;  244,856;37813,806;23,33981
 603,91; 8957,261;  228,472;37735,988;23,27211
 604,49; 8936,466;  255,549;37919,537;23,04832
 605,07; 8867,496;  258,087;37892,202;22,87661
 605,65; 8823,020;  263,087;37828,516;22,78673
 606,23; 8811,547;  345,009;38089,766;22,43103
 606,80; 8808,061;  375,394;38053,273;22,38095
 607,38; 8750,345;  420,088;38173,625;22,06484
 607,96; 8725,123;  460,856;38192,653;21,90266
 608,54; 8667,291;  528,318;38274,038;21,56264
 609,12; 8637,424;  537,702;38322,952;21,43620
 609,70; 8602,648;  574,087;38394,109;21,22834
 610,27; 8555,947;  572,471;38341,038;21,13788
 610,85; 8546,234;  583,010;38466,100;21,02052
 611,43; 8434,421;  580,549;38473,524;20,72646
 612,01; 8309,898;  557,010;38197,877;20,59700
 612,59; 8276,476;  540,164;38279,216;20,49949
 613,16; 8144,282;  514,163;38255,019;20,21713
 613,74; 8121,510;  475,933;38005,563;20,37211
 614,32; 8077,361;  446,318;38048,722;20,29403
 614,90; 7945,024;  421,779;37967,523;20,03754
 615,48; 7818,986;  369,471;37642,276;19,98646
 616,05; 7779,340;  333,624;37708,292;19,92182
 616,63; 7673,155;  337,778;37300,539;19,84532
 617,21; 7631,621;  335,855;37342,529;19,71473
 617,79; 7524,032;  325,471;37239,624;19,50082
 618,36; 7503,228;  323,779;37037,877;19,55502
 618,94; 7284,913;  255,394;36831,614;19,21882
 619,52; 7253,617;  285,701;36580,373;19,19818
 620,10; 7162,054;  280,009;36601,034;18,94783
 620,67; 7110,056;  278,547;36485,988;18,86769
 621,25; 7066,565;  311,010;36332,193;18,75440
 621,83; 6979,239;  285,086;36254,353;18,61076
 622,41; 6972,594;  323,471;36257,268;18,50381
 622,98; 6860,833;  299,778;36033,766;18,36082
 623,56; 6836,718;  295,086;35950,300;18,34692
 624,14; 6720,193;  271,164;35808,053;18,14742
 624,72; 6679,704;  283,086;35743,165;18,03893
 625,29; 6576,389;  268,624;35732,595;17,78640
 625,87; 6594,915;  308,010;35786,641;17,72026
 626,45; 6435,630;  265,624;35596,350;17,46357
 627,02; 6434,692;  263,010;35574,791;17,47769
 627,60; 6406,082;  258,626;35490,755;17,44844
 628,18; 6340,654;  244,240;35594,183;17,24590
 628,76; 6277,397;  259,547;35594,347;17,03094
 629,33; 6245,491;  269,317;35636,853;16,89734
 629,91; 6227,284;  256,009;35550,649;16,91836
 630,49; 6227,094;  277,471;35666,134;16,81223
 631,06; 6179,980;  271,317;35835,899;16,61390
 631,64; 6124,656;  264,855;35698,240;16,53751
 632,22; 6075,104;  239,239;35773,392;16,42326
 632,79; 6080,621;  258,470;36012,918;16,28371
 633,37; 6019,162;  234,471;36065,005;16,14458
 633,95; 6022,963;  257,547;36057,791;16,10440
 634,52; 5986,766;  224,702;36271,469;15,98497
 635,10; 5977,954;  223,625;36225,572;15,98338
 635,68; 5966,507;  239,470;36398,362;15,83853
 636,25; 5910,776;  225,931;36481,485;15,67993
 636,83; 5900,628;  212,240;36640,886;15,61515
 637,41; 5861,803;  215,701;36642,490;15,49986
 637,98; 5879,352;  249,162;36838,310;15,38760
 638,56; 5859,884;  245,085;37009,638;15,27232
 639,13; 5816,437;  224,470;37001,112;15,20521
 639,71; 5846,072;  269,394;37268,903;15,07230
 640,29; 5734,777;  200,394;37032,628;15,02592
 640,86; 5733,576;  214,086;37229,056;14,91151
 641,44; 5695,606;  222,317;37145,176;14,82358
 642,02; 5685,712;  238,471;37227,218;14,72675
 642,59; 5679,819;  210,163;37250,569;14,76673
 643,17; 5618,541;  216,624;37360,919;14,54306
 643,74; 5591,109;  213,317;37234,731;14,52617
 644,32; 5592,601;  251,548;37263,082;14,43078
 644,89; 5563,477;  233,086;37256,971;14,39717
 645,47; 5590,506;  262,317;37298,860;14,38630
 646,05; 5554,382;  226,009;37154,057;14,42907
 646,62; 5514,335;  230,855;37231,484;14,27943
 647,20; 5489,519;  238,932;37420,758;14,12138
 647,77; 5395,010;  210,009;37197,954;14,01808
 648,35; 5400,963;  213,086;37083,689;14,07050
 648,92; 5381,378;  241,009;37129,425;13,93491
 649,50; 5320,484;  203,778;37099,929;13,86786
 650,08; 5294,206;  198,317;37006,356;13,84450
 650,65; 5273,082;  201,471;37262,092;13,68464
 651,23; 5358,266;  207,548;38161,904;13,57082
 651,80; 5505,219;  209,779;39002,254;13,65069
 652,38; 5565,018;  215,394;39431,451;13,64141
 652,95; 5577,125;  196,932;39754,571;13,60089
 653,53; 5621,847;  219,702;39976,998;13,58781
 654,10; 5656,107;  243,932;40173,964;13,55415
 654,68; 5586,599;  211,086;40104,007;13,47485
 655,25; 5570,782;  201,702;40172,896;13,43237
 655,83; 5582,504;  206,394;40271,246;13,41852
 656,40; 5573,073;  227,394;40136,674;13,39458
 656,98; 5488,564;  207,471;40074,255;13,24685
 657,55; 5498,517;  212,702;39932,682;13,30770
 658,13; 5395,239;  201,702;39496,571;13,21683
 658,70; 5327,115;  232,086;39202,922;13,07395
 659,28; 5180,760;  222,010;38260,888;13,03601
 659,85; 5043,482;  218,856;37545,777;12,92533
 660,43; 5041,050;  228,856;37693,743;12,84455
 661,00; 5017,619;  211,856;37842,786;12,77078
 661,58; 5049,110;  199,856;38096,290;12,79607
 662,15; 5079,294;  195,548;38274,641;12,82527
 662,73; 5145,631;  255,779;38669,760;12,72936
 663,30; 5135,122;  216,087;38896,649;12,71707
 663,88; 5154,844;  216,779;39132,077;12,68927
 664,45; 5112,182;  207,702;39339,350;12,53328
 665,03; 5193,673;  216,010;39734,162;12,59589
 665,60; 5290,395;  273,933;40079,436;12,60243
 666,17; 5213,348;  218,164;40213,633;12,48938
 666,75; 5262,378;  210,010;40594,291;12,51073
 667,32; 5329,639;  226,548;40927,949;12,53787
 667,90; 5309,053;  213,471;41280,069;12,40809
 668,47; 5352,314;  229,625;41381,727;12,44818
 669,05; 5391,420;  208,087;41795,539;12,46370
 669,62; 5373,296;  185,395;41861,736;12,44807
 670,19; 5380,249;  204,087;41920,856;12,40787
 670,77; 5397,587;  216,241;42237,283;12,33036
 671,34; 5375,309;  204,856;42056,634;12,35420
 671,92; 5422,492;  201,856;42458,907;12,35447
 672,49; 5454,138;  232,010;42329,565;12,40482
 673,06; 5410,552;  171,472;42392,685;12,40864
 673,64; 5404,813;  187,625;42370,959;12,36789
 674,21; 5383,381;  191,087;42297,848;12,33126
 674,79; 5456,872;  211,241;42510,506;12,40123
 675,36; 5474,902;  224,626;42634,395;12,37987
 675,93; 5424,547;  185,395;42558,822;12,36424
 676,51; 5466,808;  231,472;42655,250;12,34057
 677,08; 5508,684;  211,856;42699,062;12,46688
 677,65; 5479,252;  204,933;42771,259;12,39082
 678,23; 5516,512;  209,395;43135,224;12,36346
 678,80; 5542,696;  195,780;43281,960;12,40982
 679,38; 5567,418;  207,933;43472,695;12,38764
 679,95; 5627,294;  217,626;43720,276;12,43526
 680,52; 5676,170;  206,318;43988,780;12,49325
 681,10; 5709,584;  218,472;44433,439;12,41913
 681,67; 5743,076;  219,164;44791,097;12,39325
 682,24; 5729,798;  191,857;44849,909;12,40077
 682,82; 5816,674;  199,626;45425,798;12,41991
 683,39; 5960,550;  238,857;45725,302;12,57890
 683,96; 6009,733;  202,780;45906,730;12,70558
 684,54; 5992,225;  195,395;46337,080;12,56311
 685,11; 6081,716;  224,318;46704,200;12,60201
 685,68; 6118,977;  214,087;47093,627;12,59588
 686,25; 6140,930;  195,857;47210,209;12,64523
 686,83; 6184,113;  202,857;47313,175;12,69628
 687,40; 6269,758;  189,241;47709,294;12,79569
 687,97; 6369,634;  227,241;48147,183;12,81803
 688,55; 6318,356;  191,472;48144,688;12,77680
 689,12; 6347,078;  186,318;48370,731;12,78579
 689,69; 6417,647;  179,780;48471,696;12,91700
 690,26; 6477,600;  210,395;48612,355;12,94825
 690,84; 6493,629;  194,934;48750,474;12,97215
 691,41; 6549,275;  207,703;48757,671;13,06195
 691,98; 6607,997;  211,703;49097,099;13,08426
 692,56; 6615,026;  184,472;49191,141;13,12179
 693,13; 6669,672;  249,549;49151,953;13,12844
 693,70; 6680,163;  224,934;49352,304;13,13978
 694,27; 6738,193;  206,549;49474,193;13,25747
 694,84; 6745,223;  199,780;49548,005;13,26379
 695,42; 6864,175;  233,703;49732,125;13,39532
 695,99; 6870,205;  217,472;49894,398;13,39200
 696,56; 6877,389;  192,396;49755,595;13,48782
 697,13; 6979,726;  209,549;50070,792;13,57804
 697,71; 6932,525;  186,934;50102,065;13,51412
 698,28; 7046,863;  199,242;50599,416;13,58650
 698,85; 7046,893;  166,088;50532,536;13,66149
 699,42; 7134,230;  185,549;50656,348;13,76773
 699,99; 7185,645;  218,626;50743,006;13,78942
 700,57; 7207,674;  206,857;50905,049;13,80881
 701,14; 7279,320;  192,396;51031,092;13,94002
 701,71; 7313,734;  219,319;51123,596;13,93678
 702,28; 7334,995;  203,703;51221,716;13,97799
 702,85; 7405,101;  208,242;51270,682;14,09423
 703,43; 7447,746;  222,396;51474,417;14,09769
 704,00; 7515,392;  230,627;51701,844;14,15308
 704,57; 7564,114;  214,165;51713,964;14,27180
 705,14; 7653,528;  242,242;52035,391;14,30939
 705,71; 7634,327;  248,396;51984,357;14,27620
 706,28; 7661,742;  217,011;51819,246;14,42715
 706,86; 7807,002;  240,627;52259,212;14,54552
 707,43; 7824,570;  266,165;52100,947;14,58172
 708,00; 7826,677;  244,704;52080,529;14,62690
 708,57; 7865,245;  209,319;52025,495;14,77517
 709,14; 7896,737;  242,550;52156,076;14,74411
 709,71; 7963,305;  223,627;52259,580;14,87371
 710,28; 7992,796;  219,550;52565,623;14,84972
 710,86; 8054,211;  227,242;52586,358;14,94863
 711,43; 8139,702;  244,165;52668,709;15,06076
 712,00; 8193,732;  229,935;52860,752;15,13143
 712,57; 8223,685;  239,935;52817,564;15,18469
 713,14; 8250,099;  218,550;53009,683;15,21382
 713,71; 8315,129;  226,012;52880,957;15,36250
 714,28; 8394,236;  224,012;52901,077;15,51002
 714,85; 8395,419;  196,627;52665,427;15,62603
 715,42; 8426,449;  215,627;52958,316;15,56770
 716,00; 8579,402;  254,396;53062,897;15,76452
 716,57; 8617,739;  206,089;53119,248;15,89709
 717,14; 8594,615;  200,165;53041,752;15,88607
 717,71; 8655,645;  192,858;53116,180;15,99066
 718,28; 8796,290;  225,550;53222,453;16,17215
 718,85; 8769,551;  194,935;53175,342;16,18450
 719,42; 8891,350;  223,396;53318,154;16,32544
 719,99; 8868,072;  195,704;53138,120;16,38076
 720,56; 8979,333;  222,089;53585,702;16,41052
 721,13; 9036,439;  202,012;53579,437;16,55087
 721,70; 9080,008;  192,166;53442,864;16,69056
 722,27; 9147,345;  219,166;53494,446;16,75858
 722,84; 9253,298;  247,396;53590,565;16,88295
 723,41; 9244,097;  191,243;53629,608;16,94074
 723,98; 9344,357;  201,243;53860,420;17,03924
 724,55; 9452,541;  238,320;53924,848;17,16301
 725,12; 9428,571;  158,627;53764,737;17,29270
 725,69; 9582,524;  196,781;54047,395;17,42922
 726,27; 9611,323;  207,858;54041,976;17,46748
 726,84; 9732,430;  204,627;54414,634;17,57573
 727,41; 9798,998;  223,550;54344,370;17,69272
 727,98; 9952,643;  224,935;54713,797;17,85265
 728,55;10021,673;  240,166;54539,301;18,01411
 729,12;10032,626;  190,935;54672,806;18,06416
 729,69;10138,117;  232,012;54866,079;18,13174
 730,26;10186,608;  237,320;55057,584;18,14892
 730,82;10229,792;  206,935;54970,703;18,30199
 731,39;10276,745;  210,551;54992,592;18,37499
 731,96;10454,390;  203,397;55354,174;18,58721
 732,53;10573,804;  223,166;55482,293;18,73109
 733,10;10688,065;  231,243;55594,952;18,88750
 733,67;10740,249;  230,397;55848,148;18,89658
 734,24;10735,355;  216,858;55370,191;19,07137
 734,81;10818,462;  229,012;55575,696;19,13294
 735,38;10841,107;  215,320;55266,508;19,30165
 735,95;10860,445;  205,166;55096,550;19,41157
 736,52;10940,859;  235,089;55317,593;19,43588
 737,09;10999,197;  228,397;55024,636;19,65609
 737,66;11093,765;  262,243;55225,910;19,70669
 738,23;11118,948;  206,397;55259,568;19,82184
 738,80;11305,978;  258,243;55575,226;19,97169
 739,37;11347,777;  241,474;55747,961;20,00902
 739,94;11399,422;  218,859;55748,235;20,13450
 740,51;11576,221;  305,474;55838,432;20,29560
 741,07;11539,021;  224,859;55750,474;20,37647
 741,64;11633,820;  240,551;55956,363;20,44890
 742,21;11638,388;  217,166;56078,637;20,44562
 742,78;11771,187;  201,243;55809,218;20,80627
 743,35;11813,217;  212,551;56235,107;20,70713
 743,92;11983,093;  264,013;56241,073;20,93550
 744,49;12009,122;  228,013;56096,501;21,08722
 745,06;12053,921;  210,013;56166,697;21,16621
 745,63;12073,028;  207,090;56169,586;21,20338
 746,19;12160,135;  209,551;56107,168;21,37942
 746,76;12238,703;  230,551;56238,749;21,43999
 747,33;12309,656;  217,859;56054,484;21,65567
 747,90;12468,993;  240,397;56400,219;21,77463
 748,47;12558,254;  222,244;56178,493;22,04581
 749,04;12555,822;  226,782;56162,305;22,04152
 749,61;12695,621;  248,244;56187,732;22,25150
 750,17;12714,651;  238,244;56351,544;22,23431
 750,74;12783,681;  231,859;56209,510;22,42292
 751,31;12789,865;  220,244;56066,092;22,50771
 751,88;12831,510;  201,167;56004,750;22,63357
 752,45;12980,847;  221,013;56076,562;22,84434
 753,02;13063,185;  235,013;55992,758;23,00698
 753,58;13110,753;  207,474;55871,724;23,18055
 754,15;13215,860;  215,936;56093,767;23,26490
 754,72;13216,043;  207,167;55855,195;23,37707
 755,29;13314,304;  199,705;55814,468;23,58115
 755,86;13400,872;  221,167;55911,973;23,66585
 756,42;13531,210;  227,244;55749,323;23,96158
 756,99;13484,239;  196,859;55730,289;23,92681
 757,56;13544,346;  197,398;55635,024;24,07561
 758,13;13549,530;  170,705;55714,529;24,08697
 758,70;13811,329;  187,321;55711,879;24,53690
 759,26;13829,820;  197,090;55807,076;24,51490
 759,83;13889,619;  198,090;55915,426;24,57319
 760,40;13929,034;  184,321;55664,008;24,77432
 760,97;13991,833;  177,936;55709,897;24,87558
 761,53;13959,324;  175,167;55292,862;25,00859
 762,10;14021,738;  171,321;55418,675;25,06983
 762,67;14101,922;  208,706;55261,102;25,23635
 763,24;14087,182;  154,552;55011,376;25,39817
 763,80;14207,058;  190,706;55073,418;25,53874
 764,37;14293,627;  192,859;54953,307;25,74991
 764,94;14283,272;  183,090;54539,889;25,94005
 765,50;14294,917;  178,398;54532,855;25,97123
 766,07;14397,716;  221,936;54550,974;26,09245
 766,64;14402,361;  181,321;54185,171;26,33338
 767,21;14451,083;  189,629;54028,368;26,48921
 767,77;14525,421;  206,475;54018,180;26,60935
 768,34;14518,835;  207,937;53990,223;26,60894
 768,91;14585,096;  214,013;53849,189;26,79414
 769,47;14650,895;  210,937;53857,308;26,91693
 770,04;14732,078;  202,783;53783,428;27,11669
 770,61;14695,185;  202,475;53440,009;27,22273
 771,18;14752,830;  187,629;53325,744;27,41008
 771,74;14856,552;  202,552;53585,249;27,45084
 772,31;14867,121;  210,706;53371,599;27,56992
 772,88;14878,997;  184,167;53081,873;27,77971
 773,44;14906,796;  197,860;52800,070;27,96258
 774,01;14969,979;  210,860;53040,959;27,93695
 774,58;15011,701;  196,168;52673,232;28,23240
 775,14;15108,270;  189,014;52862,506;28,32403
 775,71;15156,299;  190,552;52706,241;28,49767
 776,27;15189,406;  237,937;52611,361;28,54782
 776,84;15320,051;  254,706;52651,711;28,75230
 777,41;15335,927;  217,860;52505,216;28,91343
 777,97;15276,419;  199,629;52204,258;28,99124
 778,54;15340,295;  203,322;52232,301;29,09335
 779,11;15434,171;  232,322;52317,729;29,18639
 779,67;15531,970;  192,398;52169,925;29,51193
 780,24;15502,846;  215,552;51941,430;29,55444
 780,80;15624,798;  230,552;51913,242;29,78608
 781,37;15698,290;  215,399;51974,054;29,91363
 781,94;15619,396;  213,783;51672,020;29,93809
 782,50;15742,503;  219,706;51698,678;30,15367
 783,07;15736,379;  237,014;51642,875;30,15097
 783,63;15742,486;  190,322;51544,302;30,28424
 784,20;15814,362;  235,553;51440,268;30,42456
 784,77;15683,007;  214,322;51211,388;30,33250
 785,33;15717,191;  196,937;51066,508;30,50990
 785,90;15840,913;  212,476;51080,397;30,72356
 786,46;15819,635;  234,553;50914,132;30,75219
 787,03;15866,357;  197,783;50790,867;30,96979
 787,59;15909,694;  208,322;50631,140;31,13942
 788,16;15971,724;  216,706;50664,568;31,23030
 788,73;15992,908;  223,399;50437,380;31,40462
 789,29;15939,861;  205,168;50103,192;31,53370
 789,86;15919,967;  231,245;50010,466;31,51661
 790,42;15959,613;  213,168;49875,124;31,70726
 790,99;15860,489;  228,553;49488,321;31,73368
 791,55;16007,057;  209,168;49533,286;32,02873
 792,12;16059,394;  231,476;49512,406;32,11773
 792,68;16018,193;  208,937;49095,680;32,33853
 793,25;15995,300;  226,937;48901,569;32,39544
 793,81;16081,407;  268,937;48494,612;32,78849
 794,38;15955,898;  196,322;48275,962;32,77807
 794,94;15987,774;  198,476;48162,005;32,91938
 795,51;15924,265;  230,938;47886,279;32,93089
 796,07;15935,834;  218,476;47564,168;33,19702
 796,64;16012,863;  226,399;47808,672;33,17720
 797,20;15912,355;  224,015;47354,022;33,28737
 797,77;15899,000;  205,015;46997,065;33,53985
 798,33;15882,337;  222,245;46805,723;33,61727
 798,90;15963,906;  243,861;46821,074;33,75051
 799,46;15947,012;  220,015;46297,578;34,13157
 800,03;15967,504;  220,861;46275,929;34,19090
 800,59;15892,149;  235,476;45994,818;34,21525
 801,15;15966,563;  230,476;45830,245;34,50914
 801,72;15851,208;  230,322;45478,057;34,52302
 802,28;15863,084;  259,399;45207,562;34,71485
 802,85;15857,653;  228,784;45054,297;34,86601
 803,41;15797,990;  218,092;44878,263;34,88544
 803,98;15851,635;  215,553;44497,306;35,31044
 804,54;15814,281;  229,015;44161,733;35,47530
 805,11;15745,387;  224,784;44049,161;35,41546
 805,67;15859,263;  250,323;43958,357;35,71183
 806,23;15666,678;  230,169;43495,939;35,67834
 806,80;15710,630;  247,476;43403,212;35,83105
 807,36;15765,814;  239,630;43432,563;35,94612
 807,93;15788,459;  233,630;43096,836;36,28947
 808,49;15727,181;  205,169;42759,648;36,47563
 809,05;15683,980;  191,092;42576,537;36,55238
 809,62;15715,087;  232,092;42497,119;36,63311
 810,18;15733,809;  229,553;42374,084;36,78830
 810,74;15677,762;  199,015;42189,589;36,86243
 811,31;15725,484;  195,784;41949,555;37,19353
 811,87;15787,899;  217,554;41813,598;37,43227
 812,44;15860,698;  237,630;41883,564;37,51403
 813,00;15814,035;  181,092;41517,683;37,81866
 813,56;15885,911;  232,861;41640,265;37,80254
 814,13;15924,633;  225,861;41665,077;37,88385
 814,69;15913,355;  229,554;41382,735;38,11079
 815,25;15827,000;  200,400;40900,778;38,39424
 815,82;15884,338;  230,631;40897,513;38,49252
 816,38;15872,522;  252,092;40699,633;38,61898
 816,94;15751,474;  206,477;40456,060;38,62151
 817,51;15758,043;  201,400;40201,795;38,89122
 818,07;15697,919;  203,169;39878,530;39,05383
 818,63;15644,179;  229,708;39651,188;39,10171
 819,20;15714,055;  224,938;39564,231;39,37314
 819,76;15560,700;  207,246;39142,813;39,43298
 820,32;15618,192;  256,169;39117,471;39,53039
 820,89;15518,298;  243,323;38874,668;39,54037
 821,45;15412,944;  212,785;38522,018;39,67753
 822,01;15423,358;  239,015;38368,753;39,82284
 822,57;15389,772;  236,939;38122,411;39,99642
 823,14;15275,495;  209,246;38010,685;39,85628
 823,70;15244,678;  211,477;37733,420;40,06509
 824,26;15250,631;  211,015;37560,001;40,26780
 824,82;15240,353;  228,708;37415,813;40,36788
 825,39;15185,306;  217,708;37118,241;40,56201
 825,95;15231,028;  232,477;37037,976;40,75084
 826,51;15125,827;  230,016;36661,711;40,88696
 827,08;15267,934;  246,554;36741,062;41,16066
 827,64;15145,810;  231,785;36610,028;40,99710
 828,20;15072,070;  206,554;36350,070;41,12914
 828,76;15201,331;  235,708;36260,344;41,54275
 829,32;15142,130;  241,862;36114,079;41,53707
 829,89;15120,852;  203,631;35993,507;41,68000
 830,45;15189,113;  215,785;35818,396;42,05682
 831,01;15167,912;  216,554;35771,515;42,05140
 831,57;15136,711;  223,477;35624,789;42,12622
 832,14;15187,894;  218,477;35559,832;42,35666
 832,70;15193,078;  210,862;35379,029;42,60164
 833,26;15194,800;  184,939;35228,994;42,83140
 833,82;15198,753;  221,016;35148,960;42,88182
 834,38;15277,783;  204,785;35247,772;43,01288
 834,95;15147,428;  209,400;35016,815;42,91622
 835,51;15148,150;  182,401;34926,781;43,07387
 836,07;15188,103;  223,785;35040,593;42,98015
 836,63;15294,979;  231,708;35020,098;43,29971
 837,19;15223,239;  219,401;34756,987;43,44206
 837,75;15151,731;  185,708;34560,029;43,53838
 838,32;15305,453;  231,554;34622,841;43,83057
 838,88;15327,713;  238,016;34675,500;43,81765
 839,44;15322,666;  219,401;34458,235;44,11151
 840,00;15328,465;  222,324;34399,278;44,19979
 840,56;15300,187;  203,862;34165,551;44,45104
 841,12;15327,909;  199,862;34099,825;44,62556
 841,68;15237,093;  190,324;33935,483;44,58942
 842,25;15327,661;  200,708;33989,449;44,76921
 842,81;15224,922;  189,708;33763,569;44,78250
 843,37;15214,567;  186,939;33641,996;44,91885
 843,93;15231,520;  202,709;33671,808;44,90354
 844,49;15276,704;  213,555;33658,697;45,03838
 845,05;15177,964;  179,016;33464,586;45,06141
 845,61;15326,532;  226,785;33565,552;45,29186
 846,17;15177,562;  206,632;33410,441;45,08799
 846,73;15220,592;  211,093;33349,099;45,29391
 847,29;15239,699;  198,555;33127,527;45,67754
 847,86;15270,575;  209,170;33115,185;45,77098
 848,42;15212,066;  195,401;32856,920;45,97663
 848,98;15176,019;  205,632;32878,732;45,81869
 849,54;15273,356;  203,247;32831,467;46,18735
 850,10;15251,848;  216,478;32745,279;46,22171
 850,66;15168,801;  199,478;32511,168;46,32788
 851,22;15176,292;  191,016;32407,211;46,51473
 851,78;15271,937;  239,786;32581,485;46,47916
 852,34;15194,582;  219,324;32270,451;46,72303
 852,90;15182,612;  207,478;32195,570;46,81471
 853,46;15181,180;  188,247;31920,459;47,24831
 854,02;15286,979;  216,401;31898,425;47,56823
 854,58;15138,548;  205,401;31641,468;47,50323
 855,14;15123,577;  193,940;31606,511;47,52759
 855,70;15143,530;  166,555;31445,400;47,88212
 856,26;15240,791;  224,709;31435,827;48,11132
 856,82;15178,359;  194,709;31250,563;48,24743
 857,38;15236,850;  230,017;31264,144;48,35591
 857,94;15141,803;  211,555;31077,110;48,37188
 858,50;15087,756;  213,324;30971,845;48,35874
 859,06;14956,401;  204,786;30794,119;48,22470
 859,62;15045,970;  214,171;30736,161;48,59381
 860,18;14932,384;  208,171;30545,666;48,53470
 860,74;14913,568;  177,325;30374,247;48,80048
 861,30;14859,905;  176,094;30279,598;48,77775
 861,86;15024,473;  231,248;30364,948;49,09197
 862,42;14907,734;  210,709;30084,991;49,19624
 862,98;15000,841;  235,325;30010,880;49,58939
 863,54;14901,409;  206,325;29777,692;49,69362
 864,10;15022,054;  200,632;29861,504;49,96961
 864,66;14876,007;  177,786;29653,008;49,86636
 865,22;14898,960;  209,632;29465,590;50,20970
 865,78;14870,297;  211,786;29383,402;50,24923
 866,34;14872,789;  207,017;29318,368;50,37819
 866,90;14842,280;  226,017;29252,410;50,35508
 867,45;14752,694;  221,786;28986,223;50,51692
 868,01;14773,416;  213,171;28949,573;50,66830
 868,57;14662,292;  209,556;28593,231;50,91919
 869,13;14630,322;  190,248;28553,351;50,91148
 869,69;14640,967;  189,402;28412,317;51,20508
 870,25;14630,766;  194,940;28284,052;51,39296
 870,81;14701,104;  213,786;28210,941;51,74568
 871,37;14643,980;  207,171;28206,676;51,56094
 871,93;14655,471;  226,863;27964,181;52,01876
 872,49;14595,732;  223,094;27773,531;52,16846
 873,04;14492,531;  203,402;27623,651;52,11159
 873,60;14507,561;  197,556;27409,694;52,58685
 874,16;14565,975;  207,017;27378,121;52,84643
 874,72;14548,052;  194,248;27259,121;53,03481
 875,28;14525,283;  209,479;27254,583;52,93307
 875,84;14548,360;  207,787;27177,429;53,17302
 876,40;14568,821;  203,094;27136,583;53,33779
 876,95;14561,206;  220,094;27097,275;53,35795
 877,51;14700,975;  234,633;27088,583;53,87044
 878,07;14723,052;  242,017;27203,967;53,70915
 878,63;14800,821;  203,787;27116,967;54,23749
 879,19;14807,052;  226,171;27111,044;54,23452
 879,75;14914,129;  205,479;27221,660;54,44385
 880,30;14927,590;  204,710;27218,813;54,50072
 880,86;15147,898;  235,787;27351,352;54,99465
 881,42;15187,206;  192,710;27380,737;55,15110
 881,98;15282,513;  231,248;27497,737;55,20060
 882,54;15447,437;  207,787;27677,813;55,47738
 883,09;15558,360;  222,556;27728,890;55,75372
 883,65;15676,437;  189,863;27895,967;55,89589
 884,21;15924,437;  234,479;28106,967;56,29192
 884,77;15974,052;  204,479;28148,198;56,43334
 885,32;16188,744;  208,017;28301,967;56,88316
 885,88;16282,437;  248,633;28505,121;56,74379
 886,44;16402,283;  220,479;28639,429;56,94019
 887,00;16499,052;  237,402;28713,352;57,10661
 887,56;16571,821;  208,633;28820,737;57,18974
 888,11;16639,975;  208,556;28820,660;57,42821
 888,67;16892,206;  237,402;29049,583;57,80473
 889,23;16985,052;  213,633;29155,737;57,94817
 889,79;16951,744;  197,556;28932,198;58,30658
 890,34;17022,129;  210,863;28913,044;58,57139
 890,90;17183,052;  264,710;29075,352;58,72254
 891,46;17136,898;  194,402;28963,967;58,89034
 892,01;17245,129;  233,402;29017,660;59,10080
 892,57;17244,052;  239,633;28921,813;59,28566
 893,13;17129,667;  209,402;28708,275;59,37170
 893,69;17078,360;  199,787;28602,583;59,42574
 894,24;17012,975;  226,479;28535,967;59,29636
 894,80;17010,052;  229,171;28394,275;59,58040
 895,36;16983,206;  217,787;28279,198;59,74546
 895,91;16812,898;  210,402;27991,890;59,76100
 896,47;16889,206;  227,710;27950,352;60,10068
 897,03;16768,052;  203,556;27715,429;60,20854
 897,58;16639,129;  228,556;27554,275;60,05541
 898,14;16567,590;  224,094;27410,737;60,11591
 898,70;16456,744;  184,863;27270,583;60,07550
 899,25;16536,360;  208,248;27270,583;60,33519
 899,81;16451,898;  227,017;27002,352;60,59637
 900,37;16237,590;  183,863;26745,967;60,43846
 900,92;16337,513;  222,402;26673,737;60,92362
 901,48;16210,360;  206,633;26537,429;60,77950
 902,03;16169,975;  206,479;26396,737;60,95204
 902,59;16135,206;  209,402;26331,275;60,96731
 903,15;16142,513;  229,479;26172,352;61,33875
 903,70;16025,667;  215,556;25943,121;61,45203
 904,26;15956,129;  203,402;25826,737;61,47805
 904,82;15986,129;  216,248;25825,506;61,57883
 905,37;15949,437;  219,710;25617,660;61,93306
 905,93;15820,052;  206,633;25516,275;61,68961
 906,48;15811,590;  214,787;25397,813;61,93379
 907,04;15788,898;  231,556;25286,275;62,09346
 907,60;15715,360;  210,094;25075,044;62,35792
 908,15;15636,283;  195,710;24944,660;62,38880
 908,71;15657,667;  240,479;25003,737;62,25832
 909,26;15544,898;  195,556;24794,044;62,39953
 909,82;15451,821;  223,017;24712,506;62,18506
 910,37;15422,744;  248,325;24564,660;62,40422
 910,93;15300,898;  199,094;24395,275;62,41400
 911,48;15203,437;  203,479;24242,583;62,39816
 912,04;15187,437;  207,633;24199,275;62,43759
 912,60;15209,052;  209,710;24197,352;62,52946
 913,15;15107,667;  214,863;23988,813;62,64337
 913,71;15004,206;  200,940;23847,506;62,60218
 914,26;14931,513;  193,479;23809,506;62,40692
 914,82;14951,898;  209,863;23623,352;62,96385
 915,37;14926,052;  200,940;23601,813;62,92548
 915,93;14892,360;  245,940;23394,660;63,27097
 916,48;14874,667;  204,094;23331,275;63,43433
 917,04;14791,667;  227,325;23243,583;63,27850
 917,59;14778,898;  242,248;23199,275;63,32113
 918,15;14603,821;  186,402;22993,352;63,21503
 918,70;14663,206;  202,940;22793,198;64,01107
 919,26;14552,283;  209,787;22780,121;63,54578
 919,81;14445,513;  203,248;22632,583;63,49839
 920,37;14425,360;  201,940;22625,583;63,43046
 920,92;14432,821;  221,633;22410,660;64,04602
 921,48;14261,898;  192,017;22187,121;63,96824
 922,03;14285,437;  211,402;22143,967;64,16958
 922,59;14241,283;  206,094;22018,583;64,34474
 923,14;14147,590;  202,556;21817,813;64,51477
 923,69;14141,821;  222,248;21830,967;64,41647
 924,25;14218,437;  218,017;21819,660;64,81183
 924,80;14059,590;  220,094;21615,275;64,68511
 925,36;14002,744;  208,094;21564,198;64,59348
 925,91;13952,052;  207,248;21413,583;64,81461
 926,47;13874,052;  194,633;21391,813;64,53414
 927,02;13851,052;  244,325;21247,429;64,78436
 927,57;13793,590;  203,479;21142,121;64,90445
 928,13;13731,975;  196,710;21022,044;64,99423
 928,68;13689,129;  199,710;20910,198;65,13327
 929,24;13551,975;  180,171;20668,967;65,26398
 929,79;13535,206;  192,094;20609,813;65,35065
 930,34;13464,744;  203,940;20470,044;65,43342
 930,90;13496,821;  195,710;20437,890;65,70987
 931,45;13485,590;  210,248;20363,121;65,87320
 932,01;13497,590;  220,940;20308,275;66,09463
 932,56;13366,667;  223,094;20166,044;65,90586
 933,11;13422,590;  222,248;20138,506;66,27923
 933,67;13318,129;  207,940;19942,352;66,43314
 934,22;13246,744;  206,940;19883,121;66,27203
 934,77;13188,513;  238,248;19814,660;66,15240
 935,33;13143,129;  229,248;19655,890;66,47510
 935,88;13087,667;  219,094;19545,737;66,58463
 936,43;13074,437;  201,863;19378,275;67,12712
 936,99;13018,052;  213,633;19397,275;66,74655
 937,54;12920,513;  190,248;19157,660;67,11651
 938,09;12916,437;  218,863;19201,429;66,89071
 938,65;12793,437;  204,479;19017,121;66,91754
 939,20;12800,513;  198,787;19036,890;66,89488
 939,75;12747,590;  197,710;18855,583;67,26319
 940,31;12648,744;  190,633;18727,890;67,20580
 940,86;12656,129;  206,556;18781,352;67,02401
 941,41;12685,360;  260,171;18636,506;67,61516
 941,96;12613,898;  202,094;18465,583;67,95966
 942,52;12568,744;  205,094;18439,506;67,80394
 943,07;12515,052;  183,325;18308,429;68,03672
 943,62;12463,821;  204,248;18210,967;68,08332
 944,18;12496,590;  193,402;18141,121;68,55015
 944,73;12457,744;  211,171;18004,121;68,82823
 945,28;12302,898;  171,940;17833,506;68,68563
 945,83;12284,437;  210,171;17933,275;68,12726
 946,39;12336,437;  203,479;17847,198;68,76644
 946,94;12309,513;  221,325;17754,890;68,94313
 947,49;12238,898;  199,402;17674,890;68,89362
 948,04;12232,513;  225,325;17612,275;69,05862
 948,59;12173,975;  225,863;17549,275;68,97089
 949,15;12119,744;  193,710;17439,044;69,15514
 949,70;12099,052;  194,940;17307,737;69,56263
 950,25;12085,129;  221,710;17227,583;69,76072
 950,80;12004,667;  177,094;17162,583;69,63340
 951,36;11976,513;  168,633;17053,813;69,93044
 951,91;12038,744;  216,017;17033,660;70,29955
 952,46;11960,283;  186,710;16851,198;70,65067
 953,01;12046,744;  220,017;16874,429;71,01258
 953,56;11905,513;  190,710;16723,813;70,85665
 954,11;11954,437;  210,017;16666,429;71,36683
 954,67;11925,129;  190,325;16595,660;71,53041
 955,22;11803,437;  176,940;16448,506;71,45284
 955,77;11827,667;  226,710;16405,967;71,70266
 956,32;11798,975;  240,863;16313,429;71,91205
 956,87;11679,667;  192,248;16185,506;71,82664
 957,42;11706,052;  200,710;16126,352;72,24413
 957,98;11651,744;  191,171;16080,890;72,12571
 958,53;11711,052;  219,171;15989,044;72,87237
 959,08;11586,206;  188,710;15911,044;72,49239
 959,63;11498,975;  189,940;15775,121;72,56274
 960,18;11519,206;  210,402;15762,737;72,71451
 960,73;11423,898;  216,325;15724,198;72,27021
 961,28;11369,975;  184,710;15541,352;72,83666
 961,83;11403,052;  214,633;15585,737;72,78865
 962,39;11337,206;  191,171;15382,429;73,37137
 962,94;11296,360;  219,017;15371,967;73,10354
 963,49;11167,206;  210,402;15196,352;73,11384
 964,04;11164,744;  219,940;15130,352;73,40377
 964,59;11081,360;  176,633;15055,660;73,28925
 965,14;11043,975;  215,479;15025,198;73,11750
 965,69;10916,052;  204,787;14934,583;72,71835
 966,24;10867,129;  200,633;14815,352;72,98461
 966,79;10815,667;  218,863;14717,506;73,08825
 967,34;10749,206;  185,094;14596,506;73,30379
 967,89;10774,667;  202,787;14507,044;73,90723
 968,44;10705,437;  198,017;14452,967;73,71067
 968,99;10734,898;  213,863;14338,198;74,48871
 969,55;10653,360;  202,094;14296,506;74,15184
 970,10;10594,052;  205,940;14232,660;74,05945
 970,65;10537,437;  220,094;14076,890;74,45691
 971,20;10414,821;  196,402;14068,506;73,66164
 971,75;10374,513;  188,094;13866,813;74,46910
 972,30;10357,129;  201,787;13871,352;74,29163
 972,85;10261,898;  190,325;13710,044;74,49543
 973,40;10164,129;  195,940;13601,583;74,35816
 973,95;10117,898;  212,633;13533,275;74,36027
 974,50;10134,437;  232,787;13453,737;74,89363
 975,05; 9991,513;  204,248;13365,967;74,36160
 975,60; 9962,513;  219,094;13343,660;74,23803
 976,15; 9915,437;  199,325;13193,429;74,77323
 976,70; 9850,898;  219,094;13112,890;74,70107
 977,25; 9803,129;  205,633;13075,890;74,57113
 977,80; 9711,360;  194,633;12895,121;74,93198
 978,35; 9664,129;  215,171;12774,583;75,23408
 978,89; 9581,744;  183,325;12760,737;74,72459
 979,44; 9582,898;  209,017;12666,967;75,24417
 979,99; 9417,129;  185,325;12527,506;74,79881
 980,54; 9408,744;  232,325;12426,352;75,25339
 981,09; 9345,437;  216,248;12317,967;75,43712
 981,64; 9324,437;  213,094;12252,506;75,67930
 982,19; 9245,283;  238,633;12166,275;75,51073
 982,74; 9162,129;  226,787;12040,660;75,63432
 983,29; 9095,206;  202,556;11867,198;76,23594
 983,84; 8999,590;  215,633;11817,506;75,71155
 984,39; 9036,206;  255,171;11742,737;76,43947
 984,94; 8834,975;  189,402;11602,583;75,75078
 985,49; 8883,360;  232,402;11616,737;75,99002
 986,03; 8809,283;  235,863;11483,737;76,22258
 986,58; 8666,129;  250,248;11272,583;76,35298
 987,13; 8566,975;  217,940;11179,121;76,16912
 987,68; 8534,206;  224,863;11124,813;76,23285
 988,23; 8498,898;  223,402;11041,660;76,49565
 988,78; 8376,513;  194,940;10871,044;76,63445
 989,33; 8368,667;  222,633;10793,429;77,06169
 989,88; 8307,821;  228,940;10750,583;76,78346
 990,42; 8209,437;  211,556;10600,583;76,98393
 990,97; 8120,052;  207,171;10519,275;76,73391
 991,52; 8081,283;  233,710;10440,429;76,88634
 992,07; 8065,360;  236,710;10326,121;77,59273
 992,62; 8006,129;  223,710;10224,352;77,81919
 993,17; 7971,360;  221,017;10097,890;78,46960
 993,71; 7857,206;  223,094;10045,275;77,72318
 994,26; 7767,667;  204,863; 9927,275;77,78732
 994,81; 7746,744;  242,633; 9874,198;77,91165
 995,36; 7660,667;  206,940; 9703,429;78,48930
 995,91; 7584,360;  215,863; 9595,506;78,55839
 996,45; 7577,821;  221,402; 9499,890;79,28467
 997,00; 7443,206;  195,710; 9390,429;78,82238
 997,55; 7403,360;  220,863; 9359,506;78,59478
 998,10; 7310,667;  236,787; 9199,429;78,92629
 998,65; 7274,437;  214,325; 9193,044;78,63161
 999,19; 7233,360;  231,787; 9026,660;79,60971
 999,74; 7163,590;  241,094; 8959,506;79,40089
1000,29; 7096,052;  235,863; 8835,813;79,77010
1000,84; 6961,437;  209,094; 8706,352;79,46496
1001,38; 6974,206;  212,017; 8637,967;80,25432
1001,93; 6885,744;  237,633; 8545,044;80,02627
1002,48; 6748,821;  200,402; 8430,583;79,56592
1003,03; 6727,744;  218,017; 8380,583;79,75099
1003,57; 6638,283;  223,940; 8267,813;79,74196
1004,12; 6622,283;  240,325; 8173,352;80,44795
1004,67; 6534,898;  216,787; 8122,429;79,91902
1005,22; 6405,513;  214,171; 7957,890;79,95308
1005,76; 6318,052;  204,017; 7781,429;80,68764
1006,31; 6263,744;  233,094; 7764,890;80,06921
1006,86; 6183,283;  211,094; 7661,967;80,15421
1007,40; 6077,206;  198,863; 7516,121;80,33532
1007,95; 6025,052;  215,556; 7444,506;80,36432
1008,50; 5916,975;  217,940; 7290,737;80,57683
1009,04; 5828,129;  215,325; 7252,044;79,76450
1009,59; 5760,437;  221,094; 7065,506;80,93234
1010,14; 5639,975;  215,171; 6978,121;80,21357
1010,68; 5608,667;  210,402; 6885,352;80,87350
1011,23; 5491,590;  215,633; 6783,583;80,32883
1011,78; 5487,283;  230,556; 6716,813;81,04407
1012,32; 5389,513;  227,633; 6596,275;81,05151
1012,87; 5385,667;  239,248; 6569,044;81,30466
1013,42; 5258,206;  200,863; 6439,352;81,06679
1013,96; 5307,283;  236,479; 6478,429;81,23750
1014,51; 5244,667;  183,248; 6356,044;81,99557
1015,06; 5263,744;  194,248; 6373,660;82,03849
1015,60; 5369,975;  248,863; 6441,660;82,69466
1016,15; 5305,975;  200,479; 6417,044;82,12728
1016,69; 5368,129;  215,171; 6450,737;82,63818
1017,24; 5422,975;  191,248; 6452,506;83,55713
1017,79; 5552,129;  244,710; 6527,890;84,47026
1018,33; 5491,667;  206,556; 6545,967;83,36912
1018,88; 5601,975;  222,710; 6613,737;84,16903
1019,42; 5653,821;  217,402; 6592,813;85,27166
1019,97; 5633,821;  207,787; 6645,583;84,28404
1020,51; 5706,821;  221,248; 6675,352;84,99357
1021,06; 5730,206;  195,787; 6637,275;85,91833
1021,61; 5704,360;  180,556; 6637,429;85,54921
1022,15; 5668,744;  178,863; 6638,121;84,99244
1022,70; 5673,052;  216,094; 6619,583;85,21851
1023,24; 5678,898;  191,710; 6585,583;85,81948
1023,79; 5638,129;  213,017; 6536,813;85,78884
1024,33; 5615,206;  211,325; 6439,660;86,76285
1024,88; 5529,513;  218,325; 6365,737;86,39715
1025,42; 5399,590;  213,940; 6206,352;86,53695
1025,97; 5361,821;  197,248; 6175,967;86,38260
1026,51; 5260,898;  171,940; 6032,967;86,82707
1027,06; 5226,821;  199,633; 6030,737;86,21332
1027,60; 5106,744;  203,248; 5913,660;85,86940
1028,15; 5061,513;  220,094; 5816,813;86,50459
1028,69; 4927,206;  181,633; 5645,967;86,84631
1029,24; 4898,283;  202,325; 5606,352;86,89738
1029,78; 4801,283;  189,710; 5507,121;86,72590
1030,33; 4701,744;  174,402; 5402,121;86,60263
1030,87; 4656,898;  197,402; 5345,813;86,61887
1031,42; 4549,744;  183,248; 5266,275;85,90346
1031,96; 4539,283;  213,940; 5201,121;86,72921
1032,51; 4439,360;  191,094; 5094,967;86,63082
1033,05; 4414,744;  208,940; 5082,429;86,29966
1033,60; 4314,129;  174,094; 4932,121;87,01158
1034,14; 4260,590;  202,787; 4839,198;87,52036
1034,69; 4203,052;  199,633; 4803,506;86,95764
1035,23; 4160,129;  203,248; 4736,429;87,28707
1035,77; 4124,052;  198,248; 4712,044;86,97344
1036,32; 4040,206;  184,248; 4588,660;87,54762
1036,86; 3962,513;  201,325; 4551,044;86,46968
1037,41; 3943,667;  211,787; 4464,275;87,75758
1037,95; 3905,437;  181,402; 4387,813;88,53234
1038,50; 3836,360;  196,787; 4359,352;87,43582
1039,04; 3799,744;  211,479; 4286,506;88,05501
1039,58; 3746,052;  177,325; 4229,198;88,07598
1040,13; 3704,360;  201,940; 4152,429;88,65788
1040,67; 3679,513;  231,479; 4135,506;88,31995
1041,21; 3631,898;  230,248; 4055,275;88,93140
1041,76; 3533,052;  186,940; 3982,890;88,14952
1042,30; 3493,975;  199,171; 3926,121;88,40483
1042,85; 3446,667;  201,787; 3836,967;89,26326
1043,39; 3370,975;  190,863; 3820,352;87,61873
1043,93; 3342,052;  220,710; 3775,583;87,80461
1044,48; 3291,283;  206,556; 3680,660;88,79202
1045,02; 3238,898;  199,633; 3651,967;88,03508
1045,56; 3233,360;  225,171; 3618,813;88,64188
1046,11; 3187,590;  209,633; 3548,506;89,19050
1046,65; 3172,052;  216,787; 3522,890;89,38816
1047,19; 3076,360;  192,325; 3449,660;88,53971
1047,74; 3019,360;  179,556; 3397,121;88,25940
1048,28; 3023,052;  207,171; 3367,429;89,10288
1048,82; 2980,129;  215,556; 3326,890;88,85489
1049,37; 2925,513;  213,171; 3282,660;88,36464
1049,91; 2881,437;  214,171; 3209,737;89,04047
1050,45; 2869,437;  218,633; 3190,583;89,19409
1050,99; 2819,206;  208,863; 3146,506;88,85841
1051,54; 2764,513;  201,402; 3081,198;89,00323
1052,08; 2764,513;  221,710; 3041,813;90,16703
1052,62; 2702,590;  219,633; 2988,967;89,65900
1053,16; 2663,129;  197,171; 2941,737;89,84875
1053,71; 2636,898;  208,787; 2931,660;89,17461
1054,25; 2573,898;  212,402; 2884,737;88,36828
1054,79; 2554,821;  206,402; 2830,737;89,48627
1055,33; 2481,513;  182,940; 2764,506;89,03796
1055,88; 2473,513;  217,325; 2750,198;89,07625
1056,42; 2466,513;  223,171; 2709,813;90,21572
1056,96; 2433,206;  216,094; 2692,352;89,53477
1057,50; 2372,744;  221,787; 2617,198;89,79491
1058,05; 2358,513;  209,633; 2604,890;89,71397
1058,59; 2336,590;  225,710; 2565,506;90,21644
1059,13; 2261,667;  195,094; 2498,352;89,72392
1059,67; 2263,821;  218,787; 2483,044;90,31810
1060,21; 2237,513;  206,633; 2443,429;90,79418
1060,76; 2192,590;  227,017; 2397,506;90,55902
1061,30; 2185,283;  234,787; 2387,198;90,61911
1061,84; 2133,821;  216,325; 2339,198;90,32552
1062,38; 2090,129;  198,248; 2289,044;90,48614
1062,92; 2108,052;  247,171; 2322,275;89,67651
1063,46; 2082,206;  228,556; 2237,583;92,26606
1064,01; 2010,667;  213,325; 2211,044;89,96972
1064,55; 1990,821;  219,633; 2195,352;89,64778
1065,09; 1940,052;  183,863; 2112,813;91,04375
1065,63; 1990,590;  238,248; 2152,737;91,53058
1066,17; 1937,975;  239,479; 2103,737;91,10844
1066,71; 1912,975;  233,171; 2065,275;91,68715
1067,25; 1878,513;  211,479; 2028,352;91,75295
1067,80; 1880,437;  229,633; 2043,275;91,02147
1068,34; 1860,206;  245,940; 2019,813;91,00230
1068,88; 1792,513;  216,325; 1951,044;90,86130
1069,42; 1825,129;  244,863; 1978,660;91,14482
1069,96; 1763,283;  210,863; 1900,583;91,87439
1070,50; 1789,590;  247,556; 1924,506;91,95472
1071,04; 1713,129;  206,479; 1880,967;89,97673
1071,58; 1711,360;  222,017; 1857,044;91,08977
1072,12; 1729,744;  209,017; 1830,967;93,75917
1072,66; 1670,667;  208,479; 1832,967;90,00916
1073,21; 1705,052;  233,325; 1825,813;92,41680
1073,75; 1661,590;  226,863; 1769,737;92,99060
1074,29; 1647,129;  215,479; 1754,429;93,02771
1074,83; 1637,283;  240,940; 1737,813;93,28395
1075,37; 1617,206;  230,325; 1721,737;92,99115
1075,91; 1571,360;  227,787; 1700,583;91,22600
1076,45; 1574,975;  222,710; 1648,737;94,82748
1076,99; 1548,206;  240,940; 1644,121;93,16443
1077,53; 1518,437;  207,940; 1628,429;92,25673
1078,07; 1520,898;  220,556; 1626,506;92,48852
1078,61; 1487,744;  224,787; 1581,813;93,06799
1079,15; 1473,052;  214,710; 1570,044;92,84366
1079,69; 1464,206;  220,094; 1539,813;94,27093
1080,23; 1441,590;  236,094; 1549,275;91,79971
1080,77; 1471,129;  252,171; 1544,967;94,28847
1081,31; 1398,129;  215,325; 1492,737;92,59380
1081,85; 1388,052;  233,171; 1495,506;91,48769
1082,39; 1379,129;  213,325; 1457,275;93,71790
1082,93; 1388,975;  225,094; 1455,967;94,55733
1083,47; 1322,437;  210,940; 1399,813;93,49157
1084,01; 1367,898;  234,479; 1432,429;94,61323
1084,55; 1309,590;  219,171; 1379,044;94,01194
1085,09; 1322,821;  233,402; 1387,813;94,37009
1085,63; 1270,513;  218,248; 1364,121;91,83088
1086,17; 1260,975;  216,479; 1355,275;91,71933
1086,71; 1261,052;  216,787; 1319,506;94,69912
1087,24; 1276,283;  247,863; 1344,890;93,74603
1087,78; 1263,206;  231,325; 1316,121;95,12209
1088,32; 1201,898;  207,710; 1275,813;93,07976
1088,86; 1225,821;  242,402; 1294,352;93,48536
1089,40; 1199,129;  232,710; 1262,890;93,81065
1089,94; 1165,975;  196,556; 1243,121;92,62864
1090,48; 1190,052;  229,325; 1235,352;95,49714
1091,02; 1171,590;  232,710; 1212,352;95,83914
1091,56; 1160,898;  229,940; 1211,737;94,82189
1092,10; 1104,975;  213,248; 1173,121;92,90050
1092,63; 1138,744;  241,863; 1199,660;93,64005
1093,17; 1121,360;  234,710; 1157,813;96,05095
1093,71; 1086,975;  210,248; 1145,275;93,76489
1094,25; 1109,129;  242,171; 1160,583;94,39752
1094,79; 1060,590;  231,556; 1116,121;93,72225
1095,33; 1075,360;  219,094; 1106,275;96,51532
1095,87; 1042,821;  221,402; 1097,275;93,78291
1096,40; 1040,667;  211,402; 1064,890;97,16187
1096,94; 1047,667;  220,710; 1059,506;98,58864
1097,48; 1033,283;  232,171; 1075,813;94,95867
1098,02; 1014,052;  232,017; 1032,506;97,69468
1098,56;  969,052;  206,094; 1007,967;95,14694
1099,10;  979,052;  206,633;  993,506;98,16313
1099,63;  962,898;  202,787;  988,967;96,68407
1100,17;  978,437;  222,863;  985,506;99,07306
1100,71;  977,744;  232,940;  991,737;98,15599

