
Integration time [ms]: 140,000
Averaging Nr. [scans]: 13
Smoothing Nr. [pixels]: 0
Data measured with spectrometer [name]: 2009305U1
Wave   ;Sample   ;Dark     ;Reference;Reflectance
[nm]   ;[counts] ;[counts] ;[counts] ;[%]

 175,72;  220,439;  202,783;  223,076;87,00248
 176,32;  243,876;  235,325;  233,183; 0,00000
 176,92;  265,347;  268,169;  269,200;-273,48179
 177,52;  270,005;  268,091;  262,076; 0,00000
 178,12;  250,905;  257,324;  243,700; 0,00000
 178,72;  267,979;  265,095;  258,217; 0,00000
 179,32;  257,244;  268,863;  252,136; 0,00000
 179,92;  259,008;  265,631;  267,970;-283,22310
 180,52;  253,174;  242,858;  269,559;38,63449
 181,12;  262,955;  264,246;  270,140;-21,90290
 181,73;  291,062;  278,015;  276,393; 0,00000
 182,33;  386,843;  376,706;  385,901;110,24085
 182,93;  288,477;  282,630;  284,119;392,59703
 183,53;  245,727;  252,787;  239,042; 0,00000
 184,13;  245,544;  254,095;  245,230; 0,00000
 184,73;  281,515;  287,018;  290,658;-151,24322
 185,33;  284,923;  245,652;  366,512;32,49320
 185,93;  287,352;  240,884;  362,674;38,15402
 186,53;  307,254;  262,499;  382,538;37,28374
 187,13;  327,090;  282,650;  413,897;33,85970
 187,73;  289,679;  248,500;  374,807;32,60289
 188,33;  299,635;  249,501;  377,832;39,06585
 188,93;  306,608;  266,120;  368,764;39,44460
 189,53;  305,947;  262,277;  393,555;33,26518
 190,13;  347,520;  296,435;  419,072;41,65553
 190,73;  284,525;  227,586;  359,537;43,15138
 191,34;  327,157;  271,352;  391,243;46,54664
 191,94;  294,287;  246,733;  373,358;37,55484
 192,54;  309,425;  264,572;  390,298;35,67572
 193,14;  322,588;  262,112;  410,063;40,87541
 193,74;  321,633;  267,728;  401,768;40,21566
 194,34;  300,802;  265,958;  394,183;27,17407
 194,94;  274,137;  225,420;  368,414;34,06927
 195,54;  254,858;  199,036;  342,674;38,86290
 196,14;  282,521;  234,957;  373,055;34,44215
 196,74;  288,183;  238,575;  362,324;40,08724
 197,34;  260,392;  200,263;  355,217;38,80430
 197,94;  282,036;  232,342;  391,563;31,21015
 198,54;  301,581;  239,265;  407,700;36,99726
 199,14;  276,098;  217,032;  395,974;33,00843
 199,74;  259,164;  208,186;  379,854;29,69588
 200,34;  264,782;  205,108;  400,093;30,60438
 200,94;  290,367;  241,418;  444,773;24,07072
 201,54;  289,792;  224,801;  446,157;29,36006
 202,14;  326,530;  252,185;  507,021;29,17386
 202,74;  298,674;  220,186;  489,414;29,15304
 203,34;  290,688;  206,876;  509,469;27,69794
 203,94;  265,939;  177,569;  523,345;25,55691
 204,54;  333,471;  251,804;  597,516;23,62297
 205,14;  309,850;  210,570;  593,619;25,91839
 205,74;  367,940;  248,030;  688,863;27,20083
 206,34;  331,370;  218,877;  712,170;22,80455
 206,94;  359,532;  224,493;  773,666;24,58952
 207,54;  342,726;  194,262;  814,576;23,93376
 208,14;  367,328;  212,338;  885,999;23,00707
 208,74;  400,129;  216,647;  970,102;24,35211
 209,34;  404,253;  210,032; 1064,247;22,73681
 209,94;  429,565;  223,416; 1142,978;22,41817
 210,54;  436,029;  216,877; 1246,089;21,29324
 211,14;  471,740;  209,955; 1381,448;22,34630
 211,73;  491,279;  219,109; 1508,743;21,10441
 212,33;  521,839;  231,956; 1610,123;21,03393
 212,93;  544,381;  216,109; 1698,572;22,14372
 213,53;  525,350;  181,647; 1761,367;21,75717
 214,13;  574,053;  222,952; 1870,209;21,31427
 214,73;  546,992;  185,954; 1909,790;20,94386
 215,33;  559,488;  179,186; 1934,593;21,66464
 215,93;  614,466;  211,184; 2074,162;21,64720
 216,53;  599,232;  162,801; 2134,072;22,13956
 217,13;  695,694;  225,953; 2347,307;22,14345
 217,73;  722,599;  204,338; 2559,692;22,00355
 218,33;  767,099;  161,336; 2756,969;23,33778
 218,93;  894,298;  202,873; 3086,277;23,97946
 219,53;  975,012;  209,336; 3414,311;23,89022
 220,13; 1037,237;  170,028; 3703,166;24,54499
 220,73; 1164,390;  187,878; 4085,892;25,05153
 221,32; 1301,206;  195,109; 4505,948;25,65852
 221,92; 1437,944;  192,721; 5000,632;25,89946
 222,52; 1542,089;  178,184; 5377,901;26,23038
 223,12; 1696,519;  189,030; 5845,465;26,65087
 223,72; 1807,893;  197,260; 6327,192;26,27489
 224,32; 1948,279;  209,106; 6727,234;26,68209
 224,92; 2033,938;  182,568; 7030,294;27,03628
 225,52; 2162,752;  212,723; 7406,315;27,10786
 226,12; 2268,381;  189,953; 7683,610;27,73582
 226,72; 2366,055;  171,723; 8090,059;27,71203
 227,31; 2470,176;  166,338; 8448,196;27,81788
 227,91; 2637,711;  195,185; 8938,251;27,93672
 228,51; 2739,544;  182,417; 9244,174;28,21889
 229,11; 2905,411;  189,108; 9710,850;28,52738
 229,71; 3018,743;  184,032; 9960,751;28,99450
 230,31; 3116,778;  160,260;10437,610;28,76732
 230,91; 3214,082;  168,495;10697,503;28,92567
 231,51; 3320,489;  183,415;11064,521;28,83047
 232,10; 3435,210;  172,875;11342,525;29,20713
 232,70; 3541,802;  198,958;11545,952;29,46017
 233,30; 3626,191;  214,492;11780,828;29,49680
 233,90; 3697,773;  192,799;11954,734;29,79929
 234,50; 3746,319;  186,799;12056,551;29,98816
 235,10; 3705,400;  175,260;12065,525;29,68933
 235,70; 3748,782;  208,724;12036,862;29,92913
 236,29; 3719,057;  203,417;12020,602;29,75024
 236,89; 3673,946;  168,495;11895,824;29,89130
 237,49; 3636,210;  201,338;11816,486;29,57235
 238,09; 3522,755;  181,339;11438,324;29,68305
 238,69; 3438,895;  224,957;11167,550;29,37090
 239,29; 3271,808;  186,185;10841,999;28,95718
 239,89; 3188,671;  196,802;10545,226;28,91135
 240,48; 2971,568;  176,492;10114,692;28,12457
 241,08; 2842,576;  177,185; 9764,264;27,80190
 241,68; 2724,212;  213,415; 9396,209;27,34240
 242,28; 2554,085;  178,723; 8995,542;26,94126
 242,88; 2478,581;  219,721; 8679,166;26,70222
 243,48; 2315,298;  225,954; 8415,452;25,51248
 244,07; 2183,447;  209,339; 8129,234;24,92594
 244,67; 2103,384;  207,338; 7988,298;24,36776
 245,27; 1998,202;  208,109; 7823,974;23,50479
 245,87; 1924,557;  210,260; 7761,226;22,70301
 246,47; 1871,158;  196,109; 7668,914;22,41527
 247,06; 1795,560;  181,416; 7757,721;21,30517
 247,66; 1764,756;  185,646; 7774,213;20,80907
 248,26; 1764,166;  215,955; 7894,268;20,16342
 248,86; 1753,214;  207,725; 8133,290;19,50005
 249,46; 1736,577;  159,953; 8304,717;19,35751
 250,05; 1825,204;  204,262; 8681,392;19,12136
 250,65; 1828,870;  184,263; 9076,110;18,49567
 251,25; 1899,767;  178,031; 9575,474;18,32132
 251,85; 1986,391;  186,264;10085,469;18,18456
 252,44; 2079,865;  157,878;10815,700;18,03358
 253,04; 2218,159;  208,493;11581,892;17,66988
 253,64; 2359,214;  152,725;12308,123;18,15234
 254,24; 2568,215;  196,339;13277,281;18,13230
 254,84; 2770,500;  177,184;14242,179;18,43809
 255,43; 2999,322;  190,801;15248,200;18,65210
 256,03; 3226,259;  196,956;16293,995;18,81901
 256,63; 3489,451;  204,341;17391,115;19,11418
 257,23; 3759,293;  177,495;18380,307;19,67717
 257,82; 4037,376;  194,496;19349,209;20,06232
 258,42; 4306,069;  155,496;20233,042;20,67271
 259,02; 4633,692;  210,262;21264,273;21,00991
 259,62; 4892,110;  187,189;22043,709;21,52639
 260,21; 5132,420;  199,878;22644,055;21,97694
 260,81; 5389,094;  193,646;23073,388;22,70763
 261,41; 5615,847;  172,265;23729,055;23,10833
 262,01; 5882,737;  209,497;24161,474;23,68590
 262,60; 6065,447;  163,649;24635,307;24,11687
 263,20; 6359,350;  179,802;24886,046;25,01209
 263,80; 6521,039;  212,651;25112,931;25,33461
 264,40; 6719,300;  168,189;25329,644;26,03629
 264,99; 6904,071;  198,574;25487,905;26,51512
 265,59; 7071,782;  180,191;25693,956;27,01126
 266,19; 7252,951;  181,035;25895,888;27,50129
 266,78; 7442,059;  221,190;26007,807;28,00239
 267,38; 7567,202;  200,268;26049,674;28,49943
 267,98; 7643,115;  181,575;26073,568;28,81794
 268,58; 7778,246;  196,037;26109,273;29,25999
 269,17; 7877,548;  195,653;26127,166;29,62378
 269,77; 7883,349;  204,957;25881,747;29,90402
 270,37; 7973,603;  165,420;25820,286;30,43549
 270,96; 8037,436;  232,111;25659,008;30,69712
 271,56; 8024,110;  184,033;25321,482;31,18883
 272,16; 7972,434;  181,496;25124,230;31,23530
 272,75; 8006,737;  191,265;25101,268;31,37483
 273,35; 8096,806;  189,726;25037,080;31,82262
 273,95; 8120,957;  188,419;25027,841;31,93528
 274,54; 8188,968;  169,185;25041,157;32,24426
 275,14; 8412,307;  216,496;25396,256;32,54920
 275,74; 8396,099;  168,419;25453,756;32,53933
 276,33; 8670,068;  213,649;25923,068;32,89230
 276,93; 8820,388;  196,031;26222,952;33,13630
 277,53; 8995,508;  186,032;26759,098;33,15190
 278,12; 9269,652;  174,418;27305,491;33,52331
 278,72; 9564,754;  227,801;27881,948;33,76330
 279,32; 9777,769;  182,955;28489,106;33,89657
 279,91;10081,502;  165,494;29258,003;34,08440
 280,51;10357,086;  191,724;29692,657;34,45776
 281,11;10690,700;  186,494;30550,063;34,59477
 281,70;10949,050;  171,417;30892,465;35,08224
 282,30;11305,495;  182,572;31552,097;35,45773
 282,90;11542,984;  186,264;31954,418;35,74876
 283,49;11817,949;  202,572;32544,115;35,91473
 284,09;12080,653;  210,417;33120,456;36,06874
 284,69;12365,114;  213,340;33350,085;36,67160
 285,28;12669,356;  206,341;33762,422;37,14085
 285,88;12921,615;  248,188;33983,397;37,56736
 286,47;13030,533;  187,187;34005,615;37,97736
 287,07;13318,472;  220,263;34062,995;38,70317
 287,67;13582,605;  209,415;34281,991;39,24913
 288,26;13715,911;  182,878;34188,713;39,79621
 288,86;14035,088;  179,956;34213,674;40,71001
 289,46;14293,866;  205,340;34318,149;41,29981
 290,05;14627,624;  177,493;34392,670;42,23310
 290,65;14946,729;  194,803;34598,709;42,87864
 291,24;15301,243;  195,186;34663,653;43,82573
 291,84;15623,451;  216,495;34767,653;44,59172
 292,44;15881,717;  194,569;34984,204;45,09144
 293,03;16281,995;  266,417;35057,914;46,03302
 293,63;16549,412;  184,495;35259,170;46,65736
 294,22;16811,024;  214,417;35324,264;47,27052
 294,82;16962,647;  191,727;35373,820;47,66891
 295,41;16977,588;  176,802;35114,234;48,08821
 296,01;17165,195;  229,265;34972,568;48,74588
 296,61;17119,544;  217,571;34673,495;49,05390
 297,20;16968,257;  195,496;34283,409;49,20442
 297,80;17014,336;  199,031;34159,264;49,51469
 298,39;16814,545;  177,418;33729,931;49,58534
 298,99;16743,700;  207,880;33549,640;49,59492
 299,58;16692,087;  210,415;33295,880;49,81545
 300,18;16586,542;  225,416;33137,170;49,71211
 300,78;16308,048;  187,186;32737,294;49,52629
 301,37;16259,458;  209,497;32747,285;49,32714
 301,97;16246,679;  208,417;32702,747;49,35711
 302,56;16122,427;  199,418;32668,944;49,03986
 303,16;15980,221;  171,341;32483,179;48,92597
 303,75;15958,165;  187,570;32527,127;48,76565
 304,35;16006,205;  181,030;32758,768;48,57665
 304,94;16001,256;  206,340;32808,922;48,44683
 305,54;15910,745;  218,801;32760,717;48,22071
 306,13;15762,432;  161,799;32549,192;48,16884
 306,73;15557,513;  166,876;32358,217;47,80987
 307,33;15459,055;  206,261;32238,521;47,61698
 307,92;15375,105;  215,878;32305,469;47,24032
 308,52;15424,071;  173,495;32763,140;46,79577
 309,11;15611,809;  188,650;33278,833;46,60947
 309,71;15670,215;  180,728;33595,521;46,35518
 310,30;15719,648;  184,648;33756,969;46,27324
 310,90;15797,956;  221,263;34201,739;45,84013
 311,49;15785,543;  201,955;34294,529;45,70962
 312,09;15641,422;  170,800;34375,033;45,23014
 312,68;15786,273;  253,955;34837,982;44,91182
 313,28;15723,413;  162,878;34973,469;44,70058
 313,87;15621,208;  162,955;35103,286;44,24186
 314,47;15702,812;  191,188;35314,764;44,16300
 315,06;15529,496;  176,032;35427,858;43,55367
 315,66;15559,422;  170,954;35644,803;43,37975
 316,25;15296,172;  159,034;35543,003;42,77965
 316,85;15232,120;  148,493;35519,422;42,64414
 317,44;15093,129;  183,266;35761,610;41,90713
 318,04;15037,863;  174,495;35684,512;41,85683
 318,63;14846,068;  161,030;35697,110;41,32430
 319,22;14794,492;  183,341;35919,858;40,88577
 319,82;14645,718;  182,341;35890,217;40,50473
 320,41;14414,718;  206,187;35837,512;39,87652
 321,01;14275,942;  201,878;35853,636;39,47649
 321,60;14178,065;  196,879;35932,315;39,12415
 322,20;13959,452;  181,417;35834,568;38,64465
 322,79;13869,051;  206,186;35983,059;38,18910
 323,39;13787,094;  177,876;36015,401;37,97477
 323,98;13524,437;  168,109;35860,333;37,42084
 324,58;13413,703;  175,495;35863,803;37,09396
 325,17;13155,690;  188,111;35597,918;36,62143
 325,76;13030,570;  208,186;35442,927;36,39131
 326,36;12685,969;  178,416;35062,418;35,85470
 326,95;12494,060;  207,494;34654,585;35,66794
 327,55;12230,542;  165,341;34435,627;35,20601
 328,14;11994,167;  176,954;33976,875;34,96225
 328,74;11719,822;  209,649;33581,833;34,49032
 329,33;11448,485;  194,262;33143,444;34,15631
 329,92;11113,464;  177,496;32534,162;33,79819
 330,52;10809,102;  187,954;31833,499;33,56285
 331,11;10505,082;  181,879;31384,670;33,08423
 331,71;10192,579;  180,033;30840,773;32,65592
 332,30;10012,718;  201,263;30513,538;32,36793
 332,89; 9749,610;  251,339;29853,004;32,08695
 333,49; 9499,692;  193,725;29360,170;31,90642
 334,08; 9193,140;  191,879;28852,042;31,40687
 334,68; 8998,344;  183,879;28470,875;31,16084
 335,27; 8863,192;  207,646;28061,551;31,07480
 335,86; 8712,005;  242,264;27758,670;30,78069
 336,46; 8502,616;  198,954;27412,880;30,51255
 337,05; 8341,971;  184,956;27302,884;30,07979
 337,65; 8214,438;  173,264;27034,230;29,93628
 338,24; 8273,695;  222,955;27085,038;29,97065
 338,83; 8155,179;  204,801;26985,781;29,68666
 339,43; 8031,981;  176,264;27007,948;29,27776
 340,02; 7966,869;  172,418;26819,350;29,25084
 340,61; 7951,633;  199,263;26869,734;29,06724
 341,21; 7898,207;  221,726;26907,986;28,76567
 341,80; 7884,338;  192,418;26842,333;28,86283
 342,40; 7883,201;  190,108;26908,012;28,79378
 342,99; 7873,687;  183,262;27124,927;28,54473
 343,58; 7835,485;  174,416;27215,521;28,33120
 344,18; 7908,393;  202,031;27425,670;28,30761
 344,77; 7985,204;  168,342;27631,055;28,46355
 345,36; 8016,907;  170,187;27880,046;28,31743
 345,96; 8121,364;  209,878;28225,999;28,23905
 346,55; 8169,595;  160,414;28529,653;28,23192
 347,14; 8275,251;  170,415;28847,768;28,26215
 347,74; 8386,119;  151,567;29286,025;28,26396
 348,33; 8618,232;  183,259;29809,653;28,47114
 348,92; 8784,066;  191,412;30461,670;28,38646
 349,52; 8952,754;  163,028;30981,773;28,52071
 350,11; 9070,912;  178,495;31156,136;28,70592
 350,70; 9069,199;  172,955;31370,055;28,51625
 351,29; 9012,256;  167,652;30998,482;28,68753
 351,89; 9086,177;  189,035;31043,016;28,83629
 352,48; 9101,072;  165,263;31080,991;28,90376
 353,07; 9152,446;  199,877;31018,525;29,04919
 353,67; 9166,298;  208,720;30924,636;29,16266
 354,26; 9122,575;  182,492;30742,969;29,25374
 354,85; 9217,324;  191,185;30553,794;29,72781
 355,45; 9203,858;  167,879;30387,704;29,90083
 356,04; 9188,123;  176,107;30300,521;29,91599
 356,63; 9200,946;  215,340;30143,683;30,02373
 357,22; 9240,707;  184,651;30004,914;30,36880
 357,82; 9229,085;  184,881;29789,615;30,54986
 358,41; 9297,668;  207,109;29677,551;30,84636
 359,00; 9256,305;  180,264;29523,687;30,93041
 359,60; 9375,755;  188,647;29385,452;31,46614
 360,19; 9405,174;  205,415;29244,627;31,68047
 360,78; 9401,866;  184,264;29115,982;31,85985
 361,37; 9385,471;  188,187;28952,632;31,97449
 361,97; 9461,084;  189,109;28871,525;32,32634
 362,56; 9401,444;  180,034;28572,824;32,47800
 363,15; 9512,409;  252,264;28254,174;33,06969
 363,74; 9413,741;  192,265;27927,153;33,24865
 364,34; 9428,914;  213,341;27511,914;33,75844
 364,93; 9329,887;  173,573;27122,042;33,97712
 365,52; 9308,851;  144,571;26657,209;34,56570
 366,11; 9258,168;  182,803;26510,580;34,47068
 366,71; 9235,415;  182,726;26033,397;35,01917
 367,30; 9202,566;  202,264;25600,875;35,43620
 367,89; 9207,471;  220,031;25410,251;35,67829
 368,48; 9183,336;  196,957;25136,221;36,03305
 369,07; 9108,199;  201,417;24677,978;36,38903
 369,67; 9081,019;  219,342;24411,221;36,63079
 370,26; 9089,255;  180,417;24057,200;37,31172
 370,85; 9020,834;  189,341;23916,469;37,22108
 371,44; 9035,754;  192,802;23630,935;37,72891
 372,03; 9053,162;  167,726;23441,884;38,17726
 372,63; 8922,451;  160,494;23097,204;38,20058
 373,22; 8932,939;  185,186;22806,076;38,67113
 373,81; 8913,664;  157,648;22493,499;39,20162
 374,40; 8878,414;  178,416;22326,768;39,28057
 374,99; 8913,403;  178,110;21951,247;40,11959
 375,59; 8828,968;  171,877;21685,465;40,24011
 376,18; 8909,783;  212,187;21588,978;40,68710
 376,77; 8883,338;  201,109;21345,961;41,06072
 377,36; 8910,861;  220,648;21386,559;41,05759
 377,95; 8886,932;  206,495;21008,080;41,72969
 378,55; 8923,019;  175,185;20865,482;42,27989
 379,14; 8895,537;  198,341;20764,435;42,28900
 379,73; 8969,604;  188,341;20679,533;42,85384
 380,32; 9059,639;  199,648;20785,187;43,03988
 380,91; 9076,518;  168,265;20505,662;43,80233
 381,50; 9093,664;  197,726;20493,781;43,83087
 382,10; 9104,870;  188,033;20415,495;44,08283
 382,69; 9164,949;  166,187;20415,140;44,44063
 383,28; 9243,963;  212,957;20278,243;45,00811
 383,87; 9179,622;  180,803;20158,687;45,04390
 384,46; 9304,004;  164,035;20098,191;45,85079
 385,05; 9335,955;  202,188;20130,657;45,83276
 385,64; 9377,168;  191,111;20107,273;46,12363
 386,24; 9392,487;  157,881;20034,508;46,45962
 386,83; 9544,325;  202,035;20097,307;46,95734
 387,42; 9641,608;  198,034;20214,495;47,17904
 388,01; 9790,742;  204,421;20376,102;47,52366
 388,60; 9956,011;  191,573;20645,700;47,73823
 389,19;10102,930;  173,731;20876,619;47,96045
 389,78;10271,527;  179,730;21079,542;48,28654
 390,37;10614,980;  245,651;21567,854;48,63160
 390,96;10714,448;  187,497;21720,102;48,88842
 391,56;10772,930;  195,116;21867,529;48,80774
 392,15;10964,838;  177,961;22123,550;49,15282
 392,74;11123,426;  165,656;22259,956;49,59546
 393,33;11309,736;  183,347;22620,311;49,58955
 393,92;11584,794;  189,427;22947,576;50,07159
 394,51;11707,312;  169,347;23210,674;50,07509
 395,10;11932,868;  202,353;23428,230;50,50623
 395,69;12011,323;  187,122;23572,315;50,56277
 396,28;12173,472;  193,046;23641,657;51,09226
 396,87;12257,207;  200,741;23763,072;51,16839
 397,46;12320,700;  198,128;23866,734;51,21794
 398,06;12530,275;  212,746;24134,695;51,49049
 398,65;12536,079;  191,828;24181,618;51,45627
 399,24;12707,052;  208,906;24321,503;51,83243
 399,83;12732,179;  171,684;24319,059;52,01599
 400,42;12899,996;  215,999;24455,828;52,32709
 401,01;12967,467;  189,315;24579,165;52,39127
 401,60;13006,997;  200,942;24618,383;52,44634
 402,19;13055,934;  214,489;24606,438;52,64624
 402,78;13071,718;  214,888;24515,643;52,90712
 403,37;13013,262;  204,440;24392,169;52,95587
 403,96;13067,762;  205,994;24258,463;53,47379
 404,55;12995,282;  213,319;24201,147;53,28520
 405,14;12949,115;  189,797;24097,719;53,36858
 405,73;12981,080;  211,200;24017,330;53,64114
 406,32;12945,600;  210,366;23847,172;53,87883
 406,91;12877,452;  205,150;23610,749;54,14218
 407,50;12861,390;  210,619;23473,501;54,38179
 408,09;12676,267;  179,317;23120,120;54,47477
 408,68;12670,933;  198,628;23067,402;54,53858
 409,27;12607,975;  183,854;22837,885;54,84287
 409,86;12595,937;  192,997;22744,676;54,99786
 410,45;12531,223;  221,449;22600,509;55,00577
 411,04;12517,105;  227,516;22570,531;55,00416
 411,63;12420,092;  214,426;22318,946;55,21796
 412,22;12278,666;  220,876;22082,741;55,15445
 412,81;12178,832;  216,872;21846,497;55,30359
 413,40;11974,795;  232,559;21486,489;55,24737
 413,99;11859,197;  276,330;21131,343;55,53996
 414,58;11628,762;  198,868;20717,382;55,70527
 415,17;11507,283;  202,718;20540,377;55,58439
 415,76;11465,695;  198,723;20346,860;55,92066
 416,35;11387,201;  185,874;20116,937;56,20035
 416,94;11419,024;  225,568;20175,971;56,10641
 417,53;11517,984;  207,257;20432,621;55,92348
 418,12;11563,626;  206,948;20476,583;56,02804
 418,71;11756,181;  218,021;20830,454;55,97670
 419,30;11817,658;  200,024;21000,647;55,85234
 419,89;12004,793;  184,639;21139,429;56,40789
 420,48;12110,341;  222,405;21442,613;56,02177
 421,07;12204,427;  216,251;21448,407;56,46236
 421,66;12201,302;  184,941;21541,095;56,26650
 422,25;12223,769;  205,167;21438,937;56,60136
 422,84;12262,493;  224,397;21543,476;56,46631
 423,43;12072,237;  212,168;21238,301;56,40633
 424,02;11957,323;  231,628;21043,172;56,34226
 424,60;11678,684;  201,392;20533,831;56,44818
 425,19;11540,256;  211,703;20236,510;56,57259
 425,78;11560,797;  217,626;20175,442;56,83573
 426,37;11486,360;  232,085;20050,925;56,78574
 426,96;11425,350;  206,624;19918,959;56,91221
 427,55;11351,347;  199,467;19767,762;56,98953
 428,14;11217,025;  195,158;19549,673;56,94727
 428,73;11093,995;  216,929;19338,557;56,88357
 429,32;11171,572;  218,470;19324,100;57,32918
 429,91;11162,457;  226,160;19366,831;57,13644
 430,50;11028,885;  228,466;19204,852;56,91505
 431,08;10967,280;  231,772;19005,087;57,18493
 431,67;10954,910;  263,463;18962,207;57,17735
 432,26;10879,159;  269,923;18770,057;57,34681
 432,85;10708,001;  291,770;18411,160;57,48666
 433,44;10503,071;  305,845;18063,668;57,42385
 434,03;10283,533;  316,149;17727,545;57,24632
 434,62; 9999,782;  271,614;17264,989;57,24683
 435,21; 9929,245;  287,923;17079,211;57,41860
 435,79; 9824,567;  290,535;16870,613;57,50294
 436,38; 9758,220;  276,994;16773,698;57,47346
 436,97; 9706,680;  282,686;16719,515;57,33463
 437,56; 9543,369;  278,143;16522,498;57,03659
 438,15; 9467,293;  260,837;16400,241;57,04334
 438,74; 9549,418;  274,067;16463,122;57,29396
 439,33; 9556,846;  249,683;16410,092;57,59238
 439,91; 9549,936;  217,450;16527,489;57,21927
 440,50; 9626,850;  264,835;16518,258;57,60027
 441,09; 9718,379;  270,832;16642,156;57,70789
 441,68; 9677,672;  245,445;16657,322;57,47195
 442,27; 9642,140;  230,908;16633,609;57,37611
 442,86; 9644,872;  205,057;16680,985;57,29459
 443,44; 9704,290;  221,288;16739,976;57,40772
 444,03; 9725,423;  301,826;16785,378;57,16970
 444,62; 9610,637;  224,441;16606,793;57,29456
 445,21; 9555,949;  230,442;16478,895;57,39320
 445,80; 9506,213;  261,747;16379,635;57,35532
 446,39; 9364,511;  281,055;16095,117;57,43910
 446,97; 9210,586;  220,128;15973,656;57,06949
 447,56; 9024,522;  225,126;15675,759;56,95169
 448,15; 8941,503;  227,205;15514,190;57,00469
 448,74; 8847,600;  236,128;15319,861;57,09112
 449,33; 8763,441;  225,588;15159,938;57,16923
 449,91; 8624,639;  221,893;14881,259;57,31998
 450,50; 8453,666;  218,893;14701,182;56,86099
 451,09; 8394,505;  228,662;14577,224;56,91053
 451,68; 8354,543;  246,815;14526,502;56,77805
 452,26; 8294,946;  243,891;14416,541;56,80698
 452,85; 8199,076;  232,045;14236,357;56,88984
 453,44; 8244,255;  249,734;14298,998;56,90349
 454,03; 8162,975;  215,659;14234,959;56,68839
 454,61; 8119,516;  215,426;14233,712;56,38414
 455,20; 8244,951;  237,194;14401,613;56,53431
 455,79; 8271,204;  247,196;14396,801;56,70835
 456,38; 8286,922;  239,115;14480,917;56,50835
 456,97; 8280,405;  231,885;14521,528;56,32415
 457,55; 8282,525;  217,114;14533,011;56,33884
 458,14; 8312,779;  253,039;14534,934;56,43327
 458,73; 8214,632;  238,575;14474,263;56,02860
 459,31; 8233,138;  268,650;14548,340;55,77493
 459,90; 8314,488;  266,190;14576,024;56,24313
 460,49; 8410,684;  332,190;14714,566;56,16940
 461,08; 8386,220;  225,418;14821,831;55,90964
 461,66; 8385,664;  233,881;14804,485;55,94677
 462,25; 8446,368;  237,571;14858,391;56,14457
 462,84; 8448,173;  271,341;14942,699;55,73330
 463,43; 8391,178;  203,107;14914,396;55,65842
 464,01; 8438,057;  227,875;14922,900;55,87049
 464,60; 8413,510;  289,108;14916,310;55,54311
 465,19; 8254,640;  203,644;14633,323;55,79470
 465,77; 8225,735;  234,488;14644,208;55,45734
 466,36; 8168,733;  253,876;14500,596;55,55564
 466,95; 8001,351;  235,491;14160,297;55,76997
 467,53; 7790,232;  231,256;13904,259;55,28395
 468,12; 7631,087;  264,718;13623,195;55,14378
 468,71; 7501,396;  232,643;13386,361;55,26006
 469,29; 7315,354;  209,102;13108,374;55,09033
 469,88; 7155,331;  221,793;12873,810;54,80184
 470,47; 7262,632;  281,329;13000,088;54,88981
 471,06; 7207,353;  237,022;12947,067;54,84112
 471,64; 7242,698;  233,792;13032,571;54,76231
 472,23; 7200,196;  217,710;13049,729;54,41455
 472,81; 7260,813;  210,405;13158,182;54,45266
 473,40; 7302,944;  228,710;13282,644;54,19235
 473,99; 7487,823;  320,172;13507,891;54,35095
 474,57; 7489,531;  231,864;13569,434;54,41521
 475,16; 7548,818;  244,173;13707,849;54,25446
 475,75; 7610,035;  246,093;13878,533;54,01779
 476,33; 7660,535;  249,861;13953,439;54,07839
 476,92; 7651,079;  256,018;14004,336;53,78885
 477,51; 7690,880;  251,939;14140,131;53,56306
 478,09; 7700,561;  247,631;14150,857;53,60576
 478,68; 7630,991;  258,938;14016,819;53,58422
 479,27; 7675,432;  283,401;14136,618;53,35967
 479,85; 7615,287;  253,092;14043,426;53,38663
 480,44; 7668,811;  230,937;14183,015;53,31015
 481,02; 8285,562;  256,397;15469,503;52,77794
 481,61; 9348,627;  276,706;17579,866;52,42927
 482,20;10018,183;  254,936;18794,122;52,66276
 482,78;10429,544;  289,553;19617,836;52,46193
 483,37;10692,178;  275,010;20203,289;52,27329
 483,95;10816,028;  300,395;20526,956;51,98923
 484,54;10874,827;  310,629;20749,998;51,68554
 485,13;10823,870;  271,931;20638,075;51,81118
 485,71;10718,056;  248,932;20437,114;51,85769
 486,30;10555,892;  292,932;20118,225;51,76700
 486,88;10410,671;  339,393;19756,357;51,86845
 487,47; 9968,836;  305,469;18999,951;51,69101
 488,05; 9577,915;  299,930;18136,204;52,01751
 488,64; 8868,218;  282,236;16822,511;51,90955
 489,23; 7974,782;  309,545;14968,763;52,28954
 489,81; 6776,364;  293,544;12807,451;51,80492
 490,40; 6388,005;  247,698;12153,204;51,57536
 490,98; 6273,859;  242,851;11883,187;51,81129
 491,57; 6159,532;  268,775;11811,644;51,03373
 492,15; 6126,246;  249,774;11741,426;51,13688
 492,74; 6068,933;  269,622;11602,755;51,17130
 493,32; 6008,242;  278,159;11485,375;51,12851
 493,91; 5923,743;  253,927;11425,618;50,75164
 494,50; 5867,257;  258,078;11390,601;50,38551
 495,08; 5874,178;  238,001;11299,943;50,95106
 495,67; 5807,329;  266,389;11347,058;50,00546
 496,25; 5716,340;  210,002;11181,105;50,18946
 496,84; 5732,575;  223,158;11147,524;50,43237
 497,42; 5693,055;  213,232;11127,631;50,20728
 498,01; 5667,496;  252,004;11103,571;49,90516
 498,59; 5588,777;  216,232;11009,652;49,77611
 499,18; 5541,734;  219,850;10958,695;49,55733
 499,76; 5506,962;  243,310;10887,110;49,45275
 500,35; 5376,698;  235,923;10681,110;49,21669
 500,93; 5347,180;  225,617;10649,729;49,13189
 501,52; 5299,925;  227,463;10557,033;49,10623
 502,10; 5308,315;  229,922;10562,332;49,15013
 502,69; 5164,050;  226,536;10390,879;48,57682
 503,27; 5045,054;  213,308;10160,811;48,57246
 503,86; 4997,568;  226,690;10117,319;48,23634
 504,44; 4908,852;  198,920; 9980,832;48,14940
 505,03; 4802,484;  189,612; 9763,187;48,18338
 505,61; 4758,650;  214,305; 9626,644;48,28072
 506,19; 4623,566;  228,305; 9506,148;47,37374
 506,78; 4526,962;  197,995; 9318,823;47,46243
 507,36; 4450,834;  202,305; 9169,435;47,37892
 507,95; 4378,213;  206,609; 8967,935;47,61384
 508,53; 4297,324;  200,457; 8839,080;47,42500
 509,12; 4211,358;  219,917; 8732,153;46,89063
 509,70; 4137,880;  233,301; 8577,503;46,79391
 510,29; 4098,605;  242,531; 8439,392;47,04330
 510,87; 3925,367;  205,533; 8183,986;46,62350
 511,46; 3923,652;  189,533; 8086,332;47,28649
 512,04; 3781,801;  205,686; 7932,627;46,28113
 512,62; 3727,642;  209,918; 7792,058;46,39487
 513,21; 3622,480;  196,454; 7627,370;46,10502
 513,79; 3591,101;  203,297; 7534,648;46,20982
 514,38; 3470,166;  191,990; 7356,845;45,75356
 514,96; 3465,142;  225,683; 7260,366;46,04983
 515,54; 3374,705;  189,990; 7101,935;46,07552
 516,13; 3305,240;  216,759; 7077,247;45,01839
 516,71; 3235,248;  199,219; 6900,285;45,30666
 517,30; 3145,898;  189,602; 6777,909;44,87186
 517,88; 3133,903;  217,833; 6696,640;45,00936
 518,46; 3051,129;  189,756; 6589,999;44,70725
 519,05; 3040,149;  202,139; 6529,725;44,85139
 519,63; 3008,337;  208,063; 6461,883;44,77701
 520,22; 2985,423;  236,291; 6396,901;44,62435
 520,80; 2921,354;  208,599; 6356,563;44,12444
 521,38; 2911,448;  249,677; 6324,495;43,81647
 521,97; 2829,990;  209,598; 6288,674;43,10510
 522,55; 2831,017;  221,444; 6249,687;43,28911
 523,13; 2794,783;  193,905; 6226,473;43,11394
 523,72; 2780,441;  201,756; 6181,499;43,12368
 524,30; 2851,149;  226,366; 6308,794;43,15355
 524,89; 2825,074;  189,905; 6273,875;43,31331
 525,47; 2820,906;  223,134; 6436,029;41,81258
 526,05; 2821,073;  185,826; 6496,311;41,75982
 526,64; 2886,343;  235,903; 6544,114;42,01572
 527,22; 2893,438;  223,904; 6686,717;41,30608
 527,80; 2973,759;  252,441; 6790,704;41,62142
 528,39; 2914,943;  215,440; 6899,738;40,38573
 528,97; 2976,417;  217,518; 7022,426;40,54278
 529,55; 3054,585;  229,520; 7231,490;40,34672
 530,14; 3095,976;  228,209; 7420,922;39,87045
 530,72; 3098,022;  213,672; 7478,076;39,70525
 531,30; 3127,214;  183,747; 7650,123;39,42297
 531,89; 3178,258;  206,363; 7726,644;39,51840
 532,47; 3207,164;  243,593; 7835,225;39,03734
 533,05; 3206,308;  239,903; 7874,131;38,85665
 533,63; 3209,151;  234,747; 7890,418;38,85230
 534,22; 3208,662;  205,131; 7928,713;38,88780
 534,80; 3235,830;  238,822; 8044,909;38,39322
 535,38; 3307,271;  320,516; 8141,619;38,18842
 535,97; 3210,648;  210,516; 8068,277;38,18050
 536,55; 3283,547;  273,514; 8157,157;38,18073
 537,13; 3257,861;  276,440; 8150,866;37,86208
 537,71; 3284,623;  310,132; 8166,896;37,85898
 538,30; 3285,354;  325,669; 8256,648;37,31802
 538,88; 3294,997;  354,052; 8327,755;36,88305
 539,46; 3347,550;  408,899; 8514,845;36,25302
 540,05; 3419,970;  403,975; 8620,114;36,70818
 540,63; 3490,163;  457,975; 8814,059;36,28719
 541,21; 3517,205;  482,589; 8956,486;35,81134
 541,79; 3536,941;  507,436; 9126,469;35,14902
 542,38; 3605,117;  539,360; 9204,913;35,37866
 542,96; 3648,002;  556,588; 9376,337;35,05105
 543,54; 3710,137;  570,282; 9579,255;34,85253
 544,12; 3729,603;  529,435; 9696,845;34,90809
 544,70; 3728,817;  511,204; 9855,285;34,43477
 545,29; 3797,661;  522,668; 9943,533;34,76319
 545,87; 3780,633;  520,743; 9958,777;34,53993
 546,45; 3765,583;  476,206; 9995,260;34,55571
 547,03; 3780,640;  450,282;10089,230;34,55105
 547,62; 3808,976;  417,974;10221,298;34,59033
 548,20; 3867,473;  428,819;10364,644;34,60864
 548,78; 3835,277;  388,124;10462,580;34,21677
 549,36; 3898,121;  369,740;10717,879;34,09677
 549,94; 3913,837;  330,820;10753,931;34,37570
 550,53; 3950,264;  327,432;11007,285;33,92211
 551,11; 3963,420;  309,508;11176,781;33,62308
 551,69; 4045,680;  320,355;11465,273;33,42622
 552,27; 4078,219;  271,818;11710,093;33,27776
 552,85; 4173,892;  280,585;12103,593;32,92992
 553,44; 4254,366;  286,663;12378,961;32,81183
 554,02; 4344,377;  300,124;12654,093;32,73647
 554,60; 4344,027;  233,585;12918,320;32,40463
 555,18; 4473,780;  265,355;13307,016;32,26908
 555,76; 4523,163;  260,893;13653,371;31,82585
 556,34; 4625,648;  275,430;13991,273;31,71674
 556,93; 4717,253;  262,201;14388,948;31,53629
 557,51; 4760,286;  232,891;14755,170;31,17551
 558,09; 4859,511;  265,740;15098,345;30,97077
 558,67; 4966,130;  261,429;15430,691;31,01470
 559,25; 5002,498;  270,968;15672,170;30,72182
 559,83; 5090,308;  237,582;16057,644;30,67450
 560,41; 5187,204;  243,199;16329,657;30,73396
 561,00; 5245,932;  255,967;16659,478;30,42010
 561,58; 5280,346;  238,584;16947,418;30,17423
 562,16; 5342,162;  242,969;17243,768;29,99384
 562,74; 5417,350;  223,508;17582,388;29,92037
 563,32; 5509,703;  210,043;18026,918;29,74517
 563,90; 5614,916;  249,583;18359,508;29,62648
 564,48; 5723,992;  249,200;18754,734;29,58462
 565,06; 5850,925;  242,506;19298,508;29,43125
 565,65; 6038,778;  246,888;19959,760;29,38126
 566,23; 6204,905;  296,736;20662,926;29,00969
 566,81; 6363,201;  245,660;21389,059;28,93357
 567,39; 6563,701;  256,197;22319,811;28,58781
 567,97; 6776,769;  266,198;22873,619;28,79838
 568,55; 7039,955;  280,582;23783,234;28,76004
 569,13; 7129,005;  243,813;24431,824;28,46531
 569,71; 7375,096;  243,893;25404,965;28,34221
 570,29; 7644,632;  278,893;26342,713;28,26040
 570,87; 7819,802;  285,354;27066,849;28,13304
 571,45; 7930,228;  267,198;27717,085;27,91644
 572,03; 7972,814;  235,274;28116,067;27,75222
 572,61; 8199,026;  222,274;28951,153;27,76562
 573,20; 8297,803;  257,430;29551,008;27,44756
 573,78; 8424,796;  243,890;30118,426;27,38421
 574,36; 8505,029;  262,505;30688,687;27,09023
 574,94; 8580,081;  321,427;31016,324;26,90562
 575,52; 8596,391;  249,810;31214,294;26,95534
 576,10; 8691,581;  303,887;31765,832;26,65981
 576,68; 8806,610;  298,581;32340,773;26,55258
 577,26; 8938,651;  307,963;33090,559;26,32704
 577,84; 9031,552;  313,198;33542,837;26,23668
 578,42; 9024,817;  358,965;33877,397;25,85399
 579,00; 8991,736;  313,197;33915,396;25,82729
 579,58; 9010,702;  358,042;34096,174;25,64653
 580,16; 8914,803;  308,195;34110,435;25,46165
 580,74; 8939,958;  316,195;34375,401;25,31992
 581,32; 8868,221;  322,273;34369,747;25,10009
 581,90; 8790,797;  329,272;34303,123;24,90599
 582,48; 8748,743;  328,272;34453,713;24,67505
 583,06; 8731,434;  318,273;34590,426;24,54809
 583,64; 8686,586;  324,889;34648,614;24,36128
 584,22; 8564,125;  342,040;34468,170;24,09322
 584,80; 8459,762;  336,965;34092,063;24,06391
 585,38; 8248,421;  355,353;33784,696;23,61120
 585,96; 8206,568;  315,735;33751,666;23,59986
 586,54; 8120,287;  348,733;33736,897;23,27637
 587,12; 8089,285;  309,118;33973,303;23,11111
 587,70; 8057,647;  337,812;34128,093;22,84632
 588,28; 7980,758;  313,272;34026,730;22,74310
 588,86; 7956,141;  321,502;34187,085;22,54394
 589,44; 7885,045;  299,423;34186,969;22,38469
 590,02; 7834,770;  309,347;34351,666;22,10608
 590,59; 7821,665;  284,964;34578,662;21,97693
 591,17; 7857,795;  303,729;34693,392;21,96609
 591,75; 7802,102;  278,884;34799,016;21,79371
 592,33; 7784,300;  308,962;35008,140;21,54327
 592,91; 7799,092;  255,499;35236,029;21,56512
 593,49; 7769,893;  267,883;35565,798;21,25341
 594,07; 7828,887;  287,883;35788,794;21,24172
 594,65; 7740,030;  300,271;35772,234;20,97363
 595,23; 7772,500;  283,270;36175,414;20,86593
 595,81; 7688,340;  296,116;36321,884;20,51927
 596,39; 7689,616;  287,423;36461,525;20,46269
 596,97; 7682,598;  275,576;36559,935;20,41381
 597,55; 7671,255;  274,194;36480,627;20,43024
 598,12; 7601,579;  245,497;36512,422;20,28317
 598,70; 7547,101;  245,191;36662,042;20,05091
 599,28; 7551,766;  283,268;36867,952;19,86760
 599,86; 7508,243;  254,499;36829,033;19,83277
 600,44; 7477,765;  241,883;36966,538;19,70306
 601,02; 7503,892;  294,496;36932,542;19,67735
 601,60; 7417,108;  272,500;36973,021;19,46732
 602,18; 7344,149;  247,113;36930,397;19,34679
 602,75; 7303,724;  250,654;37065,533;19,15820
 603,33; 7257,877;  264,960;37078,508;18,99550
 603,91; 7190,532;  243,035;37002,533;18,89987
 604,49; 7200,103;  282,883;37014,085;18,83200
 605,07; 7195,035;  284,884;37183,136;18,72758
 605,65; 7123,190;  295,267;37189,832;18,50658
 606,23; 7143,916;  350,041;37287,012;18,39316
 606,80; 7069,152;  384,885;37392,670;18,06179
 607,38; 7074,974;  421,958;37380,170;18,00145
 607,96; 7072,992;  461,808;37486,820;17,85599
 608,54; 7010,003;  524,959;37474,354;17,55115
 609,12; 6984,048;  539,270;37559,580;17,40876
 609,70; 6930,033;  571,960;37639,811;17,15253
 610,27; 6884,540;  564,655;37785,358;16,97949
 610,85; 6928,098;  585,114;37749,956;17,06716
 611,43; 6835,854;  582,806;37736,841;16,83006
 612,01; 6768,934;  548,577;37484,273;16,84105
 612,59; 6707,863;  556,806;37576,841;16,61548
 613,16; 6638,235;  524,194;37437,341;16,56332
 613,74; 6592,388;  490,268;37386,495;16,53860
 614,32; 6528,136;  458,882;37316,730;16,46665
 614,90; 6466,583;  435,038;37231,995;16,39142
 615,48; 6401,425;  373,040;36866,751;16,51897
 616,05; 6346,486;  343,348;36856,845;16,44087
 616,63; 6255,777;  365,733;36721,862;16,20097
 617,21; 6226,292;  348,193;36611,311;16,20958
 617,79; 6126,606;  343,885;36569,405;15,96311
 618,36; 6107,848;  342,807;36469,119;15,95801
 618,94; 5974,092;  295,886;36158,627;15,83316
 619,52; 5970,125;  312,425;35846,388;15,92195
 620,10; 5889,977;  292,039;35860,123;15,73865
 620,67; 5844,827;  298,349;35807,388;15,61991
 621,25; 5817,322;  324,807;35706,204;15,52374
 621,83; 5744,185;  303,117;35599,982;15,41516
 622,41; 5802,019;  359,501;35657,281;15,41887
 622,98; 5675,848;  317,503;35302,550;15,31610
 623,56; 5654,851;  318,272;35275,700;15,26594
 624,14; 5578,552;  306,191;35161,063;15,12661
 624,72; 5468,504;  301,424;35078,179;14,85785
 625,29; 5473,747;  285,810;35174,072;14,87015
 625,87; 5524,793;  332,731;35105,191;14,93153
 626,45; 5414,200;  287,042;34915,213;14,80632
 627,02; 5383,778;  292,346;34950,879;14,69027
 627,60; 5336,220;  271,267;34878,764;14,63542
 628,18; 5287,048;  258,270;34918,965;14,50859
 628,76; 5263,003;  265,041;34954,439;14,40775
 629,33; 5253,824;  292,963;34885,867;14,34069
 629,91; 5222,438;  276,962;34917,431;14,27659
 630,49; 5239,095;  291,117;35059,687;14,23118
 631,06; 5169,252;  289,195;35196,452;13,98007
 631,64; 5160,816;  288,888;35120,640;13,98703
 632,22; 5103,468;  248,811;35036,563;13,95508
 632,79; 5125,903;  282,427;35309,704;13,82773
 633,37; 5119,419;  252,577;35401,709;13,84626
 633,95; 5084,776;  262,657;35488,114;13,68930
 634,52; 5075,574;  246,578;35618,944;13,65189
 635,10; 5043,525;  264,039;35689,738;13,49158
 635,68; 5063,639;  264,504;35817,610;13,49850
 636,25; 5012,941;  248,351;35772,503;13,41226
 636,83; 5005,080;  228,964;35999,593;13,35206
 637,41; 5004,449;  249,273;36041,354;13,28555
 637,98; 5024,481;  283,504;36243,636;13,18398
 638,56; 5008,959;  264,044;36299,657;13,16730
 639,13; 4998,468;  242,349;36295,589;13,19193
 639,71; 5060,873;  312,810;36469,841;13,13179
 640,29; 4945,424;  224,194;36269,643;13,09799
 640,86; 4977,059;  241,348;36562,378;13,03848
 641,44; 4910,847;  240,810;36416,421;12,90935
 642,02; 4967,175;  268,117;36501,617;12,96882
 642,59; 4917,963;  241,117;36507,968;12,89565
 643,17; 4890,983;  242,656;36583,780;12,79082
 643,74; 4899,310;  243,425;36595,976;12,80759
 644,32; 4901,638;  270,809;36562,865;12,75989
 644,89; 4886,734;  263,963;36575,523;12,73085
 645,47; 4889,600;  266,886;36564,951;12,73543
 646,05; 4872,927;  263,502;36439,147;12,74179
 646,62; 4873,947;  248,117;36521,421;12,75271
 647,20; 4843,197;  254,732;36625,464;12,61582
 647,77; 4838,063;  233,271;36563,429;12,67485
 648,35; 4778,698;  230,886;36454,011;12,55500
 648,92; 4795,717;  254,040;36523,592;12,52201
 649,50; 4764,506;  220,886;36442,327;12,54401
 650,08; 4743,218;  220,886;36275,985;12,54284
 650,65; 4758,930;  236,039;36535,335;12,45999
 651,23; 4864,257;  213,193;37329,378;12,53109
 651,80; 5024,046;  217,193;38230,959;12,64503
 652,38; 5072,527;  230,809;38683,233;12,59145
 652,95; 5060,239;  216,885;39039,891;12,47547
 653,53; 5131,951;  243,116;39355,241;12,49954
 654,10; 5192,970;  269,347;39470,284;12,55996
 654,68; 5150,452;  215,885;39351,865;12,60877
 655,25; 5161,702;  215,577;39531,139;12,58058
 655,83; 5142,106;  211,654;39701,489;12,48537
 656,40; 5164,049;  262,347;39471,994;12,50127
 656,98; 5135,068;  218,116;39510,806;12,51366
 657,55; 5118,780;  228,039;39312,694;12,51320
 658,13; 5042,184;  223,423;38933,891;12,44821
 658,70; 5013,896;  250,500;38701,780;12,38813
 659,28; 4860,224;  231,192;37787,977;12,32542
 659,85; 4774,243;  247,962;36911,327;12,34552
 660,43; 4774,801;  245,577;37010,600;12,31938
 661,00; 4787,282;  217,038;37113,336;12,38673
 661,58; 4815,148;  226,808;37430,224;12,33312
 662,15; 4831,937;  214,038;37623,575;12,34418
 662,73; 4893,957;  296,269;37994,771;12,19594
 663,30; 4928,438;  233,346;38122,814;12,39155
 663,88; 4932,765;  238,115;38285,165;12,33906
 664,45; 4909,323;  221,192;38475,515;12,25517
 665,03; 5003,112;  225,192;38934,096;12,34321
 665,60; 5151,439;  315,961;39296,524;12,40484
 666,17; 5096,843;  231,730;39435,643;12,40976
 666,75; 5129,632;  237,884;39837,917;12,35289
 667,32; 5213,498;  257,422;40136,652;12,42771
 667,90; 5229,441;  248,576;40373,925;12,41326
 668,47; 5239,999;  254,268;40711,507;12,32346
 669,05; 5339,018;  238,422;41041,319;12,50057
 669,62; 5321,961;  215,268;41094,207;12,49223
 670,19; 5347,211;  207,576;41221,096;12,53156
 670,77; 5405,231;  225,191;41436,831;12,56936
 671,34; 5422,635;  222,653;41280,489;12,66502
 671,92; 5453,501;  223,268;41671,994;12,61856
 672,49; 5461,751;  249,114;41653,036;12,58972
 673,06; 5443,155;  180,576;41684,848;12,67961
 673,64; 5470,175;  209,037;41721,814;12,67354
 674,21; 5513,348;  198,806;41601,780;12,83614
 674,79; 5517,060;  237,498;41879,361;12,67850
 675,36; 5558,849;  243,345;41950,096;12,74495
 675,93; 5508,945;  207,883;41798,447;12,74583
 676,51; 5594,734;  233,883;41996,797;12,83639
 677,08; 5614,446;  238,267;42145,609;12,82873
 677,65; 5657,850;  227,344;42244,575;12,92447
 678,23; 5658,562;  235,806;42378,002;12,86776
 678,80; 5677,966;  226,344;42468,276;12,90571
 679,38; 5724,755;  215,421;42651,934;12,98253
 679,95; 5809,775;  226,498;42874,669;13,09148
 680,52; 5832,256;  226,806;43211,404;13,04060
 681,10; 5967,814;  242,344;43619,908;13,19915
 681,67; 5993,064;  240,652;43908,336;13,17316
 682,24; 5991,084;  205,882;43960,840;13,22182
 682,82; 6113,411;  215,113;44518,267;13,31350
 683,39; 6241,585;  261,805;44947,541;13,38185
 683,96; 6274,143;  228,113;45163,353;13,45499
 684,54; 6314,470;  214,882;45566,549;13,44953
 685,11; 6436,490;  261,574;45995,977;13,50169
 685,68; 6499,971;  220,343;46347,635;13,61369
 686,25; 6558,375;  209,574;46329,678;13,76580
 686,83; 6629,087;  224,266;46587,182;13,81453
 687,40; 6666,722;  205,805;46909,071;13,83397
 687,97; 6794,049;  262,882;47309,114;13,88245
 688,55; 6771,222;  212,266;47325,926;13,92156
 689,12; 6807,704;  191,728;47588,045;13,95884
 689,69; 6893,569;  201,497;47694,703;14,09059
 690,26; 6912,050;  218,035;47746,208;14,08431
 690,84; 6972,147;  217,112;48066,327;14,11734
 691,41; 7065,628;  228,343;48172,062;14,26107
 691,98; 7091,878;  228,189;48503,951;14,21767
 692,56; 7149,360;  220,650;48556,763;14,33444
 693,13; 7196,071;  276,573;48519,652;14,34299
 693,70; 7231,553;  239,343;48637,233;14,44734
 694,27; 7260,803;  216,419;48796,430;14,50058
 694,84; 7317,669;  213,189;48898,011;14,59280
 695,42; 7432,534;  261,650;49019,361;14,70718
 695,99; 7424,631;  217,727;49180,327;14,71920
 696,56; 7418,189;  216,496;49034,062;14,75226
 697,13; 7541,362;  232,650;49420,720;14,85871
 697,71; 7591,459;  209,727;49394,686;15,00811
 698,28; 7633,709;  217,727;49714,037;14,98290
 698,85; 7653,575;  199,727;49725,003;15,05059
 699,42; 7706,210;  202,342;49934,584;15,08854
 699,99; 7811,537;  240,803;50030,319;15,20548
 700,57; 7850,249;  232,342;50115,362;15,27154
 701,14; 7880,807;  206,573;50235,712;15,33953
 701,71; 7956,827;  232,803;50426,062;15,38857
 702,28; 7983,616;  229,034;50475,259;15,43316
 702,85; 8041,327;  224,495;50574,686;15,52493
 703,43; 8138,424;  251,342;50838,037;15,59122
 704,00; 8266,905;  245,726;50977,849;15,81085
 704,57; 8268,309;  235,188;51011,738;15,82053
 705,14; 8319,637;  252,880;51250,088;15,81804
 705,71; 8383,887;  259,880;51277,054;15,92406
 706,28; 8419,368;  231,880;51163,327;16,07551
 706,86; 8490,772;  260,187;51476,755;16,07016
 707,43; 8571,484;  289,957;51421,721;16,19644
 708,00; 8585,888;  259,803;51456,071;16,26307
 708,57; 8595,600;  234,956;51246,421;16,38973
 709,14; 8670,543;  261,879;51501,926;16,41034
 709,71; 8741,255;  241,572;51586,738;16,55401
 710,28; 8801,967;  236,418;51710,165;16,64062
 710,86; 8880,294;  244,725;51954,054;16,70021
 711,43; 8967,390;  267,495;51845,866;16,86733
 712,00; 9006,179;  249,494;51973,447;16,92965
 712,57; 9080,276;  261,802;52051,182;17,02757
 713,14; 9111,218;  234,417;52193,994;17,08405
 713,71; 9185,238;  246,802;52137,652;17,22546
 714,28; 9221,411;  235,033;52217,926;17,28718
 714,85; 9203,123;  221,110;51842,968;17,39963
 715,42; 9317,912;  225,417;52187,396;17,49836
 716,00; 9479,393;  300,033;52292,977;17,65501
 716,57; 9451,490;  233,263;52374,943;17,67919
 717,14; 9477,279;  211,725;52272,447;17,79759
 717,71; 9548,991;  212,725;52283,874;17,92982
 718,28; 9622,549;  265,955;52493,917;17,91491
 718,85; 9667,337;  204,955;52412,575;18,12452
 719,42; 9770,895;  241,878;52662,080;18,17814
 719,99; 9766,838;  219,571;52385,892;18,30159
 720,56; 9886,627;  243,417;52752,242;18,36493
 721,13; 9912,108;  217,032;52790,823;18,44089
 721,70; 9933,051;  203,724;52633,174;18,55699
 722,27;10014,839;  232,186;52831,601;18,59841
 722,84;10162,705;  288,493;52843,721;18,78826
 723,41;10129,263;  208,032;52888,686;18,83278
 723,98;10219,283;  221,570;53198,268;18,87191
 724,55;10285,456;  256,724;53259,772;18,92105
 725,12;10313,937;  181,185;53261,738;19,08939
 725,69;10383,265;  208,570;53273,627;19,17400
 726,27;10488,900;  221,570;53351,208;19,32505
 726,84;10560,765;  233,031;53717,558;19,30976
 727,41;10637,939;  241,262;53692,986;19,45059
 727,98;10701,881;  235,493;53909,259;19,50001
 728,55;10809,132;  274,339;53881,456;19,65186
 729,12;10831,151;  209,185;54031,575;19,73522
 729,69;10939,633;  235,339;54118,464;19,86576
 730,26;10990,421;  239,108;54533,507;19,80188
 730,82;10995,672;  229,569;54254,781;19,92792
 731,39;11076,922;  229,031;54317,746;20,05574
 731,96;11214,403;  214,800;54680,251;20,19556
 732,53;11331,654;  236,185;54873,678;20,30743
 733,10;11403,673;  243,031;54889,028;20,42353
 733,67;11486,770;  236,184;55261,302;20,44627
 734,24;11456,943;  217,031;54871,499;20,56540
 734,81;11524,424;  259,492;54910,464;20,61250
 735,38;11535,675;  232,954;54665,661;20,76458
 735,95;11586,310;  228,107;54563,473;20,90388
 736,52;11681,406;  236,723;54779,823;20,98283
 737,09;11645,041;  248,646;54388,712;21,04984
 737,66;11787,061;  286,030;54600,140;21,17503
 738,23;11857,696;  226,030;54758,721;21,32971
 738,80;11987,869;  307,722;55002,148;21,35528
 739,37;12015,965;  261,645;55128,652;21,42329
 739,94;12154,677;  236,953;55163,387;21,69761
 740,51;12327,235;  366,338;55300,507;21,77315
 741,07;12232,717;  233,722;55208,781;21,82625
 741,64;12398,275;  273,107;55394,054;21,99739
 742,21;12421,833;  238,722;55571,558;22,01787
 742,78;12418,698;  213,030;55299,755;22,15719
 743,35;12552,179;  232,183;55646,105;22,23267
 743,92;12734,430;  280,876;55889,379;22,39505
 744,49;12766,449;  273,183;55738,191;22,52459
 745,06;12731,007;  230,568;55709,695;22,53179
 745,63;12760,642;  223,029;55595,276;22,64241
 746,19;12823,893;  227,183;55560,858;22,76500
 746,76;12881,220;  236,798;55580,516;22,84708
 747,33;12980,624;  243,183;55549,020;23,03092
 747,90;13068,105;  263,798;55781,140;23,06362
 748,47;13122,356;  240,875;55719,336;23,21889
 749,04;13179,914;  244,567;55769,148;23,29661
 749,61;13280,395;  279,183;55687,729;23,46427
 750,17;13336,645;  265,413;55746,234;23,55991
 750,74;13331,511;  251,875;55801,200;23,54599
 751,31;13334,454;  232,413;55590,319;23,66788
 751,88;13418,319;  216,336;55543,208;23,86179
 752,45;13508,493;  231,490;55604,251;23,97750
 753,02;13550,974;  260,413;55423,140;24,09337
 753,58;13613,686;  232,490;55410,875;24,25079
 754,15;13650,936;  219,028;55610,918;24,24887
 754,72;13668,494;  230,028;55382,806;24,36589
 755,29;13695,822;  221,721;55210,541;24,50335
 755,86;13838,610;  253,490;55419,430;24,62592
 756,42;13913,707;  251,336;55133,781;24,89388
 756,99;13836,034;  215,182;55231,285;24,75794
 757,56;13944,746;  229,874;55230,405;24,93589
 758,13;13974,073;  179,951;55113,447;25,11058
 758,70;14090,631;  215,489;55279,875;25,19803
 759,26;14108,728;  202,643;55239,687;25,26677
 759,83;14202,440;  227,028;55372,883;25,34263
 760,40;14275,998;  210,566;55218,311;25,56991
 760,97;14295,017;  206,489;55244,353;25,59788
 761,53;14266,345;  185,643;54956,396;25,70843
 762,10;14329,595;  186,412;54850,362;25,87296
 762,67;14399,845;  214,489;54907,097;25,93651
 763,24;14344,788;  173,874;54437,601;26,11489
 763,80;14464,885;  207,797;54611,798;26,20595
 764,37;14497,212;  211,181;54580,148;26,27608
 764,94;14432,154;  197,258;54198,499;26,36031
 765,50;14472,866;  205,335;54206,695;26,42069
 766,07;14623,347;  237,489;54177,507;26,67010
 766,64;14512,059;  214,719;53884,319;26,63955
 767,21;14566,617;  213,873;53796,977;26,78595
 767,77;14631,483;  234,719;53682,943;26,93591
 768,34;14665,272;  223,950;53621,448;27,04494
 768,91;14679,368;  233,719;53493,260;27,12312
 769,47;14733,542;  232,488;53468,072;27,23940
 770,04;14737,715;  245,719;53389,037;27,26965
 770,61;14731,581;  219,180;53037,695;27,47597
 771,18;14767,908;  211,334;53017,969;27,56581
 771,74;14869,543;  226,873;53148,935;27,66837
 772,31;14892,332;  236,103;52924,131;27,81700
 772,88;14847,736;  205,796;52656,174;27,91580
 773,44;14847,987;  202,565;52564,832;27,96942
 774,01;14959,391;  233,796;52605,952;28,11722
 774,58;14969,795;  215,642;52376,456;28,28590
 775,14;15020,507;  208,411;52458,191;28,34863
 775,71;15045,603;  210,795;52348,926;28,45290
 776,27;15163,931;  273,641;52254,661;28,64563
 776,84;15329,797;  312,180;52286,243;28,89444
 777,41;15230,816;  226,411;52017,901;28,97079
 777,97;15209,836;  215,795;51779,713;29,07855
 778,54;15297,932;  231,641;52002,294;29,10199
 779,11;15325,644;  260,641;51813,490;29,22244
 779,67;15340,202;  216,487;51780,072;29,33022
 780,24;15344,222;  231,949;51504,576;29,47435
 780,80;15401,395;  235,949;51658,234;29,49197
 781,37;15486,415;  237,795;51581,200;29,69928
 781,94;15472,127;  230,948;51445,858;29,75926
 782,50;15520,915;  228,179;51259,670;29,96725
 783,07;15607,858;  257,564;51261,097;30,09653
 783,63;15607,185;  221,871;51107,909;30,23484
 784,20;15652,743;  248,179;51014,798;30,34388
 784,77;15554,378;  232,410;50773,302;30,31598
 785,33;15580,629;  210,102;50667,037;30,46266
 785,90;15691,187;  228,102;50623,926;30,68327
 786,46;15656,053;  256,102;50497,815;30,65172
 787,03;15613,149;  228,102;50236,243;30,76509
 787,59;15658,015;  232,563;50226,978;30,85435
 788,16;15731,650;  235,871;50217,020;31,00325
 788,73;15726,285;  236,409;50094,217;31,06810
 789,29;15634,612;  230,640;49793,875;31,07943
 789,86;15682,478;  258,178;49607,226;31,25552
 790,42;15665,267;  238,101;49520,038;31,30389
 790,99;15648,825;  241,871;49234,388;31,44757
 791,55;15682,998;  233,255;49198,969;31,55216
 792,12;15785,095;  270,794;49232,320;31,68672
 792,68;15671,883;  239,178;48915,901;31,70449
 793,25;15721,288;  249,409;48664,020;31,95704
 793,81;15718,307;  318,486;48265,909;32,11814
 794,38;15534,557;  209,870;48136,952;31,97501
 794,94;15657,654;  239,870;48136,610;32,18963
 795,51;15569,058;  243,255;47862,730;32,18390
 796,07;15578,155;  234,101;47650,696;32,36009
 796,64;15579,944;  262,870;47746,046;32,25790
 797,20;15569,348;  246,178;47193,089;32,63936
 797,77;15480,367;  215,408;46881,670;32,71091
 798,33;15424,541;  244,177;46734,251;32,65291
 798,90;15558,637;  251,485;46698,063;32,95647
 799,46;15398,965;  221,947;46181,798;33,02234
 800,03;15466,292;  244,100;46101,918;33,19432
 800,59;15347,773;  259,254;45974,191;33,00566
 801,15;15417,716;  253,023;45733,850;33,34304
 801,72;15226,812;  240,946;45340,585;33,22835
 802,28;15209,755;  267,946;45057,089;33,36034
 802,85;15192,620;  238,254;44917,132;33,47077
 803,41;15179,640;  228,562;44717,636;33,60618
 803,98;15101,890;  231,946;44265,909;33,76926
 804,54;15094,525;  234,331;44154,568;33,83450
 805,11;15024,007;  247,715;43862,841;33,87882
 805,67;15087,641;  262,254;43846,653;34,01535
 806,23;14972,661;  249,177;43371,003;34,14393
 806,80;15034,065;  260,023;43244,277;34,37082
 807,36;14972,316;  258,253;43238,243;34,23468
 807,93;14958,028;  267,176;43079,055;34,31489
 808,49;14946,201;  233,561;42628,559;34,70372
 809,05;14862,374;  231,561;42517,909;34,59938
 809,62;14892,625;  264,407;42372,183;34,73994
 810,18;14993,260;  250,638;42348,149;35,02017
 810,74;14866,202;  218,022;41992,576;35,06484
 811,31;14857,145;  227,407;41870,234;35,13147
 811,87;14878,703;  254,330;41773,046;35,22357
 812,44;14919,184;  268,176;41687,781;35,37216
 813,00;14791,742;  204,637;41421,439;35,39116
 813,56;14889,608;  255,176;41486,559;35,49343
 814,13;14947,935;  234,945;41479,140;35,67288
 814,69;14842,109;  243,099;41172,414;35,66884
 815,25;14780,513;  209,022;40779,533;35,91646
 815,82;14811,917;  260,637;40770,038;35,92075
 816,38;14842,398;  289,637;40586,696;36,11371
 816,94;14683,495;  226,637;40272,969;36,10033
 817,51;14545,437;  220,637;40085,166;35,93370
 818,07;14617,995;  221,022;39734,670;36,43545
 818,63;14543,400;  234,021;39568,482;36,37873
 819,20;14515,419;  245,329;39580,525;36,27817
 819,76;14447,362;  223,483;39195,260;36,49790
 820,32;14471,689;  248,252;39074,764;36,63331
 820,89;14405,016;  247,021;38918,807;36,61066
 821,45;14282,728;  217,406;38530,927;36,71112
 822,01;14322,286;  252,867;38313,739;36,96557
 822,57;14295,152;  252,559;38158,628;37,04576
 823,14;14193,249;  216,867;37916,132;37,07335
 823,70;14143,422;  220,021;37639,482;37,20898
 824,26;14090,903;  219,482;37478,602;37,22960
 824,82;14079,153;  256,867;37394,875;37,21871
 825,39;13985,173;  228,251;37042,534;37,36844
 825,95;14047,423;  238,328;37083,730;37,47848
 826,51;13848,443;  239,790;36697,234;37,32750
 827,08;13941,386;  270,251;36758,662;37,46706
 827,64;13857,251;  252,097;36598,781;37,43162
 828,20;13744,425;  214,867;36265,901;37,52890
 828,76;13811,137;  253,866;36258,636;37,65410
 829,32;13754,233;  261,251;36200,987;37,54335
 829,89;13695,330;  209,789;35935,106;37,74785
 830,45;13740,272;  237,482;36000,687;37,75610
 831,01;13702,830;  232,712;35591,269;38,09578
 831,57;13687,927;  240,328;35661,388;37,96498
 832,14;13698,639;  221,020;35632,585;38,05994
 832,70;13584,274;  219,558;35308,551;38,08806
 833,26;13686,755;  199,020;35184,824;38,55202
 833,82;13659,698;  229,404;35104,636;38,50955
 834,38;13646,256;  222,558;35095,140;38,49356
 834,95;13677,121;  213,635;35052,260;38,64529
 835,51;13576,372;  190,635;34868,072;38,60071
 836,07;13691,391;  234,173;34910,423;38,80817
 836,63;13706,103;  244,866;34946,158;38,79175
 837,19;13729,123;  234,558;34790,893;39,05092
 837,75;13641,065;  204,481;34431,166;39,25763
 838,32;13678,239;  244,942;34548,901;39,15961
 838,88;13788,182;  241,481;34645,175;39,37572
 839,44;13701,355;  248,865;34467,987;39,31279
 840,00;13661,067;  241,404;34451,337;39,22739
 840,56;13584,856;  222,404;34168,149;39,36414
 841,12;13613,337;  218,634;34182,961;39,43756
 841,68;13566,664;  196,173;33923,004;39,64349
 842,25;13570,068;  232,557;33917,970;39,59432
 842,81;13498,396;  204,942;33732,782;39,64900
 843,37;13539,031;  200,634;33731,594;39,77935
 843,93;13565,127;  227,557;33568,329;40,00378
 844,49;13575,916;  237,788;33657,910;39,91047
 845,05;13451,089;  187,557;33455,260;39,86910
 845,61;13541,647;  245,095;33466,918;40,02355
 846,17;13483,359;  222,172;33305,653;40,08401
 846,73;13473,148;  230,634;33273,542;40,07672
 847,29;13417,321;  211,326;33127,123;40,12054
 847,86;13461,418;  210,249;33033,859;40,37085
 848,42;13397,515;  223,095;32902,594;40,31402
 848,98;13476,226;  228,403;32852,098;40,60798
 849,54;13479,784;  214,633;32873,756;40,61699
 850,10;13403,266;  232,403;32833,183;40,40045
 850,66;13351,516;  212,326;32636,534;40,52278
 851,22;13376,382;  196,864;32571,269;40,70968
 851,78;13451,555;  250,018;32602,235;40,80567
 852,34;13388,805;  232,710;32403,047;40,89511
 852,90;13329,363;  216,556;32242,782;40,94397
 853,46;13275,383;  213,402;32069,671;41,00286
 854,02;13371,864;  231,787;32082,329;41,25543
 854,58;13287,576;  227,171;31738,910;41,44616
 855,14;13295,211;  217,941;31687,953;41,55470
 855,70;13181,384;  177,633;31580,226;41,40980
 856,26;13205,712;  226,171;31551,500;41,43465
 856,82;13135,962;  220,633;31325,773;41,52153
 857,38;13214,289;  247,940;31349,508;41,69034
 857,94;13109,001;  217,786;31077,320;41,77385
 858,50;13088,329;  258,940;31058,594;41,65433
 859,06;12994,425;  215,479;30823,713;41,75003
 859,62;13038,598;  231,709;30848,525;41,82959
 860,18;13035,233;  224,786;30541,876;42,25487
 860,74;12978,407;  197,325;30524,072;42,14459
 861,30;12889,196;  191,171;30301,807;42,17123
 861,86;13002,292;  272,632;30376,235;42,28617
 862,42;12899,466;  219,709;30222,431;42,26202
 862,98;12968,485;  257,247;30116,705;42,57022
 863,54;12880,659;  222,170;29941,901;42,59288
 864,10;12950,140;  223,093;30022,636;42,70886
 864,66;12822,467;  204,016;29791,295;42,64823
 865,22;12811,333;  215,939;29593,491;42,87421
 865,78;12836,275;  222,862;29471,842;43,12428
 866,34;12766,680;  213,170;29417,038;42,98578
 866,90;12766,392;  236,555;29302,158;43,10881
 867,45;12687,488;  230,785;29035,970;43,24466
 868,01;12636,046;  229,324;28878,936;43,30503
 868,57;12642,604;  217,862;28688,363;43,64076
 869,13;12579,470;  205,708;28673,560;43,46574
 869,69;12529,413;  214,400;28441,756;43,62793
 870,25;12538,355;  186,785;28315,337;43,91115
 870,81;12540,606;  220,400;28380,765;43,75016
 871,37;12524,164;  230,862;28330,577;43,74885
 871,93;12541,568;  238,939;28173,081;44,04155
 872,49;12421,895;  262,246;27799,893;44,15646
 873,04;12324,761;  205,477;27732,782;44,02641
 873,60;12327,780;  205,708;27540,440;44,34678
 874,16;12310,185;  232,400;27473,483;44,33665
 874,72;12223,569;  212,938;27433,175;44,12390
 875,28;12317,031;  219,708;27361,713;44,57048
 875,84;12301,646;  230,246;27350,483;44,51067
 876,40;12257,492;  211,631;27344,867;44,39523
 876,95;12262,954;  223,323;27303,098;44,45986
 877,51;12309,954;  246,323;27297,637;44,59536
 878,07;12432,646;  263,400;27292,483;45,02279
 878,63;12395,185;  222,169;27272,867;45,00074
 879,19;12386,646;  240,400;27318,867;44,85574
 879,75;12437,569;  207,554;27394,790;44,98440
 880,30;12544,185;  226,554;27456,252;45,23602
 880,86;12669,800;  267,246;27557,790;45,44634
 881,42;12649,569;  217,938;27581,175;45,43187
 881,98;12733,415;  227,785;27704,867;45,51295
 882,54;12794,877;  216,246;27817,637;45,57245
 883,09;12903,646;  237,400;27976,790;45,66159
 883,65;12975,262;  203,169;28121,944;45,74732
 884,21;13150,800;  251,323;28417,021;45,79853
 884,77;13185,031;  211,631;28439,637;45,95932
 885,32;13267,569;  221,938;28643,483;45,90050
 885,88;13443,646;  263,323;28852,944;46,10178
 886,44;13538,646;  227,015;28875,021;46,46617
 887,00;13563,108;  250,477;28933,944;46,41221
 887,56;13694,108;  225,323;29002,329;46,80398
 888,11;13810,108;  221,785;29072,483;47,09877
 888,67;13908,569;  256,785;29292,867;47,01662
 889,23;13898,569;  226,015;29292,867;47,03830
 889,79;13845,877;  210,323;29163,252;47,09559
 890,34;13911,492;  231,862;29147,252;47,30917
 890,90;14002,723;  299,554;29313,098;47,23025
 891,46;13962,108;  230,477;29165,790;47,45631
 892,01;14023,108;  241,631;29178,713;47,62566
 892,57;14004,108;  246,785;29092,252;47,69319
 893,13;13917,031;  211,400;28971,021;47,65581
 893,69;13838,492;  202,631;28899,713;47,51654
 894,24;13895,877;  230,400;28829,175;47,78343
 894,80;13837,877;  234,169;28582,867;47,98706
 895,36;13776,415;  226,477;28442,175;48,02269
 895,91;13728,646;  225,169;28280,560;48,13149
 896,47;13709,492;  242,708;28191,329;48,18408
 897,03;13568,646;  219,092;27945,252;48,14786
 897,58;13526,954;  244,246;27851,483;48,11314
 898,14;13498,877;  234,708;27640,483;48,39918
 898,70;13384,877;  202,092;27523,637;48,25051
 899,25;13424,031;  230,785;27537,021;48,31587
 899,81;13380,954;  245,477;27311,175;48,53182
 900,37;13265,800;  209,785;27044,790;48,65293
 900,92;13283,492;  231,938;27062,560;48,64425
 901,48;13209,108;  212,477;26888,790;48,71974
 902,03;13099,954;  222,477;26758,098;48,52902
 902,59;13062,338;  225,477;26678,944;48,52620
 903,15;13059,877;  239,477;26485,560;48,84691
 903,70;12919,954;  227,477;26196,021;48,87635
 904,26;12878,262;  227,400;26080,175;48,93425
 904,82;12946,338;  229,938;26143,560;49,07226
 905,37;12941,877;  234,708;26013,175;49,29373
 905,93;12830,031;  210,631;25805,867;49,30371
 906,48;12866,877;  231,708;25697,175;49,61688
 907,04;12884,415;  239,785;25643,637;49,77446
 907,60;12707,646;  240,708;25437,021;49,47922
 908,15;12598,954;  218,554;25329,021;49,30374
 908,71;12642,723;  249,246;25351,021;49,37291
 909,26;12552,877;  223,938;25228,867;49,30603
 909,82;12575,262;  235,169;25071,637;49,68538
 910,37;12545,723;  273,015;25014,175;49,60442
 910,93;12435,492;  216,631;24674,021;49,95979
 911,48;12377,569;  212,785;24616,867;49,84733
 912,04;12335,646;  213,631;24466,637;49,98150
 912,60;12402,338;  231,938;24515,560;50,11773
 913,15;12288,877;  239,092;24347,329;49,98202
 913,71;12145,877;  215,092;24093,252;49,96526
 914,26;12165,108;  190,938;24063,406;50,15891
 914,82;12138,108;  229,785;23958,329;50,18565
 915,37;12127,569;  214,323;23861,329;50,37951
 915,93;12133,723;  270,169;23812,637;50,39214
 916,48;11974,262;  216,938;23582,560;50,31890
 917,04;11934,800;  237,169;23521,021;50,23924
 917,59;11965,800;  257,631;23477,713;50,42260
 918,15;11781,031;  197,323;23245,021;50,25972
 918,70;11785,646;  219,092;23222,175;50,28263
 919,26;11804,877;  236,862;23058,560;50,68867
 919,81;11719,954;  207,862;22928,175;50,66872
 920,37;11787,646;  218,938;22839,483;51,14248
 920,92;11712,031;  261,400;22781,021;50,84735
 921,48;11583,415;  199,785;22525,637;50,98856
 922,03;11662,185;  205,477;22530,098;51,31871
 922,59;11557,185;  225,246;22402,483;51,09716
 923,14;11590,031;  224,785;22233,406;51,63997
 923,69;11576,031;  250,015;22170,252;51,66922
 924,25;11612,569;  245,938;22132,098;51,93525
 924,80;11487,800;  219,862;21961,790;51,82585
 925,36;11454,569;  207,631;21846,406;51,97586
 925,91;11392,108;  224,015;21753,175;51,87426
 926,47;11340,646;  202,323;21673,637;51,87537
 927,02;11373,415;  285,862;21626,944;51,95404
 927,57;11250,800;  214,092;21334,329;52,25655
 928,13;11244,954;  210,092;21322,713;52,26666
 928,68;11247,723;  229,092;21243,560;52,43355
 929,24;11173,569;  191,092;21028,867;52,70465
 929,79;11139,646;  206,323;20950,252;52,70613
 930,34;11025,723;  220,477;20785,021;52,54309
 930,90;11044,108;  214,015;20762,790;52,70432
 931,45;11068,646;  226,554;20754,021;52,81749
 932,01;10986,954;  234,785;20661,098;52,63881
 932,56;10936,492;  246,246;20478,175;52,83849
 933,11;10923,800;  252,169;20502,867;52,69759
 933,67;10868,108;  219,092;20311,867;52,99923
 934,22;10846,415;  216,477;20255,790;53,04542
 934,77;10787,954;  252,708;20143,560;52,96528
 935,33;10750,185;  227,092;20010,944;53,19031
 935,88;10812,031;  235,862;19929,021;53,70479
 936,43;10731,723;  227,862;19856,175;53,51383
 936,99;10661,492;  232,554;19695,560;53,58339
 937,54;10607,800;  212,169;19608,867;53,59485
 938,09;10583,723;  239,554;19555,637;53,55211
 938,65;10513,031;  232,400;19423,175;53,57069
 939,20;10493,338;  206,323;19300,175;53,87606
 939,75;10463,800;  204,323;19170,329;54,09403
 940,31;10469,569;  211,246;19116,713;54,26115
 940,86;10488,954;  227,015;19065,944;54,47198
 941,41;10385,877;  313,400;19135,406;53,51437
 941,96;10351,338;  210,477;18889,329;54,29060
 942,52;10282,646;  217,631;18806,790;54,14454
 943,07;10258,415;  201,785;18710,637;54,33417
 943,62;10262,415;  212,477;18644,637;54,52393
 944,18;10248,185;  203,323;18555,406;54,73418
 944,73;10242,723;  220,477;18409,175;55,10150
 945,28;10122,569;  191,554;18242,944;55,01524
 945,83;10139,185;  207,323;18343,175;54,76369
 946,39;10132,108;  213,246;18264,790;54,94744
 946,94;10157,262;  245,246;18136,175;55,40246
 947,49;10085,800;  209,169;18047,329;55,36799
 948,04;10073,800;  256,554;17943,329;55,50614
 948,59;10013,492;  240,169;17960,867;55,15202
 949,15; 9978,877;  203,400;17842,867;55,41821
 949,70; 9972,108;  214,092;17716,252;55,75321
 950,25; 9953,723;  239,169;17592,329;55,98147
 950,80; 9927,877;  185,323;17440,483;56,46168
 951,36; 9869,877;  193,015;17370,175;56,33563
 951,91; 9939,954;  233,477;17399,098;56,54603
 952,46; 9795,492;  199,554;17230,098;56,34546
 953,01; 9856,723;  226,631;17255,406;56,55188
 953,56; 9769,646;  195,169;17099,021;56,64080
 954,11; 9733,185;  222,554;17028,406;56,59119
 954,67; 9710,492;  214,862;16967,560;56,68120
 955,22; 9658,877;  200,015;16814,560;56,93121
 955,77; 9667,108;  248,400;16765,560;57,02377
 956,32; 9647,108;  270,400;16704,406;57,05674
 956,87; 9535,723;  207,092;16558,944;57,04938
 957,42; 9599,262;  215,631;16537,944;57,48959
 957,98; 9520,877;  208,554;16381,713;57,57887
 958,53; 9560,492;  245,938;16348,790;57,84413
 959,08; 9493,954;  204,708;16229,175;57,96914
 959,63; 9485,415;  212,246;16089,483;58,40544
 960,18; 9444,646;  223,708;16043,560;58,28714
 960,73; 9461,646;  225,169;16017,560;58,48688
 961,28; 9436,646;  193,554;15881,175;58,91966
 961,83; 9380,492;  243,323;15852,098;58,53867
 962,39; 9267,954;  196,938;15762,329;58,27683
 962,94; 9309,185;  235,400;15630,944;58,93773
 963,49; 9213,338;  215,785;15523,713;58,77708
 964,04; 9180,569;  235,785;15473,329;58,70227
 964,59; 9147,800;  194,015;15376,175;58,97570
 965,14; 9170,723;  239,554;15334,713;59,16578
 965,69; 9088,185;  219,015;15295,098;58,82940
 966,24; 9061,415;  206,631;15172,560;59,16629
 966,79; 9017,954;  224,323;15031,790;59,38646
 967,34; 8928,954;  190,169;14944,867;59,22713
 967,89; 8929,031;  216,400;14881,867;59,40916
 968,44; 8878,954;  218,400;14821,252;59,30728
 968,99; 8819,185;  226,862;14712,790;59,31496
 969,55; 8808,185;  218,554;14667,406;59,44853
 970,10; 8735,954;  226,708;14514,637;59,55549
 970,65; 8722,800;  239,092;14459,329;59,65940
 971,20; 8702,723;  211,631;14306,867;60,24086
 971,75; 8569,338;  197,169;14216,021;59,72079
 972,30; 8568,646;  219,092;14145,175;59,95623
 972,85; 8531,877;  204,554;14088,021;59,98014
 973,40; 8492,031;  203,708;13950,560;60,29252
 973,95; 8437,569;  227,554;13891,406;60,08566
 974,50; 8488,492;  248,323;13904,406;60,34065
 975,05; 8375,954;  211,785;13704,483;60,50806
 975,60; 8381,338;  228,862;13682,175;60,59828
 976,15; 8306,492;  212,477;13600,944;60,45513
 976,70; 8305,569;  226,862;13493,637;60,89428
 977,25; 8259,262;  235,246;13457,867;60,68400
 977,80; 8182,415;  208,554;13293,098;60,94107
 978,35; 8107,646;  234,708;13092,175;61,23242
 978,89; 8067,723;  201,169;13054,560;61,20217
 979,44; 8093,108;  223,862;13040,021;61,40097
 979,99; 7946,877;  212,169;12829,867;61,30047
 980,54; 7922,108;  246,785;12840,637;60,94500
 981,09; 7939,646;  242,938;12647,713;62,04633
 981,64; 7836,108;  228,708;12520,406;61,89055
 982,19; 7799,492;  270,246;12500,713;61,56139
 982,74; 7744,877;  234,477;12373,713;61,86880
 983,29; 7658,723;  200,092;12258,944;61,85191
 983,84; 7645,108;  232,554;12145,329;62,22357
 984,39; 7681,415;  298,862;12130,406;62,39721
 984,94; 7518,569;  205,323;11949,867;62,26931
 985,49; 7459,031;  245,862;11916,483;61,80622
 986,03; 7410,800;  243,015;11837,252;61,82196
 986,58; 7388,185;  282,477;11682,944;62,32821
 987,13; 7274,108;  212,015;11573,252;62,15954
 987,68; 7235,185;  241,554;11430,098;62,50707
 988,23; 7230,031;  243,477;11445,406;62,36920
 988,78; 7162,415;  210,400;11289,560;62,74858
 989,33; 7111,031;  248,477;11125,483;63,09231
 989,88; 7056,723;  258,169;11165,790;62,32847
 990,42; 7002,108;  230,708;10973,713;63,03078
 990,97; 6914,954;  213,092;10828,329;63,13436
 991,52; 6907,338;  241,246;10779,329;63,25716
 992,07; 6877,108;  258,631;10725,790;63,23088
 992,62; 6749,646;  235,554;10580,175;62,97082
 993,17; 6702,569;  240,092;10459,483;63,23740
 993,71; 6642,492;  243,092;10406,483;62,96521
 994,26; 6550,492;  219,092;10208,944;63,37832
 994,81; 6553,108;  253,323;10201,021;63,32907
 995,36; 6432,492;  215,785;10082,483;63,00697
 995,91; 6463,954;  230,246; 9978,713;63,94552
 996,45; 6383,646;  232,631; 9855,867;63,91836
 997,00; 6261,723;  200,708; 9710,098;63,73716
 997,55; 6215,185;  244,938; 9694,021;63,18334
 998,10; 6211,569;  249,323; 9601,713;63,75104
 998,65; 6111,185;  228,323; 9486,098;63,54509
 999,19; 6120,800;  248,246; 9399,483;64,17224
 999,74; 5995,031;  259,708; 9297,560;63,45892
1000,29; 5938,954;  239,246; 9177,790;63,76550
1000,84; 5897,569;  226,938; 9035,790;64,37423
1001,38; 5828,800;  233,169; 8965,175;64,08185
1001,93; 5794,569;  245,554; 8920,790;63,96385
1002,48; 5720,031;  206,400; 8758,098;64,47410
1003,03; 5695,031;  239,938; 8675,252;64,66970
1003,57; 5632,492;  242,554; 8621,483;64,32730
1004,12; 5627,185;  260,631; 8573,406;64,55791
1004,67; 5552,262;  224,246; 8447,790;64,78977
1005,22; 5418,185;  221,400; 8250,406;64,72513
1005,76; 5355,569;  210,554; 8124,329;65,01342
1006,31; 5368,415;  243,938; 8095,790;65,26456
1006,86; 5244,569;  216,246; 7914,713;65,31590
1007,40; 5189,108;  211,246; 7821,021;65,41404
1007,95; 5106,723;  227,708; 7688,483;65,39556
1008,50; 5030,108;  238,323; 7620,637;64,90898
1009,04; 4968,185;  230,246; 7458,483;65,54764
1009,59; 4921,569;  232,015; 7371,252;65,68705
1010,14; 4828,877;  220,169; 7282,713;65,25563
1010,68; 4784,262;  233,708; 7158,560;65,71337
1011,23; 4723,800;  235,092; 7054,790;65,81974
1011,78; 4674,723;  253,246; 6960,713;65,91872
1012,32; 4632,723;  252,400; 6872,252;66,16950
1012,87; 4624,338;  257,246; 6859,790;66,14257
1013,42; 4505,954;  220,169; 6710,021;66,03825
1013,96; 4562,262;  254,708; 6728,944;66,53377
1014,51; 4479,723;  192,938; 6595,790;66,95118
1015,06; 4499,800;  199,938; 6633,406;66,83583
1015,60; 4563,800;  276,477; 6714,790;66,59078
1016,15; 4552,415;  222,631; 6685,406;66,99575
1016,69; 4565,262;  226,400; 6689,867;67,12901
1017,24; 4584,185;  203,554; 6703,637;67,39346
1017,79; 4669,492;  266,938; 6809,637;67,28958
1018,33; 4699,108;  225,323; 6806,406;67,97946
1018,88; 4785,338;  242,323; 6915,021;68,08363
1019,42; 4783,415;  235,708; 6899,560;68,24443
1019,97; 4792,031;  222,015; 6909,098;68,34094
1020,51; 4888,954;  259,400; 7042,944;68,24683
1021,06; 4822,031;  198,631; 6987,560;68,10205
1021,61; 4866,569;  185,938; 6998,406;68,70684
1022,15; 4838,800;  176,862; 6896,175;69,38117
1022,70; 4889,800;  222,323; 6941,560;69,46439
1023,24; 4847,954;  209,169; 6894,560;69,38689
1023,79; 4809,262;  234,246; 6823,175;69,43489
1024,33; 4776,800;  225,554; 6770,098;69,54260
1024,88; 4723,800;  233,477; 6724,021;69,18254
1025,42; 4696,338;  234,400; 6536,021;70,80620
1025,97; 4601,569;  214,400; 6473,713;70,09026
1026,51; 4499,108;  196,400; 6368,867;69,70807
1027,06; 4460,338;  216,631; 6318,252;69,55049
1027,60; 4395,108;  228,631; 6212,713;69,62599
1028,15; 4351,338;  241,785; 6148,329;69,57628
1028,69; 4259,185;  198,708; 5937,483;70,75512
1029,24; 4208,877;  219,323; 5908,329;70,12744
1029,78; 4170,185;  204,708; 5835,560;70,42410
1030,33; 4068,646;  197,323; 5678,790;70,62567
1030,87; 4057,646;  208,862; 5635,637;70,92213
1031,42; 3971,338;  192,862; 5513,867;71,01058
1031,96; 3928,646;  236,785; 5473,098;70,50498
1032,51; 3855,800;  203,938; 5401,867;70,25609
1033,05; 3854,646;  216,400; 5335,790;71,06796
1033,60; 3739,338;  198,938; 5221,406;70,49125
1034,14; 3727,723;  221,400; 5148,098;71,16984
1034,69; 3668,108;  213,785; 5084,867;70,91489
1035,23; 3612,954;  214,708; 5009,944;70,86712
1035,77; 3584,031;  220,092; 4922,944;71,52976
1036,32; 3519,800;  197,477; 4838,790;71,58153
1036,86; 3520,031;  223,169; 4806,021;71,93908
1037,41; 3429,262;  232,400; 4710,483;71,38907
1037,95; 3397,108;  191,092; 4640,175;72,06014
1038,50; 3350,723;  209,323; 4594,790;71,63205
1039,04; 3332,800;  231,246; 4555,713;71,72106
1039,58; 3238,800;  200,477; 4461,252;71,30917
1040,13; 3229,492;  210,246; 4394,790;72,15233
1040,67; 3221,800;  244,323; 4399,637;71,65469
1041,21; 3207,492;  247,554; 4267,867;73,62457
1041,76; 3100,415;  202,554; 4193,175;72,61680
1042,30; 3109,492;  207,631; 4173,713;73,16694
1042,85; 3029,262;  215,323; 4094,175;72,54565
1043,39; 3002,569;  195,323; 3985,944;74,05768
1043,93; 2985,262;  242,015; 3993,637;73,12162
1044,48; 2926,338;  227,015; 3932,483;72,84704
1045,02; 2860,877;  211,785; 3880,021;72,21705
1045,56; 2869,492;  240,708; 3851,021;72,81320
1046,11; 2827,185;  227,554; 3785,406;73,06742
1046,65; 2796,415;  229,477; 3706,406;73,82775
1047,19; 2747,492;  212,938; 3668,637;73,34419
1047,74; 2692,031;  195,862; 3568,944;74,00261
1048,28; 2701,108;  224,400; 3561,252;74,22288
1048,82; 2668,338;  249,938; 3558,790;73,08880
1049,37; 2639,569;  236,400; 3450,867;74,76104
1049,91; 2580,415;  225,092; 3414,560;73,84691
1050,45; 2549,800;  239,169; 3391,637;73,29595
1050,99; 2515,877;  219,246; 3353,483;73,27560
1051,54; 2476,954;  213,169; 3251,175;74,51548
1052,08; 2464,185;  249,938; 3258,098;73,60800
1052,62; 2422,415;  241,323; 3228,790;73,00807
1053,16; 2382,569;  220,554; 3136,867;74,13522
1053,71; 2370,800;  226,092; 3101,252;74,59439
1054,25; 2316,031;  244,169; 3059,867;73,58252
1054,79; 2273,185;  237,246; 3008,252;73,47291
1055,33; 2246,185;  200,092; 2939,637;74,68733
1055,88; 2240,262;  239,400; 2941,098;74,05941
1056,42; 2227,723;  237,477; 2872,252;75,53761
1056,96; 2185,415;  247,015; 2844,483;74,62654
1057,50; 2156,877;  230,477; 2794,098;75,14371
1058,05; 2126,723;  230,015; 2762,252;74,90247
1058,59; 2108,338;  247,938; 2739,252;74,67547
1059,13; 2033,569;  213,708; 2670,175;74,08450
1059,67; 2064,415;  235,015; 2639,175;76,09312
1060,21; 2018,415;  232,092; 2573,098;76,30580
1060,76; 1990,415;  239,554; 2571,329;75,08707
1061,30; 1994,031;  259,400; 2576,329;74,86768
1061,84; 1952,569;  232,938; 2493,406;76,07413
1062,38; 1892,262;  217,477; 2432,329;75,61610
1062,92; 1933,108;  267,708; 2475,637;75,42816
1063,46; 1871,954;  250,323; 2372,560;76,41141
1064,01; 1847,338;  219,169; 2363,944;75,91329
1064,55; 1837,185;  244,477; 2310,790;77,07967
1065,09; 1788,262;  210,400; 2239,329;77,76820
1065,63; 1799,415;  252,554; 2300,790;75,52163
1066,17; 1811,954;  258,323; 2235,637;78,57281
1066,71; 1790,492;  252,015; 2232,252;77,69157
1067,25; 1728,185;  233,169; 2154,790;77,79969
1067,80; 1724,108;  250,554; 2176,867;76,49606
1068,34; 1709,800;  262,323; 2144,560;76,90197
1068,88; 1646,031;  220,246; 2092,483;76,15409
1069,42; 1669,108;  250,246; 2101,252;76,65354
1069,96; 1627,185;  231,092; 2018,713;78,09777
1070,50; 1650,954;  260,092; 2062,713;77,15773
1071,04; 1586,569;  223,169; 1975,252;77,81596
1071,58; 1569,877;  233,092; 1960,560;77,38408
1072,12; 1558,108;  234,554; 1946,560;77,31013
1072,66; 1543,338;  241,785; 1936,021;76,82244
1073,21; 1554,569;  253,246; 1939,098;77,19083
1073,75; 1523,415;  239,862; 1893,790;77,60635
1074,29; 1488,954;  239,708; 1876,637;76,31646
1074,83; 1482,800;  262,092; 1872,329;75,80922
1075,37; 1475,877;  259,631; 1832,483;77,32744
1075,91; 1460,185;  247,631; 1794,790;78,37290
1076,45; 1429,492;  247,785; 1770,790;77,59049
1076,99; 1419,262;  258,938; 1749,483;77,84560
1077,53; 1384,415;  231,323; 1710,790;77,93970
1078,07; 1387,723;  243,477; 1723,560;77,30961
1078,61; 1381,954;  241,400; 1669,637;79,85749
1079,15; 1355,262;  234,246; 1688,867;77,06580
1079,69; 1359,877;  240,785; 1637,944;80,09767
1080,23; 1346,723;  253,323; 1646,867;78,46181
1080,77; 1371,262;  301,938; 1673,175;77,98239
1081,31; 1284,877;  230,092; 1598,175;77,09948
1081,85; 1314,800;  247,323; 1598,560;79,00000
1082,39; 1277,108;  235,631; 1560,329;78,61995
1082,93; 1267,646;  250,554; 1558,867;77,74072
1083,47; 1227,185;  225,938; 1506,867;78,16563
1084,01; 1253,031;  253,938; 1542,560;77,53189
1084,55; 1226,646;  232,554; 1488,713;79,13742
1085,09; 1231,492;  255,938; 1486,175;79,29807
1085,63; 1219,800;  252,477; 1455,944;80,37801
1086,17; 1190,877;  235,708; 1415,021;80,99367
1086,71; 1164,108;  219,246; 1411,175;79,27164
1087,24; 1204,338;  262,938; 1429,406;80,70522
1087,78; 1182,492;  251,092; 1379,944;82,50861
1088,32; 1135,800;  232,554; 1339,021;81,63333
1088,86; 1138,800;  253,554; 1374,944;78,94184
1089,40; 1126,569;  249,477; 1351,944;79,55722
1089,94; 1103,338;  218,092; 1316,560;80,58921
1090,48; 1104,877;  249,631; 1314,713;80,29857
1091,02; 1094,262;  255,015; 1325,867;78,37182
1091,56; 1090,646;  245,400; 1297,560;80,33440
1092,10; 1043,569;  220,785; 1261,329;79,07253
1092,63; 1080,185;  260,862; 1278,713;80,49531
1093,17; 1057,338;  253,246; 1245,252;81,05722
1093,71; 1037,031;  226,246; 1209,637;82,44789
1094,25; 1045,415;  260,092; 1220,021;81,81055
1094,79; 1000,646;  245,631; 1188,944;80,03865
1095,33; 1010,108;  252,246; 1185,790;81,18111
1095,87; 1011,338;  239,631; 1191,252;81,09400
1096,40;  963,338;  224,862; 1149,944;79,82821
1096,94;  976,646;  245,169; 1150,021;80,83941
1097,48;  997,569;  254,169; 1153,483;82,66306
1098,02;  959,338;  244,477; 1105,483;83,02634
1098,56;  917,415;  217,862; 1080,021;81,13971
1099,10;  911,492;  213,938; 1066,790;81,79073
1099,63;  898,569;  221,323; 1071,175;79,68990
1100,17;  919,723;  239,708; 1075,329;81,37843
1100,71;  921,723;  261,169; 1095,329;79,18794

