
Integration time [ms]: 140,000
Averaging Nr. [scans]: 13
Smoothing Nr. [pixels]: 0
Data measured with spectrometer [name]: 2009305U1
Wave   ;Sample   ;Dark     ;Reference;Reflectance
[nm]   ;[counts] ;[counts] ;[counts] ;[%]

 175,72;  203,492;  185,479;  195,256;184,24680
 176,32;  239,968;  214,863;  213,589; 0,00000
 176,92;  264,874;  238,402;  244,147;460,76175
 177,52;  251,867;  239,171;  255,101;79,69973
 178,12;  252,188;  218,325;  215,567; 0,00000
 178,72;  268,777;  248,709;  238,776; 0,00000
 179,32;  261,186;  248,094;  241,542; 0,00000
 179,92;  261,320;  235,094;  233,146; 0,00000
 180,52;  241,223;  229,480;  243,972;81,03115
 181,12;  255,272;  244,710;  253,779;116,46879
 181,73;  284,905;  269,479;  266,724; 0,00000
 182,33;  372,869;  325,403;  327,235;2590,67953
 182,93;  268,584;  264,325;  263,605; 0,00000
 183,53;  246,064;  235,709;  223,292; 0,00000
 184,13;  244,815;  236,093;  221,711; 0,00000
 184,73;  286,289;  251,478;  257,984;535,07184
 185,33;  267,514;  223,703;  341,427;37,21531
 185,93;  271,684;  228,779;  366,740;31,09947
 186,53;  288,959;  248,010;  359,067;36,87245
 187,13;  312,151;  274,472;  411,352;27,52689
 187,73;  270,676;  238,933;  352,642;27,91624
 188,33;  278,503;  238,856;  363,204;31,88395
 188,93;  300,184;  245,547;  371,130;43,50643
 189,53;  292,994;  249,392;  378,224;33,84455
 190,13;  330,903;  273,390;  396,734;46,62850
 190,73;  279,021;  223,776;  357,743;41,23763
 191,34;  306,345;  262,315;  381,146;37,05242
 191,94;  277,136;  235,624;  353,574;35,19404
 192,54;  301,436;  242,088;  410,064;35,33083
 193,14;  298,340;  255,626;  389,518;31,90152
 193,74;  295,679;  251,934;  380,684;33,97696
 194,34;  296,297;  243,165;  382,870;38,03182
 194,94;  254,519;  214,165;  356,176;28,41595
 195,54;  247,259;  209,241;  329,743;31,54986
 196,14;  252,998;  217,550;  352,435;26,28021
 196,74;  258,148;  216,472;  355,469;29,98372
 197,34;  234,380;  190,627;  347,445;27,90037
 197,94;  259,921;  220,165;  381,711;24,61005
 198,54;  270,292;  222,703;  386,849;28,99188
 199,14;  243,047;  222,781;  387,587;12,29652
 199,74;  243,252;  196,320;  389,699;24,26983
 200,34;  239,308;  191,781;  399,400;22,89158
 200,94;  268,630;  212,858;  445,923;23,93009
 201,54;  250,258;  205,396;  445,617;18,67527
 202,14;  288,844;  216,397;  481,328;27,34570
 202,74;  264,802;  214,089;  491,643;18,27139
 203,34;  240,437;  199,243;  512,548;13,14814
 203,94;  225,719;  171,089;  515,499;15,86195
 204,54;  309,681;  235,472;  607,818;19,92992
 205,14;  248,264;  201,243;  625,848;11,07421
 205,74;  308,871;  225,936;  717,479;16,87255
 206,34;  286,164;  196,166;  752,632;16,17311
 206,94;  289,363;  197,781;  803,742;15,11355
 207,54;  267,790;  181,935;  836,884;13,10866
 208,14;  282,372;  196,166;  931,384;11,72518
 208,74;  289,121;  213,243; 1002,408; 9,61507
 209,34;  301,382;  187,704; 1131,861;12,04016
 209,94;  313,265;  214,396; 1205,746; 9,97316
 210,54;  327,723;  211,320; 1331,090;10,39530
 211,14;  351,854;  212,550; 1444,831;11,30452
 211,73;  341,268;  205,396; 1570,587; 9,95259
 212,33;  368,425;  217,781; 1692,428;10,21560
 212,93;  367,248;  198,550; 1777,647;10,68320
 213,53;  353,173;  179,627; 1863,519;10,30625
 214,13;  391,001;  180,167; 1947,134;11,93198
 214,73;  374,767;  186,704; 1956,174;10,62820
 215,33;  358,573;  160,858; 1986,361;10,83071
 215,93;  415,357;  193,628; 2151,394;11,32562
 216,53;  379,593;  156,858; 2213,685;10,82905
 217,13;  448,609;  203,551; 2475,000;10,78861
 217,73;  474,076;  187,320; 2705,924;11,38552
 218,33;  461,339;  139,013; 2915,972;11,60714
 218,93;  522,991;  178,937; 3285,822;11,07393
 219,53;  561,390;  189,397; 3601,083;10,90350
 220,13;  589,834;  162,628; 3919,631;11,37092
 220,73;  645,831;  187,627; 4345,430;11,02033
 221,32;  717,891;  177,781; 4807,485;11,66618
 221,92;  772,512;  169,705; 5226,097;11,92167
 222,52;  808,681;  170,320; 5728,902;11,48423
 223,12;  881,990;  178,166; 6210,697;11,66714
 223,72;  933,196;  189,705; 6609,886;11,58054
 224,32;  978,147;  185,090; 7038,082;11,57243
 224,92; 1007,121;  176,013; 7429,681;11,45777
 225,52; 1077,031;  194,551; 7914,699;11,43087
 226,12; 1115,544;  189,320; 8156,380;11,62566
 226,72; 1138,580;  153,089; 8544,829;11,74358
 227,31; 1159,323;  151,397; 8937,273;11,47212
 227,91; 1233,220;  173,781; 9431,250;11,44415
 228,51; 1288,583;  178,242; 9836,402;11,49640
 229,11; 1329,437;  175,705;10277,773;11,42075
 229,71; 1379,016;  173,935;10569,057;11,59276
 230,31; 1424,642;  164,936;10971,690;11,65666
 230,91; 1433,584;  158,704;11316,961;11,42545
 231,51; 1509,820;  165,782;11651,599;11,70172
 232,10; 1553,595;  152,244;11950,374;11,87774
 232,70; 1579,605;  182,934;12128,177;11,69228
 233,30; 1659,893;  207,551;12409,368;11,90267
 233,90; 1630,098;  177,705;12542,581;11,74612
 234,50; 1636,191;  175,705;12624,090;11,73234
 235,10; 1630,429;  175,936;12587,604;11,71876
 235,70; 1703,693;  192,012;12589,246;12,19370
 236,29; 1667,466;  189,396;12470,908;12,03492
 236,89; 1634,933;  161,781;12355,974;12,08077
 237,49; 1643,454;  179,012;12190,487;12,19202
 238,09; 1599,625;  177,474;11885,708;12,14659
 238,69; 1614,434;  191,550;11608,161;12,46328
 239,29; 1529,366;  167,243;11324,076;12,20886
 239,89; 1516,959;  185,934;10841,376;12,49150
 240,48; 1453,138;  171,089;10430,461;12,49637
 241,08; 1403,030;  164,550; 9925,725;12,68781
 241,68; 1402,281;  193,704; 9670,747;12,75267
 242,28; 1353,981;  166,243; 9327,389;12,96495
 242,88; 1366,207;  200,551; 8918,630;13,37055
 243,48; 1336,479;  205,858; 8599,299;13,47028
 244,07; 1292,809;  186,320; 8384,233;13,49721
 244,67; 1306,937;  192,705; 8187,529;13,93692
 245,27; 1293,037;  202,012; 8095,587;13,82169
 245,87; 1320,870;  194,474; 7980,459;14,46696
 246,47; 1331,217;  192,781; 7916,835;14,73884
 247,06; 1339,891;  177,243; 7990,336;14,88077
 247,66; 1361,115;  177,474; 8048,290;15,03835
 248,26; 1437,541;  214,473; 8269,036;15,18478
 248,86; 1491,090;  189,012; 8400,903;15,85601
 249,46; 1526,306;  144,551; 8617,949;16,30698
 250,05; 1655,188;  196,243; 9060,084;16,45951
 250,65; 1715,239;  167,858; 9437,415;16,69315
 251,25; 1844,016;  178,320; 9988,396;16,97944
 251,85; 1981,689;  171,858;10651,004;17,27079
 252,44; 2124,172;  140,627;11248,852;17,85654
 253,04; 2326,754;  195,781;12089,583;17,91667
 253,64; 2467,735;  142,242;12890,197;18,24209
 254,24; 2710,213;  194,627;13790,358;18,50276
 254,84; 2936,844;  169,089;14803,334;18,91287
 255,43; 3169,751;  179,396;15864,429;19,06502
 256,03; 3429,891;  190,396;16954,300;19,32423
 256,63; 3679,215;  182,088;18131,034;19,48374
 257,23; 3880,870;  168,319;18989,457;19,72543
 257,82; 4145,918;  182,703;20170,973;19,82770
 258,42; 4346,409;  146,242;20962,190;20,17764
 259,02; 4652,612;  187,627;21970,194;20,49797
 259,62; 4816,404;  170,934;22616,087;20,69698
 260,21; 4970,416;  188,243;23208,899;20,77340
 260,81; 5100,363;  174,935;23814,389;20,83562
 261,41; 5226,453;  165,626;24249,895;21,01300
 262,01; 5385,640;  206,780;24823,697;21,03781
 262,60; 5447,562;  166,088;25190,303;21,10545
 263,20; 5562,742;  174,473;25501,198;21,27503
 263,80; 5627,960;  190,934;25666,154;21,34241
 264,40; 5668,592;  162,011;25910,561;21,38599
 264,99; 5720,266;  187,703;26077,975;21,36927
 265,59; 5723,011;  167,779;26263,178;21,28817
 266,19; 5776,473;  155,703;26358,343;21,45116
 266,78; 5845,012;  211,241;26526,645;21,40864
 267,38; 5739,401;  182,856;26574,819;21,05393
 267,98; 5778,039;  174,933;26521,482;21,26694
 268,58; 5734,375;  183,549;26637,110;20,98329
 269,17; 5719,523;  172,010;26578,078;21,00848
 269,77; 5682,619;  184,627;26360,820;21,00379
 270,37; 5581,816;  154,395;26285,663;20,76983
 270,96; 5547,751;  216,088;26114,464;20,58686
 271,56; 5445,496;  183,011;25847,017;20,50531
 272,16; 5338,002;  177,242;25662,532;20,24996
 272,75; 5322,196;  170,319;25533,878;20,31212
 273,35; 5266,074;  189,934;25558,768;20,00935
 273,95; 5224,479;  176,473;25489,682;19,94218
 274,54; 5178,354;  152,012;25534,849;19,80213
 275,14; 5243,088;  193,550;26005,943;19,56246
 275,74; 5169,734;  158,472;26014,058;19,38174
 276,33; 5299,734;  197,242;26447,525;19,43786
 276,93; 5310,666;  182,858;26857,798;19,22332
 277,53; 5391,441;  180,935;27406,403;19,13835
 278,12; 5432,245;  159,781;27918,410;18,99396
 278,72; 5629,118;  202,935;28556,100;19,13784
 279,32; 5694,719;  173,319;29138,181;19,06241
 279,91; 5790,021;  163,473;29950,309;18,88938
 280,51; 5928,840;  178,243;30461,040;18,98965
 281,11; 6074,457;  177,781;31261,061;18,97057
 281,70; 6145,634;  161,012;31734,847;18,95437
 282,30; 6310,343;  157,704;32402,786;19,08086
 282,90; 6424,457;  169,781;32829,260;19,15118
 283,49; 6577,356;  186,319;33285,956;19,30848
 284,09; 6682,811;  205,704;33770,223;19,29748
 284,69; 6787,858;  200,627;34065,929;19,45127
 285,28; 6927,682;  185,858;34456,727;19,67217
 285,88; 7067,194;  214,319;34623,622;19,91576
 286,47; 7096,252;  180,396;34740,226;20,01125
 287,07; 7245,128;  205,627;34790,839;20,35408
 287,67; 7369,556;  186,089;34931,222;20,67474
 288,26; 7493,358;  187,242;34812,403;21,10060
 288,86; 7602,466;  168,396;34889,979;21,41051
 289,46; 7799,510;  190,242;35024,454;21,84424
 290,05; 8018,887;  176,320;35064,746;22,47899
 290,65; 8258,505;  171,627;35334,474;22,99836
 291,24; 8467,772;  183,858;35382,728;23,53460
 291,84; 8706,522;  195,550;35559,419;24,06686
 292,44; 8917,379;  176,474;35643,051;24,64547
 293,03; 9229,297;  237,166;35704,989;25,35293
 293,63; 9312,201;  174,011;35930,474;25,55675
 294,22; 9535,547;  201,012;36147,108;25,96815
 294,82; 9679,376;  173,780;36066,967;26,48301
 295,41; 9677,941;  160,627;35770,539;26,72659
 296,01; 9824,756;  215,934;35568,408;27,18005
 296,61; 9842,553;  189,242;35304,185;27,49061
 297,20; 9764,232;  185,934;34895,865;27,59527
 297,80; 9751,110;  192,474;34654,879;27,73642
 298,39; 9704,074;  161,011;34265,466;27,98187
 298,99; 9664,777;  188,242;34203,943;27,85930
 299,58; 9597,424;  194,935;33946,341;27,85806
 300,18; 9561,388;  208,474;33765,785;27,87147
 300,78; 9415,315;  167,089;33266,446;27,94080
 301,37; 9409,890;  187,241;33370,355;27,79320
 301,97; 9386,715;  187,473;33330,898;27,75586
 302,56; 9348,416;  178,242;33182,632;27,78471
 303,16; 9316,014;  163,627;33180,943;27,71996
 303,75; 9231,819;  176,243;33163,819;27,45148
 304,35; 9236,849;  169,397;33468,616;27,23022
 304,94; 9222,190;  182,396;33377,843;27,23203
 305,54; 9199,660;  196,473;33270,715;27,22114
 306,13; 9083,119;  152,782;33197,809;27,02476
 306,73; 8931,955;  160,089;32978,372;26,72860
 307,33; 8942,272;  185,243;32896,675;26,77055
 307,92; 8913,785;  189,319;32981,544;26,60529
 308,52; 8951,512;  165,627;33521,982;26,33947
 309,11; 9012,574;  169,780;34004,442;26,13531
 309,71; 9046,038;  153,395;34272,898;26,06322
 310,30; 8987,591;  163,089;34384,044;25,78684
 310,90; 9089,514;  192,935;34746,275;25,74738
 311,49; 9093,294;  189,089;34846,296;25,69222
 312,09; 9028,799;  158,550;35067,187;25,40990
 312,68; 9165,789;  214,704;35454,057;25,40082
 313,28; 9048,323;  158,781;35637,775;25,05579
 313,87; 9013,025;  146,627;35637,822;24,98197
 314,47; 9052,937;  169,934;35921,682;24,84635
 315,06; 9060,542;  157,704;36088,779;24,77754
 315,66; 9005,107;  163,858;36229,648;24,51422
 316,25; 8911,541;  145,550;36163,538;24,33782
 316,85; 8860,018;  141,935;36211,499;24,17019
 317,44; 8861,011;  162,319;36309,758;24,06448
 318,04; 8792,483;  151,627;36276,585;23,91935
 318,63; 8698,584;  146,935;36258,419;23,68124
 319,22; 8694,594;  172,857;36442,469;23,49553
 319,82; 8611,758;  169,473;36451,752;23,26834
 320,41; 8588,711;  175,473;36422,431;23,21088
 321,01; 8479,450;  184,935;36415,404;22,89376
 321,60; 8474,849;  178,704;36469,158;22,86041
 322,20; 8389,183;  168,781;36444,181;22,66109
 322,79; 8348,247;  208,781;36518,826;22,41657
 323,39; 8289,256;  175,397;36502,710;22,33542
 323,98; 8218,814;  162,935;36368,639;22,25030
 324,58; 8135,910;  174,242;36243,259;22,07343
 325,17; 8073,184;  182,165;36086,068;21,97816
 325,76; 8035,640;  181,396;35892,001;21,99415
 326,36; 7897,104;  155,320;35319,109;22,01635
 326,95; 7804,658;  190,012;35150,659;21,78062
 327,55; 7673,142;  155,473;34758,932;21,72520
 328,14; 7579,433;  178,858;34183,029;21,76373
 328,74; 7458,518;  195,627;33785,675;21,62215
 329,33; 7319,949;  182,935;33325,981;21,53397
 329,92; 7131,972;  162,626;32790,233;21,36027
 330,52; 6981,024;  167,935;32078,807;21,35037
 331,11; 6888,247;  179,088;31670,667;21,30461
 331,71; 6737,944;  175,396;31085,078;21,23137
 332,30; 6631,421;  180,627;30673,381;21,15517
 332,89; 6560,344;  217,627;30068,310;21,24815
 333,49; 6376,748;  191,550;29441,783;21,14581
 334,08; 6300,052;  173,242;29024,115;21,23613
 334,68; 6155,399;  179,165;28619,410;21,01330
 335,27; 6073,028;  193,397;28249,166;20,95694
 335,86; 6037,247;  210,550;28048,513;20,93076
 336,46; 5936,119;  188,012;27722,418;20,87609
 337,05; 5855,067;  163,011;27538,804;20,79230
 337,65; 5861,104;  151,704;27324,227;21,01167
 338,24; 5890,775;  212,550;27404,497;20,88201
 338,83; 5866,545;  199,935;27215,933;20,97502
 339,43; 5861,017;  161,780;27137,636;21,12718
 340,02; 5839,886;  174,550;27034,345;21,09225
 340,61; 5847,990;  156,935;27081,655;21,13692
 341,21; 5918,518;  207,165;27127,136;21,21605
 341,80; 5905,718;  167,858;27089,021;21,31357
 342,40; 5909,025;  173,243;27183,858;21,23529
 342,99; 5976,960;  173,858;27301,771;21,39163
 343,58; 6001,256;  174,550;27407,135;21,39608
 344,18; 6080,118;  180,397;27534,054;21,56831
 344,77; 6125,231;  167,934;27938,512;21,45183
 345,36; 6225,043;  156,012;28227,505;21,61991
 345,96; 6359,436;  186,320;28591,921;21,73204
 346,55; 6455,809;  163,320;28765,731;21,99985
 347,14; 6565,679;  150,858;29104,307;22,15564
 347,74; 6682,561;  142,859;29570,951;22,22265
 348,33; 6859,981;  173,782;30201,656;22,26664
 348,92; 7055,715;  181,705;30830,675;22,42819
 349,52; 7149,630;  156,475;31299,084;22,45527
 350,11; 7287,524;  164,934;31503,823;22,72764
 350,70; 7385,336;  166,627;31565,591;22,99028
 351,29; 7326,909;  162,933;31400,551;22,93381
 351,89; 7409,407;  181,472;31358,164;23,18378
 352,48; 7465,066;  152,781;31379,912;23,41645
 353,07; 7546,260;  170,397;31238,987;23,74058
 353,67; 7545,358;  189,552;31219,948;23,70516
 354,26; 7532,462;  174,397;31035,354;23,84263
 354,85; 7552,057;  171,704;30735,640;24,14726
 355,45; 7590,908;  157,781;30675,316;24,35691
 356,04; 7595,890;  168,320;30625,906;24,38660
 356,63; 7679,903;  194,781;30333,526;24,83555
 357,22; 7661,469;  178,318;30260,522;24,87568
 357,82; 7680,144;  190,780;30082,839;25,05469
 358,41; 7753,843;  188,781;29928,010;25,43799
 359,00; 7753,568;  172,473;29705,068;25,67027
 359,60; 7836,762;  186,243;29656,681;25,95998
 360,19; 7808,419;  184,935;29499,090;26,00615
 360,78; 7835,693;  175,550;29240,517;26,35525
 361,37; 7839,976;  169,473;29133,628;26,48274
 361,97; 7900,995;  174,627;29018,138;26,78720
 362,56; 7856,767;  161,088;28693,973;26,97126
 363,15; 7926,576;  205,396;28486,786;27,30128
 363,74; 7831,233;  166,857;28089,840;27,44827
 364,34; 7814,426;  180,396;27703,756;27,73655
 364,93; 7724,264;  156,626;27300,575;27,87965
 365,52; 7692,478;  151,781;26868,590;28,22454
 366,11; 7712,274;  167,704;26571,115;28,57422
 366,71; 7623,748;  165,550;26184,315;28,66469
 367,30; 7621,171;  174,319;25850,334;29,00315
 367,89; 7646,453;  204,012;25716,866;29,17134
 368,48; 7569,876;  185,396;25321,601;29,37786
 369,07; 7507,413;  179,396;24872,053;29,67691
 369,67; 7526,802;  194,703;24613,370;30,02661
 370,26; 7457,594;  164,319;24353,198;30,15135
 370,85; 7469,772;  175,473;24095,389;30,49467
 371,44; 7429,071;  176,088;23840,471;30,64936
 372,03; 7399,978;  151,780;23549,187;30,97864
 372,63; 7339,723;  144,627;23282,740;31,09630
 373,22; 7339,885;  169,012;22976,843;31,44040
 373,81; 7281,759;  157,011;22684,188;31,62734
 374,40; 7250,676;  164,858;22480,076;31,75330
 374,99; 7248,511;  161,781;22210,782;32,14082
 375,59; 7216,354;  159,781;21936,080;32,40483
 376,18; 7216,628;  191,858;21756,744;32,57504
 376,77; 7257,150;  185,858;21535,420;33,12149
 377,36; 7260,656;  196,781;21526,787;33,11708
 377,95; 7207,852;  179,319;21289,692;33,29422
 378,55; 7208,989;  159,320;21111,250;33,64687
 379,14; 7225,182;  180,627;20965,432;33,89281
 379,73; 7237,264;  179,319;20953,453;33,97468
 380,32; 7309,393;  185,396;20940,031;34,32485
 380,91; 7319,865;  169,473;20815,426;34,63338
 381,50; 7357,742;  185,627;20802,238;34,78804
 382,10; 7325,085;  168,089;20598,415;35,03124
 382,69; 7393,297;  152,319;20565,906;35,47136
 383,28; 7407,437;  193,627;20570,546;35,40187
 383,87; 7389,488;  166,780;20416,760;35,66773
 384,46; 7447,107;  154,857;20365,570;36,08111
 385,05; 7519,421;  189,550;20403,037;36,26228
 385,64; 7492,043;  159,242;20407,576;36,21434
 386,24; 7520,542;  153,780;20326,347;36,51871
 386,83; 7624,833;  195,472;20434,684;36,70776
 387,42; 7714,916;  193,396;20531,183;36,98298
 388,01; 7809,506;  173,318;20707,785;37,18717
 388,60; 7946,892;  174,857;20882,232;37,53269
 389,19; 8011,775;  148,779;21179,223;37,38864
 389,78; 8192,704;  158,933;21399,147;37,82340
 390,37; 8480,185;  218,010;21923,000;38,06578
 390,96; 8508,528;  177,703;21992,095;38,18958
 391,56; 8574,189;  178,471;22222,132;38,08677
 392,15; 8765,760;  166,856;22451,233;38,58714
 392,74; 8848,719;  137,163;22602,095;38,77847
 393,33; 9008,378;  165,086;22937,837;38,83278
 393,92; 9237,381;  182,624;23340,175;39,10067
 394,51; 9314,518;  154,856;23532,431;39,18140
 395,10; 9516,676;  196,161;23799,208;39,48861
 395,69; 9591,505;  183,238;23859,141;39,73773
 396,28; 9664,375;  179,930;24003,788;39,81070
 396,87; 9752,700;  185,698;24106,506;39,99448
 397,46; 9829,144;  187,082;24267,319;40,04139
 398,06; 9917,452;  196,158;24457,662;40,06880
 398,65; 9988,747;  181,311;24429,499;40,44606
 399,24;10100,538;  195,156;24635,459;40,52888
 399,83;10150,890;  159,846;24668,156;40,76594
 400,42;10281,924;  209,151;24840,145;40,89471
 401,01;10312,234;  177,917;24927,239;40,94785
 401,60;10339,085;  200,529;24993,593;40,89271
 402,19;10358,538;  205,911;24794,712;41,28964
 402,78;10383,847;  203,214;24936,973;41,16088
 403,37;10340,898;  195,209;24678,939;41,43849
 403,96;10340,682;  182,204;24613,057;41,58053
 404,55;10269,576;  188,198;24449,022;41,55415
 405,14;10236,985;  192,270;24342,339;41,59290
 405,73;10222,541;  205,956;24282,307;41,60342
 406,32;10298,273;  204,336;24197,053;42,07084
 406,91;10151,922;  198,716;23854,300;42,07550
 407,50;10135,084;  182,637;23730,657;42,26448
 408,09;10004,601;  171,404;23428,345;42,28070
 408,68; 9965,848;  198,480;23218,852;42,42924
 409,27; 9903,478;  173,712;23079,496;42,47733
 409,86; 9866,212;  182,331;22935,458;42,56066
 410,45; 9876,174;  212,181;22859,844;42,67104
 411,04; 9833,576;  219,645;22790,649;42,59416
 411,63; 9732,231;  193,803;22535,929;42,69257
 412,22; 9607,648;  196,730;22251,126;42,67139
 412,81; 9570,290;  209,578;21999,350;42,95920
 413,40; 9453,093;  210,349;21628,426;43,15394
 413,99; 9316,580;  241,425;21414,048;42,86268
 414,58; 9117,096;  185,964;20959,934;42,99194
 415,17; 9042,958;  187,886;20722,461;43,12274
 415,76; 8994,898;  191,499;20613,014;43,10845
 416,35; 8903,012;  178,731;20458,633;43,01934
 416,94; 9005,196;  216,807;20504,127;43,31961
 417,53; 9078,156;  182,116;20743,475;43,26581
 418,12; 9081,749;  182,963;20812,130;43,13692
 418,71; 9264,275;  197,349;21237,931;43,09256
 419,30; 9294,795;  192,809;21266,041;43,19217
 419,89; 9352,463;  189,579;21507,440;42,98219
 420,48; 9559,340;  207,503;21793,397;43,32383
 421,07; 9571,354;  208,041;21857,039;43,25056
 421,66; 9609,560;  170,888;21773,423;43,69243
 422,25; 9644,953;  178,505;21775,810;43,83162
 422,84; 9599,276;  227,275;21774,119;43,49594
 423,43; 9475,693;  192,813;21469,018;43,63034
 424,02; 9374,015;  215,967;21168,507;43,70854
 424,60; 9183,822;  189,507;20824,096;43,58853
 425,19; 9087,199;  203,045;20477,464;43,81953
 425,78; 9081,871;  209,814;20391,473;43,96099
 426,37; 8978,608;  207,968;20246,882;43,76804
 426,96; 8924,890;  199,045;20218,916;43,58592
 427,55; 8863,145;  192,585;19960,493;43,86180
 428,14; 8731,668;  191,124;19793,329;43,56930
 428,73; 8652,972;  205,354;19583,055;43,59453
 429,32; 8670,308;  211,122;19584,749;43,66341
 429,91; 8723,462;  233,892;19529,175;43,99816
 430,50; 8601,270;  218,662;19366,276;43,77886
 431,08; 8554,821;  230,432;19301,206;43,64998
 431,67; 8526,870;  264,740;19215,174;43,59863
 432,26; 8449,034;  273,971;18971,642;43,72236
 432,85; 8293,796;  291,586;18493,128;43,96446
 433,44; 8169,227;  295,587;18235,717;43,88842
 434,03; 7966,953;  302,357;17860,136;43,65356
 434,62; 7812,653;  266,126;17454,038;43,90602
 435,21; 7709,338;  289,663;17279,103;43,67228
 435,79; 7609,577;  269,126;17147,510;43,49025
 436,38; 7586,288;  274,742;17013,446;43,68048
 436,97; 7491,077;  269,666;16897,955;43,42847
 437,56; 7416,272;  268,744;16698,406;43,50381
 438,15; 7402,178;  246,897;16649,840;43,62193
 438,74; 7386,236;  260,513;16620,721;43,55521
 439,33; 7362,932;  238,359;16702,690;43,27277
 439,91; 7373,231;  210,667;16714,475;43,39946
 440,50; 7471,927;  250,052;16805,245;43,62302
 441,09; 7506,580;  256,130;16853,992;43,68304
 441,68; 7454,889;  238,977;16900,162;43,30972
 442,27; 7452,783;  214,130;16875,370;43,44606
 442,86; 7444,893;  203,132;16871,062;43,44727
 443,44; 7433,594;  209,670;16929,052;43,20688
 444,03; 7525,330;  269,670;16947,455;43,50494
 444,62; 7409,625;  212,901;16741,408;43,54128
 445,21; 7352,999;  230,285;16662,740;43,34540
 445,80; 7333,289;  246,133;16529,484;43,52394
 446,39; 7254,371;  270,748;16293,581;43,58544
 446,97; 7104,885;  216,441;16023,894;43,57719
 447,56; 6994,001;  201,980;15930,231;43,18357
 448,15; 6939,128;  210,595;15658,197;43,55713
 448,74; 6822,120;  232,057;15404,330;43,43491
 449,33; 6683,917;  223,134;15306,025;42,83517
 449,91; 6642,539;  209,904;15043,812;43,36440
 450,50; 6500,915;  210,596;14809,734;43,08692
 451,09; 6507,100;  228,212;14737,085;43,27619
 451,68; 6452,362;  245,520;14670,903;43,02723
 452,26; 6458,728;  231,674;14547,251;43,49845
 452,85; 6332,113;  223,059;14474,527;42,86614
 453,44; 6379,482;  233,598;14477,789;43,14659
 454,03; 6307,946;  208,751;14409,440;42,94999
 454,61; 6305,806;  194,368;14394,196;43,03882
 455,20; 6402,506;  242,753;14645,484;42,76795
 455,79; 6393,060;  233,829;14545,669;43,03591
 456,38; 6427,629;  240,753;14664,252;42,89442
 456,97; 6450,324;  215,138;14693,862;43,06447
 457,55; 6421,363;  219,369;14753,117;42,67305
 458,14; 6417,252;  243,907;14678,960;42,76635
 458,73; 6347,687;  227,292;14572,523;42,66502
 459,31; 6397,263;  261,908;14695,757;42,50671
 459,90; 6402,576;  266,062;14768,901;42,31250
 460,49; 6472,321;  291,600;14853,519;42,44441
 461,08; 6483,499;  212,986;14904,789;42,68035
 461,66; 6458,056;  223,370;14996,133;42,20393
 462,25; 6491,144;  218,294;15105,889;42,13475
 462,84; 6517,978;  250,909;15144,195;42,07983
 463,43; 6472,018;  192,910;15112,974;42,08500
 464,01; 6465,138;  227,295;15124,710;41,87198
 464,60; 6483,414;  262,910;15008,810;42,18464
 465,19; 6361,495;  206,372;14735,058;42,36531
 465,77; 6372,323;  231,219;14816,098;42,10597
 466,36; 6293,570;  234,602;14635,482;42,07359
 466,95; 6103,010;  213,910;14334,107;41,70693
 467,53; 6043,961;  225,373;13996,613;42,25174
 468,12; 5892,774;  251,681;13737,703;41,82919
 468,71; 5809,154;  222,372;13525,250;41,99679
 469,29; 5668,856;  218,142;13284,806;41,71466
 469,88; 5557,950;  216,912;13029,244;41,68670
 470,47; 5638,458;  273,451;13158,601;41,63713
 471,06; 5566,063;  229,990;13148,888;41,30440
 471,64; 5614,309;  234,066;13269,622;41,27360
 472,23; 5643,673;  203,529;13264,171;41,65296
 472,81; 5652,820;  211,144;13426,775;41,17606
 473,40; 5673,546;  215,298;13491,086;41,11430
 473,99; 5766,033;  295,299;13668,872;40,90705
 474,57; 5810,480;  215,529;13761,338;41,30392
 475,16; 5882,750;  223,221;14021,827;41,01522
 475,75; 5918,518;  241,222;14083,900;41,01299
 476,33; 5947,443;  252,992;14178,270;40,89291
 476,92; 5975,475;  237,683;14238,856;40,98079
 477,51; 5972,892;  238,069;14284,269;40,82829
 478,09; 5972,867;  239,376;14291,303;40,80217
 478,68; 5947,686;  255,530;14172,497;40,90084
 479,27; 5988,033;  267,145;14274,601;40,84173
 479,85; 5911,402;  240,223;14264,334;40,43878
 480,44; 5938,262;  224,684;14440,310;40,19223
 481,02; 6463,516;  238,685;16174,261;39,06248
 481,61; 7291,031;  268,531;18120,700;39,33696
 482,20; 7737,812;  251,608;19269,034;39,36497
 482,78; 8122,410;  266,069;20038,514;39,73379
 483,37; 8269,041;  275,147;20557,589;39,41287
 483,95; 8419,663;  289,917;20826,718;39,58624
 484,54; 8481,091;  306,300;20939,986;39,61867
 485,13; 8425,642;  269,840;20848,071;39,63315
 485,71; 8284,823;  258,302;20600,108;39,45825
 486,30; 8222,337;  292,225;20289,066;39,65683
 486,88; 8074,948;  318,148;19848,199;39,71725
 487,47; 7785,481;  301,840;19068,101;39,87817
 488,05; 7412,969;  290,302;18135,509;39,91361
 488,64; 6886,997;  296,149;16826,665;39,87079
 489,23; 6187,374;  299,533;14648,069;41,03444
 489,81; 5259,164;  292,533;12727,450;39,94101
 490,40; 4961,221;  262,918;12174,203;39,44414
 490,98; 4835,669;  241,687;12001,033;39,06665
 491,57; 4770,198;  267,610;11920,719;38,63851
 492,15; 4757,110;  240,841;11848,427;38,90791
 492,74; 4693,933;  248,302;11756,522;38,63005
 493,32; 4695,026;  269,380;11664,759;38,83720
 493,91; 4606,316;  247,611;11538,005;38,60543
 494,50; 4573,801;  253,920;11551,377;38,23764
 495,08; 4544,004;  237,920;11464,411;38,35645
 495,67; 4543,068;  258,534;11410,599;38,41920
 496,25; 4457,571;  202,535;11338,494;38,20987
 496,84; 4418,053;  218,688;11293,372;37,91860
 497,42; 4382,157;  205,227;11275,329;37,73163
 498,01; 4394,380;  235,380;11233,343;37,81610
 498,59; 4325,790;  206,919;11143,273;37,66219
 499,18; 4310,858;  202,457;11113,159;37,65478
 499,76; 4281,635;  221,611;11029,806;37,56431
 500,35; 4164,365;  213,612;10794,348;37,33911
 500,93; 4129,399;  209,996;10775,504;37,09621
 501,52; 4089,879;  206,535;10692,500;37,03373
 502,10; 4090,641;  218,536;10608,342;37,26831
 502,69; 3985,402;  212,459;10452,275;36,84581
 503,27; 3937,636;  189,766;10305,740;37,04903
 503,86; 3885,689;  203,305;10219,637;36,76380
 504,44; 3783,244;  181,152;10105,382;36,29594
 505,03; 3704,796;  184,305; 9814,353;36,55735
 505,61; 3663,494;  193,151; 9686,655;36,55491
 506,19; 3580,294;  210,152; 9553,006;36,07187
 506,78; 3511,151;  181,152; 9330,300;36,39682
 507,36; 3440,357;  190,305; 9200,216;36,07196
 507,95; 3372,680;  197,383; 9079,567;35,74905
 508,53; 3327,381;  188,998; 8945,710;35,83974
 509,12; 3260,559;  198,845; 8786,400;35,65292
 509,70; 3211,285;  214,230; 8617,135;35,66690
 510,29; 3153,560;  226,922; 8521,180;35,28510
 510,87; 3046,739;  190,614; 8322,616;35,12205
 511,46; 3008,170;  194,614; 8135,117;35,43297
 512,04; 2933,458;  195,922; 8010,260;35,03222
 512,62; 2870,299;  201,076; 7840,767;34,93889
 513,21; 2817,010;  175,845; 7675,851;35,21551
 513,79; 2783,156;  196,231; 7565,749;35,10303
 514,38; 2691,854;  184,385; 7423,098;34,63972
 514,96; 2662,748;  215,769; 7305,234;34,51571
 515,54; 2630,902;  176,693; 7155,496;35,16662
 516,13; 2566,047;  209,616; 7052,501;34,43622
 516,71; 2524,954;  194,693; 6922,234;34,63764
 517,30; 2461,487;  187,078; 6804,706;34,36895
 517,88; 2421,678;  212,770; 6736,359;33,86031
 518,46; 2348,227;  178,540; 6619,488;33,68583
 519,05; 2363,525;  190,156; 6566,140;34,08681
 519,63; 2318,811;  196,309; 6533,682;33,49183
 520,22; 2296,871;  211,541; 6472,086;33,30909
 520,80; 2234,349;  200,541; 6413,441;32,73524
 521,38; 2247,989;  221,156; 6378,678;32,91639
 521,97; 2203,108;  184,464; 6303,939;32,98722
 522,55; 2193,070;  200,772; 6314,105;32,58938
 523,13; 2156,646;  181,541; 6333,124;32,10727
 523,72; 2125,494;  197,540; 6271,219;31,74278
 524,30; 2193,084;  211,542; 6450,215;31,76224
 524,89; 2146,201;  180,772; 6416,601;31,51833
 525,47; 2150,694;  202,696; 6547,297;30,70324
 526,05; 2147,390;  171,619; 6550,887;30,97176
 526,64; 2189,759;  203,773; 6701,691;30,56342
 527,22; 2217,475;  202,157; 6795,446;30,56620
 527,80; 2242,988;  233,234; 6919,050;30,05996
 528,39; 2238,667;  192,081; 7006,777;30,03196
 528,97; 2257,135;  202,388; 7150,926;29,57092
 529,55; 2295,057;  209,926; 7310,064;29,36747
 530,14; 2328,279;  215,081; 7543,808;28,83445
 530,72; 2310,110;  196,927; 7637,114;28,40228
 531,30; 2332,141;  183,004; 7742,240;28,43061
 531,89; 2377,962;  198,389; 7837,915;28,53021
 532,47; 2396,226;  227,620; 7895,267;28,28256
 533,05; 2428,859;  230,157; 7966,554;28,42023
 533,63; 2405,116;  228,312; 8043,921;27,85200
 534,22; 2390,385;  198,004; 8116,293;27,68756
 534,80; 2437,589;  219,774; 8110,030;28,10828
 535,38; 2512,273;  296,004; 8220,505;27,96730
 535,97; 2418,304;  223,697; 8181,626;27,57763
 536,55; 2464,387;  257,313; 8293,586;27,46391
 537,13; 2456,524;  265,312; 8221,060;27,54250
 537,71; 2465,969;  304,389; 8292,475;27,06006
 538,30; 2465,663;  324,928; 8378,768;26,58031
 538,88; 2461,303;  358,005; 8484,878;25,88077
 539,46; 2539,396;  402,313; 8679,350;25,81942
 540,05; 2555,910;  415,236; 8811,236;25,49635
 540,63; 2611,539;  474,313; 9016,258;25,02037
 541,21; 2655,887;  497,313; 9124,994;25,01917
 541,79; 2673,861;  543,852; 9286,054;24,36468
 542,38; 2685,278;  566,313; 9436,804;23,88780
 542,96; 2711,586;  586,621; 9648,923;23,44840
 543,54; 2742,500;  585,544; 9774,071;23,47445
 544,12; 2775,045;  554,544; 9925,738;23,69497
 544,70; 2759,665;  541,852;10034,565;23,36332
 545,29; 2814,036;  552,928;10167,424;23,51769
 545,87; 2797,092;  520,775;10175,823;23,57645
 546,45; 2759,777;  469,543;10213,458;23,50424
 547,03; 2775,879;  460,313;10338,275;23,44174
 547,62; 2779,915;  440,159;10371,653;23,55896
 548,20; 2810,583;  429,621;10649,692;23,29692
 548,78; 2808,209;  392,545;10726,633;23,37568
 549,36; 2790,153;  360,391;10947,316;22,95059
 549,94; 2846,409;  322,929;11006,747;23,61965
 550,53; 2870,081;  324,622;11243,183;23,31313
 551,11; 2862,000;  301,699;11440,296;22,98585
 551,69; 2911,972;  316,314;11775,094;22,65213
 552,27; 2929,185;  258,468;12019,913;22,70739
 552,85; 2948,564;  273,776;12331,800;22,18264
 553,44; 3013,445;  266,084;12661,243;22,16480
 554,02; 3083,056;  283,699;13009,915;21,99677
 554,60; 3095,849;  228,699;13317,373;21,90558
 555,18; 3176,742;  264,391;13670,068;21,72476
 555,76; 3192,915;  237,545;13982,808;21,50101
 556,34; 3273,009;  247,930;14373,251;21,41600
 556,93; 3325,103;  235,545;14761,461;21,26928
 557,51; 3354,779;  214,238;15113,995;21,07780
 558,09; 3455,448;  248,699;15461,243;21,07964
 558,67; 3480,230;  246,931;15807,594;20,77867
 559,25; 3514,324;  245,623;16052,149;20,67944
 559,83; 3546,614;  225,470;16360,625;20,58328
 560,41; 3602,003;  229,007;16748,020;20,41887
 561,00; 3656,948;  232,315;17058,150;20,35342
 561,58; 3646,488;  228,469;17273,626;20,05273
 562,16; 3689,193;  220,930;17603,283;19,95278
 562,74; 3752,941;  205,545;17974,133;19,96442
 563,32; 3814,947;  193,854;18466,437;19,81708
 563,90; 3914,628;  226,931;18797,564;19,85768
 564,48; 3932,227;  234,392;19240,173;19,45637
 565,06; 4021,548;  222,085;19811,180;19,39581
 565,65; 4148,368;  222,470;20536,897;19,32566
 566,23; 4308,064;  270,469;21375,060;19,13136
 566,81; 4362,810;  223,777;21991,961;19,01414
 567,39; 4528,043;  236,700;22887,870;18,94535
 567,97; 4611,058;  238,238;23568,060;18,74348
 568,55; 4779,689;  248,085;24331,907;18,81597
 569,13; 4848,527;  219,931;25091,035;18,61034
 569,71; 5006,756;  221,545;26028,403;18,54240
 570,29; 5217,653;  258,468;26992,073;18,55038
 570,87; 5308,021;  253,161;27666,210;18,43961
 571,45; 5396,741;  249,931;28319,910;18,33564
 572,03; 5427,740;  213,008;28803,973;18,23909
 572,61; 5517,085;  209,008;29491,672;18,12703
 573,20; 5631,960;  237,392;30208,755;17,99907
 573,78; 5724,344;  222,008;30773,869;18,00982
 574,36; 5761,325;  242,777;31246,514;17,79962
 574,94; 5872,591;  284,316;31638,691;17,82295
 575,52; 5815,174;  237,163;31890,279;17,62231
 576,10; 5914,238;  301,316;32476,509;17,44487
 576,68; 5982,624;  280,393;33059,293;17,39604
 577,26; 6051,623;  290,778;33663,469;17,26215
 577,84; 6136,879;  299,392;34257,356;17,19033
 578,42; 6136,613;  337,470;34447,841;17,00111
 579,00; 6071,588;  296,623;34622,839;16,82377
 579,58; 6123,195;  321,470;34793,157;16,83041
 580,16; 6048,886;  302,470;34834,726;16,64072
 580,74; 6048,761;  314,316;34963,385;16,55007
 581,32; 5999,711;  297,778;35007,191;16,42763
 581,90; 5955,360;  325,624;35003,337;16,23445
 582,48; 5903,899;  324,009;35042,081;16,07201
 583,06; 5887,670;  329,701;35222,640;15,92864
 583,64; 5860,181;  313,931;35325,674;15,84111
 584,22; 5786,321;  323,701;35070,002;15,72144
 584,80; 5711,152;  335,393;34670,124;15,65691
 585,38; 5591,661;  333,007;34418,597;15,42779
 585,96; 5469,708;  316,316;34450,724;15,09735
 586,54; 5464,443;  330,470;34470,574;15,03795
 587,12; 5396,368;  295,086;34696,133;14,82886
 587,70; 5410,428;  331,162;34753,613;14,75568
 588,28; 5363,778;  318,470;34764,330;14,64707
 588,86; 5365,258;  315,701;34867,916;14,61428
 589,44; 5288,406;  292,163;34889,572;14,44109
 590,02; 5246,462;  309,548;35182,730;14,15676
 590,59; 5240,071;  279,547;35275,416;14,17460
 591,17; 5229,323;  284,241;35504,999;14,04025
 591,75; 5184,047;  279,317;35586,313;13,89166
 592,33; 5234,897;  293,086;35815,051;13,91198
 592,91; 5172,789;  252,779;35952,788;13,78154
 593,49; 5204,497;  259,472;36396,482;13,68410
 594,07; 5190,663;  273,010;36539,862;13,55963
 594,65; 5166,664;  278,932;36458,604;13,50961
 595,23; 5180,217;  267,163;36971,785;13,38538
 595,81; 5133,353;  264,933;37058,179;13,23183
 596,39; 5160,509;  259,009;37120,051;13,29724
 596,97; 5120,686;  260,856;37369,541;13,09621
 597,55; 5104,877;  251,163;37243,691;13,12080
 598,12; 5027,556;  243,626;37252,491;12,92644
 598,70; 5028,680;  238,395;37384,802;12,89569
 599,28; 5038,949;  252,702;37532,327;12,83877
 599,86; 4972,704;  251,087;37624,562;12,63360
 600,44; 4972,969;  218,164;37634,990;12,70766
 601,02; 5015,840;  261,473;37607,537;12,73057
 601,60; 4940,035;  249,010;37692,240;12,52837
 602,18; 4880,400;  227,087;37760,235;12,39788
 602,75; 4878,479;  228,086;37816,367;12,37192
 603,33; 4873,206;  244,856;37813,806;12,31961
 603,91; 4851,159;  228,472;37735,988;12,32469
 604,49; 4866,246;  255,549;37919,537;12,24166
 605,07; 4834,533;  258,087;37892,202;12,16037
 605,65; 4826,164;  263,087;37828,516;12,14701
 606,23; 4815,016;  345,009;38089,766;11,84272
 606,80; 4785,145;  375,394;38053,273;11,70382
 607,38; 4761,090;  420,088;38173,625;11,49827
 607,96; 4761,465;  460,856;38192,653;11,39784
 608,54; 4766,446;  528,318;38274,038;11,22810
 609,12; 4748,877;  537,702;38322,952;11,14502
 609,70; 4755,907;  574,087;38394,109;11,05716
 610,27; 4727,308;  572,471;38341,038;11,00078
 610,85; 4733,162;  583,010;38466,100;10,95516
 611,43; 4697,128;  580,549;38473,524;10,86370
 612,01; 4596,504;  557,010;38197,877;10,73167
 612,59; 4615,971;  540,164;38279,216;10,79997
 613,16; 4586,731;  514,163;38255,019;10,79087
 613,74; 4563,245;  475,933;38005,563;10,89089
 614,32; 4502,319;  446,318;38048,722;10,78655
 614,90; 4488,347;  421,779;37967,523;10,83097
 615,48; 4413,506;  369,471;37642,276;10,84983
 616,05; 4413,599;  333,624;37708,292;10,91642
 616,63; 4379,001;  337,778;37300,539;10,93323
 617,21; 4347,064;  335,855;37342,529;10,83915
 617,79; 4283,253;  325,471;37239,624;10,72158
 618,36; 4275,046;  323,779;37037,877;10,76226
 618,94; 4205,957;  255,394;36831,614;10,80091
 619,52; 4174,273;  285,701;36580,373;10,71389
 620,10; 4158,403;  280,009;36601,034;10,67810
 620,67; 4113,886;  278,547;36485,988;10,59268
 621,25; 4149,637;  311,010;36332,193;10,65658
 621,83; 4049,586;  285,086;36254,353;10,46588
 622,41; 4110,071;  323,471;36257,268;10,53771
 622,98; 4061,090;  299,778;36033,766;10,52587
 623,56; 4069,868;  295,086;35950,300;10,58690
 624,14; 4031,377;  271,164;35808,053;10,58115
 624,72; 3996,995;  283,086;35743,165;10,47349
 625,29; 3992,984;  268,624;35732,595;10,50181
 625,87; 4009,356;  308,010;35786,641;10,43261
 626,45; 3913,324;  265,624;35596,350;10,32444
 627,02; 3917,910;  263,010;35574,791;10,35037
 627,60; 3895,211;  258,626;35490,755;10,32179
 628,18; 3893,492;  244,240;35594,183;10,32322
 628,76; 3891,194;  259,547;35594,347;10,27782
 629,33; 3913,847;  269,317;35636,853;10,30473
 629,91; 3872,711;  256,009;35550,649;10,24717
 630,49; 3870,765;  277,471;35666,134;10,15380
 631,06; 3882,159;  271,317;35835,899;10,15292
 631,64; 3905,429;  264,855;35698,240;10,27442
 632,22; 3835,878;  239,239;35773,392;10,12164
 632,79; 3936,840;  258,470;36012,918;10,28787
 633,37; 3880,121;  234,471;36065,005;10,17470
 633,95; 3882,772;  257,547;36057,791;10,12626
 634,52; 3914,469;  224,702;36271,469;10,23606
 635,10; 3901,015;  223,625;36225,572;10,21442
 635,68; 3917,584;  239,470;36398,362;10,17209
 636,25; 3916,270;  225,931;36481,485;10,17869
 636,83; 3936,656;  212,240;36640,886;10,22387
 637,41; 3931,501;  215,701;36642,490;10,20074
 637,98; 3964,115;  249,162;36838,310;10,15315
 638,56; 3961,726;  245,085;37009,638;10,10931
 639,13; 3957,357;  224,470;37001,112;10,15016
 639,71; 4012,147;  269,394;37268,903;10,11568
 640,29; 3929,925;  200,394;37032,628;10,12573
 640,86; 3954,539;  214,086;37229,056;10,10524
 641,44; 3953,768;  222,317;37145,176;10,10607
 642,02; 4001,075;  238,471;37227,218;10,17229
 642,59; 3957,689;  210,163;37250,569;10,11740
 643,17; 3980,611;  216,624;37360,919;10,13342
 643,74; 3972,148;  213,317;37234,731;10,15313
 644,32; 3989,300;  251,548;37263,082;10,09889
 644,89; 3990,068;  233,086;37256,971;10,14746
 645,47; 4007,067;  262,317;37298,860;10,11096
 646,05; 4004,450;  226,009;37154,057;10,23190
 646,62; 3975,141;  230,855;37231,484;10,11952
 647,20; 3977,217;  238,932;37420,758;10,05406
 647,77; 3974,677;  210,009;37197,954;10,17809
 648,35; 3983,983;  213,086;37083,689;10,22738
 648,92; 3977,828;  241,009;37129,425;10,13006
 649,50; 3920,442;  203,778;37099,929;10,07331
 650,08; 3972,595;  198,317;37006,356;10,25395
 650,65; 4014,747;  201,471;37262,092;10,28929
 651,23; 4090,361;  207,548;38161,904;10,23022
 651,80; 4218,514;  209,779;39002,254;10,33380
 652,38; 4315,743;  215,394;39431,451;10,45579
 652,95; 4334,049;  196,932;39754,571;10,45845
 653,53; 4404,048;  219,702;39976,998;10,52473
 654,10; 4454,893;  243,932;40173,964;10,54585
 654,68; 4440,430;  211,086;40104,007;10,60174
 655,25; 4440,198;  201,702;40172,896;10,60388
 655,83; 4439,197;  206,394;40271,246;10,56488
 656,40; 4487,964;  227,394;40136,674;10,67564
 656,98; 4455,809;  207,471;40074,255;10,65634
 657,55; 4448,654;  212,702;39932,682;10,66454
 658,13; 4437,114;  201,702;39496,571;10,77854
 658,70; 4393,113;  232,086;39202,922;10,67728
 659,28; 4291,265;  222,010;38260,888;10,69762
 659,85; 4205,341;  218,856;37545,777;10,67992
 660,43; 4230,878;  228,856;37693,743;10,68206
 661,00; 4191,877;  211,856;37842,786;10,57646
 661,58; 4265,568;  199,856;38096,290;10,72848
 662,15; 4270,028;  195,548;38274,641;10,70004
 662,73; 4396,334;  255,779;38669,760;10,77877
 663,30; 4402,872;  216,087;38896,649;10,82400
 663,88; 4409,332;  216,779;39132,077;10,77353
 664,45; 4426,177;  207,702;39339,350;10,78021
 665,03; 4513,944;  216,010;39734,162;10,87585
 665,60; 4653,482;  273,933;40079,436;11,00237
 666,17; 4622,942;  218,164;40213,633;11,01319
 666,75; 4648,479;  210,010;40594,291;10,99059
 667,32; 4716,554;  226,548;40927,949;11,03158
 667,90; 4752,092;  213,471;41280,069;11,05185
 668,47; 4809,398;  229,625;41381,727;11,12889
 669,05; 4867,627;  208,087;41795,539;11,20420
 669,62; 4838,088;  185,395;41861,736;11,16387
 670,19; 4881,548;  204,087;41920,856;11,21242
 670,77; 4941,162;  216,241;42237,283;11,24418
 671,34; 4935,237;  204,856;42056,634;11,30270
 671,92; 4994,928;  201,856;42458,907;11,34266
 672,49; 5035,542;  232,010;42329,565;11,41048
 673,06; 5009,772;  171,472;42392,685;11,45941
 673,64; 5053,309;  187,625;42370,959;11,53461
 674,21; 5051,769;  191,087;42297,848;11,54371
 674,79; 5138,922;  211,241;42510,506;11,64957
 675,36; 5176,920;  224,626;42634,395;11,67725
 675,93; 5132,150;  185,395;42558,822;11,67419
 676,51; 5214,072;  231,472;42655,250;11,74483
 677,08; 5223,763;  211,856;42699,062;11,79627
 677,65; 5266,915;  204,933;42771,259;11,89199
 678,23; 5339,914;  209,395;43135,224;11,95206
 678,80; 5349,835;  195,780;43281,960;11,96220
 679,38; 5384,603;  207,933;43472,695;11,96510
 679,95; 5459,525;  217,626;43720,276;12,04961
 680,52; 5520,601;  206,318;43988,780;12,13793
 681,10; 5604,753;  218,472;44433,439;12,18203
 681,67; 5668,521;  219,164;44791,097;12,22598
 682,24; 5666,751;  191,857;44849,909;12,25959
 682,82; 5787,288;  199,626;45425,798;12,35493
 683,39; 5886,440;  238,857;45725,302;12,41597
 683,96; 5916,593;  202,780;45906,730;12,50179
 684,54; 5907,053;  195,395;46337,080;12,37852
 685,11; 6077,359;  224,318;46704,200;12,59263
 685,68; 6100,358;  214,087;47093,627;12,55616
 686,25; 6152,587;  195,857;47210,209;12,67003
 686,83; 6196,355;  202,857;47313,175;12,72226
 687,40; 6280,277;  189,241;47709,294;12,81782
 687,97; 6395,583;  227,241;48147,183;12,87218
 688,55; 6379,044;  191,472;48144,688;12,90335
 689,12; 6435,273;  186,318;48370,731;12,96883
 689,69; 6473,502;  179,780;48471,696;13,03266
 690,26; 6548,424;  210,395;48612,355;13,09457
 690,84; 6570,192;  194,934;48750,474;13,12983
 691,41; 6630,498;  207,703;48757,671;13,22925
 691,98; 6699,266;  211,703;49097,099;13,27096
 692,56; 6709,111;  184,472;49191,141;13,31378
 693,13; 6782,341;  249,549;49151,953;13,35883
 693,70; 6802,724;  224,934;49352,304;13,38926
 694,27; 6847,646;  206,549;49474,193;13,47963
 694,84; 6907,337;  199,780;49548,005;13,59230
 695,42; 7007,951;  233,703;49732,125;13,68578
 695,99; 6977,872;  217,472;49894,398;13,60873
 696,56; 7015,717;  192,396;49755,595;13,76691
 697,13; 7117,562;  209,549;50070,792;13,85447
 697,71; 7152,022;  186,934;50102,065;13,95386
 698,28; 7177,867;  199,242;50599,416;13,84643
 698,85; 7189,558;  166,088;50532,536;13,94474
 699,42; 7271,095;  185,549;50656,348;14,03890
 699,99; 7363,325;  218,626;50743,006;14,14109
 700,57; 7360,785;  206,857;50905,049;14,11081
 701,14; 7438,091;  192,396;51031,092;14,25232
 701,71; 7539,705;  219,319;51123,596;14,38069
 702,28; 7554,396;  203,703;51221,716;14,40803
 702,85; 7605,779;  208,242;51270,682;14,48724
 703,43; 7640,163;  222,396;51474,417;14,47312
 704,00; 7738,008;  230,627;51701,844;14,58559
 704,57; 7703,314;  214,165;51713,964;14,54209
 705,14; 7863,466;  242,242;52035,391;14,71473
 705,71; 7891,234;  248,396;51984,357;14,77278
 706,28; 7908,771;  217,011;51819,246;14,90587
 706,86; 7967,155;  240,627;52259,212;14,85340
 707,43; 8055,230;  266,165;52100,947;15,02672
 708,00; 8045,537;  244,704;52080,529;15,04912
 708,57; 8049,689;  209,319;52025,495;15,13112
 709,14; 8154,996;  242,550;52156,076;15,24159
 709,71; 8173,686;  223,627;52259,580;15,27801
 710,28; 8243,839;  219,550;52565,623;15,32930
 710,86; 8275,299;  227,242;52586,358;15,37088
 711,43; 8360,913;  244,165;52668,709;15,48273
 712,00; 8352,681;  229,935;52860,752;15,43344
 712,57; 8451,911;  239,935;52817,564;15,61876
 713,14; 8439,909;  218,550;53009,683;15,57337
 713,71; 8493,600;  226,012;52880,957;15,70145
 714,28; 8528,137;  224,012;52901,077;15,76422
 714,85; 8478,674;  196,627;52665,427;15,78471
 715,42; 8600,212;  215,627;52958,316;15,89715
 716,00; 8713,518;  254,396;53062,897;16,01848
 716,57; 8684,132;  206,089;53119,248;16,02256
 717,14; 8713,208;  200,165;53041,752;16,11050
 717,71; 8754,745;  192,858;53116,180;16,17791
 718,28; 8856,128;  225,550;53222,453;16,28506
 718,85; 8826,434;  194,935;53175,342;16,29187
 719,42; 8950,433;  223,396;53318,154;16,43672
 719,99; 8866,662;  195,704;53138,120;16,37809
 720,56; 9058,430;  222,089;53585,702;16,55874
 721,13; 9052,429;  202,012;53579,437;16,58082
 721,70; 9066,043;  192,166;53442,864;16,66434
 722,27; 9119,273;  219,166;53494,446;16,70588
 722,84; 9248,887;  247,396;53590,565;16,87468
 723,41; 9202,654;  191,243;53629,608;16,86319
 723,98; 9292,422;  201,243;53860,420;16,94245
 724,55; 9370,267;  238,320;53924,848;17,00976
 725,12; 9295,650;  158,627;53764,737;17,04474
 725,69; 9445,649;  196,781;54047,395;17,17505
 726,27; 9527,955;  207,858;54041,976;17,31262
 726,84; 9647,800;  204,627;54414,634;17,41961
 727,41; 9641,491;  223,550;54344,370;17,40170
 727,98; 9770,798;  224,935;54713,797;17,51892
 728,55; 9780,258;  240,166;54539,301;17,56951
 729,12; 9871,026;  190,935;54672,806;17,76754
 729,69; 9936,178;  232,012;54866,079;17,76212
 730,26;10000,946;  237,320;55057,584;17,81025
 730,82; 9989,483;  206,935;54970,703;17,86318
 731,39;10030,482;  210,551;54992,592;17,92546
 731,96;10131,173;  203,397;55354,174;18,00115
 732,53;10267,018;  223,166;55482,293;18,17591
 733,10;10358,247;  231,243;55594,952;18,29177
 733,67;10329,092;  230,397;55848,148;18,15732
 734,24;10347,321;  216,858;55370,191;18,36782
 734,81;10422,089;  229,012;55575,696;18,41678
 735,38;10392,396;  215,320;55266,508;18,48657
 735,95;10385,702;  205,166;55096,550;18,54669
 736,52;10481,701;  235,089;55317,593;18,60230
 737,09;10473,853;  228,397;55024,636;18,69737
 737,66;10624,929;  262,243;55225,910;18,85370
 738,23;10626,312;  206,397;55259,568;18,92700
 738,80;10747,772;  258,243;55575,226;18,96258
 739,37;10776,617;  241,474;55747,961;18,98002
 739,94;10863,616;  218,859;55748,235;19,16960
 740,51;11012,537;  305,474;55838,432;19,28056
 741,07;10916,536;  224,859;55750,474;19,25540
 741,64;10995,996;  240,551;55956,363;19,30412
 742,21;11069,457;  217,166;56078,637;19,42715
 742,78;11089,301;  201,243;55809,218;19,58003
 743,35;11185,146;  212,551;56235,107;19,58603
 743,92;11278,299;  264,013;56241,073;19,67643
 744,49;11297,220;  228,013;56096,501;19,81297
 745,06;11279,988;  210,013;56166,697;19,78312
 745,63;11342,756;  207,090;56169,586;19,89845
 746,19;11399,755;  209,551;56107,168;20,01911
 746,76;11415,446;  230,551;56238,749;19,97010
 747,33;11455,060;  217,859;56054,484;20,12514
 747,90;11574,751;  240,397;56400,219;20,18232
 748,47;11596,211;  222,244;56178,493;20,32654
 749,04;11630,133;  226,782;56162,305;20,38660
 749,61;11639,901;  248,244;56187,732;20,36425
 750,17;11710,515;  238,244;56351,544;20,44483
 750,74;11724,437;  231,859;56209,510;20,53065
 751,31;11734,743;  220,244;56066,092;20,61836
 751,88;11710,895;  201,167;56004,750;20,62543
 752,45;11809,048;  221,013;56076,562;20,74643
 753,02;11839,970;  235,013;55992,758;20,81317
 753,58;11821,199;  207,474;55871,724;20,86388
 754,15;11842,813;  215,936;56093,767;20,80767
 754,72;11906,196;  207,167;55855,195;21,02326
 755,29;11885,503;  199,705;55814,468;21,01204
 755,86;11915,194;  221,167;55911,973;20,99813
 756,42;11970,962;  227,244;55749,323;21,15144
 756,99;11963,499;  196,859;55730,289;21,18839
 757,56;12007,882;  197,398;55635,024;21,30409
 758,13;11994,958;  170,705;55714,529;21,28815
 758,70;12078,187;  187,321;55711,879;21,41551
 759,26;12110,570;  197,090;55807,076;21,42328
 759,83;12236,261;  198,090;55915,426;21,60579
 760,40;12234,260;  184,321;55664,008;21,71955
 760,97;12213,797;  177,936;55709,897;21,67375
 761,53;12199,719;  175,167;55292,862;21,81614
 762,10;12216,487;  171,321;55418,675;21,80225
 762,67;12299,101;  208,706;55261,102;21,96161
 763,24;12130,715;  154,552;55011,376;21,83167
 763,80;12311,944;  190,706;55073,418;22,08571
 764,37;12294,020;  192,859;54953,307;22,09836
 764,94;12223,557;  183,090;54539,889;22,15080
 765,50;12194,863;  178,398;54532,855;22,10760
 766,07;12318,477;  221,936;54550,974;22,26533
 766,64;12322,476;  181,321;54185,171;22,48202
 767,21;12308,090;  189,629;54028,368;22,50881
 767,77;12311,935;  206,475;54018,180;22,49596
 768,34;12351,934;  207,937;53990,223;22,57992
 768,91;12345,778;  214,013;53849,189;22,61905
 769,47;12394,777;  210,937;53857,308;22,71140
 770,04;12412,468;  202,783;53783,428;22,78749
 770,61;12345,390;  202,475;53440,009;22,80894
 771,18;12384,158;  187,629;53325,744;22,95251
 771,74;12446,849;  202,552;53585,249;22,93683
 772,31;12422,001;  210,706;53371,599;22,97045
 772,88;12396,384;  184,167;53081,873;23,08648
 773,44;12404,691;  197,860;52800,070;23,20593
 774,01;12483,613;  210,860;53040,959;23,23061
 774,58;12455,534;  196,168;52673,232;23,36138
 775,14;12491,302;  189,014;52862,506;23,35575
 775,71;12509,686;  190,552;52706,241;23,45801
 776,27;12543,915;  237,937;52611,361;23,49661
 776,84;12635,914;  254,706;52651,711;23,62961
 777,41;12623,605;  217,860;52505,216;23,72609
 777,97;12592,988;  199,629;52204,258;23,83126
 778,54;12562,602;  203,322;52232,301;23,75461
 779,11;12633,447;  232,322;52317,729;23,80921
 779,67;12661,215;  192,398;52169,925;23,98886
 780,24;12613,059;  215,552;51941,430;23,96771
 780,80;12667,135;  230,552;51913,242;24,06334
 781,37;12716,057;  215,399;51974,054;24,15182
 781,94;12683,286;  213,783;51672,020;24,23228
 782,50;12762,746;  219,706;51698,678;24,36537
 783,07;12777,130;  237,014;51642,875;24,39433
 783,63;12783,436;  190,322;51544,302;24,52218
 784,20;12768,512;  235,553;51440,268;24,47618
 784,77;12795,126;  214,322;51211,388;24,66966
 785,33;12779,278;  196,937;51066,508;24,73451
 785,90;12749,277;  212,476;51080,397;24,64579
 786,46;12784,814;  234,553;50914,132;24,76394
 787,03;12863,966;  197,783;50790,867;25,03540
 787,59;12853,350;  208,322;50631,140;25,07799
 788,16;12878,425;  216,706;50664,568;25,09862
 788,73;12829,732;  223,399;50437,380;25,10522
 789,29;12832,653;  205,168;50103,192;25,30658
 789,86;12821,421;  231,245;50010,466;25,29203
 790,42;12802,651;  213,168;49875,124;25,35036
 790,99;12733,419;  228,553;49488,321;25,38556
 791,55;12753,264;  209,168;49533,286;25,43197
 792,12;12798,493;  231,476;49512,406;25,50077
 792,68;12708,030;  208,937;49095,680;25,56745
 793,25;12688,106;  226,937;48901,569;25,60095
 793,81;12689,027;  268,937;48494,612;25,75410
 794,38;12541,565;  196,322;48275,962;25,67665
 794,94;12609,640;  198,476;48162,005;25,87625
 795,51;12529,793;  230,938;47886,279;25,80793
 796,07;12423,561;  218,476;47564,168;25,77866
 796,64;12507,867;  226,399;47808,672;25,81102
 797,20;12438,635;  224,015;47354,022;25,91686
 797,77;12345,326;  205,015;46997,065;25,94524
 798,33;12348,017;  222,245;46805,723;26,03020
 798,90;12320,862;  243,861;46821,074;25,92899
 799,46;12243,476;  220,015;46297,578;26,09396
 800,03;12218,167;  220,861;46275,929;26,04991
 800,59;12249,934;  235,476;45994,818;26,25575
 801,15;12223,395;  230,476;45830,245;26,30039
 801,72;12164,239;  230,322;45478,057;26,37462
 802,28;12122,623;  259,399;45207,562;26,39312
 802,85;11996,468;  228,784;45054,297;26,25220
 803,41;12041,159;  218,092;44878,263;26,47340
 803,98;12010,003;  215,553;44497,306;26,63501
 804,54;11942,848;  229,015;44161,733;26,66312
 805,11;11943,847;  224,784;44049,161;26,74097
 805,67;11956,153;  250,323;43958,357;26,78187
 806,23;11857,306;  230,169;43495,939;26,87376
 806,80;11884,689;  247,476;43403,212;26,96562
 807,36;11893,226;  239,630;43432,563;26,98033
 807,93;11856,686;  233,630;43096,836;27,11663
 808,49;11769,839;  205,169;42759,648;27,17615
 809,05;11758,607;  191,092;42576,537;27,29124
 809,62;11811,298;  232,092;42497,119;27,39666
 810,18;11839,989;  229,553;42374,084;27,54909
 810,74;11721,834;  199,015;42189,589;27,44144
 811,31;11737,063;  195,784;41949,555;27,64128
 811,87;11728,754;  217,554;41813,598;27,67379
 812,44;11756,676;  237,630;41883,564;27,65947
 813,00;11706,597;  181,092;41517,683;27,88209
 813,56;11726,288;  232,861;41640,265;27,75694
 814,13;11786,672;  225,861;41665,077;27,89824
 814,69;11762,747;  229,554;41382,735;28,02504
 815,25;11590,284;  200,400;40900,778;27,98471
 815,82;11601,591;  230,631;40897,513;27,96123
 816,38;11633,820;  252,092;40699,633;28,13948
 816,94;11526,742;  206,477;40456,060;28,12517
 817,51;11491,433;  201,400;40201,795;28,22480
 818,07;11455,739;  203,169;39878,530;28,36161
 818,63;11414,584;  229,708;39651,188;28,37254
 819,20;11436,429;  224,938;39564,231;28,49947
 819,76;11302,735;  207,246;39142,813;28,49705
 820,32;11302,965;  256,169;39117,471;28,42621
 820,89;11231,117;  243,323;38874,668;28,44269
 821,45;11192,500;  212,785;38522,018;28,66076
 822,01;11138,576;  239,015;38368,753;28,58546
 822,57;11128,959;  236,939;38122,411;28,74986
 823,14;11054,573;  209,246;38010,685;28,69025
 823,70;10979,034;  211,477;37733,420;28,69669
 824,26;10925,801;  211,015;37560,001;28,68829
 824,82;10967,646;  228,708;37415,813;28,87812
 825,39;10792,414;  217,708;37118,241;28,65733
 825,95;10832,028;  232,477;37037,976;28,79882
 826,51;10740,873;  230,016;36661,711;28,85086
 827,08;10836,795;  246,554;36741,062;29,01872
 827,64;10737,793;  231,785;36610,028;28,87992
 828,20;10660,792;  206,554;36350,070;28,92424
 828,76;10732,406;  235,708;36260,344;29,13756
 829,32;10735,713;  241,862;36114,079;29,25342
 829,89;10636,250;  203,631;35993,507;29,14964
 830,45;10653,941;  215,785;35818,396;29,31851
 831,01;10640,401;  216,554;35771,515;29,31756
 831,57;10646,092;  223,477;35624,789;29,44132
 832,14;10633,244;  218,477;35559,832;29,46907
 832,70;10568,858;  210,862;35379,029;29,45276
 833,26;10564,165;  184,939;35228,994;29,61765
 833,82;10531,625;  221,016;35148,960;29,51966
 834,38;10581,085;  204,785;35247,772;29,61020
 834,95;10511,238;  209,400;35016,815;29,59667
 835,51;10495,544;  182,401;34926,781;29,68291
 836,07;10567,081;  223,785;35040,593;29,70777
 836,63;10586,311;  231,708;35020,098;29,76454
 837,19;10573,848;  219,401;34756,987;29,98023
 837,75;10503,616;  185,708;34560,029;30,01632
 838,32;10600,230;  231,554;34622,841;30,14913
 838,88;10618,536;  238,016;34675,500;30,14309
 839,44;10557,765;  219,401;34458,235;30,19485
 840,00;10602,456;  222,324;34399,278;30,37173
 840,56;10545,609;  203,862;34165,551;30,45121
 841,12;10562,608;  199,862;34099,825;30,56860
 841,68;10423,914;  190,324;33935,483;30,32610
 842,25;10573,066;  200,708;33989,449;30,69768
 842,81;10456,757;  189,708;33763,569;30,58048
 843,37;10479,064;  186,939;33641,996;30,76403
 843,93;10459,678;  202,709;33671,808;30,64609
 844,49;10538,292;  213,555;33658,697;30,87066
 845,05;10463,521;  179,016;33464,586;30,89779
 845,61;10519,058;  226,785;33565,552;30,87179
 846,17;10500,519;  206,632;33410,441;31,00213
 846,73;10520,748;  211,093;33349,099;31,11127
 847,29;10447,824;  198,555;33127,527;31,12538
 847,86;10460,592;  209,170;33115,185;31,15364
 848,42;10432,898;  195,401;32856,920;31,34422
 848,98;10469,435;  205,632;32878,732;31,41362
 849,54;10429,972;  203,247;32831,467;31,34319
 850,10;10473,355;  216,478;32745,279;31,53168
 850,66;10419,277;  199,478;32511,168;31,62880
 851,22;10405,199;  191,016;32407,211;31,70512
 851,78;10502,121;  239,786;32581,485;31,73097
 852,34;10380,581;  219,324;32270,451;31,70327
 852,90;10355,810;  207,478;32195,570;31,72534
 853,46;10304,732;  188,247;31920,459;31,88081
 854,02;10334,654;  216,401;31898,425;31,93689
 854,58;10258,576;  205,401;31641,468;31,97975
 855,14;10272,728;  193,940;31606,511;32,08521
 855,70;10210,573;  166,555;31445,400;32,11122
 856,26;10248,879;  224,709;31435,827;32,11731
 856,82;10180,955;  194,709;31250,563;32,15576
 857,38;10154,261;  230,017;31264,144;31,97849
 857,94;10176,491;  211,555;31077,110;32,28497
 858,50;10125,259;  213,324;30971,845;32,22500
 859,06;10072,642;  204,786;30794,119;32,25914
 859,62;10061,025;  214,171;30736,161;32,26151
 860,18; 9983,178;  208,171;30545,666;32,22088
 860,74; 9954,561;  177,325;30374,247;32,37825
 861,30; 9913,483;  176,094;30279,598;32,34636
 861,86; 9999,481;  231,248;30364,948;32,41631
 862,42; 9921,249;  210,709;30084,991;32,50468
 862,98; 9951,786;  235,325;30010,880;32,63234
 863,54; 9876,016;  206,325;29777,692;32,69951
 864,10; 9918,553;  200,632;29861,504;32,76344
 864,66; 9850,859;  177,786;29653,008;32,81764
 865,22; 9861,935;  209,632;29465,590;32,99261
 865,78; 9837,549;  211,786;29383,402;32,99702
 866,34; 9830,932;  207,017;29318,368;33,05898
 866,90; 9805,392;  226,017;29252,410;33,00229
 867,45; 9724,545;  221,786;28986,223;33,03648
 868,01; 9741,005;  213,171;28949,573;33,15597
 868,57; 9631,773;  209,556;28593,231;33,19590
 869,13; 9647,925;  190,248;28553,351;33,34500
 869,69; 9628,078;  189,402;28412,317;33,44331
 870,25; 9543,923;  194,940;28284,052;33,28330
 870,81; 9631,306;  213,786;28210,941;33,63742
 871,37; 9612,228;  207,171;28206,676;33,59008
 871,93; 9609,073;  226,863;27964,181;33,82522
 872,49; 9536,071;  223,094;27773,531;33,80337
 873,04; 9389,070;  203,402;27623,651;33,49958
 873,60; 9431,684;  197,556;27409,694;33,93386
 874,16; 9388,837;  207,017;27378,121;33,79259
 874,72; 9346,144;  194,248;27259,121;33,81466
 875,28; 9398,375;  209,479;27254,583;33,97619
 875,84; 9346,144;  207,787;27177,429;33,88387
 876,40; 9388,298;  203,094;27136,583;34,10328
 876,95; 9394,529;  220,094;27097,275;34,13466
 877,51; 9393,837;  234,633;27088,583;34,10747
 878,07; 9447,683;  242,017;27203,967;34,14317
 878,63; 9422,606;  203,787;27116,967;34,25392
 879,19; 9472,452;  226,171;27111,044;34,39213
 879,75; 9483,375;  205,479;27221,660;34,34200
 880,30; 9531,375;  204,710;27218,813;34,52517
 880,86; 9620,452;  235,787;27351,352;34,60988
 881,42; 9618,067;  192,710;27380,737;34,66731
 881,98; 9657,452;  231,248;27497,737;34,57066
 882,54; 9720,683;  207,787;27677,813;34,63009
 883,09; 9797,913;  222,556;27728,890;34,81146
 883,65; 9814,067;  189,863;27895,967;34,73676
 884,21; 9977,837;  234,479;28106,967;34,95690
 884,77; 9964,067;  204,479;28148,198;34,92588
 885,32;10061,067;  208,017;28301,967;35,07179
 885,88;10159,144;  248,633;28505,121;35,07340
 886,44;10224,990;  220,479;28639,429;35,20366
 887,00;10195,529;  237,402;28713,352;34,97031
 887,56;10326,298;  208,633;28820,737;35,36149
 888,11;10361,298;  208,556;28820,660;35,48408
 888,67;10447,683;  237,402;29049,583;35,43738
 889,23;10438,452;  213,633;29155,737;35,32853
 889,79;10403,990;  197,556;28932,198;35,51962
 890,34;10469,990;  210,863;28913,044;35,74337
 890,90;10559,760;  264,710;29075,352;35,73350
 891,46;10481,375;  194,402;28963,967;35,75644
 892,01;10527,375;  233,402;29017,660;35,76251
 892,57;10506,606;  239,633;28921,813;35,79565
 893,13;10459,375;  209,402;28708,275;35,96624
 893,69;10478,067;  199,787;28602,583;36,18757
 894,24;10426,067;  226,479;28535,967;36,02887
 894,80;10375,298;  229,171;28394,275;36,02375
 895,36;10361,375;  217,787;28279,198;36,14782
 895,91;10338,913;  210,402;27991,890;36,45777
 896,47;10288,067;  227,710;27950,352;36,28932
 897,03;10216,298;  203,556;27715,429;36,39426
 897,58;10184,529;  228,556;27554,275;36,43444
 898,14;10173,298;  224,094;27410,737;36,59593
 898,70;10079,067;  184,863;27270,583;36,52923
 899,25;10138,913;  208,248;27270,583;36,69552
 899,81;10037,144;  227,017;27002,352;36,63867
 900,37; 9955,683;  183,863;26745,967;36,78857
 900,92; 9980,452;  222,402;26673,737;36,89058
 901,48; 9930,452;  206,633;26537,429;36,92945
 902,03; 9892,067;  206,479;26396,737;36,98165
 902,59; 9883,990;  209,402;26331,275;37,03635
 903,15; 9826,221;  229,479;26172,352;36,99183
 903,70; 9777,990;  215,556;25943,121;37,16805
 904,26; 9738,144;  203,402;25826,737;37,21117
 904,82; 9752,683;  216,248;25825,506;37,23823
 905,37; 9749,683;  219,710;25617,660;37,52261
 905,93; 9605,144;  206,633;25516,275;37,13411
 906,48; 9599,144;  214,787;25397,813;37,26461
 907,04; 9621,298;  231,556;25286,275;37,47694
 907,60; 9552,067;  210,094;25075,044;37,57085
 908,15; 9490,990;  195,710;24944,660;37,55828
 908,71; 9470,452;  240,479;25003,737;37,27285
 909,26; 9435,990;  195,556;24794,044;37,56505
 909,82; 9349,606;  223,017;24712,506;37,26737
 910,37; 9332,606;  248,325;24564,660;37,35876
 910,93; 9327,837;  199,094;24395,275;37,72803
 911,48; 9261,606;  203,479;24242,583;37,68080
 912,04; 9178,606;  207,633;24199,275;37,39208
 912,60; 9195,221;  209,710;24197,352;37,45892
 913,15; 9176,452;  214,863;23988,813;37,69499
 913,71; 9097,452;  200,940;23847,506;37,62285
 914,26; 8998,990;  193,479;23809,506;37,28617
 914,82; 9077,529;  209,863;23623,352;37,87417
 915,37; 9055,298;  200,940;23601,813;37,83772
 915,93; 8982,990;  245,940;23394,660;37,74312
 916,48; 8946,298;  204,094;23331,275;37,80056
 917,04; 8892,606;  227,325;23243,583;37,64852
 917,59; 8973,837;  242,248;23199,275;38,03449
 918,15; 8856,990;  186,402;22993,352;38,01731
 918,70; 8832,144;  202,940;22793,198;38,19878
 919,26; 8811,760;  209,787;22780,121;38,11185
 919,81; 8728,144;  203,248;22632,583;38,00780
 920,37; 8750,606;  201,940;22625,583;38,12345
 920,92; 8708,221;  221,633;22410,660;38,24678
 921,48; 8604,221;  192,017;22187,121;38,24580
 922,03; 8653,837;  211,402;22143,967;38,49269
 922,59; 8597,990;  206,094;22018,583;38,47290
 923,14; 8591,221;  202,556;21817,813;38,80900
 923,69; 8582,452;  222,248;21830,967;38,68903
 924,25; 8579,990;  218,017;21819,660;38,70990
 924,80; 8460,144;  220,094;21615,275;38,51358
 925,36; 8460,067;  208,094;21564,198;38,63988
 925,91; 8397,452;  207,248;21413,583;38,62150
 926,47; 8411,452;  194,633;21391,813;38,76374
 927,02; 8419,375;  244,325;21247,429;38,92306
 927,57; 8329,683;  203,479;21142,121;38,80960
 928,13; 8313,375;  196,710;21022,044;38,97496
 928,68; 8294,760;  199,710;20910,198;39,08672
 929,24; 8242,221;  180,171;20668,967;39,34858
 929,79; 8235,144;  192,094;20609,813;39,39250
 930,34; 8181,760;  203,940;20470,044;39,36533
 930,90; 8159,067;  195,710;20437,890;39,34041
 931,45; 8200,067;  210,248;20363,121;39,64606
 932,01; 8223,760;  220,940;20308,275;39,84013
 932,56; 8118,913;  223,094;20166,044;39,59203
 933,11; 8132,913;  222,248;20138,506;39,71964
 933,67; 8013,452;  207,940;19942,352;39,55280
 934,22; 8054,913;  206,940;19883,121;39,88565
 934,77; 8058,529;  238,248;19814,660;39,94747
 935,33; 7976,837;  229,248;19655,890;39,88125
 935,88; 7963,067;  219,094;19545,737;40,06890
 936,43; 7923,221;  201,863;19378,275;40,26487
 936,99; 7867,837;  213,633;19397,275;39,89964
 937,54; 7820,683;  190,248;19157,660;40,22918
 938,09; 7816,221;  218,863;19201,429;40,02282
 938,65; 7776,067;  204,479;19017,121;40,24734
 939,20; 7725,760;  198,787;19036,890;39,95611
 939,75; 7743,452;  197,710;18855,583;40,44267
 940,31; 7713,606;  190,633;18727,890;40,58299
 940,86; 7662,760;  206,556;18781,352;40,14151
 941,41; 7712,375;  260,171;18636,506;40,55327
 941,96; 7655,760;  202,094;18465,583;40,81184
 942,52; 7588,375;  205,094;18439,506;40,49092
 943,07; 7571,760;  183,325;18308,429;40,76354
 943,62; 7527,067;  204,248;18210,967;40,66715
 944,18; 7548,606;  193,402;18141,121;40,98127
 944,73; 7475,221;  211,171;18004,121;40,82544
 945,28; 7432,683;  171,940;17833,506;41,11041
 945,83; 7422,298;  210,171;17933,275;40,69336
 946,39; 7404,913;  203,479;17847,198;40,81585
 946,94; 7412,221;  221,325;17754,890;41,01217
 947,49; 7363,375;  199,402;17674,890;40,99441
 948,04; 7421,529;  225,325;17612,275;41,38853
 948,59; 7325,760;  225,863;17549,275;40,98440
 949,15; 7323,298;  193,710;17439,044;41,34213
 949,70; 7296,067;  194,940;17307,737;41,49601
 950,25; 7266,067;  221,710;17227,583;41,42309
 950,80; 7236,837;  177,094;17162,583;41,56338
 951,36; 7198,913;  168,633;17053,813;41,63580
 951,91; 7230,452;  216,017;17033,660;41,70879
 952,46; 7163,683;  186,710;16851,198;41,86731
 953,01; 7199,452;  220,017;16874,429;41,90742
 953,56; 7069,837;  190,710;16723,813;41,60820
 954,11; 7139,837;  210,017;16666,429;42,11015
 954,67; 7083,913;  190,325;16595,660;42,02041
 955,22; 7004,298;  176,940;16448,506;41,95883
 955,77; 7058,990;  226,710;16405,967;42,22864
 956,32; 7042,375;  240,863;16313,429;42,31752
 956,87; 6895,452;  192,248;16185,506;41,91269
 957,42; 6912,375;  200,710;16126,352;42,14377
 957,98; 6910,760;  191,171;16080,890;42,28891
 958,53; 6851,529;  219,171;15989,044;42,05714
 959,08; 6823,529;  188,710;15911,044;42,19996
 959,63; 6799,221;  189,940;15775,121;42,40747
 960,18; 6761,683;  210,402;15762,737;42,12410
 960,73; 6770,452;  216,325;15724,198;42,26322
 961,28; 6672,683;  184,710;15541,352;42,24864
 961,83; 6693,913;  214,633;15585,737;42,15235
 962,39; 6623,837;  191,171;15382,429;42,34452
 962,94; 6622,298;  219,017;15371,967;42,25765
 963,49; 6599,298;  210,402;15196,352;42,63257
 964,04; 6611,606;  219,940;15130,352;42,86713
 964,59; 6545,298;  176,633;15055,660;42,80297
 965,14; 6542,067;  215,479;15025,198;42,71917
 965,69; 6470,606;  204,787;14934,583;42,53840
 966,24; 6444,298;  200,633;14815,352;42,72176
 966,79; 6422,298;  218,863;14717,506;42,78631
 967,34; 6344,913;  185,094;14596,506;42,74265
 967,89; 6360,375;  202,787;14507,044;43,04724
 968,44; 6358,606;  198,017;14452,967;43,21719
 968,99; 6329,298;  213,863;14338,198;43,29715
 969,55; 6347,375;  202,094;14296,506;43,60083
 970,10; 6279,298;  205,940;14232,660;43,29849
 970,65; 6270,837;  220,094;14076,890;43,66624
 971,20; 6185,913;  196,402;14068,506;43,17666
 971,75; 6104,144;  188,094;13866,813;43,25003
 972,30; 6155,683;  201,787;13871,352;43,55586
 972,85; 6107,067;  190,325;13710,044;43,76380
 973,40; 6027,452;  195,940;13601,583;43,50043
 973,95; 6023,298;  212,633;13533,275;43,62151
 974,50; 5995,375;  232,787;13453,737;43,58680
 975,05; 5967,298;  204,248;13365,967;43,78645
 975,60; 5921,837;  219,094;13343,660;43,45090
 976,15; 5870,837;  199,325;13193,429;43,64681
 976,70; 5868,067;  219,094;13112,890;43,81156
 977,25; 5818,606;  205,633;13075,890;43,61197
 977,80; 5769,760;  194,633;12895,121;43,89695
 978,35; 5741,144;  215,171;12774,583;43,99866
 978,89; 5708,837;  183,325;12760,737;43,93202
 979,44; 5725,837;  209,017;12666,967;44,28352
 979,99; 5615,144;  185,325;12527,506;43,99400
 980,54; 5626,913;  232,325;12426,352;44,23960
 981,09; 5588,683;  216,248;12317,967;44,39398
 981,64; 5515,144;  213,094;12252,506;44,03911
 982,19; 5540,529;  238,633;12166,275;44,45050
 982,74; 5491,990;  226,787;12040,660;44,56797
 983,29; 5398,990;  202,556;11867,198;44,54860
 983,84; 5384,375;  215,633;11817,506;44,55093
 984,39; 5405,144;  255,171;11742,737;44,83085
 984,94; 5260,990;  189,402;11602,583;44,43624
 985,49; 5283,913;  232,402;11616,737;44,37248
 986,03; 5238,837;  235,863;11483,737;44,47928
 986,58; 5218,606;  250,248;11272,583;45,07537
 987,13; 5111,683;  217,940;11179,121;44,64612
 987,68; 5124,375;  224,863;11124,813;44,94985
 988,23; 5073,144;  223,402;11041,660;44,82924
 988,78; 5011,529;  194,940;10871,044;45,11560
 989,33; 4986,606;  222,633;10793,429;45,06731
 989,88; 4969,683;  228,940;10750,583;45,05706
 990,42; 4896,298;  211,556;10600,583;45,09318
 990,97; 4876,375;  207,171;10519,275;45,27887
 991,52; 4848,990;  233,710;10440,429;45,21806
 992,07; 4832,760;  236,710;10326,121;45,55320
 992,62; 4796,683;  223,710;10224,352;45,72679
 993,17; 4718,837;  221,017;10097,890;45,53890
 993,71; 4709,837;  223,094;10045,275;45,67970
 994,26; 4610,529;  204,863; 9927,275;45,31453
 994,81; 4624,990;  242,633; 9874,198;45,49995
 995,36; 4563,067;  206,940; 9703,429;45,87092
 995,91; 4533,375;  215,863; 9595,506;46,03066
 996,45; 4488,375;  221,402; 9499,890;45,98780
 997,00; 4405,529;  195,710; 9390,429;45,78519
 997,55; 4396,452;  220,863; 9359,506;45,69156
 998,10; 4348,760;  236,787; 9199,429;45,87903
 998,65; 4334,221;  214,325; 9193,044;45,88512
 999,19; 4321,452;  231,787; 9026,660;46,50056
 999,74; 4258,452;  241,094; 8959,506;46,07901
1000,29; 4206,837;  235,863; 8835,813;46,17437
1000,84; 4122,606;  209,094; 8706,352;46,05617
1001,38; 4123,913;  212,017; 8637,967;46,42677
1001,93; 4136,683;  237,633; 8545,044;46,93460
1002,48; 4050,760;  200,402; 8430,583;46,78339
1003,03; 4052,990;  218,017; 8380,583;46,98245
1003,57; 3990,837;  223,940; 8267,813;46,82938
1004,12; 3997,683;  240,325; 8173,352;47,36348
1004,67; 3936,144;  216,787; 8122,429;47,04688
1005,22; 3872,606;  214,171; 7957,890;47,24390
1005,76; 3800,452;  204,017; 7781,429;47,46257
1006,31; 3780,298;  233,094; 7764,890;47,09639
1006,86; 3698,452;  211,094; 7661,967;46,80469
1007,40; 3641,990;  198,863; 7516,121;47,05488
1007,95; 3636,837;  215,556; 7444,506;47,32749
1008,50; 3590,144;  217,940; 7290,737;47,67851
1009,04; 3520,452;  215,325; 7252,044;46,96971
1009,59; 3466,606;  221,094; 7065,506;47,41842
1010,14; 3418,529;  215,171; 6978,121;47,36628
1010,68; 3362,529;  210,402; 6885,352;47,22323
1011,23; 3295,606;  215,633; 6783,583;46,89398
1011,78; 3286,606;  230,556; 6716,813;47,11577
1012,32; 3272,452;  227,633; 6596,275;47,80955
1012,87; 3220,837;  239,248; 6569,044;47,10402
1013,42; 3154,221;  200,863; 6439,352;47,34092
1013,96; 3213,529;  236,479; 6478,429;47,69423
1014,51; 3162,452;  183,248; 6356,044;48,26344
1015,06; 3151,837;  194,248; 6373,660;47,86198
1015,60; 3203,990;  248,863; 6441,660;47,71878
1016,15; 3155,837;  200,479; 6417,044;47,54004
1016,69; 3184,375;  215,171; 6450,737;47,61724
1017,24; 3180,683;  191,248; 6452,506;47,74495
1017,79; 3274,144;  244,710; 6527,890;48,21498
1018,33; 3251,837;  206,556; 6545,967;48,03728
1018,88; 3298,913;  222,710; 6613,737;48,13317
1019,42; 3270,606;  217,402; 6592,813;47,89030
1019,97; 3289,452;  207,787; 6645,583;47,86833
1020,51; 3343,683;  221,248; 6675,352;48,37906
1021,06; 3335,375;  195,787; 6637,275;48,74011
1021,61; 3329,298;  180,556; 6637,429;48,76575
1022,15; 3309,298;  178,863; 6638,121;48,46431
1022,70; 3363,298;  216,094; 6619,583;49,14827
1023,24; 3359,606;  191,710; 6585,583;49,54581
1023,79; 3319,298;  213,017; 6536,813;49,12051
1024,33; 3277,452;  211,325; 6439,660;49,22868
1024,88; 3241,837;  218,325; 6365,737;49,18349
1025,42; 3184,529;  213,940; 6206,352;49,57250
1025,97; 3193,683;  197,248; 6175,967;50,11834
1026,51; 3045,760;  171,940; 6032,967;49,03269
1027,06; 3065,144;  199,633; 6030,737;49,14184
1027,60; 3029,990;  203,248; 5913,660;49,50155
1028,15; 2993,529;  220,094; 5816,813;49,55465
1028,69; 2893,452;  181,633; 5645,967;49,62762
1029,24; 2884,221;  202,325; 5606,352;49,62773
1029,78; 2828,760;  189,710; 5507,121;49,63035
1030,33; 2766,990;  174,402; 5402,121;49,59311
1030,87; 2749,606;  197,402; 5345,813;49,57265
1031,42; 2717,683;  183,248; 5266,275;49,86074
1031,96; 2693,606;  213,940; 5201,121;49,72078
1032,51; 2635,221;  191,094; 5094,967;49,84075
1033,05; 2621,683;  208,940; 5082,429;49,50750
1033,60; 2548,606;  174,094; 4932,121;49,90538
1034,14; 2522,837;  202,787; 4839,198;50,03978
1034,69; 2509,298;  199,633; 4803,506;50,16788
1035,23; 2473,375;  203,248; 4736,429;50,07801
1035,77; 2454,760;  198,248; 4712,044;49,99144
1036,32; 2362,144;  184,248; 4588,660;49,44806
1036,86; 2399,298;  201,325; 4551,044;50,53138
1037,41; 2361,221;  211,787; 4464,275;50,54534
1037,95; 2325,452;  181,402; 4387,813;50,97100
1038,50; 2278,837;  196,787; 4359,352;50,01843
1039,04; 2300,606;  211,479; 4286,506;51,26658
1039,58; 2206,913;  177,325; 4229,198;50,09013
1040,13; 2221,760;  201,940; 4152,429;51,12834
1040,67; 2208,298;  231,479; 4135,506;50,63539
1041,21; 2190,529;  230,248; 4055,275;51,24881
1041,76; 2129,375;  186,940; 3982,890;51,17124
1042,30; 2085,837;  199,171; 3926,121;50,62223
1042,85; 2073,529;  201,787; 3836,967;51,48966
1043,39; 2041,837;  190,863; 3820,352;50,99818
1043,93; 2030,913;  220,710; 3775,583;50,92176
1044,48; 1991,452;  206,556; 3680,660;51,37717
1045,02; 1972,452;  199,633; 3651,967;51,35132
1045,56; 1982,375;  225,171; 3618,813;51,77929
1046,11; 1955,913;  209,633; 3548,506;52,30150
1046,65; 1916,529;  216,787; 3522,890;51,41225
1047,19; 1872,298;  192,325; 3449,660;51,57508
1047,74; 1821,298;  179,556; 3397,121;51,02437
1048,28; 1819,452;  207,171; 3367,429;51,01738
1048,82; 1838,375;  215,556; 3326,890;52,15830
1049,37; 1799,837;  213,171; 3282,660;51,69152
1049,91; 1769,452;  214,171; 3209,737;51,91944
1050,45; 1748,606;  218,633; 3190,583;51,48044
1050,99; 1719,529;  208,863; 3146,506;51,42442
1051,54; 1696,990;  201,402; 3081,198;51,93383
1052,08; 1701,221;  221,710; 3041,813;52,46302
1052,62; 1688,298;  219,633; 2988,967;53,03315
1053,16; 1612,221;  197,171; 2941,737;51,55825
1053,71; 1620,837;  208,787; 2931,660;51,85883
1054,25; 1601,683;  212,402; 2884,737;51,98753
1054,79; 1605,298;  206,402; 2830,737;53,30479
1055,33; 1522,298;  182,940; 2764,506;51,88161
1055,88; 1528,606;  217,325; 2750,198;51,77049
1056,42; 1539,760;  223,171; 2709,813;52,94644
1056,96; 1506,913;  216,094; 2692,352;52,12782
1057,50; 1487,606;  221,787; 2617,198;52,84350
1058,05; 1460,452;  209,633; 2604,890;52,22065
1058,59; 1457,760;  225,710; 2565,506;52,65630
1059,13; 1408,837;  195,094; 2498,352;52,69677
1059,67; 1417,375;  218,787; 2483,044;52,93516
1060,21; 1386,760;  206,633; 2443,429;52,75970
1060,76; 1371,144;  227,017; 2397,506;52,71288
1061,30; 1375,760;  234,787; 2387,198;53,00906
1061,84; 1345,067;  216,325; 2339,198;53,17050
1062,38; 1303,452;  198,248; 2289,044;52,86043
1062,92; 1340,298;  247,171; 2322,275;52,67818
1063,46; 1298,913;  228,556; 2237,583;53,27742
1064,01; 1261,375;  213,325; 2211,044;52,46233
1064,55; 1256,606;  219,633; 2195,352;52,48585
1065,09; 1218,606;  183,863; 2112,813;53,64277
1065,63; 1257,144;  238,248; 2152,737;53,22028
1066,17; 1237,837;  239,479; 2103,737;53,55256
1066,71; 1213,529;  233,171; 2065,275;53,50994
1067,25; 1192,221;  211,479; 2028,352;53,97968
1067,80; 1189,990;  229,633; 2043,275;52,95188
1068,34; 1203,067;  245,940; 2019,813;53,95690
1068,88; 1134,760;  216,325; 1951,044;52,94428
1069,42; 1176,837;  244,863; 1978,660;53,75332
1069,96; 1136,067;  210,863; 1900,583;54,75489
1070,50; 1148,375;  247,556; 1924,506;53,71772
1071,04; 1112,606;  206,479; 1880,967;54,11366
1071,58; 1089,990;  222,017; 1857,044;53,08616
1072,12; 1088,067;  209,017; 1830,967;54,19711
1072,66; 1067,683;  208,479; 1832,967;52,89073
1073,21; 1076,990;  233,325; 1825,813;52,97780
1073,75; 1053,529;  226,863; 1769,737;53,57961
1074,29; 1044,452;  215,479; 1754,429;53,86615
1074,83; 1064,529;  240,940; 1737,813;55,02059
1075,37; 1051,221;  230,325; 1721,737;55,04156
1075,91; 1029,913;  227,787; 1700,583;54,46286
1076,45; 1024,452;  222,710; 1648,737;56,22210
1076,99; 1016,452;  240,940; 1644,121;55,26811
1077,53;  964,221;  207,940; 1628,429;53,24089
1078,07;  963,990;  220,556; 1626,506;52,87774
1078,61;  949,990;  224,787; 1581,813;53,44064
1079,15;  948,760;  214,710; 1570,044;54,16006
1079,69;  953,067;  220,094; 1539,813;55,54008
1080,23;  951,529;  236,094; 1549,275;54,48105
1080,77;  978,837;  252,171; 1544,967;56,20881
1081,31;  904,837;  215,325; 1492,737;53,97724
1081,85;  945,913;  233,171; 1495,506;56,46223
1082,39;  900,067;  213,325; 1457,275;55,20658
1082,93;  908,683;  225,094; 1455,967;55,53688
1083,47;  862,990;  210,940; 1399,813;54,84606
1084,01;  894,913;  234,479; 1432,429;55,13040
1084,55;  878,452;  219,171; 1379,044;56,84077
1085,09;  882,529;  233,402; 1387,813;56,23011
1085,63;  850,221;  218,248; 1364,121;55,15210
1086,17;  841,529;  216,479; 1355,275;54,88691
1086,71;  826,298;  216,787; 1319,506;55,27350
1087,24;  846,606;  247,863; 1344,890;54,57863
1087,78;  839,144;  231,325; 1316,121;56,03073
1088,32;  793,144;  207,710; 1275,813;54,81065
1088,86;  830,760;  242,402; 1294,352;55,93020
1089,40;  793,990;  232,710; 1262,890;54,48372
1089,94;  769,837;  196,556; 1243,121;54,77735
1090,48;  787,375;  229,325; 1235,352;55,47068
1091,02;  791,606;  232,710; 1212,352;57,05104
1091,56;  768,606;  229,940; 1211,737;54,86530
1092,10;  742,298;  213,248; 1173,121;55,11666
1092,63;  773,298;  241,863; 1199,660;55,48515
1093,17;  758,990;  234,710; 1157,813;56,79543
1093,71;  740,683;  210,248; 1145,275;56,72934
1094,25;  756,913;  242,171; 1160,583;56,04702
1094,79;  734,760;  231,556; 1116,121;56,88713
1095,33;  732,298;  219,094; 1106,275;57,84659
1095,87;  724,067;  221,402; 1097,275;57,39021
1096,40;  704,990;  211,402; 1064,890;57,83188
1096,94;  711,375;  220,710; 1059,506;58,49638
1097,48;  705,913;  232,171; 1075,813;56,15440
1098,02;  685,375;  232,017; 1032,506;56,63513
1098,56;  670,837;  206,094; 1007,967;57,95709
1099,10;  659,452;  206,633;  993,506;57,54667
1099,63;  654,683;  202,787;  988,967;57,47993
1100,17;  679,452;  222,863;  985,506;59,86928
1100,71;  696,452;  232,940;  991,737;61,08512

