
Integration time [ms]: 115,000
Averaging Nr. [scans]: 13
Smoothing Nr. [pixels]: 0
Data measured with spectrometer [name]: 2009305U1
Wave   ;Sample   ;Dark     ;Reference;Reflectance
[nm]   ;[counts] ;[counts] ;[counts] ;[%]

 175,72;  183,785;  176,239;  192,535;46,30664
 176,32;  214,794;  211,934;  210,654; 0,00000
 176,92;  245,148;  225,163;  228,142;670,86322
 177,52;  254,597;  252,086;  251,024; 0,00000
 178,12;  231,219;  223,549;  212,736; 0,00000
 178,72;  246,995;  243,857;  232,990; 0,00000
 179,32;  237,399;  236,780;  232,605; 0,00000
 179,92;  242,962;  232,933;  233,930; 0,00000
 180,52;  235,004;  234,084;  244,758; 8,61394
 181,12;  248,636;  235,010;  240,995;227,68062
 181,73;  265,286;  253,163;  254,844;721,35070
 182,33;  327,863;  298,008;  297,582; 0,00000
 182,93;  257,400;  245,240;  250,595;227,06505
 183,53;  222,770;  227,319;  217,483; 0,00000
 184,13;  234,117;  231,011;  221,458; 0,00000
 184,73;  262,926;  249,935;  249,706; 0,00000
 185,33;  262,300;  222,716;  326,527;38,13139
 185,93;  268,190;  214,717;  353,127;38,63375
 186,53;  284,281;  241,332;  365,557;34,57371
 187,13;  294,792;  264,099;  400,362;22,52446
 187,73;  262,652;  220,102;  360,559;30,29416
 188,33;  275,365;  227,718;  355,547;37,27393
 188,93;  283,920;  231,182;  389,767;33,25516
 189,53;  283,013;  240,799;  397,281;26,97701
 190,13;  318,008;  271,649;  418,569;31,55400
 190,73;  256,079;  217,185;  353,690;28,49269
 191,34;  293,333;  254,183;  378,073;31,60058
 191,94;  257,290;  227,565;  351,476;23,98899
 192,54;  285,225;  237,868;  391,072;30,91133
 193,14;  287,415;  248,715;  367,171;32,67031
 193,74;  286,309;  249,561;  377,015;28,83178
 194,34;  272,484;  235,099;  373,562;26,99998
 194,94;  242,219;  206,792;  326,435;29,61029
 195,54;  230,022;  196,177;  306,559;30,66149
 196,14;  250,225;  218,484;  345,393;25,01076
 196,74;  239,337;  211,331;  332,860;23,04460
 197,34;  232,822;  187,252;  341,491;29,54533
 197,94;  255,779;  225,715;  366,581;21,34207
 198,54;  263,368;  217,484;  375,036;29,12316
 199,14;  246,003;  197,636;  374,578;27,33509
 199,74;  245,046;  198,097;  374,544;26,60752
 200,34;  229,650;  186,097;  382,388;22,18815
 200,94;  279,461;  223,637;  423,813;27,88778
 201,54;  252,303;  202,328;  426,059;22,33675
 202,14;  271,969;  211,635;  454,454;24,84729
 202,74;  262,390;  204,328;  459,386;22,76428
 203,34;  247,418;  195,558;  484,506;17,94794
 203,94;  224,028;  163,635;  488,134;18,61103
 204,54;  297,036;  228,869;  576,728;19,59627
 205,14;  272,377;  199,405;  583,682;18,98941
 205,74;  325,795;  218,481;  689,034;22,80586
 206,34;  284,070;  197,405;  695,130;17,41227
 206,94;  307,730;  203,328;  758,320;18,81150
 207,54;  292,415;  180,251;  808,972;17,84001
 208,14;  317,624;  195,097;  884,612;17,77010
 208,74;  326,030;  194,559;  973,216;16,88426
 209,34;  330,767;  193,636; 1035,192;16,29497
 209,94;  351,902;  202,328; 1138,209;15,98218
 210,54;  367,975;  198,866; 1278,087;15,66953
 211,14;  377,664;  209,174; 1387,429;14,29989
 211,73;  391,353;  201,175; 1481,066;14,85893
 212,33;  411,803;  218,791; 1621,615;13,75888
 212,93;  420,483;  196,636; 1687,436;15,01522
 213,53;  408,226;  181,790; 1751,490;14,42543
 214,13;  425,962;  176,403; 1840,494;14,99671
 214,73;  415,123;  178,481; 1882,146;13,89015
 215,33;  395,748;  156,405; 1881,671;13,87284
 215,93;  433,919;  188,327; 2004,541;13,52221
 216,53;  426,464;  142,559; 2120,685;14,35224
 217,13;  495,468;  210,866; 2330,389;13,42766
 217,73;  514,773;  181,250; 2511,243;14,31435
 218,33;  505,007;  162,403; 2717,931;13,40640
 218,93;  567,608;  172,632; 3034,286;13,80237
 219,53;  624,204;  174,942; 3329,667;14,24093
 220,13;  642,923;  151,557; 3630,169;14,12535
 220,73;  721,680;  167,405; 4022,604;14,37733
 221,32;  796,799;  178,251; 4438,831;14,51791
 221,92;  870,093;  192,249; 4839,758;14,58509
 222,52;  927,736;  172,558; 5288,171;14,76223
 223,12; 1019,402;  167,481; 5667,302;15,48999
 223,72; 1144,522;  185,019; 6101,038;16,21872
 224,32; 1194,286;  176,865; 6457,959;16,19814
 224,92; 1264,341;  175,404; 6750,553;16,56141
 225,52; 1361,850;  188,020; 7141,364;16,88151
 226,12; 1422,723;  182,327; 7406,758;17,16946
 226,72; 1493,640;  155,174; 7753,787;17,61462
 227,31; 1576,081;  151,251; 8116,765;17,88749
 227,91; 1693,857;  174,405; 8483,173;18,28734
 228,51; 1805,366;  177,790; 8858,954;18,74836
 229,11; 1916,677;  166,020; 9259,013;19,25282
 229,71; 1951,419;  168,175; 9549,448;19,00856
 230,31; 2120,907;  163,326; 9978,285;19,94486
 230,91; 2212,830;  163,483;10275,130;20,26719
 231,51; 2328,752;  147,173;10535,529;21,00023
 232,10; 2420,106;  152,172;10961,492;20,98128
 232,70; 2565,330;  167,484;11191,562;21,75099
 233,30; 2699,484;  192,789;11484,718;22,19900
 233,90; 2784,694;  163,789;11681,157;22,75611
 234,50; 2845,895;  175,558;11834,788;22,90321
 235,10; 2950,187;  157,404;11945,630;23,69130
 235,70; 3096,574;  192,020;12055,542;24,48306
 236,29; 3130,780;  182,251;12046,002;24,85326
 236,89; 3158,835;  165,022;12027,332;25,23803
 237,49; 3243,020;  177,173;11955,862;26,02876
 238,09; 3230,916;  176,789;11831,592;26,20488
 238,69; 3231,882;  193,099;11562,206;26,72843
 239,29; 3192,011;  168,328;11357,605;27,02305
 239,89; 3195,933;  178,791;11119,277;27,57777
 240,48; 3140,049;  173,635;10750,647;28,04586
 241,08; 3052,863;  163,097;10440,606;28,11738
 241,68; 3024,781;  198,558;10197,575;28,26501
 242,28; 2912,367;  162,404; 9835,559;28,42881
 242,88; 2900,697;  190,480; 9551,769;28,95132
 243,48; 2789,362;  192,250; 9275,819;28,59131
 244,07; 2710,221;  186,482; 9060,382;28,44002
 244,67; 2673,017;  188,943; 8907,392;28,49216
 245,27; 2608,353;  182,329; 8765,066;28,26632
 245,87; 2545,254;  184,096; 8715,012;27,67766
 246,47; 2508,528;  172,329; 8647,318;27,56581
 247,06; 2417,462;  169,097; 8751,863;26,19628
 247,66; 2411,680;  170,943; 8780,591;26,02589
 248,26; 2423,576;  208,559; 8853,410;25,62238
 248,86; 2395,921;  189,559; 9072,867;24,83716
 249,46; 2341,325;  150,789; 9304,178;23,93142
 250,05; 2391,964;  191,405; 9678,021;23,19646
 250,65; 2349,525;  158,636; 9992,771;22,27841
 251,25; 2377,789;  179,713;10456,645;21,38844
 251,85; 2407,363;  182,329;11040,821;20,49119
 252,44; 2393,701;  147,251;11634,425;19,55615
 253,04; 2514,603;  180,559;12375,450;19,13952
 253,64; 2469,302;  144,175;13037,657;18,03335
 254,24; 2596,537;  186,559;13945,362;17,51590
 254,84; 2604,017;  175,712;14824,332;16,57703
 255,43; 2660,719;  178,713;15804,177;15,88437
 256,03; 2723,353;  163,329;16686,096;15,49392
 256,63; 2770,275;  176,868;17730,541;14,77416
 257,23; 2760,063;  165,098;18502,985;14,15084
 257,82; 2804,726;  177,022;19401,582;13,66847
 258,42; 2785,338;  132,484;20180,526;13,23249
 259,02; 2852,780;  174,636;21054,511;12,82644
 259,62; 2817,327;  159,792;21613,506;12,38730
 260,21; 2807,404;  177,328;22121,013;11,98557
 260,81; 2798,638;  170,481;22596,055;11,71946
 261,41; 2804,227;  166,176;22930,924;11,58832
 262,01; 2773,431;  195,023;23398,867;11,11198
 262,60; 2728,756;  161,483;23604,446;10,95114
 263,20; 2750,300;  164,944;23926,742;10,88030
 263,80; 2742,916;  182,562;23990,851;10,75405
 264,40; 2708,566;  145,484;24149,854;10,67756
 264,99; 2745,173;  179,331;24276,797;10,64777
 265,59; 2719,093;  164,255;24468,447;10,51192
 266,19; 2760,958;  164,638;24545,895;10,64884
 266,78; 2792,449;  198,716;24673,094;10,59775
 267,38; 2798,411;  172,332;24624,851;10,73951
 267,98; 2826,072;  158,331;24699,335;10,87055
 268,58; 2877,852;  177,562;24623,983;11,04574
 269,17; 2885,793;  165,332;24587,470;11,13932
 269,77; 2914,453;  182,945;24431,709;11,26453
 270,37; 2949,966;  150,485;24336,935;11,57459
 270,96; 3018,638;  204,253;24220,378;11,71873
 271,56; 3008,100;  167,868;23947,904;11,94377
 272,16; 3038,495;  169,176;23816,919;12,13358
 272,75; 3081,283;  166,561;23679,287;12,39636
 273,35; 3165,392;  173,099;23630,866;12,75608
 273,95; 3220,325;  175,176;23590,407;13,00499
 274,54; 3279,911;  155,251;23590,698;13,33305
 275,14; 3398,466;  180,253;23998,596;13,51149
 275,74; 3456,142;  144,022;24084,606;13,83475
 276,33; 3627,267;  190,099;24442,945;14,17223
 276,93; 3721,845;  175,943;24787,025;14,40774
 277,53; 3881,130;  174,867;25274,354;14,76629
 278,12; 4043,859;  157,252;25742,978;15,19053
 278,72; 4223,608;  194,867;26377,327;15,38717
 279,32; 4383,393;  165,713;26948,301;15,74784
 279,91; 4586,074;  163,021;27660,590;16,08525
 280,51; 4832,589;  173,251;28124,238;16,66967
 281,11; 5022,438;  174,098;28951,875;16,84751
 281,70; 5217,422;  153,098;29289,701;17,38131
 282,30; 5424,716;  159,098;29882,442;17,71543
 282,90; 5606,530;  169,945;30322,371;18,03034
 283,49; 5862,434;  186,099;30893,525;18,48522
 284,09; 6103,239;  190,714;31268,823;19,02473
 284,69; 6343,857;  189,175;31701,186;19,53123
 285,28; 6583,273;  191,867;32001,395;20,09274
 285,88; 6759,925;  199,022;32204,771;20,49914
 286,47; 6937,257;  175,329;32254,866;21,07863
 287,07; 7201,196;  203,944;32349,873;21,76715
 287,67; 7434,131;  190,789;32540,819;22,39053
 288,26; 7646,594;  169,559;32393,038;23,20369
 288,86; 7951,501;  172,175;32475,048;24,08246
 289,46; 8248,851;  170,636;32616,984;24,89715
 290,05; 8487,746;  162,251;32659,063;25,61942
 290,65; 8834,395;  175,252;32837,768;26,51095
 291,24; 9227,268;  189,559;32846,641;27,67458
 291,84; 9563,199;  182,406;33108,541;28,49041
 292,44; 9888,378;  176,327;33215,378;29,39567
 293,03;10291,873;  230,636;33279,207;30,44379
 293,63;10651,663;  170,022;33558,272;31,39320
 294,22;10949,371;  194,175;33609,771;32,18616
 294,82;11238,256;  181,561;33694,123;32,99269
 295,41;11405,652;  153,944;33405,778;33,83786
 296,01;11623,601;  217,176;33315,366;34,46238
 296,61;11719,600;  179,559;33087,471;35,06768
 297,20;11756,662;  182,638;32727,854;35,56290
 297,80;11879,362;  187,635;32483,187;36,20228
 298,39;11888,209;  163,868;32117,898;36,69128
 298,99;11997,352;  175,638;31987,785;37,16101
 299,58;12059,128;  186,558;31903,194;37,43326
 300,18;12095,072;  207,097;31634,199;37,82714
 300,78;12079,125;  169,405;31248,968;38,32010
 301,37;12155,083;  186,639;31248,200;38,53137
 301,97;12211,523;  182,021;31203,424;38,77807
 302,56;12228,909;  166,099;31192,784;38,87882
 303,16;12248,734;  155,099;31139,100;39,03187
 303,75;12360,271;  174,405;31130,312;39,36524
 304,35;12484,888;  163,635;31375,055;39,47675
 304,94;12510,905;  180,098;31411,616;39,48193
 305,54;12550,722;  203,636;31326,908;39,67155
 306,13;12491,829;  149,173;31256,038;39,67824
 306,73;12456,192;  165,404;31021,614;39,83246
 307,33;12547,333;  185,020;31002,479;40,11464
 307,92;12571,125;  169,944;31026,844;40,18933
 308,52;12731,100;  165,099;31545,656;40,04391
 309,11;12974,068;  172,638;31967,983;40,26196
 309,71;13047,057;  155,177;32273,763;40,13838
 310,30;13156,106;  157,098;32512,708;40,17544
 310,90;13362,414;  179,329;32754,785;40,46938
 311,49;13374,374;  182,559;32933,165;40,27961
 312,09;13442,555;  142,636;33146,067;40,29860
 312,68;13597,610;  201,790;33436,875;40,30626
 313,28;13636,356;  152,559;33623,921;40,28458
 313,87;13637,483;  150,482;33764,236;40,12346
 314,47;13758,134;  167,253;34029,596;40,13568
 315,06;13772,793;  148,405;34111,168;40,11566
 315,66;13825,401;  158,943;34272,452;40,06172
 316,25;13718,389;  140,406;34269,797;39,78384
 316,85;13650,916;  139,559;34269,314;39,58820
 317,44;13681,712;  158,561;34432,015;39,45663
 318,04;13661,090;  148,945;34411,623;39,43692
 318,63;13580,126;  148,712;34462,125;39,14333
 319,22;13579,649;  174,253;34628,829;38,90745
 319,82;13538,902;  176,483;34649,175;38,76233
 320,41;13367,052;  161,945;34655,273;38,28308
 321,01;13379,088;  171,020;34713,019;38,23771
 321,60;13278,514;  166,714;34772,521;37,88902
 322,20;13099,738;  161,405;34695,805;37,46506
 322,79;13089,035;  191,790;34850,679;37,21194
 323,39;13011,333;  168,250;34912,111;36,96504
 323,98;12885,876;  153,251;34916,754;36,62641
 324,58;12697,572;  157,176;34675,705;36,32946
 325,17;12571,782;  167,637;34671,884;35,94962
 325,76;12425,342;  182,867;34580,632;35,59090
 326,36;12243,518;  147,174;34117,564;35,60849
 326,95;12038,225;  174,406;33836,427;35,24393
 327,55;11816,299;  161,560;33520,110;34,93779
 328,14;11606,961;  160,558;33117,059;34,73185
 328,74;11348,482;  193,637;32732,125;34,28200
 329,33;11130,454;  182,328;32375,960;34,00712
 329,92;10822,834;  159,869;31801,790;33,69886
 330,52;10544,529;  177,097;31099,937;33,52678
 331,11;10254,910;  174,790;30776,263;32,93998
 331,71; 9968,767;  171,560;30201,743;32,62453
 332,30; 9712,135;  186,406;29712,539;32,26203
 332,89; 9439,184;  194,867;29225,340;31,84349
 333,49; 9185,774;  191,483;28574,245;31,68927
 334,08; 8947,212;  176,252;28174,984;31,32628
 334,68; 8662,782;  178,944;27803,132;30,71163
 335,27; 8454,937;  189,097;27452,276;30,31870
 335,86; 8269,371;  198,252;27217,493;29,87175
 336,46; 8051,473;  178,404;26985,698;29,36913
 337,05; 7981,196;  173,175;26844,625;29,27483
 337,65; 7777,024;  154,252;26679,950;28,73731
 338,24; 7702,921;  213,636;26662,991;28,31557
 338,83; 7588,754;  192,482;26559,364;28,05137
 339,43; 7460,540;  167,791;26490,296;27,70538
 340,02; 7329,294;  173,945;26460,814;27,22024
 340,61; 7297,321;  160,482;26450,042;27,14705
 341,21; 7227,174;  202,099;26525,356;26,68771
 341,80; 7088,806;  167,483;26395,347;26,38920
 342,40; 7022,593;  184,866;26520,310;25,96397
 342,99; 6954,107;  176,482;26590,724;25,65898
 343,58; 6910,685;  171,251;26799,037;25,30978
 344,18; 6837,669;  187,789;26927,678;24,86876
 344,77; 6809,800;  173,791;27249,512;24,50908
 345,36; 6816,225;  152,944;27536,350;24,33328
 345,96; 6742,398;  186,790;27873,058;23,67820
 346,55; 6724,100;  159,250;28092,072;23,50228
 347,14; 6701,701;  148,712;28451,228;23,15338
 347,74; 6708,931;  134,941;28878,440;22,87122
 348,33; 6781,092;  176,788;29514,865;22,51103
 348,92; 6800,069;  182,864;30117,098;22,10581
 349,52; 6812,700;  153,249;30612,640;21,86338
 350,11; 6830,893;  164,330;30817,101;21,74865
 350,70; 6748,212;  157,636;30903,586;21,43559
 351,29; 6562,966;  151,793;30588,226;21,06414
 351,89; 6510,057;  176,946;30619,087;20,80376
 352,48; 6405,796;  148,098;30627,899;20,53064
 353,07; 6287,540;  171,481;30594,341;20,10350
 353,67; 6236,525;  187,941;30615,020;19,87895
 354,26; 6061,789;  177,943;30339,046;19,50806
 354,85; 5953,102;  180,097;30180,462;19,24311
 355,45; 5808,647;  150,483;29943,606;18,99151
 356,04; 5714,755;  171,712;29893,214;18,64994
 356,63; 5649,377;  194,637;29646,157;18,52108
 357,22; 5528,165;  182,254;29531,018;18,21512
 357,82; 5432,731;  179,254;29412,827;17,97070
 358,41; 5337,719;  183,944;29233,775;17,74115
 359,00; 5209,166;  171,253;29083,346;17,42494
 359,60; 5138,295;  179,559;28951,480;17,23464
 360,19; 5055,320;  167,250;28796,361;17,07377
 360,78; 4936,772;  182,868;28621,698;16,71624
 361,37; 4852,814;  175,637;28351,280;16,60007
 361,97; 4786,284;  177,175;28360,722;16,35390
 362,56; 4672,609;  174,560;28008,778;16,16014
 363,15; 4656,830;  188,252;27715,330;16,23339
 363,74; 4523,495;  173,022;27391,996;15,98323
 364,34; 4422,883;  206,022;27028,560;15,72133
 364,93; 4297,065;  157,484;26611,191;15,64840
 365,52; 4155,140;  145,329;26230,570;15,37195
 366,11; 4102,562;  169,791;26013,164;15,21771
 366,71; 4003,957;  156,791;25573,444;15,13640
 367,30; 3934,589;  165,790;25173,251;15,07070
 367,89; 3923,433;  201,328;25014,215;15,00069
 368,48; 3824,503;  179,561;24687,391;14,87256
 369,07; 3718,597;  181,713;24293,278;14,66883
 369,67; 3681,848;  185,253;23969,510;14,70130
 370,26; 3611,528;  173,867;23750,288;14,58093
 370,85; 3549,207;  174,252;23419,906;14,51865
 371,44; 3514,605;  171,867;23200,195;14,51576
 372,03; 3414,662;  156,637;23001,687;14,26141
 372,63; 3342,971;  153,483;22621,750;14,19552
 373,22; 3347,173;  163,713;22383,812;14,32694
 373,81; 3293,888;  151,098;22159,856;14,27973
 374,40; 3247,818;  157,866;21872,493;14,22982
 374,99; 3186,161;  160,945;21559,161;14,13771
 375,59; 3154,834;  159,635;21256,928;14,19707
 376,18; 3190,103;  193,021;21188,836;14,27466
 376,77; 3131,040;  175,021;21031,787;14,17295
 377,36; 3127,252;  193,098;20976,834;14,11755
 377,95; 3101,580;  179,791;20672,301;14,25784
 378,55; 3047,627;  157,790;20490,712;14,21260
 379,14; 3084,472;  164,637;20451,554;14,39270
 379,73; 3100,973;  170,483;20337,542;14,53107
 380,32; 3084,141;  182,867;20328,079;14,40180
 380,91; 3057,927;  165,330;20225,703;14,41946
 381,50; 3080,421;  181,637;20174,360;14,49919
 382,10; 3066,371;  159,406;20028,463;14,63062
 382,69; 3090,132;  155,867;20054,252;14,74625
 383,28; 3154,458;  188,560;19963,864;14,99799
 383,87; 3121,206;  162,483;19820,765;15,05077
 384,46; 3148,980;  171,330;19805,502;15,16565
 385,05; 3185,180;  193,637;19811,772;15,24886
 385,64; 3208,408;  161,022;19779,703;15,53308
 386,24; 3186,972;  152,869;19726,184;15,50122
 386,83; 3272,924;  186,100;19814,477;15,72633
 387,42; 3302,185;  190,791;19853,559;15,82378
 388,01; 3383,021;  179,178;20058,696;16,11631
 388,60; 3463,412;  176,792;20297,747;16,33432
 389,19; 3490,111;  154,948;20529,242;16,36946
 389,78; 3576,724;  164,025;20730,327;16,59364
 390,37; 3741,842;  214,023;21178,997;16,82720
 390,96; 3770,821;  178,869;21297,684;17,00830
 391,56; 3825,492;  167,794;21560,725;17,09769
 392,15; 3917,713;  162,409;21779,017;17,37231
 392,74; 3950,579;  146,796;21899,600;17,48640
 393,33; 4058,577;  160,256;22240,842;17,65497
 393,92; 4203,793;  189,258;22676,131;17,85279
 394,51; 4272,349;  156,641;22812,881;18,16589
 395,10; 4396,178;  185,414;23107,394;18,36999
 395,69; 4475,436;  170,491;23158,895;18,72659
 396,28; 4521,528;  189,338;23332,404;18,71917
 396,87; 4595,651;  194,724;23432,642;18,93856
 397,46; 4687,520;  190,495;23517,345;19,27832
 398,06; 4765,439;  193,035;23739,316;19,41879
 398,65; 4839,051;  179,116;23844,242;19,69115
 399,24; 4928,769;  198,885;23967,663;19,89957
 399,83; 4925,844;  178,276;24015,052;19,91699
 400,42; 5068,699;  206,819;24111,631;20,33850
 401,01; 5148,320;  178,902;24228,445;20,66325
 401,60; 5228,157;  192,679;24332,471;20,85966
 402,19; 5270,679;  205,069;24190,939;21,11914
 402,78; 5353,873;  220,079;24243,290;21,37014
 403,37; 5372,337;  191,857;24115,970;21,65380
 403,96; 5395,047;  198,098;23946,219;21,88362
 404,55; 5436,975;  217,956;23899,444;22,03839
 405,14; 5456,197;  193,043;23795,008;22,29964
 405,73; 5503,571;  217,671;23725,380;22,48581
 406,32; 5551,598;  206,526;23561,569;22,88616
 406,91; 5545,595;  210,305;23314,445;23,09235
 407,50; 5586,582;  205,002;23171,463;23,43234
 408,09; 5590,823;  180,775;22856,755;23,85806
 408,68; 5607,450;  195,469;22701,974;24,04629
 409,27; 5628,917;  181,543;22490,301;24,41809
 409,86; 5699,804;  200,459;22332,914;24,84742
 410,45; 5725,160;  221,452;22309,180;24,91749
 411,04; 5783,826;  237,138;22209,224;25,24425
 411,63; 5769,388;  220,591;21988,858;25,49030
 412,22; 5759,519;  214,430;21730,760;25,77154
 412,81; 5793,025;  231,119;21497,028;26,15409
 413,40; 5743,731;  243,270;21230,105;26,20910
 413,99; 5726,348;  264,040;20862,371;26,51821
 414,58; 5618,938;  218,885;20502,643;26,62254
 415,17; 5615,760;  213,504;20236,995;26,97959
 415,76; 5622,787;  211,661;20083,093;27,23068
 416,35; 5647,618;  202,582;19885,448;27,66384
 416,94; 5724,938;  227,660;19944,733;27,88080
 417,53; 5834,187;  216,196;20239,624;28,05709
 418,12; 5879,546;  202,580;20197,357;28,39225
 418,71; 6075,880;  227,423;20602,642;28,70377
 419,30; 6074,191;  222,272;20658,743;28,63468
 419,89; 6232,191;  215,887;20802,499;29,22435
 420,48; 6355,318;  237,500;21190,043;29,19845
 421,07; 6447,055;  223,807;21238,266;29,61412
 421,66; 6473,871;  202,883;21206,647;29,85650
 422,25; 6537,943;  215,649;21214,032;30,10848
 422,84; 6586,898;  237,110;21188,859;30,30672
 423,43; 6560,605;  219,265;20942,013;30,60087
 424,02; 6529,266;  235,495;20698,929;30,75618
 424,60; 6441,535;  202,184;20264,036;31,10057
 425,19; 6436,854;  225,647;19981,318;31,44012
 425,78; 6462,536;  240,186;19843,777;31,74087
 426,37; 6437,060;  231,338;19769,546;31,76198
 426,96; 6445,564;  230,723;19718,898;31,89032
 427,55; 6446,125;  219,644;19471,388;32,34243
 428,14; 6450,879;  199,181;19239,909;32,83329
 428,73; 6436,530;  223,337;19054,915;32,99348
 429,32; 6418,829;  235,569;19064,192;32,83968
 429,91; 6505,910;  249,875;19101,452;33,18574
 430,50; 6495,974;  233,797;18979,059;33,40672
 431,08; 6431,479;  250,181;18810,337;33,30413
 431,67; 6503,504;  286,872;18736,709;33,69478
 432,26; 6446,433;  296,102;18505,252;33,77605
 432,85; 6425,526;  317,487;18251,641;34,05814
 433,44; 6359,715;  312,255;17822,772;34,53616
 434,03; 6238,494;  342,022;17493,588;34,37862
 434,62; 6079,567;  310,101;17052,050;34,46114
 435,21; 6083,857;  324,333;16875,056;34,79923
 435,79; 6059,586;  309,330;16672,652;35,14113
 436,38; 6031,060;  310,098;16641,354;35,03075
 436,97; 6035,837;  303,867;16541,488;35,30056
 437,56; 6015,712;  308,941;16361,629;35,55026
 438,15; 5994,168;  281,634;16266,517;35,73710
 438,74; 6036,208;  298,403;16225,568;36,02528
 439,33; 6086,799;  270,711;16224,567;36,45569
 439,91; 6109,755;  236,479;16286,150;36,59437
 440,50; 6186,485;  281,940;16358,193;36,72836
 441,09; 6270,457;  277,400;16474,920;36,99984
 441,68; 6271,909;  268,783;16482,630;37,02469
 442,27; 6286,264;  251,784;16450,381;37,25310
 442,86; 6255,124;  225,473;16453,996;37,15465
 443,44; 6346,447;  238,474;16492,368;37,57852
 444,03; 6402,230;  276,165;16575,720;37,58425
 444,62; 6363,912;  243,934;16483,748;37,68502
 445,21; 6308,506;  252,935;16239,017;37,88027
 445,80; 6346,998;  274,241;16102,317;38,36700
 446,39; 6268,499;  267,549;15872,612;38,45515
 446,97; 6169,978;  231,777;15720,563;38,33871
 447,56; 6134,630;  244,006;15533,741;38,52666
 448,15; 6094,079;  247,008;15307,778;38,82319
 448,74; 6041,772;  263,008;15159,363;38,79314
 449,33; 5974,876;  248,776;14945,360;38,96212
 449,91; 5923,018;  254,928;14774,924;39,03645
 450,50; 5840,830;  236,390;14478,335;39,35165
 451,09; 5863,092;  256,313;14425,761;39,56950
 451,68; 5885,173;  277,004;14318,526;39,93989
 452,26; 5860,338;  263,157;14241,378;40,04215
 452,85; 5793,892;  255,004;14109,720;39,97836
 453,44; 5850,265;  259,540;14159,732;40,22049
 454,03; 5841,452;  235,926;14076,130;40,50176
 454,61; 5805,069;  233,540;14042,889;40,34607
 455,20; 5949,025;  268,000;14246,302;40,64174
 455,79; 5912,620;  265,310;14214,221;40,48567
 456,38; 5991,228;  270,768;14284,751;40,81965
 456,97; 6033,986;  247,461;14415,070;40,84334
 457,55; 6034,127;  258,460;14453,369;40,68830
 458,14; 6096,872;  278,461;14357,288;41,32738
 458,73; 6055,470;  266,075;14319,680;41,19508
 459,31; 6117,917;  297,766;14339,496;41,44896
 459,90; 6127,972;  292,844;14420,902;41,30170
 460,49; 6195,568;  307,613;14465,441;41,58798
 461,08; 6202,591;  260,227;14540,470;41,61249
 461,66; 6240,195;  269,074;14705,695;41,36093
 462,25; 6306,544;  274,765;14768,951;41,61516
 462,84; 6375,780;  305,611;14861,627;41,70213
 463,43; 6324,850;  225,532;14723,671;42,06966
 464,01; 6351,262;  279,839;14804,958;41,79947
 464,60; 6397,826;  298,840;14660,777;42,46632
 465,19; 6264,777;  251,377;14529,914;42,11496
 465,77; 6270,712;  260,222;14500,613;42,20733
 466,36; 6248,476;  279,763;14398,720;42,27446
 466,95; 6139,312;  265,378;14036,410;42,65428
 467,53; 6037,344;  272,683;13795,128;42,63031
 468,12; 5878,848;  290,914;13525,142;42,22335
 468,71; 5815,064;  276,146;13288,632;42,56618
 469,29; 5766,474;  252,144;13019,777;43,18992
 469,88; 5642,493;  266,682;12782,208;42,95314
 470,47; 5683,298;  320,834;12886,030;42,67712
 471,06; 5673,953;  276,142;12797,112;43,11017
 471,64; 5722,953;  281,373;12903,787;43,11045
 472,23; 5693,133;  258,832;12969,427;42,75411
 472,81; 5774,962;  250,218;13064,664;43,11341
 473,40; 5808,064;  267,986;13177,668;42,91413
 473,99; 5970,624;  325,986;13397,075;43,18415
 474,57; 6004,640;  254,986;13550,202;43,24604
 475,16; 6075,024;  283,448;13690,353;43,19845
 475,75; 6112,397;  295,985;13791,964;43,09737
 476,33; 6184,557;  299,676;13939,246;43,14565
 476,92; 6213,293;  296,909;13952,599;43,32541
 477,51; 6221,408;  286,599;14029,615;43,18418
 478,09; 6269,066;  291,061;14052,274;43,44097
 478,68; 6237,273;  288,830;13928,922;43,60999
 479,27; 6256,734;  315,215;13986,380;43,46022
 479,85; 6249,628;  281,368;14001,583;43,49976
 480,44; 6311,072;  273,522;14138,587;43,54506
 481,02; 6756,614;  282,521;15426,629;42,74991
 481,61; 7682,351;  309,060;17352,003;43,26302
 482,20; 8283,821;  303,136;18588,261;43,64578
 482,78; 8707,369;  327,291;19488,567;43,73444
 483,37; 8957,236;  316,827;20006,159;43,88371
 483,95; 9140,297;  356,750;20350,617;43,93121
 484,54; 9263,085;  359,752;20511,076;44,18237
 485,13; 9229,089;  329,671;20410,228;44,31858
 485,71; 9158,343;  302,980;20145,964;44,62717
 486,30; 9045,616;  341,672;19971,854;44,33960
 486,88; 8909,961;  363,133;19615,481;44,39369
 487,47; 8635,383;  358,133;18959,263;44,49864
 488,05; 8295,299;  344,363;18134,778;44,69225
 488,64; 7750,865;  339,054;16811,390;44,99551
 489,23; 7010,525;  352,516;14894,823;45,78371
 489,81; 5904,506;  354,516;12523,088;45,60921
 490,40; 5517,483;  311,362;12084,382;44,22077
 490,98; 5438,764;  294,285;11786,145;44,76629
 491,57; 5357,066;  322,670;11696,679;44,26228
 492,15; 5329,523;  314,284;11626,681;44,33401
 492,74; 5312,227;  303,671;11589,364;44,37970
 493,32; 5293,077;  323,746;11405,223;44,84358
 493,91; 5208,075;  305,899;11349,295;44,39012
 494,50; 5200,035;  311,051;11349,412;44,29085
 495,08; 5135,271;  304,359;11235,952;44,19220
 495,67; 5128,656;  308,438;11276,291;43,94860
 496,25; 5070,079;  267,591;11130,337;44,21063
 496,84; 5096,672;  273,130;11090,265;44,59168
 497,42; 5064,838;  262,283;11081,382;44,38960
 498,01; 5056,680;  305,745;11021,784;44,33481
 498,59; 4990,488;  249,744;10959,769;44,26454
 499,18; 5033,728;  256,822;10895,491;44,90135
 499,76; 4999,363;  280,821;10812,815;44,80198
 500,35; 4856,040;  273,281;10641,169;44,20147
 500,93; 4850,798;  269,283;10586,762;44,40538
 501,52; 4835,589;  269,129;10561,138;44,36898
 502,10; 4825,426;  269,281;10522,895;44,43453
 502,69; 4730,872;  257,664;10354,216;44,30431
 503,27; 4683,305;  241,974;10217,186;44,52368
 503,86; 4651,877;  252,357;10114,555;44,60993
 504,44; 4591,742;  248,126; 9977,524;44,64425
 505,03; 4501,138;  236,126; 9776,266;44,70597
 505,61; 4456,625;  234,587; 9670,473;44,74448
 506,19; 4392,196;  258,741; 9510,975;44,67521
 506,78; 4297,237;  232,201; 9342,308;44,62117
 507,36; 4238,583;  251,357; 9198,553;44,56398
 507,95; 4189,004;  249,200; 9012,486;44,95806
 508,53; 4106,327;  237,432; 8924,396;44,53679
 509,12; 4041,808;  251,893; 8795,088;44,36179
 509,70; 3979,415;  266,893; 8635,864;44,36056
 510,29; 3921,827;  269,046; 8478,690;44,49378
 510,87; 3786,614;  246,278; 8300,528;43,95611
 511,46; 3743,322;  238,893; 8133,519;44,39006
 512,04; 3661,577;  251,739; 8027,537;43,85195
 512,62; 3597,903;  261,201; 7826,255;44,10679
 513,21; 3493,713;  226,892; 7660,771;43,94504
 513,79; 3462,548;  247,505; 7539,352;44,09093
 514,38; 3380,128;  220,121; 7422,747;43,87299
 514,96; 3373,377;  269,198; 7272,221;44,32628
 515,54; 3278,516;  235,275; 7141,110;44,06767
 516,13; 3248,606;  245,890; 7050,707;44,12633
 516,71; 3176,886;  241,043; 6959,294;43,69951
 517,30; 3139,677;  229,503; 6837,273;44,04169
 517,88; 3102,504;  267,965; 6727,598;43,88081
 518,46; 3017,910;  242,042; 6618,405;43,53373
 519,05; 3009,755;  243,502; 6611,738;43,43828
 519,63; 3010,927;  246,657; 6519,242;44,06907
 520,22; 2963,281;  255,040; 6497,730;43,38259
 520,80; 2899,944;  248,117; 6421,821;42,95358
 521,38; 2925,484;  268,887; 6400,395;43,32697
 521,97; 2869,942;  242,808; 6313,231;43,27761
 522,55; 2872,064;  246,424; 6330,852;43,15344
 523,13; 2866,080;  245,115; 6330,274;43,07143
 523,72; 2882,738;  250,042; 6341,500;43,21948
 524,30; 2909,158;  267,038; 6426,183;42,89750
 524,89; 2906,220;  235,424; 6457,553;42,92416
 525,47; 2972,901;  260,884; 6580,669;42,91312
 526,05; 2967,078;  231,807; 6653,853;42,59190
 526,64; 3050,310;  261,729; 6791,024;42,70875
 527,22; 3107,617;  258,730; 6912,114;42,81861
 527,80; 3207,874;  288,268; 7069,509;43,05416
 528,39; 3216,604;  247,883; 7137,337;43,09081
 528,97; 3269,092;  246,498; 7315,159;42,76049
 529,55; 3371,409;  260,269; 7491,834;43,02167
 530,14; 3458,475;  273,113; 7702,184;42,87698
 530,72; 3477,365;  251,575; 7838,357;42,51856
 531,30; 3539,830;  240,036; 7989,199;42,58259
 531,89; 3593,117;  243,190; 8050,408;42,90807
 532,47; 3653,340;  285,882; 8190,645;42,60037
 533,05; 3654,678;  279,729; 8224,927;42,47785
 533,63; 3667,473;  283,036; 8315,978;42,13197
 534,22; 3667,735;  247,112; 8335,203;42,29209
 534,80; 3687,606;  282,496; 8383,421;42,03360
 535,38; 3777,372;  322,728; 8514,977;42,16966
 535,97; 3694,711;  267,574; 8442,864;41,92068
 536,55; 3719,049;  320,111; 8548,254;41,30869
 537,13; 3682,318;  322,421; 8519,376;40,98958
 537,71; 3720,501;  358,113; 8528,284;41,15444
 538,30; 3734,892;  391,112; 8628,489;40,59277
 538,88; 3766,713;  413,957; 8708,948;40,41904
 539,46; 3848,344;  468,419; 8881,888;40,17278
 540,05; 3846,050;  494,572; 9035,502;39,24019
 540,63; 3961,970;  539,957; 9221,694;39,41623
 541,21; 4010,652;  559,956; 9425,554;38,92231
 541,79; 4044,708;  613,880; 9464,225;38,76491
 542,38; 4133,771;  647,034; 9646,872;38,74222
 542,96; 4149,698;  650,879; 9875,132;37,93065
 543,54; 4282,000;  672,418;10064,358;38,43276
 544,12; 4301,138;  649,726;10209,816;38,19433
 544,70; 4315,595;  620,648;10311,340;38,12882
 545,29; 4390,209;  633,034;10483,042;38,14387
 545,87; 4380,400;  591,187;10508,609;38,20764
 546,45; 4373,599;  556,880;10509,428;38,34916
 547,03; 4396,143;  543,803;10615,416;38,24948
 547,62; 4450,186;  517,187;10722,861;38,53737
 548,20; 4528,969;  496,571;10954,705;38,55752
 548,78; 4552,610;  484,261;11066,773;38,44407
 549,36; 4605,851;  440,954;11265,314;38,47707
 549,94; 4673,666;  398,725;11431,506;38,74763
 550,53; 4760,352;  407,108;11651,379;38,71522
 551,11; 4820,809;  379,876;11893,334;38,57167
 551,69; 4919,612;  379,185;12188,919;38,44648
 552,27; 5010,375;  341,493;12518,730;38,34106
 552,85; 5168,228;  359,261;12838,290;38,53639
 553,44; 5263,405;  341,185;13136,057;38,47026
 554,02; 5440,827;  358,108;13552,069;38,52307
 554,60; 5552,923;  302,184;13924,530;38,54504
 555,18; 5726,214;  330,108;14285,984;38,66548
 555,76; 5863,761;  313,031;14653,965;38,70550
 556,34; 6006,136;  316,491;15063,889;38,58067
 556,93; 6170,628;  307,108;15518,555;38,54676
 557,51; 6264,815;  296,645;15921,031;38,19779
 558,09; 6445,365;  319,185;16333,868;38,25352
 558,67; 6563,518;  311,413;16709,683;38,12662
 559,25; 6706,197;  326,029;16958,808;38,35900
 559,83; 6788,811;  304,874;17274,264;38,20960
 560,41; 6902,831;  295,184;17674,496;38,02019
 561,00; 6992,617;  305,644;18096,935;37,58565
 561,58; 7084,571;  305,184;18289,541;37,69602
 562,16; 7168,687;  291,107;18681,944;37,39677
 562,74; 7251,859;  274,415;18983,448;37,29452
 563,32; 7371,537;  278,182;19485,836;36,92984
 563,90; 7519,298;  298,721;19802,655;37,02113
 564,48; 7599,987;  310,107;20232,719;36,59098
 565,06; 7855,261;  290,644;20847,997;36,79762
 565,65; 8016,552;  295,797;21561,697;36,30580
 566,23; 8301,725;  353,644;22263,545;36,27621
 566,81; 8493,847;  290,106;23073,534;36,00749
 567,39; 8833,392;  312,413;23938,355;36,06620
 567,97; 8990,805;  317,798;24662,383;35,62602
 568,55; 9315,376;  312,721;25479,749;35,77162
 569,13; 9520,789;  300,875;26194,226;35,60727
 569,71; 9820,106;  298,800;27067,131;35,56929
 570,29;10098,883;  340,646;28119,847;35,12785
 570,87;10372,589;  332,800;28927,721;35,11039
 571,45;10568,741;  317,644;29623,518;34,97967
 572,03;10675,018;  271,182;30086,374;34,89441
 572,61;10917,476;  278,567;30750,810;34,91344
 573,20;11104,284;  313,876;31410,734;34,69935
 573,78;11280,702;  300,336;32121,501;34,50649
 574,36;11431,848;  303,490;32588,059;34,46959
 574,94;11481,413;  350,028;33005,086;34,08778
 575,52;11476,796;  322,257;33348,789;33,77448
 576,10;11755,647;  372,181;33880,697;33,97186
 576,68;11841,371;  356,028;34410,072;33,72681
 577,26;11937,988;  376,718;35120,617;33,27568
 577,84;12134,139;  374,259;35593,008;33,39096
 578,42;12177,780;  397,797;35937,350;33,14612
 579,00;12144,174;  367,336;36182,319;32,88243
 579,58;12190,928;  394,951;36359,717;32,79870
 580,16;12118,912;  386,258;36427,299;32,55360
 580,74;12176,907;  393,027;36698,605;32,45749
 581,32;12159,392;  385,489;36651,418;32,46547
 581,90;12050,706;  404,104;36725,667;32,06525
 582,48;12060,308;  394,796;36916,348;31,94145
 583,06;12075,156;  408,489;37079,755;31,81419
 583,64;12107,007;  407,412;37182,141;31,81423
 584,22;12012,245;  409,103;37027,671;31,68650
 584,80;11911,997;  424,950;36779,108;31,59762
 585,38;11650,117;  430,491;36407,829;31,18526
 585,96;11655,461;  400,028;36551,729;31,13389
 586,54;11604,213;  417,411;36518,706;30,98726
 587,12;11625,446;  384,873;36836,575;30,83689
 587,70;11646,609;  411,336;36953,343;30,74619
 588,28;11672,711;  398,335;36934,070;30,85849
 588,86;11650,719;  411,411;37158,665;30,58544
 589,44;11591,803;  381,487;37279,918;30,38155
 590,02;11591,667;  378,718;37582,345;30,13940
 590,59;11619,621;  354,488;37776,921;30,10262
 591,17;11633,194;  357,101;37987,247;29,96558
 591,75;11653,578;  359,025;38145,675;29,89033
 592,33;11665,630;  371,871;38350,828;29,73689
 592,91;11650,618;  326,101;38632,465;29,56302
 593,49;11692,266;  333,947;38951,446;29,41236
 594,07;11717,828;  341,716;39104,046;29,34837
 594,65;11649,547;  357,642;39206,546;29,06621
 595,23;11676,131;  347,718;39593,384;28,86539
 595,81;11663,158;  350,795;39779,116;28,69096
 596,39;11698,439;  349,871;39885,016;28,70501
 596,97;11654,366;  337,178;40222,828;28,37408
 597,55;11522,112;  327,026;39995,585;28,22156
 598,12;11484,216;  316,254;40014,409;28,13219
 598,70;11403,122;  316,870;40175,248;27,81411
 599,28;11472,539;  339,024;40342,396;27,83144
 599,86;11408,785;  330,793;40394,678;27,65082
 600,44;11373,239;  300,024;40641,146;27,44895
 601,02;11349,662;  350,099;40599,747;27,32835
 601,60;11303,708;  330,640;40572,383;27,26787
 602,18;11254,704;  303,946;40581,663;27,18813
 602,75;11166,779;  305,564;40725,348;26,87104
 603,33;11141,560;  325,947;40729,418;26,76902
 603,91;11040,330;  316,792;40636,776;26,59609
 604,49;11026,425;  325,639;40757,478;26,46623
 605,07;10952,304;  334,871;40728,554;26,28489
 605,65;10909,154;  344,485;40791,105;26,12003
 606,23;10922,388;  405,950;41039,681;25,88105
 606,80;10805,681;  452,256;41005,480;25,53046
 607,38;10768,868;  493,638;41150,422;25,27310
 607,96;10696,704;  546,795;41168,080;24,98668
 608,54;10726,902;  594,101;41174,853;24,96948
 609,12;10648,020;  616,641;41306,552;24,65323
 609,70;10629,316;  644,793;41355,437;24,52558
 610,27;10524,206;  652,641;41359,499;24,25037
 610,85;10525,440;  660,024;41483,712;24,16591
 611,43;10464,342;  677,178;41433,814;24,01367
 612,01;10282,938;  640,871;41210,798;23,76654
 612,59;10238,151;  630,947;41220,233;23,66931
 613,16;10120,189;  606,026;41152,539;23,46481
 613,74;10044,130;  579,024;41015,412;23,40740
 614,32; 9989,449;  540,408;41101,402;23,29588
 614,90; 9861,347;  490,178;40918,799;23,17954
 615,48; 9746,508;  452,487;40464,096;23,22831
 616,05; 9645,340;  410,180;40483,222;23,04582
 616,63; 9529,634;  401,104;40318,655;22,86846
 617,21; 9403,426;  399,718;40241,373;22,59873
 617,79; 9301,174;  387,333;40174,829;22,40362
 618,36; 9203,976;  397,486;40006,763;22,23340
 618,94; 9044,919;  336,410;39753,397;22,09329
 619,52; 8926,934;  365,642;39521,153;21,86485
 620,10; 8848,689;  354,487;39388,721;21,76090
 620,67; 8806,128;  361,873;39318,419;21,67609
 621,25; 8716,774;  372,409;39167,334;21,50891
 621,83; 8631,545;  354,641;39084,754;21,37072
 622,41; 8558,439;  391,026;38977,184;21,16669
 622,98; 8391,197;  364,642;38686,562;20,94507
 623,56; 8329,645;  365,181;38813,734;20,71460
 624,14; 8251,392;  355,409;38569,159;20,66268
 624,72; 8182,195;  341,718;38523,095;20,53482
 625,29; 8125,754;  316,104;38657,806;20,36855
 625,87; 8120,580;  360,641;38546,774;20,32135
 626,45; 7983,326;  314,873;38389,177;20,14076
 627,02; 7943,333;  335,256;38401,416;19,98646
 627,60; 7831,109;  309,331;38247,745;19,82628
 628,18; 7821,482;  300,795;38407,398;19,73592
 628,76; 7781,961;  310,488;38347,407;19,64269
 629,33; 7683,067;  323,334;38402,917;19,32724
 629,91; 7659,765;  314,718;38329,260;19,32168
 630,49; 7666,133;  344,488;38490,667;19,19365
 631,06; 7596,735;  329,411;38713,378;18,93323
 631,64; 7507,167;  330,488;38659,022;18,72412
 632,22; 7427,249;  289,335;38498,083;18,68136
 632,79; 7484,742;  314,489;38859,231;18,60242
 633,37; 7453,925;  297,563;38933,633;18,52249
 633,95; 7376,175;  304,873;39003,600;18,27270
 634,52; 7289,603;  282,103;39130,617;18,03801
 635,10; 7283,190;  293,872;39129,679;17,99710
 635,68; 7266,337;  298,643;39388,902;17,82463
 636,25; 7185,816;  287,567;39270,081;17,69575
 636,83; 7183,576;  278,027;39558,253;17,58022
 637,41; 7112,326;  282,258;39529,959;17,40246
 637,98; 7143,506;  311,182;39727,598;17,33370
 638,56; 7096,818;  313,182;39916,997;17,12874
 639,13; 7050,563;  288,334;39909,502;17,06721
 639,71; 7095,327;  304,950;40113,548;17,05756
 640,29; 6943,488;  256,796;39925,736;16,85624
 640,86; 6942,088;  264,949;40184,562;16,72646
 641,44; 6841,612;  279,949;40078,388;16,48724
 642,02; 6815,058;  299,488;40090,906;16,37431
 642,59; 6800,351;  274,949;40214,885;16,33804
 643,17; 6739,951;  281,334;40217,711;16,17227
 643,74; 6690,628;  280,180;40277,075;16,02736
 644,32; 6680,228;  297,872;40159,824;16,01115
 644,89; 6656,136;  294,641;40232,803;15,92836
 645,47; 6605,890;  303,641;40301,321;15,75654
 646,05; 6534,567;  290,411;40214,993;15,63988
 646,62; 6463,244;  289,641;40043,972;15,52938
 647,20; 6453,537;  289,718;40272,721;15,41610
 647,77; 6390,753;  265,487;40089,931;15,38067
 648,35; 6317,584;  256,026;40063,757;15,22709
 648,92; 6265,184;  298,949;40061,506;15,00466
 649,50; 6177,015;  255,026;40072,947;14,87267
 650,08; 6126,461;  261,410;39830,003;14,82249
 650,65; 6109,677;  262,333;40126,983;14,66799
 651,23; 6103,431;  243,564;40781,193;14,45538
 651,80; 6236,723;  258,179;41812,942;14,38715
 652,38; 6219,785;  261,872;42203,383;14,20529
 652,95; 6266,539;  233,256;42419,747;14,30146
 653,53; 6200,909;  276,564;42711,496;13,96101
 654,10; 6247,971;  289,718;42850,937;13,99925
 654,68; 6174,186;  250,641;42834,224;13,91040
 655,25; 6107,248;  264,872;42856,280;13,71726
 655,83; 6127,233;  245,179;43021,106;13,75085
 656,40; 6060,987;  284,795;43014,547;13,51796
 656,98; 6019,202;  253,179;42886,680;13,52463
 657,55; 5946,957;  261,410;42794,352;13,36740
 658,13; 5845,941;  252,641;42510,870;13,23600
 658,70; 5825,388;  269,102;42238,234;13,23898
 659,28; 5682,526;  260,640;41264,675;13,22281
 659,85; 5466,819;  256,948;40488,270;12,94979
 660,43; 5475,727;  275,948;40627,788;12,88610
 661,00; 5405,327;  262,486;40779,383;12,69308
 661,58; 5376,389;  249,794;41039,132;12,56847
 662,15; 5391,374;  239,333;41294,419;12,54909
 662,73; 5450,666;  299,948;41606,552;12,46948
 663,30; 5395,882;  268,563;41825,301;12,33812
 663,88; 5379,405;  270,948;42051,742;12,22681
 664,45; 5362,236;  255,486;42169,953;12,18374
 665,03; 5379,375;  264,717;42663,547;12,06321
 665,60; 5453,052;  312,102;43031,681;12,03418
 666,17; 5399,883;  271,255;43217,045;11,94210
 666,75; 5375,329;  261,025;43595,255;11,80200
 667,32; 5422,699;  289,948;43882,773;11,77430
 667,90; 5397,145;  266,101;44222,445;11,67305
 668,47; 5384,130;  294,640;44399,809;11,53944
 669,05; 5373,269;  269,486;44814,404;11,45761
 669,62; 5320,023;  245,178;44839,537;11,38001
 670,19; 5341,085;  254,794;45024,055;11,36112
 670,77; 5330,685;  265,793;45142,650;11,28620
 671,34; 5285,824;  268,793;45083,399;11,19508
 671,92; 5307,885;  253,947;45352,917;11,20633
 672,49; 5260,178;  269,947;45434,742;11,04894
 673,06; 5189,393;  224,024;45458,568;10,97694
 673,64; 5133,148;  255,947;45434,625;10,79536
 674,21; 5115,363;  237,255;45375,681;10,80700
 674,79; 5178,117;  262,255;45685,430;10,82237
 675,36; 5109,410;  276,947;45761,640;10,62437
 675,93; 5055,318;  253,332;45644,620;10,57909
 676,51; 5081,918;  281,870;45776,061;10,55090
 677,08; 5007,980;  268,101;45883,502;10,39096
 677,65; 4987,349;  263,947;45972,481;10,33374
 678,23; 5027,103;  268,485;46306,307;10,33632
 678,80; 5005,473;  257,101;46338,209;10,30438
 679,38; 4968,765;  241,639;46545,881;10,20884
 679,95; 4981,596;  267,485;46826,784;10,12496
 680,52; 5016,196;  250,639;47050,917;10,18275
 681,10; 5008,874;  270,331;47495,127;10,03401
 681,67; 5046,397;  272,562;47798,953;10,04460
 682,24; 4999,536;  236,254;47846,856;10,00467
 682,82; 5051,674;  250,716;48419,374; 9,96698
 683,39; 5098,044;  279,331;48796,122; 9,93205
 683,96; 5103,413;  243,869;49050,333; 9,95676
 684,54; 5086,321;  237,408;49433,774; 9,85624
 685,11; 5106,152;  268,254;49718,215; 9,78342
 685,68; 5084,599;  255,023;50291,117; 9,65218
 686,25; 5064,353;  242,254;50335,020; 9,62634
 686,83; 5106,184;  243,715;50522,692; 9,67098
 687,40; 5092,092;  228,023;50831,517; 9,61212
 687,97; 5148,923;  276,331;51254,728; 9,55815
 688,55; 5091,600;  237,869;51314,476; 9,50284
 689,12; 5078,892;  225,254;51619,687; 9,44390
 689,69; 5078,646;  232,023;51565,205; 9,44150
 690,26; 5077,554;  242,869;51710,876; 9,39357
 690,84; 5027,078;  241,946;51886,164; 9,26557
 691,41; 5098,678;  250,638;51992,912; 9,36959
 691,98; 5062,970;  256,561;52263,276; 9,24190
 692,56; 5077,494;  235,253;52323,564; 9,29621
 693,13; 5120,709;  294,869;52434,543; 9,25560
 693,70; 5100,156;  274,176;52635,061; 9,21676
 694,27; 5038,140;  250,715;52732,887; 9,12200
 694,84; 5061,664;  243,561;52812,020; 9,16539
 695,42; 5077,802;  284,023;52904,307; 9,11014
 695,99; 5043,480;  250,099;53163,364; 9,05894
 696,56; 5023,772;  243,099;52917,189; 9,07595
 697,13; 5056,142;  264,022;53517,323; 8,99873
 697,71; 5006,126;  219,638;53425,610; 8,99615
 698,28; 5023,727;  251,253;53845,820; 8,90477
 698,85; 4998,635;  218,330;53828,107; 8,91685
 699,42; 4968,543;  225,715;53963,625; 8,82585
 699,99; 5039,912;  265,253;54026,143; 8,88129
 700,57; 4986,128;  265,868;54102,815; 8,76770
 701,14; 4993,497;  245,176;54274,718; 8,78838
 701,71; 5015,867;  249,330;54471,236; 8,79080
 702,28; 4991,774;  256,407;54548,600; 8,72200
 702,85; 4992,067;  258,484;54541,733; 8,72015
 703,43; 5003,898;  273,714;54770,713; 8,67971
 704,00; 5001,960;  279,483;55057,154; 8,62117
 704,57; 4968,483;  259,791;55058,441; 8,59272
 705,14; 5024,006;  288,330;55471,882; 8,58168
 705,71; 5023,530;  304,483;55285,169; 8,58310
 706,28; 4994,438;  265,714;55104,226; 8,62300
 706,86; 5027,346;  295,252;55534,820; 8,56649
 707,43; 5006,484;  310,022;55383,723; 8,52760
 708,00; 4990,623;  290,252;55346,395; 8,53741
 708,57; 4943,762;  268,098;55235,913; 8,50618
 709,14; 5013,362;  293,791;55411,815; 8,56266
 709,71; 4956,731;  276,560;55532,718; 8,46995
 710,28; 4993,562;  279,637;55805,621; 8,48958
 710,86; 4997,239;  291,175;55970,600; 8,45207
 711,43; 5031,993;  290,406;55888,118; 8,52839
 712,00; 5015,209;  274,637;55957,174; 8,51357
 712,57; 5040,732;  275,791;56137,308; 8,52992
 713,14; 5038,102;  262,252;56208,749; 8,53646
 713,71; 5032,702;  270,021;56201,882; 8,51515
 714,28; 5054,225;  257,560;56236,785; 8,56865
 714,85; 5007,364;  242,790;55991,303; 8,54655
 715,42; 5024,503;  253,098;56180,205; 8,53147
 716,00; 5085,872;  284,329;56225,416; 8,58321
 716,57; 5062,088;  247,636;56417,087; 8,57130
 717,14; 5051,303;  228,329;56269,682; 8,60610
 717,71; 5037,673;  227,636;56335,508; 8,57284
 718,28; 5080,427;  255,405;56488,026; 8,58047
 718,85; 5059,950;  227,252;56446,544; 8,59616
 719,42; 5104,627;  251,790;56574,600; 8,61611
 719,99; 5105,843;  222,405;56358,041; 8,69935
 720,56; 5111,597;  244,328;56784,098; 8,60858
 721,13; 5097,890;  243,867;56791,000; 8,58403
 721,70; 5068,721;  235,405;56697,057; 8,56035
 722,27; 5152,167;  254,867;56687,267; 8,67817
 722,84; 5175,767;  280,867;56820,324; 8,65749
 723,41; 5115,291;  234,251;56890,611; 8,61517
 723,98; 5183,352;  241,328;57073,359; 8,69584
 724,55; 5161,030;  262,328;57088,108; 8,62056
 725,12; 5157,399;  207,636;56945,242; 8,72396
 725,69; 5205,922;  237,020;57245,298; 8,71611
 726,27; 5225,676;  233,020;57271,047; 8,75321
 726,84; 5254,354;  240,636;57624,565; 8,73715
 727,41; 5279,877;  251,251;57589,621; 8,77009
 727,98; 5289,554;  263,020;57923,216; 8,71751
 728,55; 5355,462;  283,020;57835,657; 8,81357
 729,12; 5308,754;  230,328;57945,098; 8,79918
 729,69; 5357,047;  268,559;58066,616; 8,80391
 730,26; 5359,493;  275,251;58355,826; 8,75377
 730,82; 5341,786;  245,712;58148,806; 8,80104
 731,39; 5364,155;  244,097;58373,478; 8,80804
 731,96; 5447,140;  238,866;58516,303; 8,93703
 732,53; 5482,125;  269,251;58742,898; 8,91491
 733,10; 5491,648;  270,558;58825,955; 8,91650
 733,67; 5523,633;  277,097;59177,088; 8,90753
 734,24; 5465,310;  258,020;58721,067; 8,90698
 734,81; 5555,834;  285,097;58925,509; 8,98823
 735,38; 5523,972;  263,097;58723,334; 8,99907
 735,95; 5548,573;  264,789;58613,237; 9,05557
 736,52; 5529,711;  280,096;58822,985; 8,96713
 737,09; 5572,004;  276,635;58394,965; 9,11136
 737,66; 5611,527;  316,712;58646,406; 9,07739
 738,23; 5612,820;  248,866;58650,309; 9,18463
 738,80; 5697,574;  294,635;58915,904; 9,21669
 739,37; 5680,097;  293,866;59062,883; 9,16509
 739,94; 5707,313;  277,865;59129,863; 9,22560
 740,51; 5782,528;  326,250;59178,611; 9,27113
 741,07; 5737,513;  267,865;59139,360; 9,29083
 741,64; 5793,498;  288,404;59329,263; 9,32421
 742,21; 5836,021;  274,096;59443,781; 9,39996
 742,78; 5831,545;  246,327;59094,991; 9,49081
 743,35; 5874,606;  261,634;59433,124; 9,48594
 743,92; 5959,668;  301,942;59601,950; 9,54085
 744,49; 5919,038;  279,250;59429,545; 9,53467
 745,06; 5977,792;  268,250;59462,986; 9,64535
 745,63; 5965,469;  252,865;59424,581; 9,65428
 746,19; 5973,915;  258,942;59418,714; 9,66024
 746,76; 5987,900;  272,557;59542,078; 9,64297
 747,33; 6030,346;  253,865;59456,827; 9,75708
 747,90; 6118,408;  273,173;59651,499; 9,84406
 748,47; 6117,547;  286,096;59525,247; 9,84391
 749,04; 6155,455;  282,942;59625,458; 9,89596
 749,61; 6185,517;  291,480;59468,976; 9,95993
 750,17; 6222,809;  278,634;59581,263;10,02346
 750,74; 6203,794;  284,557;59467,704;10,00156
 751,31; 6216,779;  257,634;59390,068;10,07762
 751,88; 6175,071;  244,788;59226,047;10,05452
 752,45; 6259,672;  272,480;59405,104;10,12502
 753,02; 6271,118;  267,557;59205,314;10,18627
 753,58; 6258,872;  256,403;59122,755;10,19677
 754,15; 6338,626;  268,326;59189,504;10,30241
 754,72; 6322,149;  247,172;59014,637;10,33731
 755,29; 6336,750;  243,634;58905,694;10,38681
 755,86; 6385,427;  261,480;58876,212;10,44780
 756,42; 6397,565;  268,710;58750,653;10,47991
 756,99; 6396,243;  222,864;58846,863;10,53046
 757,56; 6432,304;  245,787;58790,458;10,56717
 758,13; 6412,366;  201,480;58545,361;10,64531
 758,70; 6516,582;  227,326;58772,186;10,74263
 759,26; 6532,490;  219,787;58855,627;10,76595
 759,83; 6577,936;  217,249;58988,761;10,82274
 760,40; 6654,998;  215,556;58826,202;10,98681
 760,97; 6614,675;  191,941;58879,796;10,94389
 761,53; 6635,891;  167,787;58425,084;11,10265
 762,10; 6612,722;  188,864;58423,448;11,03100
 762,67; 6709,245;  215,556;58351,197;11,16989
 763,24; 6584,999;  171,864;57767,253;11,13481
 763,80; 6747,676;  215,941;58088,848;11,28634
 764,37; 6676,738;  221,633;58054,058;11,16174
 764,94; 6680,569;  202,479;57578,653;11,29056
 765,50; 6696,938;  200,941;57513,094;11,33442
 766,07; 6811,231;  250,941;57612,381;11,43676
 766,64; 6754,754;  222,402;57285,438;11,44761
 767,21; 6739,970;  218,479;57147,879;11,45540
 767,77; 6865,493;  245,017;57066,397;11,65138
 768,34; 6856,478;  254,633;57069,684;11,61989
 768,91; 6840,847;  249,171;56848,048;11,64630
 769,47; 6878,063;  242,094;56918,720;11,70848
 770,04; 6858,740;  264,094;56714,392;11,68222
 770,61; 6850,264;  238,556;56494,679;11,75287
 771,18; 6818,479;  229,017;56359,889;11,73946
 771,74; 6928,541;  251,786;56535,561;11,86266
 772,31; 6969,064;  254,632;56343,310;11,97110
 772,88; 6907,357;  219,555;56090,212;11,97015
 773,44; 6921,957;  231,325;55928,038;12,01262
 774,01; 6923,019;  242,017;56069,710;11,96718
 774,58; 6956,081;  224,786;55530,920;12,17097
 775,14; 7004,373;  214,171;55797,361;12,21629
 775,71; 7038,204;  233,863;55588,110;12,29236
 776,27; 7123,035;  273,632;55554,397;12,39021
 776,84; 7166,251;  278,171;55555,530;12,46094
 777,41; 7136,389;  255,324;55365,587;12,48600
 777,97; 7143,067;  248,324;55056,105;12,57986
 778,54; 7171,898;  248,632;54984,930;12,64840
 779,11; 7221,959;  258,170;55127,525;12,69158
 779,67; 7261,175;  230,093;54995,659;12,83851
 780,24; 7217,544;  253,863;54725,946;12,78395
 780,80; 7286,452;  263,401;54791,233;12,87976
 781,37; 7366,591;  252,939;54738,366;13,05606
 781,94; 7295,730;  254,862;54609,423;12,95359
 782,50; 7411,945;  256,170;54425,941;13,20990
 783,07; 7423,007;  272,401;54443,382;13,20007
 783,63; 7412,530;  230,247;54203,900;13,30702
 784,20; 7456,592;  255,478;54131,725;13,36603
 784,77; 7444,577;  249,401;53909,782;13,40873
 785,33; 7451,793;  226,170;53752,992;13,49907
 785,90; 7524,700;  246,554;53709,741;13,61338
 786,46; 7561,608;  265,939;53596,567;13,68007
 787,03; 7549,670;  237,016;53392,238;13,75717
 787,59; 7556,040;  245,708;53256,372;13,79030
 788,16; 7598,563;  241,785;53273,120;13,87251
 788,73; 7653,779;  245,400;53157,715;14,00124
 789,29; 7638,148;  241,631;52693,310;14,10158
 789,86; 7668,056;  246,016;52655,367;14,16167
 790,42; 7706,425;  255,093;52516,808;14,25773
 790,99; 7712,103;  254,246;52100,479;14,38457
 791,55; 7679,472;  236,016;52082,382;14,35676
 792,12; 7738,688;  259,092;52155,823;14,41246
 792,68; 7711,519;  239,939;51808,341;14,48868
 793,25; 7726,888;  247,015;51550,551;14,57964
 793,81; 7769,104;  277,400;51208,915;14,70937
 794,38; 7655,935;  221,708;50908,587;14,66697
 794,94; 7745,304;  227,323;50764,721;14,87607
 795,51; 7786,751;  243,708;50542,854;14,99636
 796,07; 7722,120;  253,015;50333,987;14,91406
 796,64; 7817,874;  272,477;50487,890;15,02606
 797,20; 7779,320;  240,938;49802,792;15,21005
 797,77; 7741,998;  231,246;49591,310;15,21625
 798,33; 7749,213;  230,861;49426,521;15,28255
 798,90; 7801,583;  267,554;49308,500;15,36273
 799,46; 7726,952;  243,092;48887,557;15,38481
 800,03; 7729,091;  251,246;48753,382;15,41756
 800,59; 7761,999;  264,246;48521,746;15,53697
 801,15; 7751,830;  256,169;48366,495;15,58015
 801,72; 7723,892;  253,246;47952,244;15,66206
 802,28; 7748,415;  285,707;47615,993;15,76730
 802,85; 7715,015;  252,861;47502,203;15,79314
 803,41; 7702,692;  252,553;47225,182;15,86060
 803,98; 7692,062;  238,861;46825,777;15,99848
 804,54; 7680,047;  241,938;46639,603;16,03121
 805,11; 7721,878;  251,168;46334,582;16,21128
 805,67; 7772,862;  264,322;46328,562;16,30015
 806,23; 7716,693;  257,015;45764,695;16,39213
 806,80; 7742,447;  271,091;45659,521;16,46093
 807,36; 7758,048;  276,399;45604,039;16,50571
 807,93; 7808,109;  277,322;45434,403;16,67687
 808,49; 7759,171;  234,784;44903,536;16,84486
 809,05; 7784,848;  223,399;44802,670;16,96181
 809,62; 7790,910;  256,707;44716,188;16,94622
 810,18; 7851,510;  257,399;44535,860;17,15080
 810,74; 7821,495;  234,322;44307,608;17,21490
 811,31; 7834,634;  232,553;43994,203;17,37156
 811,87; 7859,080;  234,860;43757,798;17,51771
 812,44; 7879,911;  272,783;43915,470;17,43048
 813,00; 7875,588;  212,168;43590,142;17,66662
 813,56; 7918,573;  244,552;43547,044;17,72189
 814,13; 7937,327;  239,937;43498,793;17,79379
 814,69; 7941,928;  247,860;43391,696;17,83353
 815,25; 7914,451;  219,245;42853,752;18,04924
 815,82; 7948,282;  256,783;42841,116;18,06180
 816,38; 7995,344;  262,783;42599,942;18,26424
 816,94; 7919,098;  220,245;42260,460;18,31307
 817,51; 7936,236;  215,629;42091,055;18,43708
 818,07; 7919,298;  223,091;41767,496;18,52526
 818,63; 7967,975;  240,398;41667,321;18,65351
 819,20; 7932,114;  235,398;41566,839;18,62194
 819,76; 7889,714;  223,552;41074,742;18,76607
 820,32; 7988,007;  272,244;41011,106;18,93956
 820,89; 7975,222;  255,167;40687,239;19,09389
 821,45; 7932,900;  234,475;40463,834;19,13633
 822,01; 7944,807;  249,629;40220,968;19,25174
 822,57; 7937,023;  259,783;39982,101;19,32727
 823,14; 7930,777;  225,475;39833,157;19,45406
 823,70; 7917,454;  218,706;39567,752;19,56527
 824,26; 7886,131;  228,936;39387,347;19,55441
 824,82; 7927,193;  252,552;39175,250;19,71765
 825,39; 7873,024;  227,859;38963,614;19,73671
 825,95; 7929,163;  256,398;39067,363;19,76958
 826,51; 7860,532;  249,552;38561,111;19,86602
 827,08; 7936,286;  270,244;38724,245;19,93562
 827,64; 7896,194;  260,936;38392,301;20,02356
 828,20; 7832,102;  233,859;38115,127;20,05805
 828,76; 7920,318;  245,474;38089,183;20,28037
 829,32; 7894,995;  254,321;37973,317;20,25683
 829,89; 7882,672;  212,321;37802,988;20,40494
 830,45; 7865,657;  229,936;37824,429;20,31074
 831,01; 7876,796;  221,936;37613,717;20,47204
 831,57; 7858,934;  234,628;37533,388;20,44118
 832,14; 7944,765;  231,167;37369,753;20,76977
 832,70; 7928,596;  232,705;37181,194;20,82870
 833,26; 7903,889;  220,320;37071,481;20,85028
 833,82; 7890,335;  230,705;37021,230;20,81957
 834,38; 7958,320;  225,320;36996,440;21,03009
 834,95; 7913,997;  213,936;36952,804;20,95890
 835,51; 7886,136;  192,166;36686,014;21,08292
 836,07; 7966,506;  232,859;36854,994;21,11741
 836,63; 8020,567;  244,320;36785,742;21,28064
 837,19; 8006,244;  231,782;36651,183;21,34704
 837,75; 8000,999;  204,012;36309,701;21,59490
 838,32; 8050,060;  244,935;36406,142;21,58425
 838,88; 8114,584;  252,320;36453,814;21,71806
 839,44; 8105,953;  237,243;36295,948;21,82194
 840,00; 8093,169;  233,551;36287,619;21,79953
 840,56; 8032,538;  210,089;35888,676;21,92477
 841,12; 8090,600;  211,474;35894,040;22,08116
 841,68; 8084,200;  209,012;35755,481;22,15463
 842,25; 8096,493;  217,320;35702,461;22,20415
 842,81; 8089,939;  215,012;35419,979;22,36880
 843,37; 8092,616;  205,704;35401,112;22,40892
 843,93; 8113,601;  223,320;35395,399;22,43337
 844,49; 8166,663;  230,396;35421,994;22,55159
 845,05; 8102,955;  204,089;35120,435;22,62226
 845,61; 8176,940;  240,858;35187,338;22,70925
 846,17; 8130,387;  225,781;35010,394;22,72443
 846,73; 8227,833;  228,396;34950,604;23,03839
 847,29; 8156,587;  204,012;34827,738;22,96857
 847,86; 8202,341;  213,242;34715,333;23,15541
 848,42; 8213,864;  204,858;34488,004;23,36135
 848,98; 8242,157;  219,704;34480,984;23,41551
 849,54; 8248,526;  211,242;34480,425;23,45339
 850,10; 8258,665;  226,627;34362,866;23,52936
 850,66; 8246,650;  202,088;34152,999;23,69469
 851,22; 8244,789;  196,627;34137,210;23,71250
 851,78; 8336,543;  250,242;34209,266;23,81194
 852,34; 8302,143;  227,011;33986,169;23,91983
 852,90; 8295,051;  210,165;33799,225;24,07000
 853,46; 8329,497;  207,703;33608,128;24,31644
 854,02; 8310,251;  222,473;33612,492;24,22214
 854,58; 8300,467;  206,550;33277,317;24,47454
 855,14; 8364,221;  188,088;33354,220;24,65206
 855,70; 8297,667;  181,088;33088,969;24,66455
 856,26; 8339,806;  230,857;33075,948;24,68847
 856,82; 8323,637;  211,011;32863,158;24,84561
 857,38; 8302,083;  232,780;32774,138;24,79707
 857,94; 8327,914;  223,318;32659,810;24,98604
 858,50; 8304,053;  227,472;32530,405;25,00262
 859,06; 8333,884;  212,857;32381,692;25,24502
 859,62; 8336,100;  238,165;32286,517;25,26787
 860,18; 8326,008;  211,703;32127,805;25,42386
 860,74; 8285,531;  191,164;31923,477;25,50828
 861,30; 8310,208;  198,703;31767,302;25,69485
 861,86; 8397,193;  234,241;31797,743;25,86200
 862,42; 8355,716;  211,241;31628,569;25,92351
 862,98; 8401,624;  233,549;31602,010;26,03913
 863,54; 8399,609;  232,703;31329,066;26,26322
 864,10; 8401,748;  218,780;31484,661;26,17220
 864,66; 8353,271;  197,164;31206,641;26,30198
 865,22; 8362,564;  218,395;31051,928;26,41335
 865,78; 8403,779;  226,164;30883,215;26,67450
 866,34; 8415,610;  217,549;30887,579;26,72988
 866,90; 8428,518;  224,010;30757,020;26,87094
 867,45; 8407,118;  234,779;30473,000;27,02652
 868,01; 8410,026;  225,010;30303,825;27,21190
 868,57; 8394,319;  220,856;30039,651;27,41044
 869,13; 8332,765;  209,933;29981,323;27,28402
 869,69; 8356,442;  210,702;29867,533;27,46666
 870,25; 8334,196;  195,010;29826,051;27,46845
 870,81; 8362,874;  223,625;29740,185;27,57519
 871,37; 8306,474;  225,087;29572,318;27,53714
 871,93; 8273,536;  240,317;29451,913;27,50010
 872,49; 8273,982;  224,779;29189,046;27,79011
 873,04; 8270,967;  209,471;29004,179;27,99645
 873,60; 8305,182;  195,702;28887,159;28,26444
 874,16; 8313,706;  228,471;28813,062;28,28529
 874,72; 8318,244;  209,394;28708,985;28,45251
 875,28; 8318,090;  227,240;28637,369;28,47875
 875,84; 8270,629;  215,625;28635,985;28,34237
 876,40; 8379,937;  221,163;28542,754;28,80761
 876,95; 8378,937;  228,779;28543,138;28,78454
 877,51; 8477,937;  241,625;28472,292;29,17505
 878,07; 8468,706;  256,240;28418,138;29,16162
 878,63; 8561,321;  221,702;28446,062;29,54759
 879,19; 8555,706;  236,317;28484,831;29,45071
 879,75; 8589,860;  231,317;28551,523;29,51441
 880,30; 8612,167;  218,010;28479,215;29,70205
 880,86; 8723,860;  260,933;28569,600;29,89518
 881,42; 8762,167;  217,240;28612,677;30,09261
 881,98; 8805,860;  230,702;28630,677;30,19424
 882,54; 8863,629;  214,394;28784,292;30,27394
 883,09; 8956,167;  239,779;28888,138;30,42544
 883,65; 8971,167;  208,317;28963,908;30,47355
 884,21; 9147,860;  241,702;29296,062;30,65343
 884,77; 9192,706;  218,471;29311,677;30,84650
 885,32; 9256,090;  213,240;29452,369;30,92722
 885,88; 9394,629;  256,702;29581,754;31,16082
 886,44; 9469,167;  226,394;29676,062;31,38498
 887,00; 9492,629;  239,856;29623,600;31,48943
 887,56; 9560,321;  223,163;29824,215;31,54333
 888,11; 9580,090;  210,317;29801,831;31,66372
 888,67; 9686,552;  252,317;30013,138;31,70018
 889,23; 9715,090;  237,471;30036,369;31,80527
 889,79; 9709,398;  212,702;29856,446;32,03609
 890,34; 9742,244;  218,702;29755,677;32,24278
 890,90; 9845,398;  276,702;29912,908;32,28718
 891,46; 9780,321;  214,625;29891,908;32,23239
 892,01; 9823,090;  241,317;29837,831;32,37467
 892,57; 9828,783;  249,317;29815,908;32,39963
 893,13; 9778,552;  211,471;29535,831;32,62503
 893,69; 9788,244;  211,548;29489,138;32,70999
 894,24; 9799,475;  224,471;29436,369;32,77775
 894,80; 9838,167;  227,702;29311,292;33,04429
 895,36; 9778,090;  225,394;29145,600;33,03122
 895,91; 9755,244;  223,856;28901,062;33,23681
 896,47; 9805,552;  225,548;28834,831;33,48565
 897,03; 9779,706;  215,394;28646,446;33,64037
 897,58; 9712,398;  230,087;28489,215;33,55486
 898,14; 9677,321;  234,163;28277,523;33,67342
 898,70; 9670,090;  203,548;28110,677;33,92159
 899,25; 9710,937;  218,240;28128,600;34,01137
 899,81; 9656,090;  238,702;27953,523;33,97961
 900,37; 9581,167;  202,471;27739,600;34,05837
 900,92; 9621,552;  223,317;27738,292;34,15680
 901,48; 9579,629;  218,087;27590,908;34,20014
 902,03; 9513,090;  210,010;27470,600;34,12648
 902,59; 9559,937;  215,394;27349,446;34,43843
 903,15; 9584,552;  235,317;27222,677;34,64301
 903,70; 9459,783;  234,163;26894,523;34,60426
 904,26; 9547,706;  207,010;26756,754;35,18187
 904,82; 9482,090;  216,856;26783,292;34,87571
 905,37; 9504,013;  218,010;26597,446;35,20168
 905,93; 9414,321;  218,625;26490,677;35,00182
 906,48; 9436,475;  227,548;26393,831;35,19387
 907,04; 9503,398;  232,317;26286,985;35,58319
 907,60; 9392,706;  207,010;26103,523;35,47078
 908,15; 9380,783;  206,087;25973,292;35,60610
 908,71; 9412,706;  240,087;25927,985;35,70794
 909,26; 9398,783;  211,471;25778,831;35,93375
 909,82; 9373,244;  234,625;25663,985;35,93728
 910,37; 9409,244;  255,010;25578,985;36,14849
 910,93; 9335,552;  204,702;25386,677;36,25947
 911,48; 9305,706;  205,933;25212,138;36,39006
 912,04; 9286,706;  208,779;25197,062;36,32873
 912,60; 9320,552;  217,779;25104,292;36,57713
 913,15; 9217,013;  222,548;24869,062;36,49387
 913,71; 9167,629;  204,702;24769,062;36,48753
 914,26; 9209,398;  196,548;24667,292;36,83112
 914,82; 9196,475;  218,317;24587,446;36,84234
 915,37; 9175,783;  205,779;24464,677;36,97614
 915,93; 9163,090;  239,010;24302,831;37,08505
 916,48; 9156,783;  205,394;24189,908;37,32153
 917,04; 9087,783;  228,702;24118,446;37,08320
 917,59; 9130,629;  237,010;23943,831;37,51502
 918,15; 9010,398;  187,548;23757,138;37,43319
 918,70; 9035,706;  216,163;23660,062;37,61978
 919,26; 9109,475;  216,702;23574,292;38,07231
 919,81; 9006,013;  205,856;23432,062;37,88892
 920,37; 9077,937;  212,625;23338,215;38,33550
 920,92; 9023,244;  234,010;23275,754;38,14483
 921,48; 8967,090;  203,317;23074,985;38,31716
 922,03; 8989,167;  214,471;23022,677;38,47166
 922,59; 8988,629;  201,779;22864,215;38,77275
 923,14; 8944,244;  198,240;22737,062;38,80418
 923,69; 8958,244;  228,625;22602,138;39,01765
 924,25; 8952,475;  232,779;22644,985;38,90602
 924,80; 8850,629;  216,087;22431,908;38,86664
 925,36; 8913,706;  209,163;22327,677;39,35410
 925,91; 8884,244;  211,856;22212,600;39,41861
 926,47; 8840,167;  187,625;22136,523;39,42131
 927,02; 8893,552;  232,010;21913,908;39,94827
 927,57; 8825,475;  217,933;21878,831;39,73770
 928,13; 8828,552;  203,625;21741,369;40,04564
 928,68; 8841,167;  208,702;21738,754;40,09496
 929,24; 8747,629;  185,163;21501,138;40,16924
 929,79; 8723,783;  199,471;21321,754;40,35696
 930,34; 8683,706;  209,163;21279,831;40,21962
 930,90; 8701,552;  195,548;21201,446;40,49341
 931,45; 8711,552;  212,394;21130,600;40,63043
 932,01; 8716,321;  218,394;21122,754;40,65146
 932,56; 8679,398;  227,779;20854,754;40,97362
 933,11; 8730,937;  226,471;20900,062;41,13686
 933,67; 8623,321;  203,240;20674,446;41,13134
 934,22; 8607,475;  212,087;20583,831;41,21095
 934,77; 8579,321;  226,163;20451,523;41,30042
 935,33; 8545,706;  223,779;20349,754;41,34919
 935,88; 8593,013;  215,317;20240,985;41,83479
 936,43; 8471,321;  197,394;20161,523;41,44397
 936,99; 8495,552;  212,394;20146,062;41,55361
 937,54; 8403,860;  194,010;19957,677;41,54011
 938,09; 8454,783;  214,394;19891,446;41,87817
 938,65; 8455,629;  213,779;19737,677;42,21416
 939,20; 8432,090;  194,163;19643,754;42,35527
 939,75; 8403,937;  198,163;19498,062;42,51718
 940,31; 8398,321;  182,087;19441,600;42,66066
 940,86; 8438,321;  219,702;19434,369;42,77263
 941,41; 8470,552;  256,394;19287,677;43,16135
 941,96; 8396,244;  203,471;19205,908;43,11433
 942,52; 8382,167;  214,394;19047,215;43,36989
 943,07; 8341,552;  190,163;18956,754;43,43564
 943,62; 8380,783;  202,240;18877,754;43,79286
 944,18; 8343,475;  196,548;18813,523;43,76074
 944,73; 8338,552;  207,087;18695,138;43,98227
 945,28; 8282,860;  181,702;18496,369;44,23317
 945,83; 8295,090;  199,240;18507,985;44,21849
 946,39; 8328,783;  202,856;18413,062;44,62293
 946,94; 8309,244;  230,548;18384,677;44,50060
 947,49; 8219,398;  200,163;18217,446;44,50857
 948,04; 8277,783;  219,010;18221,908;44,76375
 948,59; 8230,398;  227,317;18113,062;44,74558
 949,15; 8175,937;  188,394;18063,062;44,68638
 949,70; 8197,398;  194,933;17914,369;45,16208
 950,25; 8193,244;  226,779;17773,754;45,40079
 950,80; 8164,937;  171,625;17692,677;45,62119
 951,36; 8136,013;  177,010;17595,908;45,69178
 951,91; 8189,860;  223,087;17601,985;45,84165
 952,46; 8086,321;  183,933;17384,831;45,94172
 953,01; 8163,244;  222,856;17419,985;46,17276
 953,56; 8113,013;  177,702;17263,600;46,44363
 954,11; 8047,706;  216,087;17247,062;45,98456
 954,67; 8081,167;  198,779;17164,677;46,46019
 955,22; 8047,090;  180,779;16994,446;46,78522
 955,77; 8089,090;  221,625;16988,754;46,92196
 956,32; 8001,552;  243,010;16874,446;46,64986
 956,87; 7962,937;  188,702;16714,831;47,04208
 957,42; 7958,475;  204,471;16632,446;47,20000
 957,98; 7931,552;  195,240;16599,369;47,16076
 958,53; 7952,475;  222,471;16547,138;47,35168
 959,08; 7891,398;  194,163;16408,138;47,47284
 959,63; 7868,706;  192,087;16331,600;47,56413
 960,18; 7932,937;  215,163;16244,369;48,14819
 960,73; 7857,706;  205,010;16235,600;47,73808
 961,28; 7858,629;  186,933;16052,985;48,35290
 961,83; 7885,090;  213,087;16048,754;48,44762
 962,39; 7795,552;  189,856;15892,985;48,43427
 962,94; 7825,090;  223,317;15823,138;48,72987
 963,49; 7751,475;  203,087;15643,369;48,88763
 964,04; 7792,706;  215,317;15701,754;48,92919
 964,59; 7737,629;  180,087;15528,292;49,24056
 965,14; 7799,629;  213,471;15522,523;49,55341
 965,69; 7745,860;  204,702;15344,523;49,81008
 966,24; 7705,321;  208,548;15286,369;49,72053
 966,79; 7698,321;  213,856;15118,677;50,21506
 967,34; 7699,398;  178,087;14954,369;50,90124
 967,89; 7656,860;  189,317;14949,062;50,59398
 968,44; 7636,013;  211,394;14925,138;50,46043
 968,99; 7635,475;  212,163;14861,600;50,67302
 969,55; 7623,937;  209,856;14736,446;51,03800
 970,10; 7571,013;  210,625;14599,215;51,15434
 970,65; 7590,090;  214,933;14600,446;51,26795
 971,20; 7522,244;  203,471;14429,831;51,44516
 971,75; 7453,398;  189,548;14307,292;51,45192
 972,30; 7467,629;  202,779;14217,677;51,83662
 972,85; 7413,783;  203,548;14192,369;51,54283
 973,40; 7332,475;  195,702;13995,369;51,71699
 973,95; 7400,398;  206,779;13956,523;52,31820
 974,50; 7383,321;  223,394;13924,754;52,25705
 975,05; 7308,398;  220,779;13814,138;52,14031
 975,60; 7320,783;  225,779;13755,215;52,44124
 976,15; 7261,860;  215,394;13603,369;52,63279
 976,70; 7293,706;  213,163;13577,292;52,98170
 977,25; 7260,090;  208,779;13508,369;53,01901
 977,80; 7202,937;  199,933;13354,446;53,23651
 978,35; 7109,167;  215,163;13229,600;52,97197
 978,89; 7035,860;  196,010;13118,600;52,92940
 979,44; 7072,706;  205,317;13052,292;53,45530
 979,99; 6952,090;  193,625;12881,292;53,26799
 980,54; 6932,244;  235,779;12788,292;53,34761
 981,09; 6887,244;  218,779;12741,985;53,24887
 981,64; 6791,629;  216,471;12576,292;53,19784
 982,19; 6799,398;  248,240;12534,523;53,32091
 982,74; 6760,860;  226,702;12426,677;53,55878
 983,29; 6653,783;  195,240;12235,369;53,64180
 983,84; 6664,629;  212,856;12153,138;54,03367
 984,39; 6645,937;  247,471;12121,062;53,88821
 984,94; 6609,013;  190,471;11949,754;54,58277
 985,49; 6639,013;  229,010;11893,138;54,95484
 986,03; 6529,167;  240,856;11820,831;54,30333
 986,58; 6522,860;  246,240;11686,985;54,86198
 987,13; 6427,860;  218,240;11542,600;54,83418
 987,68; 6414,629;  230,163;11404,985;55,34286
 988,23; 6380,937;  229,933;11353,523;55,29693
 988,78; 6303,552;  214,317;11223,292;55,31155
 989,33; 6291,090;  228,471;11134,985;55,58714
 989,88; 6289,475;  235,394;11119,831;55,62144
 990,42; 6226,321;  219,625;10899,677;56,24220
 990,97; 6193,552;  216,856;10851,600;56,19972
 991,52; 6188,783;  239,779;10713,523;56,79921
 992,07; 6151,321;  244,394;10635,985;56,84334
 992,62; 6135,244;  230,163;10571,985;57,09904
 993,17; 6047,090;  230,471;10423,215;57,06627
 993,71; 6024,706;  222,471;10308,215;57,52907
 994,26; 5994,937;  199,471;10194,369;57,98424
 994,81; 6012,475;  232,779;10166,369;58,18335
 995,36; 5931,321;  218,702;10009,831;58,34485
 995,91; 5935,783;  223,317; 9934,138;58,82577
 996,45; 5852,860;  228,548; 9834,215;58,55201
 997,00; 5814,860;  199,471; 9690,677;59,16412
 997,55; 5790,013;  216,702; 9629,523;59,20979
 998,10; 5730,398;  247,317; 9522,215;59,11742
 998,65; 5695,629;  218,779; 9451,831;59,31787
 999,19; 5617,552;  237,317; 9256,831;59,65105
 999,74; 5633,244;  252,779; 9225,523;59,96455
1000,29; 5594,937;  227,933; 9121,754;60,34531
1000,84; 5483,475;  216,317; 9033,292;59,73883
1001,38; 5481,783;  220,702; 8862,446;60,87985
1001,93; 5458,167;  237,087; 8807,677;60,91857
1002,48; 5324,090;  203,087; 8696,677;60,29257
1003,03; 5330,244;  221,856; 8659,369;60,54377
1003,57; 5268,783;  231,087; 8529,523;60,70657
1004,12; 5262,475;  245,010; 8427,215;61,32167
1004,67; 5183,783;  214,779; 8341,138;61,14674
1005,22; 5111,783;  210,933; 8213,985;61,23726
1005,76; 5006,398;  205,548; 8064,677;61,08629
1006,31; 5053,167;  242,625; 8032,369;61,75482
1006,86; 4981,475;  211,010; 7859,446;62,37177
1007,40; 4870,706;  196,471; 7727,292;62,06806
1007,95; 4800,937;  215,163; 7683,754;61,40078
1008,50; 4780,783;  218,933; 7577,677;61,99223
1009,04; 4699,629;  225,625; 7457,908;61,86157
1009,59; 4632,167;  231,625; 7315,523;62,12035
1010,14; 4588,706;  211,471; 7221,831;62,43952
1010,68; 4531,321;  219,087; 7066,831;62,97307
1011,23; 4436,706;  200,548; 6984,523;62,44359
1011,78; 4417,244;  229,856; 6928,831;62,50790
1012,32; 4348,167;  217,240; 6785,908;62,88836
1012,87; 4295,860;  244,933; 6796,292;61,83338
1013,42; 4216,937;  209,240; 6641,369;62,30746
1013,96; 4243,167;  242,163; 6651,292;62,42664
1014,51; 4158,860;  195,779; 6561,985;62,25185
1015,06; 4170,244;  196,471; 6542,908;62,61424
1015,60; 4217,475;  260,702; 6590,446;62,51079
1016,15; 4171,398;  215,394; 6511,754;62,83002
1016,69; 4201,629;  210,702; 6584,215;62,61738
1017,24; 4189,398;  201,625; 6533,215;62,98217
1017,79; 4237,090;  236,625; 6648,215;62,39428
1018,33; 4186,860;  196,856; 6574,138;62,56589
1018,88; 4295,937;  217,856; 6679,292;63,11415
1019,42; 4310,398;  221,625; 6673,369;63,37469
1019,97; 4306,937;  212,010; 6700,754;63,10816
1020,51; 4344,475;  216,317; 6676,062;63,90590
1021,06; 4335,783;  211,240; 6675,831;63,80207
1021,61; 4306,398;  190,087; 6661,600;63,60663
1022,15; 4281,706;  171,856; 6627,369;63,66418
1022,70; 4314,706;  215,856; 6593,677;64,26725
1023,24; 4250,167;  204,548; 6580,215;63,45405
1023,79; 4253,398;  220,163; 6547,138;63,74665
1024,33; 4233,244;  218,087; 6440,292;64,52949
1024,88; 4169,860;  219,240; 6406,985;63,84587
1025,42; 4145,937;  201,779; 6280,831;64,88113
1025,97; 4102,321;  203,933; 6205,677;64,95426
1026,51; 3993,552;  173,087; 6046,600;65,04566
1027,06; 3997,090;  209,317; 6048,446;64,86880
1027,60; 3962,552;  207,702; 5891,600;66,06118
1028,15; 3898,475;  221,087; 5849,754;65,33320
1028,69; 3816,860;  174,317; 5712,523;65,77116
1029,24; 3772,629;  207,933; 5681,062;65,13086
1029,78; 3721,783;  205,779; 5514,600;66,22946
1030,33; 3659,783;  177,933; 5433,292;66,25332
1030,87; 3646,937;  206,471; 5377,138;66,53813
1031,42; 3588,937;  194,933; 5281,754;66,72151
1031,96; 3577,244;  212,317; 5252,754;66,75864
1032,51; 3503,552;  199,317; 5121,062;67,13544
1033,05; 3463,783;  208,163; 5095,985;66,60676
1033,60; 3370,783;  174,933; 4951,138;66,91190
1034,14; 3348,552;  199,933; 4910,831;66,83692
1034,69; 3326,552;  199,317; 4856,908;67,14276
1035,23; 3288,321;  204,702; 4754,600;67,77337
1035,77; 3261,013;  196,087; 4713,292;67,85006
1036,32; 3204,321;  180,779; 4606,908;68,31121
1036,86; 3191,783;  198,163; 4560,138;68,62990
1037,41; 3137,706;  204,625; 4497,369;68,32647
1037,95; 3062,090;  183,933; 4440,754;67,61284
1038,50; 3034,860;  196,240; 4361,138;68,15579
1039,04; 3045,090;  203,779; 4342,831;68,64643
1039,58; 3002,013;  192,010; 4257,446;69,11936
1040,13; 2974,552;  201,471; 4193,754;69,46103
1040,67; 2971,090;  223,394; 4184,369;69,36919
1041,21; 2913,552;  228,317; 4080,523;69,70642
1041,76; 2825,860;  176,471; 3987,908;69,51155
1042,30; 2826,552;  210,471; 3959,215;69,78552
1042,85; 2780,244;  207,856; 3900,831;69,65627
1043,39; 2690,629;  190,010; 3855,600;68,21873
1043,93; 2707,706;  217,394; 3807,292;69,36998
1044,48; 2687,167;  205,548; 3721,600;70,57971
1045,02; 2640,321;  202,856; 3640,062;70,91415
1045,56; 2609,783;  210,548; 3624,985;70,26737
1046,11; 2607,090;  210,394; 3580,523;71,11586
1046,65; 2557,321;  208,779; 3510,292;71,13532
1047,19; 2548,244;  198,779; 3490,523;71,37448
1047,74; 2463,783;  182,856; 3377,062;71,40827
1048,28; 2482,013;  210,779; 3371,369;71,86109
1048,82; 2459,244;  222,625; 3358,138;71,33183
1049,37; 2417,090;  205,240; 3283,600;71,85158
1049,91; 2400,013;  197,548; 3233,215;72,55292
1050,45; 2392,860;  228,317; 3187,908;73,13655
1050,99; 2353,475;  207,856; 3150,215;72,92172
1051,54; 2291,706;  196,933; 3088,369;72,44749
1052,08; 2290,090;  215,010; 3068,446;72,72216
1052,62; 2253,629;  221,548; 3029,369;72,37216
1053,16; 2222,244;  192,702; 2968,446;73,11705
1053,71; 2205,552;  215,856; 2966,446;72,33706
1054,25; 2185,552;  223,779; 2873,908;74,02557
1054,79; 2160,783;  211,933; 2868,446;73,36119
1055,33; 2095,321;  183,163; 2789,831;73,35642
1055,88; 2104,937;  227,317; 2766,677;73,94066
1056,42; 2085,629;  234,702; 2757,062;73,38077
1056,96; 2042,398;  221,240; 2686,600;73,86986
1057,50; 2011,090;  201,240; 2655,215;73,75177
1058,05; 1992,013;  212,625; 2609,523;74,23714
1058,59; 1951,552;  228,163; 2575,908;73,40614
1059,13; 1918,244;  196,163; 2525,062;73,94402
1059,67; 1914,475;  229,163; 2516,369;73,68430
1060,21; 1873,860;  218,240; 2436,908;74,62224
1060,76; 1866,937;  221,779; 2449,600;73,84604
1061,30; 1859,398;  232,010; 2417,138;74,47563
1061,84; 1793,013;  211,471; 2366,446;73,39029
1062,38; 1759,244;  205,317; 2303,446;74,06251
1062,92; 1784,167;  243,317; 2308,446;74,61278
1063,46; 1736,398;  229,933; 2273,292;73,72493
1064,01; 1697,783;  208,317; 2224,062;73,89159
1064,55; 1696,860;  217,163; 2196,677;74,75050
1065,09; 1650,475;  186,779; 2143,754;74,79381
1065,63; 1674,937;  232,471; 2184,446;73,89774
1066,17; 1664,629;  234,010; 2139,600;75,07486
1066,71; 1618,937;  230,087; 2103,985;74,11556
1067,25; 1597,244;  212,471; 2065,831;74,71691
1067,80; 1569,167;  233,163; 2048,600;73,59133
1068,34; 1581,090;  237,471; 2032,446;74,85448
1068,88; 1511,321;  213,087; 1969,677;73,90651
1069,42; 1550,706;  248,779; 1996,523;74,49184
1069,96; 1505,552;  218,625; 1934,754;74,99011
1070,50; 1538,937;  245,317; 1943,600;76,17220
1071,04; 1463,398;  212,394; 1893,677;74,40770
1071,58; 1470,090;  221,548; 1860,523;76,17824
1072,12; 1448,860;  212,625; 1832,215;76,33008
1072,66; 1453,860;  211,240; 1815,292;77,46752
1073,21; 1435,321;  230,163; 1807,831;76,38858
1073,75; 1405,398;  223,163; 1779,523;75,96153
1074,29; 1402,706;  230,087; 1780,754;75,62030
1074,83; 1400,706;  228,163; 1753,600;76,86602
1075,37; 1359,783;  226,856; 1738,062;74,96841
1075,91; 1366,937;  233,240; 1720,446;76,22995
1076,45; 1351,552;  229,317; 1687,600;76,95590
1076,99; 1331,860;  222,933; 1658,908;77,22467
1077,53; 1305,552;  207,625; 1627,292;77,33692
1078,07; 1297,244;  232,933; 1623,215;76,55361
1078,61; 1286,552;  223,087; 1604,523;76,98257
1079,15; 1254,552;  220,548; 1579,215;76,10427
1079,69; 1249,860;  234,933; 1567,908;76,13998
1080,23; 1252,860;  232,240; 1558,292;76,96676
1080,77; 1260,321;  252,240; 1545,985;77,91963
1081,31; 1209,629;  217,240; 1499,446;77,39697
1081,85; 1213,937;  233,240; 1493,985;77,78708
1082,39; 1202,013;  221,394; 1457,138;79,35455
1082,93; 1192,475;  216,010; 1457,754;78,63660
1083,47; 1146,629;  207,625; 1426,215;77,05656
1084,01; 1179,244;  236,625; 1434,754;78,67428
1084,55; 1147,475;  216,163; 1398,831;78,74671
1085,09; 1144,090;  227,317; 1404,523;77,87705
1085,63; 1134,321;  219,394; 1375,600;79,13184
1086,17; 1105,398;  213,394; 1342,523;78,99930
1086,71; 1088,398;  214,087; 1332,985;78,14041
1087,24; 1124,321;  237,625; 1357,292;79,19282
1087,78; 1102,321;  235,702; 1310,754;80,61185
1088,32; 1055,244;  221,548; 1278,292;78,89290
1088,86; 1073,244;  241,702; 1305,138;78,19388
1089,40; 1060,706;  226,779; 1282,831;78,96647
1089,94; 1023,013;  193,702; 1241,600;79,14048
1090,48; 1031,398;  233,779; 1250,831;78,42463
1091,02; 1028,783;  229,933; 1228,369;80,01009
1091,56; 1026,860;  238,702; 1222,369;80,12442
1092,10;  989,783;  207,240; 1176,985;80,69574
1092,63; 1016,937;  235,317; 1194,292;81,50569
1093,17;  997,860;  223,625; 1183,215;80,68387
1093,71;  982,860;  211,548; 1152,754;81,94930
1094,25;  987,167;  246,010; 1158,062;81,26266
1094,79;  958,783;  223,163; 1139,369;80,28974
1095,33;  942,629;  229,394; 1123,754;79,74808
1095,87;  927,167;  223,471; 1094,985;80,74415
1096,40;  907,090;  200,548; 1065,985;81,63999
1096,94;  920,475;  220,087; 1078,908;81,55231
1097,48;  917,783;  224,240; 1080,831;80,96546
1098,02;  899,860;  222,087; 1063,985;80,50536
1098,56;  867,321;  200,548; 1018,908;81,47678
1099,10;  851,013;  202,933; 1023,523;78,97738
1099,63;  854,090;  211,933; 1004,062;81,06733
1100,17;  886,629;  228,471; 1018,985;83,25699
1100,71;  873,629;  240,779; 1003,523;82,97015

