
Integration time [ms]: 115,000
Averaging Nr. [scans]: 13
Smoothing Nr. [pixels]: 0
Data measured with spectrometer [name]: 2009305U1
Wave   ;Sample   ;Dark     ;Reference;Reflectance
[nm]   ;[counts] ;[counts] ;[counts] ;[%]

 175,72;  207,923;  176,239;  216,377;78,93594
 176,32;  222,008;  211,934;  220,629;115,85928
 176,92;  259,386;  225,163;  254,806;115,44906
 177,52;  259,605;  252,086;  276,497;30,80427
 178,12;  235,660;  223,549;  229,646;198,62613
 178,72;  260,526;  243,857;  246,426;648,88102
 179,32;  253,530;  236,780;  245,502;192,03920
 179,92;  249,139;  232,933;  243,184;158,08770
 180,52;  250,146;  234,084;  251,849;90,41380
 181,12;  251,484;  235,010;  258,040;71,53351
 181,73;  278,685;  253,163;  272,610;131,23771
 182,33;  361,654;  298,008;  354,611;112,44329
 182,93;  275,075;  245,240;  267,679;132,95825
 183,53;  246,553;  227,319;  231,255;488,71343
 184,13;  235,551;  231,011;  230,121; 0,00000
 184,73;  272,546;  249,935;  276,206;86,07047
 185,33;  271,190;  222,716;  348,805;38,44399
 185,93;  276,632;  214,717;  380,479;37,35148
 186,53;  301,993;  241,332;  381,727;43,20769
 187,13;  303,366;  264,099;  406,630;27,54940
 187,73;  280,056;  220,102;  379,098;37,70794
 188,33;  287,625;  227,718;  376,187;40,35017
 188,93;  297,577;  231,182;  389,757;41,87005
 189,53;  287,724;  240,799;  389,798;31,49370
 190,13;  331,678;  271,649;  443,566;34,91752
 190,73;  282,587;  217,185;  377,425;40,81540
 191,34;  318,054;  254,183;  413,712;40,03765
 191,94;  281,963;  227,565;  367,514;38,86967
 192,54;  296,506;  237,868;  406,065;34,86265
 193,14;  312,772;  248,715;  393,108;44,36323
 193,74;  296,560;  249,561;  386,677;34,27685
 194,34;  293,867;  235,099;  379,479;40,70334
 194,94;  255,242;  206,792;  347,521;34,42761
 195,54;  241,901;  196,177;  321,772;36,40567
 196,14;  262,542;  218,484;  355,903;32,06113
 196,74;  252,191;  211,331;  351,478;29,15502
 197,34;  232,275;  187,252;  345,540;28,44390
 197,94;  259,162;  225,715;  362,779;24,40232
 198,54;  266,524;  217,484;  389,006;28,59150
 199,14;  249,186;  197,636;  381,096;28,09862
 199,74;  247,639;  198,097;  381,375;27,03111
 200,34;  246,585;  186,097;  382,635;30,77638
 200,94;  266,149;  223,637;  421,823;21,45092
 201,54;  269,778;  202,328;  428,459;29,82752
 202,14;  291,065;  211,635;  474,923;30,16850
 202,74;  269,065;  204,328;  476,128;23,81780
 203,34;  256,210;  195,558;  479,311;21,37489
 203,94;  240,487;  163,635;  500,548;22,81074
 204,54;  315,840;  228,869;  592,022;23,94891
 205,14;  274,553;  199,405;  597,661;18,86925
 205,74;  325,841;  218,481;  690,215;22,75857
 206,34;  284,902;  197,405;  690,439;17,74667
 206,94;  307,734;  203,328;  773,362;18,31574
 207,54;  297,943;  180,251;  804,961;18,83944
 208,14;  312,486;  195,097;  861,786;17,60777
 208,74;  330,594;  194,559;  953,337;17,92816
 209,34;  336,735;  193,636; 1030,265;17,10429
 209,94;  352,888;  202,328; 1148,580;15,91113
 210,54;  370,902;  198,866; 1237,375;16,56568
 211,14;  401,519;  209,174; 1365,714;16,63100
 211,73;  406,792;  201,175; 1462,293;16,30433
 212,33;  428,926;  218,791; 1597,159;15,24526
 212,93;  444,610;  196,636; 1668,394;16,84880
 213,53;  413,740;  181,790; 1767,846;14,62433
 214,13;  466,240;  176,403; 1856,152;17,25475
 214,73;  469,219;  178,481; 1880,384;17,08309
 215,33;  451,580;  156,405; 1915,118;16,78356
 215,93;  501,130;  188,327; 2037,402;16,91670
 216,53;  481,377;  142,559; 2075,324;17,53022
 217,13;  580,261;  210,866; 2307,296;17,62022
 217,73;  589,806;  181,250; 2505,729;17,57624
 218,33;  609,996;  162,403; 2685,388;17,74063
 218,93;  704,881;  172,632; 2992,680;18,87374
 219,53;  779,066;  174,942; 3296,897;19,35082
 220,13;  816,783;  151,557; 3577,759;19,41585
 220,73;  933,333;  167,405; 3938,368;20,31121
 221,32; 1023,594;  178,251; 4361,644;20,20710
 221,92; 1130,328;  192,249; 4765,641;20,51166
 222,52; 1189,689;  172,558; 5220,516;20,14935
 223,12; 1312,742;  167,481; 5680,122;20,77518
 223,72; 1420,349;  185,019; 6134,170;20,76482
 224,32; 1542,361;  176,865; 6553,184;21,41510
 224,92; 1580,172;  175,404; 6818,083;21,14762
 225,52; 1709,187;  188,020; 7246,795;21,55002
 226,12; 1741,252;  182,327; 7519,659;21,24648
 226,72; 1812,839;  155,174; 7864,594;21,50182
 227,31; 1915,574;  151,251; 8241,262;21,80866
 227,91; 2032,594;  174,405; 8608,273;22,03247
 228,51; 2096,264;  177,790; 9061,833;21,59460
 229,11; 2196,034;  166,020; 9428,961;21,91544
 229,71; 2255,198;  168,175; 9795,860;21,67731
 230,31; 2345,967;  163,326;10145,637;21,86508
 230,91; 2410,372;  163,483;10541,858;21,64972
 231,51; 2512,079;  147,173;10894,551;22,00449
 232,10; 2593,031;  152,172;11267,104;21,96018
 232,70; 2655,636;  167,484;11505,325;21,94555
 233,30; 2759,692;  192,789;11856,258;22,00806
 233,90; 2757,503;  163,789;12037,003;21,84509
 234,50; 2785,601;  175,558;12250,655;21,61509
 235,10; 2826,095;  157,404;12347,468;21,89235
 235,70; 2840,277;  192,020;12458,020;21,59022
 236,29; 2847,208;  182,251;12486,574;21,65870
 236,89; 2787,247;  165,022;12367,077;21,49003
 237,49; 2792,158;  177,173;12382,301;21,42529
 238,09; 2734,671;  176,789;12207,055;21,26206
 238,69; 2667,918;  193,099;12025,720;20,91523
 239,29; 2601,787;  168,328;11806,275;20,90970
 239,89; 2510,127;  178,791;11452,563;20,67930
 240,48; 2366,867;  173,635;11111,338;20,05203
 241,08; 2252,392;  163,097;10762,261;19,71188
 241,68; 2177,596;  198,558;10511,432;19,18997
 242,28; 2062,348;  162,404;10160,933;19,00223
 242,88; 2009,155;  190,480; 9825,661;18,87536
 243,48; 1900,243;  192,250; 9558,253;18,23609
 244,07; 1786,867;  186,482; 9286,172;17,58725
 244,67; 1707,701;  188,943; 9134,113;16,97853
 245,27; 1633,253;  182,329; 8936,369;16,57434
 245,87; 1588,040;  184,096; 8853,728;16,19382
 246,47; 1546,749;  172,329; 8804,009;15,92298
 247,06; 1484,847;  169,097; 8795,610;15,25240
 247,66; 1454,605;  170,943; 8817,762;14,84549
 248,26; 1466,847;  208,559; 8992,584;14,32473
 248,86; 1458,426;  189,559; 9141,797;14,17374
 249,46; 1407,087;  150,789; 9313,349;13,71122
 250,05; 1491,806;  191,405; 9693,550;13,68535
 250,65; 1481,062;  158,636;10006,744;13,42822
 251,25; 1526,886;  179,713;10412,907;13,16474
 251,85; 1597,922;  182,329;11056,103;13,01841
 252,44; 1664,713;  147,251;11624,928;13,22098
 253,04; 1789,564;  180,559;12334,676;13,23836
 253,64; 1839,084;  144,175;12999,837;13,18414
 254,24; 2003,506;  186,559;13928,194;13,22221
 254,84; 2125,164;  175,712;14774,119;13,35387
 255,43; 2279,792;  178,713;15718,690;13,52048
 256,03; 2441,752;  163,329;16666,213;13,80621
 256,63; 2663,828;  176,868;17718,668;14,17734
 257,23; 2796,598;  165,098;18500,507;14,35201
 257,82; 2996,000;  177,022;19474,686;14,60787
 258,42; 3109,658;  132,484;20270,264;14,78402
 259,02; 3380,093;  174,636;21174,808;15,26396
 259,62; 3520,986;  159,792;21804,596;15,52887
 260,21; 3709,807;  177,328;22295,978;15,97059
 260,81; 3864,114;  170,481;22823,178;16,30549
 261,41; 4005,689;  166,176;23209,931;16,66184
 262,01; 4201,124;  195,023;23642,910;17,08513
 262,60; 4302,906;  161,483;23968,584;17,39575
 263,20; 4491,474;  164,944;24178,655;18,01692
 263,80; 4621,653;  182,562;24384,042;18,34223
 264,40; 4738,085;  145,484;24473,227;18,87804
 264,99; 4850,138;  179,331;24635,359;19,09880
 265,59; 4958,678;  164,255;24795,929;19,46446
 266,19; 5101,491;  164,638;24886,859;19,96929
 266,78; 5296,546;  198,716;25019,817;20,53829
 267,38; 5337,273;  172,332;25091,828;20,72651
 267,98; 5411,376;  158,331;25004,990;21,14186
 268,58; 5538,777;  177,562;25077,419;21,53110
 269,17; 5597,159;  165,332;25112,785;21,77307
 269,77; 5665,471;  182,945;24923,644;22,15995
 270,37; 5687,821;  150,485;24758,337;22,50231
 270,96; 5785,906;  204,253;24703,174;22,78326
 271,56; 5791,178;  167,868;24397,106;23,20878
 272,16; 5786,499;  169,176;24154,837;23,41950
 272,75; 5832,270;  166,561;24041,291;23,73099
 273,35; 5899,669;  173,099;24093,138;23,94047
 273,95; 5929,954;  175,176;23998,878;24,15568
 274,54; 6009,181;  155,251;24001,451;24,54869
 275,14; 6184,944;  180,253;24296,492;24,89895
 275,74; 6191,628;  144,022;24387,065;24,94574
 276,33; 6439,650;  190,099;24762,723;25,43298
 276,93; 6536,853;  175,943;24987,120;25,63728
 277,53; 6721,738;  174,867;25496,469;25,85489
 278,12; 6880,815;  157,252;26003,751;26,01344
 278,72; 7180,822;  194,867;26636,274;26,42051
 279,32; 7331,674;  165,713;27171,463;26,53494
 279,91; 7655,771;  163,021;27905,256;27,00846
 280,51; 7812,244;  173,251;28428,361;27,03579
 281,11; 8137,198;  174,098;29118,155;27,51204
 281,70; 8382,768;  153,098;29568,424;27,97749
 282,30; 8627,485;  159,098;30230,644;28,16080
 282,90; 8819,203;  169,945;30561,185;28,45971
 283,49; 9092,046;  186,099;31199,186;28,71674
 284,09; 9368,441;  190,714;31628,304;29,19348
 284,69; 9580,630;  189,175;32037,341;29,48821
 285,28; 9859,219;  191,867;32500,794;29,92161
 285,88;10123,294;  199,022;32695,762;30,53928
 286,47;10186,595;  175,329;32693,137;30,78703
 287,07;10405,528;  203,944;32809,646;31,28773
 287,67;10625,781;  190,789;32982,022;31,82251
 288,26;10765,347;  169,559;32869,266;32,40331
 288,86;10978,647;  172,175;32963,147;32,95563
 289,46;11246,448;  170,636;33023,814;33,71306
 290,05;11542,817;  162,251;33047,628;34,60677
 290,65;11846,550;  175,252;33285,329;35,24999
 291,24;12110,000;  189,559;33411,430;35,88131
 291,84;12348,443;  182,406;33467,438;36,55107
 292,44;12650,134;  176,327;33666,984;37,24563
 293,03;12978,137;  230,636;33835,995;37,93294
 293,63;13206,399;  170,022;33925,161;38,62042
 294,22;13411,292;  194,175;34192,898;38,87533
 294,82;13630,821;  181,561;34111,735;39,63805
 295,41;13604,460;  153,944;33869,501;39,89409
 296,01;13777,556;  217,176;33826,800;40,34672
 296,61;13765,837;  179,559;33699,024;40,53250
 297,20;13663,703;  182,638;33244,688;40,77504
 297,80;13629,933;  187,635;33052,862;40,90128
 298,39;13488,768;  163,868;32744,796;40,89785
 298,99;13433,710;  175,638;32519,890;40,99050
 299,58;13388,170;  186,558;32371,911;41,01745
 300,18;13297,588;  207,097;32078,314;41,07308
 300,78;13174,365;  169,405;31723,868;41,21433
 301,37;13040,048;  186,639;31725,967;40,75359
 301,97;13088,721;  182,021;31752,405;40,88230
 302,56;12929,867;  166,099;31633,889;40,56137
 303,16;12891,331;  155,099;31597,477;40,50658
 303,75;12814,650;  174,405;31569,005;40,26248
 304,35;12869,579;  163,635;31819,100;40,13823
 304,94;12850,226;  180,098;31793,374;40,07851
 305,54;12816,979;  203,636;31684,952;40,06612
 306,13;12658,273;  149,173;31607,401;39,76416
 306,73;12532,544;  165,404;31473,524;39,50138
 307,33;12458,224;  185,020;31361,055;39,36743
 307,92;12366,095;  169,944;31395,096;39,05874
 308,52;12429,484;  165,099;31890,100;38,65842
 309,11;12504,929;  172,638;32427,632;38,23374
 309,71;12508,680;  155,177;32681,960;37,97948
 310,30;12501,862;  157,098;32836,795;37,77503
 310,90;12595,555;  179,329;33162,180;37,64449
 311,49;12518,749;  182,559;33344,317;37,20005
 312,09;12455,238;  142,636;33547,722;36,85846
 312,68;12544,125;  201,790;33927,769;36,59593
 313,28;12394,402;  152,559;33956,788;36,21394
 313,87;12404,416;  150,482;34176,314;36,01362
 314,47;12323,028;  167,253;34398,507;35,51075
 315,06;12295,027;  148,405;34567,733;35,29012
 315,66;12201,622;  158,943;34854,645;34,70943
 316,25;12050,752;  140,406;34689,418;34,47377
 316,85;11932,709;  139,559;34777,975;34,04645
 317,44;11841,871;  158,561;34947,829;33,58309
 318,04;11668,622;  148,945;34913,363;33,13640
 318,63;11555,638;  148,712;34929,575;32,79656
 319,22;11500,232;  174,253;35197,076;32,33885
 319,82;11353,884;  176,483;35096,106;32,00894
 320,41;11187,465;  161,945;35099,992;31,55734
 321,01;11062,979;  171,020;35141,349;31,14628
 321,60;10912,467;  166,714;35251,383;30,62806
 322,20;10715,677;  161,405;35121,065;30,18986
 322,79;10610,891;  191,790;35166,860;29,79008
 323,39;10462,841;  168,250;35279,984;29,31952
 323,98;10251,979;  153,251;35282,413;28,74742
 324,58;10108,578;  157,176;35187,689;28,40781
 325,17; 9900,659;  167,637;35145,514;27,82622
 325,76; 9793,697;  182,867;34943,934;27,64826
 326,36; 9477,158;  147,174;34505,813;27,15469
 326,95; 9326,545;  174,406;34216,453;26,88481
 327,55; 9086,242;  161,560;33888,496;26,46159
 328,14; 8802,619;  160,558;33455,672;25,95594
 328,74; 8628,644;  193,637;33098,303;25,63468
 329,33; 8409,592;  182,328;32807,741;25,21735
 329,92; 8116,281;  159,869;32210,755;24,82431
 330,52; 7835,638;  177,097;31505,485;24,44601
 331,11; 7623,330;  174,790;31212,280;23,99852
 331,71; 7411,925;  171,560;30432,102;23,92675
 332,30; 7219,919;  186,406;30077,143;23,53074
 332,89; 6979,941;  194,867;29511,339;23,14424
 333,49; 6718,870;  191,483;28964,734;22,68561
 334,08; 6504,379;  176,252;28472,291;22,36400
 334,68; 6324,969;  178,944;28023,751;22,07243
 335,27; 6156,822;  189,097;27739,620;21,66102
 335,86; 6032,022;  198,252;27392,433;21,45227
 336,46; 5820,481;  178,404;27143,820;20,92338
 337,05; 5678,142;  173,175;26956,025;20,55407
 337,65; 5516,448;  154,252;26747,263;20,16393
 338,24; 5498,081;  213,636;26704,877;19,94789
 338,83; 5380,030;  192,482;26645,103;19,61072
 339,43; 5268,950;  167,791;26542,617;19,34101
 340,02; 5196,366;  173,945;26436,655;19,12377
 340,61; 5112,087;  160,482;26511,836;18,79070
 341,21; 5055,182;  202,099;26614,149;18,37451
 341,80; 4954,959;  167,483;26464,883;18,20513
 342,40; 4935,972;  184,866;26529,250;18,03461
 342,99; 4860,787;  176,482;26685,878;17,67036
 343,58; 4820,439;  171,251;26786,510;17,46813
 344,18; 4777,048;  187,789;26883,705;17,19086
 344,77; 4749,314;  173,791;27228,350;16,91221
 345,36; 4751,314;  152,944;27547,530;16,78569
 345,96; 4794,627;  186,790;27898,073;16,62802
 346,55; 4750,808;  159,250;28039,876;16,46863
 347,14; 4761,101;  148,712;28352,017;16,35407
 347,74; 4777,805;  134,941;28802,237;16,19568
 348,33; 4838,750;  176,788;29445,868;15,92794
 348,92; 4884,493;  182,864;30050,130;15,74174
 349,52; 4923,152;  153,249;30534,317;15,70025
 350,11; 4965,166;  164,330;30849,386;15,64552
 350,70; 4909,497;  157,636;30870,762;15,47176
 351,29; 4847,204;  151,793;30630,485;15,40555
 351,89; 4834,450;  176,946;30644,581;15,28673
 352,48; 4830,829;  148,098;30744,072;15,30506
 353,07; 4760,849;  171,481;30661,308;15,05213
 353,67; 4772,658;  187,941;30661,298;15,04500
 354,26; 4701,118;  177,943;30285,990;15,02315
 354,85; 4679,991;  180,097;30287,588;14,94610
 355,45; 4611,393;  150,483;30048,817;14,92026
 356,04; 4595,612;  171,712;29992,195;14,83510
 356,63; 4610,666;  194,637;29722,345;14,95554
 357,22; 4549,923;  182,254;29642,724;14,82552
 357,82; 4520,179;  179,254;29568,586;14,77041
 358,41; 4546,867;  183,944;29398,069;14,93429
 359,00; 4482,506;  171,253;29186,052;14,85881
 359,60; 4473,063;  179,559;29089,288;14,85142
 360,19; 4476,290;  167,250;28900,900;14,99649
 360,78; 4494,644;  182,868;28752,546;15,09214
 361,37; 4464,175;  175,637;28566,902;15,10513
 361,97; 4484,814;  177,175;28530,155;15,19290
 362,56; 4449,388;  174,560;28176,133;15,26638
 363,15; 4476,719;  188,252;27971,246;15,43558
 363,74; 4424,653;  173,022;27662,683;15,46629
 364,34; 4380,958;  206,022;27333,877;15,38985
 364,93; 4333,821;  157,484;26881,684;15,62755
 365,52; 4303,176;  145,329;26525,510;15,76125
 366,11; 4307,446;  169,791;26163,872;15,91768
 366,71; 4261,694;  156,791;25776,076;16,02271
 367,30; 4280,126;  165,790;25473,044;16,25753
 367,89; 4320,290;  201,328;25232,258;16,45549
 368,48; 4281,945;  179,561;24906,241;16,59092
 369,07; 4238,189;  181,713;24451,608;16,71402
 369,67; 4263,410;  185,253;24105,611;17,04890
 370,26; 4233,404;  173,867;23873,858;17,12885
 370,85; 4240,697;  174,252;23550,537;17,39560
 371,44; 4230,095;  171,867;23370,237;17,49359
 372,03; 4220,206;  156,637;23193,697;17,63927
 372,63; 4231,324;  153,483;22877,551;17,94503
 373,22; 4241,307;  163,713;22601,975;18,17250
 373,81; 4213,372;  151,098;22258,948;18,37480
 374,40; 4228,867;  157,866;21988,723;18,64792
 374,99; 4231,325;  160,945;21684,224;18,91153
 375,59; 4219,181;  159,635;21418,913;19,09541
 376,18; 4292,096;  193,021;21403,678;19,32554
 376,77; 4271,840;  175,021;21085,997;19,59172
 377,36; 4339,030;  193,098;21072,078;19,85697
 377,95; 4324,217;  179,791;20770,557;20,12759
 378,55; 4331,440;  157,790;20539,965;20,47696
 379,14; 4405,936;  164,637;20564,566;20,79076
 379,73; 4405,355;  170,483;20364,577;20,97084
 380,32; 4498,831;  182,867;20445,975;21,29961
 380,91; 4492,981;  165,330;20277,027;21,51808
 381,50; 4586,534;  181,637;20290,182;21,90560
 382,10; 4583,523;  159,406;20190,898;22,08581
 382,69; 4628,653;  155,867;20114,568;22,41021
 383,28; 4736,152;  188,560;20055,244;22,89054
 383,87; 4691,733;  162,483;19910,528;22,93518
 384,46; 4781,180;  171,330;19836,502;23,44170
 385,05; 4856,055;  193,637;19833,439;23,73964
 385,64; 4877,446;  161,022;19814,872;23,99746
 386,24; 4938,581;  152,869;19756,098;24,41287
 386,83; 5050,099;  186,100;19744,215;24,86947
 387,42; 5121,276;  190,791;19875,815;25,04689
 388,01; 5203,130;  179,178;20018,150;25,32365
 388,60; 5311,893;  176,792;20248,923;25,58324
 389,19; 5447,907;  154,948;20518,679;25,99209
 389,78; 5604,298;  164,025;20750,651;26,42625
 390,37; 5800,185;  214,023;21186,993;26,63505
 390,96; 5935,383;  178,869;21368,206;27,16703
 391,56; 6021,872;  167,794;21459,411;27,49475
 392,15; 6129,473;  162,409;21772,680;27,61217
 392,74; 6212,999;  146,796;21948,826;27,82403
 393,33; 6393,202;  160,256;22265,505;28,19668
 393,92; 6555,527;  189,258;22553,240;28,46662
 394,51; 6718,004;  156,641;22829,766;28,93894
 395,10; 6870,860;  185,414;23114,549;29,15699
 395,69; 7008,269;  170,491;23248,411;29,62909
 396,28; 7095,848;  189,338;23335,047;29,83927
 396,87; 7205,014;  194,724;23425,208;30,17711
 397,46; 7333,384;  190,495;23585,477;30,53172
 398,06; 7423,575;  193,035;23669,499;30,79910
 398,65; 7534,637;  179,116;23892,754;31,01811
 399,24; 7691,081;  198,885;23988,985;31,49291
 399,83; 7676,668;  178,276;23940,630;31,55576
 400,42; 7878,544;  206,819;24092,641;32,11832
 401,01; 7959,691;  178,902;24273,148;32,29314
 401,60; 8070,934;  192,679;24311,313;32,66460
 402,19; 8145,737;  205,069;24262,482;33,00716
 402,78; 8205,602;  220,079;24386,919;33,04331
 403,37; 8236,275;  191,857;24237,918;33,45420
 403,96; 8210,293;  198,098;24082,316;33,54598
 404,55; 8259,905;  217,956;23963,646;33,86698
 405,14; 8302,938;  193,043;23849,033;34,28263
 405,73; 8312,540;  217,671;23709,315;34,45850
 406,32; 8367,628;  206,526;23650,839;34,81058
 406,91; 8329,462;  210,305;23438,841;34,95338
 407,50; 8364,919;  205,002;23254,443;35,40180
 408,09; 8281,070;  180,775;23033,321;35,44592
 408,68; 8356,802;  195,469;22862,291;36,00564
 409,27; 8297,464;  181,543;22610,369;36,18523
 409,86; 8309,927;  200,459;22544,737;36,29326
 410,45; 8410,984;  221,452;22443,953;36,85243
 411,04; 8402,574;  237,138;22448,357;36,76267
 411,63; 8392,078;  220,591;22151,746;37,25972
 412,22; 8386,091;  214,430;21951,430;37,59333
 412,81; 8346,748;  231,119;21704,362;37,79415
 413,40; 8296,280;  243,270;21441,770;37,98858
 413,99; 8263,116;  264,040;21081,094;38,42559
 414,58; 8057,595;  218,885;20678,324;38,31342
 415,17; 8063,740;  213,504;20453,641;38,78549
 415,76; 8041,400;  211,661;20265,794;39,04302
 416,35; 8048,131;  202,582;20074,317;39,48094
 416,94; 8091,947;  227,660;20097,464;39,57909
 417,53; 8245,233;  216,196;20200,077;40,17757
 418,12; 8270,405;  202,580;20275,076;40,19343
 418,71; 8529,829;  227,423;20627,785;40,69735
 419,30; 8548,155;  222,272;20746,353;40,56641
 419,89; 8665,888;  215,887;20936,746;40,78017
 420,48; 8898,146;  237,500;21154,960;41,40391
 421,07; 8948,982;  223,807;21303,048;41,39226
 421,66; 8966,706;  202,883;21350,228;41,44172
 422,25; 9107,696;  215,649;21401,329;41,97197
 422,84; 9118,635;  237,110;21426,490;41,91498
 423,43; 9048,405;  219,265;21156,431;42,16970
 424,02; 8983,164;  235,495;20902,596;42,32654
 424,60; 8849,572;  202,184;20473,524;42,65819
 425,19; 8732,499;  225,647;20175,271;42,64166
 425,78; 8774,828;  240,186;20022,685;43,14239
 426,37; 8689,750;  231,338;19876,821;43,05525
 426,96; 8727,666;  230,723;19783,638;43,45614
 427,55; 8647,093;  219,644;19652,922;43,36607
 428,14; 8638,937;  199,181;19444,821;43,85282
 428,73; 8535,663;  223,337;19263,012;43,65792
 429,32; 8588,096;  235,569;19202,049;44,03836
 429,91; 8630,058;  249,875;19173,334;44,28463
 430,50; 8621,743;  233,797;19094,344;44,47350
 431,08; 8510,470;  250,181;18933,791;44,21142
 431,67; 8565,350;  286,872;18905,631;44,46310
 432,26; 8506,689;  296,102;18745,246;44,50389
 432,85; 8429,656;  317,487;18395,740;44,87253
 433,44; 8227,401;  312,255;18133,559;44,41396
 434,03; 8097,816;  342,022;17695,758;44,69236
 434,62; 7978,814;  310,101;17215,162;45,36341
 435,21; 7828,917;  324,333;16992,491;45,02348
 435,79; 7836,550;  309,330;16909,247;45,34493
 436,38; 7770,306;  310,098;16758,093;45,35634
 436,97; 7757,868;  303,867;16607,577;45,71966
 437,56; 7700,903;  308,941;16465,781;45,75129
 438,15; 7663,988;  281,634;16353,092;45,93456
 438,74; 7731,986;  298,403;16405,496;46,15099
 439,33; 7727,917;  270,711;16356,282;46,35960
 439,91; 7820,359;  236,479;16410,297;46,88986
 440,50; 7844,285;  281,940;16444,821;46,78835
 441,09; 7938,350;  277,400;16525,340;47,15028
 441,68; 7932,493;  268,783;16548,389;47,07552
 442,27; 7957,433;  251,784;16509,568;47,39668
 442,86; 7942,427;  225,473;16522,899;47,35075
 443,44; 8006,238;  238,474;16566,157;47,57420
 444,03; 8095,599;  276,165;16663,942;47,71504
 444,62; 7956,736;  243,934;16586,123;47,19565
 445,21; 7959,854;  252,935;16352,093;47,87156
 445,80; 7948,380;  274,241;16328,009;47,80273
 446,39; 7852,491;  267,549;16060,943;48,02605
 446,97; 7690,622;  231,777;15859,550;47,72814
 447,56; 7605,945;  244,006;15688,833;47,66605
 448,15; 7524,382;  247,008;15457,759;47,84362
 448,74; 7475,268;  263,008;15203,685;48,27264
 449,33; 7373,296;  248,776;15094,481;47,99045
 449,91; 7263,138;  254,928;14884,349;47,90491
 450,50; 7134,283;  236,390;14632,699;47,91431
 451,09; 7130,297;  256,313;14522,392;48,18412
 451,68; 7081,487;  277,004;14475,127;47,92523
 452,26; 7035,508;  263,157;14303,420;48,23521
 452,85; 6977,128;  255,004;14205,988;48,18387
 453,44; 6952,011;  259,540;14222,480;47,93024
 454,03; 6916,743;  235,926;14222,181;47,76702
 454,61; 6923,519;  233,540;14135,743;48,12172
 455,20; 7040,113;  268,000;14327,598;48,16719
 455,79; 7053,759;  265,310;14302,277;48,36123
 456,38; 7067,369;  270,768;14375,037;48,18826
 456,97; 7089,658;  247,461;14459,903;48,14230
 457,55; 7171,881;  258,460;14465,683;48,66131
 458,14; 7170,154;  278,461;14494,376;48,47871
 458,73; 7129,467;  266,075;14408,714;48,52978
 459,31; 7116,813;  297,766;14431,468;48,24671
 459,90; 7211,929;  292,844;14493,663;48,72314
 460,49; 7297,233;  307,613;14617,511;48,84465
 461,08; 7287,661;  260,227;14620,564;48,93641
 461,66; 7312,255;  269,074;14741,348;48,66672
 462,25; 7393,182;  274,765;14849,924;48,83938
 462,84; 7439,323;  305,611;14869,211;48,98316
 463,43; 7325,771;  225,532;14858,762;48,52134
 464,01; 7405,029;  279,839;14872,707;48,82652
 464,60; 7401,432;  298,840;14842,160;48,83749
 465,19; 7250,117;  251,377;14583,580;48,83227
 465,77; 7263,522;  260,222;14606,796;48,81514
 466,36; 7222,866;  279,763;14574,813;48,56998
 466,95; 7078,734;  265,378;14237,227;48,76488
 467,53; 6919,802;  272,683;13933,693;48,65760
 468,12; 6796,910;  290,914;13652,744;48,69091
 468,71; 6624,122;  276,146;13430,328;48,25823
 469,29; 6495,813;  252,144;13139,336;48,44864
 469,88; 6372,087;  266,682;12926,338;48,22726
 470,47; 6407,523;  320,834;12918,849;48,31467
 471,06; 6353,252;  276,142;12893,327;48,16534
 471,64; 6384,404;  281,373;12979,937;48,06080
 472,23; 6353,330;  258,832;13007,110;47,80644
 472,81; 6418,279;  250,218;13114,976;47,94541
 473,40; 6454,545;  267,986;13240,975;47,68800
 473,99; 6647,271;  325,986;13445,692;48,18161
 474,57; 6611,739;  254,986;13513,881;47,94331
 475,16; 6677,389;  283,448;13680,790;47,72544
 475,75; 6757,424;  295,985;13818,814;47,78171
 476,33; 6772,187;  299,676;13907,279;47,56540
 476,92; 6834,474;  296,909;13974,870;47,79634
 477,51; 6859,405;  286,599;14099,874;47,58326
 478,09; 6866,167;  291,061;14109,999;47,58040
 478,68; 6833,793;  288,830;14023,796;47,65184
 479,27; 6845,597;  315,215;14085,166;47,42487
 479,85; 6813,544;  281,368;13996,598;47,62717
 480,44; 6835,275;  273,522;14109,383;47,42570
 481,02; 7255,197;  282,521;15040,352;47,24730
 481,61; 8238,836;  309,060;16960,272;47,62282
 482,20; 8906,976;  303,136;18418,989;47,49343
 482,78; 9355,603;  327,291;19377,022;47,39338
 483,37; 9655,885;  316,827;20002,822;47,44011
 483,95; 9854,918;  356,750;20363,482;47,47486
 484,54; 9992,943;  359,752;20595,702;47,60434
 485,13; 9882,112;  329,671;20633,139;47,04832
 485,71; 9837,562;  302,980;20348,881;47,56375
 486,30; 9756,631;  341,672;20188,775;47,43745
 486,88; 9583,058;  363,133;19891,302;47,21347
 487,47; 9293,409;  358,133;19249,214;47,29891
 488,05; 8913,004;  344,363;18461,434;47,29595
 488,64; 8322,494;  339,054;17309,615;47,04287
 489,23; 7601,746;  352,516;15703,760;47,22243
 489,81; 6335,746;  354,516;13150,773;46,74203
 490,40; 5851,180;  311,362;12205,489;46,57608
 490,98; 5682,927;  294,285;11953,332;46,21855
 491,57; 5589,280;  322,670;11732,563;46,15828
 492,15; 5571,488;  314,284;11727,361;46,06298
 492,74; 5517,109;  303,671;11646,115;45,96398
 493,32; 5503,685;  323,746;11543,241;46,16910
 493,91; 5376,271;  305,899;11490,144;45,33495
 494,50; 5399,211;  311,051;11441,741;45,71289
 495,08; 5303,584;  304,359;11304,957;45,44503
 495,67; 5332,070;  308,438;11340,728;45,53572
 496,25; 5241,501;  267,591;11205,805;45,47278
 496,84; 5196,384;  273,130;11166,841;45,19355
 497,42; 5190,178;  262,283;11075,222;45,57405
 498,01; 5197,177;  305,745;11128,401;45,19622
 498,59; 5116,917;  249,744;11004,100;45,25769
 499,18; 5095,659;  256,822;11018,053;44,96546
 499,76; 5088,664;  280,821;10932,366;45,13752
 500,35; 4970,625;  273,281;10723,427;44,95003
 500,93; 4968,680;  269,283;10654,821;45,24944
 501,52; 4879,831;  269,129;10614,694;44,56694
 502,10; 4908,244;  269,281;10616,285;44,83388
 502,69; 4831,048;  257,664;10453,796;44,85410
 503,27; 4738,862;  241,974;10276,758;44,81301
 503,86; 4703,382;  252,357;10235,548;44,58520
 504,44; 4597,733;  248,126;10108,781;44,11073
 505,03; 4467,750;  236,126; 9868,908;43,92941
 505,61; 4463,580;  234,587; 9763,068;44,38266
 506,19; 4386,594;  258,741; 9651,530;43,94705
 506,78; 4299,290;  232,201; 9479,953;43,97922
 507,36; 4193,781;  251,357; 9286,946;43,63218
 507,95; 4127,837;  249,200; 9146,084;43,59545
 508,53; 4045,264;  237,432; 9044,650;43,23535
 509,12; 3993,036;  251,893; 8852,802;43,49707
 509,70; 3904,592;  266,893; 8712,712;43,07101
 510,29; 3825,311;  269,046; 8581,502;42,78237
 510,87; 3730,614;  246,278; 8374,779;42,86566
 511,46; 3666,006;  238,893; 8224,590;42,91564
 512,04; 3583,154;  251,739; 8077,734;42,56859
 512,62; 3507,152;  261,201; 7960,177;42,16082
 513,21; 3406,501;  226,892; 7788,365;42,05013
 513,79; 3342,807;  247,505; 7638,547;41,87910
 514,38; 3242,334;  220,121; 7479,199;41,63356
 514,96; 3227,219;  269,198; 7369,881;41,65826
 515,54; 3136,753;  235,275; 7277,389;41,20181
 516,13; 3116,227;  245,890; 7174,012;41,43023
 516,71; 3020,328;  241,043; 7042,984;40,86018
 517,30; 2946,597;  229,503; 6925,173;40,57986
 517,88; 2942,134;  267,965; 6837,488;40,70567
 518,46; 2861,708;  242,042; 6709,210;40,50716
 519,05; 2849,101;  243,502; 6677,957;40,49447
 519,63; 2824,332;  246,657; 6593,944;40,61065
 520,22; 2796,478;  255,040; 6529,659;40,50346
 520,80; 2723,268;  248,117; 6459,927;39,84589
 521,38; 2746,489;  268,887; 6475,789;39,91688
 521,97; 2684,122;  242,808; 6411,135;39,57821
 522,55; 2665,532;  246,424; 6397,907;39,32561
 523,13; 2685,040;  245,115; 6349,413;39,97061
 523,72; 2641,399;  250,042; 6333,987;39,30603
 524,30; 2718,543;  267,038; 6475,268;39,48799
 524,89; 2679,681;  235,424; 6475,171;39,17237
 525,47; 2727,790;  260,884; 6593,415;38,95608
 526,05; 2742,666;  231,807; 6667,627;39,01381
 526,64; 2772,821;  261,729; 6744,633;38,73406
 527,22; 2837,088;  258,730; 6923,624;38,68565
 527,80; 2885,768;  288,268; 7049,642;38,41674
 528,39; 2886,080;  247,883; 7124,865;38,36272
 528,97; 2933,295;  246,498; 7290,410;38,14354
 529,55; 3006,613;  260,269; 7517,821;37,84119
 530,14; 3076,149;  273,113; 7733,311;37,57322
 530,72; 3114,595;  251,575; 7806,535;37,89590
 531,30; 3166,170;  240,036; 7949,347;37,95584
 531,89; 3190,905;  243,190; 8060,554;37,70727
 532,47; 3264,460;  285,882; 8193,540;37,66701
 533,05; 3267,160;  279,729; 8276,056;37,36004
 533,63; 3264,542;  283,036; 8348,519;36,96625
 534,22; 3243,748;  247,112; 8375,286;36,86727
 534,80; 3284,243;  282,496; 8404,433;36,95851
 535,38; 3344,319;  322,728; 8535,996;36,78914
 535,97; 3252,179;  267,574; 8477,382;36,35414
 536,55; 3286,357;  320,111; 8568,904;35,95976
 537,13; 3276,040;  322,421; 8487,202;36,17511
 537,71; 3264,711;  358,113; 8523,551;35,59636
 538,30; 3275,013;  391,112; 8644,246;34,94310
 538,88; 3279,573;  413,957; 8682,565;34,65657
 539,46; 3340,960;  468,419; 8886,589;34,12310
 540,05; 3348,205;  494,572; 9053,679;33,34031
 540,63; 3414,326;  539,957; 9234,648;33,05890
 541,21; 3437,042;  559,956; 9382,760;32,60965
 541,79; 3484,238;  613,880; 9523,505;32,21638
 542,38; 3559,646;  647,034; 9641,720;32,38148
 542,96; 3594,147;  650,879; 9843,390;32,01811
 543,54; 3651,039;  672,418;10010,159;31,89873
 544,12; 3647,533;  649,726;10193,280;31,41186
 544,70; 3690,585;  620,648;10278,150;31,78811
 545,29; 3743,733;  633,034;10494,357;31,54443
 545,87; 3719,392;  591,187;10505,428;31,55264
 546,45; 3728,029;  556,880;10536,496;31,77626
 547,03; 3743,905;  543,803;10577,875;31,89236
 547,62; 3763,668;  517,187;10757,852;31,70186
 548,20; 3825,683;  496,571;10926,865;31,91772
 548,78; 3812,913;  484,261;10996,873;31,66341
 549,36; 3856,275;  440,954;11236,228;31,63719
 549,94; 3889,171;  398,725;11380,386;31,78431
 550,53; 3958,925;  407,108;11622,701;31,66856
 551,11; 4003,093;  379,876;11786,112;31,76523
 551,69; 4081,752;  379,185;12101,132;31,58663
 552,27; 4140,760;  341,493;12354,289;31,62683
 552,85; 4254,486;  359,261;12791,756;31,33100
 553,44; 4343,589;  341,185;13065,187;31,45554
 554,02; 4440,478;  358,108;13463,714;31,14980
 554,60; 4488,558;  302,184;13792,329;31,03283
 555,18; 4633,164;  330,108;14250,743;30,91135
 555,76; 4727,187;  313,031;14592,996;30,91154
 556,34; 4815,637;  316,491;15034,886;30,56818
 556,93; 4924,183;  307,108;15418,478;30,55365
 557,51; 5009,971;  296,645;15808,650;30,38502
 558,09; 5117,131;  319,185;16208,481;30,19609
 558,67; 5217,875;  311,413;16605,017;30,11281
 559,25; 5278,516;  326,029;16858,468;29,95618
 559,83; 5383,794;  304,874;17220,141;30,02565
 560,41; 5439,169;  295,184;17658,299;29,62594
 561,00; 5550,295;  305,644;17964,349;29,70009
 561,58; 5579,535;  305,184;18198,794;29,47617
 562,16; 5672,145;  291,107;18535,033;29,49496
 562,74; 5752,914;  274,415;18920,020;29,38225
 563,32; 5817,879;  278,182;19425,170;28,93247
 563,90; 5942,970;  298,721;19734,376;29,04069
 564,48; 5966,547;  310,107;20128,558;28,54128
 565,06; 6149,274;  290,644;20677,928;28,73669
 565,65; 6325,818;  295,797;21411,651;28,55684
 566,23; 6544,193;  353,644;22074,577;28,50038
 566,81; 6666,908;  290,106;22813,189;28,31230
 567,39; 6913,979;  312,413;23749,654;28,16700
 567,97; 7098,879;  317,798;24445,760;28,10466
 568,55; 7289,894;  312,721;25282,074;27,94295
 569,13; 7426,527;  300,875;25985,573;27,74279
 569,71; 7632,461;  298,800;26976,138;27,49023
 570,29; 7896,558;  340,646;27965,534;27,35183
 570,87; 8034,763;  332,800;28807,390;27,04855
 571,45; 8223,276;  317,644;29504,075;27,08667
 572,03; 8243,497;  271,182;29935,400;26,87519
 572,61; 8401,885;  278,567;30658,437;26,73915
 573,20; 8551,571;  313,876;31279,977;26,60230
 573,78; 8650,358;  300,336;32070,451;26,28263
 574,36; 8786,719;  303,490;32659,967;26,21802
 574,94; 8891,939;  350,028;32969,530;26,18652
 575,52; 8821,218;  322,257;33286,439;25,78241
 576,10; 8996,744;  372,181;33829,419;25,77787
 576,68; 9043,215;  356,028;34304,094;25,58964
 577,26; 9206,146;  376,718;34970,970;25,52282
 577,84; 9238,251;  374,259;35561,855;25,19067
 578,42; 9333,631;  397,797;35907,543;25,16446
 579,00; 9310,375;  367,336;36066,117;25,05138
 579,58; 9315,717;  394,951;36358,705;24,80488
 580,16; 9247,482;  386,258;36366,522;24,62801
 580,74; 9260,339;  393,027;36608,613;24,48480
 581,32; 9247,713;  385,489;36676,432;24,41993
 581,90; 9186,242;  404,104;36700,500;24,19562
 582,48; 9136,576;  394,796;36762,572;24,03716
 583,06; 9169,300;  408,489;36882,136;24,01956
 583,64; 9113,366;  407,412;37150,429;23,69417
 584,22; 9051,746;  409,103;37069,976;23,57457
 584,80; 8934,504;  424,950;36926,307;23,31298
 585,38; 8817,558;  430,491;36498,816;23,25328
 585,96; 8754,918;  400,028;36510,096;23,13729
 586,54; 8738,809;  417,411;36434,899;23,10377
 587,12; 8662,917;  384,873;36671,924;22,81267
 587,70; 8743,006;  411,336;36772,495;22,91365
 588,28; 8620,617;  398,335;36987,799;22,47172
 588,86; 8666,564;  411,411;37134,744;22,47931
 589,44; 8565,213;  381,487;37139,135;22,26401
 590,02; 8621,828;  378,718;37355,737;22,29252
 590,59; 8631,569;  354,488;37591,492;22,22811
 591,17; 8633,477;  357,101;37811,448;22,09724
 591,75; 8630,935;  359,025;37960,898;21,99866
 592,33; 8618,712;  371,871;38254,145;21,76966
 592,91; 8632,588;  326,101;38606,306;21,69917
 593,49; 8622,758;  333,947;38912,389;21,48560
 594,07; 8635,671;  341,716;39061,906;21,42023
 594,65; 8607,179;  357,642;39133,911;21,27471
 595,23; 8640,245;  347,718;39574,230;21,14011
 595,81; 8635,040;  350,795;39762,091;21,01998
 596,39; 8620,401;  349,871;39896,005;20,91362
 596,97; 8591,784;  337,178;40114,666;20,75195
 597,55; 8518,358;  327,026;39943,849;20,67640
 598,12; 8443,552;  316,254;40022,096;20,46877
 598,70; 8418,312;  316,870;40076,357;20,37612
 599,28; 8444,210;  339,024;40361,354;20,25166
 599,86; 8358,908;  330,793;40412,698;20,02928
 600,44; 8339,387;  300,024;40495,453;20,00069
 601,02; 8302,666;  350,099;40514,998;19,79979
 601,60; 8282,098;  330,640;40527,074;19,78150
 602,18; 8227,345;  303,946;40587,644;19,66900
 602,75; 8161,413;  305,564;40724,692;19,43597
 603,33; 8088,398;  325,947;40591,378;19,27820
 603,91; 8018,634;  316,792;40690,319;19,07647
 604,49; 7996,554;  325,639;40747,602;18,97710
 605,07; 7955,481;  334,871;40763,081;18,84973
 605,65; 7868,442;  344,485;40908,668;18,54828
 606,23; 7881,573;  405,950;41020,458;18,40629
 606,80; 7793,687;  452,256;41017,360;18,09790
 607,38; 7762,902;  493,638;41115,470;17,89497
 607,96; 7759,293;  546,795;41162,646;17,75784
 608,54; 7720,100;  594,101;41212,721;17,54368
 609,12; 7652,508;  616,641;41306,666;17,29138
 609,70; 7628,847;  644,793;41349,678;17,15778
 610,27; 7603,905;  652,641;41295,814;17,10315
 610,85; 7577,521;  660,024;41419,558;16,97148
 611,43; 7530,141;  677,178;41371,614;16,84005
 612,01; 7394,136;  640,871;41203,148;16,64913
 612,59; 7376,291;  630,947;41214,166;16,62102
 613,16; 7313,473;  606,026;41170,539;16,53526
 613,74; 7239,142;  579,024;40990,914;16,48059
 614,32; 7268,700;  540,408;41042,971;16,61201
 614,90; 7174,666;  490,178;40866,286;16,55555
 615,48; 7046,760;  452,487;40559,746;16,44159
 616,05; 7037,862;  410,180;40471,966;16,54365
 616,63; 6963,272;  401,104;40363,494;16,42086
 617,21; 6925,811;  399,718;40268,994;16,36873
 617,79; 6870,778;  387,333;40142,361;16,30849
 618,36; 6788,677;  397,486;40069,057;16,11025
 618,94; 6648,746;  336,410;39771,528;16,00689
 619,52; 6603,865;  365,642;39429,093;15,96946
 620,10; 6551,671;  354,487;39491,226;15,83470
 620,67; 6515,708;  361,873;39350,492;15,78367
 621,25; 6438,312;  372,409;39161,485;15,63817
 621,83; 6353,686;  354,641;39088,347;15,48792
 622,41; 6405,437;  391,026;39125,842;15,52714
 622,98; 6277,647;  364,642;38758,549;15,40089
 623,56; 6220,788;  365,181;38884,157;15,20188
 624,14; 6110,116;  355,409;38728,291;14,99681
 624,72; 6055,771;  341,718;38649,914;14,91601
 625,29; 6080,917;  316,104;38666,309;15,03203
 625,87; 6013,658;  360,641;38532,616;14,80934
 626,45; 5962,578;  314,873;38446,873;14,81093
 627,02; 5898,806;  335,256;38280,118;14,66220
 627,60; 5842,455;  309,331;38281,586;14,57149
 628,18; 5792,431;  300,795;38338,973;14,43717
 628,76; 5758,120;  310,488;38379,025;14,31006
 629,33; 5752,294;  323,334;38358,690;14,27346
 629,91; 5707,979;  314,718;38329,687;14,18720
 630,49; 5733,699;  344,488;38449,637;14,14300
 631,06; 5703,994;  329,411;38535,475;14,06736
 631,64; 5635,358;  330,488;38571,503;13,87220
 632,22; 5619,884;  289,335;38453,021;13,96759
 632,79; 5626,166;  314,489;38673,557;13,84725
 633,37; 5618,239;  297,563;38843,835;13,80335
 633,95; 5602,611;  304,873;38879,750;13,73365
 634,52; 5574,300;  282,103;38992,354;13,67131
 635,10; 5599,975;  293,872;39015,394;13,70324
 635,68; 5575,978;  298,643;39256,610;13,54623
 636,25; 5557,361;  287,567;39194,822;13,54450
 636,83; 5539,427;  278,027;39495,718;13,41589
 637,41; 5542,229;  282,258;39440,479;13,43261
 637,98; 5579,022;  311,182;39708,412;13,37109
 638,56; 5554,662;  313,182;39881,850;13,24654
 639,13; 5537,415;  288,334;39933,633;13,24011
 639,71; 5560,003;  304,950;40086,266;13,20985
 640,29; 5434,708;  256,796;39748,763;13,11130
 640,86; 5475,654;  264,949;40035,288;13,10199
 641,44; 5418,370;  279,949;40050,505;12,92016
 642,02; 5421,394;  299,488;40076,798;12,87645
 642,59; 5403,417;  274,949;40148,861;12,86171
 643,17; 5386,364;  281,334;40262,617;12,76855
 643,74; 5397,080;  280,180;40240,603;12,80492
 644,32; 5357,180;  297,872;40196,974;12,68026
 644,89; 5361,665;  294,641;40164,421;12,70893
 645,47; 5326,689;  303,641;40245,177;12,57600
 646,05; 5307,559;  290,411;40090,932;12,60573
 646,62; 5241,582;  289,641;40109,995;12,43570
 647,20; 5248,067;  289,718;40289,058;12,39608
 647,77; 5238,476;  265,487;40197,967;12,45349
 648,35; 5160,576;  256,026;40034,107;12,32978
 648,92; 5173,907;  298,949;40081,786;12,25392
 649,50; 5116,162;  255,026;40013,310;12,22672
 650,08; 5100,493;  261,410;39907,450;12,20571
 650,65; 5094,363;  262,333;40059,590;12,14161
 651,23; 5094,848;  243,564;40483,499;12,05589
 651,80; 5196,948;  258,179;41612,870;11,94246
 652,38; 5261,433;  261,872;42032,164;11,96918
 652,95; 5264,072;  233,256;42436,227;11,92053
 653,53; 5290,942;  276,564;42747,752;11,80654
 654,10; 5328,273;  289,718;42884,815;11,82896
 654,68; 5242,758;  250,641;42776,185;11,73910
 655,25; 5259,936;  264,872;42974,018;11,69554
 655,83; 5255,805;  245,179;43005,004;11,71807
 656,40; 5254,675;  284,795;42952,990;11,64774
 656,98; 5211,006;  253,179;42933,591;11,61617
 657,55; 5177,415;  261,410;42895,270;11,53075
 658,13; 5142,438;  252,641;42493,410;11,57601
 658,70; 5085,154;  269,102;42348,011;11,44529
 659,28; 5005,716;  260,640;41591,459;11,48072
 659,85; 4855,432;  256,948;40543,599;11,41441
 660,43; 4864,302;  275,948;40407,508;11,43328
 661,00; 4860,941;  262,486;40634,879;11,39010
 661,58; 4856,195;  249,794;40897,480;11,33250
 662,15; 4849,526;  239,333;41179,928;11,26069
 662,73; 4930,781;  299,948;41449,453;11,25368
 663,30; 4894,496;  268,563;41664,977;11,17472
 663,88; 4891,289;  270,948;41892,886;11,10074
 664,45; 4921,928;  255,486;42090,257;11,15446
 665,03; 4974,490;  264,717;42455,705;11,16298
 665,60; 5056,898;  312,102;42942,152;11,13017
 666,17; 4988,076;  271,255;43090,446;11,01567
 666,75; 5017,484;  261,025;43340,663;11,04108
 667,32; 5088,507;  289,948;43719,188;11,04915
 667,90; 5074,916;  266,101;43996,712;10,99645
 668,47; 5137,862;  294,640;44317,698;11,00156
 669,05; 5170,809;  269,486;44670,762;11,03870
 669,62; 5141,140;  245,178;44863,671;10,97294
 670,19; 5148,087;  254,794;44851,888;10,97222
 670,77; 5148,341;  265,793;45132,643;10,88231
 671,34; 5173,596;  268,793;45023,860;10,95921
 671,92; 5222,773;  253,947;45300,846;11,03034
 672,49; 5198,489;  269,947;45421,294;10,91560
 673,06; 5176,435;  224,024;45433,818;10,95429
 673,64; 5161,074;  255,947;45416,958;10,86142
 674,21; 5148,713;  237,255;45450,021;10,86299
 674,79; 5224,045;  262,255;45639,007;10,93465
 675,36; 5263,991;  276,947;45766,840;10,96297
 675,93; 5191,938;  253,332;45623,903;10,88504
 676,51; 5215,346;  281,870;45858,427;10,82459
 677,08; 5217,908;  268,101;45891,952;10,84917
 677,65; 5239,470;  263,947;45995,707;10,87980
 678,23; 5271,801;  268,485;46231,924;10,88543
 678,80; 5257,979;  257,101;46384,987;10,84133
 679,38; 5327,387;  241,639;46510,358;10,99176
 679,95; 5363,487;  267,485;46653,959;10,98597
 680,52; 5368,203;  250,639;47027,638;10,94034
 681,10; 5429,842;  270,331;47363,778;10,95590
 681,67; 5487,097;  272,562;47716,918;10,99084
 682,24; 5475,889;  236,254;47830,289;11,00902
 682,82; 5560,913;  250,716;48266,736;11,05922
 683,39; 5637,398;  279,331;48759,338;11,05212
 683,96; 5629,652;  243,869;48931,478;11,06192
 684,54; 5656,907;  237,408;49218,233;11,06453
 685,11; 5730,007;  268,254;49710,835;11,04666
 685,68; 5765,569;  255,023;50123,975;11,05005
 686,25; 5774,977;  242,254;50130,576;11,09022
 686,83; 5836,539;  243,715;50379,947;11,15525
 687,40; 5855,717;  228,023;50759,471;11,13701
 687,97; 5931,125;  276,331;51175,073;11,10989
 688,55; 5897,687;  237,869;51281,367;11,08822
 689,12; 5923,864;  225,254;51495,045;11,11495
 689,69; 5964,888;  232,023;51621,339;11,15575
 690,26; 6027,988;  242,869;51610,787;11,26213
 690,84; 6061,166;  241,946;51917,080;11,26116
 691,41; 6071,189;  250,638;51948,759;11,25873
 691,98; 6088,982;  256,561;52306,822;11,20536
 692,56; 6122,083;  235,253;52441,270;11,27615
 693,13; 6178,106;  294,869;52495,871;11,27035
 693,70; 6146,745;  274,176;52639,396;11,21464
 694,27; 6182,000;  250,715;52769,689;11,29360
 694,84; 6164,946;  243,561;52835,829;11,25904
 695,42; 6297,662;  284,023;52996,892;11,40829
 695,99; 6293,609;  250,099;53277,263;11,39701
 696,56; 6339,171;  243,099;53121,557;11,52846
 697,13; 6402,425;  264,022;53431,082;11,54550
 697,71; 6410,064;  219,638;53449,529;11,62961
 698,28; 6436,395;  251,253;53810,515;11,54822
 698,85; 6470,496;  218,330;53892,809;11,64830
 699,42; 6476,750;  225,715;54085,718;11,60608
 699,99; 6553,081;  265,253;54175,781;11,66345
 700,57; 6579,336;  265,868;54237,845;11,69768
 701,14; 6571,359;  245,176;54338,754;11,69489
 701,71; 6647,998;  249,330;54598,124;11,77334
 702,28; 6663,714;  256,407;54509,418;11,81005
 702,85; 6680,968;  258,484;54701,327;11,79675
 703,43; 6730,530;  273,714;54993,775;11,79972
 704,00; 6801,477;  279,483;55230,223;11,86880
 704,57; 6747,962;  259,791;55148,209;11,82066
 705,14; 6857,678;  288,330;55447,580;11,90979
 705,71; 6888,548;  304,483;55488,950;11,93101
 706,28; 6901,648;  265,714;55340,706;12,04891
 706,86; 6951,903;  295,252;55697,307;12,01517
 707,43; 7018,926;  310,022;55571,909;12,14020
 708,00; 7012,950;  290,252;55628,818;12,14830
 708,57; 7026,666;  268,098;55526,881;12,23076
 709,14; 7091,535;  293,791;55719,329;12,26464
 709,71; 7112,943;  276,560;55778,853;12,31730
 710,28; 7171,044;  279,637;56054,301;12,35580
 710,86; 7201,760;  291,175;56245,287;12,35045
 711,43; 7303,629;  290,406;56174,812;12,54952
 712,00; 7336,653;  274,637;56266,490;12,61258
 712,57; 7387,369;  275,791;56451,861;12,65944
 713,14; 7408,392;  262,252;56564,847;12,69238
 713,71; 7483,339;  270,021;56355,602;12,86127
 714,28; 7473,132;  257,560;56496,742;12,83015
 714,85; 7501,925;  242,790;56285,498;12,95286
 715,42; 7561,717;  253,098;56570,330;12,97759
 716,00; 7683,818;  284,329;56620,008;13,13464
 716,57; 7657,457;  247,636;56825,918;13,09658
 717,14; 7640,019;  228,329;56662,134;13,13342
 717,71; 7703,966;  227,636;56615,659;13,25872
 718,28; 7817,066;  255,405;56809,337;13,37071
 718,85; 7794,397;  227,252;56777,554;13,38126
 719,42; 7912,421;  251,790;56956,925;13,50959
 719,99; 7862,675;  222,405;56871,680;13,48697
 720,56; 7982,468;  244,328;57079,282;13,61511
 721,13; 8056,338;  243,867;57071,037;13,74777
 721,70; 8050,131;  235,405;56982,716;13,77109
 722,27; 8133,000;  254,867;57061,317;13,86838
 722,84; 8205,178;  280,867;57280,842;13,90231
 723,41; 8197,894;  234,251;57128,136;13,99736
 723,98; 8239,379;  241,328;57476,276;13,97407
 724,55; 8316,710;  262,328;57525,877;14,06546
 725,12; 8335,118;  207,636;57460,709;14,19571
 725,69; 8441,911;  237,020;57676,772;14,28434
 726,27; 8442,088;  233,020;57737,989;14,27541
 726,84; 8590,035;  240,636;58096,668;14,43134
 727,41; 8603,751;  251,251;57917,039;14,48432
 727,98; 8714,544;  263,020;58335,717;14,55335
 728,55; 8797,567;  283,020;58212,549;14,69811
 729,12; 8768,052;  230,328;58427,843;14,67026
 729,69; 8890,922;  268,559;58545,983;14,79537
 730,26; 8979,484;  275,251;58827,046;14,86587
 730,82; 8947,661;  245,712;58534,955;14,92891
 731,39; 9004,839;  244,097;58687,249;14,99019
 731,96; 9168,555;  238,866;58878,312;15,22813
 732,53; 9224,424;  269,251;59284,914;15,17423
 733,10; 9278,679;  270,558;59342,284;15,24946
 733,67; 9386,933;  277,097;59617,578;15,35181
 734,24; 9378,110;  258,020;59095,872;15,50038
 734,81; 9455,749;  285,097;59304,397;15,53840
 735,38; 9418,158;  263,097;59005,075;15,58521
 735,95; 9446,412;  264,789;58936,215;15,64922
 736,52; 9560,974;  280,096;59168,663;15,76007
 737,09; 9558,844;  276,635;58809,033;15,85824
 737,66; 9632,944;  316,712;59152,712;15,83424
 738,23; 9698,198;  248,866;59120,159;16,05083
 738,80; 9859,145;  294,635;59379,761;16,18768
 739,37; 9878,015;  293,866;59598,824;16,16079
 739,94; 9917,038;  277,865;59713,887;16,21773
 740,51;10076,062;  326,250;59698,258;16,42156
 741,07;10026,470;  267,865;59637,475;16,43704
 741,64;10163,801;  288,404;59815,307;16,58981
 742,21;10229,671;  274,096;59962,755;16,67917
 742,78;10212,541;  246,327;59720,818;16,75712
 743,35;10325,872;  261,634;60063,265;16,82937
 743,92;10428,126;  301,942;60219,098;16,90031
 744,49;10475,227;  279,250;60013,084;17,06901
 745,06;10524,712;  268,250;60047,301;17,15729
 745,63;10520,966;  252,865;60047,902;17,17216
 746,19;10578,528;  258,942;59949,811;17,28838
 746,76;10666,706;  272,557;60104,413;17,37226
 747,33;10696,345;  253,865;60042,937;17,46553
 747,90;10759,676;  273,173;60244,770;17,48578
 748,47;10815,623;  286,096;60168,371;17,58371
 749,04;10900,492;  282,942;60151,204;17,73486
 749,61;11010,670;  291,480;60108,882;17,91985
 750,17;11001,847;  278,634;60286,176;17,86978
 750,74;11052,948;  284,557;60067,470;18,01249
 751,31;11071,971;  257,634;59969,763;18,11079
 751,88;11050,995;  244,788;59851,903;18,12906
 752,45;11135,172;  272,480;59977,505;18,19393
 753,02;11208,888;  267,557;59914,414;18,34352
 753,58;11226,065;  256,403;59677,939;18,46075
 754,15;11340,012;  268,326;59703,463;18,62818
 754,72;11306,959;  247,172;59566,834;18,64439
 755,29;11390,905;  243,634;59412,436;18,83978
 755,86;11442,698;  261,480;59606,268;18,84111
 756,42;11529,029;  268,710;59348,946;19,05937
 756,99;11542,284;  222,864;59379,317;19,13472
 757,56;11600,692;  245,787;59345,226;19,21322
 758,13;11576,023;  201,480;59297,366;19,24761
 758,70;11781,201;  227,326;59328,045;19,54947
 759,26;11824,455;  219,787;59508,569;19,57313
 759,83;11909,478;  217,249;59608,171;19,68690
 760,40;11906,733;  215,556;59569,618;19,69735
 760,97;11896,449;  191,941;59507,374;19,73265
 761,53;11932,241;  167,787;59097,206;19,96364
 762,10;11973,650;  188,864;59006,731;20,03606
 762,67;12077,904;  215,556;58978,563;20,18676
 763,24;12067,312;  171,864;58655,010;20,33996
 763,80;12144,720;  215,941;58695,920;20,39806
 764,37;12145,128;  221,633;58724,444;20,38106
 764,94;12095,537;  202,479;58223,661;20,49779
 765,50;12269,252;  200,941;58188,109;20,81204
 766,07;12296,122;  250,941;58312,403;20,74557
 766,64;12309,223;  222,402;57961,389;20,93355
 767,21;12325,477;  218,479;57850,759;21,00732
 767,77;12334,808;  245,017;57809,284;21,00225
 768,34;12392,755;  254,633;57720,039;21,12249
 768,91;12382,394;  249,171;57490,872;21,19648
 769,47;12461,648;  242,094;57610,550;21,30013
 770,04;12544,979;  264,094;57447,998;21,47612
 770,61;12550,695;  238,556;57207,445;21,61204
 771,18;12578,104;  229,017;57093,432;21,71672
 771,74;12686,127;  251,786;57403,264;21,75681
 772,31;12689,612;  254,632;57036,096;21,89972
 772,88;12680,405;  219,555;56781,313;22,03052
 773,44;12722,198;  231,325;56535,915;22,18447
 774,01;12814,298;  242,017;56679,516;22,27647
 774,58;12791,783;  224,786;56336,041;22,39657
 775,14;12929,345;  214,171;56509,181;22,58668
 775,71;12952,600;  233,863;56373,936;22,65536
 776,27;13073,469;  273,632;56323,307;22,83660
 776,84;13127,878;  278,171;56319,216;22,92910
 777,41;13071,747;  255,324;56158,587;22,92607
 777,97;13148,925;  248,324;55869,034;23,19388
 778,54;13163,025;  248,632;55862,944;23,22135
 779,11;13254,280;  258,170;55932,391;23,34314
 779,67;13260,303;  230,093;55868,993;23,41924
 780,24;13314,250;  253,863;55591,825;23,60113
 780,80;13312,119;  263,401;55479,273;23,63219
 781,37;13385,451;  252,939;55529,951;23,75764
 781,94;13352,243;  254,862;55312,629;23,78843
 782,50;13393,729;  256,170;55101,000;23,95405
 783,07;13395,598;  272,401;55288,525;23,85337
 783,63;13385,083;  230,247;55059,588;23,99233
 784,20;13475,876;  255,478;55068,112;24,11925
 784,77;13410,361;  249,401;54868,560;24,09587
 785,33;13433,693;  226,170;54638,085;24,27322
 785,90;13444,793;  246,554;54549,609;24,30478
 786,46;13480,124;  265,939;54460,518;24,38285
 787,03;13427,686;  237,016;54258,582;24,41742
 787,59;13421,864;  245,708;54143,568;24,44653
 788,16;13432,810;  241,785;54108,708;24,48817
 788,73;13579,219;  245,400;54001,078;24,80448
 789,29;13427,242;  241,631;53561,988;24,72904
 789,86;13629,804;  246,016;53556,281;25,10546
 790,42;13607,289;  255,093;53430,575;25,10969
 790,99;13555,082;  254,246;53023,484;25,20566
 791,55;13619,029;  236,016;53114,009;25,30923
 792,12;13728,745;  259,092;53020,149;25,52953
 792,68;13677,153;  239,939;52791,366;25,56965
 793,25;13704,330;  247,015;52456,275;25,77572
 793,81;13768,969;  277,400;52162,646;26,00271
 794,38;13624,993;  221,708;51920,940;25,92550
 794,94;13702,555;  227,323;51778,464;26,13954
 795,51;13727,040;  243,708;51502,220;26,30457
 796,07;13702,602;  253,015;51154,283;26,42289
 796,64;13856,164;  272,477;51359,653;26,58923
 797,20;13792,418;  240,938;50841,024;26,78154
 797,77;13738,519;  231,246;50515,472;26,86185
 798,33;13764,465;  230,861;50318,612;27,01979
 798,90;13812,181;  267,554;50350,290;27,04450
 799,46;13772,051;  243,092;49905,892;27,24164
 800,03;13804,305;  251,246;49702,570;27,40687
 800,59;13846,175;  264,246;49447,556;27,61491
 801,15;13786,968;  256,169;49249,696;27,61752
 801,72;13767,530;  253,246;48855,452;27,80591
 802,28;13765,399;  285,707;48559,976;27,92314
 802,85;13790,423;  252,861;48411,885;28,11013
 803,41;13721,062;  252,553;48186,025;28,09834
 803,98;13658,701;  238,861;47748,858;28,24635
 804,54;13631,494;  241,938;47473,921;28,34849
 805,11;13643,902;  251,168;47388,676;28,41205
 805,67;13682,925;  264,322;47262,739;28,55118
 806,23;13626,411;  257,015;46777,571;28,73868
 806,80;13721,665;  271,091;46658,327;28,99628
 807,36;13719,688;  276,399;46582,928;29,03109
 807,93;13661,327;  277,322;46312,914;29,07317
 808,49;13640,197;  234,784;45881,900;29,36749
 809,05;13635,067;  223,399;45730,810;29,47139
 809,62;13627,090;  256,707;45606,565;29,48275
 810,18;13723,575;  257,399;45514,320;29,75495
 810,74;13693,599;  234,322;45219,614;29,91928
 811,31;13675,930;  232,553;44936,677;30,07190
 811,87;13716,108;  234,860;44874,894;30,19990
 812,44;13835,131;  272,783;44842,726;30,42936
 813,00;13743,386;  212,168;44537,251;30,52722
 813,56;13857,025;  244,552;44600,699;30,68903
 814,13;13829,587;  239,937;44506,223;30,69977
 814,69;13814,610;  247,860;44407,440;30,72210
 815,25;13685,403;  219,245;43855,965;30,85969
 815,82;13835,888;  256,783;43796,335;31,18798
 816,38;13847,296;  262,783;43605,706;31,34194
 816,94;13784,858;  220,245;43263,154;31,51417
 817,51;13719,805;  215,629;43108,832;31,48325
 818,07;13707,751;  223,091;42865,588;31,62259
 818,63;13721,467;  240,398;42571,497;31,84673
 819,20;13759,337;  235,398;42559,791;31,95306
 819,76;13666,745;  223,552;42053,854;32,13745
 820,32;13674,384;  272,244;42024,378;32,09929
 820,89;13634,562;  255,167;41769,980;32,22800
 821,45;13555,354;  234,475;41470,120;32,30428
 822,01;13613,532;  249,629;41212,490;32,62444
 822,57;13601,402;  259,783;41085,092;32,67977
 823,14;13554,040;  225,475;40882,693;32,78278
 823,70;13425,987;  218,706;40583,218;32,72003
 824,26;13398,088;  228,936;40340,127;32,83161
 824,82;13383,650;  252,552;40181,883;32,88585
 825,39;13318,135;  227,859;39873,023;33,01859
 825,95;13397,235;  256,398;39937,778;33,11588
 826,51;13202,105;  249,552;39501,918;32,99815
 827,08;13292,513;  270,244;39705,827;33,02162
 827,64;13252,229;  260,936;39398,275;33,19411
 828,20;13155,637;  233,859;39124,799;33,22568
 828,76;13178,276;  245,474;39040,478;33,33626
 829,32;13195,453;  254,321;38899,233;33,48729
 829,89;13136,939;  212,321;38687,604;33,59200
 830,45;13216,039;  229,936;38682,359;33,77187
 831,01;13173,370;  221,936;38457,576;33,87268
 831,57;13247,625;  234,628;38340,178;34,14987
 832,14;13171,956;  231,167;38418,087;33,88802
 832,70;13152,595;  232,705;38101,304;34,11769
 833,26;13199,157;  220,320;37979,213;34,37293
 833,82;13207,565;  230,705;37849,122;34,49603
 834,38;13277,127;  225,320;37884,954;34,65729
 834,95;13208,766;  213,936;37765,633;34,60517
 835,51;13232,713;  192,166;37620,619;34,84127
 836,07;13319,967;  232,859;37709,990;34,92025
 836,63;13408,606;  244,320;37710,437;35,13651
 837,19;13421,630;  231,782;37494,116;35,39727
 837,75;13354,115;  204,012;37174,563;35,56913
 838,32;13483,830;  244,935;37201,473;35,82288
 838,88;13491,700;  252,320;37381,074;35,65802
 839,44;13468,493;  237,243;37208,445;35,78799
 840,00;13538,747;  233,551;37106,585;36,08381
 840,56;13461,386;  210,089;36842,340;36,17385
 841,12;13489,102;  211,474;36801,326;36,28773
 841,68;13505,587;  209,012;36654,851;36,48311
 842,25;13608,534;  217,320;36602,222;36,80432
 842,81;13543,557;  215,012;36276,054;36,96107
 843,37;13574,273;  205,704;36358,963;36,97749
 843,93;13589,605;  223,320;36140,565;37,21412
 844,49;13701,244;  230,396;36145,859;37,50710
 845,05;13642,190;  204,089;36008,460;37,53201
 845,61;13741,675;  240,858;36106,831;37,64241
 846,17;13728,776;  225,781;35977,586;37,76871
 846,73;13736,261;  228,396;35902,495;37,86463
 847,29;13746,054;  204,012;35749,866;38,09739
 847,86;13765,693;  213,242;35627,083;38,26880
 848,42;13661,485;  204,858;35443,531;38,18710
 848,98;13682,894;  219,704;35396,055;38,27341
 849,54;13692,071;  211,242;35299,195;38,42011
 850,10;13762,787;  226,627;35297,489;38,59660
 850,66;13719,195;  202,088;35152,090;38,67555
 851,22;13701,526;  196,627;35074,461;38,72058
 851,78;13805,319;  250,242;35120,447;38,87295
 852,34;13771,343;  227,011;34792,126;39,18497
 852,90;13793,905;  210,165;34638,420;39,45521
 853,46;13716,313;  207,703;34422,483;39,48180
 854,02;13776,183;  222,473;34570,776;39,45962
 854,58;13701,206;  206,550;34248,070;39,64176
 855,14;13779,691;  188,088;34113,672;40,06299
 855,70;13719,561;  181,088;34010,119;40,02028
 856,26;13762,046;  230,857;33985,413;40,08700
 856,82;13786,608;  211,011;33795,476;40,42225
 857,38;13794,170;  232,780;33755,001;40,45493
 857,94;13787,655;  223,318;33563,141;40,68509
 858,50;13838,756;  227,472;33468,435;40,94732
 859,06;13822,010;  212,857;33216,113;41,23579
 859,62;13891,341;  238,165;33200,638;41,42037
 860,18;13893,211;  211,703;32975,239;41,75834
 860,74;13837,004;  191,164;32877,995;41,74721
 861,30;13784,412;  198,703;32637,750;41,88073
 861,86;13903,743;  234,241;32729,967;42,06554
 862,42;13835,228;  211,241;32530,722;42,15410
 862,98;13846,329;  233,549;32460,324;42,24059
 863,54;13780,506;  232,703;32223,233;42,34942
 864,10;13912,607;  218,780;32280,296;42,71110
 864,66;13831,707;  197,164;32030,436;42,83111
 865,22;13825,885;  218,395;31993,114;42,82489
 865,78;13803,062;  226,164;31765,024;43,04816
 866,34;13844,239;  217,549;31711,471;43,26768
 866,90;13806,648;  224,010;31595,842;43,29565
 867,45;13736,979;  234,779;31383,982;43,34685
 868,01;13812,464;  225,010;31204,122;43,86005
 868,57;13727,103;  220,856;30995,954;43,88693
 869,13;13711,588;  209,933;30903,633;43,98836
 869,69;13615,535;  210,702;30762,849;43,87525
 870,25;13659,097;  195,010;30629,220;44,23997
 870,81;13595,428;  223,625;30592,745;44,03092
 871,37;13639,682;  225,087;30508,423;44,29695
 871,93;13620,552;  240,317;30317,409;44,48646
 872,49;13621,268;  224,779;30062,395;44,89799
 873,04;13541,137;  209,471;29764,382;45,10813
 873,60;13580,238;  195,702;29773,906;45,25135
 874,16;13577,492;  228,471;29725,815;45,25499
 874,72;13620,108;  209,394;29565,508;45,68286
 875,28;13607,031;  227,240;29508,892;45,69343
 875,84;13632,954;  215,625;29468,508;45,86669
 876,40;13637,262;  221,163;29483,277;45,84801
 876,95;13655,108;  228,779;29318,585;46,15476
 877,51;13713,569;  241,625;29324,046;46,32332
 878,07;13758,492;  256,240;29308,892;46,47511
 878,63;13808,569;  221,702;29386,123;46,58713
 879,19;13805,877;  236,317;29306,892;46,67799
 879,75;13895,031;  231,317;29315,585;46,97974
 880,30;14013,185;  218,010;29349,738;47,35447
 880,86;14146,031;  260,933;29409,200;47,63610
 881,42;14183,108;  217,240;29516,585;47,66614
 881,98;14281,723;  230,702;29638,585;47,77978
 882,54;14417,262;  214,394;29673,585;48,21201
 883,09;14557,723;  239,779;29802,200;48,43292
 883,65;14605,723;  208,317;29926,815;48,44594
 884,21;14735,185;  241,702;30083,892;48,56709
 884,77;14805,877;  218,471;30170,277;48,70293
 885,32;15008,262;  213,240;30367,662;49,06419
 885,88;15134,954;  256,702;30528,354;49,14912
 886,44;15204,877;  226,394;30561,277;49,37709
 887,00;15201,262;  239,856;30602,200;49,27619
 887,56;15417,031;  223,163;30764,969;49,74777
 888,11;15426,723;  210,317;30778,815;49,77806
 888,67;15592,723;  252,317;31034,662;49,83508
 889,23;15555,646;  237,471;31000,738;49,79372
 889,79;15544,800;  212,702;30827,354;50,08092
 890,34;15598,646;  218,702;30761,738;50,35499
 890,90;15656,262;  276,702;31002,738;50,05383
 891,46;15629,723;  214,625;30871,892;50,28204
 892,01;15707,492;  241,317;30809,123;50,59629
 892,57;15721,569;  249,317;30782,046;50,67432
 893,13;15615,108;  211,471;30613,508;50,66646
 893,69;15676,877;  211,548;30430,200;51,17809
 894,24;15613,338;  224,471;30329,738;51,11686
 894,80;15641,262;  227,702;30158,200;51,49784
 895,36;15604,031;  225,394;30082,200;51,50798
 895,91;15443,108;  223,856;29868,815;51,33841
 896,47;15491,954;  225,548;29737,815;51,72902
 897,03;15384,954;  215,394;29583,431;51,65330
 897,58;15431,954;  230,087;29458,969;52,00974
 898,14;15374,108;  234,163;29259,354;52,16140
 898,70;15220,415;  203,548;29083,277;51,99795
 899,25;15312,877;  218,240;29094,815;52,27295
 899,81;15275,492;  238,702;28850,123;52,55520
 900,37;15139,723;  202,471;28737,200;52,34762
 900,92;15191,185;  223,317;28698,892;52,56388
 901,48;15075,108;  218,087;28523,277;52,48868
 902,03;15050,415;  210,010;28373,277;52,69419
 902,59;15043,800;  215,394;28163,969;53,05604
 903,15;14908,646;  235,317;28146,277;52,57193
 903,70;14902,338;  234,163;27831,431;53,15082
 904,26;14841,031;  207,010;27701,046;53,22616
 904,82;14872,415;  216,856;27670,200;53,38351
 905,37;14859,723;  218,010;27592,354;53,48699
 905,93;14770,338;  218,625;27372,892;53,58905
 906,48;14843,338;  227,548;27292,123;54,00340
 907,04;14822,954;  232,317;27288,046;53,92809
 907,60;14757,954;  207,010;26962,738;54,38441
 908,15;14767,646;  206,087;26884,431;54,58195
 908,71;14800,108;  240,087;26822,508;54,77312
 909,26;14735,877;  211,471;26718,431;54,79469
 909,82;14792,723;  234,625;26520,431;55,38388
 910,37;14794,492;  255,010;26494,738;55,41019
 910,93;14684,723;  204,702;26271,815;55,54900
 911,48;14626,646;  205,933;26016,431;55,87150
 912,04;14605,415;  208,779;25987,969;55,84596
 912,60;14772,569;  217,779;25989,431;56,47597
 913,15;14712,031;  222,548;25880,969;56,47067
 913,71;14587,185;  204,702;25663,738;56,49264
 914,26;14604,723;  196,548;25538,354;56,85536
 914,82;14620,492;  218,317;25452,431;57,07423
 915,37;14655,877;  205,779;25397,431;57,36066
 915,93;14585,338;  239,010;25291,969;57,26401
 916,48;14566,646;  205,394;25086,431;57,71967
 917,04;14532,262;  228,702;25025,585;57,68289
 917,59;14524,954;  237,010;24963,046;57,78502
 918,15;14448,262;  187,548;24694,738;58,18992
 918,70;14496,492;  216,163;24653,738;58,43595
 919,26;14405,723;  216,702;24573,815;58,25412
 919,81;14376,415;  205,856;24446,277;58,45839
 920,37;14405,723;  212,625;24303,200;58,91556
 920,92;14343,185;  234,010;24199,200;58,87362
 921,48;14241,492;  203,317;23943,046;59,13368
 922,03;14264,800;  214,471;23948,123;59,20003
 922,59;14271,800;  201,779;23805,892;59,60834
 923,14;14191,800;  198,240;23665,046;59,63129
 923,69;14174,877;  228,625;23581,354;59,72001
 924,25;14198,800;  232,779;23595,508;59,77907
 924,80;14108,954;  216,087;23307,585;60,16443
 925,36;14043,415;  209,163;23299,892;59,91258
 925,91;14029,338;  211,856;23093,892;60,38572
 926,47;14027,262;  187,625;23053,046;60,52649
 927,02;14066,954;  232,010;22928,046;60,95753
 927,57;13941,800;  217,933;22757,200;60,88870
 928,13;13951,415;  203,625;22745,738;60,98714
 928,68;13975,569;  208,702;22598,431;61,48742
 929,24;13890,108;  185,163;22383,046;61,73987
 929,79;13843,338;  199,471;22287,200;61,77125
 930,34;13796,877;  209,163;22196,123;61,79896
 930,90;13794,415;  195,548;22095,815;62,09453
 931,45;13789,108;  212,394;22056,738;62,15208
 932,01;13792,954;  218,394;21929,354;62,52400
 932,56;13694,031;  227,779;21786,969;62,46177
 933,11;13750,262;  226,471;21769,662;62,77524
 933,67;13604,492;  203,240;21552,585;62,77126
 934,22;13737,723;  212,087;21467,354;63,63428
 934,77;13577,262;  226,163;21440,046;62,93566
 935,33;13546,646;  223,779;21228,431;63,42817
 935,88;13569,492;  215,317;21155,200;63,77388
 936,43;13535,800;  197,394;21104,200;63,79935
 936,99;13511,492;  212,394;20907,277;64,26274
 937,54;13388,723;  194,010;20763,431;64,14723
 938,09;13435,954;  214,394;20733,123;64,43654
 938,65;13406,954;  213,779;20592,354;64,74042
 939,20;13359,415;  194,163;20559,354;64,64586
 939,75;13332,646;  198,163;20358,200;65,15109
 940,31;13346,492;  182,087;20308,969;65,40708
 940,86;13305,877;  219,702;20218,046;65,43629
 941,41;13310,646;  256,394;20175,354;65,53682
 941,96;13184,415;  203,471;20056,662;65,38468
 942,52;13194,569;  214,394;20002,738;65,59505
 943,07;13112,646;  190,163;19846,431;65,74230
 943,62;13074,569;  202,240;19760,585;65,81502
 944,18;13121,031;  196,548;19663,969;66,39032
 944,73;13013,031;  207,087;19558,046;66,17731
 945,28;12944,569;  181,702;19285,046;66,80960
 945,83;13016,800;  199,240;19313,662;67,05701
 946,39;12968,338;  202,856;19304,508;66,82921
 946,94;12861,646;  230,548;19179,123;66,65988
 947,49;12834,646;  200,163;19056,277;67,00470
 948,04;12882,108;  219,010;19013,508;67,37662
 948,59;12860,262;  227,317;18957,354;67,44752
 949,15;12843,185;  188,394;18849,277;67,81453
 949,70;12725,723;  194,933;18773,738;67,44669
 950,25;12660,031;  226,779;18670,892;67,41041
 950,80;12659,800;  171,625;18547,046;67,96130
 951,36;12569,031;  177,010;18350,046;68,18905
 951,91;12630,877;  223,087;18425,200;68,16676
 952,46;12500,492;  183,933;18200,738;68,36151
 953,01;12580,492;  222,856;18321,277;68,28019
 953,56;12453,415;  177,702;18106,662;68,46863
 954,11;12399,492;  216,087;18032,892;68,38154
 954,67;12361,338;  198,779;17954,969;68,49757
 955,22;12264,338;  180,779;17802,431;68,57223
 955,77;12337,877;  221,625;17822,969;68,83708
 956,32;12272,185;  243,010;17689,354;68,94955
 956,87;12151,338;  188,702;17499,585;69,10472
 957,42;12194,338;  204,471;17490,123;69,36312
 957,98;12161,646;  195,240;17383,354;69,62024
 958,53;12103,031;  222,471;17341,969;69,39783
 959,08;12081,262;  194,163;17226,815;69,79006
 959,63;12049,877;  192,087;17128,123;70,01514
 960,18;12089,338;  215,163;17113,277;70,26923
 960,73;12024,185;  205,010;17021,277;70,28418
 961,28;11914,723;  186,933;16850,815;70,37850
 961,83;11932,108;  213,087;16829,277;70,52773
 962,39;11894,108;  189,856;16719,508;70,80761
 962,94;11826,031;  223,317;16656,815;70,60404
 963,49;11743,031;  203,087;16471,662;70,93396
 964,04;11773,492;  215,317;16481,508;71,05644
 964,59;11766,723;  180,087;16306,892;71,84706
 965,14;11688,723;  213,471;16273,200;71,45358
 965,69;11642,569;  204,702;16118,046;71,87595
 966,24;11586,108;  208,548;16067,354;71,74285
 966,79;11545,338;  213,856;15941,662;72,04745
 967,34;11490,031;  178,087;15834,046;72,25328
 967,89;11522,569;  189,317;15766,508;72,75543
 968,44;11454,415;  211,394;15739,123;72,40609
 968,99;11385,800;  212,163;15617,277;72,53200
 969,55;11361,569;  209,856;15543,585;72,72669
 970,10;11326,569;  210,625;15387,354;73,24335
 970,65;11245,415;  214,933;15328,815;72,98246
 971,20;11223,108;  203,471;15221,892;73,37413
 971,75;11134,108;  189,548;15016,892;73,81335
 972,30;11089,723;  202,779;14988,354;73,63220
 972,85;11045,877;  203,548;14955,662;73,49678
 973,40;10913,800;  195,702;14768,354;73,54940
 973,95;10896,338;  206,779;14719,200;73,65800
 974,50;10940,415;  223,394;14604,046;74,52389
 975,05;10825,338;  220,779;14528,277;74,11890
 975,60;10813,877;  225,779;14499,892;74,17692
 976,15;10763,569;  215,394;14385,815;74,43798
 976,70;10697,338;  213,163;14295,585;74,44867
 977,25;10712,646;  208,779;14246,431;74,82638
 977,80;10582,185;  199,933;14070,969;74,84842
 978,35;10509,262;  215,163;13921,200;75,10631
 978,89;10480,031;  196,010;13858,892;75,26978
 979,44;10430,877;  205,317;13801,046;75,21156
 979,99;10285,877;  193,625;13576,815;75,40991
 980,54;10264,646;  235,779;13537,431;75,39565
 981,09;10191,185;  218,779;13386,431;75,73412
 981,64;10117,031;  216,471;13246,123;75,98484
 982,19;10134,954;  248,240;13218,815;76,22417
 982,74;10032,262;  226,702;13068,892;76,35426
 983,29; 9922,800;  195,240;12960,431;76,20380
 983,84; 9912,646;  212,856;12819,046;76,94466
 984,39; 9857,262;  247,471;12780,277;76,67709
 984,94; 9727,569;  190,471;12605,277;76,82036
 985,49; 9713,569;  229,010;12594,200;76,70371
 986,03; 9683,723;  240,856;12523,431;76,88019
 986,58; 9538,877;  246,240;12336,354;76,86145
 987,13; 9430,646;  218,240;12182,662;76,99834
 987,68; 9390,954;  230,163;12091,585;77,23181
 988,23; 9321,031;  229,933;12044,508;76,94816
 988,78; 9221,262;  214,317;11896,508;77,09979
 989,33; 9131,569;  228,471;11790,969;76,99978
 989,88; 9149,877;  235,394;11768,508;77,29468
 990,42; 8986,569;  219,625;11560,354;77,30495
 990,97; 8882,031;  216,856;11451,354;77,13006
 991,52; 8869,800;  239,779;11399,585;77,33128
 992,07; 8801,569;  244,394;11279,277;77,54659
 992,62; 8690,800;  230,163;11193,431;77,17258
 993,17; 8609,877;  230,471;11045,662;77,47812
 993,71; 8582,262;  222,471;10962,046;77,84098
 994,26; 8458,646;  199,471;10790,431;77,98325
 994,81; 8423,108;  232,779;10751,969;77,86083
 995,36; 8328,262;  218,702;10593,046;78,16937
 995,91; 8236,492;  223,317;10579,277;77,37743
 996,45; 8199,338;  228,548;10423,046;78,18718
 997,00; 8114,492;  199,471;10229,431;78,91379
 997,55; 8095,569;  216,702;10290,815;78,20904
 998,10; 7970,031;  247,317;10106,662;78,32888
 998,65; 7954,877;  218,779;10045,662;78,72383
 999,19; 7849,262;  237,317; 9846,277;79,21715
 999,74; 7801,569;  252,779; 9788,892;79,16003
1000,29; 7722,954;  227,933; 9701,815;79,11245
1000,84; 7654,185;  216,317; 9565,969;79,55234
1001,38; 7565,723;  220,702; 9439,508;79,67432
1001,93; 7521,185;  237,087; 9388,585;79,59460
1002,48; 7417,031;  203,087; 9251,662;79,72464
1003,03; 7384,185;  221,856; 9196,969;79,80210
1003,57; 7345,031;  231,087; 9100,738;80,20545
1004,12; 7290,262;  245,010; 8986,123;80,59902
1004,67; 7171,262;  214,779; 8895,277;80,13921
1005,22; 7055,492;  210,933; 8746,969;80,18428
1005,76; 7007,646;  205,548; 8598,431;81,04603
1006,31; 7032,646;  242,625; 8582,508;81,41627
1006,86; 6916,646;  211,010; 8482,738;81,06693
1007,40; 6786,646;  196,471; 8278,046;81,54568
1007,95; 6722,646;  215,163; 8231,277;81,18002
1008,50; 6633,185;  218,933; 8077,508;81,62106
1009,04; 6600,569;  225,625; 8005,123;81,94544
1009,59; 6502,185;  231,625; 7830,585;82,51866
1010,14; 6432,415;  211,471; 7737,277;82,66150
1010,68; 6323,492;  219,087; 7635,585;82,30847
1011,23; 6230,954;  200,548; 7480,662;82,83395
1011,78; 6204,492;  229,856; 7416,508;83,13519
1012,32; 6074,415;  217,240; 7308,738;82,59433
1012,87; 6066,185;  244,933; 7266,738;82,90249
1013,42; 5993,262;  209,240; 7137,046;83,48994
1013,96; 6004,877;  242,163; 7109,815;83,91097
1014,51; 5899,031;  195,779; 6996,431;83,86331
1015,06; 5931,108;  196,471; 7019,431;84,04911
1015,60; 6008,646;  260,702; 7074,738;84,35447
1016,15; 5950,646;  215,394; 7027,354;84,19386
1016,69; 6016,031;  210,702; 7032,892;85,09479
1017,24; 5996,646;  201,625; 7041,277;84,72684
1017,79; 6093,569;  236,625; 7133,046;84,92730
1018,33; 6096,185;  196,856; 7086,431;85,62689
1018,88; 6202,723;  217,856; 7119,123;86,72128
1019,42; 6196,262;  221,625; 7189,431;85,74631
1019,97; 6180,646;  212,010; 7144,431;86,09743
1020,51; 6274,415;  216,317; 7204,585;86,68956
1021,06; 6222,108;  211,240; 7194,277;86,07813
1021,61; 6238,646;  190,087; 7111,277;87,39190
1022,15; 6176,800;  171,856; 7116,969;86,46287
1022,70; 6207,262;  215,856; 7101,815;87,00902
1023,24; 6182,492;  204,548; 7089,123;86,83098
1023,79; 6139,185;  220,163; 7016,892;87,08632
1024,33; 6105,415;  218,087; 7014,508;86,62396
1024,88; 6027,415;  219,240; 6898,200;86,96227
1025,42; 5967,108;  201,779; 6767,585;87,80840
1025,97; 5908,954;  203,933; 6709,815;87,69019
1026,51; 5802,262;  173,087; 6576,123;87,91415
1027,06; 5755,877;  209,317; 6514,508;87,96815
1027,60; 5640,262;  207,702; 6401,508;87,70956
1028,15; 5593,954;  221,087; 6325,200;88,02044
1028,69; 5437,108;  174,317; 6191,277;87,46594
1029,24; 5438,800;  207,933; 6127,738;88,36214
1029,78; 5342,185;  205,779; 6030,892;88,17692
1030,33; 5234,031;  177,933; 5875,969;88,73404
1030,87; 5178,415;  206,471; 5843,354;88,20379
1031,42; 5139,338;  194,933; 5743,123;89,11745
1031,96; 5057,262;  212,317; 5674,431;88,70091
1032,51; 4981,415;  199,317; 5561,277;89,18564
1033,05; 4947,569;  208,163; 5559,431;88,56604
1033,60; 4818,800;  174,933; 5420,508;88,52923
1034,14; 4824,415;  199,933; 5322,815;90,27110
1034,69; 4760,723;  199,317; 5278,585;89,80440
1035,23; 4710,954;  204,702; 5203,662;90,14380
1035,77; 4610,877;  196,087; 5102,969;89,97139
1036,32; 4527,262;  180,779; 5061,277;89,05818
1036,86; 4524,800;  198,163; 5007,200;89,96888
1037,41; 4462,877;  204,625; 4916,046;90,38147
1037,95; 4394,800;  183,933; 4840,200;90,43440
1038,50; 4364,723;  196,240; 4790,200;90,73834
1039,04; 4288,492;  203,779; 4734,585;90,15424
1039,58; 4224,415;  192,010; 4634,892;90,76102
1040,13; 4193,262;  201,471; 4572,431;91,32526
1040,67; 4161,108;  223,394; 4554,431;90,91850
1041,21; 4093,031;  228,317; 4467,892;91,15804
1041,76; 3982,569;  176,471; 4386,431;90,40700
1042,30; 3966,185;  210,471; 4333,738;91,08586
1042,85; 3889,800;  207,856; 4276,046;90,50570
1043,39; 3853,185;  190,010; 4189,123;91,59968
1043,93; 3822,492;  217,394; 4146,431;91,75527
1044,48; 3761,031;  205,548; 4087,123;91,59897
1045,02; 3698,569;  202,856; 4031,046;91,31504
1045,56; 3702,031;  210,548; 3970,969;92,84818
1046,11; 3639,185;  210,394; 3918,277;92,47300
1046,65; 3579,800;  208,779; 3887,123;91,64507
1047,19; 3528,185;  198,779; 3772,354;93,16737
1047,74; 3492,954;  182,856; 3709,354;93,86360
1048,28; 3431,185;  210,779; 3699,123;92,31904
1048,82; 3410,800;  222,625; 3665,508;92,60191
1049,37; 3380,185;  205,240; 3596,738;93,61480
1049,91; 3320,338;  197,548; 3556,892;92,95833
1050,45; 3314,877;  228,317; 3497,738;94,40691
1050,99; 3226,108;  207,856; 3457,277;92,88583
1051,54; 3183,492;  196,933; 3406,969;93,03818
1052,08; 3185,646;  215,010; 3390,508;93,54868
1052,62; 3146,800;  221,548; 3324,277;94,27997
1053,16; 3071,415;  192,702; 3260,046;93,85036
1053,71; 3031,338;  215,856; 3214,123;93,90366
1054,25; 3007,108;  223,779; 3169,892;94,47460
1054,79; 2982,031;  211,933; 3115,354;95,40807
1055,33; 2888,646;  183,163; 3065,123;93,87650
1055,88; 2862,492;  227,317; 3055,123;93,18798
1056,42; 2846,492;  234,702; 3005,662;94,25581
1056,96; 2804,338;  221,240; 2946,508;94,78329
1057,50; 2783,877;  201,240; 2901,738;95,63556
1058,05; 2729,415;  212,625; 2862,354;94,98294
1058,59; 2707,569;  228,163; 2863,431;94,08555
1059,13; 2612,800;  196,163; 2778,892;93,56912
1059,67; 2619,954;  229,163; 2767,354;94,19271
1060,21; 2576,492;  218,240; 2707,815;94,72508
1060,76; 2531,723;  221,779; 2650,815;95,09714
1061,30; 2514,800;  232,010; 2631,815;95,12396
1061,84; 2458,877;  211,471; 2589,585;94,50372
1062,38; 2445,185;  205,317; 2537,738;96,03186
1062,92; 2456,723;  243,317; 2551,277;95,90314
1063,46; 2365,031;  229,933; 2483,585;94,73948
1064,01; 2339,108;  208,317; 2434,892;95,69812
1064,55; 2319,031;  217,163; 2405,431;96,05167
1065,09; 2271,338;  186,779; 2359,815;95,92842
1065,63; 2300,492;  232,471; 2386,508;96,00678
1066,17; 2241,569;  234,010; 2342,508;95,21278
1066,71; 2193,569;  230,087; 2316,969;94,08687
1067,25; 2189,338;  212,471; 2262,969;96,40913
1067,80; 2204,338;  233,163; 2246,123;97,92422
1068,34; 2160,338;  237,471; 2246,585;95,70725
1068,88; 2102,031;  213,087; 2162,431;96,90152
1069,42; 2094,954;  248,779; 2180,585;95,56732
1069,96; 2064,646;  218,625; 2115,738;97,30684
1070,50; 2060,031;  245,317; 2124,123;96,58867
1071,04; 2004,800;  212,394; 2064,354;96,78428
1071,58; 1962,569;  221,548; 2029,123;96,31806
1072,12; 1969,877;  212,625; 2019,892;97,23254
1072,66; 1934,185;  211,240; 1998,354;96,40934
1073,21; 1922,415;  230,163; 2000,738;95,57640
1073,75; 1899,954;  223,163; 1961,585;96,45478
1074,29; 1877,800;  230,087; 1930,277;96,91347
1074,83; 1894,569;  228,163; 1910,046;99,07979
1075,37; 1846,954;  226,856; 1907,508;96,39700
1075,91; 1836,877;  233,240; 1899,738;96,22793
1076,45; 1825,108;  229,317; 1849,662;98,48465
1076,99; 1771,569;  222,933; 1827,431;96,51844
1077,53; 1752,954;  207,625; 1766,200;99,15011
1078,07; 1746,108;  232,933; 1774,738;98,14304
1078,61; 1731,031;  223,087; 1751,123;98,68509
1079,15; 1690,569;  220,548; 1742,431;96,59228
1079,69; 1679,877;  234,933; 1710,200;97,94457
1080,23; 1677,415;  232,240; 1702,046;98,32422
1080,77; 1692,415;  252,240; 1702,354;99,31464
1081,31; 1617,262;  217,240; 1635,969;98,68138
1081,85; 1643,262;  233,240; 1652,508;99,34853
1082,39; 1610,646;  221,394; 1597,354;100,96604
1082,93; 1607,108;  216,010; 1611,892;99,65723
1083,47; 1566,569;  207,625; 1568,123;99,88579
1084,01; 1550,031;  236,625; 1576,046;98,05771
1084,55; 1516,492;  216,163; 1516,738;99,98107
1085,09; 1538,954;  227,317; 1543,277;99,67149
1085,63; 1509,646;  219,394; 1525,662;98,77396
1086,17; 1469,338;  213,394; 1487,892;98,54422
1086,71; 1469,877;  214,087; 1471,277;99,88864
1087,24; 1473,800;  237,625; 1468,662;100,41741
1087,78; 1457,877;  235,702; 1460,662;99,77268
1088,32; 1390,723;  221,548; 1420,662;97,50328
1088,86; 1415,262;  241,702; 1424,508;99,21829
1089,40; 1384,415;  226,779; 1386,431;99,82621
1089,94; 1346,415;  193,702; 1343,815;100,22606
1090,48; 1343,646;  233,779; 1347,969;99,61200
1091,02; 1356,415;  229,933; 1353,431;100,26565
1091,56; 1339,492;  238,702; 1347,277;99,29778
1092,10; 1295,185;  207,240; 1278,892;101,52030
1092,63; 1337,569;  235,317; 1306,662;102,88495
1093,17; 1308,646;  223,625; 1280,969;102,61759
1093,71; 1281,569;  211,548; 1279,815;100,16418
1094,25; 1293,492;  246,010; 1260,662;103,23567
1094,79; 1238,492;  223,163; 1235,123;100,33294
1095,33; 1217,646;  229,394; 1229,585;98,80638
1095,87; 1219,877;  223,471; 1204,508;101,56663
1096,40; 1199,108;  200,548; 1177,277;102,23509
1096,94; 1210,262;  220,087; 1190,508;102,03560
1097,48; 1191,338;  224,240; 1172,354;102,00236
1098,02; 1173,954;  222,087; 1139,277;103,78078
1098,56; 1127,723;  200,548; 1117,354;101,13102
1099,10; 1131,723;  202,933; 1101,892;103,31837
1099,63; 1114,569;  211,933; 1091,969;102,56808
1100,17; 1137,338;  228,471; 1098,431;104,47236
1100,71; 1111,492;  240,779; 1111,508;99,99823

