
Integration time [ms]: 115,000
Averaging Nr. [scans]: 13
Smoothing Nr. [pixels]: 0
Data measured with spectrometer [name]: 2009305U1
Wave   ;Sample   ;Dark     ;Reference;Reflectance
[nm]   ;[counts] ;[counts] ;[counts] ;[%]

 175,72;  211,785;  176,239;  216,377;88,55753
 176,32;  225,905;  211,934;  220,629;160,67326
 176,92;  255,069;  225,163;  254,806;100,88804
 177,52;  255,963;  252,086;  276,497;15,88424
 178,12;  240,503;  223,549;  229,646;278,05144
 178,72;  269,142;  243,857;  246,426;984,25885
 179,32;  260,739;  236,780;  245,502;274,69726
 179,92;  257,342;  232,933;  243,184;238,10412
 180,52;  253,189;  234,084;  251,849;107,54520
 181,12;  265,666;  235,010;  258,040;133,10971
 181,73;  277,205;  253,163;  272,610;123,62788
 182,33;  372,758;  298,008;  354,611;132,06089
 182,93;  265,222;  245,240;  267,679;89,04798
 183,53;  238,226;  227,319;  231,255;277,12731
 184,13;  241,874;  231,011;  230,121; 0,00000
 184,73;  288,396;  249,935;  276,206;146,40137
 185,33;  259,378;  222,716;  348,805;29,07640
 185,93;  273,832;  214,717;  380,479;35,66251
 186,53;  284,884;  241,332;  381,727;31,02117
 187,13;  317,166;  264,099;  406,630;37,23179
 187,73;  281,191;  220,102;  379,098;38,42167
 188,33;  283,320;  227,718;  376,187;37,45042
 188,93;  289,772;  231,182;  389,757;36,94787
 189,53;  295,530;  240,799;  389,798;36,73246
 190,13;  339,651;  271,649;  443,566;39,55551
 190,73;  274,187;  217,185;  377,425;35,57310
 191,34;  307,924;  254,183;  413,712;33,68720
 191,94;  274,877;  227,565;  367,514;33,80662
 192,54;  287,116;  237,868;  406,065;29,28003
 193,14;  282,753;  248,715;  393,108;23,57296
 193,74;  291,809;  249,561;  386,677;30,81180
 194,34;  275,524;  235,099;  379,479;27,99923
 194,94;  256,242;  206,792;  347,521;35,13822
 195,54;  237,809;  196,177;  321,772;33,14802
 196,14;  259,887;  218,484;  355,903;30,12922
 196,74;  250,576;  211,331;  351,478;28,00261
 197,34;  235,183;  187,252;  345,540;30,28102
 197,94;  271,471;  225,715;  362,779;33,38303
 198,54;  273,336;  217,484;  389,006;32,56278
 199,14;  252,571;  197,636;  381,096;29,94407
 199,74;  249,313;  198,097;  381,375;27,94433
 200,34;  227,736;  186,097;  382,635;21,18618
 200,94;  277,686;  223,637;  421,823;27,27195
 201,54;  260,114;  202,328;  428,459;25,55417
 202,14;  287,927;  211,635;  474,923;28,97656
 202,74;  263,254;  204,328;  476,128;21,67994
 203,34;  249,999;  195,558;  479,311;19,18623
 203,94;  234,328;  163,635;  500,548;20,98251
 204,54;  299,450;  228,869;  592,022;19,43578
 205,14;  262,021;  199,405;  597,661;15,72241
 205,74;  321,208;  218,481;  690,215;21,77652
 206,34;  295,327;  197,405;  690,439;19,86109
 206,94;  296,931;  203,328;  773,362;16,42065
 207,54;  288,575;  180,251;  804,961;17,33997
 208,14;  306,832;  195,097;  861,786;16,75973
 208,74;  328,269;  194,559;  953,337;17,62180
 209,34;  327,206;  193,636; 1030,265;15,96528
 209,94;  349,556;  202,328; 1148,580;15,55909
 210,54;  354,240;  198,866; 1237,375;14,96126
 211,14;  378,150;  209,174; 1365,714;14,61042
 211,73;  370,366;  201,175; 1462,293;13,41594
 212,33;  404,175;  218,791; 1597,159;13,44955
 212,93;  403,786;  196,636; 1668,394;14,07499
 213,53;  371,165;  181,790; 1767,846;11,94000
 214,13;  408,594;  176,403; 1856,152;13,82293
 214,73;  401,542;  178,481; 1880,384;13,10656
 215,33;  376,633;  156,405; 1915,118;12,52212
 215,93;  423,315;  188,327; 2037,402;12,70842
 216,53;  395,444;  142,559; 2075,324;13,08409
 217,13;  458,969;  210,866; 2307,296;11,83457
 217,73;  454,799;  181,250; 2505,729;11,76817
 218,33;  435,377;  162,403; 2685,388;10,81947
 218,93;  506,431;  172,632; 2992,680;11,83662
 219,53;  532,041;  174,942; 3296,897;11,43834
 220,13;  542,225;  151,557; 3577,759;11,40238
 220,73;  600,655;  167,405; 3938,368;11,48911
 221,32;  665,808;  178,251; 4361,644;11,65457
 221,92;  726,449;  192,249; 4765,641;11,68061
 222,52;  767,550;  172,558; 5220,516;11,78679
 223,12;  833,160;  167,481; 5680,122;12,07551
 223,72;  917,132;  185,019; 6134,170;12,30618
 224,32;  978,459;  176,865; 6553,184;12,57142
 224,92; 1011,588;  175,404; 6818,083;12,58806
 225,52; 1111,904;  188,020; 7246,795;13,08844
 226,12; 1157,215;  182,327; 7519,659;13,28668
 226,72; 1216,030;  155,174; 7864,594;13,76052
 227,31; 1278,390;  151,251; 8241,262;13,93248
 227,91; 1399,183;  174,405; 8608,273;14,52214
 228,51; 1476,702;  177,790; 9061,833;14,62073
 229,11; 1580,894;  166,020; 9428,961;15,27457
 229,71; 1660,019;  168,175; 9795,860;15,49536
 230,31; 1731,465;  163,326;10145,637;15,70917
 230,91; 1856,130;  163,483;10541,858;16,30936
 231,51; 1958,697;  147,173;10894,551;16,85550
 232,10; 2059,171;  152,172;11267,104;17,15708
 232,70; 2203,294;  167,484;11505,325;17,95589
 233,30; 2298,936;  192,789;11856,258;18,05764
 233,90; 2406,142;  163,789;12037,003;18,88582
 234,50; 2473,762;  175,558;12250,655;19,03259
 235,10; 2590,127;  157,404;12347,468;19,95661
 235,70; 2694,582;  192,020;12458,020;20,40243
 236,29; 2771,312;  182,251;12486,574;21,04188
 236,89; 2806,007;  165,022;12367,077;21,64378
 237,49; 2924,049;  177,173;12382,301;22,50591
 238,09; 2941,634;  176,789;12207,055;22,98241
 238,69; 3013,244;  193,099;12025,720;23,83365
 239,29; 2957,233;  168,328;11806,275;23,96389
 239,89; 3013,186;  178,791;11452,563;25,14150
 240,48; 2906,687;  173,635;11111,338;24,98743
 241,08; 2879,214;  163,097;10762,261;25,62577
 241,68; 2891,053;  198,558;10511,432;26,10809
 242,28; 2794,262;  162,404;10160,933;26,32245
 242,88; 2782,259;  190,480; 9825,661;26,89911
 243,48; 2736,538;  192,250; 9558,253;27,16514
 244,07; 2674,004;  186,482; 9286,172;27,33634
 244,67; 2663,316;  188,943; 9134,113;27,66155
 245,27; 2613,981;  182,329; 8936,369;27,77749
 245,87; 2594,396;  184,096; 8853,728;27,80164
 246,47; 2532,467;  172,329; 8804,009;27,34275
 247,06; 2498,067;  169,097; 8795,610;26,99782
 247,66; 2498,730;  170,943; 8817,762;26,92074
 248,26; 2518,241;  208,559; 8992,584;26,29411
 248,86; 2531,874;  189,559; 9141,797;26,16457
 249,46; 2484,648;  150,789; 9313,349;25,47169
 250,05; 2560,126;  191,405; 9693,550;24,92828
 250,65; 2550,734;  158,636;10006,744;24,28992
 251,25; 2609,435;  179,713;10412,907;23,74354
 251,85; 2677,918;  182,329;11056,103;22,95053
 252,44; 2677,245;  147,251;11624,928;22,04273
 253,04; 2809,117;  180,559;12334,676;21,62689
 253,64; 2792,090;  144,175;12999,837;20,59726
 254,24; 2939,231;  186,559;13928,194;20,03162
 254,84; 2987,878;  175,712;14774,119;19,26352
 255,43; 3035,587;  178,713;15718,690;18,38403
 256,03; 3117,161;  163,329;16666,213;17,89889
 256,63; 3178,752;  176,868;17718,668;17,11275
 257,23; 3207,171;  165,098;18500,507;16,59124
 257,82; 3256,126;  177,022;19474,686;15,95584
 258,42; 3215,496;  132,484;20270,264;15,30959
 259,02; 3274,440;  174,636;21174,808;14,76085
 259,62; 3245,048;  159,792;21804,596;14,25403
 260,21; 3198,949;  177,328;22295,978;13,66096
 260,81; 3157,347;  170,481;22823,178;13,18548
 261,41; 3104,211;  166,176;23209,931;12,74981
 262,01; 3112,849;  195,023;23642,910;12,44388
 262,60; 3000,863;  161,483;23968,584;11,92661
 263,20; 2990,458;  164,944;24178,655;11,76625
 263,80; 2946,249;  182,562;24384,042;11,41950
 264,40; 2875,635;  145,484;24473,227;11,22237
 264,99; 2835,639;  179,331;24635,359;10,86157
 265,59; 2777,856;  164,255;24795,929;10,61073
 266,19; 2770,529;  164,638;24886,859;10,54068
 266,78; 2776,808;  198,716;25019,817;10,38670
 267,38; 2756,612;  172,332;25091,828;10,37052
 267,98; 2718,445;  158,331;25004,990;10,30366
 268,58; 2721,895;  177,562;25077,419;10,21826
 269,17; 2705,572;  165,332;25112,785;10,18236
 269,77; 2704,563;  182,945;24923,644;10,19218
 270,37; 2717,039;  150,485;24758,337;10,42982
 270,96; 2737,190;  204,253;24703,174;10,33898
 271,56; 2706,266;  167,868;24397,106;10,47659
 272,16; 2732,691;  169,176;24154,837;10,68770
 272,75; 2746,571;  166,561;24041,291;10,80645
 273,35; 2784,120;  173,099;24093,138;10,91562
 273,95; 2825,390;  175,176;23998,878;11,12427
 274,54; 2822,526;  155,251;24001,451;11,18533
 275,14; 2960,745;  180,253;24296,492;11,52954
 275,74; 2975,728;  144,022;24387,065;11,68049
 276,33; 3103,449;  190,099;24762,723;11,85608
 276,93; 3194,589;  175,943;24987,120;12,16648
 277,53; 3326,284;  174,867;25496,469;12,44557
 278,12; 3446,996;  157,252;26003,751;12,72801
 278,72; 3636,508;  194,867;26636,274;13,01611
 279,32; 3755,425;  165,713;27171,463;13,29240
 279,91; 3919,977;  163,021;27905,256;13,54237
 280,51; 4091,679;  173,251;28428,361;13,86803
 281,11; 4312,183;  174,098;29118,155;14,29684
 281,70; 4446,908;  153,098;29568,424;14,59719
 282,30; 4640,881;  159,098;30230,644;14,90373
 282,90; 4863,459;  169,945;30561,185;15,44364
 283,49; 5070,170;  186,099;31199,186;15,74842
 284,09; 5252,785;  190,714;31628,304;16,10197
 284,69; 5398,877;  189,175;32037,341;16,35793
 285,28; 5658,197;  191,867;32500,794;16,91894
 285,88; 5917,192;  199,022;32695,762;17,59613
 286,47; 6016,179;  175,329;32693,137;17,96200
 287,07; 6285,221;  203,944;32809,646;18,65096
 287,67; 6506,846;  190,789;32982,022;19,26142
 288,26; 6671,301;  169,559;32869,266;19,88318
 288,86; 6949,899;  172,175;32963,147;20,66948
 289,46; 7211,691;  170,636;33023,814;21,43188
 290,05; 7535,309;  162,251;33047,628;22,42048
 290,65; 7874,366;  175,252;33285,329;23,25308
 291,24; 8223,779;  189,559;33411,430;24,18353
 291,84; 8552,906;  182,406;33467,438;25,14794
 292,44; 8883,582;  176,327;33666,984;25,99906
 293,03; 9370,228;  230,636;33835,995;27,19683
 293,63; 9636,973;  170,022;33925,161;28,04596
 294,22;10031,042;  194,175;34192,898;28,93305
 294,82;10328,567;  181,561;34111,735;29,90555
 295,41;10517,293;  153,944;33869,501;30,73759
 296,01;10795,379;  217,176;33826,800;31,47373
 296,61;10945,563;  179,559;33699,024;32,11866
 297,20;11060,924;  182,638;33244,688;32,90264
 297,80;11185,744;  187,635;33052,862;33,46427
 298,39;11274,380;  163,868;32744,796;34,10128
 298,99;11402,677;  175,638;32519,890;34,71108
 299,58;11441,266;  186,558;32371,911;34,96842
 300,18;11534,036;  207,097;32078,314;35,53971
 300,78;11540,227;  169,405;31723,868;36,03554
 301,37;11638,047;  186,639;31725,967;36,30835
 301,97;11799,128;  182,021;31752,405;36,79748
 302,56;11849,736;  166,099;31633,889;37,12888
 303,16;11895,429;  155,099;31597,477;37,33919
 303,75;11916,794;  174,405;31569,005;37,40257
 304,35;12124,714;  163,635;31819,100;37,78519
 304,94;12245,753;  180,098;31793,374;38,16642
 305,54;12300,192;  203,636;31684,952;38,42456
 306,13;12337,132;  149,173;31607,401;38,74331
 306,73;12294,237;  165,404;31473,524;38,74021
 307,33;12426,722;  185,020;31361,055;39,26639
 307,92;12450,484;  169,944;31395,096;39,32900
 308,52;12670,395;  165,099;31890,100;39,41780
 309,11;12953,129;  172,638;32427,632;39,62329
 309,71;13049,784;  155,177;32681,960;39,64305
 310,30;13206,988;  157,098;32836,795;39,93271
 310,90;13440,065;  179,329;33162,180;40,20494
 311,49;13534,698;  182,559;33344,317;40,26366
 312,09;13547,214;  142,636;33547,722;40,12736
 312,68;13815,626;  201,790;33927,769;40,36602
 313,28;13831,253;  152,559;33956,788;40,46445
 313,87;13940,504;  150,482;34176,314;40,52810
 314,47;14091,090;  167,253;34398,507;40,67580
 315,06;14030,084;  148,405;34567,733;40,33106
 315,66;14132,906;  158,943;34854,645;40,27578
 316,25;14073,335;  140,406;34689,418;40,32801
 316,85;14021,199;  139,559;34777,975;40,07585
 317,44;14112,868;  158,561;34947,829;40,11095
 318,04;14023,407;  148,945;34913,363;39,90995
 318,63;14009,557;  148,712;34929,575;39,85193
 319,22;14011,304;  174,253;35197,076;39,50867
 319,82;13944,353;  176,483;35096,106;39,42732
 320,41;13912,646;  161,945;35099,992;39,35738
 321,01;13829,183;  171,020;35141,349;39,05643
 321,60;13776,671;  166,714;35251,383;38,79175
 322,20;13647,955;  161,405;35121,065;38,57746
 322,79;13679,404;  191,790;35166,860;38,56351
 323,39;13594,670;  168,250;35279,984;38,23912
 323,98;13385,885;  153,251;35282,413;37,66851
 324,58;13349,869;  157,176;35187,689;37,66058
 325,17;13195,895;  167,637;35145,514;37,24714
 325,76;13059,123;  182,867;34943,934;37,04218
 326,36;12840,607;  147,174;34505,813;36,94393
 326,95;12670,936;  174,406;34216,453;36,70910
 327,55;12386,125;  161,560;33888,496;36,24570
 328,14;12212,597;  160,558;33455,672;36,19762
 328,74;12006,071;  193,637;33098,303;35,89896
 329,33;11718,225;  182,328;32807,741;35,35862
 329,92;11448,292;  159,869;32210,755;35,22032
 330,52;11164,798;  177,097;31505,485;35,07267
 331,11;10905,299;  174,790;31212,280;34,57273
 331,71;10646,285;  171,560;30432,102;34,61513
 332,30;10360,061;  186,406;30077,143;34,03615
 332,89;10145,397;  194,867;29511,339;33,94177
 333,49; 9861,871;  191,483;28964,734;33,60895
 334,08; 9577,729;  176,252;28472,291;33,22541
 334,68; 9316,381;  178,944;28023,751;32,81559
 335,27; 9128,017;  189,097;27739,620;32,44556
 335,86; 8975,299;  198,252;27392,433;32,27546
 336,46; 8753,027;  178,404;27143,820;31,79859
 337,05; 8594,812;  173,175;26956,025;31,44414
 337,65; 8437,239;  154,252;26747,263;31,14723
 338,24; 8404,771;  213,636;26704,877;30,92016
 338,83; 8236,768;  192,482;26645,103;30,41017
 339,43; 8160,036;  167,791;26542,617;30,30255
 340,02; 8046,993;  173,945;26436,655;29,97805
 340,61; 7967,148;  160,482;26511,836;29,62529
 341,21; 7930,302;  202,099;26614,149;29,26014
 341,80; 7830,704;  167,483;26464,883;29,14060
 342,40; 7740,333;  184,866;26529,250;28,67961
 342,99; 7714,320;  176,482;26685,878;28,43459
 343,58; 7633,918;  171,251;26786,510;28,03905
 344,18; 7623,078;  187,789;26883,705;27,85178
 344,77; 7580,263;  173,791;27228,350;27,37606
 345,36; 7599,397;  152,944;27547,530;27,18221
 345,96; 7627,788;  186,790;27898,073;26,85187
 346,55; 7595,372;  159,250;28039,876;26,67129
 347,14; 7583,986;  148,712;28352,017;26,36313
 347,74; 7590,043;  134,941;28802,237;26,00560
 348,33; 7662,399;  176,788;29445,868;25,57515
 348,92; 7785,228;  182,864;30050,130;25,45383
 349,52; 7787,017;  153,249;30534,317;25,12673
 350,11; 7819,949;  164,330;30849,386;24,94901
 350,70; 7767,111;  157,636;30870,762;24,77597
 351,29; 7607,553;  151,793;30630,485;24,46220
 351,89; 7526,732;  176,946;30644,581;24,12326
 352,48; 7448,844;  148,098;30744,072;23,86179
 353,07; 7381,784;  171,481;30661,308;23,64822
 353,67; 7257,093;  187,941;30661,298;23,19781
 354,26; 7117,767;  177,943;30285,990;23,04973
 354,85; 7019,005;  180,097;30287,588;22,71497
 355,45; 6875,211;  150,483;30048,817;22,49198
 356,04; 6781,175;  171,712;29992,195;22,16417
 356,63; 6689,715;  194,637;29722,345;21,99655
 357,22; 6545,155;  182,254;29642,724;21,59810
 357,82; 6419,108;  179,254;29568,586;21,23170
 358,41; 6372,101;  183,944;29398,069;21,18207
 359,00; 6217,664;  171,253;29186,052;20,83906
 359,60; 6164,143;  179,559;29089,288;20,70093
 360,19; 6068,847;  167,250;28900,900;20,53897
 360,78; 5985,676;  182,868;28752,546;20,31107
 361,37; 5823,264;  175,637;28566,902;19,89213
 361,97; 5790,106;  177,175;28530,155;19,79662
 362,56; 5616,348;  174,560;28176,133;19,43387
 363,15; 5611,411;  188,252;27971,246;19,51971
 363,74; 5469,691;  173,022;27662,683;19,26786
 364,34; 5349,602;  206,022;27333,877;18,96051
 364,93; 5182,317;  157,484;26881,684;18,80256
 365,52; 5032,991;  145,329;26525,510;18,52778
 366,11; 4970,830;  169,791;26163,872;18,46974
 366,71; 4870,843;  156,791;25776,076;18,40040
 367,30; 4757,296;  165,790;25473,044;18,14304
 367,89; 4710,713;  201,328;25232,258;18,01525
 368,48; 4634,097;  179,561;24906,241;18,01510
 369,07; 4482,496;  181,713;24451,608;17,72065
 369,67; 4449,550;  185,253;24105,611;17,82706
 370,26; 4306,672;  173,867;23873,858;17,43800
 370,85; 4273,363;  174,252;23550,537;17,53534
 371,44; 4209,417;  171,867;23370,237;17,40445
 372,03; 4102,461;  156,637;23193,697;17,12816
 372,63; 4071,151;  153,483;22877,551;17,24017
 373,22; 4000,360;  163,713;22601,975;17,09868
 373,81; 3888,966;  151,098;22258,948;16,90742
 374,40; 3862,917;  157,866;21988,723;16,97163
 374,99; 3813,426;  160,945;21684,224;16,96991
 375,59; 3754,141;  159,635;21418,913;16,90794
 376,18; 3761,615;  193,021;21403,678;16,82453
 376,77; 3713,334;  175,021;21085,997;16,92084
 377,36; 3691,711;  193,098;21072,078;16,75663
 377,95; 3653,865;  179,791;20770,557;16,87200
 378,55; 3567,721;  157,790;20539,965;16,72997
 379,14; 3588,467;  164,637;20564,566;16,78354
 379,73; 3595,040;  170,483;20364,577;16,95821
 380,32; 3576,888;  182,867;20445,975;16,74975
 380,91; 3553,849;  165,330;20277,027;16,84850
 381,50; 3576,167;  181,637;20290,182;16,88103
 382,10; 3520,734;  159,406;20190,898;16,78022
 382,69; 3544,738;  155,867;20114,568;16,97942
 383,28; 3592,236;  188,560;20055,244;17,13258
 383,87; 3525,442;  162,483;19910,528;17,02932
 384,46; 3523,143;  171,330;19836,502;17,04441
 385,05; 3585,155;  193,637;19833,439;17,26859
 385,64; 3601,830;  161,022;19814,872;17,50705
 386,24; 3605,813;  152,869;19756,098;17,61416
 386,83; 3622,886;  186,100;19744,215;17,57217
 387,42; 3672,852;  190,791;19875,815;17,68889
 388,01; 3690,785;  179,178;20018,150;17,70055
 388,60; 3751,762;  176,792;20248,923;17,81062
 389,19; 3771,380;  154,948;20518,679;17,75918
 389,78; 3882,210;  164,025;20750,651;18,06117
 390,37; 4049,111;  214,023;21186,993;18,28586
 390,96; 4058,496;  178,869;21368,206;18,30934
 391,56; 4144,135;  167,794;21459,411;18,67561
 392,15; 4145,248;  162,409;21772,680;18,43031
 392,74; 4197,023;  146,796;21948,826;18,57729
 393,33; 4321,183;  160,256;22265,505;18,82325
 393,92; 4443,519;  189,258;22553,240;19,02282
 394,51; 4491,404;  156,641;22829,766;19,11851
 395,10; 4623,464;  185,414;23114,549;19,35550
 395,69; 4703,340;  170,491;23248,411;19,64150
 396,28; 4739,464;  189,338;23335,047;19,65862
 396,87; 4750,423;  194,724;23425,208;19,61086
 397,46; 4843,364;  190,495;23585,477;19,88832
 398,06; 4952,891;  193,035;23669,499;20,27501
 398,65; 4980,209;  179,116;23892,754;20,24613
 399,24; 5125,755;  198,885;23988,985;20,70975
 399,83; 5112,530;  178,276;23940,630;20,76501
 400,42; 5223,162;  206,819;24092,641;21,00134
 401,01; 5279,754;  178,902;24273,148;21,17042
 401,60; 5362,683;  192,679;24311,313;21,43573
 402,19; 5400,150;  205,069;24262,482;21,59451
 402,78; 5438,616;  220,079;24386,919;21,59379
 403,37; 5423,551;  191,857;24237,918;21,75697
 403,96; 5442,355;  198,098;24082,316;21,95700
 404,55; 5503,842;  217,956;23963,646;22,26040
 405,14; 5508,744;  193,043;23849,033;22,47084
 405,73; 5523,420;  217,671;23709,315;22,58568
 406,32; 5581,830;  206,526;23650,839;22,92797
 406,91; 5572,504;  210,305;23438,841;23,08454
 407,50; 5586,573;  205,002;23254,443;23,34795
 408,09; 5585,329;  180,775;23033,321;23,64968
 408,68; 5609,492;  195,469;22862,291;23,88523
 409,27; 5592,140;  181,543;22610,369;24,12341
 409,86; 5663,890;  200,459;22544,737;24,45114
 410,45; 5690,589;  221,452;22443,953;24,61081
 411,04; 5743,328;  237,138;22448,357;24,79013
 411,63; 5706,759;  220,591;22151,746;25,01541
 412,22; 5704,178;  214,430;21951,430;25,25532
 412,81; 5692,809;  231,119;21704,362;25,43486
 413,40; 5728,453;  243,270;21441,770;25,87534
 413,99; 5667,651;  264,040;21081,094;25,95762
 414,58; 5546,490;  218,885;20678,324;26,03984
 415,17; 5552,320;  213,504;20453,641;26,37737
 415,76; 5547,837;  211,661;20265,794;26,60886
 416,35; 5551,199;  202,582;20074,317;26,91570
 416,94; 5572,383;  227,660;20097,464;26,89872
 417,53; 5660,805;  216,196;20200,077;27,24500
 418,12; 5737,644;  202,580;20275,076;27,57537
 418,71; 5917,088;  227,423;20627,785;27,89002
 419,30; 5970,972;  222,272;20746,353;28,00954
 419,89; 6040,970;  215,887;20936,746;28,11217
 420,48; 6215,996;  237,500;21154,960;28,58136
 421,07; 6294,341;  223,807;21303,048;28,79864
 421,66; 6337,556;  202,883;21350,228;29,00919
 422,25; 6370,449;  215,649;21401,329;29,05170
 422,84; 6437,023;  237,110;21426,490;29,25953
 423,43; 6398,019;  219,265;21156,431;29,51094
 424,02; 6417,980;  235,495;20902,596;29,91462
 424,60; 6304,228;  202,184;20473,524;30,10183
 425,19; 6258,852;  225,647;20175,271;30,24220
 425,78; 6260,736;  240,186;20022,685;30,43372
 426,37; 6307,893;  231,338;19876,821;30,93106
 426,96; 6288,943;  230,723;19783,638;30,98372
 427,55; 6263,475;  219,644;19652,922;31,10042
 428,14; 6282,915;  199,181;19444,821;31,61097
 428,73; 6278,220;  223,337;19263,012;31,80140
 429,32; 6320,073;  235,569;19202,049;32,08030
 429,91; 6422,777;  249,875;19173,334;32,62037
 430,50; 6357,490;  233,797;19094,344;32,46827
 431,08; 6342,869;  250,181;18933,791;32,60980
 431,67; 6376,446;  286,872;18905,631;32,70666
 432,26; 6382,603;  296,102;18745,246;32,99070
 432,85; 6335,084;  317,487;18395,740;33,28639
 433,44; 6224,774;  312,255;18133,559;33,17669
 434,03; 6122,637;  342,022;17695,758;33,31049
 434,62; 6036,806;  310,101;17215,162;33,87568
 435,21; 5998,150;  324,333;16992,491;34,03986
 435,79; 5967,171;  309,330;16909,247;34,08355
 436,38; 5973,486;  310,098;16758,093;34,43209
 436,97; 5990,635;  303,867;16607,577;34,88021
 437,56; 5911,120;  308,941;16465,781;34,67373
 438,15; 5924,475;  281,634;16353,092;35,11094
 438,74; 6011,431;  298,403;16405,496;35,46902
 439,33; 6029,929;  270,711;16356,282;35,80363
 439,91; 6063,655;  236,479;16410,297;36,02845
 440,50; 6154,186;  281,940;16444,821;36,33167
 441,09; 6184,852;  277,400;16525,340;36,35816
 441,68; 6227,476;  268,783;16548,389;36,60219
 442,27; 6271,816;  251,784;16509,568;37,02861
 442,86; 6244,614;  225,473;16522,899;36,93307
 443,44; 6324,993;  238,474;16566,157;37,27730
 444,03; 6398,814;  276,165;16663,942;37,36107
 444,62; 6334,571;  243,934;16586,123;37,26941
 445,21; 6367,983;  252,935;16352,093;37,98365
 445,80; 6351,256;  274,241;16328,009;37,85413
 446,39; 6306,213;  267,549;16060,943;38,23538
 446,97; 6178,918;  231,777;15859,550;38,05495
 447,56; 6137,736;  244,006;15688,833;38,15989
 448,15; 6110,548;  247,008;15457,759;38,54866
 448,74; 6080,061;  263,008;15203,685;38,93433
 449,33; 6047,524;  248,776;15094,481;39,06011
 449,91; 5941,978;  254,928;14884,349;38,87406
 450,50; 5934,157;  236,390;14632,699;39,57797
 451,09; 5891,629;  256,313;14522,392;39,50151
 451,68; 5882,899;  277,004;14475,127;39,48335
 452,26; 5883,576;  263,157;14303,420;40,03072
 452,85; 5826,699;  255,004;14205,988;39,93765
 453,44; 5844,458;  259,540;14222,480;39,99815
 454,03; 5835,131;  235,926;14222,181;40,03362
 454,61; 5858,998;  233,540;14135,743;40,46451
 455,20; 6027,392;  268,000;14327,598;40,96413
 455,79; 5977,387;  265,310;14302,277;40,69310
 456,38; 6042,546;  270,768;14375,037;40,92221
 456,97; 6055,202;  247,461;14459,903;40,86378
 457,55; 6122,452;  258,460;14465,683;41,27473
 458,14; 6157,467;  278,461;14494,376;41,35510
 458,73; 6135,838;  266,075;14408,714;41,50402
 459,31; 6213,200;  297,766;14431,468;41,85339
 459,90; 6242,665;  292,844;14493,663;41,89773
 460,49; 6353,914;  307,613;14617,511;42,25258
 461,08; 6317,830;  260,227;14620,564;42,18288
 461,66; 6395,384;  269,074;14741,348;42,33136
 462,25; 6440,567;  274,765;14849,924;42,30350
 462,84; 6537,139;  305,611;14869,211;42,78838
 463,43; 6495,444;  225,532;14858,762;42,84708
 464,01; 6496,653;  279,839;14872,707;42,60173
 464,60; 6593,585;  298,840;14842,160;43,28272
 465,19; 6443,047;  251,377;14583,580;43,20110
 465,77; 6463,723;  260,222;14606,796;43,24030
 466,36; 6467,380;  279,763;14574,813;43,28503
 466,95; 6329,264;  265,378;14237,227;43,40074
 467,53; 6217,355;  272,683;13933,693;43,51561
 468,12; 6148,378;  290,914;13652,744;43,83729
 468,71; 6015,996;  276,146;13430,328;43,63517
 469,29; 5920,210;  252,144;13139,336;43,98217
 469,88; 5830,012;  266,682;12926,338;43,94535
 470,47; 5887,087;  320,834;12918,849;44,18357
 471,06; 5857,761;  276,142;12893,327;44,23823
 471,64; 5884,660;  281,373;12979,937;44,12536
 472,23; 5884,000;  258,832;13007,110;44,12493
 472,81; 5973,883;  250,218;13114,976;44,49104
 473,40; 6039,868;  267,986;13240,975;44,49154
 473,99; 6225,201;  325,986;13445,692;44,96454
 474,57; 6224,194;  254,986;13513,881;45,02040
 475,16; 6305,325;  283,448;13680,790;44,94830
 475,75; 6384,752;  295,985;13818,814;45,02584
 476,33; 6445,422;  299,676;13907,279;45,16406
 476,92; 6473,698;  296,909;13974,870;45,15870
 477,51; 6530,455;  286,599;14099,874;45,20185
 478,09; 6604,428;  291,061;14109,999;45,68634
 478,68; 6548,360;  288,830;14023,796;45,57369
 479,27; 6628,645;  315,215;14085,166;45,84933
 479,85; 6578,698;  281,368;13996,598;45,91487
 480,44; 6624,355;  273,522;14109,383;45,90125
 481,02; 7031,214;  282,521;15040,352;45,72957
 481,61; 7995,845;  309,060;16960,272;46,16352
 482,20; 8674,199;  303,136;18418,989;46,20849
 482,78; 9227,445;  327,291;19377,022;46,72063
 483,37; 9514,523;  316,827;20002,822;46,72203
 483,95; 9748,119;  356,750;20363,482;46,94105
 484,54; 9827,613;  359,752;20595,702;46,78733
 485,13; 9812,602;  329,671;20633,139;46,70597
 485,71; 9753,978;  302,980;20348,881;47,14679
 486,30; 9671,181;  341,672;20188,775;47,00691
 486,88; 9550,223;  363,133;19891,302;47,04532
 487,47; 9266,958;  358,133;19249,214;47,15889
 488,05; 8913,627;  344,363;18461,434;47,29939
 488,64; 8325,936;  339,054;17309,615;47,06316
 489,23; 7644,773;  352,516;15703,760;47,50271
 489,81; 6408,148;  354,516;13150,773;47,30784
 490,40; 5921,184;  311,362;12205,489;47,16463
 490,98; 5804,510;  294,285;11953,332;47,26137
 491,57; 5719,430;  322,670;11732,563;47,29895
 492,15; 5732,164;  314,284;11727,361;47,47081
 492,74; 5690,350;  303,671;11646,115;47,49135
 493,32; 5637,953;  323,746;11543,241;47,36583
 493,91; 5611,165;  305,899;11490,144;47,43517
 494,50; 5564,315;  311,051;11441,741;47,19621
 495,08; 5559,142;  304,359;11304,957;47,76816
 495,67; 5560,164;  308,438;11340,728;47,60323
 496,25; 5498,332;  267,591;11205,805;47,82080
 496,84; 5450,465;  273,130;11166,841;47,52591
 497,42; 5472,806;  262,283;11075,222;48,18785
 498,01; 5447,691;  305,745;11128,401;47,51094
 498,59; 5380,884;  249,744;11004,100;47,71220
 499,18; 5372,542;  256,822;11018,053;47,53842
 499,76; 5404,471;  280,821;10932,366;48,10241
 500,35; 5279,294;  273,281;10723,427;47,90376
 500,93; 5260,132;  269,283;10654,821;48,05576
 501,52; 5265,130;  269,129;10614,694;48,29124
 502,10; 5263,420;  269,281;10616,285;48,26653
 502,69; 5189,271;  257,664;10453,796;48,36743
 503,27; 5098,913;  241,974;10276,758;48,40103
 503,86; 5065,048;  252,357;10235,548;48,20794
 504,44; 5017,696;  248,126;10108,781;48,36971
 505,03; 4886,170;  236,126; 9868,908;48,27311
 505,61; 4858,894;  234,587; 9763,068;48,53141
 506,19; 4825,981;  258,741; 9651,530;48,62496
 506,78; 4702,934;  232,201; 9479,953;48,34400
 507,36; 4617,510;  251,357; 9286,946;48,32174
 507,95; 4595,788;  249,200; 9146,084;48,85517
 508,53; 4536,937;  237,432; 9044,650;48,81797
 509,12; 4440,919;  251,893; 8852,802;48,70445
 509,70; 4399,613;  266,893; 8712,712;48,93215
 510,29; 4331,668;  269,046; 8581,502;48,87391
 510,87; 4207,604;  246,278; 8374,779;48,73378
 511,46; 4162,007;  238,893; 8224,590;49,12675
 512,04; 4094,532;  251,739; 8077,734;49,10294
 512,62; 3997,364;  261,201; 7960,177;48,52805
 513,21; 3902,573;  226,892; 7788,365;48,61065
 513,79; 3841,282;  247,505; 7638,547;48,62342
 514,38; 3753,667;  220,121; 7479,199;48,67762
 514,96; 3732,343;  269,198; 7369,881;48,77200
 515,54; 3619,605;  235,275; 7277,389;48,05844
 516,13; 3623,735;  245,890; 7174,012;48,75557
 516,71; 3573,096;  241,043; 7042,984;48,98680
 517,30; 3503,862;  229,503; 6925,173;48,90263
 517,88; 3454,366;  267,965; 6837,488;48,50278
 518,46; 3362,954;  242,042; 6709,210;48,25779
 519,05; 3371,193;  243,502; 6677,957;48,60847
 519,63; 3334,433;  246,657; 6593,944;48,64718
 520,22; 3312,059;  255,040; 6529,659;48,72039
 520,80; 3271,371;  248,117; 6459,927;48,66945
 521,38; 3293,261;  268,887; 6475,789;48,72599
 521,97; 3259,686;  242,808; 6411,135;48,90918
 522,55; 3233,034;  246,424; 6397,907;48,55106
 523,13; 3226,641;  245,115; 6349,413;48,84305
 523,72; 3210,151;  250,042; 6333,987;48,65443
 524,30; 3283,639;  267,038; 6475,268;48,59036
 524,89; 3257,075;  235,424; 6475,171;48,42586
 525,47; 3335,838;  260,884; 6593,415;48,55806
 526,05; 3355,673;  231,807; 6667,627;48,53874
 526,64; 3427,313;  261,729; 6744,633;48,82972
 527,22; 3493,391;  258,730; 6923,624;48,53283
 527,80; 3591,241;  288,268; 7049,642;48,85062
 528,39; 3628,335;  247,883; 7124,865;49,15604
 528,97; 3685,751;  246,498; 7290,410;48,82589
 529,55; 3789,050;  260,269; 7517,821;48,62219
 530,14; 3900,605;  273,113; 7733,311;48,62461
 530,72; 3968,108;  251,575; 7806,535;49,19328
 531,30; 4004,224;  240,036; 7949,347;48,82652
 531,89; 4081,354;  243,190; 8060,554;49,09793
 532,47; 4159,048;  285,882; 8193,540;48,97994
 533,05; 4185,269;  279,729; 8276,056;48,84167
 533,63; 4230,997;  283,036; 8348,519;48,94886
 534,22; 4191,111;  247,112; 8375,286;48,52257
 534,80; 4260,303;  282,496; 8404,433;48,97609
 535,38; 4328,189;  322,728; 8535,996;48,76817
 535,97; 4252,276;  267,574; 8477,382;48,53588
 536,55; 4288,550;  320,111; 8568,904;48,10933
 537,13; 4273,538;  322,421; 8487,202;48,39219
 537,71; 4284,072;  358,113; 8523,551;48,08020
 538,30; 4318,126;  391,112; 8644,246;47,58210
 538,88; 4355,168;  413,957; 8682,565;47,66475
 539,46; 4442,574;  468,419; 8886,589;47,20925
 540,05; 4489,575;  494,572; 9053,679;46,67546
 540,63; 4590,277;  539,957; 9234,648;46,58383
 541,21; 4692,263;  559,956; 9382,760;46,83666
 541,79; 4725,469;  613,880; 9523,505;46,14772
 542,38; 4833,494;  647,034; 9641,720;46,54370
 542,96; 4888,582;  650,879; 9843,390;46,09952
 543,54; 5010,117;  672,418;10010,159;46,45341
 544,12; 5017,713;  649,726;10193,280;45,76898
 544,70; 5099,808;  620,648;10278,150;46,38011
 545,29; 5177,710;  633,034;10494,357;46,08586
 545,87; 5222,161;  591,187;10505,428;46,71032
 546,45; 5208,306;  556,880;10536,496;46,60926
 547,03; 5289,131;  543,803;10577,875;47,29215
 547,62; 5336,205;  517,187;10757,852;47,05767
 548,20; 5379,052;  496,571;10926,865;46,81058
 548,78; 5466,959;  484,261;10996,873;47,39733
 549,36; 5530,998;  440,954;11236,228;47,15067
 549,94; 5592,598;  398,725;11380,386;47,29587
 550,53; 5722,801;  407,108;11622,701;47,39556
 551,11; 5800,793;  379,876;11786,112;47,52590
 551,69; 5943,514;  379,185;12101,132;47,46933
 552,27; 6036,792;  341,493;12354,289;47,41027
 552,85; 6193,820;  359,261;12791,756;46,92991
 553,44; 6423,837;  341,185;13065,187;47,80455
 554,02; 6575,572;  358,108;13463,714;47,44125
 554,60; 6675,323;  302,184;13792,329;47,24292
 555,18; 6969,588;  330,108;14250,743;47,69524
 555,76; 7119,276;  313,031;14592,996;47,66290
 556,34; 7307,953;  316,491;15034,886;47,50152
 556,93; 7485,327;  307,108;15418,478;47,50211
 557,51; 7609,796;  296,645;15808,650;47,14511
 558,09; 7846,213;  319,185;16208,481;47,37169
 558,67; 8046,422;  311,413;16605,017;47,47267
 559,25; 8159,472;  326,029;16858,468;47,38226
 559,83; 8291,684;  304,874;17220,141;47,21658
 560,41; 8466,354;  295,184;17658,299;47,06051
 561,00; 8573,755;  305,644;17964,349;46,82173
 561,58; 8712,769;  305,184;18198,794;46,98652
 562,16; 8813,753;  291,107;18535,033;46,71498
 562,74; 8958,147;  274,415;18920,020;46,57254
 563,32; 9092,019;  278,182;19425,170;46,03250
 563,90; 9246,435;  298,721;19734,376;46,03762
 564,48; 9423,832;  310,107;20128,558;45,98606
 565,06; 9672,212;  290,644;20677,928;46,01676
 565,65; 9972,199;  295,797;21411,651;45,82529
 566,23;10293,484;  353,644;22074,577;45,76157
 566,81;10553,346;  290,106;22813,189;45,56765
 567,39;10938,784;  312,413;23749,654;45,33969
 567,97;11204,270;  317,798;24445,760;45,11973
 568,55;11588,998;  312,721;25282,074;45,16047
 569,13;11892,789;  300,875;25985,573;45,13160
 569,71;12209,319;  298,800;26976,138;44,64658
 570,29;12725,496;  340,646;27965,534;44,83222
 570,87;13060,447;  332,800;28807,390;44,69826
 571,45;13265,785;  317,644;29504,075;44,36356
 572,03;13442,848;  271,182;29935,400;44,40254
 572,61;13685,551;  278,567;30658,437;44,13114
 573,20;13952,818;  313,876;31279,977;44,04475
 573,78;14273,340;  300,336;32070,451;43,98160
 574,36;14484,036;  303,490;32659,967;43,82599
 574,94;14651,218;  350,028;32969,530;43,84246
 575,52;14631,455;  322,257;33286,439;43,40832
 576,10;14897,412;  372,181;33829,419;43,41432
 576,68;15057,118;  356,028;34304,094;43,30465
 577,26;15300,241;  376,718;34970,970;43,13873
 577,84;15563,274;  374,259;35561,855;43,16582
 578,42;15656,285;  397,797;35907,543;42,96986
 579,00;15713,890;  367,336;36066,117;42,98901
 579,58;15743,203;  394,951;36358,705;42,67700
 580,16;15738,927;  386,258;36366,522;42,66970
 580,74;15787,561;  393,027;36608,613;42,50804
 581,32;15842,244;  385,489;36676,432;42,59122
 581,90;15728,634;  404,104;36700,500;42,22053
 582,48;15709,708;  394,796;36762,572;42,11121
 583,06;15740,905;  408,489;36882,136;42,03697
 583,64;15798,809;  407,412;37150,429;41,88931
 584,22;15730,965;  409,103;37069,976;41,79350
 584,80;15629,129;  424,950;36926,307;41,65373
 585,38;15351,457;  430,491;36498,816;41,36861
 585,96;15312,763;  400,028;36510,096;41,29800
 586,54;15341,569;  417,411;36434,899;41,43587
 587,12;15338,535;  384,873;36671,924;41,20936
 587,70;15288,243;  411,336;36772,495;40,91428
 588,28;15326,101;  398,335;36987,799;40,79799
 588,86;15392,251;  411,411;37134,744;40,79379
 589,44;15325,125;  381,487;37139,135;40,65450
 590,02;15347,135;  378,718;37355,737;40,48032
 590,59;15386,430;  354,488;37591,492;40,36829
 591,17;15487,153;  357,101;37811,448;40,39598
 591,75;15375,412;  359,025;37960,898;39,93521
 592,33;15478,064;  371,871;38254,145;39,87668
 592,91;15523,188;  326,101;38606,306;39,69960
 593,49;15572,300;  333,947;38912,389;39,49966
 594,07;15565,315;  341,716;39061,906;39,31695
 594,65;15531,779;  357,642;39133,911;39,13254
 595,23;15677,510;  347,718;39574,230;39,08018
 595,81;15658,309;  350,795;39762,091;38,84042
 596,39;15726,688;  349,871;39896,005;38,88324
 596,97;15680,547;  337,178;40114,666;38,57300
 597,55;15586,425;  327,026;39943,849;38,51747
 598,12;15491,099;  316,254;40022,096;38,21817
 598,70;15437,057;  316,870;40076,357;38,02913
 599,28;15486,632;  339,024;40361,354;37,84789
 599,86;15440,395;  330,793;40412,698;37,69682
 600,44;15357,551;  300,024;40495,453;37,46079
 601,02;15422,052;  350,099;40514,998;37,52518
 601,60;15304,474;  330,640;40527,074;37,25165
 602,18;15234,566;  303,946;40587,644;37,06368
 602,75;15157,059;  305,564;40724,692;36,74373
 603,33;15000,888;  325,947;40591,378;36,44551
 603,91;15004,423;  316,792;40690,319;36,37936
 604,49;14945,768;  325,639;40747,602;36,16878
 605,07;14853,824;  334,871;40763,081;35,91293
 605,65;14815,734;  344,485;40908,668;35,67494
 606,23;14831,005;  405,950;41020,458;35,51700
 606,80;14768,111;  452,256;41017,360;35,29106
 607,38;14662,449;  493,638;41115,470;34,87979
 607,96;14725,357;  546,795;41162,646;34,90894
 608,54;14626,555;  594,101;41212,721;34,54685
 609,12;14587,071;  616,641;41306,666;34,33380
 609,70;14534,142;  644,793;41349,678;34,12207
 610,27;14501,981;  652,641;41295,814;34,07544
 610,85;14444,403;  660,024;41419,558;33,81878
 611,43;14339,660;  677,178;41371,614;33,57334
 612,01;14205,500;  640,871;41203,148;33,44149
 612,59;14135,899;  630,947;41214,166;33,27718
 613,16;14095,297;  606,026;41170,539;33,25387
 613,74;13904,694;  579,024;40990,914;32,97463
 614,32;13870,500;  540,408;41042,971;32,91173
 614,90;13738,155;  490,178;40866,286;32,81143
 615,48;13504,822;  452,487;40559,746;32,54357
 616,05;13457,256;  410,180;40471,966;32,56738
 616,63;13285,767;  401,104;40363,494;32,24197
 617,21;13196,892;  399,718;40268,994;32,09783
 617,79;13091,199;  387,333;40142,361;31,95537
 618,36;13018,568;  397,486;40069,057;31,81392
 618,94;12795,416;  336,410;39771,528;31,59368
 619,52;12557,027;  365,642;39429,093;31,20919
 620,10;12492,826;  354,487;39491,226;31,01520
 620,67;12415,189;  361,873;39350,492;30,91496
 621,25;12292,538;  372,409;39161,485;30,73063
 621,83;12205,275;  354,641;39088,347;30,59515
 622,41;12123,305;  391,026;39125,842;30,28872
 622,98;11961,398;  364,642;38758,549;30,20468
 623,56;11906,344;  365,181;38884,157;29,96228
 624,14;11772,015;  355,409;38728,291;29,75175
 624,72;11697,072;  341,718;38649,914;29,64210
 625,29;11588,074;  316,104;38666,309;29,39220
 625,87;11539,762;  360,641;38532,616;29,28620
 626,45;11368,589;  314,873;38446,873;28,98803
 627,02;11287,231;  335,256;38280,118;28,86287
 627,60;11194,566;  309,331;38281,586;28,66629
 628,18;11159,148;  300,795;38338,973;28,54593
 628,76;11112,032;  310,488;38379,025;28,37394
 629,33;11000,796;  323,334;38358,690;28,07246
 629,91;10958,133;  314,718;38329,687;27,99796
 630,49;10859,656;  344,488;38449,637;27,59514
 631,06;10847,448;  329,411;38535,475;27,52976
 631,64;10714,993;  330,488;38571,503;27,15541
 632,22;10613,180;  289,335;38453,021;27,05149
 632,79;10629,832;  314,489;38673,557;26,89154
 633,37;10598,728;  297,563;38843,835;26,72415
 633,95;10614,118;  304,873;38879,750;26,72528
 634,52;10545,241;  282,103;38992,354;26,51271
 635,10;10502,218;  293,872;39015,394;26,36350
 635,68;10491,731;  298,643;39256,610;26,16432
 636,25;10439,024;  287,567;39194,822;26,09142
 636,83;10413,032;  278,027;39495,718;25,84294
 637,41;10357,360;  282,258;39440,479;25,72921
 637,98;10328,288;  311,182;39708,412;25,42592
 638,56;10296,117;  313,182;39881,850;25,22939
 639,13;10280,517;  288,334;39933,633;25,20395
 639,71;10259,049;  304,950;40086,266;25,02205
 640,29;10110,442;  256,796;39748,763;24,95101
 640,86;10075,129;  264,949;40035,288;24,66708
 641,44; 9951,509;  279,949;40050,505;24,31839
 642,02;10001,427;  299,488;40076,798;24,39064
 642,59; 9918,422;  274,949;40148,861;24,18492
 643,17; 9811,801;  281,334;40262,617;23,83732
 643,74; 9786,335;  280,180;40240,603;23,78892
 644,32; 9718,407;  297,872;40196,974;23,61089
 644,89; 9669,786;  294,641;40164,421;23,51441
 645,47; 9596,397;  303,641;40245,177;23,26589
 646,05; 9488,930;  290,411;40090,932;23,11156
 646,62; 9399,079;  289,641;40109,995;22,87634
 647,20; 9337,612;  289,718;40289,058;22,62011
 647,77; 9226,300;  265,487;40197,967;22,43991
 648,35; 9171,526;  256,026;40034,107;22,41310
 648,92; 9113,136;  298,949;40081,786;22,15575
 649,50; 9038,746;  255,026;40013,310;22,09281
 650,08; 8923,357;  261,410;39907,450;21,84820
 650,65; 8867,582;  262,333;40059,590;21,62272
 651,23; 8841,731;  243,564;40483,499;21,36725
 651,80; 9077,572;  258,179;41612,870;21,32622
 652,38; 9086,413;  261,872;42032,164;21,12636
 652,95; 9069,562;  233,256;42436,227;20,93764
 653,53; 9052,711;  276,564;42747,752;20,66377
 654,10; 9036,168;  289,718;42884,815;20,53394
 654,68; 8936,701;  250,641;42776,185;20,42551
 655,25; 8897,696;  264,872;42974,018;20,21306
 655,83; 8822,460;  245,179;43005,004;20,05921
 656,40; 8811,609;  284,795;42952,990;19,98401
 656,98; 8653,219;  253,179;42933,591;19,68125
 657,55; 8635,138;  261,410;42895,270;19,64103
 658,13; 8473,594;  252,641;42493,410;19,46213
 658,70; 8408,589;  269,102;42348,011;19,34339
 659,28; 8176,199;  260,640;41591,459;19,15171
 659,85; 7919,117;  256,948;40543,599;19,01913
 660,43; 7817,497;  275,948;40407,508;18,79207
 661,00; 7777,569;  262,486;40634,879;18,61441
 661,58; 7780,410;  249,794;40897,480;18,52656
 662,15; 7793,713;  239,333;41179,928;18,45205
 662,73; 7832,708;  299,948;41449,453;18,30583
 663,30; 7783,241;  268,563;41664,977;18,15297
 663,88; 7748,775;  270,948;41892,886;17,96607
 664,45; 7734,539;  255,486;42090,257;17,87760
 665,03; 7768,457;  264,717;42455,705;17,78517
 665,60; 7872,913;  312,102;42942,152;17,73587
 666,17; 7731,370;  271,255;43090,446;17,42236
 666,75; 7733,750;  261,025;43340,663;17,34630
 667,32; 7777,360;  289,948;43719,188;17,24049
 667,90; 7743,278;  266,101;43996,712;17,09827
 668,47; 7786,504;  294,640;44317,698;17,01805
 669,05; 7744,883;  269,486;44670,762;16,83600
 669,62; 7678,648;  245,178;44863,671;16,66006
 670,19; 7697,412;  254,794;44851,888;16,68857
 670,77; 7651,714;  265,793;45132,643;16,46187
 671,34; 7625,325;  268,793;45023,860;16,43732
 671,92; 7618,166;  253,947;45300,846;16,34789
 672,49; 7590,853;  269,947;45421,294;16,21415
 673,06; 7518,464;  224,024;45433,818;16,13464
 673,64; 7460,843;  255,947;45416,958;15,95380
 674,21; 7404,223;  237,255;45450,021;15,85165
 674,79; 7450,295;  262,255;45639,007;15,84080
 675,36; 7384,520;  276,947;45766,840;15,62451
 675,93; 7285,669;  253,332;45623,903;15,49978
 676,51; 7284,126;  281,870;45858,427;15,36372
 677,08; 7271,582;  268,101;45891,952;15,35048
 677,65; 7223,808;  263,947;45995,707;15,21888
 678,23; 7211,265;  268,485;46231,924;15,10500
 678,80; 7184,952;  257,101;46384,987;15,01879
 679,38; 7144,716;  241,639;46510,358;14,91953
 679,95; 7140,711;  267,485;46653,959;14,81731
 680,52; 7083,937;  250,639;47027,638;14,60824
 681,10; 7174,547;  270,331;47363,778;14,66067
 681,67; 7153,696;  272,562;47716,918;14,50359
 682,24; 7084,383;  236,254;47830,289;14,38863
 682,82; 7126,455;  250,716;48266,736;14,31968
 683,39; 7205,219;  279,331;48759,338;14,28607
 683,96; 7169,445;  243,869;48931,478;14,22451
 684,54; 7150,825;  237,408;49218,233;14,11454
 685,11; 7249,435;  268,254;49710,835;14,11978
 685,68; 7245,199;  255,023;50123,975;14,01709
 686,25; 7174,502;  242,254;50130,576;13,89553
 686,83; 7188,651;  243,715;50379,947;13,85213
 687,40; 7217,954;  228,023;50759,471;13,83283
 687,97; 7287,564;  276,331;51175,073;13,77487
 688,55; 7182,636;  237,869;51281,367;13,60559
 689,12; 7191,708;  225,254;51495,045;13,58783
 689,69; 7155,318;  232,023;51621,339;13,47225
 690,26; 7123,852;  242,869;51610,787;13,39549
 690,84; 7166,462;  241,946;51917,080;13,40009
 691,41; 7132,765;  250,638;51948,759;13,31214
 691,98; 7174,375;  256,561;52306,822;13,29064
 692,56; 7132,062;  235,253;52441,270;13,21075
 693,13; 7111,827;  294,869;52495,871;13,05906
 693,70; 7105,206;  274,176;52639,396;13,04497
 694,27; 7081,970;  250,715;52769,689;13,00721
 694,84; 7055,196;  243,561;52835,829;12,95178
 695,42; 7118,883;  284,023;52996,892;12,96621
 695,99; 7036,417;  250,099;53277,263;12,79781
 696,56; 6980,950;  243,099;53121,557;12,74215
 697,13; 7050,484;  264,022;53431,082;12,76441
 697,71; 6999,171;  219,638;53449,529;12,73633
 698,28; 7007,243;  251,253;53810,515;12,61405
 698,85; 6936,622;  218,330;53892,809;12,51674
 699,42; 6956,233;  225,715;54085,718;12,49632
 699,99; 6974,920;  265,253;54175,781;12,44593
 700,57; 6955,146;  265,868;54237,845;12,39398
 701,14; 6953,833;  245,176;54338,754;12,40195
 701,71; 6960,136;  249,330;54598,124;12,34766
 702,28; 6932,208;  256,407;54509,418;12,30494
 702,85; 6912,357;  258,484;54701,327;12,22176
 703,43; 6938,121;  273,714;54993,775;12,17909
 704,00; 6979,808;  279,483;55230,223;12,19333
 704,57; 6958,188;  259,791;55148,209;12,20366
 705,14; 6967,029;  288,330;55447,580;12,10803
 705,71; 6985,024;  304,483;55488,950;12,10583
 706,28; 6897,173;  265,714;55340,706;12,04078
 706,86; 6941,552;  295,252;55697,307;11,99649
 707,43; 6963,393;  310,022;55571,909;12,03971
 708,00; 6908,081;  290,252;55628,818;11,95880
 708,57; 6854,153;  268,098;55526,881;11,91857
 709,14; 6882,148;  293,791;55719,329;11,88686
 709,71; 6882,681;  276,560;55778,853;11,90243
 710,28; 6894,214;  279,637;56054,301;11,85947
 710,86; 6897,671;  291,175;56245,287;11,80699
 711,43; 6933,589;  290,406;56174,812;11,88736
 712,00; 6897,046;  274,637;56266,490;11,82745
 712,57; 6900,964;  275,791;56451,861;11,79359
 713,14; 6883,112;  262,252;56564,847;11,75942
 713,71; 6855,800;  270,021;56355,602;11,74237
 714,28; 6831,333;  257,560;56496,742;11,68896
 714,85; 6792,328;  242,790;56285,498;11,68669
 715,42; 6834,015;  253,098;56570,330;11,68544
 716,00; 6851,703;  284,329;56620,008;11,65757
 716,57; 6800,621;  247,636;56825,918;11,58216
 717,14; 6783,385;  228,329;56662,134;11,61548
 717,71; 6798,226;  227,636;56615,659;11,65246
 718,28; 6810,606;  255,405;56809,337;11,59106
 718,85; 6765,985;  227,252;56777,554;11,56269
 719,42; 6778,519;  251,790;56956,925;11,50994
 719,99; 6743,668;  222,405;56871,680;11,51164
 720,56; 6775,509;  244,328;57079,282;11,49149
 721,13; 6794,504;  243,867;57071,037;11,52730
 721,70; 6774,268;  235,405;56982,716;11,52277
 722,27; 6810,494;  254,867;57061,317;11,54029
 722,84; 6908,950;  280,867;57280,842;11,62822
 723,41; 6822,484;  234,251;57128,136;11,57986
 723,98; 6869,940;  241,328;57476,276;11,58141
 724,55; 6892,397;  262,328;57525,877;11,57817
 725,12; 6818,930;  207,636;57460,709;11,54749
 725,69; 6895,541;  237,020;57676,772;11,59218
 726,27; 6807,920;  233,020;57737,989;11,43362
 726,84; 6961,146;  240,636;58096,668;11,61592
 727,41; 6969,910;  251,251;57917,039;11,65103
 727,98; 6981,444;  263,020;58335,717;11,56899
 728,55; 7011,362;  283,020;58212,549;11,61470
 729,12; 6992,741;  230,328;58427,843;11,61976
 729,69; 7016,659;  268,559;58545,983;11,57927
 730,26; 7045,577;  275,251;58827,046;11,56297
 730,82; 7029,418;  245,712;58534,955;11,63801
 731,39; 7085,490;  244,097;58687,249;11,70607
 731,96; 7106,793;  238,866;58878,312;11,71213
 732,53; 7161,327;  269,251;59284,914;11,67838
 733,10; 7226,475;  270,558;59342,284;11,77537
 733,67; 7238,393;  277,097;59617,578;11,73111
 734,24; 7158,158;  258,020;59095,872;11,72738
 734,81; 7239,383;  285,097;59304,397;11,78307
 735,38; 7230,148;  263,097;59005,075;11,86043
 735,95; 7206,143;  264,789;58936,215;11,83089
 736,52; 7229,907;  280,096;59168,663;11,80163
 737,09; 7177,979;  276,635;58809,033;11,79064
 737,66; 7270,435;  316,712;59152,712;11,81882
 738,23; 7223,969;  248,866;59120,159;11,84805
 738,80; 7351,656;  294,635;59379,761;11,94382
 739,37; 7320,266;  293,866;59598,824;11,84791
 739,94; 7326,031;  277,865;59713,887;11,85841
 740,51; 7436,487;  326,250;59698,258;11,97574
 741,07; 7345,405;  267,865;59637,475;11,92115
 741,64; 7372,246;  288,404;59815,307;11,90024
 742,21; 7401,626;  274,096;59962,755;11,94118
 742,78; 7356,544;  246,327;59720,818;11,95507
 743,35; 7356,770;  261,634;60063,265;11,86445
 743,92; 7506,842;  301,942;60219,098;12,02477
 744,49; 7474,837;  279,250;60013,084;12,04608
 745,06; 7460,370;  268,250;60047,301;12,03117
 745,63; 7474,134;  252,865;60047,902;12,07670
 746,19; 7482,360;  258,942;59949,811;12,10138
 746,76; 7507,047;  272,557;60104,413;12,09137
 747,33; 7518,581;  253,865;60042,937;12,15057
 747,90; 7604,268;  273,173;60244,770;12,22428
 748,47; 7548,725;  286,096;60168,371;12,12818
 749,04; 7569,796;  282,942;60151,204;12,17148
 749,61; 7611,330;  291,480;60108,882;12,23699
 750,17; 7650,479;  278,634;60286,176;12,28486
 750,74; 7654,166;  284,557;60067,470;12,32728
 751,31; 7631,699;  257,634;59969,763;12,34936
 751,88; 7634,387;  244,788;59851,903;12,39718
 752,45; 7651,612;  272,480;59977,505;12,35932
 753,02; 7685,223;  267,557;59914,414;12,43597
 753,58; 7675,449;  256,403;59677,939;12,48545
 754,15; 7761,059;  268,326;59703,463;12,60657
 754,72; 7733,592;  247,172;59566,834;12,62047
 755,29; 7714,587;  243,634;59412,436;12,62651
 755,86; 7794,659;  261,480;59606,268;12,69392
 756,42; 7860,808;  268,710;59348,946;12,85049
 756,99; 7832,572;  222,864;59379,317;12,86370
 757,56; 7859,029;  245,787;59345,226;12,88209
 758,13; 7871,870;  201,480;59297,366;12,97957
 758,70; 7960,480;  227,326;59328,045;13,08470
 759,26; 7980,475;  219,787;59508,569;13,08964
 759,83; 8000,624;  217,249;59608,171;13,10533
 760,40; 8003,696;  215,556;59569,618;13,12149
 760,97; 8038,460;  191,941;59507,374;13,22846
 761,53; 8030,994;  167,787;59097,206;13,34343
 762,10; 8030,758;  188,864;59006,731;13,33250
 762,67; 8103,676;  215,556;58978,563;13,42362
 763,24; 8036,825;  171,864;58655,010;13,44825
 763,80; 8117,820;  215,941;58695,920;13,51211
 764,37; 8089,584;  221,633;58724,444;13,44884
 764,94; 8026,117;  202,479;58223,661;13,48411
 765,50; 8075,805;  200,941;58188,109;13,58036
 766,07; 8142,954;  250,941;58312,403;13,59252
 766,64; 8097,256;  222,402;57961,389;13,63871
 767,21; 8112,097;  218,479;57850,759;13,69652
 767,77; 8162,631;  245,017;57809,284;13,75439
 768,34; 8151,780;  254,633;57720,039;13,74244
 768,91; 8192,852;  249,171;57490,872;13,87744
 769,47; 8264,308;  242,094;57610,550;13,98367
 770,04; 8299,842;  264,094;57447,998;14,05246
 770,61; 8268,913;  238,556;57207,445;14,09604
 771,18; 8211,832;  229,017;57093,432;14,03833
 771,74; 8338,211;  251,786;57403,264;14,14911
 772,31; 8328,975;  254,632;57036,096;14,22003
 772,88; 8309,509;  219,555;56781,313;14,30287
 773,44; 8333,581;  231,325;56535,915;14,39005
 774,01; 8351,422;  242,017;56679,516;14,36882
 774,58; 8392,801;  224,786;56336,041;14,55682
 775,14; 8464,873;  214,171;56509,181;14,65619
 775,71; 8475,253;  233,863;56373,936;14,68005
 776,27; 8480,863;  273,632;56323,307;14,64278
 776,84; 8614,704;  278,171;56319,216;14,87576
 777,41; 8541,392;  255,324;56158,587;14,82215
 777,97; 8525,233;  248,324;55869,034;14,88098
 778,54; 8533,151;  248,632;55862,944;14,89638
 779,11; 8583,300;  258,170;55932,391;14,95329
 779,67; 8590,218;  230,093;55868,993;15,02568
 780,24; 8576,444;  253,863;55591,825;15,03955
 780,80; 8642,131;  263,401;55479,273;15,17450
 781,37; 8623,203;  252,939;55529,951;15,14239
 781,94; 8615,736;  254,862;55312,629;15,18564
 782,50; 8675,116;  256,170;55101,000;15,35048
 783,07; 8724,265;  272,401;55288,525;15,36252
 783,63; 8660,721;  230,247;55059,588;15,37584
 784,20; 8718,101;  255,478;55068,112;15,43918
 784,77; 8697,250;  249,401;54868,560;15,46682
 785,33; 8647,398;  226,170;54638,085;15,47681
 785,90; 8716,086;  246,554;54549,609;15,59679
 786,46; 8743,542;  265,939;54460,518;15,64290
 787,03; 8776,768;  237,016;54258,582;15,80804
 787,59; 8845,148;  245,708;54143,568;15,95507
 788,16; 8858,527;  241,785;54108,708;15,99635
 788,73; 8914,676;  245,400;54001,078;16,12718
 789,29; 8890,671;  241,631;53561,988;16,22090
 789,86; 8910,435;  246,016;53556,281;16,25282
 790,42; 8907,969;  255,093;53430,575;16,27230
 790,99; 8913,656;  254,246;53023,484;16,40996
 791,55; 8907,959;  236,016;53114,009;16,39991
 792,12; 8978,184;  259,092;53020,149;16,52562
 792,68; 8935,795;  239,939;52791,366;16,54733
 793,25; 9021,867;  247,015;52456,275;16,80708
 793,81; 9027,631;  277,400;52162,646;16,86458
 794,38; 8916,934;  221,708;51920,940;16,81887
 794,94; 8994,544;  227,323;51778,464;17,00684
 795,51; 8981,000;  243,708;51502,220;17,04555
 796,07; 8968,226;  253,015;51154,283;17,12180
 796,64; 9045,837;  272,477;51359,653;17,17331
 797,20; 9004,062;  240,938;50841,024;17,31840
 797,77; 8955,980;  231,246;50515,472;17,35084
 798,33; 8978,591;  230,861;50318,612;17,46481
 798,90; 8952,047;  267,554;50350,290;17,34029
 799,46; 8953,350;  243,092;49905,892;17,53880
 800,03; 8979,268;  251,246;49702,570;17,64972
 800,59; 9005,109;  264,246;49447,556;17,77201
 801,15; 8996,873;  256,169;49249,696;17,84053
 801,72; 8999,638;  253,246;48855,452;17,99587
 802,28; 8952,248;  285,707;48559,976;17,95271
 802,85; 8950,166;  252,861;48411,885;18,05955
 803,41; 8933,930;  252,553;48186,025;18,11130
 803,98; 8975,464;  238,861;47748,858;18,38898
 804,54; 8969,920;  241,938;47473,921;18,47897
 805,11; 8959,146;  251,168;47388,676;18,47356
 805,67; 8983,602;  264,322;47262,739;18,55228
 806,23; 8927,520;  257,015;46777,571;18,63801
 806,80; 8958,977;  271,091;46658,327;18,72904
 807,36; 8991,357;  276,399;46582,928;18,82015
 807,93; 9049,352;  277,322;46312,914;19,05489
 808,49; 8949,500;  234,784;45881,900;19,09149
 809,05; 8922,803;  223,399;45730,810;19,11646
 809,62; 8984,183;  256,707;45606,565;19,24477
 810,18; 9006,793;  257,399;45514,320;19,33272
 810,74; 8964,019;  234,322;45219,614;19,40567
 811,31; 8961,475;  232,553;44936,677;19,52599
 811,87; 8952,009;  234,860;44874,894;19,52765
 812,44; 9070,619;  272,783;44842,726;19,73939
 813,00; 9033,845;  212,168;44537,251;19,90222
 813,56; 9094,532;  244,552;44600,699;19,95209
 814,13; 9133,912;  239,937;44506,223;20,09198
 814,69; 9092,445;  247,860;44407,440;20,02869
 815,25; 9085,748;  219,245;43855,965;20,31890
 815,82; 9117,743;  256,783;43796,335;20,35152
 816,38; 9091,507;  262,783;43605,706;20,36947
 816,94; 9067,964;  220,245;43263,154;20,55558
 817,51; 9048,574;  215,629;43108,832;20,59288
 818,07; 9015,107;  223,091;42865,588;20,61797
 818,63; 9014,333;  240,398;42571,497;20,72692
 819,20; 9048,790;  235,398;42559,791;20,82343
 819,76; 8961,246;  223,552;42053,854;20,88843
 820,32; 8999,395;  272,244;42024,378;20,90229
 820,89; 8943,698;  255,167;41769,980;20,92875
 821,45; 8912,231;  234,475;41470,120;21,04431
 822,01; 8902,918;  249,629;41212,490;21,12472
 822,57; 8899,452;  259,783;41085,092;21,16253
 823,14; 8877,755;  225,475;40882,693;21,28104
 823,70; 8851,134;  218,706;40583,218;21,38618
 824,26; 8859,898;  228,936;40340,127;21,51759
 824,82; 8859,663;  252,552;40181,883;21,55586
 825,39; 8810,735;  227,859;39873,023;21,64924
 825,95; 8857,422;  256,398;39937,778;21,67521
 826,51; 8836,878;  249,552;39501,918;21,87722
 827,08; 8878,258;  270,244;39705,827;21,82804
 827,64; 8885,253;  260,936;39398,275;22,03603
 828,20; 8870,863;  233,859;39124,799;22,20827
 828,76; 8908,474;  245,474;39040,478;22,33019
 829,32; 8927,392;  254,321;38899,233;22,44298
 829,89; 8874,233;  212,321;38687,604;22,51293
 830,45; 8937,074;  229,936;38682,359;22,64393
 831,01; 8981,761;  221,936;38457,576;22,91011
 831,57; 8933,987;  234,628;38340,178;22,82964
 832,14; 9002,290;  231,167;38418,087;22,96892
 832,70; 8988,054;  232,705;38101,304;23,12034
 833,26; 8932,587;  220,320;37979,213;23,07342
 833,82; 8992,275;  230,705;37849,122;23,29064
 834,38; 9011,962;  225,320;37884,954;23,33172
 834,95; 9034,726;  213,936;37765,633;23,48973
 835,51; 8999,490;  192,166;37620,619;23,53109
 836,07; 9051,332;  232,859;37709,990;23,53028
 836,63; 9119,019;  244,320;37710,437;23,68727
 837,19; 9091,475;  231,782;37494,116;23,77654
 837,75; 8985,701;  204,012;37174,563;23,75320
 838,32; 9096,927;  244,935;37201,473;23,95244
 838,88; 9164,230;  252,320;37381,074;24,00272
 839,44; 9169,224;  237,243;37208,445;24,15929
 840,00; 9191,604;  233,551;37106,585;24,29432
 840,56; 9119,522;  210,089;36842,340;24,32128
 841,12; 9097,825;  211,474;36801,326;24,28638
 841,68; 9156,128;  209,012;36654,851;24,54907
 842,25; 9211,892;  217,320;36602,222;24,72062
 842,81; 9165,348;  215,012;36276,054;24,81996
 843,37; 9179,189;  205,704;36358,963;24,82068
 843,93; 9251,415;  223,320;36140,565;25,13582
 844,49; 9350,641;  230,396;36145,859;25,39364
 845,05; 9255,790;  204,089;36008,460;25,28099
 845,61; 9346,631;  240,858;36106,831;25,38833
 846,17; 9260,549;  225,781;35977,586;25,27080
 846,73; 9378,852;  228,396;35902,495;25,65014
 847,29; 9327,308;  204,012;35749,866;25,66627
 847,86; 9313,072;  213,242;35627,083;25,69569
 848,42; 9295,144;  204,858;35443,531;25,79634
 848,98; 9284,601;  219,704;35396,055;25,76986
 849,54; 9367,442;  211,242;35299,195;26,09500
 850,10; 9343,745;  226,627;35297,489;25,99628
 850,66; 9382,893;  202,088;35152,090;26,26840
 851,22; 9383,504;  196,627;35074,461;26,34016
 851,78; 9439,422;  250,242;35120,447;26,35253
 852,34; 9376,648;  227,011;34792,126;26,47072
 852,90; 9371,027;  210,165;34638,420;26,60856
 853,46; 9319,022;  207,703;34422,483;26,62978
 854,02; 9476,402;  222,473;34570,776;26,94144
 854,58; 9422,474;  206,550;34248,070;27,07260
 855,14; 9393,546;  188,088;34113,672;27,13426
 855,70; 9387,156;  181,088;34010,119;27,21351
 856,26; 9469,689;  230,857;33985,413;27,37062
 856,82; 9420,146;  211,011;33795,476;27,42082
 857,38; 9436,141;  232,780;33755,001;27,45451
 857,94; 9402,674;  223,318;33563,141;27,53271
 858,50; 9454,669;  227,472;33468,435;27,75851
 859,06; 9430,203;  212,857;33216,113;27,92860
 859,62; 9413,275;  238,165;33200,638;27,83502
 860,18; 9370,577;  211,703;32975,239;27,95447
 860,74; 9319,649;  191,164;32877,995;27,92710
 861,30; 9329,337;  198,703;32637,750;28,14705
 861,86; 9402,639;  234,241;32729,967;28,21417
 862,42; 9413,711;  211,241;32530,722;28,47345
 862,98; 9469,014;  233,549;32460,324;28,65774
 863,54; 9380,855;  232,703;32223,233;28,59644
 864,10; 9485,311;  218,780;32280,296;28,90235
 864,66; 9419,614;  197,164;32030,436;28,97110
 865,22; 9409,301;  218,395;31993,114;28,92522
 865,78; 9452,066;  226,164;31765,024;29,25249
 866,34; 9455,984;  217,549;31711,471;29,33402
 866,90; 9446,363;  224,010;31595,842;29,39692
 867,45; 9433,051;  234,779;31383,982;29,52972
 868,01; 9397,046;  225,010;31204,122;29,60716
 868,57; 9366,810;  220,856;30995,954;29,71868
 869,13; 9380,882;  209,933;30903,633;29,87893
 869,69; 9404,261;  210,702;30762,849;30,09137
 870,25; 9405,410;  195,010;30629,220;30,26331
 870,81; 9449,020;  223,625;30592,745;30,37755
 871,37; 9427,554;  225,087;30508,423;30,38789
 871,93; 9415,857;  240,317;30317,409;30,50674
 872,49; 9380,775;  224,779;30062,395;30,68608
 873,04; 9353,770;  209,471;29764,382;30,94003
 873,60; 9354,611;  195,702;29773,906;30,96506
 874,16; 9356,375;  228,471;29725,815;30,94483
 874,72; 9383,760;  209,394;29565,508;31,25198
 875,28; 9400,760;  227,240;29508,892;31,32856
 875,84; 9420,221;  215,625;29468,508;31,46560
 876,40; 9406,529;  221,163;29483,277;31,38996
 876,95; 9454,606;  228,779;29318,585;31,71498
 877,51; 9524,144;  241,625;29324,046;31,91797
 878,07; 9521,837;  256,240;29308,892;31,89243
 878,63; 9522,837;  221,702;29386,123;31,89206
 879,19; 9604,606;  236,317;29306,892;32,22602
 879,75; 9658,221;  231,317;29315,585;32,41238
 880,30; 9690,452;  218,010;29349,738;32,51589
 880,86; 9848,760;  260,933;29409,200;32,89330
 881,42; 9808,144;  217,240;29516,585;32,73419
 881,98; 9936,760;  230,702;29638,585;33,00495
 882,54;10021,683;  214,394;29673,585;33,29110
 883,09;10068,760;  239,779;29802,200;33,24823
 883,65;10172,221;  208,317;29926,815;33,52762
 884,21;10278,606;  241,702;30083,892;33,63327
 884,77;10303,452;  218,471;30170,277;33,67069
 885,32;10392,375;  213,240;30367,662;33,75669
 885,88;10477,067;  256,702;30528,354;33,76217
 886,44;10627,606;  226,394;30561,277;34,28796
 887,00;10615,298;  239,856;30602,200;34,17207
 887,56;10697,837;  223,163;30764,969;34,29618
 888,11;10774,529;  210,317;30778,815;34,55914
 888,67;10894,837;  252,317;31034,662;34,57345
 889,23;10948,221;  237,471;31000,738;34,81669
 889,79;10949,990;  212,702;30827,354;35,07238
 890,34;11021,837;  218,702;30761,738;35,37020
 890,90;11067,529;  276,702;31002,738;35,11949
 891,46;11008,683;  214,625;30871,892;35,20881
 892,01;11087,375;  241,317;30809,123;35,48196
 892,57;11034,913;  249,317;30782,046;35,32470
 893,13;10936,375;  211,471;30613,508;35,27693
 893,69;10970,298;  211,548;30430,200;35,60301
 894,24;10927,913;  224,471;30329,738;35,55339
 894,80;10954,529;  227,702;30158,200;35,83912
 895,36;10939,606;  225,394;30082,200;35,88532
 895,91;10893,375;  223,856;29868,815;35,99101
 896,47;10914,221;  225,548;29737,815;36,21773
 897,03;10865,990;  215,394;29583,431;36,26595
 897,58;10864,683;  230,087;29458,969;36,38386
 898,14;10867,298;  234,163;29259,354;36,63416
 898,70;10825,452;  203,548;29083,277;36,77979
 899,25;10860,837;  218,240;29094,815;36,85547
 899,81;10813,452;  238,702;28850,123;36,95989
 900,37;10767,452;  202,471;28737,200;37,02499
 900,92;10796,221;  223,317;28698,892;37,12973
 901,48;10825,990;  218,087;28523,277;37,47689
 902,03;10724,298;  210,010;28373,277;37,33334
 902,59;10774,606;  215,394;28163,969;37,78086
 903,15;10784,144;  235,317;28146,277;37,79457
 903,70;10720,298;  234,163;27831,431;37,99700
 904,26;10689,913;  207,010;27701,046;38,12792
 904,82;10753,760;  216,856;27670,200;38,38113
 905,37;10732,067;  218,010;27592,354;38,40844
 905,93;10693,452;  218,625;27372,892;38,57525
 906,48;10758,298;  227,548;27292,123;38,90972
 907,04;10708,221;  232,317;27288,046;38,71973
 907,60;10679,837;  207,010;26962,738;39,14237
 908,15;10644,144;  206,087;26884,431;39,12558
 908,71;10722,683;  240,087;26822,508;39,43432
 909,26;10643,837;  211,471;26718,431;39,35708
 909,82;10617,067;  234,625;26520,431;39,49828
 910,37;10634,683;  255,010;26494,738;39,55709
 910,93;10605,837;  204,702;26271,815;39,90137
 911,48;10524,683;  205,933;26016,431;39,97889
 912,04;10522,529;  208,779;25987,969;40,00804
 912,60;10565,298;  217,779;25989,431;40,15078
 913,15;10454,683;  222,548;25880,969;39,87827
 913,71;10426,606;  204,702;25663,738;40,15040
 914,26;10421,529;  196,548;25538,354;40,34827
 914,82;10428,298;  218,317;25452,431;40,46102
 915,37;10452,990;  205,779;25397,431;40,67701
 915,93;10452,067;  239,010;25291,969;40,76587
 916,48;10385,837;  205,394;25086,431;40,91647
 917,04;10416,913;  228,702;25025,585;41,08666
 917,59;10425,067;  237,010;24963,046;41,20376
 918,15;10368,529;  187,548;24694,738;41,54283
 918,70;10379,683;  216,163;24653,738;41,58972
 919,26;10366,529;  216,702;24573,815;41,67089
 919,81;10343,529;  205,856;24446,277;41,82136
 920,37;10344,067;  212,625;24303,200;42,05563
 920,92;10396,529;  234,010;24199,200;42,40533
 921,48;10279,452;  203,317;23943,046;42,44419
 922,03;10353,298;  214,471;23948,123;42,71920
 922,59;10305,144;  201,779;23805,892;42,80341
 923,14;10302,990;  198,240;23665,046;43,05976
 923,69;10246,298;  228,625;23581,354;42,89723
 924,25;10288,990;  232,779;23595,508;43,04382
 924,80;10214,452;  216,087;23307,585;43,29890
 925,36;10234,683;  209,163;23299,892;43,41794
 925,91;10158,760;  211,856;23093,892;43,47036
 926,47;10151,375;  187,625;23053,046;43,57562
 927,02;10214,760;  232,010;22928,046;43,98455
 927,57;10081,529;  217,933;22757,200;43,76183
 928,13;10058,452;  203,625;22745,738;43,71740
 928,68;10089,760;  208,702;22598,431;44,13210
 929,24; 9964,452;  185,163;22383,046;44,05505
 929,79; 9965,067;  199,471;22287,200;44,21277
 930,34; 9936,144;  209,163;22196,123;44,23977
 930,90; 9954,221;  195,548;22095,815;44,55961
 931,45; 9942,760;  212,394;22056,738;44,54409
 932,01; 9890,298;  218,394;21929,354;44,54849
 932,56; 9847,683;  227,779;21786,969;44,62090
 933,11; 9907,144;  226,471;21769,662;44,93612
 933,67; 9815,221;  203,240;21552,585;45,02237
 934,22; 9813,913;  212,087;21467,354;45,17387
 934,77; 9745,913;  226,163;21440,046;44,87509
 935,33; 9702,837;  223,779;21228,431;45,12837
 935,88; 9687,221;  215,317;21155,200;45,23380
 936,43; 9671,298;  197,394;21104,200;45,31493
 936,99; 9630,452;  212,394;20907,277;45,50911
 937,54; 9588,144;  194,010;20763,431;45,67039
 938,09; 9571,221;  214,394;20733,123;45,60140
 938,65; 9528,375;  213,779;20592,354;45,70779
 939,20; 9497,683;  194,163;20559,354;45,68344
 939,75; 9478,221;  198,163;20358,200;46,03195
 940,31; 9508,067;  182,087;20308,969;46,33594
 940,86; 9487,067;  219,702;20218,046;46,34066
 941,41; 9543,144;  256,394;20175,354;46,62267
 941,96; 9427,452;  203,471;20056,662;46,46095
 942,52; 9416,452;  214,394;20002,738;46,50241
 943,07; 9371,067;  190,163;19846,431;46,70726
 943,62; 9374,990;  202,240;19760,585;46,89942
 944,18; 9364,529;  196,548;19663,969;47,09397
 944,73; 9390,298;  207,087;19558,046;47,45610
 945,28; 9345,990;  181,702;19285,046;47,97217
 945,83; 9406,683;  199,240;19313,662;48,17013
 946,39; 9445,529;  202,856;19304,508;48,38677
 946,94; 9429,913;  230,548;19179,123;48,54911
 947,49; 9386,452;  200,163;19056,277;48,71783
 948,04; 9440,913;  219,010;19013,508;49,06704
 948,59; 9384,837;  227,317;18957,354;48,89216
 949,15; 9326,760;  188,394;18849,277;48,97070
 949,70; 9334,221;  194,933;18773,738;49,19201
 950,25; 9361,529;  226,779;18670,892;49,52664
 950,80; 9253,375;  171,625;18547,046;49,42336
 951,36; 9237,913;  177,010;18350,046;49,85905
 951,91; 9258,144;  223,087;18425,200;49,63741
 952,46; 9152,990;  183,933;18200,738;49,78162
 953,01; 9190,837;  222,856;18321,277;49,55118
 953,56; 9072,837;  177,702;18106,662;49,61322
 954,11; 9067,144;  216,087;18032,892;49,67814
 954,67; 9096,990;  198,779;17954,969;50,11329
 955,22; 9027,683;  180,779;17802,431;50,20474
 955,77; 9079,144;  221,625;17822,969;50,32297
 956,32; 9000,913;  243,010;17689,354;50,19908
 956,87; 8971,606;  188,702;17499,585;50,73631
 957,42; 8940,760;  204,471;17490,123;50,54069
 957,98; 8944,221;  195,240;17383,354;50,90134
 958,53; 8977,298;  222,471;17341,969;51,13951
 959,08; 8891,221;  194,163;17226,815;51,06109
 959,63; 8866,298;  192,087;17128,123;51,21748
 960,18; 8866,683;  215,163;17113,277;51,19814
 960,73; 8840,375;  205,010;17021,277;51,35126
 961,28; 8817,913;  186,933;16850,815;51,79454
 961,83; 8854,452;  213,087;16829,277;52,00570
 962,39; 8793,067;  189,856;16719,508;52,04714
 962,94; 8798,221;  223,317;16656,815;52,17942
 963,49; 8730,221;  203,087;16471,662;52,41476
 964,04; 8754,067;  215,317;16481,508;52,49385
 964,59; 8713,375;  180,087;16306,892;52,91369
 965,14; 8669,760;  213,471;16273,200;52,65524
 965,69; 8591,529;  204,702;16118,046;52,70311
 966,24; 8588,529;  208,548;16067,354;52,84118
 966,79; 8558,837;  213,856;15941,662;53,05877
 967,34; 8466,913;  178,087;15834,046;52,94359
 967,89; 8470,837;  189,317;15766,508;53,16440
 968,44; 8495,221;  211,394;15739,123;53,34861
 968,99; 8456,144;  212,163;15617,277;53,51457
 969,55; 8405,990;  209,856;15543,585;53,45167
 970,10; 8393,529;  210,625;15387,354;53,91744
 970,65; 8381,452;  214,933;15328,815;54,03323
 971,20; 8324,683;  203,471;15221,892;54,07500
 971,75; 8253,990;  189,548;15016,892;54,38899
 972,30; 8244,529;  202,779;14988,354;54,38916
 972,85; 8241,529;  203,548;14955,662;54,48698
 973,40; 8148,452;  195,702;14768,354;54,57311
 973,95; 8187,837;  206,779;14719,200;54,99467
 974,50; 8169,683;  223,394;14604,046;55,25680
 975,05; 8126,221;  220,779;14528,277;55,25384
 975,60; 8094,606;  225,779;14499,892;55,12655
 976,15; 8072,298;  215,394;14385,815;55,44580
 976,70; 8091,837;  213,163;14295,585;55,94686
 977,25; 8056,067;  208,779;14246,431;55,90172
 977,80; 8006,144;  199,933;14070,969;56,27706
 978,35; 7904,298;  215,163;13921,200;56,10035
 978,89; 7896,529;  196,010;13858,892;56,36087
 979,44; 7928,529;  205,317;13801,046;56,80616
 979,99; 7822,529;  193,625;13576,815;57,00363
 980,54; 7846,452;  235,779;13537,431;57,21600
 981,09; 7847,606;  218,779;13386,431;57,93612
 981,64; 7743,837;  216,471;13246,123;57,77104
 982,19; 7741,452;  248,240;13218,815;57,77085
 982,74; 7701,990;  226,702;13068,892;58,20883
 983,29; 7605,221;  195,240;12960,431;58,04834
 983,84; 7578,683;  212,856;12819,046;58,43024
 984,39; 7631,606;  247,471;12780,277;58,91845
 984,94; 7491,529;  190,471;12605,277;58,80928
 985,49; 7454,990;  229,010;12594,200;58,43809
 986,03; 7442,913;  240,856;12523,431;58,63638
 986,58; 7351,606;  246,240;12336,354;58,77005
 987,13; 7305,990;  218,240;12182,662;59,24022
 987,68; 7209,144;  230,163;12091,585;58,83764
 988,23; 7224,529;  229,933;12044,508;59,20311
 988,78; 7117,221;  214,317;11896,508;59,08912
 989,33; 7099,529;  228,471;11790,969;59,42537
 989,88; 7062,837;  235,394;11768,508;59,19861
 990,42; 6956,221;  219,625;11560,354;59,40179
 990,97; 6867,298;  216,856;11451,354;59,19661
 991,52; 6852,913;  239,779;11399,585;59,25851
 992,07; 6792,606;  244,394;11279,277;59,34102
 992,62; 6767,990;  230,163;11193,431;59,63393
 993,17; 6671,760;  230,471;11045,662;59,55779
 993,71; 6646,760;  222,471;10962,046;59,81883
 994,26; 6562,298;  199,471;10790,431;60,07791
 994,81; 6536,144;  232,779;10751,969;59,92253
 995,36; 6445,760;  218,702;10593,046;60,02363
 995,91; 6434,990;  223,317;10579,277;59,98163
 996,45; 6369,221;  228,548;10423,046;60,23517
 997,00; 6302,683;  199,471;10229,431;60,84981
 997,55; 6303,913;  216,702;10290,815;60,42429
 998,10; 6228,452;  247,317;10106,662;60,66463
 998,65; 6195,529;  218,779;10045,662;60,82041
 999,19; 6135,837;  237,317; 9846,277;61,38562
 999,74; 6091,375;  252,779; 9788,892;61,22616
1000,29; 6039,298;  227,933; 9701,815;61,34091
1000,84; 5913,760;  216,317; 9565,969;60,93748
1001,38; 5877,529;  220,702; 9439,508;61,36182
1001,93; 5868,067;  237,087; 9388,585;61,53070
1002,48; 5758,452;  203,087; 9251,662;61,39492
1003,03; 5769,375;  221,856; 9196,969;61,81002
1003,57; 5665,990;  231,087; 9100,738;61,27528
1004,12; 5660,144;  245,010; 8986,123;61,95017
1004,67; 5581,683;  214,779; 8895,277;61,82714
1005,22; 5494,913;  210,933; 8746,969;61,90204
1005,76; 5426,990;  205,548; 8598,431;62,21274
1006,31; 5419,606;  242,625; 8582,508;62,07498
1006,86; 5340,760;  211,010; 8482,738;62,01545
1007,40; 5285,067;  196,471; 8278,046;62,96540
1007,95; 5227,990;  215,163; 8231,277;62,53438
1008,50; 5163,298;  218,933; 8077,508;62,91682
1009,04; 5098,990;  225,625; 8005,123;62,64370
1009,59; 5002,221;  231,625; 7830,585;62,77960
1010,14; 4964,683;  211,471; 7737,277;63,15884
1010,68; 4906,452;  219,087; 7635,585;63,20187
1011,23; 4825,683;  200,548; 7480,662;63,53108
1011,78; 4807,606;  229,856; 7416,508;63,69795
1012,32; 4769,067;  217,240; 7308,738;64,18710
1012,87; 4732,913;  244,933; 7266,738;63,91491
1013,42; 4625,452;  209,240; 7137,046;63,74618
1013,96; 4649,606;  242,163; 7109,815;64,17684
1014,51; 4550,452;  195,779; 6996,431;64,03317
1015,06; 4552,529;  196,471; 7019,431;63,84411
1015,60; 4658,913;  260,702; 7074,738;64,54635
1016,15; 4578,683;  215,394; 7027,354;64,05335
1016,69; 4601,452;  210,702; 7032,892;64,35983
1017,24; 4614,067;  201,625; 7041,277;64,51267
1017,79; 4698,760;  236,625; 7133,046;64,70218
1018,33; 4624,144;  196,856; 7086,431;64,26069
1018,88; 4724,990;  217,856; 7119,123;65,30880
1019,42; 4710,606;  221,625; 7189,431;64,42460
1019,97; 4740,913;  212,010; 7144,431;65,32932
1020,51; 4794,144;  216,317; 7204,585;65,50732
1021,06; 4772,452;  211,240; 7194,277;65,31845
1021,61; 4742,913;  190,087; 7111,277;65,78098
1022,15; 4727,760;  171,856; 7116,969;65,59870
1022,70; 4746,452;  215,856; 7101,815;65,79470
1023,24; 4764,913;  204,548; 7089,123;66,24033
1023,79; 4733,760;  220,163; 7016,892;66,40836
1024,33; 4708,837;  218,087; 7014,508;66,07522
1024,88; 4663,760;  219,240; 6898,200;66,54508
1025,42; 4590,375;  201,779; 6767,585;66,84018
1025,97; 4548,298;  203,933; 6709,815;66,77596
1026,51; 4470,221;  173,087; 6576,123;67,11089
1027,06; 4457,144;  209,317; 6514,508;67,37032
1027,60; 4415,990;  207,702; 6401,508;67,94350
1028,15; 4407,221;  221,087; 6325,200;68,57891
1028,69; 4282,375;  174,317; 6191,277;68,27464
1029,24; 4268,452;  207,933; 6127,738;68,59210
1029,78; 4224,144;  205,779; 6030,892;68,98347
1030,33; 4112,913;  177,933; 5875,969;69,05854
1030,87; 4106,067;  206,471; 5843,354;69,18001
1031,42; 4019,760;  194,933; 5743,123;68,93828
1031,96; 4026,375;  212,317; 5674,431;69,82751
1032,51; 3963,067;  199,317; 5561,277;70,19355
1033,05; 3956,529;  208,163; 5559,431;70,04631
1033,60; 3814,067;  174,933; 5420,508;69,37532
1034,14; 3789,529;  199,933; 5322,815;70,06985
1034,69; 3804,375;  199,317; 5278,585;70,97594
1035,23; 3742,837;  204,702; 5203,662;70,77742
1035,77; 3693,452;  196,087; 5102,969;71,27469
1036,32; 3645,837;  180,779; 5061,277;70,99803
1036,86; 3622,760;  198,163; 5007,200;71,21169
1037,41; 3606,837;  204,625; 4916,046;72,21200
1037,95; 3534,913;  183,933; 4840,200;71,96710
1038,50; 3488,837;  196,240; 4790,200;71,67229
1039,04; 3491,760;  203,779; 4734,585;72,56945
1039,58; 3412,221;  192,010; 4634,892;72,48023
1040,13; 3349,067;  201,471; 4572,431;72,01156
1040,67; 3358,990;  223,394; 4554,431;72,39828
1041,21; 3318,837;  228,317; 4467,892;72,89691
1041,76; 3230,837;  176,471; 4386,431;72,55094
1042,30; 3211,067;  210,471; 4333,738;72,77229
1042,85; 3177,529;  207,856; 4276,046;72,99740
1043,39; 3095,837;  190,010; 4189,123;72,66178
1043,93; 3090,913;  217,394; 4146,431;73,13547
1044,48; 3051,375;  205,548; 4087,123;73,31629
1045,02; 3011,760;  202,856; 4031,046;73,37419
1045,56; 2987,760;  210,548; 3970,969;73,85374
1046,11; 2962,837;  210,394; 3918,277;74,23218
1046,65; 2916,067;  208,779; 3887,123;73,60074
1047,19; 2852,683;  198,779; 3772,354;74,26467
1047,74; 2816,452;  182,856; 3709,354;74,68021
1048,28; 2795,990;  210,779; 3699,123;74,10999
1048,82; 2792,298;  222,625; 3665,508;74,63725
1049,37; 2737,452;  205,240; 3596,738;74,66351
1049,91; 2710,067;  197,548; 3556,892;74,79196
1050,45; 2672,913;  228,317; 3497,738;74,77153
1050,99; 2656,221;  207,856; 3457,277;75,34774
1051,54; 2603,837;  196,933; 3406,969;74,98057
1052,08; 2623,990;  215,010; 3390,508;75,86151
1052,62; 2576,990;  221,548; 3324,277;75,91518
1053,16; 2519,144;  192,702; 3260,046;75,84549
1053,71; 2496,606;  215,856; 3214,123;76,06893
1054,25; 2430,144;  223,779; 3169,892;74,89071
1054,79; 2419,221;  211,933; 3115,354;76,02371
1055,33; 2360,760;  183,163; 3065,123;75,55957
1055,88; 2354,375;  227,317; 3055,123;75,21937
1056,42; 2330,990;  234,702; 3005,662;75,65208
1056,96; 2308,144;  221,240; 2946,508;76,57612
1057,50; 2263,375;  201,240; 2901,738;76,36127
1058,05; 2229,375;  212,625; 2862,354;76,11156
1058,59; 2222,067;  228,163; 2863,431;75,66230
1059,13; 2137,913;  196,163; 2778,892;75,18211
1059,67; 2145,990;  229,163; 2767,354;75,51943
1060,21; 2110,452;  218,240; 2707,815;76,00540
1060,76; 2091,683;  221,779; 2650,815;76,98130
1061,30; 2072,913;  232,010; 2631,815;76,71054
1061,84; 2047,067;  211,471; 2589,585;77,18707
1062,38; 1970,375;  205,317; 2537,738;75,67491
1062,92; 2022,837;  243,317; 2551,277;77,10357
1063,46; 1963,837;  229,933; 2483,585;76,93752
1064,01; 1936,375;  208,317; 2434,892;77,61058
1064,55; 1916,683;  217,163; 2405,431;77,66507
1065,09; 1863,221;  186,779; 2359,815;77,14745
1065,63; 1872,683;  232,471; 2386,508;76,14595
1066,17; 1853,067;  234,010; 2342,508;76,78725
1066,71; 1839,375;  230,087; 2316,969;77,11447
1067,25; 1808,375;  212,471; 2262,969;77,83006
1067,80; 1787,529;  233,163; 2246,123;77,21791
1068,34; 1780,913;  237,471; 2246,585;76,82206
1068,88; 1705,298;  213,087; 2162,431;76,54941
1069,42; 1750,144;  248,779; 2180,585;77,71824
1069,96; 1679,221;  218,625; 2115,738;76,99045
1070,50; 1719,221;  245,317; 2124,123;78,44897
1071,04; 1657,221;  212,394; 2064,354;78,01611
1071,58; 1649,760;  221,548; 2029,123;79,01257
1072,12; 1625,375;  212,625; 2019,892;78,17051
1072,66; 1617,990;  211,240; 1998,354;78,71632
1073,21; 1606,683;  230,163; 2000,738;77,74419
1073,75; 1604,529;  223,163; 1961,585;79,46092
1074,29; 1555,529;  230,087; 1930,277;77,95846
1074,83; 1564,760;  228,163; 1910,046;79,47024
1075,37; 1542,375;  226,856; 1907,508;78,27434
1075,91; 1521,760;  233,240; 1899,738;77,31897
1076,45; 1499,760;  229,317; 1849,662;78,40570
1076,99; 1490,529;  222,933; 1827,431;79,00266
1077,53; 1448,067;  207,625; 1766,200;79,58823
1078,07; 1455,529;  232,933; 1774,738;79,29638
1078,61; 1446,067;  223,087; 1751,123;80,03609
1079,15; 1401,144;  220,548; 1742,431;77,57471
1079,69; 1394,683;  234,933; 1710,200;78,61287
1080,23; 1398,375;  232,240; 1702,046;79,33937
1080,77; 1423,913;  252,240; 1702,354;80,79872
1081,31; 1363,144;  217,240; 1635,969;80,76976
1081,85; 1360,067;  233,240; 1652,508;79,39497
1082,39; 1336,298;  221,394; 1597,354;81,02737
1082,93; 1318,683;  216,010; 1611,892;78,99468
1083,47; 1291,837;  207,625; 1568,123;79,69225
1084,01; 1310,990;  236,625; 1576,046;80,21117
1084,55; 1275,606;  216,163; 1516,738;81,45953
1085,09; 1298,683;  227,317; 1543,277;81,41324
1085,63; 1257,683;  219,394; 1525,662;79,48514
1086,17; 1249,452;  213,394; 1487,892;81,29143
1086,71; 1238,298;  214,087; 1471,277;81,46829
1087,24; 1250,375;  237,625; 1468,662;82,26807
1087,78; 1224,606;  235,702; 1460,662;80,72951
1088,32; 1178,606;  221,548; 1420,662;79,81377
1088,86; 1200,375;  241,702; 1424,508;81,05076
1089,40; 1175,452;  226,779; 1386,431;81,80671
1089,94; 1163,837;  193,702; 1343,815;84,35121
1090,48; 1151,913;  233,779; 1347,969;82,40375
1091,02; 1158,529;  229,933; 1353,431;82,65222
1091,56; 1122,913;  238,702; 1347,277;79,76109
1092,10; 1117,144;  207,240; 1278,892;84,90666
1092,63; 1121,144;  235,317; 1306,662;82,68369
1093,17; 1117,144;  223,625; 1280,969;84,50599
1093,71; 1092,990;  211,548; 1279,815;82,51140
1094,25; 1097,529;  246,010; 1260,662;83,92230
1094,79; 1067,144;  223,163; 1235,123;83,40064
1095,33; 1057,683;  229,394; 1229,585;82,81308
1095,87; 1049,221;  223,471; 1204,508;84,17118
1096,40; 1018,221;  200,548; 1177,277;83,71546
1096,94; 1031,529;  220,087; 1190,508;83,61754
1097,48; 1027,375;  224,240; 1172,354;84,70870
1098,02;  983,606;  222,087; 1139,277;83,02739
1098,56;  949,837;  200,548; 1117,354;81,72816
1099,10;  945,837;  202,933; 1101,892;82,64040
1099,63;  966,144;  211,933; 1091,969;85,70230
1100,17;  973,913;  228,471; 1098,431;85,68700
1100,71;  976,837;  240,779; 1111,508;84,53351

