
Integration time [ms]: 115,000
Averaging Nr. [scans]: 13
Smoothing Nr. [pixels]: 0
Data measured with spectrometer [name]: 2009305U1
Wave   ;Sample   ;Dark     ;Reference;Reflectance
[nm]   ;[counts] ;[counts] ;[counts] ;[%]

 175,72;  187,664;  176,239;  192,535;70,10526
 176,32;  211,747;  211,934;  210,654; 0,00000
 176,92;  232,026;  225,163;  228,142;230,36477
 177,52;  244,167;  252,086;  251,024; 0,00000
 178,12;  219,248;  223,549;  212,736; 0,00000
 178,72;  249,794;  243,857;  232,990; 0,00000
 179,32;  232,275;  236,780;  232,605; 0,00000
 179,92;  231,608;  232,933;  233,930; 0,00000
 180,52;  231,422;  234,084;  244,758;-24,94579
 181,12;  230,897;  235,010;  240,995;-68,71370
 181,73;  259,471;  253,163;  254,844;375,31316
 182,33;  300,510;  298,008;  297,582; 0,00000
 182,93;  252,124;  245,240;  250,595;128,54838
 183,53;  227,798;  227,319;  217,483; 0,00000
 184,13;  228,685;  231,011;  221,458; 0,00000
 184,73;  251,262;  249,935;  249,706; 0,00000
 185,33;  260,468;  222,716;  326,527;36,36599
 185,93;  267,971;  214,717;  353,127;38,47545
 186,53;  272,448;  241,332;  365,557;25,04786
 187,13;  306,729;  264,099;  400,362;31,28527
 187,73;  255,664;  220,102;  360,559;25,31893
 188,33;  257,991;  227,718;  355,547;23,68261
 188,93;  269,312;  231,182;  389,767;24,04389
 189,53;  291,865;  240,799;  397,281;32,63352
 190,13;  307,394;  271,649;  418,569;24,32957
 190,73;  257,698;  217,185;  353,690;29,67898
 191,34;  285,878;  254,183;  378,073;25,58335
 191,94;  269,300;  227,565;  351,476;33,68132
 192,54;  276,780;  237,868;  391,072;25,39875
 193,14;  276,429;  248,715;  367,171;23,39632
 193,74;  267,400;  249,561;  377,015;13,99580
 194,34;  271,653;  235,099;  373,562;26,39959
 194,94;  239,541;  206,792;  326,435;27,37201
 195,54;  206,651;  196,177;  306,559; 9,48850
 196,14;  244,163;  218,484;  345,393;20,23439
 196,74;  241,504;  211,331;  332,860;24,82770
 197,34;  226,531;  187,252;  341,491;25,46643
 197,94;  252,409;  225,715;  366,581;18,94974
 198,54;  254,614;  217,484;  375,036;23,56693
 199,14;  236,251;  197,636;  374,578;21,82360
 199,74;  233,140;  198,097;  374,544;19,85991
 200,34;  227,514;  186,097;  382,388;21,09973
 200,94;  269,708;  223,637;  423,813;23,01553
 201,54;  243,319;  202,328;  426,059;18,32155
 202,14;  264,295;  211,635;  454,454;21,68674
 202,74;  250,330;  204,328;  459,386;18,03598
 203,34;  239,206;  195,558;  484,506;15,10589
 203,94;  217,892;  163,635;  488,134;16,72018
 204,54;  289,281;  228,869;  576,728;17,36707
 205,14;  253,702;  199,405;  583,682;14,12958
 205,74;  294,736;  218,481;  689,034;16,20549
 206,34;  270,319;  197,405;  695,130;14,64943
 206,94;  283,209;  203,328;  758,320;14,39326
 207,54;  269,971;  180,251;  808,972;14,27026
 208,14;  305,258;  195,097;  884,612;15,97658
 208,74;  305,508;  194,559;  973,216;14,24876
 209,34;  315,015;  193,636; 1035,192;14,42320
 209,94;  342,996;  202,328; 1138,209;15,03057
 210,54;  347,301;  198,866; 1278,087;13,75389
 211,14;  376,142;  209,174; 1387,429;14,17076
 211,73;  369,446;  201,175; 1481,066;13,14734
 212,33;  399,050;  218,791; 1621,615;12,84977
 212,93;  405,885;  196,636; 1687,436;14,03599
 213,53;  387,397;  181,790; 1751,490;13,09848
 214,13;  407,597;  176,403; 1840,494;13,89309
 214,73;  408,756;  178,481; 1882,146;13,51644
 215,33;  363,227;  156,405; 1881,671;11,98784
 215,93;  420,015;  188,327; 2004,541;12,75663
 216,53;  376,404;  142,559; 2120,685;11,82155
 217,13;  464,179;  210,866; 2330,389;11,95141
 217,73;  450,715;  181,250; 2511,243;11,56506
 218,33;  425,104;  162,403; 2717,931;10,27971
 218,93;  481,707;  172,632; 3034,286;10,80055
 219,53;  501,531;  174,942; 3329,667;10,35239
 220,13;  495,328;  151,557; 3630,169; 9,88241
 220,73;  549,312;  167,405; 4022,604; 9,90629
 221,32;  575,354;  178,251; 4438,831; 9,32039
 221,92;  626,959;  192,249; 4839,758; 9,35360
 222,52;  638,370;  172,558; 5288,171; 9,10571
 223,12;  690,344;  167,481; 5667,302; 9,50692
 223,72;  728,002;  185,019; 6101,038; 9,17818
 224,32;  760,612;  176,865; 6457,959; 9,29372
 224,92;  784,360;  175,404; 6750,553; 9,26149
 225,52;  817,867;  188,020; 7141,364; 9,05819
 226,12;  841,895;  182,327; 7406,758; 9,12968
 226,72;  862,043;  155,174; 7753,787; 9,30261
 227,31;  863,022;  151,251; 8116,765; 8,93566
 227,91;  934,644;  174,405; 8483,173; 9,14984
 228,51;  979,921;  177,790; 8858,954; 9,23989
 229,11; 1023,849;  166,020; 9259,013; 9,43396
 229,71; 1077,975;  168,175; 9549,448; 9,69805
 230,31; 1127,772;  163,326; 9978,285; 9,82628
 230,91; 1179,538;  163,483;10275,130;10,04836
 231,51; 1243,155;  147,173;10535,529;10,55010
 232,10; 1316,664;  152,172;10961,492;10,77303
 232,70; 1388,191;  167,484;11191,562;11,07310
 233,30; 1483,272;  192,789;11484,718;11,42837
 233,90; 1547,404;  163,789;11681,157;12,01330
 234,50; 1641,376;  175,558;11834,788;12,57217
 235,10; 1750,745;  157,404;11945,630;13,51638
 235,70; 1867,668;  192,020;12055,542;14,12437
 236,29; 1957,105;  182,251;12046,002;14,96030
 236,89; 1986,313;  165,022;12027,332;15,35359
 237,49; 2126,961;  177,173;11955,862;16,55352
 238,09; 2170,857;  176,789;11831,592;17,10941
 238,69; 2261,744;  193,099;11562,206;18,19532
 239,29; 2292,183;  168,328;11357,605;18,98117
 239,89; 2378,718;  178,791;11119,277;20,10814
 240,48; 2390,143;  173,635;10750,647;20,95590
 241,08; 2453,342;  163,097;10440,606;22,28405
 241,68; 2485,491;  198,558;10197,575;22,87158
 242,28; 2513,463;  162,404; 9835,559;24,30498
 242,88; 2559,947;  190,480; 9551,769;25,31133
 243,48; 2582,226;  192,250; 9275,819;26,31098
 244,07; 2603,084;  186,482; 9060,382;27,23270
 244,67; 2644,497;  188,943; 8907,392;28,16503
 245,27; 2655,062;  182,329; 8765,066;28,81054
 245,87; 2735,658;  184,096; 8715,012;29,90959
 246,47; 2790,775;  172,329; 8647,318;30,89616
 247,06; 2795,403;  169,097; 8751,863;30,59976
 247,66; 2855,313;  170,943; 8780,591;31,17863
 248,26; 2935,670;  208,559; 8853,410;31,54607
 248,86; 2998,091;  189,559; 9072,867;31,61583
 249,46; 3039,805;  150,789; 9304,178;31,56226
 250,05; 3163,751;  191,405; 9678,021;31,33199
 250,65; 3244,619;  158,636; 9992,771;31,38031
 251,25; 3357,498;  179,713;10456,645;30,92154
 251,85; 3499,071;  182,329;11040,821;30,54514
 252,44; 3599,564;  147,251;11634,425;30,05363
 253,04; 3799,235;  180,559;12375,450;29,67371
 253,64; 3906,088;  144,175;13037,657;29,17686
 254,24; 4093,708;  186,559;13945,362;28,39745
 254,84; 4275,728;  175,712;14824,332;27,98910
 255,43; 4438,582;  178,713;15804,177;27,26236
 256,03; 4588,369;  163,329;16686,096;26,78147
 256,63; 4697,907;  176,868;17730,541;25,75552
 257,23; 4764,233;  165,098;18502,985;25,07996
 257,82; 4896,126;  177,022;19401,582;24,54726
 258,42; 4891,276;  132,484;20180,526;23,73694
 259,02; 4994,874;  174,636;21054,511;23,08557
 259,62; 4938,188;  159,792;21613,506;22,27305
 260,21; 4887,497;  177,328;22121,013;21,46481
 260,81; 4769,041;  170,481;22596,055;20,50587
 261,41; 4692,319;  166,176;22930,924;19,88224
 262,01; 4635,906;  195,023;23398,867;19,13857
 262,60; 4449,233;  161,483;23604,446;18,29014
 263,20; 4292,855;  164,944;23926,742;17,37205
 263,80; 4179,468;  182,562;23990,851;16,78788
 264,40; 3973,119;  145,484;24149,854;15,94557
 264,99; 3847,495;  179,331;24276,797;15,22220
 265,59; 3677,336;  164,255;24468,447;14,45463
 266,19; 3546,742;  164,638;24545,895;13,87174
 266,78; 3451,154;  198,716;24673,094;13,28916
 267,38; 3282,732;  172,332;24624,851;12,72016
 267,98; 3135,393;  158,331;24699,335;12,13097
 268,58; 2977,480;  177,562;24623,983;11,45328
 269,17; 2860,035;  165,332;24587,470;11,03385
 269,77; 2760,315;  182,945;24431,709;10,62887
 270,37; 2592,826;  150,485;24336,935;10,09797
 270,96; 2534,038;  204,253;24220,378; 9,70092
 271,56; 2400,962;  167,868;23947,904; 9,39063
 272,16; 2300,817;  169,176;23816,919; 9,01414
 272,75; 2225,451;  166,561;23679,287; 8,75650
 273,35; 2168,099;  173,099;23630,866; 8,50465
 273,95; 2127,956;  175,176;23590,407; 8,33978
 274,54; 2051,236;  155,251;23590,698; 8,09025
 275,14; 2049,097;  180,253;23998,596; 7,84624
 275,74; 1987,080;  144,022;24084,606; 7,69847
 276,33; 2035,206;  190,099;24442,945; 7,60780
 276,93; 2017,863;  175,943;24787,025; 7,48411
 277,53; 2031,916;  174,867;25274,354; 7,39876
 278,12; 2029,568;  157,252;25742,978; 7,31781
 278,72; 2119,548;  194,867;26377,327; 7,35103
 279,32; 2135,948;  165,713;26948,301; 7,35640
 279,91; 2196,552;  163,021;27660,590; 7,39531
 280,51; 2279,837;  173,251;28124,238; 7,53671
 281,11; 2339,454;  174,098;28951,875; 7,52440
 281,70; 2391,361;  153,098;29289,701; 7,68196
 282,30; 2485,655;  159,098;29882,442; 7,82737
 282,90; 2565,469;  169,945;30322,371; 7,94471
 283,49; 2708,680;  186,099;30893,525; 8,21489
 284,09; 2795,562;  190,714;31268,823; 8,38162
 284,69; 2887,874;  189,175;31701,186; 8,56403
 285,28; 3006,366;  191,867;32001,395; 8,84797
 285,88; 3115,401;  199,022;32204,771; 9,11205
 286,47; 3224,273;  175,329;32254,866; 9,50432
 287,07; 3384,598;  203,944;32349,873; 9,89442
 287,67; 3516,765;  190,789;32540,819;10,28121
 288,26; 3621,226;  169,559;32393,038;10,71165
 288,86; 3837,364;  172,175;32475,048;11,34632
 289,46; 4065,406;  170,636;32616,984;12,00372
 290,05; 4272,148;  162,251;32659,063;12,64708
 290,65; 4551,256;  175,252;32837,768;13,39763
 291,24; 4812,823;  189,559;32846,641;14,15700
 291,84; 5096,753;  182,406;33108,541;14,92537
 292,44; 5393,012;  176,327;33215,378;15,78945
 293,03; 5729,967;  230,636;33279,207;16,64015
 293,63; 6007,371;  170,022;33558,272;17,48324
 294,22; 6339,926;  194,175;33609,771;18,39187
 294,82; 6557,193;  181,561;33694,123;19,02460
 295,41; 6752,053;  153,944;33405,778;19,84284
 296,01; 7049,616;  217,176;33315,366;20,64294
 296,61; 7211,540;  179,559;33087,471;21,36866
 297,20; 7373,677;  182,638;32727,854;22,09553
 297,80; 7610,072;  187,635;32483,187;22,98284
 298,39; 7723,148;  163,868;32117,898;23,65674
 298,99; 7920,598;  175,638;31987,785;24,34592
 299,58; 8007,608;  186,558;31903,194;24,65914
 300,18; 8175,782;  207,097;31634,199;25,35609
 300,78; 8293,450;  169,405;31248,968;26,13951
 301,37; 8476,943;  186,639;31248,200;26,68991
 301,97; 8582,847;  182,021;31203,424;27,08074
 302,56; 8740,002;  166,099;31192,784;27,63396
 303,16; 8853,211;  155,099;31139,100;28,07291
 303,75; 8997,058;  174,405;31130,312;28,50071
 304,35; 9223,214;  163,635;31375,055;29,02649
 304,94; 9403,998;  180,098;31411,616;29,53395
 305,54; 9466,277;  203,636;31326,908;29,76114
 306,13; 9592,617;  149,173;31256,038;30,35807
 306,73; 9662,134;  165,404;31021,614;30,77737
 307,33; 9743,659;  185,020;31002,479;31,01696
 307,92; 9935,142;  169,944;31026,844;31,64672
 308,52;10167,269;  165,099;31545,656;31,87378
 309,11;10477,774;  172,638;31967,983;32,41083
 309,71;10650,148;  155,177;32273,763;32,67569
 310,30;10819,892;  157,098;32512,708;32,95501
 310,90;11029,200;  179,329;32754,785;33,30689
 311,49;11118,237;  182,559;32933,165;33,39076
 312,09;11262,265;  142,636;33146,067;33,69234
 312,68;11610,243;  201,790;33436,875;34,32653
 313,28;11671,142;  152,559;33623,921;34,41325
 313,87;11800,192;  150,482;33764,236;34,65757
 314,47;11957,149;  167,253;34029,596;34,81713
 315,06;12072,118;  148,405;34111,168;35,10819
 315,66;12258,265;  158,943;34272,452;35,46783
 316,25;12342,636;  140,406;34269,797;35,75285
 316,85;12301,087;  139,559;34269,314;35,63321
 317,44;12433,035;  158,561;34432,015;35,81335
 318,04;12444,875;  148,945;34411,623;35,88724
 318,63;12486,683;  148,712;34462,125;35,95670
 319,22;12646,973;  174,253;34628,829;36,20047
 319,82;12593,841;  176,483;34649,175;36,02085
 320,41;12654,068;  161,945;34655,273;36,21606
 321,01;12659,644;  171,020;34713,019;36,15490
 321,60;12758,069;  166,714;34772,521;36,38509
 322,20;12755,985;  161,405;34695,805;36,46967
 322,79;12863,898;  191,790;34850,679;36,56236
 323,39;12810,736;  168,250;34912,111;36,38768
 323,98;12824,585;  153,251;34916,754;36,45011
 324,58;12781,664;  157,176;34675,705;36,57308
 325,17;12703,644;  167,637;34671,884;36,33178
 325,76;12628,820;  182,867;34580,632;36,18245
 326,36;12557,305;  147,174;34117,564;36,53220
 326,95;12426,242;  174,406;33836,427;36,39661
 327,55;12274,623;  161,560;33520,110;36,31172
 328,14;12085,748;  160,558;33117,059;36,18464
 328,74;12014,882;  193,637;32732,125;36,33004
 329,33;11830,087;  182,328;32375,960;36,18032
 329,92;11624,695;  159,869;31801,790;36,23303
 330,52;11316,008;  177,097;31099,937;36,02163
 331,11;11219,772;  174,790;30776,263;36,09297
 331,71;10951,552;  171,560;30201,743;35,89719
 332,30;10740,690;  186,406;29712,539;35,74557
 332,89;10624,124;  194,867;29225,340;35,92521
 333,49;10353,868;  191,483;28574,245;35,80478
 334,08;10143,459;  176,252;28174,984;35,59878
 334,68; 9997,644;  178,944;27803,132;35,54385
 335,27; 9853,340;  189,097;27452,276;35,44797
 335,86; 9716,541;  198,252;27217,493;35,22782
 336,46; 9592,953;  178,404;26985,698;35,11936
 337,05; 9473,135;  173,175;26844,625;34,86860
 337,65; 9398,963;  154,252;26679,950;34,85190
 338,24; 9342,092;  213,636;26662,991;34,51296
 338,83; 9268,232;  192,482;26559,364;34,42102
 339,43; 9231,556;  167,791;26490,296;34,43352
 340,02; 9149,078;  173,945;26460,814;34,14303
 340,61; 9121,953;  160,482;26450,042;34,08757
 341,21; 9082,729;  202,099;26525,356;33,73682
 341,80; 9052,361;  167,483;26395,347;33,87572
 342,40; 9049,534;  184,866;26520,310;33,66060
 342,99; 9089,585;  176,482;26590,724;33,74355
 343,58; 9020,779;  171,251;26799,037;33,23419
 344,18; 9026,840;  187,789;26927,678;33,05568
 344,77; 9134,354;  173,791;27249,512;33,09446
 345,36; 9182,626;  152,944;27536,350;32,97501
 345,96; 9222,416;  186,790;27873,058;32,63577
 346,55; 9280,272;  159,250;28092,072;32,65342
 347,14; 9281,027;  148,712;28451,228;32,26680
 347,74; 9412,489;  134,941;28878,440;32,27703
 348,33; 9637,035;  176,788;29514,865;32,24563
 348,92; 9733,243;  182,864;30117,098;31,90454
 349,52; 9831,720;  153,249;30612,640;31,77500
 350,11; 9912,831;  164,330;30817,101;31,80300
 350,70; 9805,383;  157,636;30903,586;31,37892
 351,29; 9651,825;  151,793;30588,226;31,21270
 351,89; 9574,764;  176,946;30619,087;30,87108
 352,48; 9523,428;  148,098;30627,899;30,75916
 353,07; 9425,327;  171,481;30594,341;30,41741
 353,67; 9410,700;  187,941;30615,020;30,31102
 354,26; 9196,730;  177,943;30339,046;29,90205
 354,85; 9112,504;  180,097;30180,462;29,77433
 355,45; 9008,432;  150,483;29943,606;29,73152
 356,04; 8887,234;  171,712;29893,214;29,32396
 356,63; 8733,393;  194,637;29646,157;28,99258
 357,22; 8600,179;  182,254;29531,018;28,68238
 357,82; 8500,206;  179,254;29412,827;28,46369
 358,41; 8411,812;  183,944;29233,775;28,32329
 359,00; 8248,259;  171,253;29083,346;27,93643
 359,60; 8183,543;  179,559;28951,480;27,81873
 360,19; 8044,954;  167,250;28796,361;27,51641
 360,78; 7954,249;  182,868;28621,698;27,32666
 361,37; 7824,061;  175,637;28351,280;27,14552
 361,97; 7749,608;  177,175;28360,722;26,86828
 362,56; 7556,163;  174,560;28008,778;26,51989
 363,15; 7483,077;  188,252;27715,330;26,50054
 363,74; 7309,894;  173,022;27391,996;26,22021
 364,34; 7154,206;  206,022;27028,560;25,90427
 364,93; 6951,465;  157,484;26611,191;25,68253
 365,52; 6785,695;  145,329;26230,570;25,45641
 366,11; 6648,654;  169,791;26013,164;25,06973
 366,71; 6504,280;  156,791;25573,444;24,97374
 367,30; 6393,528;  165,790;25173,251;24,90352
 367,89; 6265,912;  201,328;25014,215;24,44127
 368,48; 6100,825;  179,561;24687,391;24,16071
 369,07; 5940,383;  181,713;24293,278;23,88344
 369,67; 5824,863;  185,253;23969,510;23,71152
 370,26; 5661,084;  173,867;23750,288;23,27417
 370,85; 5562,146;  174,252;23419,906;23,17807
 371,44; 5408,467;  171,867;23200,195;22,73982
 372,03; 5339,986;  156,637;23001,687;22,68915
 372,63; 5216,679;  153,483;22621,750;22,53488
 373,22; 5064,959;  163,713;22383,812;22,05771
 373,81; 4934,981;  151,098;22159,856;21,73627
 374,40; 4879,451;  157,866;21872,493;21,74380
 374,99; 4746,716;  160,945;21559,161;21,43062
 375,59; 4673,621;  159,635;21256,928;21,39604
 376,18; 4602,888;  193,021;21188,836;21,00355
 376,77; 4545,287;  175,021;21031,787;20,95371
 377,36; 4455,422;  193,098;20976,834;20,50798
 377,95; 4376,596;  179,791;20672,301;20,47970
 378,55; 4300,183;  157,790;20490,712;20,37284
 379,14; 4213,180;  164,637;20451,554;19,95643
 379,73; 4194,681;  170,483;20337,542;19,95431
 380,32; 4199,388;  182,867;20328,079;19,93784
 380,91; 4087,942;  165,330;20225,703;19,55404
 381,50; 4071,129;  181,637;20174,360;19,45453
 382,10; 4015,003;  159,406;20028,463;19,40503
 382,69; 3964,918;  155,867;20054,252;19,14251
 383,28; 3956,397;  188,560;19963,864;19,05324
 383,87; 3857,683;  162,483;19820,765;18,79717
 384,46; 3846,533;  171,330;19805,502;18,71840
 385,05; 3826,733;  193,637;19811,772;18,51907
 385,64; 3809,577;  161,022;19779,703;18,59735
 386,24; 3754,063;  152,869;19726,184;18,39849
 386,83; 3778,015;  186,100;19814,477;18,29960
 387,42; 3773,739;  190,791;19853,559;18,22199
 388,01; 3756,496;  179,178;20058,696;17,99500
 388,60; 3803,965;  176,792;20297,747;18,02684
 389,19; 3793,199;  154,948;20529,242;17,85707
 389,78; 3847,582;  164,025;20730,327;17,91064
 390,37; 3911,317;  214,023;21178,997;17,63557
 390,96; 3893,758;  178,869;21297,684;17,59042
 391,56; 3918,042;  167,794;21560,725;17,53031
 392,15; 3947,879;  162,409;21779,017;17,51186
 392,74; 3942,896;  146,796;21899,600;17,45108
 393,33; 3988,896;  160,256;22240,842;17,33939
 393,92; 4094,263;  189,258;22676,131;17,36571
 394,51; 4089,591;  156,641;22812,881;17,35923
 395,10; 4154,261;  185,414;23107,394;17,31459
 395,69; 4153,212;  170,491;23158,895;17,32491
 396,28; 4137,610;  189,338;23332,404;17,06028
 396,87; 4209,423;  194,724;23432,642;17,27650
 397,46; 4216,367;  190,495;23517,345;17,25853
 398,06; 4261,284;  193,035;23739,316;17,27767
 398,65; 4271,661;  179,116;23844,242;17,29357
 399,24; 4305,763;  198,885;23967,663;17,27845
 399,83; 4295,600;  178,276;24015,052;17,27299
 400,42; 4370,987;  206,819;24111,631;17,41979
 401,01; 4337,832;  178,902;24228,445;17,29318
 401,60; 4351,044;  192,679;24332,471;17,22618
 402,19; 4428,712;  205,069;24190,939;17,60888
 402,78; 4408,509;  220,079;24243,290;17,43493
 403,37; 4405,732;  191,857;24115,970;17,61351
 403,96; 4402,582;  198,098;23946,219;17,70449
 404,55; 4364,035;  217,956;23899,444;17,50768
 405,14; 4348,858;  193,043;23795,008;17,60792
 405,73; 4373,217;  217,671;23725,380;17,67737
 406,32; 4387,310;  206,526;23561,569;17,90099
 406,91; 4344,449;  210,305;23314,445;17,89352
 407,50; 4363,892;  205,002;23171,463;18,10854
 408,09; 4301,129;  180,775;22856,755;18,17057
 408,68; 4349,598;  195,469;22701,974;18,45746
 409,27; 4342,761;  181,543;22490,301;18,65285
 409,86; 4318,350;  200,459;22332,914;18,60567
 410,45; 4411,406;  221,452;22309,180;18,96960
 411,04; 4385,542;  237,138;22209,224;18,88034
 411,63; 4360,807;  220,591;21988,858;19,01950
 412,22; 4352,563;  214,430;21730,760;19,23252
 412,81; 4322,150;  231,119;21497,028;19,23750
 413,40; 4294,937;  243,270;21230,105;19,30576
 413,99; 4304,091;  264,040;20862,371;19,61349
 414,58; 4185,297;  218,885;20502,643;19,55462
 415,17; 4149,346;  213,504;20236,995;19,65612
 415,76; 4204,215;  211,661;20083,093;20,09193
 416,35; 4197,818;  202,582;19885,448;20,29804
 416,94; 4203,060;  227,660;19944,733;20,16222
 417,53; 4316,158;  216,196;20239,624;20,47583
 418,12; 4327,133;  202,580;20197,357;20,62815
 418,71; 4415,547;  227,423;20602,642;20,55499
 419,30; 4483,471;  222,272;20658,743;20,85095
 419,89; 4577,780;  215,887;20802,499;21,18801
 420,48; 4713,139;  237,500;21190,043;21,36084
 421,07; 4717,031;  223,807;21238,266;21,38158
 421,66; 4755,464;  202,883;21206,647;21,67507
 422,25; 4792,309;  215,649;21214,032;21,79530
 422,84; 4852,342;  237,110;21188,859;22,02791
 423,43; 4823,740;  219,265;20942,013;22,21942
 424,02; 4795,402;  235,495;20698,929;22,28319
 424,60; 4715,905;  202,184;20264,036;22,49903
 425,19; 4745,915;  225,647;19981,318;22,88086
 425,78; 4782,981;  240,186;19843,777;23,17328
 426,37; 4772,968;  231,338;19769,546;23,24486
 426,96; 4757,780;  230,723;19718,898;23,22976
 427,55; 4777,652;  219,644;19471,388;23,67582
 428,14; 4771,715;  199,181;19239,909;24,01449
 428,73; 4744,363;  223,337;19054,915;24,00769
 429,32; 4800,814;  235,569;19064,192;24,24630
 429,91; 4849,205;  249,875;19101,452;24,39758
 430,50; 4813,732;  233,797;18979,059;24,43249
 431,08; 4806,854;  250,181;18810,337;24,55083
 431,67; 4891,649;  286,872;18736,709;24,95836
 432,26; 4862,348;  296,102;18505,252;25,07666
 432,85; 4806,133;  317,487;18251,641;25,02848
 433,44; 4733,555;  312,255;17822,772;25,24940
 434,03; 4696,413;  342,022;17493,588;25,38772
 434,62; 4582,483;  310,101;17052,050;25,51903
 435,21; 4579,311;  324,333;16875,056;25,70871
 435,79; 4589,658;  309,330;16672,652;26,15806
 436,38; 4617,673;  310,098;16641,354;26,37626
 436,97; 4572,527;  303,867;16541,488;26,28871
 437,56; 4586,483;  308,941;16361,629;26,64689
 438,15; 4585,168;  281,634;16266,517;26,92253
 438,74; 4635,901;  298,403;16225,568;27,23333
 439,33; 4659,107;  270,711;16224,567;27,50680
 439,91; 4717,680;  236,479;16286,150;27,92083
 440,50; 4802,333;  281,940;16358,193;28,11845
 441,09; 4884,307;  277,400;16474,920;28,44205
 441,68; 4874,761;  268,783;16482,630;28,40768
 442,27; 4917,654;  251,784;16450,381;28,80416
 442,86; 4922,364;  225,473;16453,996;28,94220
 443,44; 4995,609;  238,474;16492,368;29,26767
 444,03; 5044,855;  276,165;16575,720;29,25656
 444,62; 5048,306;  243,934;16483,748;29,58391
 445,21; 5029,438;  252,935;16239,017;29,87913
 445,80; 5027,779;  274,241;16102,317;30,03232
 446,39; 4975,895;  267,549;15872,612;30,17191
 446,97; 4948,607;  231,777;15720,563;30,45319
 447,56; 4898,030;  244,006;15533,741;30,43888
 448,15; 4896,631;  247,008;15307,778;30,87241
 448,74; 4862,401;  263,008;15159,363;30,87596
 449,33; 4850,430;  248,776;14945,360;31,31104
 449,91; 4785,344;  254,928;14774,924;31,20122
 450,50; 4730,616;  236,390;14478,335;31,55627
 451,09; 4749,648;  256,313;14425,761;31,71144
 451,68; 4745,883;  277,004;14318,526;31,82617
 452,26; 4738,665;  263,157;14241,378;32,01772
 452,85; 4707,603;  255,004;14109,720;32,13779
 453,44; 4769,210;  259,540;14159,732;32,44322
 454,03; 4777,934;  235,926;14076,130;32,81749
 454,61; 4795,860;  233,540;14042,889;33,03791
 455,20; 4869,971;  268,000;14246,302;32,92224
 455,79; 4921,565;  265,310;14214,221;33,38078
 456,38; 4944,945;  270,768;14284,751;33,35366
 456,97; 5003,087;  247,461;14415,070;33,56689
 457,55; 5021,614;  258,460;14453,369;33,55537
 458,14; 5113,434;  278,461;14357,288;34,34215
 458,73; 5048,111;  266,075;14319,680;34,02711
 459,31; 5128,637;  297,766;14339,496;34,40367
 459,90; 5159,998;  292,844;14420,902;34,45027
 460,49; 5239,748;  307,613;14465,441;34,83680
 461,08; 5249,312;  260,227;14540,470;34,93698
 461,66; 5327,453;  269,074;14705,695;35,03853
 462,25; 5360,881;  274,765;14768,951;35,09074
 462,84; 5425,424;  305,611;14861,627;35,17317
 463,43; 5407,420;  225,532;14723,671;35,74175
 464,01; 5443,679;  279,839;14804,958;35,55110
 464,60; 5464,088;  298,840;14660,777;35,96484
 465,19; 5348,733;  251,377;14529,914;35,69943
 465,77; 5383,284;  260,222;14500,613;35,97557
 466,36; 5400,739;  279,763;14398,720;36,27021
 466,95; 5301,959;  265,378;14036,410;36,57374
 467,53; 5249,071;  272,683;13795,128;36,80095
 468,12; 5168,114;  290,914;13525,142;36,85293
 468,71; 5065,559;  276,146;13288,632;36,80628
 469,29; 5012,664;  252,144;13019,777;37,28584
 469,88; 4903,299;  266,682;12782,208;37,04692
 470,47; 4976,644;  320,834;12886,030;37,05322
 471,06; 4999,761;  276,142;12797,112;37,72566
 471,64; 5073,299;  281,373;12903,787;37,96362
 472,23; 5072,098;  258,832;12969,427;37,86814
 472,81; 5136,617;  250,218;13064,664;38,13196
 473,40; 5219,337;  267,986;13177,668;38,35378
 473,99; 5319,742;  325,986;13397,075;38,20460
 474,57; 5357,604;  254,986;13550,202;38,37936
 475,16; 5495,064;  283,448;13690,353;38,87262
 475,75; 5516,747;  295,985;13791,964;38,68384
 476,33; 5612,216;  299,676;13939,246;38,94947
 476,92; 5639,565;  296,909;13952,599;39,12403
 477,51; 5706,682;  286,599;14029,615;39,43882
 478,09; 5706,340;  291,061;14052,274;39,35176
 478,68; 5730,548;  288,830;13928,922;39,89502
 479,27; 5771,700;  315,215;13986,380;39,91236
 479,85; 5756,057;  281,368;14001,583;39,90236
 480,44; 5849,501;  273,522;14138,587;40,21604
 481,02; 6341,967;  282,521;15426,629;40,01191
 481,61; 7174,242;  309,060;17352,003;40,28167
 482,20; 7772,790;  303,136;18588,261;40,85099
 482,78; 8114,952;  327,291;19488,567;40,64270
 483,37; 8360,745;  316,827;20006,159;40,85420
 483,95; 8506,730;  356,750;20350,617;40,76240
 484,54; 8670,515;  359,752;20511,076;41,24177
 485,13; 8610,908;  329,671;20410,228;41,24007
 485,71; 8549,930;  302,980;20145,964;41,56104
 486,30; 8497,511;  341,672;19971,854;41,54745
 486,88; 8350,165;  363,133;19615,481;41,48601
 487,47; 8099,972;  358,133;18959,263;41,62026
 488,05; 7759,811;  344,363;18134,778;41,68227
 488,64; 7279,840;  339,054;16811,390;42,13602
 489,23; 6518,499;  352,516;14894,823;42,40030
 489,81; 5513,558;  354,516;12523,088;42,39644
 490,40; 5275,381;  311,362;12084,382;42,16436
 490,98; 5172,124;  294,285;11786,145;42,44604
 491,57; 5186,425;  322,670;11696,679;42,76201
 492,15; 5103,576;  314,284;11626,681;42,33666
 492,74; 5110,817;  303,671;11589,364;42,59504
 493,32; 5128,129;  323,746;11405,223;43,35508
 493,91; 5028,359;  305,899;11349,295;42,76276
 494,50; 5021,552;  311,051;11349,412;42,67392
 495,08; 5029,865;  304,359;11235,952;43,22797
 495,67; 5020,632;  308,438;11276,291;42,96369
 496,25; 4963,133;  267,591;11130,337;43,22611
 496,84; 4971,725;  273,130;11090,265;43,43659
 497,42; 4937,201;  262,283;11081,382;43,20986
 498,01; 4963,810;  305,745;11021,784;43,46816
 498,59; 4891,389;  249,744;10959,769;43,33926
 499,18; 4905,935;  256,822;10895,491;43,70014
 499,76; 4901,956;  280,821;10812,815;43,87711
 500,35; 4819,405;  273,281;10641,169;43,84811
 500,93; 4814,391;  269,283;10586,762;44,05251
 501,52; 4825,798;  269,129;10561,138;44,27385
 502,10; 4809,176;  269,281;10522,895;44,27605
 502,69; 4727,930;  257,664;10354,216;44,27518
 503,27; 4687,977;  241,974;10217,186;44,57051
 503,86; 4668,858;  252,357;10114,555;44,78212
 504,44; 4618,570;  248,126; 9977,524;44,91999
 505,03; 4544,889;  236,126; 9776,266;45,16457
 505,61; 4492,376;  234,587; 9670,473;45,12336
 506,19; 4452,562;  258,741; 9510,975;45,32766
 506,78; 4357,067;  232,201; 9342,308;45,27791
 507,36; 4282,026;  251,357; 9198,553;45,04953
 507,95; 4224,450;  249,200; 9012,486;45,36255
 508,53; 4173,157;  237,432; 8924,396;45,30610
 509,12; 4123,715;  251,893; 8795,088;45,32054
 509,70; 4077,015;  266,893; 8635,864;45,52677
 510,29; 4003,351;  269,046; 8478,690;45,48681
 510,87; 3921,828;  246,278; 8300,528;45,63491
 511,46; 3846,152;  238,893; 8133,519;45,69259
 512,04; 3766,562;  251,739; 8027,537;45,20210
 512,62; 3700,349;  261,201; 7826,255;45,46098
 513,21; 3658,853;  226,892; 7660,771;46,16648
 513,79; 3596,921;  247,505; 7539,352;45,93371
 514,38; 3515,193;  220,121; 7422,747;45,74820
 514,96; 3496,134;  269,198; 7272,221;46,07918
 515,54; 3405,273;  235,275; 7141,110;45,90318
 516,13; 3419,594;  245,890; 7050,707;46,63908
 516,71; 3345,721;  241,043; 6959,294;46,21260
 517,30; 3287,206;  229,503; 6837,273;46,27435
 517,88; 3257,956;  267,965; 6727,598;46,28732
 518,46; 3215,978;  242,042; 6618,405;46,64001
 519,05; 3193,669;  243,502; 6611,738;46,32629
 519,63; 3165,379;  246,657; 6519,242;46,53142
 520,22; 3118,274;  255,040; 6497,730;45,86539
 520,80; 3089,091;  248,117; 6421,821;46,01733
 521,38; 3107,630;  268,887; 6400,395;46,29763
 521,97; 3076,013;  242,808; 6313,231;46,67228
 522,55; 3075,673;  246,424; 6330,852;46,49984
 523,13; 3093,152;  245,115; 6330,274;46,80299
 523,72; 3084,267;  250,042; 6341,500;46,52787
 524,30; 3197,076;  267,038; 6426,183;47,57215
 524,89; 3168,215;  235,424; 6457,553;47,13484
 525,47; 3251,589;  260,884; 6580,669;47,32289
 526,05; 3262,536;  231,807; 6653,853;47,19257
 526,64; 3323,768;  261,729; 6791,024;46,89692
 527,22; 3451,228;  258,730; 6912,114;47,98307
 527,80; 3525,563;  288,268; 7069,509;47,73898
 528,39; 3541,986;  247,883; 7137,337;47,81370
 528,97; 3628,473;  246,498; 7315,159;47,84463
 529,55; 3714,173;  260,269; 7491,834;47,76150
 530,14; 3841,318;  273,113; 7702,184;48,03030
 530,72; 3885,131;  251,575; 7838,357;47,89325
 531,30; 3952,520;  240,036; 7989,199;47,90820
 531,89; 4017,268;  243,190; 8050,408;48,34089
 532,47; 4081,492;  285,882; 8190,645;48,01674
 533,05; 4062,598;  279,729; 8224,927;47,61201
 533,63; 4124,779;  283,036; 8315,978;47,82486
 534,22; 4125,964;  247,112; 8335,203;47,95757
 534,80; 4151,837;  282,496; 8383,421;47,76418
 535,38; 4211,908;  322,728; 8514,977;47,47390
 535,97; 4177,709;  267,574; 8442,864;47,82870
 536,55; 4226,587;  320,111; 8548,254;47,47701
 537,13; 4212,393;  322,421; 8519,376;47,45631
 537,71; 4244,268;  358,113; 8528,284;47,56516
 538,30; 4290,583;  391,112; 8628,489;47,33875
 538,88; 4341,868;  413,957; 8708,948;47,35280
 539,46; 4447,728;  468,419; 8881,888;47,29688
 540,05; 4530,588;  494,572; 9035,502;47,25500
 540,63; 4625,201;  539,957; 9221,694;47,05561
 541,21; 4714,038;  559,956; 9425,554;46,85619
 541,79; 4784,094;  613,880; 9464,225;47,11923
 542,38; 4850,925;  647,034; 9646,872;46,71074
 542,96; 4962,623;  650,879; 9875,132;46,74356
 543,54; 5019,231;  672,418;10064,358;46,28238
 544,12; 5089,601;  649,726;10209,816;46,44177
 544,70; 5154,982;  620,648;10311,340;46,79061
 545,29; 5222,517;  633,034;10483,042;46,59369
 545,87; 5266,786;  591,187;10508,609;47,14530
 546,45; 5266,214;  556,880;10509,428;47,31787
 547,03; 5303,066;  543,803;10615,416;47,25424
 547,62; 5303,494;  517,187;10722,861;46,89850
 548,20; 5425,663;  496,571;10954,705;47,13166
 548,78; 5458,229;  484,261;11066,773;47,00177
 549,36; 5579,855;  440,954;11265,314;47,47533
 549,94; 5637,898;  398,725;11431,506;47,48733
 550,53; 5769,817;  407,108;11651,379;47,69281
 551,11; 5853,660;  379,876;11893,334;47,54248
 551,69; 5993,847;  379,185;12188,919;47,54266
 552,27; 6106,225;  341,493;12518,730;47,34022
 552,85; 6291,156;  359,261;12838,290;47,53490
 553,44; 6458,640;  341,185;13136,057;47,81177
 554,02; 6668,908;  358,108;13552,069;47,83098
 554,60; 6825,390;  302,184;13924,530;47,88607
 555,18; 6974,064;  330,108;14285,984;47,60687
 555,76; 7149,227;  313,031;14653,965;47,66911
 556,34; 7310,526;  316,491;15063,889;47,42556
 556,93; 7546,786;  307,108;15518,555;47,59362
 557,51; 7688,129;  296,645;15921,031;47,30735
 558,09; 7866,370;  319,185;16333,868;47,12666
 558,67; 8095,218;  311,413;16709,683;47,46723
 559,25; 8203,050;  326,029;16958,808;47,35841
 559,83; 8342,587;  304,874;17274,264;47,36595
 560,41; 8479,375;  295,184;17674,496;47,09157
 561,00; 8602,777;  305,644;18096,935;46,63592
 561,58; 8760,422;  305,184;18289,541;47,01440
 562,16; 8871,461;  291,107;18681,944;46,65559
 562,74; 9054,710;  274,415;18983,448;46,93078
 563,32; 9172,852;  278,182;19485,836;46,30795
 563,90; 9393,920;  298,721;19802,655;46,63264
 564,48; 9540,531;  310,107;20232,719;46,33139
 565,06; 9810,960;  290,644;20847,997;46,31100
 565,65;10108,252;  295,797;21561,697;46,14174
 566,23;10439,732;  353,644;22263,545;46,03439
 566,81;10752,776;  290,106;23073,534;45,92228
 567,39;11171,476;  312,413;23938,355;45,96246
 567,97;11475,042;  317,798;24662,383;45,83049
 568,55;11862,229;  312,721;25479,749;45,89143
 569,13;12102,796;  300,875;26194,226;45,57896
 569,71;12545,726;  298,800;27067,131;45,75155
 570,29;12983,425;  340,646;28119,847;45,51167
 570,87;13343,593;  332,800;28927,721;45,50036
 571,45;13566,517;  317,644;29623,518;45,20893
 572,03;13719,257;  271,182;30086,374;45,10477
 572,61;13986,330;  278,567;30750,810;44,98442
 573,20;14187,829;  313,876;31410,734;44,61529
 573,78;14482,402;  300,336;32121,501;44,56803
 574,36;14683,239;  303,490;32588,059;44,54063
 574,94;14839,268;  350,028;33005,086;44,37058
 575,52;14902,652;  322,257;33348,789;44,14752
 576,10;15172,580;  372,181;33880,697;44,16907
 576,68;15276,071;  356,028;34410,072;43,81284
 577,26;15621,768;  376,718;35120,617;43,87835
 577,84;15828,762;  374,259;35593,008;43,88146
 578,42;15931,404;  397,797;35937,350;43,70794
 579,00;15926,181;  367,336;36182,319;43,44228
 579,58;15993,782;  394,951;36359,717;43,37254
 580,16;15954,306;  386,258;36427,299;43,19533
 580,74;15982,455;  393,027;36698,605;42,93948
 581,32;15963,862;  385,489;36651,418;42,95595
 581,90;15911,176;  404,104;36725,667;42,69385
 582,48;15955,624;  394,796;36916,348;42,60725
 583,06;15949,241;  408,489;37079,755;42,37855
 583,64;16052,554;  407,412;37182,141;42,54319
 584,22;15878,178;  409,103;37027,671;42,24380
 584,80;15735,621;  424,950;36779,108;42,11532
 585,38;15495,431;  430,491;36407,829;41,87341
 585,96;15500,853;  400,028;36551,729;41,77072
 586,54;15488,223;  417,411;36518,706;41,74590
 587,12;15479,609;  384,873;36836,575;41,41024
 587,70;15524,386;  411,336;36953,343;41,35802
 588,28;15518,797;  398,335;36934,070;41,38541
 588,86;15510,498;  411,411;37158,665;41,08902
 589,44;15534,275;  381,487;37279,918;41,06621
 590,02;15533,986;  378,718;37582,345;40,73599
 590,59;15571,862;  354,488;37776,921;40,66377
 591,17;15671,745;  357,101;37987,247;40,69781
 591,75;15603,282;  359,025;38145,675;40,34297
 592,33;15646,257;  371,871;38350,828;40,21802
 592,91;15773,400;  326,101;38632,465;40,32567
 593,49;15821,279;  333,947;38951,446;40,10444
 594,07;15792,764;  341,716;39104,046;39,86099
 594,65;15787,326;  357,642;39206,546;39,71717
 595,23;15911,834;  347,718;39593,384;39,65818
 595,81;15901,938;  350,795;39779,116;39,44156
 596,39;15784,681;  349,871;39885,016;39,04073
 596,97;15821,071;  337,178;40222,828;38,82071
 597,55;15722,046;  327,026;39995,585;38,80912
 598,12;15682,691;  316,254;40014,409;38,70819
 598,70;15618,981;  316,870;40175,248;38,39120
 599,28;15648,397;  339,024;40342,396;38,27021
 599,86;15551,259;  330,793;40394,678;37,99049
 600,44;15564,637;  300,024;40641,146;37,83884
 601,02;15553,523;  350,099;40599,747;37,77281
 601,60;15449,258;  330,640;40572,383;37,56949
 602,18;15344,409;  303,946;40581,663;37,34190
 602,75;15322,020;  305,564;40725,348;37,15125
 603,33;15274,265;  325,947;40729,418;36,99761
 603,91;15186,652;  316,792;40636,776;36,87963
 604,49;15214,207;  325,639;40757,478;36,82387
 605,07;15104,009;  334,871;40728,554;36,56299
 605,65;15113,321;  344,485;40791,105;36,51439
 606,23;15048,090;  405,950;41039,681;36,03445
 606,80;15008,999;  452,256;41005,480;35,89540
 607,38;14928,729;  493,638;41150,422;35,50475
 607,96;14869,177;  546,795;41168,080;35,25832
 608,54;14855,608;  594,101;41174,853;35,14353
 609,12;14795,493;  616,641;41306,552;34,84611
 609,70;14746,097;  644,793;41355,437;34,63788
 610,27;14682,678;  652,641;41359,499;34,46603
 610,85;14640,991;  660,024;41483,712;34,24719
 611,43;14566,663;  677,178;41433,814;34,07908
 612,01;14338,796;  640,871;41210,798;33,76374
 612,59;14276,548;  630,947;41220,233;33,61873
 613,16;14154,430;  606,026;41152,539;33,41447
 613,74;14053,297;  579,024;41015,412;33,32215
 614,32;13965,231;  540,408;41101,402;33,09787
 614,90;13808,051;  490,178;40918,799;32,94170
 615,48;13590,749;  452,487;40464,096;32,83612
 616,05;13504,735;  410,180;40483,222;32,67672
 616,63;13357,875;  401,104;40318,655;32,45883
 617,21;13227,283;  399,718;40241,373;32,19637
 617,79;13090,724;  387,333;40174,829;31,92810
 618,36;12981,141;  397,486;40006,763;31,76946
 618,94;12786,314;  336,410;39753,397;31,58512
 619,52;12659,098;  365,642;39521,153;31,39649
 620,10;12533,238;  354,487;39388,721;31,20018
 620,67;12428,368;  361,873;39318,419;30,97424
 621,25;12327,940;  372,409;39167,334;30,81725
 621,83;12168,786;  354,641;39084,754;30,50377
 622,41;12064,988;  391,026;38977,184;30,25427
 622,98;12030,898;  364,642;38686,562;30,44278
 623,56;11923,193;  365,181;38813,734;30,06098
 624,14;11805,174;  355,409;38569,159;29,96242
 624,72;11739,051;  341,718;38523,095;29,85050
 625,29;11626,071;  316,104;38657,806;29,49782
 625,87;11570,745;  360,641;38546,774;29,35648
 626,45;11406,566;  314,873;38389,177;29,13170
 627,02;11331,268;  335,256;38401,416;28,88658
 627,60;11213,968;  309,331;38247,745;28,74300
 628,18;11178,185;  300,795;38407,398;28,54463
 628,76;11094,893;  310,488;38347,407;28,35247
 629,33;11058,385;  323,334;38402,917;28,19109
 629,91;10971,161;  314,718;38329,260;28,03254
 630,49;11002,682;  344,488;38490,667;27,94040
 631,06;10973,899;  329,411;38713,378;27,73160
 631,64;10904,023;  330,488;38659,022;27,58659
 632,22;10753,334;  289,335;38498,083;27,38640
 632,79;10785,136;  314,489;38859,231;27,16492
 633,37;10668,244;  297,563;38933,633;26,84197
 633,95;10720,338;  304,873;39003,600;26,91423
 634,52;10664,075;  282,103;39130,617;26,72425
 635,10;10640,354;  293,872;39129,679;26,64161
 635,68;10606,037;  298,643;39388,902;26,36819
 636,25;10541,285;  287,567;39270,081;26,30338
 636,83;10626,586;  278,027;39558,253;26,34547
 637,41;10496,642;  282,258;39529,959;26,02543
 637,98;10480,668;  311,182;39727,598;25,80013
 638,56;10467,133;  313,182;39916,997;25,63882
 639,13;10400,880;  288,334;39909,502;25,52309
 639,71;10445,490;  304,950;40113,548;25,47324
 640,29;10197,652;  256,796;39925,736;25,05954
 640,86;10274,252;  264,949;40184,562;25,07365
 641,44;10173,006;  279,949;40078,388;24,85790
 642,02;10132,683;  299,488;40090,906;24,71185
 642,59;10051,745;  274,949;40214,885;24,47875
 643,17; 9977,499;  281,334;40217,711;24,27903
 643,74; 9897,484;  280,180;40277,075;24,04513
 644,32; 9893,623;  297,872;40159,824;24,07246
 644,89; 9793,762;  294,641;40232,803;23,78457
 645,47; 9745,977;  303,641;40301,321;23,60721
 646,05; 9690,270;  290,411;40214,993;23,54404
 646,62; 9572,332;  289,641;40043,972;23,35014
 647,20; 9564,009;  289,718;40272,721;23,19558
 647,77; 9469,378;  265,487;40089,931;23,11116
 648,35; 9401,517;  256,026;40063,757;22,97416
 648,92; 9355,194;  298,949;40061,506;22,77581
 649,50; 9224,487;  255,026;40072,947;22,52619
 650,08; 9175,933;  261,410;39830,003;22,52929
 650,65; 9112,688;  262,333;40126,983;22,20101
 651,23; 9146,365;  243,564;40781,193;21,96182
 651,80; 9300,503;  258,179;41812,942;21,76002
 652,38; 9326,411;  261,872;42203,383;21,61233
 652,95; 9330,781;  233,256;42419,747;21,56502
 653,53; 9334,843;  276,564;42711,496;21,34628
 654,10; 9290,828;  289,718;42850,937;21,14862
 654,68; 9184,966;  250,641;42834,224;20,98068
 655,25; 9114,721;  264,872;42856,280;20,77848
 655,83; 9049,321;  245,179;43021,106;20,58200
 656,40; 9053,536;  284,795;43014,547;20,52140
 656,98; 8926,829;  253,179;42886,680;20,34468
 657,55; 8811,122;  261,410;42794,352;20,10139
 658,13; 8717,722;  252,641;42510,870;20,03179
 658,70; 8636,245;  269,102;42238,234;19,93642
 659,28; 8388,230;  260,640;41264,675;19,82144
 659,85; 8107,754;  256,948;40488,270;19,51416
 660,43; 8057,508;  275,948;40627,788;19,28427
 661,00; 8072,570;  262,486;40779,383;19,27611
 661,58; 8038,016;  249,794;41039,132;19,09377
 662,15; 8000,924;  239,333;41294,419;18,90531
 662,73; 8105,063;  299,948;41606,552;18,89556
 663,30; 8022,509;  268,563;41825,301;18,65870
 663,88; 8042,340;  270,948;42051,742;18,60039
 664,45; 8016,325;  255,486;42169,953;18,51590
 665,03; 8056,771;  264,717;42663,547;18,37799
 665,60; 8109,372;  312,102;43031,681;18,25222
 666,17; 7994,587;  271,255;43217,045;17,98391
 666,75; 8033,342;  261,025;43595,255;17,93574
 667,32; 8004,403;  289,948;43882,773;17,69662
 667,90; 7999,542;  266,101;44222,445;17,59346
 668,47; 8016,835;  294,640;44399,809;17,50859
 669,05; 8018,666;  269,486;44814,404;17,39633
 669,62; 7981,958;  245,178;44839,537;17,34923
 670,19; 7938,789;  254,794;45024,055;17,16355
 670,77; 7904,159;  265,793;45142,650;17,02072
 671,34; 7875,913;  268,793;45083,399;16,97464
 671,92; 7822,898;  253,947;45352,917;16,78298
 672,49; 7769,267;  269,947;45434,742;16,60435
 673,06; 7713,637;  224,024;45458,568;16,55729
 673,64; 7611,699;  255,947;45434,625;16,28147
 674,21; 7602,914;  237,255;45375,681;16,31794
 674,79; 7581,822;  262,255;45685,430;16,11417
 675,36; 7557,577;  276,947;45761,640;16,00677
 675,93; 7462,561;  253,332;45644,620;15,88241
 676,51; 7473,085;  281,870;45776,061;15,80689
 677,08; 7421,916;  268,101;45883,502;15,68289
 677,65; 7344,670;  263,947;45972,481;15,49103
 678,23; 7382,732;  268,485;46306,307;15,45305
 678,80; 7320,024;  257,101;46338,209;15,32716
 679,38; 7287,009;  241,639;46545,881;15,21539
 679,95; 7307,994;  267,485;46826,784;15,12160
 680,52; 7253,518;  250,639;47050,917;14,96333
 681,10; 7285,656;  270,331;47495,127;14,85517
 681,67; 7304,641;  272,562;47798,953;14,79616
 682,24; 7256,703;  236,254;47846,856;14,74556
 682,82; 7288,149;  250,716;48419,374;14,60998
 683,39; 7337,904;  279,331;48796,122;14,54872
 683,96; 7313,658;  243,869;49050,333;14,48535
 684,54; 7315,258;  237,408;49433,774;14,38694
 685,11; 7323,243;  268,254;49718,215;14,26693
 685,68; 7320,997;  255,023;50291,117;14,12175
 686,25; 7284,905;  242,254;50335,020;14,05922
 686,83; 7319,813;  243,715;50522,692;14,07367
 687,40; 7315,182;  228,023;50831,517;14,00528
 687,97; 7325,244;  276,331;51254,728;13,82726
 688,55; 7230,614;  237,869;51314,476;13,69070
 689,12; 7248,291;  225,254;51619,687;13,66498
 689,69; 7229,430;  232,023;51565,205;13,63135
 690,26; 7155,261;  242,869;51710,876;13,43046
 690,84; 7159,630;  241,946;51886,164;13,39489
 691,41; 7168,615;  250,638;51992,912;13,37007
 691,98; 7174,600;  256,561;52263,276;13,30220
 692,56; 7084,816;  235,253;52323,564;13,14990
 693,13; 7142,493;  294,869;52434,543;13,13323
 693,70; 7091,247;  274,176;52635,061;13,01940
 694,27; 7020,847;  250,715;52732,887;12,89987
 694,84; 7028,217;  243,561;52812,020;12,90632
 695,42; 7033,586;  284,023;52904,307;12,82692
 695,99; 7000,571;  250,099;53163,364;12,75762
 696,56; 6936,172;  243,099;52917,189;12,70657
 697,13; 6962,233;  264,022;53517,323;12,57802
 697,71; 6890,526;  219,638;53425,610;12,53786
 698,28; 6969,819;  251,253;53845,820;12,53591
 698,85; 6879,419;  218,330;53828,107;12,42514
 699,42; 6866,558;  225,715;53963,625;12,35784
 699,99; 6921,004;  265,253;54026,143;12,38028
 700,57; 6901,835;  265,868;54102,815;12,32605
 701,14; 6856,974;  245,176;54274,718;12,23738
 701,71; 6878,728;  249,330;54471,236;12,22642
 702,28; 6845,713;  256,407;54548,600;12,13675
 702,85; 6819,775;  258,484;54541,733;12,08714
 703,43; 6829,759;  273,714;54770,713;12,03010
 704,00; 6866,129;  279,483;55057,154;12,02433
 704,57; 6751,268;  259,791;55058,441;11,84605
 705,14; 6799,637;  288,330;55471,882;11,79936
 705,71; 6774,545;  304,483;55285,169;11,76788
 706,28; 6703,684;  265,714;55104,226;11,73987
 706,86; 6695,438;  295,252;55534,820;11,58623
 707,43; 6709,038;  310,022;55383,723;11,61901
 708,00; 6658,177;  290,252;55346,395;11,56624
 708,57; 6635,316;  268,098;55235,913;11,58354
 709,14; 6623,301;  293,791;55411,815;11,48356
 709,71; 6626,516;  276,560;55532,718;11,49185
 710,28; 6596,655;  279,637;55805,621;11,37669
 710,86; 6594,563;  291,175;55970,600;11,32086
 711,43; 6600,933;  290,406;55888,118;11,35034
 712,00; 6588,148;  274,637;55957,174;11,33840
 712,57; 6597,056;  275,791;56137,308;11,31596
 713,14; 6611,118;  262,252;56208,749;11,34810
 713,71; 6551,795;  270,021;56201,882;11,23112
 714,28; 6564,857;  257,560;56236,785;11,26721
 714,85; 6486,611;  242,790;55991,303;11,19998
 715,42; 6501,750;  253,098;56180,205;11,17285
 716,00; 6506,350;  284,329;56225,416;11,12245
 716,57; 6501,181;  247,636;56417,087;11,13336
 717,14; 6455,397;  228,329;56269,682;11,11156
 717,71; 6441,382;  227,636;56335,508;11,07464
 718,28; 6488,444;  255,405;56488,026;11,08438
 718,85; 6412,352;  227,252;56446,544;11,00174
 719,42; 6467,490;  251,790;56574,600;11,03585
 719,99; 6408,245;  222,405;56358,041;11,01945
 720,56; 6434,614;  244,328;56784,098;10,94855
 721,13; 6370,060;  243,867;56791,000;10,83378
 721,70; 6375,738;  235,405;56697,057;10,87523
 722,27; 6432,646;  254,867;56687,267;10,94722
 722,84; 6441,707;  280,867;56820,324;10,89653
 723,41; 6412,615;  234,251;56890,611;10,90498
 723,98; 6406,139;  241,328;57073,359;10,84742
 724,55; 6412,354;  262,328;57088,108;10,82260
 725,12; 6364,493;  207,636;56945,242;10,85146
 725,69; 6420,709;  237,020;57245,298;10,84700
 726,27; 6382,848;  233,020;57271,047;10,78198
 726,84; 6453,986;  240,636;57624,565;10,82768
 727,41; 6416,664;  251,251;57589,621;10,75268
 727,98; 6483,495;  263,020;57923,216;10,78816
 728,55; 6458,633;  283,020;57835,657;10,73037
 729,12; 6419,311;  230,328;57945,098;10,72339
 729,69; 6477,372;  268,559;58066,616;10,74225
 730,26; 6445,588;  275,251;58355,826;10,62375
 730,82; 6487,727;  245,712;58148,806;10,78011
 731,39; 6465,019;  244,097;58373,478;10,70186
 731,96; 6501,312;  238,866;58516,303;10,74592
 732,53; 6552,297;  269,251;58742,898;10,74509
 733,10; 6530,820;  270,558;58825,955;10,69118
 733,67; 6528,421;  277,097;59177,088;10,61345
 734,24; 6527,867;  258,020;58721,067;10,72446
 734,81; 6619,236;  285,097;58925,509;10,80166
 735,38; 6525,375;  263,097;58723,334;10,71203
 735,95; 6577,283;  264,789;58613,237;10,81862
 736,52; 6576,268;  280,096;58822,985;10,75480
 737,09; 6486,561;  276,635;58394,965;10,68497
 737,66; 6550,622;  316,712;58646,406;10,68737
 738,23; 6553,223;  248,866;58650,309;10,79487
 738,80; 6602,131;  294,635;58915,904;10,75974
 739,37; 6620,269;  293,866;59062,883;10,76486
 739,94; 6621,562;  277,865;59129,863;10,77907
 740,51; 6639,393;  326,250;59178,611;10,72709
 741,07; 6606,378;  267,865;59139,360;10,76669
 741,64; 6649,363;  288,404;59329,263;10,77383
 742,21; 6676,655;  274,096;59443,781;10,82068
 742,78; 6633,487;  246,327;59094,991;10,85353
 743,35; 6675,625;  261,634;59433,124;10,83966
 743,92; 6702,456;  301,942;59601,950;10,79345
 744,49; 6694,903;  279,250;59429,545;10,84636
 745,06; 6669,042;  268,250;59462,986;10,81311
 745,63; 6711,257;  252,865;59424,581;10,91466
 746,19; 6698,319;  258,942;59418,714;10,88472
 746,76; 6762,842;  272,557;59542,078;10,95046
 747,33; 6730,673;  253,865;59456,827;10,94001
 747,90; 6806,351;  273,173;59651,499;11,00263
 748,47; 6808,720;  286,096;59525,247;11,01066
 749,04; 6799,013;  282,942;59625,458;10,98044
 749,61; 6801,998;  291,480;59468,976;11,00168
 750,17; 6853,444;  278,634;59581,263;11,08688
 750,74; 6862,814;  284,557;59467,704;11,11508
 751,31; 6797,491;  257,634;59390,068;11,05968
 751,88; 6847,783;  244,788;59226,047;11,19507
 752,45; 6887,922;  272,480;59405,104;11,18747
 753,02; 6822,753;  267,557;59205,314;11,12224
 753,58; 6839,507;  256,403;59122,755;11,18314
 754,15; 6894,954;  268,326;59189,504;11,24660
 754,72; 6859,092;  247,172;59014,637;11,25099
 755,29; 6907,000;  243,634;58905,694;11,35890
 755,86; 6914,216;  261,480;58876,212;11,34994
 756,42; 6951,047;  268,710;58750,653;11,42632
 756,99; 6892,724;  222,864;58846,863;11,37735
 757,56; 6913,094;  245,787;58790,458;11,38841
 758,13; 6918,079;  201,480;58545,361;11,51209
 758,70; 7019,064;  227,326;58772,186;11,60091
 759,26; 7011,972;  219,787;58855,627;11,58367
 759,83; 7052,418;  217,249;58988,761;11,63007
 760,40; 7079,249;  215,556;58826,202;11,71066
 760,97; 7070,696;  191,941;58879,796;11,72092
 761,53; 7061,373;  167,787;58425,084;11,83300
 762,10; 7051,511;  188,864;58423,448;11,78449
 762,67; 7154,958;  215,556;58351,197;11,93657
 763,24; 7078,558;  171,864;57767,253;11,99175
 763,80; 7113,851;  215,941;58088,848;11,91907
 764,37; 7175,682;  221,633;58054,058;12,02448
 764,94; 7117,744;  202,479;57578,653;12,05250
 765,50; 7133,344;  200,941;57513,094;12,09587
 766,07; 7172,790;  250,941;57612,381;12,06708
 766,64; 7160,621;  222,402;57285,438;12,15887
 767,21; 7193,529;  218,479;57147,879;12,25211
 767,77; 7188,745;  245,017;57066,397;12,22027
 768,34; 7207,499;  254,633;57069,684;12,23772
 768,91; 7202,099;  249,171;56848,048;12,28457
 769,47; 7176,700;  242,094;56918,720;12,23539
 770,04; 7186,838;  264,094;56714,392;12,26343
 770,61; 7170,746;  238,556;56494,679;12,32255
 771,18; 7163,039;  229,017;56359,889;12,35331
 771,74; 7238,716;  251,786;56535,561;12,41376
 772,31; 7200,240;  254,632;56343,310;12,38326
 772,88; 7186,301;  219,555;56090,212;12,46942
 773,44; 7198,440;  231,325;55928,038;12,50902
 774,01; 7209,040;  242,017;56069,710;12,47951
 774,58; 7242,102;  224,786;55530,920;12,68813
 775,14; 7264,164;  214,171;55797,361;12,68368
 775,71; 7293,611;  233,863;55588,110;12,75376
 776,27; 7350,518;  273,632;55554,397;12,80172
 776,84; 7364,042;  278,171;55555,530;12,81876
 777,41; 7291,796;  255,324;55365,587;12,76799
 777,97; 7318,165;  248,324;55056,105;12,89934
 778,54; 7341,997;  248,632;54984,930;12,95916
 779,11; 7416,135;  258,170;55127,525;13,04547
 779,67; 7389,197;  230,093;54995,659;13,07227
 780,24; 7429,644;  253,863;54725,946;13,17332
 780,80; 7507,705;  263,401;54791,233;13,28552
 781,37; 7483,152;  252,939;54738,366;13,26999
 781,94; 7497,983;  254,862;54609,423;13,32569
 782,50; 7547,583;  256,170;54425,941;13,46030
 783,07; 7618,337;  272,401;54443,382;13,56065
 783,63; 7615,476;  230,247;54203,900;13,68303
 784,20; 7654,153;  255,478;54131,725;13,73272
 784,77; 7639,523;  249,401;53909,782;13,77203
 785,33; 7637,200;  226,170;53752,992;13,84545
 785,90; 7698,492;  246,554;53709,741;13,93845
 786,46; 7709,016;  265,939;53596,567;13,95648
 787,03; 7735,001;  237,016;53392,238;14,10583
 787,59; 7729,909;  245,708;53256,372;14,11829
 788,16; 7767,278;  241,785;53273,120;14,19065
 788,73; 7735,494;  245,400;53157,715;14,15567
 789,29; 7764,248;  241,631;52693,310;14,34199
 789,86; 7819,079;  246,016;52655,367;14,44983
 790,42; 7799,064;  255,093;52516,808;14,43499
 790,99; 7771,280;  254,246;52100,479;14,49871
 791,55; 7795,726;  236,016;52082,382;14,58098
 792,12; 7809,096;  259,092;52155,823;14,54813
 792,68; 7766,850;  239,939;51808,341;14,59597
 793,25; 7752,835;  247,015;51550,551;14,63022
 793,81; 7770,358;  277,400;51208,915;14,71183
 794,38; 7687,112;  221,708;50908,587;14,72847
 794,94; 7747,020;  227,323;50764,721;14,87947
 795,51; 7710,236;  243,708;50542,854;14,84424
 796,07; 7713,221;  253,015;50333,987;14,89629
 796,64; 7747,744;  272,477;50487,890;14,88640
 797,20; 7710,729;  240,938;49802,792;15,07165
 797,77; 7631,637;  231,246;49591,310;14,99267
 798,33; 7664,622;  230,861;49426,521;15,11060
 798,90; 7715,376;  267,554;49308,500;15,18695
 799,46; 7673,438;  243,092;48887,557;15,27480
 800,03; 7659,423;  251,246;48753,382;15,27392
 800,59; 7672,023;  264,246;48521,746;15,35052
 801,15; 7699,546;  256,169;48366,495;15,47148
 801,72; 7658,223;  253,246;47952,244;15,52439
 802,28; 7676,978;  285,707;47615,993;15,61637
 802,85; 7629,732;  252,861;47502,203;15,61264
 803,41; 7618,332;  252,553;47225,182;15,68100
 803,98; 7623,394;  238,861;46825,777;15,85109
 804,54; 7629,148;  241,938;46639,603;15,92151
 805,11; 7614,287;  251,168;46334,582;15,97781
 805,67; 7684,348;  264,322;46328,562;16,10800
 806,23; 7610,103;  257,015;45764,695;16,15791
 806,80; 7630,241;  271,091;45659,521;16,21371
 807,36; 7640,842;  276,399;45604,039;16,24713
 807,93; 7671,673;  277,322;45434,403;16,37473
 808,49; 7613,811;  234,784;44903,536;16,51944
 809,05; 7615,104;  223,399;44802,670;16,58104
 809,62; 7654,627;  256,707;44716,188;16,63969
 810,18; 7668,612;  257,399;44535,860;16,73774
 810,74; 7594,520;  234,322;44307,608;16,69991
 811,31; 7584,505;  232,553;43994,203;16,79999
 811,87; 7588,490;  234,860;43757,798;16,89599
 812,44; 7655,244;  272,783;43915,470;16,91569
 813,00; 7616,691;  212,168;43590,142;17,06978
 813,56; 7701,599;  244,552;43547,044;17,22082
 814,13; 7688,353;  239,937;43498,793;17,21824
 814,69; 7661,491;  247,860;43391,696;17,18352
 815,25; 7623,553;  219,245;42853,752;17,36694
 815,82; 7725,846;  256,783;42841,116;17,53946
 816,38; 7682,215;  262,783;42599,942;17,52463
 816,94; 7634,508;  220,245;42260,460;17,63612
 817,51; 7651,877;  215,629;42091,055;17,75802
 818,07; 7640,785;  223,091;41767,496;17,85486
 818,63; 7621,463;  240,398;41667,321;17,81707
 819,20; 7692,063;  235,398;41566,839;18,04114
 819,76; 7619,125;  223,552;41074,742;18,10369
 820,32; 7657,033;  272,244;41011,106;18,12713
 820,89; 7629,710;  255,167;40687,239;18,23934
 821,45; 7653,233;  234,475;40463,834;18,44115
 822,01; 7599,834;  249,629;40220,968;18,38869
 822,57; 7604,665;  259,783;39982,101;18,49057
 823,14; 7575,649;  225,475;39833,157;18,55745
 823,70; 7543,096;  218,706;39567,752;18,61390
 824,26; 7609,312;  228,936;39387,347;18,84748
 824,82; 7610,681;  252,552;39175,250;18,90447
 825,39; 7552,512;  227,859;38963,614;18,90928
 825,95; 7612,574;  256,398;39067,363;18,95386
 826,51; 7549,867;  249,552;38561,111;19,05512
 827,08; 7594,544;  270,244;38724,245;19,04691
 827,64; 7585,606;  260,936;38392,301;19,20904
 828,20; 7551,052;  233,859;38115,127;19,31612
 828,76; 7618,037;  245,474;38089,183;19,48161
 829,32; 7606,791;  254,321;37973,317;19,49275
 829,89; 7606,391;  212,321;37802,988;19,66996
 830,45; 7654,530;  229,936;37824,429;19,74915
 831,01; 7611,592;  221,936;37613,717;19,76278
 831,57; 7662,884;  234,628;37533,388;19,91556
 832,14; 7666,023;  231,167;37369,753;20,01922
 832,70; 7607,316;  232,705;37181,194;19,95917
 833,26; 7650,070;  220,320;37071,481;20,16151
 833,82; 7673,824;  230,705;37021,230;20,23108
 834,38; 7723,963;  225,320;36996,440;20,39275
 834,95; 7700,486;  213,936;36952,804;20,37774
 835,51; 7668,471;  192,166;36686,014;20,48648
 836,07; 7718,456;  232,859;36854,994;20,44009
 836,63; 7756,364;  244,320;36785,742;20,55761
 837,19; 7748,810;  231,782;36651,183;20,64018
 837,75; 7704,180;  204,012;36309,701;20,77281
 838,32; 7780,396;  244,935;36406,142;20,83852
 838,88; 7816,534;  252,320;36453,814;20,89476
 839,44; 7843,904;  237,243;36295,948;21,09521
 840,00; 7817,273;  233,551;36287,619;21,03430
 840,56; 7792,874;  210,089;35888,676;21,25304
 841,12; 7816,935;  211,474;35894,040;21,31422
 841,68; 7797,613;  209,012;35755,481;21,34839
 842,25; 7827,674;  217,320;35702,461;21,44660
 842,81; 7865,198;  215,012;35419,979;21,73042
 843,37; 7838,490;  205,704;35401,112;21,68688
 843,93; 7852,398;  223,320;35395,399;21,69072
 844,49; 7885,768;  230,396;35421,994;21,75341
 845,05; 7869,599;  204,089;35120,435;21,95393
 845,61; 7948,968;  240,858;35187,338;22,05690
 846,17; 7909,799;  225,781;35010,394;22,09028
 846,73; 7972,400;  228,396;34950,604;22,30274
 847,29; 7962,385;  204,012;34827,738;22,40768
 847,86; 7965,446;  213,242;34715,333;22,46880
 848,42; 7927,047;  204,858;34488,004;22,52474
 848,98; 7981,262;  219,704;34480,984;22,65402
 849,54; 8005,940;  211,242;34480,425;22,74550
 850,10; 8000,155;  226,627;34362,866;22,77207
 850,66; 7982,986;  202,088;34152,999;22,91808
 851,22; 8002,279;  196,627;34137,210;22,99799
 851,78; 8048,802;  250,242;34209,266;22,96462
 852,34; 8012,633;  227,011;33986,169;23,06225
 852,90; 8023,080;  210,165;33799,225;23,26030
 853,46; 7981,680;  207,703;33608,128;23,27508
 854,02; 8023,203;  222,473;33612,492;23,36246
 854,58; 8034,188;  206,550;33277,317;23,66936
 855,14; 8044,635;  188,088;33354,220;23,68846
 855,70; 8042,697;  181,088;33088,969;23,88974
 856,26; 8086,604;  230,857;33075,948;23,91757
 856,82; 8054,205;  211,011;32863,158;24,02045
 857,38; 8042,805;  232,780;32774,138;24,00030
 857,94; 8100,944;  223,318;32659,810;24,28631
 858,50; 8127,390;  227,472;32530,405;24,45573
 859,06; 8065,914;  212,857;32381,692;24,41200
 859,62; 8092,437;  238,165;32286,517;24,50757
 860,18; 8089,191;  211,703;32127,805;24,68186
 860,74; 8108,561;  191,164;31923,477;24,95058
 861,30; 8061,776;  198,703;31767,302;24,90789
 861,86; 8137,146;  234,241;31797,743;25,03811
 862,42; 8116,592;  211,241;31628,569;25,16239
 862,98; 8120,962;  233,549;31602,010;25,14440
 863,54; 8095,947;  232,703;31329,066;25,28670
 864,10; 8198,624;  218,780;31484,661;25,52253
 864,66; 8158,301;  197,164;31206,641;25,67324
 865,22; 8117,824;  218,395;31051,928;25,61961
 865,78; 8156,578;  226,164;30883,215;25,86816
 866,34; 8146,486;  217,549;30887,579;25,85240
 866,90; 8153,856;  224,010;30757,020;25,97139
 867,45; 8122,841;  234,779;30473,000;26,08639
 868,01; 8078,826;  225,010;30303,825;26,11079
 868,57; 8094,426;  220,856;30039,651;26,40472
 869,13; 8087,026;  209,933;29981,323;26,45860
 869,69; 8085,780;  210,702;29867,533;26,55401
 870,25; 8057,919;  195,010;29826,051;26,53605
 870,81; 8069,904;  223,625;29740,185;26,58263
 871,37; 8129,427;  225,087;29572,318;26,93386
 871,93; 8146,489;  240,317;29451,913;27,06518
 872,49; 8071,782;  224,779;29189,046;27,09201
 873,04; 8028,690;  209,471;29004,179;27,15505
 873,60; 8011,752;  195,702;28887,159;27,24173
 874,16; 8008,429;  228,471;28813,062;27,21731
 874,72; 8036,506;  209,394;28708,985;27,46394
 875,28; 8073,660;  227,240;28637,369;27,61839
 875,84; 8048,352;  215,625;28635,985;27,56027
 876,40; 8069,890;  221,163;28542,754;27,71287
 876,95; 8121,044;  228,779;28543,138;27,87372
 877,51; 8122,506;  241,625;28472,292;27,91603
 878,07; 8142,275;  256,240;28418,138;28,00250
 878,63; 8161,275;  221,702;28446,062;28,13022
 879,19; 8189,890;  236,317;28484,831;28,15572
 879,75; 8245,813;  231,317;28551,523;28,29957
 880,30; 8310,506;  218,010;28479,215;28,63465
 880,86; 8412,583;  260,933;28569,600;28,79560
 881,42; 8368,967;  217,240;28612,677;28,70788
 881,98; 8445,429;  230,702;28630,677;28,92512
 882,54; 8504,275;  214,394;28784,292;29,01614
 883,09; 8556,737;  239,779;28888,138;29,03118
 883,65; 8635,198;  208,317;28963,908;29,30519
 884,21; 8662,121;  241,702;29296,062;28,98160
 884,77; 8732,660;  218,471;29311,677;29,26521
 885,32; 8817,121;  213,240;29452,369;29,42591
 885,88; 8864,813;  256,702;29581,754;29,35412
 886,44; 8896,506;  226,394;29676,062;29,44044
 887,00; 8947,890;  239,856;29623,600;29,63555
 887,56; 9033,890;  223,163;29824,215;29,76491
 888,11; 9048,121;  210,317;29801,831;29,86601
 888,67; 9120,813;  252,317;30013,138;29,79923
 889,23; 9193,737;  237,471;30036,369;30,05569
 889,79; 9153,121;  212,702;29856,446;30,15955
 890,34; 9198,429;  218,702;29755,677;30,40165
 890,90; 9276,583;  276,702;29912,908;30,36786
 891,46; 9226,967;  214,625;29891,908;30,36782
 892,01; 9278,813;  241,317;29837,831;30,53568
 892,57; 9270,044;  249,317;29815,908;30,50987
 893,13; 9272,583;  211,471;29535,831;30,89961
 893,69; 9336,275;  211,548;29489,138;31,16625
 894,24; 9270,506;  224,471;29436,369;30,96695
 894,80; 9254,352;  227,702;29311,292;31,03692
 895,36; 9297,967;  225,394;29145,600;31,37105
 895,91; 9233,660;  223,856;28901,062;31,41800
 896,47; 9289,429;  225,548;28834,831;31,68161
 897,03; 9221,967;  215,394;28646,446;31,67865
 897,58; 9264,275;  230,087;28489,215;31,96910
 898,14; 9223,813;  234,163;28277,523;32,05625
 898,70; 9187,121;  203,548;28110,677;32,19096
 899,25; 9227,583;  218,240;28128,600;32,27956
 899,81; 9240,967;  238,702;27953,523;32,48177
 900,37; 9139,967;  202,471;27739,600;32,45617
 900,92; 9227,890;  223,317;27738,292;32,72608
 901,48; 9204,198;  218,087;27590,908;32,82859
 902,03; 9165,967;  210,010;27470,600;32,85313
 902,59; 9132,429;  215,394;27349,446;32,86289
 903,15; 9152,737;  235,317;27222,677;33,04295
 903,70; 9056,967;  234,163;26894,523;33,09334
 904,26; 9062,583;  207,010;26756,754;33,35465
 904,82; 9110,890;  216,856;26783,292;33,47846
 905,37; 9037,813;  218,010;26597,446;33,43439
 905,93; 9049,813;  218,625;26490,677;33,61438
 906,48; 9078,352;  227,548;26393,831;33,82522
 907,04; 9111,198;  232,317;26286,985;34,07789
 907,60; 9073,275;  207,010;26103,523;34,23729
 908,15; 9041,198;  206,087;25973,292;34,28820
 908,71; 9069,737;  240,087;25927,985;34,37280
 909,26; 9001,583;  211,471;25778,831;34,38021
 909,82; 9028,506;  234,625;25663,985;34,58161
 910,37; 9038,583;  255,010;25578,985;34,68481
 910,93; 8966,275;  204,702;25386,677;34,79303
 911,48; 8943,813;  205,933;25212,138;34,94285
 912,04; 8823,352;  208,779;25197,062;34,47445
 912,60; 8954,429;  217,779;25104,292;35,10596
 913,15; 8935,583;  222,548;24869,062;35,35200
 913,71; 8860,044;  204,702;24769,062;35,23537
 914,26; 8864,506;  196,548;24667,292;35,42172
 914,82; 8826,583;  218,317;24587,446;35,32447
 915,37; 8797,967;  205,779;24464,677;35,41871
 915,93; 8827,506;  239,010;24302,831;35,69049
 916,48; 8821,890;  205,394;24189,908;35,92525
 917,04; 8791,429;  228,702;24118,446;35,84269
 917,59; 8798,737;  237,010;23943,831;36,11504
 918,15; 8699,429;  187,548;23757,138;36,11383
 918,70; 8690,429;  216,163;23660,062;36,14700
 919,26; 8706,813;  216,702;23574,292;36,34840
 919,81; 8665,506;  205,856;23432,062;36,42287
 920,37; 8676,583;  212,625;23338,215;36,59996
 920,92; 8664,275;  234,010;23275,754;36,58692
 921,48; 8654,352;  203,317;23074,985;36,94980
 922,03; 8689,967;  214,471;23022,677;37,15985
 922,59; 8697,813;  201,779;22864,215;37,48950
 923,14; 8621,660;  198,240;22737,062;37,37294
 923,69; 8684,737;  228,625;22602,138;37,79519
 924,25; 8699,890;  232,779;22644,985;37,77902
 924,80; 8620,352;  216,087;22431,908;37,83009
 925,36; 8583,044;  209,163;22327,677;37,85915
 925,91; 8617,352;  211,856;22212,600;38,20551
 926,47; 8583,506;  187,625;22136,523;38,25195
 927,02; 8612,890;  232,010;21913,908;38,65381
 927,57; 8568,121;  217,933;21878,831;38,54959
 928,13; 8557,506;  203,625;21741,369;38,78717
 928,68; 8530,890;  208,702;21738,754;38,65382
 929,24; 8501,198;  185,163;21501,138;39,01316
 929,79; 8473,429;  199,471;21321,754;39,17170
 930,34; 8435,737;  209,163;21279,831;39,04277
 930,90; 8442,737;  195,548;21201,446;39,26130
 931,45; 8508,583;  212,394;21130,600;39,66013
 932,01; 8441,506;  218,394;21122,754;39,33683
 932,56; 8400,660;  227,779;20854,754;39,62229
 933,11; 8450,275;  226,471;20900,062;39,77927
 933,67; 8339,352;  203,240;20674,446;39,74417
 934,22; 8349,275;  212,087;20583,831;39,94350
 934,77; 8291,429;  226,163;20451,523;39,87699
 935,33; 8285,352;  223,779;20349,754;40,05557
 935,88; 8299,583;  215,317;20240,985;40,36952
 936,43; 8257,813;  197,394;20161,523;40,37451
 936,99; 8223,660;  212,394;20146,062;40,18962
 937,54; 8223,737;  194,010;19957,677;40,62873
 938,09; 8252,121;  214,394;19891,446;40,84823
 938,65; 8177,198;  213,779;19737,677;40,78806
 939,20; 8160,044;  194,163;19643,754;40,95655
 939,75; 8129,429;  198,163;19498,062;41,09486
 940,31; 8123,429;  182,087;19441,600;41,23335
 940,86; 8129,275;  219,702;19434,369;41,16425
 941,41; 8152,044;  256,394;19287,677;41,48774
 941,96; 8077,813;  203,471;19205,908;41,43859
 942,52; 8063,352;  214,394;19047,215;41,67701
 943,07; 8072,660;  190,163;18956,754;42,00281
 943,62; 8061,813;  202,240;18877,754;42,08491
 944,18; 8021,506;  196,548;18813,523;42,03131
 944,73; 8039,506;  207,087;18695,138;42,36476
 945,28; 7910,967;  181,702;18496,369;42,20260
 945,83; 7984,506;  199,240;18507,985;42,52212
 946,39; 7991,429;  202,856;18413,062;42,77037
 946,94; 7967,813;  230,548;18384,677;42,61987
 947,49; 7947,429;  200,163;18217,446;42,99908
 948,04; 7949,583;  219,010;18221,908;42,94071
 948,59; 7935,044;  227,317;18113,062;43,09425
 949,15; 7882,198;  188,394;18063,062;43,04306
 949,70; 7867,429;  194,933;17914,369;43,29989
 950,25; 7885,737;  226,779;17773,754;43,64831
 950,80; 7813,583;  171,625;17692,677;43,61586
 951,36; 7797,737;  177,010;17595,908;43,74976
 951,91; 7811,660;  223,087;17601,985;43,66544
 952,46; 7700,429;  183,933;17384,831;43,69828
 953,01; 7769,890;  222,856;17419,985;43,88543
 953,56; 7740,660;  177,702;17263,600;44,26433
 954,11; 7716,275;  216,087;17247,062;44,03851
 954,67; 7699,352;  198,779;17164,677;44,20970
 955,22; 7638,198;  180,779;16994,446;44,35332
 955,77; 7669,737;  221,625;16988,754;44,42091
 956,32; 7628,813;  243,010;16874,446;44,40869
 956,87; 7547,044;  188,702;16714,831;44,52550
 957,42; 7593,967;  204,471;16632,446;44,98117
 957,98; 7574,737;  195,240;16599,369;44,98560
 958,53; 7623,198;  222,471;16547,138;45,33463
 959,08; 7517,660;  194,163;16408,138;45,16780
 959,63; 7498,352;  192,087;16331,600;45,26943
 960,18; 7535,121;  215,163;16244,369;45,66638
 960,73; 7556,044;  205,010;16235,600;45,85629
 961,28; 7484,660;  186,933;16052,985;45,99586
 961,83; 7566,352;  213,087;16048,754;46,43483
 962,39; 7469,198;  189,856;15892,985;46,35600
 962,94; 7460,813;  223,317;15823,138;46,39474
 963,49; 7443,737;  203,087;15643,369;46,89454
 964,04; 7462,890;  215,317;15701,754;46,79949
 964,59; 7373,352;  180,087;15528,292;46,86714
 965,14; 7434,660;  213,471;15522,523;47,16940
 965,69; 7363,813;  204,702;15344,523;47,28663
 966,24; 7402,506;  208,548;15286,369;47,71218
 966,79; 7339,352;  213,856;15118,677;47,80665
 967,34; 7296,660;  178,087;14954,369;48,17567
 967,89; 7322,275;  189,317;14949,062;48,32711
 968,44; 7289,352;  211,394;14925,138;48,10440
 968,99; 7230,737;  212,163;14861,600;47,91019
 969,55; 7242,121;  209,856;14736,446;48,40961
 970,10; 7182,429;  210,625;14599,215;48,45370
 970,65; 7168,506;  214,933;14600,446;48,33733
 971,20; 7135,583;  203,471;14429,831;48,72723
 971,75; 7051,813;  189,548;14307,292;48,60738
 972,30; 7063,198;  202,779;14217,677;48,95090
 972,85; 7015,813;  203,548;14192,369;48,69792
 973,40; 6973,737;  195,702;13995,369;49,11738
 973,95; 6970,967;  206,779;13956,523;49,19501
 974,50; 6954,737;  223,394;13924,754;49,12901
 975,05; 6854,198;  220,779;13814,138;48,79897
 975,60; 6845,890;  225,779;13755,215;48,93117
 976,15; 6815,583;  215,394;13603,369;49,29938
 976,70; 6778,737;  213,163;13577,292;49,12833
 977,25; 6797,429;  208,779;13508,369;49,54025
 977,80; 6691,737;  199,933;13354,446;49,35039
 978,35; 6638,275;  215,163;13229,600;49,35374
 978,89; 6655,660;  196,010;13118,600;49,98727
 979,44; 6639,198;  205,317;13052,292;50,08090
 979,99; 6551,813;  193,625;12881,292;50,11314
 980,54; 6534,506;  235,779;12788,292;50,17901
 981,09; 6511,044;  218,779;12741,985;50,24485
 981,64; 6472,506;  216,471;12576,292;50,61590
 982,19; 6475,890;  248,240;12534,523;50,68783
 982,74; 6388,121;  226,702;12426,677;50,50354
 983,29; 6349,660;  195,240;12235,369;51,11589
 983,84; 6311,121;  212,856;12153,138;51,07304
 984,39; 6300,429;  247,471;12121,062;50,97833
 984,94; 6217,967;  190,471;11949,754;51,25735
 985,49; 6236,429;  229,010;11893,138;51,50337
 986,03; 6194,429;  240,856;11820,831;51,41266
 986,58; 6155,583;  246,240;11686,985;51,65173
 987,13; 6088,660;  218,240;11542,600;51,83886
 987,68; 6027,583;  230,163;11404,985;51,87930
 988,23; 6052,121;  229,933;11353,523;52,34091
 988,78; 5960,121;  214,317;11223,292;52,19200
 989,33; 5945,275;  228,471;11134,985;52,41642
 989,88; 5928,044;  235,394;11119,831;52,30082
 990,42; 5858,198;  219,625;10899,677;52,79537
 990,97; 5815,352;  216,856;10851,600;52,64345
 991,52; 5771,044;  239,779;10713,523;52,81077
 992,07; 5761,429;  244,394;10635,985;53,09134
 992,62; 5737,352;  230,163;10571,985;53,25163
 993,17; 5652,813;  230,471;10423,215;53,19806
 993,71; 5599,967;  222,471;10308,215;53,31779
 994,26; 5550,967;  199,471;10194,369;53,54228
 994,81; 5553,275;  232,779;10166,369;53,56066
 995,36; 5478,890;  218,702;10009,831;53,72402
 995,91; 5464,198;  223,317; 9934,138;53,96949
 996,45; 5385,429;  228,548; 9834,215;53,68581
 997,00; 5326,967;  199,471; 9690,677;54,02365
 997,55; 5330,583;  216,702; 9629,523;54,32888
 998,10; 5284,967;  247,317; 9522,215;54,31488
 998,65; 5215,506;  218,779; 9451,831;54,11783
 999,19; 5228,583;  237,317; 9256,831;55,33852
 999,74; 5177,660;  252,779; 9225,523;54,88712
1000,29; 5129,044;  227,933; 9121,754;55,10693
1000,84; 5052,429;  216,317; 9033,292;54,85001
1001,38; 5018,813;  220,702; 8862,446;55,52249
1001,93; 5009,813;  237,087; 8807,677;55,68726
1002,48; 4915,198;  203,087; 8696,677;55,47844
1003,03; 4903,044;  221,856; 8659,369;55,48066
1003,57; 4849,660;  231,087; 8529,523;55,65594
1004,12; 4836,198;  245,010; 8427,215;56,11187
1004,67; 4783,890;  214,779; 8341,138;56,22581
1005,22; 4705,660;  210,933; 8213,985;56,16266
1005,76; 4652,890;  205,548; 8064,677;56,58824
1006,31; 4631,967;  242,625; 8032,369;56,34771
1006,86; 4548,660;  211,010; 7859,446;56,71290
1007,40; 4467,275;  196,471; 7727,292;56,71100
1007,95; 4468,967;  215,163; 7683,754;56,95591
1008,50; 4370,813;  218,933; 7577,677;56,42105
1009,04; 4358,583;  225,625; 7457,908;57,14596
1009,59; 4257,967;  231,625; 7315,523;56,83795
1010,14; 4226,813;  211,471; 7221,831;57,27727
1010,68; 4197,813;  219,087; 7066,831;58,10274
1011,23; 4103,275;  200,548; 6984,523;57,52862
1011,78; 4077,044;  229,856; 6928,831;57,42951
1012,32; 4030,813;  217,240; 6785,908;58,05703
1012,87; 4052,044;  244,933; 6796,292;58,11178
1013,42; 3974,737;  209,240; 6641,369;58,54199
1013,96; 3982,506;  242,163; 6651,292;58,35961
1014,51; 3871,275;  195,779; 6561,985;57,73449
1015,06; 3901,660;  196,471; 6542,908;58,38219
1015,60; 3995,737;  260,702; 6590,446;59,00767
1016,15; 3914,737;  215,394; 6511,754;58,75367
1016,69; 3991,967;  210,702; 6584,215;59,32780
1017,24; 3972,198;  201,625; 6533,215;59,55175
1017,79; 4028,275;  236,625; 6648,215;59,13743
1018,33; 4028,275;  196,856; 6574,138;60,07918
1018,88; 4067,044;  217,856; 6679,292;59,57171
1019,42; 4064,737;  221,625; 6673,369;59,56702
1019,97; 4067,813;  212,010; 6700,754;59,42296
1020,51; 4115,890;  216,317; 6676,062;60,36730
1021,06; 4085,967;  211,240; 6675,831;59,93770
1021,61; 4088,737;  190,087; 6661,600;60,24325
1022,15; 4068,506;  171,856; 6627,369;60,36158
1022,70; 4091,583;  215,856; 6593,677;60,76882
1023,24; 4081,352;  204,548; 6580,215;60,80624
1023,79; 4043,352;  220,163; 6547,138;60,42680
1024,33; 4014,121;  218,087; 6440,292;61,00786
1024,88; 3969,275;  219,240; 6406,985;60,60423
1025,42; 3876,506;  201,779; 6280,831;60,44901
1025,97; 3894,967;  203,933; 6205,677;61,49937
1026,51; 3798,044;  173,087; 6046,600;61,71702
1027,06; 3784,044;  209,317; 6048,446;61,22021
1027,60; 3756,198;  207,702; 5891,600;62,43068
1028,15; 3703,044;  221,087; 5849,754;61,86114
1028,69; 3609,737;  174,317; 5712,523;62,03127
1029,24; 3612,506;  207,933; 5681,062;62,20524
1029,78; 3538,660;  205,779; 5514,600;62,78005
1030,33; 3468,660;  177,933; 5433,292;62,61659
1030,87; 3475,660;  206,471; 5377,138;63,22566
1031,42; 3417,121;  194,933; 5281,754;63,34385
1031,96; 3374,506;  212,317; 5252,754;62,73640
1032,51; 3343,660;  199,317; 5121,062;63,88675
1033,05; 3310,198;  208,163; 5095,985;63,46457
1033,60; 3203,890;  174,933; 4951,138;63,41765
1034,14; 3197,737;  199,933; 4910,831;63,63551
1034,69; 3163,813;  199,317; 4856,908;63,64871
1035,23; 3122,352;  204,702; 4754,600;64,12561
1035,77; 3060,121;  196,087; 4713,292;63,40279
1036,32; 3013,198;  180,779; 4606,908;63,99315
1036,86; 3027,198;  198,163; 4560,138;64,85674
1037,41; 2983,813;  204,625; 4497,369;64,74153
1037,95; 2886,890;  183,933; 4440,754;63,49709
1038,50; 2883,275;  196,240; 4361,138;64,51622
1039,04; 2878,198;  203,779; 4342,831;64,61430
1039,58; 2781,737;  192,010; 4257,446;63,70108
1040,13; 2779,506;  201,471; 4193,754;64,57545
1040,67; 2777,890;  223,394; 4184,369;64,49160
1041,21; 2706,198;  228,317; 4080,523;64,32369
1041,76; 2644,121;  176,471; 3987,908;64,74331
1042,30; 2640,352;  210,471; 3959,215;64,81853
1042,85; 2595,660;  207,856; 3900,831;64,65800
1043,39; 2574,198;  190,010; 3855,600;65,04241
1043,93; 2559,275;  217,394; 3807,292;65,23530
1044,48; 2540,198;  205,548; 3721,600;66,39976
1045,02; 2496,506;  202,856; 3640,062;66,73008
1045,56; 2506,813;  210,548; 3624,985;67,25166
1046,11; 2469,506;  210,394; 3580,523;67,03339
1046,65; 2415,813;  208,779; 3510,292;66,84918
1047,19; 2387,121;  198,779; 3490,523;66,47972
1047,74; 2347,506;  182,856; 3377,062;67,76802
1048,28; 2341,890;  210,779; 3371,369;67,42764
1048,82; 2324,890;  222,625; 3358,138;67,04693
1049,37; 2297,583;  205,240; 3283,600;67,96939
1049,91; 2247,890;  197,548; 3233,215;67,54173
1050,45; 2235,352;  228,317; 3187,908;67,81461
1050,99; 2215,660;  207,856; 3150,215;68,23788
1051,54; 2173,044;  196,933; 3088,369;68,34359
1052,08; 2163,813;  215,010; 3068,446;68,29673
1052,62; 2146,352;  221,548; 3029,369;68,55151
1053,16; 2107,583;  192,702; 2968,446;68,98621
1053,71; 2098,352;  215,856; 2966,446;68,43971
1054,25; 2044,506;  223,779; 2873,908;68,70334
1054,79; 2017,044;  211,933; 2868,446;67,95040
1055,33; 1980,737;  183,163; 2789,831;68,96059
1055,88; 1970,352;  227,317; 2766,677;68,64072
1056,42; 1968,275;  234,702; 2757,062;68,72823
1056,96; 1932,198;  221,240; 2686,600;69,39992
1057,50; 1901,275;  201,240; 2655,215;69,27677
1058,05; 1868,737;  212,625; 2609,523;69,09395
1058,59; 1875,506;  228,163; 2575,908;70,16703
1059,13; 1802,813;  196,163; 2525,062;68,98756
1059,67; 1817,121;  229,163; 2516,369;69,42785
1060,21; 1759,813;  218,240; 2436,908;69,48194
1060,76; 1771,198;  221,779; 2449,600;69,54864
1061,30; 1747,506;  232,010; 2417,138;69,35500
1061,84; 1706,506;  211,471; 2366,446;69,37596
1062,38; 1679,121;  205,317; 2303,446;70,24372
1062,92; 1704,121;  243,317; 2308,446;70,73669
1063,46; 1655,198;  229,933; 2273,292;69,75108
1064,01; 1618,044;  208,317; 2224,062;69,93580
1064,55; 1618,583;  217,163; 2196,677;70,79615
1065,09; 1567,813;  186,779; 2143,754;70,56986
1065,63; 1611,352;  232,471; 2184,446;70,64029
1066,17; 1582,967;  234,010; 2139,600;70,78949
1066,71; 1545,967;  230,087; 2103,985;70,22158
1067,25; 1507,660;  212,471; 2065,831;69,88328
1067,80; 1520,660;  233,163; 2048,600;70,91937
1068,34; 1522,044;  237,471; 2032,446;71,56496
1068,88; 1473,352;  213,087; 1969,677;71,74498
1069,42; 1467,890;  248,779; 1996,523;69,75343
1069,96; 1453,737;  218,625; 1934,754;71,97079
1070,50; 1459,044;  245,317; 1943,600;71,46790
1071,04; 1392,967;  212,394; 1893,677;70,21859
1071,58; 1391,044;  221,548; 1860,523;71,35534
1072,12; 1374,660;  212,625; 1832,215;71,74867
1072,66; 1375,967;  211,240; 1815,292;72,61155
1073,21; 1376,429;  230,163; 1807,831;72,65571
1073,75; 1340,737;  223,163; 1779,523;71,80687
1074,29; 1321,813;  230,087; 1780,754;70,40368
1074,83; 1341,429;  228,163; 1753,600;72,98012
1075,37; 1290,275;  226,856; 1738,062;70,36892
1075,91; 1289,429;  233,240; 1720,446;71,01831
1076,45; 1276,044;  229,317; 1687,600;71,77805
1076,99; 1267,890;  222,933; 1658,908;72,76991
1077,53; 1234,429;  207,625; 1627,292;72,32708
1078,07; 1251,044;  232,933; 1623,215;73,23054
1078,61; 1234,044;  223,087; 1604,523;73,18162
1079,15; 1193,429;  220,548; 1579,215;71,60552
1079,69; 1205,890;  234,933; 1567,908;72,84140
1080,23; 1202,737;  232,240; 1558,292;73,18689
1080,77; 1194,352;  252,240; 1545,985;72,82054
1081,31; 1146,506;  217,240; 1499,446;72,47397
1081,85; 1166,660;  233,240; 1493,985;74,03716
1082,39; 1132,506;  221,394; 1457,138;73,72978
1082,93; 1110,044;  216,010; 1457,754;71,99829
1083,47; 1089,352;  207,625; 1426,215;72,35630
1084,01; 1107,813;  236,625; 1434,754;72,71242
1084,55; 1080,275;  216,163; 1398,831;73,06463
1085,09; 1092,044;  227,317; 1404,523;73,45589
1085,63; 1075,967;  219,394; 1375,600;74,08483
1086,17; 1050,352;  213,394; 1342,523;74,12420
1086,71; 1056,429;  214,087; 1332,985;75,28320
1087,24; 1063,583;  237,625; 1357,292;73,76814
1087,78; 1043,967;  235,702; 1310,754;75,18385
1088,32; 1008,198;  221,548; 1278,292;74,44091
1088,86; 1037,660;  241,702; 1305,138;74,84769
1089,40;  996,429;  226,779; 1282,831;72,87994
1089,94;  966,583;  193,702; 1241,600;73,75534
1090,48;  974,660;  233,779; 1250,831;72,84591
1091,02;  966,275;  229,933; 1228,369;73,74954
1091,56;  966,890;  238,702; 1222,369;74,02792
1092,10;  934,737;  207,240; 1176,985;75,01938
1092,63;  951,583;  235,317; 1194,292;74,69073
1093,17;  942,813;  223,625; 1183,215;74,94744
1093,71;  913,506;  211,548; 1152,754;74,58068
1094,25;  909,583;  246,010; 1158,062;72,75606
1094,79;  903,890;  223,163; 1139,369;74,29848
1095,33;  874,737;  229,394; 1123,754;72,15692
1095,87;  867,198;  223,471; 1094,985;73,86311
1096,40;  849,506;  200,548; 1065,985;74,98617
1096,94;  861,967;  220,087; 1078,908;74,73975
1097,48;  847,121;  224,240; 1080,831;72,71629
1098,02;  837,660;  222,087; 1063,985;73,11729
1098,56;  801,967;  200,548; 1018,908;73,49082
1099,10;  790,429;  202,933; 1023,523;71,59433
1099,63;  798,890;  211,933; 1004,062;74,09877
1100,17;  815,660;  228,471; 1018,985;74,27938
1100,71;  801,967;  240,779; 1003,523;73,57492

