
Integration time [ms]: 115,000
Averaging Nr. [scans]: 13
Smoothing Nr. [pixels]: 0
Data measured with spectrometer [name]: 2009305U1
Wave   ;Sample   ;Dark     ;Reference;Reflectance
[nm]   ;[counts] ;[counts] ;[counts] ;[%]

 175,72;  199,502;  176,239;  192,535;142,75034
 176,32;  224,780;  211,934;  210,654; 0,00000
 176,92;  241,935;  225,163;  228,142;563,01154
 177,52;  253,614;  252,086;  251,024; 0,00000
 178,12;  220,253;  223,549;  212,736; 0,00000
 178,72;  258,221;  243,857;  232,990; 0,00000
 179,32;  236,688;  236,780;  232,605; 0,00000
 179,92;  234,892;  232,933;  233,930; 0,00000
 180,52;  237,383;  234,084;  244,758;30,90673
 181,12;  252,039;  235,010;  240,995;284,53727
 181,73;  266,106;  253,163;  254,844;770,15813
 182,33;  326,399;  298,008;  297,582; 0,00000
 182,93;  263,016;  245,240;  250,595;331,91796
 183,53;  235,114;  227,319;  217,483; 0,00000
 184,13;  232,176;  231,011;  221,458; 0,00000
 184,73;  259,728;  249,935;  249,706; 0,00000
 185,33;  236,562;  222,716;  326,527;13,33799
 185,93;  274,470;  214,717;  353,127;43,17115
 186,53;  278,275;  241,332;  365,557;29,73897
 187,13;  306,991;  264,099;  400,362;31,47756
 187,73;  257,136;  220,102;  360,559;26,36735
 188,33;  271,041;  227,718;  355,547;33,89145
 188,93;  276,057;  231,182;  389,767;28,29702
 189,53;  282,917;  240,799;  397,281;26,91514
 190,13;  313,520;  271,649;  418,569;28,49911
 190,73;  258,648;  217,185;  353,690;30,37522
 191,34;  296,774;  254,183;  378,073;34,37794
 191,94;  253,503;  227,565;  351,476;20,93276
 192,54;  284,068;  237,868;  391,072;30,15608
 193,14;  271,369;  248,715;  367,171;19,12403
 193,74;  281,322;  249,561;  377,015;24,91908
 194,34;  275,888;  235,099;  373,562;29,45836
 194,94;  237,924;  206,792;  326,435;26,02068
 195,54;  229,789;  196,177;  306,559;30,45059
 196,14;  251,916;  218,484;  345,393;26,34372
 196,74;  240,577;  211,331;  332,860;24,06490
 197,34;  233,496;  187,252;  341,491;29,98197
 197,94;  263,774;  225,715;  366,581;27,01786
 198,54;  254,440;  217,484;  375,036;23,45640
 199,14;  246,467;  197,636;  374,578;27,59753
 199,74;  232,143;  198,097;  374,544;19,29501
 200,34;  224,178;  186,097;  382,388;19,40043
 200,94;  258,524;  223,637;  423,813;17,42830
 201,54;  247,066;  202,328;  426,059;19,99618
 202,14;  270,756;  211,635;  454,454;24,34776
 202,74;  248,285;  204,328;  459,386;17,23422
 203,34;  245,767;  195,558;  484,506;17,37666
 203,94;  230,133;  163,635;  488,134;20,49259
 204,54;  286,875;  228,869;  576,728;16,67529
 205,14;  257,606;  199,405;  583,682;15,14562
 205,74;  296,416;  218,481;  689,034;16,56254
 206,34;  277,835;  197,405;  695,130;16,15959
 206,94;  290,278;  203,328;  758,320;15,66689
 207,54;  273,208;  180,251;  808,972;14,78519
 208,14;  285,614;  195,097;  884,612;13,12760
 208,74;  312,903;  194,559;  973,216;15,19843
 209,34;  316,370;  193,636; 1035,192;14,58418
 209,94;  339,081;  202,328; 1138,209;14,61220
 210,54;  346,263;  198,866; 1278,087;13,65771
 211,14;  365,422;  209,174; 1387,429;13,26097
 211,73;  368,734;  201,175; 1481,066;13,09168
 212,33;  386,387;  218,791; 1621,615;11,94707
 212,93;  398,937;  196,636; 1687,436;13,56992
 213,53;  385,732;  181,790; 1751,490;12,99243
 214,13;  409,478;  176,403; 1840,494;14,00614
 214,73;  399,141;  178,481; 1882,146;12,95204
 215,33;  388,466;  156,405; 1881,671;13,45071
 215,93;  444,497;  188,327; 2004,541;14,10462
 216,53;  425,494;  142,559; 2120,685;14,30317
 217,13;  492,154;  210,866; 2330,389;13,27129
 217,73;  515,771;  181,250; 2511,243;14,35717
 218,33;  515,253;  162,403; 2717,931;13,80732
 218,93;  589,649;  172,632; 3034,286;14,57256
 219,53;  647,159;  174,942; 3329,667;14,96858
 220,13;  675,542;  151,557; 3630,169;15,06305
 220,73;  756,739;  167,405; 4022,604;15,28674
 221,32;  850,210;  178,251; 4438,831;15,77154
 221,92;  917,116;  192,249; 4839,758;15,59689
 222,52;  966,475;  172,558; 5288,171;15,51949
 223,12; 1066,270;  167,481; 5667,302;16,34216
 223,72; 1164,561;  185,019; 6101,038;16,55745
 224,32; 1246,463;  176,865; 6457,959;17,02885
 224,92; 1289,203;  175,404; 6750,553;16,93952
 225,52; 1378,646;  188,020; 7141,364;17,12306
 226,12; 1438,463;  182,327; 7406,758;17,38734
 226,72; 1488,469;  155,174; 7753,787;17,54656
 227,31; 1557,208;  151,251; 8116,765;17,65056
 227,91; 1651,638;  174,405; 8483,173;17,77921
 228,51; 1717,439;  177,790; 8858,954;17,73552
 229,11; 1818,996;  166,020; 9259,013;18,17857
 229,71; 1882,000;  168,175; 9549,448;18,26858
 230,31; 1963,508;  163,326; 9978,285;18,34121
 230,91; 2023,849;  163,483;10275,130;18,39824
 231,51; 2136,972;  147,173;10535,529;19,15412
 232,10; 2196,745;  152,172;10961,492;18,91490
 232,70; 2298,504;  167,484;11191,562;19,33059
 233,30; 2372,548;  192,789;11484,718;19,30369
 233,90; 2410,441;  163,789;11681,157;19,50664
 234,50; 2465,880;  175,558;11834,788;19,64385
 235,10; 2501,972;  157,404;11945,630;19,88907
 235,70; 2523,102;  192,020;12055,542;19,64915
 236,29; 2552,537;  182,251;12046,002;19,97922
 236,89; 2533,074;  165,022;12027,332;19,96282
 237,49; 2535,448;  177,173;11955,862;20,02154
 238,09; 2524,066;  176,789;11831,592;20,13999
 238,69; 2496,284;  193,099;11562,206;20,25828
 239,29; 2396,612;  168,328;11357,605;19,91446
 239,89; 2387,796;  178,791;11119,277;20,19111
 240,48; 2283,651;  173,635;10750,647;19,94907
 241,08; 2207,940;  163,097;10440,606;19,89629
 241,68; 2169,124;  198,558;10197,575;19,70759
 242,28; 2053,229;  162,404; 9835,559;19,54714
 242,88; 2017,615;  190,480; 9551,769;19,51799
 243,48; 1931,773;  192,250; 9275,819;19,15021
 244,07; 1848,762;  186,482; 9060,382;18,73224
 244,67; 1789,272;  188,943; 8907,392;18,35566
 245,27; 1758,119;  182,329; 8765,066;18,35999
 245,87; 1702,853;  184,096; 8715,012;17,80298
 246,47; 1660,841;  172,329; 8647,318;17,56359
 247,06; 1633,981;  169,097; 8751,863;17,06774
 247,66; 1596,353;  170,943; 8780,591;16,55596
 248,26; 1645,511;  208,559; 8853,410;16,62205
 248,86; 1629,269;  189,559; 9072,867;16,20691
 249,46; 1572,912;  150,789; 9304,178;15,53657
 250,05; 1648,223;  191,405; 9678,021;15,35657
 250,65; 1618,126;  158,636; 9992,771;14,84106
 251,25; 1708,220;  179,713;10456,645;14,87319
 251,85; 1728,828;  182,329;11040,821;14,24230
 252,44; 1784,642;  147,251;11634,425;14,25408
 253,04; 1905,047;  180,559;12375,450;14,14107
 253,64; 1956,426;  144,175;13037,657;14,05556
 254,24; 2122,240;  186,559;13945,362;14,06868
 254,84; 2171,219;  175,712;14824,332;13,62250
 255,43; 2301,008;  178,713;15804,177;13,58228
 256,03; 2420,299;  163,329;16686,096;13,65976
 256,63; 2536,582;  176,868;17730,541;13,44285
 257,23; 2648,025;  165,098;18502,985;13,53987
 257,82; 2775,492;  177,022;19401,582;13,51641
 258,42; 2872,188;  132,484;20180,526;13,66570
 259,02; 3033,203;  174,636;21054,511;13,69054
 259,62; 3120,661;  159,792;21613,506;13,80120
 260,21; 3190,426;  177,328;22121,013;13,73105
 260,81; 3296,497;  170,481;22596,055;13,93951
 261,41; 3370,453;  166,176;22930,924;14,07561
 262,01; 3490,046;  195,023;23398,867;14,20033
 262,60; 3551,179;  161,483;23604,446;14,45933
 263,20; 3593,659;  164,944;23926,742;14,42953
 263,80; 3688,202;  182,562;23990,851;14,72445
 264,40; 3697,346;  145,484;24149,854;14,79673
 264,99; 3801,791;  179,331;24276,797;15,03253
 265,59; 3868,874;  164,255;24468,447;15,24272
 266,19; 3905,646;  164,638;24545,895;15,34379
 266,78; 4045,029;  198,716;24673,094;15,71567
 267,38; 4015,555;  172,332;24624,851;15,71708
 267,98; 4061,611;  158,331;24699,335;15,90513
 268,58; 4103,525;  177,562;24623,983;16,05946
 269,17; 4153,380;  165,332;24587,470;16,32964
 269,77; 4162,687;  182,945;24431,709;16,41215
 270,37; 4188,177;  150,485;24336,935;16,69403
 270,96; 4244,323;  204,253;24220,378;16,82232
 271,56; 4199,321;  167,868;23947,904;16,95310
 272,16; 4235,903;  169,176;23816,919;17,19710
 272,75; 4211,346;  166,561;23679,287;17,20254
 273,35; 4288,442;  173,099;23630,866;17,54362
 273,95; 4296,252;  175,176;23590,407;17,59998
 274,54; 4337,533;  155,251;23590,698;17,84597
 275,14; 4449,931;  180,253;23998,596;17,92601
 275,74; 4452,179;  144,022;24084,606;17,99520
 276,33; 4595,181;  190,099;24442,945;18,16315
 276,93; 4692,445;  175,943;24787,025;18,35150
 277,53; 4824,674;  174,867;25274,354;18,52551
 278,12; 4971,126;  157,252;25742,978;18,81469
 278,72; 5161,786;  194,867;26377,327;18,97041
 279,32; 5310,053;  165,713;26948,301;19,20778
 279,91; 5509,910;  163,021;27660,590;19,44495
 280,51; 5647,702;  173,251;28124,238;19,58589
 281,11; 5836,265;  174,098;28951,875;19,67548
 281,70; 5971,794;  153,098;29289,701;19,97040
 282,30; 6209,244;  159,098;29882,442;20,35486
 282,90; 6358,969;  169,945;30322,371;20,52579
 283,49; 6573,963;  186,099;30893,525;20,80234
 284,09; 6778,336;  190,714;31268,823;21,19699
 284,69; 6944,256;  189,175;31701,186;21,43653
 285,28; 7111,276;  191,867;32001,395;21,75263
 285,88; 7322,550;  199,022;32204,771;22,25703
 286,47; 7408,678;  175,329;32254,866;22,54817
 287,07; 7530,454;  203,944;32349,873;22,79141
 287,67; 7774,927;  190,789;32540,819;23,44399
 288,26; 7877,749;  169,559;32393,038;23,92103
 288,86; 8102,997;  172,175;32475,048;24,55144
 289,46; 8352,338;  170,636;32616,984;25,21609
 290,05; 8523,929;  162,251;32659,063;25,73076
 290,65; 8795,592;  175,252;32837,768;26,39215
 291,24; 9080,280;  189,559;32846,641;27,22448
 291,84; 9318,198;  182,406;33108,541;27,74632
 292,44; 9607,244;  176,327;33215,378;28,54476
 293,03; 9856,650;  230,636;33279,207;29,12687
 293,63;10068,246;  170,022;33558,272;29,64583
 294,22;10312,895;  194,175;33609,771;30,28143
 294,82;10471,836;  181,561;33694,123;30,70572
 295,41;10546,871;  153,944;33405,778;31,25520
 296,01;10669,080;  217,176;33315,366;31,57847
 296,61;10738,282;  179,559;33087,471;32,08567
 297,20;10664,582;  182,638;32727,854;32,20733
 297,80;10729,749;  187,635;32483,187;32,64262
 298,39;10619,059;  163,868;32117,898;32,71948
 298,99;10615,584;  175,638;31987,785;32,81749
 299,58;10614,058;  186,558;31903,194;32,87707
 300,18;10627,141;  207,097;31634,199;33,15623
 300,78;10470,576;  169,405;31248,968;33,14452
 301,37;10470,600;  186,639;31248,200;33,10832
 301,97;10490,077;  182,021;31203,424;33,22885
 302,56;10434,436;  166,099;31192,784;33,09518
 303,16;10399,201;  155,099;31139,100;33,06256
 303,75;10402,276;  174,405;31130,312;33,04013
 304,35;10516,734;  163,635;31375,055;33,17087
 304,94;10429,413;  180,098;31411,616;32,81722
 305,54;10398,287;  203,636;31326,908;32,75572
 306,13;10362,407;  149,173;31256,038;32,83273
 306,73;10241,737;  165,404;31021,614;32,65577
 307,33;10232,008;  185,020;31002,479;32,60161
 307,92;10222,372;  169,944;31026,844;32,57757
 308,52;10273,451;  165,099;31545,656;32,21215
 309,11;10392,023;  172,638;31967,983;32,14114
 309,71;10428,369;  155,177;32273,763;31,98519
 310,30;10495,775;  157,098;32512,708;31,95328
 310,90;10528,314;  179,329;32754,785;31,76927
 311,49;10594,072;  182,559;32933,165;31,79029
 312,09;10543,479;  142,636;33146,067;31,51443
 312,68;10624,347;  201,790;33436,875;31,36010
 313,28;10563,756;  152,559;33623,921;31,10479
 313,87;10507,117;  150,482;33764,236;30,81070
 314,47;10580,136;  167,253;34029,596;30,75063
 315,06;10480,216;  148,405;34111,168;30,42100
 315,66;10481,863;  158,943;34272,452;30,26050
 316,25;10335,443;  140,406;34269,797;29,87172
 316,85;10294,477;  139,559;34269,314;29,75386
 317,44;10249,943;  158,561;34432,015;29,44373
 318,04;10139,229;  148,945;34411,623;29,15792
 318,63;10024,983;  148,712;34462,125;28,78254
 319,22; 9999,363;  174,253;34628,829;28,51613
 319,82; 9903,725;  176,483;34649,175;28,21724
 320,41; 9797,421;  161,945;34655,273;27,93432
 321,01; 9727,023;  171,020;34713,019;27,66488
 321,60; 9613,368;  166,714;34772,521;27,29789
 322,20; 9498,477;  161,405;34695,805;27,03702
 322,79; 9426,000;  191,790;34850,679;26,64312
 323,39; 9329,263;  168,250;34912,111;26,36728
 323,98; 9179,826;  153,251;34916,754;25,96566
 324,58; 9053,081;  157,176;34675,705;25,77139
 325,17; 8934,563;  167,637;34671,884;25,40825
 325,76; 8793,873;  182,867;34580,632;25,03362
 326,36; 8576,901;  147,174;34117,564;24,81492
 326,95; 8468,273;  174,406;33836,427;24,63865
 327,55; 8212,404;  161,560;33520,110;24,13427
 328,14; 8090,021;  160,558;33117,059;24,06039
 328,74; 7852,222;  193,637;32732,125;23,53700
 329,33; 7681,042;  182,328;32375,960;23,29254
 329,92; 7508,975;  159,869;31801,790;23,22585
 330,52; 7266,402;  177,097;31099,937;22,92579
 331,11; 7096,691;  174,790;30776,263;22,61950
 331,71; 6857,449;  171,560;30201,743;22,26390
 332,30; 6660,336;  186,406;29712,539;21,92610
 332,89; 6516,953;  194,867;29225,340;21,77742
 333,49; 6279,211;  191,483;28574,245;21,44868
 334,08; 6109,312;  176,252;28174,984;21,19046
 334,68; 5976,049;  178,944;27803,132;20,98561
 335,27; 5835,762;  189,097;27452,276;20,71169
 335,86; 5716,152;  198,252;27217,493;20,42211
 336,46; 5553,790;  178,404;26985,698;20,05195
 337,05; 5423,199;  173,175;26844,625;19,68406
 337,65; 5348,680;  154,252;26679,950;19,58262
 338,24; 5316,088;  213,636;26662,991;19,29141
 338,83; 5220,332;  192,482;26559,364;19,06881
 339,43; 5152,702;  167,791;26490,296;18,93783
 340,02; 5081,308;  173,945;26460,814;18,66850
 340,61; 5043,740;  160,482;26450,042;18,57489
 341,21; 4983,068;  202,099;26525,356;18,16253
 341,80; 4901,128;  167,483;26395,347;18,04815
 342,40; 4897,261;  184,866;26520,310;17,89374
 342,99; 4834,030;  176,482;26590,724;17,63272
 343,58; 4793,888;  171,251;26799,037;17,36020
 344,18; 4785,083;  187,789;26927,678;17,19264
 344,77; 4769,109;  173,791;27249,512;16,97210
 345,36; 4802,273;  152,944;27536,350;16,97863
 345,96; 4793,610;  186,790;27873,058;16,63937
 346,55; 4792,906;  159,250;28092,072;16,58857
 347,14; 4769,614;  148,712;28451,228;16,32682
 347,74; 4803,073;  134,941;28878,440;16,24065
 348,33; 4887,065;  176,788;29514,865;16,05517
 348,92; 4907,369;  182,864;30117,098;15,78295
 349,52; 4984,893;  153,249;30612,640;15,86257
 350,11; 4982,222;  164,330;30817,101;15,71764
 350,70; 4956,771;  157,636;30903,586;15,60900
 351,29; 4862,615;  151,793;30588,226;15,47758
 351,89; 4846,162;  176,946;30619,087;15,33800
 352,48; 4833,111;  148,098;30627,899;15,37088
 353,07; 4832,852;  171,481;30594,341;15,32193
 353,67; 4772,041;  187,941;30615,020;15,06586
 354,26; 4704,167;  177,943;30339,046;15,00683
 354,85; 4650,829;  180,097;30180,462;14,90226
 355,45; 4605,518;  150,483;29943,606;14,95323
 356,04; 4569,278;  171,712;29893,214;14,79591
 356,63; 4532,070;  194,637;29646,157;14,72737
 357,22; 4492,209;  182,254;29531,018;14,68530
 357,82; 4440,284;  179,254;29412,827;14,57581
 358,41; 4436,137;  183,944;29233,775;14,63758
 359,00; 4363,102;  171,253;29083,346;14,49860
 359,60; 4358,612;  179,559;28951,480;14,52476
 360,19; 4315,687;  167,250;28796,361;14,49027
 360,78; 4329,419;  182,868;28621,698;14,58060
 361,37; 4261,864;  175,637;28351,280;14,50269
 361,97; 4272,342;  177,175;28360,722;14,53035
 362,56; 4190,147;  174,560;28008,778;14,42680
 363,15; 4205,438;  188,252;27715,330;14,59358
 363,74; 4115,980;  173,022;27391,996;14,48606
 364,34; 4095,796;  206,022;27028,560;14,50189
 364,93; 3994,999;  157,484;26611,191;14,50653
 365,52; 3962,460;  145,329;26230,570;14,63330
 366,11; 3947,271;  169,791;26013,164;14,61682
 366,71; 3891,978;  156,791;25573,444;14,69583
 367,30; 3871,166;  165,790;25173,251;14,81708
 367,89; 3873,062;  201,328;25014,215;14,79769
 368,48; 3813,177;  179,561;24687,391;14,82635
 369,07; 3759,310;  181,713;24293,278;14,83768
 369,67; 3731,447;  185,253;23969,510;14,90984
 370,26; 3713,276;  173,867;23750,288;15,01250
 370,85; 3737,907;  174,252;23419,906;15,33041
 371,44; 3659,483;  171,867;23200,195;15,14489
 372,03; 3649,273;  156,637;23001,687;15,28837
 372,63; 3616,348;  153,483;22621,750;15,41225
 373,22; 3602,068;  163,713;22383,812;15,47407
 373,81; 3569,353;  151,098;22159,856;15,53134
 374,40; 3561,728;  157,866;21872,493;15,67543
 374,99; 3532,209;  160,945;21559,161;15,75488
 375,59; 3500,687;  159,635;21256,928;15,83640
 376,18; 3541,267;  193,021;21188,836;15,94720
 376,77; 3542,817;  175,021;21031,787;16,14726
 377,36; 3537,169;  193,098;20976,834;16,08985
 377,95; 3548,098;  179,791;20672,301;16,43677
 378,55; 3490,792;  157,790;20490,712;16,39215
 379,14; 3546,000;  164,637;20451,554;16,66771
 379,73; 3579,141;  170,483;20337,542;16,90211
 380,32; 3603,588;  182,867;20328,079;16,98032
 380,91; 3572,881;  165,330;20225,703;16,98648
 381,50; 3627,976;  181,637;20174,360;17,23797
 382,10; 3605,972;  159,406;20028,463;17,34640
 382,69; 3652,340;  155,867;20054,252;17,57164
 383,28; 3691,016;  188,560;19963,864;17,71126
 383,87; 3688,909;  162,483;19820,765;17,93862
 384,46; 3693,958;  171,330;19805,502;17,94131
 385,05; 3768,038;  193,637;19811,772;18,21988
 385,64; 3763,886;  161,022;19779,703;18,36446
 386,24; 3784,684;  152,869;19726,184;18,55493
 386,83; 3852,014;  186,100;19814,477;18,67660
 387,42; 3911,929;  190,791;19853,559;18,92479
 388,01; 3962,457;  179,178;20058,696;19,03104
 388,60; 4051,781;  176,792;20297,747;19,25848
 389,19; 4127,345;  154,948;20529,242;19,49710
 389,78; 4239,424;  164,025;20730,327;19,81590
 390,37; 4393,200;  214,023;21178,997;19,93409
 390,96; 4450,656;  178,869;21297,684;20,22740
 391,56; 4472,349;  167,794;21560,725;20,12139
 392,15; 4557,151;  162,409;21779,017;20,33040
 392,74; 4627,548;  146,796;21899,600;20,59850
 393,33; 4730,264;  160,256;22240,842;20,69695
 393,92; 4858,541;  189,258;22676,131;20,76448
 394,51; 4934,544;  156,641;22812,881;21,08868
 395,10; 5052,699;  185,414;23107,394;21,23414
 395,69; 5138,543;  170,491;23158,895;21,61112
 396,28; 5199,864;  189,338;23332,404;21,65023
 396,87; 5253,412;  194,724;23432,642;21,76911
 397,46; 5334,034;  190,495;23517,345;22,04986
 398,06; 5446,272;  193,035;23739,316;22,31026
 398,65; 5499,515;  179,116;23844,242;22,48203
 399,24; 5575,568;  198,885;23967,663;22,62078
 399,83; 5579,405;  178,276;24015,052;22,65881
 400,42; 5696,254;  206,819;24111,631;22,96372
 401,01; 5759,160;  178,902;24228,445;23,20318
 401,60; 5834,803;  192,679;24332,471;23,37271
 402,19; 5879,270;  205,069;24190,939;23,65643
 402,78; 5905,946;  220,079;24243,290;23,66822
 403,37; 5916,581;  191,857;24115,970;23,92868
 403,96; 5889,512;  198,098;23946,219;23,96575
 404,55; 5949,433;  217,956;23899,444;24,20235
 405,14; 5934,263;  193,043;23795,008;24,32518
 405,73; 5960,100;  217,671;23725,380;24,42785
 406,32; 6025,580;  206,526;23561,569;24,91562
 406,91; 5976,376;  210,305;23314,445;24,95688
 407,50; 5923,273;  205,002;23171,463;24,89835
 408,09; 5940,092;  180,775;22856,755;25,39832
 408,68; 5934,164;  195,469;22701,974;25,49794
 409,27; 5919,176;  181,543;22490,301;25,71919
 409,86; 5955,757;  200,459;22332,914;26,00389
 410,45; 5982,540;  221,452;22309,180;26,08275
 411,04; 5985,730;  237,138;22209,224;26,16316
 411,63; 5978,814;  220,591;21988,858;26,45237
 412,22; 5979,125;  214,430;21730,760;26,79219
 412,81; 5878,766;  231,119;21497,028;26,55728
 413,40; 5869,718;  243,270;21230,105;26,80942
 413,99; 5827,129;  264,040;20862,371;27,00747
 414,58; 5744,384;  218,885;20502,643;27,24100
 415,17; 5704,287;  213,504;20236,995;27,42171
 415,76; 5721,832;  211,661;20083,093;27,72911
 416,35; 5653,382;  202,582;19885,448;27,69312
 416,94; 5735,320;  227,660;19944,733;27,93345
 417,53; 5782,706;  216,196;20239,624;27,79998
 418,12; 5833,576;  202,580;20197,357;28,16234
 418,71; 6013,005;  227,423;20602,642;28,39519
 419,30; 6029,546;  222,272;20658,743;28,41623
 419,89; 6101,005;  215,887;20802,499;28,58712
 420,48; 6257,080;  237,500;21190,043;28,72959
 421,07; 6276,187;  223,807;21238,266;28,80102
 421,66; 6295,393;  202,883;21206,647;29,00675
 422,25; 6344,955;  215,649;21214,032;29,18942
 422,84; 6353,306;  237,110;21188,859;29,19181
 423,43; 6328,961;  219,265;20942,013;29,48304
 424,02; 6319,683;  235,495;20698,929;29,73200
 424,60; 6179,764;  202,184;20264,036;29,79576
 425,19; 6099,373;  225,647;19981,318;29,73184
 425,78; 6123,485;  240,186;19843,777;30,01134
 426,37; 6128,522;  231,338;19769,546;30,18283
 426,96; 6060,044;  230,723;19718,898;29,91209
 427,55; 6068,119;  219,644;19471,388;30,37893
 428,14; 6029,285;  199,181;19239,909;30,61912
 428,73; 5979,869;  223,337;19054,915;30,56851
 429,32; 6016,933;  235,569;19064,192;30,70519
 429,91; 6067,002;  249,875;19101,452;30,85751
 430,50; 6044,653;  233,797;18979,059;30,99906
 431,08; 6040,120;  250,181;18810,337;31,19553
 431,67; 6007,529;  286,872;18736,709;31,00654
 432,26; 5971,418;  296,102;18505,252;31,16738
 432,85; 5924,941;  317,487;18251,641;31,26690
 433,44; 5819,620;  312,255;17822,772;31,45176
 434,03; 5714,426;  342,022;17493,588;31,32311
 434,62; 5552,076;  310,101;17052,050;31,31042
 435,21; 5516,378;  324,333;16875,056;31,37051
 435,79; 5465,618;  309,330;16672,652;31,51125
 436,38; 5455,935;  310,098;16641,354;31,50913
 436,97; 5451,259;  303,867;16541,488;31,70041
 437,56; 5394,480;  308,941;16361,629;31,68029
 438,15; 5407,026;  281,634;16266,517;32,06399
 438,74; 5412,319;  298,403;16225,568;32,10813
 439,33; 5425,138;  270,711;16224,567;32,30835
 439,91; 5391,487;  236,479;16286,150;32,11909
 440,50; 5479,911;  281,940;16358,193;32,33322
 441,09; 5512,704;  277,400;16474,920;32,32164
 441,68; 5552,479;  268,783;16482,630;32,58755
 442,27; 5544,023;  251,784;16450,381;32,67097
 442,86; 5565,360;  225,473;16453,996;32,90433
 443,44; 5605,321;  238,474;16492,368;33,01884
 444,03; 5661,971;  276,165;16575,720;33,04266
 444,62; 5587,803;  243,934;16483,748;32,90597
 445,21; 5563,133;  252,935;16239,017;33,21763
 445,80; 5553,200;  274,241;16102,317;33,35187
 446,39; 5480,418;  267,549;15872,612;33,40498
 446,97; 5388,779;  231,777;15720,563;33,29507
 447,56; 5333,509;  244,006;15533,741;33,28705
 448,15; 5239,473;  247,008;15307,778;33,14881
 448,74; 5222,139;  263,008;15159,363;33,29090
 449,33; 5163,648;  248,776;14945,360;33,44227
 449,91; 5138,962;  254,928;14774,924;33,63661
 450,50; 5022,306;  236,390;14478,335;33,60437
 451,09; 5018,786;  256,313;14425,761;33,61086
 451,68; 5051,114;  277,004;14318,526;33,99995
 452,26; 4957,024;  263,157;14241,378;33,57986
 452,85; 4930,035;  255,004;14109,720;33,74325
 453,44; 4962,963;  259,540;14159,732;33,83711
 454,03; 4934,010;  235,926;14076,130;33,94520
 454,61; 4913,800;  233,540;14042,889;33,89197
 455,20; 5014,586;  268,000;14246,302;33,95681
 455,79; 5026,789;  265,310;14214,221;34,13513
 456,38; 5047,867;  270,768;14284,751;34,08809
 456,97; 5093,289;  247,461;14415,070;34,20357
 457,55; 5059,171;  258,460;14453,369;33,81995
 458,14; 5118,968;  278,461;14357,288;34,38147
 458,73; 5102,853;  266,075;14319,680;34,41664
 459,31; 5123,711;  297,766;14339,496;34,36859
 459,90; 5165,940;  292,844;14420,902;34,49232
 460,49; 5206,857;  307,613;14465,441;34,60449
 461,08; 5186,470;  260,227;14540,470;34,49691
 461,66; 5251,945;  269,074;14705,695;34,51549
 462,25; 5308,926;  274,765;14768,951;34,73228
 462,84; 5305,384;  305,611;14861,627;34,34850
 463,43; 5245,205;  225,532;14723,671;34,62288
 464,01; 5305,843;  279,839;14804,958;34,60215
 464,60; 5296,282;  298,840;14660,777;34,79643
 465,19; 5182,942;  251,377;14529,914;34,53831
 465,77; 5247,082;  260,222;14500,613;35,01913
 466,36; 5211,143;  279,763;14398,720;34,92737
 466,95; 5114,794;  265,378;14036,410;35,21462
 467,53; 4989,448;  272,683;13795,128;34,88101
 468,12; 4900,251;  290,914;13525,142;34,82891
 468,71; 4851,963;  276,146;13288,632;35,16481
 469,29; 4733,855;  252,144;13019,777;35,10213
 469,88; 4657,988;  266,682;12782,208;35,08687
 470,47; 4702,898;  320,834;12886,030;34,87461
 471,06; 4681,140;  276,142;12797,112;35,18096
 471,64; 4698,192;  281,373;12903,787;34,99187
 472,23; 4713,595;  258,832;12969,427;35,04763
 472,81; 4733,974;  250,218;13064,664;34,98986
 473,40; 4743,715;  267,986;13177,668;34,66955
 473,99; 4880,591;  325,986;13397,075;34,84488
 474,57; 4898,704;  254,986;13550,202;34,92774
 475,16; 4947,297;  283,448;13690,353;34,78692
 475,75; 5043,432;  295,985;13791,964;35,17675
 476,33; 5087,140;  299,676;13939,246;35,09982
 476,92; 5132,178;  296,909;13952,599;35,40846
 477,51; 5137,521;  286,599;14029,615;35,29736
 478,09; 5145,043;  291,061;14052,274;35,27292
 478,68; 5110,681;  288,830;13928,922;35,35057
 479,27; 5143,735;  315,215;13986,380;35,31901
 479,85; 5137,915;  281,368;14001,583;35,39702
 480,44; 5148,470;  273,522;14138,587;35,15994
 481,02; 5581,618;  282,521;15426,629;34,99115
 481,61; 6321,934;  309,060;17352,003;35,28073
 482,20; 6794,463;  303,136;18588,261;35,50059
 482,78; 7148,559;  327,291;19488,567;35,59923
 483,37; 7364,121;  316,827;20006,159;35,79245
 483,95; 7449,367;  356,750;20350,617;35,47396
 484,54; 7552,482;  359,752;20511,076;35,69358
 485,13; 7509,008;  329,671;20410,228;35,75268
 485,71; 7454,601;  302,980;20145,964;36,04106
 486,30; 7405,199;  341,672;19971,854;35,98300
 486,88; 7321,059;  363,133;19615,481;36,14066
 487,47; 7020,225;  358,133;18959,263;35,81553
 488,05; 6772,642;  344,363;18134,778;36,13338
 488,64; 6320,227;  339,054;16811,390;36,31041
 489,23; 5695,287;  352,516;14894,823;36,73950
 489,81; 4783,330;  354,516;12523,088;36,39551
 490,40; 4539,687;  311,362;12084,382;35,91538
 490,98; 4408,891;  294,285;11786,145;35,80453
 491,57; 4381,387;  322,670;11696,679;35,68413
 492,15; 4370,542;  314,284;11626,681;35,85675
 492,74; 4318,405;  303,671;11589,364;35,57366
 493,32; 4312,373;  323,746;11405,223;35,99364
 493,91; 4243,296;  305,899;11349,295;35,65386
 494,50; 4260,511;  311,051;11349,412;35,77941
 495,08; 4198,609;  304,359;11235,952;35,62381
 495,67; 4241,459;  308,438;11276,291;35,85954
 496,25; 4184,444;  267,591;11130,337;36,05767
 496,84; 4145,341;  273,130;11090,265;35,79701
 497,42; 4150,146;  262,283;11081,382;35,93518
 498,01; 4155,204;  305,745;11021,784;35,92240
 498,59; 4097,213;  249,744;10959,769;35,92400
 499,18; 4111,643;  256,822;10895,491;36,23405
 499,76; 4096,750;  280,821;10812,815;36,23178
 500,35; 4002,068;  273,281;10641,169;35,96477
 500,93; 3975,519;  269,283;10586,762;35,92192
 501,52; 3979,061;  269,129;10561,138;36,04673
 502,10; 4007,194;  269,281;10522,895;36,45459
 502,69; 3931,541;  257,664;10354,216;36,38744
 503,27; 3851,292;  241,974;10217,186;36,18287
 503,86; 3825,972;  252,357;10114,555;36,23549
 504,44; 3804,105;  248,126; 9977,524;36,54881
 505,03; 3709,967;  236,126; 9776,266;36,41289
 505,61; 3711,120;  234,587; 9670,473;36,84374
 506,19; 3672,293;  258,741; 9510,975;36,89435
 506,78; 3567,351;  232,201; 9342,308;36,60934
 507,36; 3524,265;  251,357; 9198,553;36,58027
 507,95; 3462,608;  249,200; 9012,486;36,66897
 508,53; 3427,645;  237,432; 8924,396;36,72414
 509,12; 3387,035;  251,893; 8795,088;36,69754
 509,70; 3320,247;  266,893; 8635,864;36,48423
 510,29; 3297,347;  269,046; 8478,690;36,88711
 510,87; 3203,000;  246,278; 8300,528;36,71008
 511,46; 3140,060;  238,893; 8133,519;36,74863
 512,04; 3072,803;  251,739; 8027,537;36,28006
 512,62; 3028,889;  261,201; 7826,255;36,58518
 513,21; 2941,050;  226,892; 7660,771;36,51066
 513,79; 2909,312;  247,505; 7539,352;36,50388
 514,38; 2846,862;  220,121; 7422,747;36,46921
 514,96; 2843,793;  269,198; 7272,221;36,76405
 515,54; 2760,551;  235,275; 7141,110;36,56728
 516,13; 2725,742;  245,890; 7050,707;36,44260
 516,71; 2660,537;  241,043; 6959,294;36,01375
 517,30; 2624,154;  229,503; 6837,273;36,23993
 517,88; 2636,250;  267,965; 6727,598;36,66284
 518,46; 2533,612;  242,042; 6618,405;35,93851
 519,05; 2536,561;  243,502; 6611,738;36,00776
 519,63; 2552,595;  246,657; 6519,242;36,76217
 520,22; 2526,827;  255,040; 6497,730;36,39116
 520,80; 2476,497;  248,117; 6421,821;36,09470
 521,38; 2497,831;  268,887; 6400,395;36,35230
 521,97; 2423,677;  242,808; 6313,231;35,92614
 522,55; 2454,632;  246,424; 6330,852;36,29278
 523,13; 2453,512;  245,115; 6330,274;36,29152
 523,72; 2422,169;  250,042; 6341,500;35,65858
 524,30; 2481,356;  267,038; 6426,183;35,95170
 524,89; 2458,039;  235,424; 6457,553;35,72114
 525,47; 2520,202;  260,884; 6580,669;35,74992
 526,05; 2527,254;  231,807; 6653,853;35,74324
 526,64; 2598,279;  261,729; 6791,024;35,78563
 527,22; 2625,896;  258,730; 6912,114;35,57838
 527,80; 2721,483;  288,268; 7069,509;35,88156
 528,39; 2749,854;  247,883; 7137,337;36,31596
 528,97; 2803,470;  246,498; 7315,159;36,17335
 529,55; 2889,234;  260,269; 7491,834;36,35402
 530,14; 2998,265;  273,113; 7702,184;36,68227
 530,72; 2957,838;  251,575; 7838,357;35,67076
 531,30; 3027,166;  240,036; 7989,199;35,96685
 531,89; 3080,213;  243,190; 8050,408;36,33846
 532,47; 3148,117;  285,882; 8190,645;36,20899
 533,05; 3142,808;  279,729; 8224,927;36,03533
 533,63; 3179,138;  283,036; 8315,978;36,05282
 534,22; 3163,259;  247,112; 8335,203;36,05483
 534,80; 3220,437;  282,496; 8383,421;36,26674
 535,38; 3260,957;  322,728; 8514,977;35,86597
 535,97; 3198,361;  267,574; 8442,864;35,84933
 536,55; 3252,353;  320,111; 8548,254;35,63674
 537,13; 3222,909;  322,421; 8519,376;35,38494
 537,71; 3244,393;  358,113; 8528,284;35,32704
 538,30; 3261,486;  391,112; 8628,489;34,84573
 538,88; 3262,405;  413,957; 8708,948;34,33938
 539,46; 3374,008;  468,419; 8881,888;34,53496
 540,05; 3399,454;  494,572; 9035,502;34,01131
 540,63; 3481,636;  539,957; 9221,694;33,88353
 541,21; 3566,927;  559,956; 9425,554;33,91729
 541,79; 3561,435;  613,880; 9464,225;33,30442
 542,38; 3664,554;  647,034; 9646,872;33,52860
 542,96; 3704,853;  650,879; 9875,132;33,10810
 543,54; 3806,195;  672,418;10064,358;33,36666
 544,12; 3822,825;  649,726;10209,816;33,19111
 544,70; 3796,957;  620,648;10311,340;32,77690
 545,29; 3902,321;  633,034;10483,042;33,19070
 545,87; 3890,358;  591,187;10508,609;33,26642
 546,45; 3891,342;  556,880;10509,428;33,50360
 547,03; 3933,053;  543,803;10615,416;33,65151
 547,62; 3915,983;  517,187;10722,861;33,30300
 548,20; 3991,429;  496,571;10954,705;33,41761
 548,78; 4033,783;  484,261;11066,773;33,54140
 549,36; 4072,902;  440,954;11265,314;33,55346
 549,94; 4081,553;  398,725;11431,506;33,38078
 550,53; 4186,196;  407,108;11651,379;33,60901
 551,11; 4246,994;  379,876;11893,334;33,58780
 551,69; 4339,474;  379,185;12188,919;33,53411
 552,27; 4418,943;  341,493;12518,730;33,48420
 552,85; 4541,780;  359,261;12838,290;33,51638
 553,44; 4641,399;  341,185;13136,057;33,60889
 554,02; 4808,104;  358,108;13552,069;33,72753
 554,60; 4879,725;  302,184;13924,530;33,60318
 555,18; 5029,795;  330,108;14285,984;33,67533
 555,76; 5159,735;  313,031;14653,965;33,79629
 556,34; 5284,639;  316,491;15063,889;33,68830
 556,93; 5430,253;  307,108;15518,555;33,67954
 557,51; 5506,729;  296,645;15921,031;33,34585
 558,09; 5623,900;  319,185;16333,868;33,12407
 558,67; 5748,357;  311,413;16709,683;33,15559
 559,25; 5872,654;  326,029;16958,808;33,34755
 559,83; 5930,884;  304,874;17274,264;33,15387
 560,41; 6048,791;  295,184;17674,496;33,10607
 561,00; 6163,002;  305,644;18096,935;32,92262
 561,58; 6226,794;  305,184;18289,541;32,92645
 562,16; 6304,731;  291,107;18681,944;32,69902
 562,74; 6353,842;  274,415;18983,448;32,49461
 563,32; 6561,440;  278,182;19485,836;32,71226
 563,90; 6685,449;  298,721;19802,655;32,74584
 564,48; 6757,943;  310,107;20232,719;32,36441
 565,06; 6940,025;  290,644;20847,997;32,34551
 565,65; 7127,449;  295,797;21561,697;32,12491
 566,23; 7384,048;  353,644;22263,545;32,08779
 566,81; 7518,747;  290,106;23073,534;31,72763
 567,39; 7840,687;  312,413;23938,355;31,86444
 567,97; 8002,815;  317,798;24662,383;31,56766
 568,55; 8247,550;  312,721;25479,749;31,52867
 569,13; 8399,138;  300,875;26194,226;31,27545
 569,71; 8723,286;  298,800;27067,131;31,47184
 570,29; 8969,024;  340,646;28119,847;31,06057
 570,87; 9200,266;  332,800;28927,721;31,01063
 571,45; 9344,160;  317,644;29623,518;30,80105
 572,03; 9453,522;  271,182;30086,374;30,79752
 572,61; 9596,706;  278,567;30750,810;30,57910
 573,20; 9820,541;  313,876;31410,734;30,57114
 573,78;10020,839;  300,336;32121,501;30,54729
 574,36;10123,976;  303,490;32588,059;30,41851
 574,94;10219,357;  350,028;33005,086;30,22297
 575,52;10244,458;  322,257;33348,789;30,04312
 576,10;10416,377;  372,181;33880,697;29,97506
 576,68;10508,323;  356,028;34410,072;29,81230
 577,26;10755,829;  376,718;35120,617;29,87319
 577,84;10843,710;  374,259;35593,008;29,72692
 578,42;10913,938;  397,797;35937,350;29,58997
 579,00;10902,854;  367,336;36182,319;29,41651
 579,58;10908,432;  394,951;36359,717;29,23272
 580,16;10901,420;  386,258;36427,299;29,17552
 580,74;10908,938;  393,027;36698,605;28,96500
 581,32;10928,993;  385,489;36651,418;29,07275
 581,90;10908,730;  404,104;36725,667;28,92118
 582,48;10916,897;  394,796;36916,348;28,81066
 583,06;10929,768;  408,489;37079,755;28,69080
 583,64;10874,481;  407,412;37182,141;28,46267
 584,22;10818,906;  409,103;37027,671;28,42766
 584,80;10706,336;  424,950;36779,108;28,28118
 585,38;10561,273;  430,491;36407,829;28,15879
 585,96;10515,182;  400,028;36551,729;27,97975
 586,54;10540,887;  417,411;36518,706;28,04186
 587,12;10511,681;  384,873;36836,575;27,78144
 587,70;10617,085;  411,336;36953,343;27,92881
 588,28;10536,236;  398,335;36934,070;27,74791
 588,86;10493,792;  411,411;37158,665;27,43710
 589,44;10478,705;  381,487;37279,918;27,36490
 590,02;10489,354;  378,718;37582,345;27,17648
 590,59;10493,274;  354,488;37776,921;27,09280
 591,17;10547,849;  357,101;37987,247;27,08134
 591,75;10572,954;  359,025;38145,675;27,03052
 592,33;10628,236;  371,871;38350,828;27,00539
 592,91;10596,605;  326,101;38632,465;26,81148
 593,49;10611,571;  333,947;38951,446;26,61391
 594,07;10672,881;  341,716;39104,046;26,65259
 594,65;10655,912;  357,642;39206,546;26,50852
 595,23;10644,865;  347,718;39593,384;26,23767
 595,81;10690,247;  350,795;39779,116;26,22342
 596,39;10621,351;  349,871;39885,016;25,98063
 596,97;10622,498;  337,178;40222,828;25,78702
 597,55;10563,756;  327,026;39995,585;25,80565
 598,12;10491,262;  316,254;40014,409;25,63093
 598,70;10495,639;  316,870;40175,248;25,53734
 599,28;10530,838;  339,024;40342,396;25,47739
 599,86;10478,797;  330,793;40394,678;25,32955
 600,44;10462,009;  300,024;40641,146;25,19014
 601,02;10476,633;  350,099;40599,747;25,15931
 601,60;10339,106;  330,640;40572,383;24,87086
 602,18;10340,312;  303,946;40581,663;24,91791
 602,75;10287,191;  305,564;40725,348;24,69490
 603,33;10250,406;  325,947;40729,418;24,56338
 603,91;10185,018;  316,792;40636,776;24,47478
 604,49;10212,926;  325,639;40757,478;24,45421
 605,07;10160,202;  334,871;40728,554;24,32393
 605,65;10111,170;  344,485;40791,105;24,14710
 606,23;10105,328;  405,950;41039,681;23,87026
 606,80;10062,392;  452,256;41005,480;23,69759
 607,38;10012,890;  493,638;41150,422;23,41369
 607,96; 9992,394;  546,795;41168,080;23,25283
 608,54; 9962,448;  594,101;41174,853;23,08569
 609,12; 9907,898;  616,641;41306,552;22,83430
 609,70; 9867,984;  644,793;41355,437;22,65548
 610,27; 9830,354;  652,641;41359,499;22,54587
 610,85; 9813,219;  660,024;41483,712;22,42128
 611,43; 9724,932;  677,178;41433,814;22,19946
 612,01; 9599,440;  640,871;41210,798;22,08180
 612,59; 9599,277;  630,947;41220,233;22,09531
 613,16; 9511,321;  606,026;41152,539;21,96316
 613,74; 9424,375;  579,024;41015,412;21,87473
 614,32; 9408,183;  540,408;41101,402;21,86281
 614,90; 9311,851;  490,178;40918,799;21,82037
 615,48; 9171,156;  452,487;40464,096;21,79035
 616,05; 9094,683;  410,180;40483,222;21,67168
 616,63; 9047,056;  401,104;40318,655;21,65953
 617,21; 8962,724;  399,718;40241,373;21,49260
 617,79; 8867,564;  387,333;40174,829;21,31381
 618,36; 8782,788;  397,486;40006,763;21,17004
 618,94; 8628,872;  336,410;39753,397;21,03779
 619,52; 8590,371;  365,642;39521,153;21,00529
 620,10; 8495,050;  354,487;39388,721;20,85493
 620,67; 8482,332;  361,873;39318,419;20,84492
 621,25; 8383,015;  372,409;39167,334;20,64859
 621,83; 8295,580;  354,641;39084,754;20,50327
 622,41; 8295,968;  391,026;38977,184;20,48647
 622,98; 8159,904;  364,642;38686,562;20,34152
 623,56; 8089,405;  365,181;38813,734;20,08977
 624,14; 8000,011;  355,409;38569,159;20,00485
 624,72; 7893,827;  341,718;38523,095;19,77956
 625,29; 7897,989;  316,104;38657,806;19,77451
 625,87; 7897,748;  360,641;38546,774;19,73781
 626,45; 7750,647;  314,873;38389,177;19,52964
 627,02; 7713,020;  335,256;38401,416;19,38143
 627,60; 7628,472;  309,331;38247,745;19,29216
 628,18; 7612,129;  300,795;38407,398;19,18653
 628,76; 7564,268;  310,488;38347,407;19,07037
 629,33; 7512,212;  323,334;38402,917;18,87856
 629,91; 7484,820;  314,718;38329,260;18,86147
 630,49; 7509,454;  344,488;38490,667;18,78292
 631,06; 7455,647;  329,411;38713,378;18,56566
 631,64; 7428,781;  330,488;38659,022;18,51960
 632,22; 7306,239;  289,335;38498,083;18,36465
 632,79; 7373,360;  314,489;38859,231;18,31345
 633,37; 7284,223;  297,563;38933,633;18,08326
 633,95; 7327,235;  304,873;39003,600;18,14623
 634,52; 7266,906;  282,103;39130,617;17,97959
 635,10; 7237,626;  293,872;39129,679;17,87977
 635,68; 7276,407;  298,643;39388,902;17,85039
 636,25; 7221,494;  287,567;39270,081;17,78728
 636,83; 7179,422;  278,027;39558,253;17,56964
 637,41; 7182,803;  282,258;39529,959;17,58204
 637,98; 7187,546;  311,182;39727,598;17,44543
 638,56; 7146,723;  313,182;39916,997;17,25475
 639,13; 7124,923;  288,334;39909,502;17,25489
 639,71; 7157,338;  304,950;40113,548;17,21334
 640,29; 7013,348;  256,796;39925,736;17,03235
 640,86; 7013,589;  264,949;40184,562;16,90557
 641,44; 6992,677;  279,949;40078,388;16,86681
 642,02; 6984,610;  299,488;40090,906;16,80041
 642,59; 6946,313;  274,949;40214,885;16,70349
 643,17; 6939,785;  281,334;40217,711;16,67265
 643,74; 6884,257;  280,180;40277,075;16,51147
 644,32; 6882,806;  297,872;40159,824;16,51934
 644,89; 6864,816;  294,641;40232,803;16,45087
 645,47; 6809,288;  303,641;40301,321;16,26506
 646,05; 6739,221;  290,411;40214,993;16,15248
 646,62; 6689,463;  289,641;40043,972;16,09842
 647,20; 6689,319;  289,718;40272,721;16,00580
 647,77; 6578,483;  265,487;40089,931;15,85206
 648,35; 6557,263;  256,026;40063,757;15,82918
 648,92; 6569,966;  298,949;40061,506;15,77116
 649,50; 6513,591;  255,026;40072,947;15,71796
 650,08; 6461,986;  261,410;39830,003;15,67045
 650,65; 6449,843;  262,333;40126,983;15,52129
 651,23; 6485,238;  243,564;40781,193;15,39723
 651,80; 6587,864;  258,179;41812,942;15,23215
 652,38; 6646,490;  261,872;42203,383;15,22267
 652,95; 6698,192;  233,256;42419,747;15,32466
 653,53; 6674,664;  276,564;42711,496;15,07744
 654,10; 6730,751;  289,718;42850,937;15,13357
 654,68; 6644,223;  250,641;42834,224;15,01420
 655,25; 6658,695;  264,872;42856,280;15,01200
 655,83; 6615,321;  245,179;43021,106;14,89189
 656,40; 6607,332;  284,795;43014,547;14,79657
 656,98; 6601,188;  253,179;42886,680;14,88972
 657,55; 6576,891;  261,410;42794,352;14,84845
 658,13; 6459,132;  252,641;42510,870;14,68706
 658,70; 6470,450;  269,102;42238,234;14,77597
 659,28; 6228,153;  260,640;41264,675;14,55348
 659,85; 6073,625;  256,948;40488,270;14,45808
 660,43; 6092,020;  275,948;40627,788;14,41340
 661,00; 6074,492;  262,486;40779,383;14,34465
 661,58; 6080,656;  249,794;41039,132;14,29506
 662,15; 6071,051;  239,333;41294,419;14,20462
 662,73; 6155,984;  299,948;41606,552;14,17700
 663,30; 6107,072;  268,563;41825,301;14,04949
 663,88; 6142,005;  270,948;42051,742;14,05205
 664,45; 6108,631;  255,486;42169,953;13,96450
 665,03; 6187,180;  264,717;42663,547;13,96846
 665,60; 6272,806;  312,102;43031,681;13,95310
 666,17; 6263,047;  271,255;43217,045;13,95199
 666,75; 6232,442;  261,025;43595,255;13,77991
 667,32; 6311,683;  289,948;43882,773;13,81359
 667,90; 6351,770;  266,101;44222,445;13,84480
 668,47; 6366,550;  294,640;44399,809;13,76689
 669,05; 6397,022;  269,486;44814,404;13,75586
 669,62; 6392,340;  245,178;44839,537;13,78462
 670,19; 6353,658;  254,794;45024,055;13,62288
 670,77; 6388,899;  265,793;45142,650;13,64424
 671,34; 6372,756;  268,793;45083,399;13,62048
 671,92; 6458,535;  253,947;45352,917;13,75772
 672,49; 6390,930;  269,947;45434,742;13,55255
 673,06; 6369,787;  224,024;45458,568;13,58644
 673,64; 6375,874;  255,947;45434,625;13,54605
 674,21; 6368,961;  237,255;45375,681;13,58423
 674,79; 6353,664;  262,255;45685,430;13,41036
 675,36; 6361,751;  276,947;45761,640;13,37770
 675,93; 6310,454;  253,332;45644,620;13,34424
 676,51; 6350,157;  281,870;45776,061;13,33860
 677,08; 6346,706;  268,101;45883,502;13,32577
 677,65; 6357,639;  263,947;45972,481;13,33163
 678,23; 6306,111;  268,485;46306,307;13,11449
 678,80; 6327,198;  257,101;46338,209;13,17264
 679,38; 6356,286;  241,639;46545,881;13,20537
 679,95; 6384,450;  267,485;46826,784;13,13801
 680,52; 6407,768;  250,639;47050,917;13,15618
 681,10; 6504,625;  270,331;47495,127;13,20131
 681,67; 6520,866;  272,562;47798,953;13,14702
 682,24; 6493,261;  236,254;47846,856;13,14204
 682,82; 6543,117;  250,716;48419,374;13,06327
 683,39; 6649,359;  279,331;48796,122;13,12953
 683,96; 6653,830;  243,869;49050,333;13,13343
 684,54; 6701,610;  237,408;49433,774;13,13959
 685,11; 6733,467;  268,254;49718,215;13,07425
 685,68; 6797,323;  255,023;50291,117;13,07516
 686,25; 6781,411;  242,254;50335,020;13,05409
 686,83; 6822,652;  243,715;50522,692;13,08487
 687,40; 6883,508;  228,023;50831,517;13,15222
 687,97; 6947,442;  276,331;51254,728;13,08615
 688,55; 6953,760;  237,869;51314,476;13,14866
 689,12; 6983,616;  225,254;51619,687;13,14999
 689,69; 7047,088;  232,023;51565,205;13,27614
 690,26; 7044,791;  242,869;51710,876;13,21583
 690,84; 7065,648;  241,946;51886,164;13,21291
 691,41; 7101,350;  250,638;51992,912;13,24007
 691,98; 7103,899;  256,561;52263,276;13,16626
 692,56; 7170,448;  235,253;52323,564;13,31430
 693,13; 7211,843;  294,869;52434,543;13,26624
 693,70; 7208,623;  274,176;52635,061;13,24356
 694,27; 7176,479;  250,715;52732,887;13,19641
 694,84; 7234,720;  243,561;52812,020;13,29915
 695,42; 7325,346;  284,023;52904,307;13,38139
 695,99; 7320,049;  250,099;53163,364;13,36139
 696,56; 7322,982;  243,099;52917,189;13,44092
 697,13; 7391,762;  264,022;53517,323;13,38460
 697,71; 7378,080;  219,638;53425,610;13,45421
 698,28; 7402,321;  251,253;53845,820;13,34290
 698,85; 7418,408;  218,330;53828,107;13,43053
 699,42; 7463,880;  225,715;53963,625;13,46938
 699,99; 7544,045;  265,253;54026,143;13,53919
 700,57; 7527,824;  265,868;54102,815;13,48880
 701,14; 7552,988;  245,176;54274,718;13,52559
 701,71; 7629,460;  249,330;54471,236;13,61098
 702,28; 7655,240;  256,407;54548,600;13,62780
 702,85; 7653,481;  258,484;54541,733;13,62298
 703,43; 7671,030;  273,714;54770,713;13,57380
 704,00; 7752,733;  279,483;55057,154;13,64288
 704,57; 7763,051;  259,791;55058,441;13,69242
 705,14; 7843,292;  288,330;55471,882;13,69061
 705,71; 7837,841;  304,483;55285,169;13,70183
 706,28; 7823,697;  265,714;55104,226;13,78225
 706,86; 7902,477;  295,252;55534,820;13,77133
 707,43; 7918,487;  310,022;55383,723;13,81506
 708,00; 7881,498;  290,252;55346,395;13,78819
 708,57; 7854,739;  268,098;55235,913;13,80197
 709,14; 7915,826;  293,791;55411,815;13,82857
 709,71; 7931,914;  276,560;55532,718;13,85430
 710,28; 7946,847;  279,637;55805,621;13,80833
 710,86; 7992,704;  291,175;55970,600;13,83191
 711,43; 8062,406;  290,406;55888,118;13,97899
 712,00; 8085,647;  274,637;55957,174;14,02776
 712,57; 8160,119;  275,791;56137,308;14,11406
 713,14; 8204,822;  262,252;56208,749;14,19672
 713,71; 8206,448;  270,021;56201,882;14,18946
 714,28; 8253,151;  257,560;56236,785;14,28314
 714,85; 8267,392;  242,790;55991,303;14,39429
 715,42; 8282,094;  253,098;56180,205;14,35618
 716,00; 8412,489;  284,329;56225,416;14,52986
 716,57; 8406,038;  247,636;56417,087;14,52462
 717,14; 8418,818;  228,329;56269,682;14,61508
 717,71; 8430,828;  227,636;56335,508;14,62039
 718,28; 8462,993;  255,405;56488,026;14,59578
 718,85; 8480,926;  227,252;56446,544;14,68121
 719,42; 8552,475;  251,790;56574,600;14,73770
 719,99; 8572,793;  222,405;56358,041;14,87538
 720,56; 8570,803;  244,328;56784,098;14,72676
 721,13; 8616,122;  243,867;56791,000;14,80580
 721,70; 8632,055;  235,405;56697,057;14,87142
 722,27; 8706,450;  254,867;56687,267;14,97647
 722,84; 8786,383;  280,867;56820,324;15,04351
 723,41; 8773,086;  234,251;56890,611;15,07127
 723,98; 8797,712;  241,328;57073,359;15,05557
 724,55; 8909,338;  262,328;57088,108;15,21670
 725,12; 8896,348;  207,636;56945,242;15,31385
 725,69; 8988,820;  237,020;57245,298;15,35181
 726,27; 9004,369;  233,020;57271,047;15,37807
 726,84; 9069,918;  240,636;57624,565;15,38633
 727,41; 9120,620;  251,251;57589,621;15,46847
 727,98; 9177,785;  263,020;57923,216;15,46086
 728,55; 9264,641;  283,020;57835,657;15,60592
 729,12; 9244,498;  230,328;57945,098;15,61848
 729,69; 9314,970;  268,559;58066,616;15,65176
 730,26; 9333,596;  275,251;58355,826;15,59617
 730,82; 9366,606;  245,712;58148,806;15,75200
 731,39; 9418,770;  244,097;58373,478;15,78319
 731,96; 9487,165;  238,866;58516,303;15,86943
 732,53; 9604,483;  269,251;58742,898;15,96485
 733,10; 9614,955;  270,558;58825,955;15,95822
 733,67; 9695,427;  277,097;59177,088;15,99038
 734,24; 9648,361;  258,020;58721,067;16,06201
 734,81; 9700,679;  285,097;58925,509;16,05647
 735,38; 9697,074;  263,097;58723,334;16,13743
 735,95; 9733,315;  264,789;58613,237;16,22755
 736,52; 9809,633;  280,096;58822,985;16,27787
 737,09; 9789,566;  276,635;58394,965;16,36821
 737,66; 9870,423;  316,712;58646,406;16,37881
 738,23; 9887,895;  248,866;58650,309;16,50478
 738,80;10010,675;  294,635;58915,904;16,57426
 739,37;10037,762;  293,866;59062,883;16,57999
 739,94;10056,234;  277,865;59129,863;16,61519
 740,51;10198,706;  326,250;59178,611;16,77495
 741,07;10159,178;  267,865;59139,360;16,80153
 741,64;10281,188;  288,404;59329,263;16,92520
 742,21;10279,198;  274,096;59443,781;16,90917
 742,78;10223,055;  246,327;59094,991;16,95319
 743,35;10383,988;  261,634;59433,124;17,10681
 743,92;10522,691;  301,942;59601,950;17,23566
 744,49;10509,317;  279,250;59429,545;17,29504
 745,06;10517,558;  268,250;59462,986;17,31456
 745,63;10553,645;  252,865;59424,581;17,40828
 746,19;10652,579;  258,942;59418,714;17,56876
 746,76;10631,205;  272,557;59542,078;17,47719
 747,33;10659,754;  253,865;59456,827;17,57664
 747,90;10781,918;  273,173;59651,499;17,69795
 748,47;10832,697;  286,096;59525,247;17,80343
 749,04;10846,631;  282,942;59625,458;17,80122
 749,61;10860,872;  291,480;59468,976;17,86049
 750,17;10912,498;  278,634;59581,263;17,93152
 750,74;10975,124;  284,557;59467,704;18,06353
 751,31;10974,057;  257,634;59390,068;18,12275
 751,88;10979,760;  244,788;59226,047;18,20065
 752,45;11073,001;  272,480;59405,104;18,26491
 753,02;11062,934;  267,557;59205,314;18,31657
 753,58;11138,406;  256,403;59122,755;18,48595
 754,15;11181,109;  268,326;59189,504;18,52099
 754,72;11142,889;  247,172;59014,637;18,54039
 755,29;11189,437;  243,634;58905,694;18,65909
 755,86;11213,525;  261,480;58876,212;18,68480
 756,42;11326,458;  268,710;58750,653;18,90797
 756,99;11306,238;  222,864;58846,863;18,90586
 757,56;11344,094;  245,787;58790,458;18,95699
 758,13;11406,797;  201,480;58545,361;19,20564
 758,70;11498,269;  227,326;58772,186;19,25181
 759,26;11556,895;  219,787;58855,627;19,33477
 759,83;11591,751;  217,249;58988,761;19,35377
 760,40;11641,223;  215,556;58826,202;19,49418
 760,97;11578,080;  191,941;58879,796;19,40118
 761,53;11561,090;  167,787;58425,084;19,55687
 762,10;11636,485;  188,864;58423,448;19,65777
 762,67;11624,957;  215,556;58351,197;19,62548
 763,24;11598,660;  171,864;57767,253;19,83978
 763,80;11696,209;  215,941;58088,848;19,83703
 764,37;11666,527;  221,633;58054,058;19,78975
 764,94;11662,922;  202,479;57578,653;19,97422
 765,50;11705,394;  200,941;57513,094;20,07332
 766,07;11815,866;  250,941;57612,381;20,16150
 766,64;11761,722;  222,402;57285,438;20,22206
 767,21;11702,733;  218,479;57147,879;20,17280
 767,77;11764,205;  245,017;57066,397;20,27263
 768,34;11843,061;  254,633;57069,684;20,39676
 768,91;11821,841;  249,171;56848,048;20,44682
 769,47;11878,082;  242,094;56918,720;20,53049
 770,04;11913,785;  264,094;56714,392;20,63708
 770,61;11841,026;  238,556;56494,679;20,62437
 771,18;11874,498;  229,017;56359,889;20,74702
 771,74;11970,893;  251,786;56535,561;20,82147
 772,31;11980,211;  254,632;56343,310;20,90543
 772,88;11927,067;  219,555;56090,212;20,95467
 773,44;11936,770;  231,325;55928,038;21,01640
 774,01;12048,704;  242,017;56069,710;21,14844
 774,58;12011,791;  224,786;55530,920;21,31229
 775,14;12058,417;  214,171;55797,361;21,30904
 775,71;12075,812;  233,863;55588,110;21,39303
 776,27;12070,514;  273,632;55554,397;21,33994
 776,84;12189,679;  278,171;55555,530;21,54862
 777,41;12222,920;  255,324;55365,587;21,71573
 777,97;12102,084;  248,324;55056,105;21,62788
 778,54;12168,941;  248,632;54984,930;21,77770
 779,11;12256,336;  258,170;55127,525;21,86679
 779,67;12274,808;  230,093;54995,659;21,99323
 780,24;12303,587;  253,863;54725,946;22,12092
 780,80;12282,521;  263,401;54791,233;22,04217
 781,37;12347,146;  252,939;54738,366;22,19714
 781,94;12271,080;  254,862;54609,423;22,10710
 782,50;12344,321;  256,170;54425,941;22,31531
 783,07;12372,716;  272,401;54443,382;22,33726
 783,63;12339,111;  230,247;54203,900;22,43477
 784,20;12395,583;  255,478;54131,725;22,53332
 784,77;12351,286;  249,401;53909,782;22,55274
 785,33;12338,142;  226,170;53752,992;22,62786
 785,90;12423,076;  246,554;53709,741;22,77552
 786,46;12420,086;  265,939;53596,567;22,79018
 787,03;12427,635;  237,016;53392,238;22,93400
 787,59;12440,492;  245,708;53256,372;23,00440
 788,16;12459,579;  241,785;53273,120;23,03882
 788,73;12488,051;  245,400;53157,715;23,13762
 789,29;12436,215;  241,631;52693,310;23,24918
 789,86;12488,456;  246,016;52655,367;23,35927
 790,42;12443,928;  255,093;52516,808;23,32269
 790,99;12430,477;  254,246;52100,479;23,48528
 791,55;12503,334;  236,016;52082,382;23,66090
 792,12;12490,575;  259,092;52155,823;23,56889
 792,68;12492,431;  239,939;51808,341;23,75969
 793,25;12507,903;  247,015;51550,551;23,89872
 793,81;12493,837;  277,400;51208,915;23,98601
 794,38;12386,770;  221,708;50908,587;24,00042
 794,94;12503,934;  227,323;50764,721;24,29213
 795,51;12453,022;  243,708;50542,854;24,27340
 796,07;12403,263;  253,015;50333,987;24,26121
 796,64;12493,196;  272,477;50487,890;24,33659
 797,20;12405,361;  240,938;49802,792;24,54392
 797,77;12340,371;  231,246;49591,310;24,53223
 798,33;12336,766;  230,861;49426,521;24,60767
 798,90;12429,699;  267,554;49308,500;24,79998
 799,46;12298,787;  243,092;48887,557;24,78328
 800,03;12318,336;  251,246;48753,382;24,87950
 800,59;12306,961;  264,246;48521,746;24,95512
 801,15;12383,356;  256,169;48366,495;25,20704
 801,72;12266,444;  253,246;47952,244;25,18543
 802,28;12277,993;  285,707;47615,993;25,33745
 802,85;12179,849;  252,861;47502,203;25,24265
 803,41;12214,936;  252,553;47225,182;25,46671
 803,98;12168,716;  238,861;46825,777;25,60774
 804,54;12090,573;  241,938;46639,603;25,53714
 805,11;12156,429;  251,168;46334,582;25,83416
 805,67;12106,209;  264,322;46328,562;25,70733
 806,23;12046,527;  257,015;45764,695;25,90664
 806,80;12127,691;  271,091;45659,521;26,12252
 807,36;12062,701;  276,399;45604,039;26,00246
 807,93;12033,789;  277,322;45434,403;26,03460
 808,49;12009,645;  234,784;44903,536;26,36040
 809,05;11932,194;  223,399;44802,670;26,26511
 809,62;11977,358;  256,707;44716,188;26,36255
 810,18;11978,677;  257,399;44535,860;26,47174
 810,74;11911,072;  234,322;44307,608;26,49394
 811,31;11933,467;  232,553;43994,203;26,73783
 811,87;11979,785;  234,860;43757,798;26,98560
 812,44;12004,257;  272,783;43915,470;26,88073
 813,00;11909,575;  212,168;43590,142;26,96624
 813,56;11965,431;  244,552;43547,044;27,06745
 814,13;12057,672;  239,937;43498,793;27,31865
 814,69;12011,760;  247,860;43391,696;27,26670
 815,25;11942,385;  219,245;42853,752;27,49684
 815,82;11924,934;  256,783;42841,116;27,40010
 816,38;11974,022;  262,783;42599,942;27,66184
 816,94;11902,878;  220,245;42260,460;27,78919
 817,51;11966,812;  215,629;42091,055;28,06224
 818,07;11905,361;  223,091;41767,496;28,11996
 818,63;11924,217;  240,398;41667,321;28,20344
 819,20;11948,381;  235,398;41566,839;28,33916
 819,76;11826,469;  223,552;41074,742;28,40289
 820,32;11905,479;  272,244;41011,106;28,55562
 820,89;11821,336;  255,167;40687,239;28,60642
 821,45;11772,038;  234,475;40463,834;28,67946
 822,01;11749,741;  249,629;40220,968;28,77090
 822,57;11725,136;  259,783;39982,101;28,86376
 823,14;11693,069;  225,475;39833,157;28,95296
 823,70;11656,080;  218,706;39567,752;29,06646
 824,26;11643,475;  228,936;39387,347;29,14965
 824,82;11676,870;  252,552;39175,250;29,35130
 825,39;11606,342;  227,859;38963,614;29,37462
 825,95;11669,045;  256,398;39067,363;29,40573
 826,51;11601,055;  249,552;38561,111;29,62945
 827,08;11656,527;  270,244;38724,245;29,61014
 827,64;11591,691;  260,936;38392,301;29,71505
 828,20;11558,240;  233,859;38115,127;29,89441
 828,76;11548,712;  245,474;38089,183;29,86821
 829,32;11613,953;  254,321;37973,317;30,11648
 829,89;11551,117;  212,321;37802,988;30,16386
 830,45;11577,743;  229,936;37824,429;30,18476
 831,01;11554,753;  221,936;37613,717;30,30831
 831,57;11497,072;  234,628;37533,388;30,19522
 832,14;11580,390;  231,167;37369,753;30,55911
 832,70;11525,554;  232,705;37181,194;30,56376
 833,26;11556,410;  220,320;37071,481;30,76183
 833,82;11590,344;  230,705;37021,230;30,87653
 834,38;11618,662;  225,320;36996,440;30,98448
 834,95;11567,365;  213,936;36952,804;30,90305
 835,51;11613,914;  192,166;36686,014;31,29773
 836,07;11605,001;  232,859;36854,994;31,05265
 836,63;11750,011;  244,320;36785,742;31,48671
 837,19;11623,560;  231,782;36651,183;31,27942
 837,75;11610,878;  204,012;36309,701;31,59299
 838,32;11755,042;  244,935;36406,142;31,82999
 838,88;11784,361;  252,320;36453,814;31,85515
 839,44;11807,217;  237,243;36295,948;32,08649
 840,00;11812,843;  233,551;36287,619;32,11646
 840,56;11785,161;  210,089;35888,676;32,44263
 841,12;11716,864;  211,474;35894,040;32,24373
 841,68;11706,720;  209,012;35755,481;32,34557
 842,25;11800,346;  217,320;35702,461;32,64191
 842,81;11764,587;  215,012;35419,979;32,80666
 843,37;11837,982;  205,704;35401,112;33,05056
 843,93;11818,608;  223,320;35395,399;32,96731
 844,49;11852,157;  230,396;35421,994;33,02425
 845,05;11838,244;  204,089;35120,435;33,32008
 845,61;11957,639;  240,858;35187,338;33,52779
 846,17;11905,573;  225,781;35010,394;33,57747
 846,73;11950,198;  228,396;34950,604;33,75880
 847,29;11903,209;  204,012;34827,738;33,78954
 847,86;11949,758;  213,242;34715,333;34,01682
 848,42;11921,383;  204,858;34488,004;34,17576
 848,98;11965,778;  219,704;34480,984;34,28382
 849,54;11987,943;  211,242;34480,425;34,36528
 850,10;12031,953;  226,627;34362,866;34,58297
 850,66;12038,579;  202,088;34152,999;34,86354
 851,22;11989,205;  196,627;34137,210;34,74477
 851,78;12032,215;  250,242;34209,266;34,69467
 852,34;11976,841;  227,011;33986,169;34,80487
 852,90;11961,774;  210,165;33799,225;34,98642
 853,46;11947,785;  207,703;33608,128;35,14950
 854,02;11973,949;  222,473;33612,492;35,19458
 854,58;11850,575;  206,550;33277,317;35,20942
 855,14;11850,585;  188,088;33354,220;35,16387
 855,70;11841,903;  181,088;33088,969;35,43472
 856,26;11870,067;  230,857;33075,948;35,43668
 856,82;11795,309;  211,011;32863,158;35,47790
 857,38;11829,627;  232,780;32774,138;35,63725
 857,94;11831,714;  223,318;32659,810;35,78807
 858,50;11876,494;  227,472;32530,405;36,06181
 859,06;11787,889;  212,857;32381,692;35,98213
 859,62;11759,130;  238,165;32286,517;35,94870
 860,18;11733,217;  211,703;32127,805;36,09938
 860,74;11766,612;  191,164;31923,477;36,47842
 861,30;11678,546;  198,703;31767,302;36,36475
 861,86;11750,402;  234,241;31797,743;36,48569
 862,42;11681,336;  211,241;31628,569;36,50882
 862,98;11824,731;  233,549;31602,010;36,95171
 863,54;11717,279;  232,703;31329,066;36,93222
 864,10;11741,598;  218,780;31484,661;36,85429
 864,66;11692,916;  197,164;31206,641;37,07174
 865,22;11742,388;  218,395;31051,928;37,37487
 865,78;11704,706;  226,164;30883,215;37,44177
 866,34;11646,947;  217,549;30887,579;37,26569
 866,90;11674,419;  224,010;30757,020;37,50174
 867,45;11686,814;  234,779;30473,000;37,87271
 868,01;11645,593;  225,010;30303,825;37,96886
 868,57;11604,604;  220,856;30039,651;38,17642
 869,13;11571,153;  209,933;29981,323;38,16154
 869,69;11551,932;  210,702;29867,533;38,24154
 870,25;11577,635;  195,010;29826,051;38,41453
 870,81;11543,876;  223,625;29740,185;38,35220
 871,37;11529,656;  225,087;29572,318;38,52005
 871,93;11600,281;  240,317;29451,913;38,88854
 872,49;11489,677;  224,779;29189,046;38,89240
 873,04;11394,687;  209,471;29004,179;38,84469
 873,60;11370,082;  195,702;28887,159;38,94671
 874,16;11310,092;  228,471;28813,062;38,76782
 874,72;11399,015;  209,394;28708,985;39,26239
 875,28;11385,246;  227,240;28637,369;39,27475
 875,84;11315,323;  215,625;28635,985;39,05545
 876,40;11324,862;  221,163;28542,754;39,20577
 876,95;11378,015;  228,779;28543,138;39,37662
 877,51;11434,323;  241,625;28472,292;39,64730
 878,07;11442,169;  256,240;28418,138;39,72008
 878,63;11468,015;  221,702;28446,062;39,84612
 879,19;11495,400;  236,317;28484,831;39,85726
 879,75;11529,323;  231,317;28551,523;39,89380
 880,30;11546,785;  218,010;28479,215;40,08596
 880,86;11720,938;  260,933;28569,600;40,48232
 881,42;11813,708;  217,240;28612,677;40,83919
 881,98;11831,246;  230,702;28630,677;40,84702
 882,54;11948,400;  214,394;28784,292;41,07122
 883,09;11976,554;  239,779;28888,138;40,96840
 883,65;12036,938;  208,317;28963,908;41,13503
 884,21;12262,169;  241,702;29296,062;41,37234
 884,77;12275,015;  218,471;29311,677;41,44110
 885,32;12406,708;  213,240;29452,369;41,70257
 885,88;12485,323;  256,702;29581,754;41,70025
 886,44;12554,246;  226,394;29676,062;41,86075
 887,00;12596,554;  239,856;29623,600;42,05284
 887,56;12725,323;  223,163;29824,215;42,23552
 888,11;12724,554;  210,317;29801,831;42,28995
 888,67;12824,092;  252,317;30013,138;42,24270
 889,23;12940,246;  237,471;30036,369;42,62834
 889,79;12859,862;  212,702;29856,446;42,66384
 890,34;12852,169;  218,702;29755,677;42,77170
 890,90;13009,477;  276,702;29912,908;42,96358
 891,46;12905,631;  214,625;29891,908;42,76337
 892,01;12990,323;  241,317;29837,831;43,07604
 892,57;12952,862;  249,317;29815,908;42,96587
 893,13;12906,862;  211,471;29535,831;43,29298
 893,69;12895,246;  211,548;29489,138;43,32221
 894,24;12900,246;  224,471;29436,369;43,39251
 894,80;12885,400;  227,702;29311,292;43,52179
 895,36;12881,862;  225,394;29145,600;43,76341
 895,91;12774,092;  223,856;28901,062;43,76381
 896,47;12825,554;  225,548;28834,831;44,04167
 897,03;12739,323;  215,394;28646,446;44,05018
 897,58;12734,477;  230,087;28489,215;44,24903
 898,14;12715,092;  234,163;28277,523;44,50583
 898,70;12731,938;  203,548;28110,677;44,89315
 899,25;12767,785;  218,240;28128,600;44,96375
 899,81;12693,323;  238,702;27953,523;44,93849
 900,37;12656,554;  202,471;27739,600;45,22651
 900,92;12651,323;  223,317;27738,292;45,16815
 901,48;12646,708;  218,087;27590,908;45,40497
 902,03;12592,631;  210,010;27470,600;45,42316
 902,59;12564,477;  215,394;27349,446;45,51138
 903,15;12527,015;  235,317;27222,677;45,54613
 903,70;12444,938;  234,163;26894,523;45,80124
 904,26;12460,092;  207,010;26756,754;46,15142
 904,82;12404,708;  216,856;26783,292;45,87688
 905,37;12420,862;  218,010;26597,446;46,25896
 905,93;12373,631;  218,625;26490,677;46,26592
 906,48;12377,938;  227,548;26393,831;46,43529
 907,04;12335,862;  232,317;26286,985;46,45442
 907,60;12298,400;  207,010;26103,523;46,69119
 908,15;12239,477;  206,087;25973,292;46,70041
 908,71;12264,246;  240,087;25927,985;46,80866
 909,26;12198,323;  211,471;25778,831;46,88342
 909,82;12143,092;  234,625;25663,985;46,82960
 910,37;12150,708;  255,010;25578,985;46,97406
 910,93;12028,092;  204,702;25386,677;46,95180
 911,48;11996,631;  205,933;25212,138;47,15109
 912,04;11990,631;  208,779;25197,062;47,14951
 912,60;12087,169;  217,779;25104,292;47,69407
 913,15;12004,708;  222,548;24869,062;47,80457
 913,71;11947,938;  204,702;24769,062;47,80600
 914,26;11927,246;  196,548;24667,292;47,93764
 914,82;11936,785;  218,317;24587,446;48,08735
 915,37;11925,785;  205,779;24464,677;48,31219
 915,93;11917,785;  239,010;24302,831;48,53250
 916,48;11857,400;  205,394;24189,908;48,58137
 917,04;11836,862;  228,702;24118,446;48,59056
 917,59;11833,246;  237,010;23943,831;48,91519
 918,15;11698,862;  187,548;23757,138;48,83968
 918,70;11739,938;  216,163;23660,062;49,15469
 919,26;11732,169;  216,702;23574,292;49,30075
 919,81;11650,708;  205,856;23432,062;49,27560
 920,37;11630,092;  212,625;23338,215;49,37157
 920,92;11666,015;  234,010;23275,754;49,61432
 921,48;11577,862;  203,317;23074,985;49,73203
 922,03;11545,092;  214,471;23022,677;49,67783
 922,59;11521,015;  201,779;22864,215;49,94713
 923,14;11494,631;  198,240;22737,062;50,11970
 923,69;11524,400;  228,625;22602,138;50,48726
 924,25;11496,169;  232,779;22644,985;50,25561
 924,80;11464,092;  216,087;22431,908;50,63061
 925,36;11483,862;  209,163;22327,677;50,97403
 925,91;11388,323;  211,856;22212,600;50,80041
 926,47;11404,477;  187,625;22136,523;51,10440
 927,02;11406,785;  232,010;21913,908;51,53965
 927,57;11304,554;  217,933;21878,831;51,18265
 928,13;11313,092;  203,625;21741,369;51,58139
 928,68;11309,323;  208,702;21738,754;51,55873
 929,24;11224,862;  185,163;21501,138;51,79073
 929,79;11194,169;  199,471;21321,754;52,05260
 930,34;11144,477;  209,163;21279,831;51,89828
 930,90;11109,785;  195,548;21201,446;51,95796
 931,45;11122,862;  212,394;21130,600;52,15776
 932,01;11122,246;  218,394;21122,754;52,16066
 932,56;11067,477;  227,779;20854,754;52,55108
 933,11;11106,554;  226,471;20900,062;52,62793
 933,67;11016,323;  203,240;20674,446;52,82094
 934,22;11010,631;  212,087;20583,831;53,00746
 934,77;10964,631;  226,163;20451,523;53,09407
 935,33;10915,785;  223,779;20349,754;53,12541
 935,88;10893,092;  215,317;20240,985;53,32045
 936,43;10880,169;  197,394;20161,523;53,50985
 936,99;10873,092;  212,394;20146,062;53,48087
 937,54;10806,323;  194,010;19957,677;53,69607
 938,09;10829,323;  214,394;19891,446;53,94573
 938,65;10724,938;  213,779;19737,677;53,83740
 939,20;10693,015;  194,163;19643,754;53,97981
 939,75;10656,785;  198,163;19498,062;54,19003
 940,31;10619,785;  182,087;19441,600;54,19502
 940,86;10670,631;  219,702;19434,369;54,39037
 941,41;10621,015;  256,394;19287,677;54,46097
 941,96;10557,938;  203,471;19205,908;54,49021
 942,52;10486,169;  214,394;19047,215;54,54188
 943,07;10529,323;  190,163;18956,754;55,09344
 943,62;10525,092;  202,240;18877,754;55,27480
 944,18;10447,708;  196,548;18813,523;55,06351
 944,73;10380,246;  207,087;18695,138;55,02559
 945,28;10349,785;  181,702;18496,369;55,51880
 945,83;10331,862;  199,240;18507,985;55,34307
 946,39;10385,400;  202,856;18413,062;55,91669
 946,94;10378,631;  230,548;18384,677;55,89959
 947,49;10377,708;  200,163;18217,446;56,48768
 948,04;10339,169;  219,010;18221,908;56,21406
 948,59;10278,554;  227,317;18113,062;56,19692
 949,15;10259,246;  188,394;18063,062;56,34148
 949,70;10209,631;  194,933;17914,369;56,51815
 950,25;10277,708;  226,779;17773,754;57,28012
 950,80;10201,785;  171,625;17692,677;57,24633
 951,36;10099,862;  177,010;17595,908;56,96601
 951,91;10148,477;  223,087;17601,985;57,11174
 952,46;10028,169;  183,933;17384,831;57,23095
 953,01;10116,015;  222,856;17419,985;57,52797
 953,56;10005,708;  177,702;17263,600;57,52115
 954,11;10006,092;  216,087;17247,062;57,48353
 954,67;10018,554;  198,779;17164,677;57,87949
 955,22; 9946,708;  180,779;16994,446;58,08328
 955,77; 9944,169;  221,625;16988,754;57,98574
 956,32; 9900,708;  243,010;16874,446;58,06894
 956,87; 9806,246;  188,702;16714,831;58,19599
 957,42; 9780,169;  204,471;16632,446;58,28897
 957,98; 9765,938;  195,240;16599,369;58,34323
 958,53; 9778,015;  222,471;16547,138;58,53439
 959,08; 9712,785;  194,163;16408,138;58,70628
 959,63; 9641,323;  192,087;16331,600;58,54722
 960,18; 9660,938;  215,163;16244,369;58,92853
 960,73; 9601,092;  205,010;16235,600;58,61345
 961,28; 9555,477;  186,933;16052,985;59,04773
 961,83; 9518,092;  213,087;16048,754;58,75980
 962,39; 9470,631;  189,856;15892,985;59,10144
 962,94; 9452,015;  223,317;15823,138;59,15900
 963,49; 9356,323;  203,087;15643,369;59,28153
 964,04; 9423,631;  215,317;15701,754;59,46051
 964,59; 9389,708;  180,087;15528,292;60,00455
 965,14; 9361,169;  213,471;15522,523;59,75352
 965,69; 9286,246;  204,702;15344,523;59,98449
 966,24; 9224,938;  208,548;15286,369;59,79903
 966,79; 9166,015;  213,856;15118,677;60,06217
 967,34; 9094,169;  178,087;14954,369;60,34050
 967,89; 9100,785;  189,317;14949,062;60,37684
 968,44; 9089,938;  211,394;14925,138;60,34184
 968,99; 9021,631;  212,163;14861,600;60,13520
 969,55; 8996,708;  209,856;14736,446;60,48805
 970,10; 8992,708;  210,625;14599,215;61,03505
 970,65; 8895,862;  214,933;14600,446;60,34494
 971,20; 8876,092;  203,471;14429,831;60,96163
 971,75; 8749,015;  189,548;14307,292;60,62914
 972,30; 8789,477;  202,779;14217,677;61,26836
 972,85; 8659,477;  203,548;14192,369;60,44776
 973,40; 8651,938;  195,702;13995,369;61,27855
 973,95; 8651,862;  206,779;13956,523;61,41993
 974,50; 8639,323;  223,394;13924,754;61,42404
 975,05; 8560,938;  220,779;13814,138;61,35466
 975,60; 8566,169;  225,779;13755,215;61,64625
 976,15; 8509,246;  215,394;13603,369;61,95001
 976,70; 8492,708;  213,163;13577,292;61,95349
 977,25; 8481,246;  208,779;13508,369;62,20092
 977,80; 8381,938;  199,933;13354,446;62,19923
 978,35; 8295,938;  215,163;13229,600;62,09086
 978,89; 8302,477;  196,010;13118,600;62,73098
 979,44; 8281,708;  205,317;13052,292;62,86609
 979,99; 8152,862;  193,625;12881,292;62,73207
 980,54; 8154,169;  235,779;12788,292;63,08211
 981,09; 8083,554;  218,779;12741,985;62,80161
 981,64; 7988,938;  216,471;12576,292;62,88495
 982,19; 8021,323;  248,240;12534,523;63,26635
 982,74; 7941,708;  226,702;12426,677;63,23788
 983,29; 7845,938;  195,240;12235,369;63,54332
 983,84; 7788,092;  212,856;12153,138;63,44269
 984,39; 7803,554;  247,471;12121,062;63,63772
 984,94; 7697,323;  190,471;11949,754;63,83767
 985,49; 7628,708;  229,010;11893,138;63,43978
 986,03; 7647,246;  240,856;11820,831;63,95860
 986,58; 7595,631;  246,240;11686,985;64,23874
 987,13; 7494,169;  218,240;11542,600;64,25025
 987,68; 7471,323;  230,163;11404,985;64,79889
 988,23; 7442,015;  229,933;11353,523;64,83592
 988,78; 7317,092;  214,317;11223,292;64,51804
 989,33; 7285,169;  228,471;11134,985;64,70169
 989,88; 7238,938;  235,394;11119,831;64,34457
 990,42; 7191,015;  219,625;10899,677;65,27487
 990,97; 7087,938;  216,856;10851,600;64,60976
 991,52; 7154,323;  239,779;10713,523;66,01788
 992,07; 7089,785;  244,394;10635,985;65,87433
 992,62; 7028,400;  230,163;10571,985;65,73539
 993,17; 6920,092;  230,471;10423,215;65,63121
 993,71; 6933,862;  222,471;10308,215;66,54333
 994,26; 6846,477;  199,471;10194,369;66,50399
 994,81; 6815,785;  232,779;10166,369;66,27016
 995,36; 6797,246;  218,702;10009,831;67,18882
 995,91; 6712,862;  223,317; 9934,138;66,82797
 996,45; 6681,015;  228,548; 9834,215;67,17355
 997,00; 6547,938;  199,471; 9690,677;66,88789
 997,55; 6553,477;  216,702; 9629,523;67,32068
 998,10; 6518,708;  247,317; 9522,215;67,61681
 998,65; 6433,169;  218,779; 9451,831;67,30592
 999,19; 6360,015;  237,317; 9256,831;67,88280
 999,74; 6316,323;  252,779; 9225,523;67,57737
1000,29; 6284,323;  227,933; 9121,754;68,09661
1000,84; 6187,938;  216,317; 9033,292;67,72868
1001,38; 6146,862;  220,702; 8862,446;68,57597
1001,93; 6133,477;  237,087; 8807,677;68,79795
1002,48; 6043,554;  203,087; 8696,677;68,76323
1003,03; 6012,092;  221,856; 8659,369;68,62492
1003,57; 5944,092;  231,087; 8529,523;68,84436
1004,12; 5926,246;  245,010; 8427,215;69,43405
1004,67; 5840,862;  214,779; 8341,138;69,23251
1005,22; 5753,708;  210,933; 8213,985;69,25827
1005,76; 5651,092;  205,548; 8064,677;69,28941
1006,31; 5672,477;  242,625; 8032,369;69,70514
1006,86; 5542,862;  211,010; 7859,446;69,71166
1007,40; 5489,477;  196,471; 7727,292;70,28458
1007,95; 5452,323;  215,163; 7683,754;70,12246
1008,50; 5363,015;  218,933; 7577,677;69,90436
1009,04; 5287,400;  225,625; 7457,908;69,98862
1009,59; 5238,092;  231,625; 7315,523;70,67390
1010,14; 5160,862;  211,471; 7221,831;70,60109
1010,68; 5051,015;  219,087; 7066,831;70,56234
1011,23; 5005,246;  200,548; 6984,523;70,82423
1011,78; 4973,708;  229,856; 6928,831;70,81459
1012,32; 4925,862;  217,240; 6785,908;71,68305
1012,87; 4894,323;  244,933; 6796,292;70,96833
1013,42; 4771,554;  209,240; 6641,369;70,93007
1013,96; 4800,785;  242,163; 6651,292;71,12700
1014,51; 4719,400;  195,779; 6561,985;71,05679
1015,06; 4752,092;  196,471; 6542,908;71,78235
1015,60; 4797,169;  260,702; 6590,446;71,66905
1016,15; 4748,785;  215,394; 6511,754;72,00018
1016,69; 4773,477;  210,702; 6584,215;71,58963
1017,24; 4802,938;  201,625; 6533,215;72,67232
1017,79; 4862,323;  236,625; 6648,215;72,14588
1018,33; 4825,554;  196,856; 6574,138;72,58104
1018,88; 4905,708;  217,856; 6679,292;72,55123
1019,42; 4929,862;  221,625; 6673,369;72,97618
1019,97; 4941,785;  212,010; 6700,754;72,89199
1020,51; 5013,015;  216,317; 6676,062;74,25523
1021,06; 4988,015;  211,240; 6675,831;73,89138
1021,61; 4950,785;  190,087; 6661,600;73,56391
1022,15; 4933,785;  171,856; 6627,369;73,76530
1022,70; 4927,092;  215,856; 6593,677;73,86906
1023,24; 4886,631;  204,548; 6580,215;73,43675
1023,79; 4869,246;  220,163; 6547,138;73,48034
1024,33; 4853,246;  218,087; 6440,292;74,49383
1024,88; 4809,785;  219,240; 6406,985;74,18769
1025,42; 4694,400;  201,779; 6280,831;73,90332
1025,97; 4687,169;  203,933; 6205,677;74,69889
1026,51; 4595,015;  173,087; 6046,600;75,28592
1027,06; 4611,400;  209,317; 6048,446;75,38937
1027,60; 4504,631;  207,702; 5891,600;75,59827
1028,15; 4462,400;  221,087; 5849,754;75,35200
1028,69; 4333,631;  174,317; 5712,523;75,10218
1029,24; 4344,631;  207,933; 5681,062;75,58196
1029,78; 4243,477;  205,779; 5514,600;76,05640
1030,33; 4175,092;  177,933; 5433,292;76,05873
1030,87; 4125,785;  206,471; 5377,138;75,79899
1031,42; 4064,246;  194,933; 5281,754;76,06545
1031,96; 4034,938;  212,317; 5252,754;75,83909
1032,51; 3963,246;  199,317; 5121,062;76,47551
1033,05; 3903,169;  208,163; 5095,985;75,59617
1033,60; 3825,400;  174,933; 4951,138;76,43028
1034,14; 3762,400;  199,933; 4910,831;75,62183
1034,69; 3751,938;  199,317; 4856,908;76,27595
1035,23; 3691,631;  204,702; 4754,600;76,63752
1035,77; 3609,862;  196,087; 4713,292;75,57271
1036,32; 3594,246;  180,779; 4606,908;77,12083
1036,86; 3576,323;  198,163; 4560,138;77,44564
1037,41; 3510,938;  204,625; 4497,369;77,02098
1037,95; 3440,938;  183,933; 4440,754;76,51263
1038,50; 3422,400;  196,240; 4361,138;77,46071
1039,04; 3416,323;  203,779; 4342,831;77,61546
1039,58; 3360,015;  192,010; 4257,446;77,92535
1040,13; 3279,015;  201,471; 4193,754;77,08733
1040,67; 3301,862;  223,394; 4184,369;77,71994
1041,21; 3243,938;  228,317; 4080,523;78,28297
1041,76; 3165,785;  176,471; 3987,908;78,43010
1042,30; 3144,477;  210,471; 3959,215;78,26636
1042,85; 3095,708;  207,856; 3900,831;78,19852
1043,39; 3048,708;  190,010; 3855,600;77,98738
1043,93; 3033,169;  217,394; 3807,292;78,43607
1044,48; 2967,400;  205,548; 3721,600;78,54980
1045,02; 2920,092;  202,856; 3640,062;79,05365
1045,56; 2895,323;  210,548; 3624,985;78,63010
1046,11; 2870,323;  210,394; 3580,523;78,92662
1046,65; 2840,092;  208,779; 3510,292;79,70022
1047,19; 2803,400;  198,779; 3490,523;79,12587
1047,74; 2745,246;  182,856; 3377,062;80,21995
1048,28; 2737,323;  210,779; 3371,369;79,93900
1048,82; 2720,477;  222,625; 3358,138;79,66325
1049,37; 2686,092;  205,240; 3283,600;80,59006
1049,91; 2636,938;  197,548; 3233,215;80,35763
1050,45; 2614,477;  228,317; 3187,908;80,62466
1050,99; 2570,708;  207,856; 3150,215;80,30466
1051,54; 2532,400;  196,933; 3088,369;80,77187
1052,08; 2510,708;  215,010; 3068,446;80,45380
1052,62; 2499,169;  221,548; 3029,369;81,11703
1053,16; 2417,092;  192,702; 2968,446;80,13672
1053,71; 2405,015;  215,856; 2966,446;79,58872
1054,25; 2370,092;  223,779; 2873,908;80,98902
1054,79; 2358,323;  211,933; 2868,446;80,79727
1055,33; 2310,708;  183,163; 2789,831;81,61932
1055,88; 2301,554;  227,317; 2766,677;81,68345
1056,42; 2292,400;  234,702; 2757,062;81,57830
1056,96; 2239,323;  221,240; 2686,600;81,85754
1057,50; 2231,477;  201,240; 2655,215;82,73257
1058,05; 2163,785;  212,625; 2609,523;81,40353
1058,59; 2160,092;  228,163; 2575,908;82,28873
1059,13; 2104,631;  196,163; 2525,062;81,94722
1059,67; 2100,862;  229,163; 2516,369;81,83339
1060,21; 2052,246;  218,240; 2436,908;82,66250
1060,76; 2045,938;  221,779; 2449,600;81,88088
1061,30; 2029,554;  232,010; 2417,138;82,26262
1061,84; 1992,015;  211,471; 2366,446;82,62482
1062,38; 1935,323;  205,317; 2303,446;82,45470
1062,92; 1981,938;  243,317; 2308,446;84,18948
1063,46; 1913,708;  229,933; 2273,292;82,40228
1064,01; 1888,785;  208,317; 2224,062;83,36709
1064,55; 1868,554;  217,163; 2196,677;83,42405
1065,09; 1790,477;  186,779; 2143,754;81,94781
1065,63; 1832,862;  232,471; 2184,446;81,98826
1066,17; 1826,400;  234,010; 2139,600;83,56415
1066,71; 1778,708;  230,087; 2103,985;82,64170
1067,25; 1753,938;  212,471; 2065,831;83,17152
1067,80; 1741,708;  233,163; 2048,600;83,09540
1068,34; 1723,246;  237,471; 2032,446;82,77413
1068,88; 1700,862;  213,087; 1969,677;84,69675
1069,42; 1704,938;  248,779; 1996,523;83,31652
1069,96; 1643,169;  218,625; 1934,754;83,00917
1070,50; 1664,246;  245,317; 1943,600;83,55080
1071,04; 1625,554;  212,394; 1893,677;84,05247
1071,58; 1611,477;  221,548; 1860,523;84,80476
1072,12; 1601,938;  212,625; 1832,215;85,78178
1072,66; 1568,323;  211,240; 1815,292;84,60341
1073,21; 1582,015;  230,163; 1807,831;85,68676
1073,75; 1543,092;  223,163; 1779,523;84,80873
1074,29; 1525,785;  230,087; 1780,754;83,55745
1074,83; 1533,554;  228,163; 1753,600;85,57487
1075,37; 1484,708;  226,856; 1738,062;83,23499
1075,91; 1482,785;  233,240; 1720,446;84,01959
1076,45; 1469,631;  229,317; 1687,600;85,05302
1076,99; 1464,246;  222,933; 1658,908;86,44395
1077,53; 1409,400;  207,625; 1627,292;84,65188
1078,07; 1413,323;  232,933; 1623,215;84,90290
1078,61; 1391,554;  223,087; 1604,523;84,58350
1079,15; 1375,938;  220,548; 1579,215;85,03851
1079,69; 1371,554;  234,933; 1567,908;85,26950
1080,23; 1374,015;  232,240; 1558,292;86,10334
1080,77; 1359,631;  252,240; 1545,985;85,59577
1081,31; 1316,092;  217,240; 1499,446;85,70012
1081,85; 1324,631;  233,240; 1493,985;86,56715
1082,39; 1292,400;  221,394; 1457,138;86,66889
1082,93; 1296,092;  216,010; 1457,754;86,98109
1083,47; 1260,246;  207,625; 1426,215;86,38023
1084,01; 1291,015;  236,625; 1434,754;88,00309
1084,55; 1252,554;  216,163; 1398,831;87,63161
1085,09; 1254,323;  227,317; 1404,523;87,24097
1085,63; 1239,092;  219,394; 1375,600;88,19348
1086,17; 1208,938;  213,394; 1342,523;88,16923
1086,71; 1198,862;  214,087; 1332,985;88,01293
1087,24; 1204,323;  237,625; 1357,292;86,33797
1087,78; 1186,169;  235,702; 1310,754;88,41129
1088,32; 1159,554;  221,548; 1278,292;88,76375
1088,86; 1174,708;  241,702; 1305,138;87,73497
1089,40; 1144,554;  226,779; 1282,831;86,90624
1089,94; 1108,708;  193,702; 1241,600;87,31820
1090,48; 1122,938;  233,779; 1250,831;87,42519
1091,02; 1133,092;  229,933; 1228,369;90,45739
1091,56; 1087,708;  238,702; 1222,369;86,31026
1092,10; 1073,169;  207,240; 1176,985;89,29456
1092,63; 1088,862;  235,317; 1194,292;89,00589
1093,17; 1073,246;  223,625; 1183,215;88,53998
1093,71; 1047,938;  211,548; 1152,754;88,86371
1094,25; 1063,477;  246,010; 1158,062;89,62947
1094,79; 1021,323;  223,163; 1139,369;87,11576
1095,33; 1026,938;  229,394; 1123,754;89,17489
1095,87; 1013,323;  223,471; 1094,985;90,62992
1096,40;  982,708;  200,548; 1065,985;90,37747
1096,94;  990,169;  220,087; 1078,908;89,66741
1097,48;  995,554;  224,240; 1080,831;90,04461
1098,02;  954,631;  222,087; 1063,985;87,01104
1098,56;  926,477;  200,548; 1018,908;88,70536
1099,10;  921,015;  202,933; 1023,523;87,50806
1099,63;  931,323;  211,933; 1004,062;90,81734
1100,17;  922,938;  228,471; 1018,985;87,85016
1100,71;  929,400;  240,779; 1003,523;90,28205

