
Integration time [ms]: 115,000
Averaging Nr. [scans]: 13
Smoothing Nr. [pixels]: 0
Data measured with spectrometer [name]: 2009305U1
Wave   ;Sample   ;Dark     ;Reference;Reflectance
[nm]   ;[counts] ;[counts] ;[counts] ;[%]

 175,72;  203,763;  176,239;  192,535;168,90075
 176,32;  214,823;  211,934;  210,654; 0,00000
 176,92;  256,720;  225,163;  228,142;1059,30965
 177,52;  261,612;  252,086;  251,024; 0,00000
 178,12;  231,767;  223,549;  212,736; 0,00000
 178,72;  258,177;  243,857;  232,990; 0,00000
 179,32;  261,024;  236,780;  232,605; 0,00000
 179,92;  254,417;  232,933;  233,930; 0,00000
 180,52;  252,120;  234,084;  244,758;168,97094
 181,12;  245,783;  235,010;  240,995;180,01454
 181,73;  278,607;  253,163;  254,844;1514,00984
 182,33;  341,783;  298,008;  297,582; 0,00000
 182,93;  265,415;  245,240;  250,595;376,72045
 183,53;  235,969;  227,319;  217,483; 0,00000
 184,13;  240,010;  231,011;  221,458; 0,00000
 184,73;  278,663;  249,935;  249,706; 0,00000
 185,33;  268,423;  222,716;  326,527;44,02901
 185,93;  281,193;  214,717;  353,127;48,02782
 186,53;  297,786;  241,332;  365,557;45,44494
 187,13;  319,186;  264,099;  400,362;40,42706
 187,73;  286,367;  220,102;  360,559;47,17798
 188,33;  281,115;  227,718;  355,547;41,77245
 188,93;  295,123;  231,182;  389,767;40,31995
 189,53;  307,038;  240,799;  397,281;42,32979
 190,13;  347,772;  271,649;  418,569;51,81258
 190,73;  302,754;  217,185;  353,690;62,68555
 191,34;  320,880;  254,183;  378,073;53,83593
 191,94;  281,287;  227,565;  351,476;43,35587
 192,54;  305,931;  237,868;  391,072;44,42648
 193,14;  308,405;  248,715;  367,171;50,39007
 193,74;  293,702;  249,561;  377,015;34,63239
 194,34;  281,514;  235,099;  373,562;33,52138
 194,94;  248,824;  206,792;  326,435;35,13122
 195,54;  233,798;  196,177;  306,559;34,08276
 196,14;  269,178;  218,484;  345,393;39,94571
 196,74;  246,459;  211,331;  332,860;28,90453
 197,34;  243,395;  187,252;  341,491;36,39983
 197,94;  259,750;  225,715;  366,581;24,16142
 198,54;  275,995;  217,484;  375,036;37,13759
 199,14;  262,558;  197,636;  374,578;36,69116
 199,74;  249,216;  198,097;  374,544;28,97098
 200,34;  250,514;  186,097;  382,388;32,81687
 200,94;  278,841;  223,637;  423,813;27,57768
 201,54;  259,683;  202,328;  426,059;25,63575
 202,14;  292,814;  211,635;  454,454;33,43200
 202,74;  267,349;  204,328;  459,386;24,70834
 203,34;  271,592;  195,558;  484,506;26,31425
 203,94;  249,643;  163,635;  488,134;26,50474
 204,54;  314,489;  228,869;  576,728;24,61343
 205,14;  282,990;  199,405;  583,682;21,75108
 205,74;  344,815;  218,481;  689,034;26,84797
 206,34;  304,819;  197,405;  695,130;21,58104
 206,94;  327,479;  203,328;  758,320;22,36981
 207,54;  304,260;  180,251;  808,972;19,72398
 208,14;  330,143;  195,097;  884,612;19,58567
 208,74;  348,738;  194,559;  973,216;19,80061
 209,34;  363,976;  193,636; 1035,192;20,24111
 209,94;  390,707;  202,328; 1138,209;20,12853
 210,54;  404,821;  198,866; 1278,087;19,08368
 211,14;  443,776;  209,174; 1387,429;19,91093
 211,73;  450,945;  201,175; 1481,066;19,51495
 212,33;  485,798;  218,791; 1621,615;19,03356
 212,93;  494,730;  196,636; 1687,436;19,99554
 213,53;  471,857;  181,790; 1751,490;18,47916
 214,13;  518,696;  176,403; 1840,494;20,56934
 214,73;  514,199;  178,481; 1882,146;19,70561
 215,33;  502,169;  156,405; 1881,671;20,04118
 215,93;  557,439;  188,327; 2004,541;20,32317
 216,53;  541,769;  142,559; 2120,685;20,18120
 217,13;  638,603;  210,866; 2330,389;20,18082
 217,73;  683,986;  181,250; 2511,243;21,57671
 218,33;  677,165;  162,403; 2717,931;20,14306
 218,93;  768,694;  172,632; 3034,286;20,82926
 219,53;  832,054;  174,942; 3329,667;20,82945
 220,13;  870,889;  151,557; 3630,169;20,67872
 220,73;  972,177;  167,405; 4022,604;20,87498
 221,32; 1054,123;  178,251; 4438,831;20,55756
 221,92; 1153,501;  192,249; 4839,758;20,68316
 222,52; 1231,776;  172,558; 5288,171;20,70560
 223,12; 1296,981;  167,481; 5667,302;20,53703
 223,72; 1402,562;  185,019; 6101,038;20,58044
 224,32; 1467,288;  176,865; 6457,959;20,54455
 224,92; 1515,228;  175,404; 6750,553;20,37709
 225,52; 1603,136;  188,020; 7141,364;20,35160
 226,12; 1653,838;  182,327; 7406,758;20,36854
 226,72; 1667,775;  155,174; 7753,787;19,90628
 227,31; 1711,100;  151,251; 8116,765;19,58253
 227,91; 1808,740;  174,405; 8483,173;19,67000
 228,51; 1864,899;  177,790; 8858,954;19,43414
 229,11; 1903,062;  166,020; 9259,013;19,10308
 229,71; 1935,089;  168,175; 9549,448;18,83448
 230,31; 1991,371;  163,326; 9978,285;18,62509
 230,91; 2035,958;  163,483;10275,130;18,51800
 231,51; 2053,926;  147,173;10535,529;18,35471
 232,10; 2106,071;  152,172;10961,492;18,07605
 232,70; 2109,976;  167,484;11191,562;17,62044
 233,30; 2181,235;  192,789;11484,718;17,60944
 233,90; 2157,406;  163,789;11681,157;17,30966
 234,50; 2136,050;  175,558;11834,788;16,81494
 235,10; 2118,843;  157,404;11945,630;16,63897
 235,70; 2155,360;  192,020;12055,542;16,54938
 236,29; 2126,238;  182,251;12046,002;16,38594
 236,89; 2066,868;  165,022;12027,332;16,03268
 237,49; 2035,270;  177,173;11955,862;15,77507
 238,09; 1981,819;  176,789;11831,592;15,48743
 238,69; 1931,067;  193,099;11562,206;15,28676
 239,29; 1865,529;  168,328;11357,605;15,16811
 239,89; 1791,543;  178,791;11119,277;14,74114
 240,48; 1728,375;  173,635;10750,647;14,69923
 241,08; 1690,188;  163,097;10440,606;14,85857
 241,68; 1630,088;  198,558;10197,575;14,31670
 242,28; 1564,445;  162,404; 9835,559;14,49414
 242,88; 1582,585;  190,480; 9551,769;14,87086
 243,48; 1520,304;  192,250; 9275,819;14,62040
 244,07; 1508,603;  186,482; 9060,382;14,89899
 244,67; 1485,074;  188,943; 8907,392;14,86654
 245,27; 1491,945;  182,329; 8765,066;15,25873
 245,87; 1509,987;  184,096; 8715,012;15,54219
 246,47; 1503,620;  172,329; 8647,318;15,70847
 247,06; 1529,653;  169,097; 8751,863;15,85219
 247,66; 1584,468;  170,943; 8780,591;16,41792
 248,26; 1660,649;  208,559; 8853,410;16,79716
 248,86; 1731,244;  189,559; 9072,867;17,35484
 249,46; 1799,345;  150,789; 9304,178;18,01034
 250,05; 1925,982;  191,405; 9678,021;18,28447
 250,65; 2010,040;  158,636; 9992,771;18,82630
 251,25; 2181,364;  179,713;10456,645;19,47713
 251,85; 2336,761;  182,329;11040,821;19,84098
 252,44; 2501,755;  147,251;11634,425;20,49681
 253,04; 2741,331;  180,559;12375,450;20,99873
 253,64; 2881,259;  144,175;13037,657;21,22843
 254,24; 3217,939;  186,559;13945,362;22,03230
 254,84; 3469,807;  175,712;14824,332;22,48741
 255,43; 3747,639;  178,713;15804,177;22,84045
 256,03; 4035,002;  163,329;16686,096;23,43235
 256,63; 4351,885;  176,868;17730,541;23,78429
 257,23; 4625,384;  165,098;18502,985;24,32279
 257,82; 4966,564;  177,022;19401,582;24,91366
 258,42; 5191,271;  132,484;20180,526;25,23332
 259,02; 5529,566;  174,636;21054,511;25,64637
 259,62; 5777,760;  159,792;21613,506;26,18646
 260,21; 5967,400;  177,328;22121,013;26,38605
 260,81; 6156,215;  170,481;22596,055;26,69155
 261,41; 6286,872;  166,176;22930,924;26,88673
 262,01; 6495,843;  195,023;23398,867;27,15421
 262,60; 6627,769;  161,483;23604,446;27,58306
 263,20; 6766,411;  164,944;23926,742;27,78185
 263,80; 6838,078;  182,562;23990,851;27,95462
 264,40; 6921,902;  145,484;24149,854;28,22993
 264,99; 7016,335;  179,331;24276,797;28,37230
 265,59; 7090,752;  164,255;24468,447;28,49919
 266,19; 7163,736;  164,638;24545,895;28,70688
 266,78; 7235,975;  198,716;24673,094;28,75358
 267,38; 7153,032;  172,332;24624,851;28,54798
 267,98; 7228,598;  158,331;24699,335;28,81002
 268,58; 7232,126;  177,562;24623,983;28,85725
 269,17; 7247,700;  165,332;24587,470;28,99978
 269,77; 7213,715;  182,945;24431,709;28,99435
 270,37; 7135,263;  150,485;24336,935;28,87889
 270,96; 7111,149;  204,253;24220,378;28,75941
 271,56; 7029,825;  167,868;23947,904;28,85596
 272,16; 6981,159;  169,176;23816,919;28,80606
 272,75; 6929,659;  166,561;23679,287;28,76356
 273,35; 6877,153;  173,099;23630,866;28,57925
 273,95; 6853,471;  175,176;23590,407;28,52116
 274,54; 6830,832;  155,251;23590,698;28,48498
 275,14; 6902,208;  180,253;23998,596;28,22176
 275,74; 6882,633;  144,022;24084,606;28,14723
 276,33; 6990,395;  190,099;24442,945;28,03917
 276,93; 7113,805;  175,943;24787,025;28,18999
 277,53; 7180,435;  174,867;25274,354;27,91120
 278,12; 7316,431;  157,252;25742,978;27,98114
 278,72; 7453,585;  194,867;26377,327;27,72359
 279,32; 7594,197;  165,713;26948,301;27,73624
 279,91; 7812,147;  163,021;27660,590;27,81746
 280,51; 7939,028;  173,251;28124,238;27,78355
 281,11; 8177,702;  174,098;28951,875;27,81175
 281,70; 8301,917;  153,098;29289,701;27,96763
 282,30; 8482,825;  159,098;29882,442;28,00400
 282,90; 8601,658;  169,945;30322,371;27,96363
 283,49; 8799,888;  186,099;30893,525;28,05116
 284,09; 8949,310;  190,714;31268,823;28,18253
 284,69; 9130,680;  189,175;31701,186;28,37491
 285,28; 9235,729;  191,867;32001,395;28,43130
 285,88; 9401,531;  199,022;32204,771;28,75267
 286,47; 9388,693;  175,329;32254,866;28,72038
 287,07; 9499,231;  203,944;32349,873;28,91591
 287,67; 9667,227;  190,789;32540,819;29,29345
 288,26; 9652,282;  169,559;32393,038;29,42799
 288,86; 9842,477;  172,175;32475,048;29,93635
 289,46; 9987,924;  170,636;32616,984;30,25699
 290,05;10116,706;  162,251;32659,063;30,63210
 290,65;10290,292;  175,252;32837,768;30,96834
 291,24;10507,264;  189,559;32846,641;31,59408
 291,84;10617,731;  182,406;33108,541;31,69314
 292,44;10805,398;  176,327;33215,378;32,17123
 293,03;11001,081;  230,636;33279,207;32,58974
 293,63;11061,445;  170,022;33558,272;32,62053
 294,22;11327,886;  194,175;33609,771;33,31891
 294,82;11361,188;  181,561;33694,123;33,35951
 295,41;11236,532;  153,944;33405,778;33,32925
 296,01;11285,438;  217,176;33315,366;33,44069
 296,61;11228,423;  179,559;33087,471;33,57510
 297,20;11031,749;  182,638;32727,854;33,33550
 297,80;11063,880;  187,635;32483,187;33,67722
 298,39;10846,684;  163,868;32117,898;33,43183
 298,99;10809,363;  175,638;31987,785;33,42662
 299,58;10667,339;  186,558;31903,194;33,04506
 300,18;10503,051;  207,097;31634,199;32,76139
 300,78;10356,699;  169,405;31248,968;32,77811
 301,37;10196,187;  186,639;31248,200;32,22487
 301,97;10162,095;  182,021;31203,424;32,17158
 302,56;10029,749;  166,099;31192,784;31,79086
 303,16; 9998,131;  155,099;31139,100;31,76811
 303,75; 9856,326;  174,405;31130,312;31,27649
 304,35; 9844,524;  163,635;31375,055;31,01714
 304,94; 9801,227;  180,098;31411,616;30,80583
 305,54; 9666,046;  203,636;31326,908;30,40300
 306,13; 9533,946;  149,173;31256,038;30,16946
 306,73; 9371,154;  165,404;31021,614;29,83435
 307,33; 9325,082;  185,020;31002,479;29,65872
 307,92; 9234,679;  169,944;31026,844;29,37669
 308,52; 9213,939;  165,099;31545,656;28,83582
 309,11; 9307,943;  172,638;31967,983;28,73158
 309,71; 9270,950;  155,177;32273,763;28,38161
 310,30; 9262,026;  157,098;32512,708;28,14018
 310,90; 9281,718;  179,329;32754,785;27,94248
 311,49; 9194,620;  182,559;32933,165;27,51723
 312,09; 9152,342;  142,636;33146,067;27,29930
 312,68; 9184,704;  201,790;33436,875;27,02841
 313,28; 9102,141;  152,559;33623,921;26,73803
 313,87; 8938,633;  150,482;33764,236;26,14451
 314,47; 8972,087;  167,253;34029,596;26,00184
 315,06; 8908,290;  148,405;34111,168;25,79261
 315,66; 8834,650;  158,943;34272,452;25,43188
 316,25; 8676,844;  140,406;34269,797;25,01198
 316,85; 8574,414;  139,559;34269,314;24,71408
 317,44; 8512,703;  158,561;34432,015;24,37496
 318,04; 8413,564;  148,945;34411,623;24,12135
 318,63; 8309,415;  148,712;34462,125;23,78284
 319,22; 8276,296;  174,253;34628,829;23,51515
 319,82; 8107,781;  176,483;34649,175;23,00748
 320,41; 8043,181;  161,945;34655,273;22,84858
 321,01; 7929,509;  171,020;34713,019;22,46103
 321,60; 7872,759;  166,714;34772,521;22,26807
 322,20; 7759,657;  161,405;34695,805;22,00198
 322,79; 7659,397;  191,790;34850,679;21,54601
 323,39; 7604,046;  168,250;34912,111;21,40175
 323,98; 7488,969;  153,251;34916,754;21,10178
 324,58; 7357,815;  157,176;34675,705;20,86021
 325,17; 7252,929;  167,637;34671,884;20,53455
 325,76; 7150,915;  182,867;34580,632;20,25727
 326,36; 6949,420;  147,174;34117,564;20,02404
 326,95; 6871,489;  174,406;33836,427;19,89507
 327,55; 6735,448;  161,560;33520,110;19,70676
 328,14; 6596,729;  160,558;33117,059;19,52929
 328,74; 6416,014;  193,637;32732,125;19,12313
 329,33; 6310,471;  182,328;32375,960;19,03527
 329,92; 6135,844;  159,869;31801,790;18,88626
 330,52; 5984,567;  177,097;31099,937;18,78052
 331,11; 5840,481;  174,790;30776,263;18,51444
 331,71; 5709,762;  171,560;30201,743;18,44212
 332,30; 5577,073;  186,406;29712,539;18,25728
 332,89; 5503,527;  194,867;29225,340;18,28651
 333,49; 5303,058;  191,483;28574,245;18,00943
 334,08; 5215,572;  176,252;28174,984;17,99839
 334,68; 5073,277;  178,944;27803,132;17,71756
 335,27; 4978,591;  189,097;27452,276;17,56763
 335,86; 4937,097;  198,252;27217,493;17,53878
 336,46; 4854,723;  178,404;26985,698;17,44420
 337,05; 4770,191;  173,175;26844,625;17,23572
 337,65; 4713,999;  154,252;26679,950;17,18992
 338,24; 4770,956;  213,636;26662,991;17,23036
 338,83; 4719,674;  192,482;26559,364;17,16999
 339,43; 4651,976;  167,791;26490,296;17,03556
 340,02; 4622,498;  173,945;26460,814;16,92310
 340,61; 4639,183;  160,482;26450,042;17,03604
 341,21; 4624,552;  202,099;26525,356;16,80056
 341,80; 4592,204;  167,483;26395,347;16,87031
 342,40; 4628,823;  184,866;26520,310;16,87443
 342,99; 4613,912;  176,482;26590,724;16,79938
 343,58; 4652,856;  171,251;26799,037;16,83056
 344,18; 4704,936;  187,789;26927,678;16,89292
 344,77; 4707,332;  173,791;27249,512;16,74393
 345,36; 4778,336;  152,944;27536,350;16,89122
 345,96; 4877,839;  186,790;27873,058;16,94359
 346,55; 4927,793;  159,250;28092,072;17,07147
 347,14; 4996,605;  148,712;28451,228;17,12884
 347,74; 5071,108;  134,941;28878,440;17,17316
 348,33; 5230,942;  176,788;29514,865;17,22729
 348,92; 5368,459;  182,864;30117,098;17,32329
 349,52; 5461,820;  153,249;30612,640;17,42836
 350,11; 5564,174;  164,330;30817,101;17,61617
 350,70; 5604,555;  157,636;30903,586;17,71589
 351,29; 5600,530;  151,793;30588,226;17,90202
 351,89; 5669,221;  176,946;30619,087;18,04168
 352,48; 5689,465;  148,098;30627,899;18,18046
 353,07; 5723,309;  171,481;30594,341;18,24887
 353,67; 5743,724;  187,941;30615,020;18,25934
 354,26; 5743,634;  177,943;30339,046;18,45321
 354,85; 5747,965;  180,097;30180,462;18,55934
 355,45; 5737,295;  150,483;29943,606;18,75202
 356,04; 5775,466;  171,712;29893,214;18,85421
 356,63; 5807,699;  194,637;29646,157;19,05865
 357,22; 5816,558;  182,254;29531,018;19,19775
 357,82; 5840,393;  179,254;29412,827;19,36520
 358,41; 5927,215;  183,944;29233,775;19,77041
 359,00; 5857,083;  171,253;29083,346;19,66592
 359,60; 5952,388;  179,559;28951,480;20,06411
 360,19; 5954,743;  167,250;28796,361;20,21541
 360,78; 5963,170;  182,868;28621,698;20,32539
 361,37; 5981,289;  175,637;28351,280;20,60522
 361,97; 6011,010;  177,175;28360,722;20,69944
 362,56; 6060,563;  174,560;28008,778;21,14664
 363,15; 6095,824;  188,252;27715,330;21,46095
 363,74; 6063,621;  173,022;27391,996;21,64152
 364,34; 6029,780;  206,022;27028,560;21,71218
 364,93; 5999,730;  157,484;26611,191;22,08479
 365,52; 5955,404;  145,329;26230,570;22,27342
 366,11; 5993,343;  169,791;26013,164;22,53403
 366,71; 5924,912;  156,791;25573,444;22,69426
 367,30; 5916,045;  165,790;25173,251;22,99416
 367,89; 5944,278;  201,328;25014,215;23,14503
 368,48; 5946,398;  179,561;24687,391;23,53059
 369,07; 5861,555;  181,713;24293,278;23,55650
 369,67; 5890,090;  185,253;23969,510;23,98577
 370,26; 5857,717;  173,867;23750,288;24,10820
 370,85; 5848,144;  174,252;23419,906;24,40840
 371,44; 5837,369;  171,867;23200,195;24,60232
 372,03; 5821,886;  156,637;23001,687;24,79859
 372,63; 5859,716;  153,483;22621,750;25,39685
 373,22; 5849,457;  163,713;22383,812;25,58829
 373,81; 5793,806;  151,098;22159,856;25,63847
 374,40; 5790,221;  157,866;21872,493;25,93807
 374,99; 5768,675;  160,945;21559,161;26,20653
 375,59; 5713,525;  159,635;21256,928;26,32513
 376,18; 5805,559;  193,021;21188,836;26,73170
 376,77; 5783,035;  175,021;21031,787;26,88823
 377,36; 5850,054;  193,098;20976,834;27,21819
 377,95; 5823,381;  179,791;20672,301;27,53977
 378,55; 5812,509;  157,790;20490,712;27,81066
 379,14; 5862,255;  164,637;20451,554;28,08519
 379,73; 5882,543;  170,483;20337,542;28,32372
 380,32; 5964,040;  182,867;20328,079;28,69750
 380,91; 5922,958;  165,330;20225,703;28,70150
 381,50; 5992,529;  181,637;20174,360;29,06503
 382,10; 6012,040;  159,406;20028,463;29,45602
 382,69; 6041,781;  155,867;20054,252;29,57985
 383,28; 6083,759;  188,560;19963,864;29,81091
 383,87; 6092,084;  162,483;19820,765;30,16337
 384,46; 6140,047;  171,330;19805,502;30,39963
 385,05; 6180,037;  193,637;19811,772;30,51462
 385,64; 6227,805;  161,022;19779,703;30,92350
 386,24; 6216,115;  152,869;19726,184;30,97711
 386,83; 6299,625;  186,100;19814,477;31,14636
 387,42; 6415,890;  190,791;19853,559;31,65932
 388,01; 6532,758;  179,178;20058,696;31,96044
 388,60; 6659,383;  176,792;20297,747;32,21811
 389,19; 6749,094;  154,948;20529,242;32,36503
 389,78; 6862,939;  164,025;20730,327;32,57228
 390,37; 7148,849;  214,023;21178,997;33,07815
 390,96; 7210,214;  178,869;21297,684;33,29422
 391,56; 7316,725;  167,794;21560,725;33,41725
 392,15; 7401,929;  162,409;21779,017;33,49054
 392,74; 7528,383;  146,796;21899,600;33,93396
 393,33; 7696,482;  160,256;22240,842;34,13055
 393,92; 7880,537;  189,258;22676,131;34,20342
 394,51; 7997,580;  156,641;22812,881;34,60830
 395,10; 8159,512;  185,414;23107,394;34,78800
 395,69; 8229,579;  170,491;23158,895;35,05719
 396,28; 8314,705;  189,338;23332,404;35,10930
 396,87; 8390,380;  194,724;23432,642;35,26846
 397,46; 8507,726;  190,495;23517,345;35,65518
 398,06; 8650,851;  193,035;23739,316;35,91997
 398,65; 8725,259;  179,116;23844,242;36,11282
 399,24; 8846,379;  198,885;23967,663;36,38174
 399,83; 8912,859;  178,276;24015,052;36,64331
 400,42; 9010,737;  206,819;24111,631;36,82906
 401,01; 9116,820;  178,902;24228,445;37,16461
 401,60; 9134,498;  192,679;24332,471;37,04182
 402,19; 9238,866;  205,069;24190,939;37,66299
 402,78; 9264,337;  220,079;24243,290;37,64800
 403,37; 9241,407;  191,857;24115,970;37,82606
 403,96; 9247,564;  198,098;23946,219;38,10603
 404,55; 9299,186;  217,956;23899,444;38,34738
 405,14; 9274,912;  193,043;23795,008;38,47929
 405,73; 9254,150;  217,671;23725,380;38,44049
 406,32; 9265,515;  206,526;23561,569;38,78815
 406,91; 9238,385;  210,305;23314,445;39,07560
 407,50; 9228,818;  205,002;23171,463;39,29128
 408,09; 9131,221;  180,775;22856,755;39,47104
 408,68; 9156,340;  195,469;22701,974;39,81458
 409,27; 9123,067;  181,543;22490,301;40,08078
 409,86; 9142,305;  200,459;22332,914;40,40151
 410,45; 9166,816;  221,452;22309,180;40,49925
 411,04; 9204,137;  237,138;22209,224;40,81087
 411,63; 9174,515;  220,591;21988,858;41,13292
 412,22; 9106,978;  214,430;21730,760;41,32930
 412,81; 9033,820;  231,119;21497,028;41,39349
 413,40; 8943,268;  243,270;21230,105;41,45455
 413,99; 8853,882;  264,040;20862,371;41,70164
 414,58; 8703,454;  218,885;20502,643;41,82937
 415,17; 8611,017;  213,504;20236,995;41,93830
 415,76; 8633,784;  211,661;20083,093;42,38307
 416,35; 8563,005;  202,582;19885,448;42,47564
 416,94; 8614,899;  227,660;19944,733;42,53795
 417,53; 8732,618;  216,196;20239,624;42,53229
 418,12; 8779,344;  202,580;20197,357;42,89502
 418,71; 9003,071;  227,423;20602,642;43,07020
 419,30; 9066,278;  222,272;20658,743;43,27560
 419,89; 9201,031;  215,887;20802,499;43,64557
 420,48; 9323,605;  237,500;21190,043;43,36516
 421,07; 9430,883;  223,807;21238,266;43,81305
 421,66; 9450,492;  202,883;21206,647;44,02834
 422,25; 9503,478;  215,649;21214,032;44,23116
 422,84; 9533,243;  237,110;21188,859;44,36924
 423,43; 9414,272;  219,265;20942,013;44,37156
 424,02; 9388,935;  235,495;20698,929;44,73072
 424,60; 9205,485;  202,184;20264,036;44,87771
 425,19; 9093,817;  225,647;19981,318;44,88924
 425,78; 9079,654;  240,186;19843,777;45,09106
 426,37; 9028,316;  231,338;19769,546;45,02449
 426,96; 9091,589;  230,723;19718,898;45,46791
 427,55; 9005,465;  219,644;19471,388;45,63650
 428,14; 8925,703;  199,181;19239,909;45,83082
 428,73; 8897,060;  223,337;19054,915;46,05946
 429,32; 8906,296;  235,569;19064,192;46,05078
 429,91; 8950,401;  249,875;19101,452;46,15278
 430,50; 8905,527;  233,797;18979,059;46,26091
 431,08; 8876,824;  250,181;18810,337;46,47937
 431,67; 8848,852;  286,872;18736,709;46,40680
 432,26; 8810,149;  296,102;18505,252;46,75697
 432,85; 8672,048;  317,487;18251,641;46,58464
 433,44; 8539,839;  312,255;17822,772;46,98653
 434,03; 8401,335;  342,022;17493,588;46,98879
 434,62; 8188,517;  310,101;17052,050;47,05794
 435,21; 8135,227;  324,333;16875,056;47,19367
 435,79; 8046,271;  309,330;16672,652;47,28221
 436,38; 8062,251;  310,098;16641,354;47,46820
 436,97; 7994,818;  303,867;16541,488;47,36501
 437,56; 7897,971;  308,941;16361,629;47,27576
 438,15; 7875,539;  281,634;16266,517;47,50679
 438,74; 7944,657;  298,403;16225,568;48,00763
 439,33; 7942,459;  270,711;16224,567;48,08711
 439,91; 7956,746;  236,479;16286,150;48,10233
 440,50; 8052,668;  281,940;16358,193;48,33669
 441,09; 8148,299;  277,400;16474,920;48,59323
 441,68; 8104,660;  268,783;16482,630;48,32830
 442,27; 8108,302;  251,784;16450,381;48,50122
 442,86; 8119,749;  225,473;16453,996;48,64445
 443,44; 8208,301;  238,474;16492,368;49,03334
 444,03; 8278,433;  276,165;16575,720;49,09501
 444,62; 8160,711;  243,934;16483,748;48,74918
 445,21; 8150,303;  252,935;16239,017;49,40152
 445,80; 8124,244;  274,241;16102,317;49,59543
 446,39; 8025,148;  267,549;15872,612;49,71206
 446,97; 7885,442;  231,777;15720,563;49,41423
 447,56; 7779,098;  244,006;15533,741;49,28203
 448,15; 7721,908;  247,008;15307,778;49,63159
 448,74; 7626,851;  263,008;15159,363;49,43386
 449,33; 7563,843;  248,776;14945,360;49,77393
 449,91; 7446,588;  254,928;14774,924;49,52935
 450,50; 7383,898;  236,390;14478,335;50,18632
 451,09; 7280,546;  256,313;14425,761;49,57309
 451,68; 7282,110;  277,004;14318,526;49,88851
 452,26; 7254,066;  263,157;14241,378;50,01286
 452,85; 7199,253;  255,004;14109,720;50,12192
 453,44; 7203,442;  259,540;14159,732;49,95544
 454,03; 7177,490;  235,926;14076,130;50,15507
 454,61; 7149,650;  233,540;14042,889;50,08281
 455,20; 7276,974;  268,000;14246,302;50,14181
 455,79; 7302,642;  265,310;14214,221;50,45076
 456,38; 7363,739;  270,768;14284,751;50,61352
 456,97; 7383,053;  247,461;14415,070;50,36554
 457,55; 7377,794;  258,460;14453,369;50,15414
 458,14; 7394,188;  278,461;14357,288;50,54204
 458,73; 7379,233;  266,075;14319,680;50,61447
 459,31; 7414,455;  297,766;14339,496;50,68242
 459,90; 7479,007;  292,844;14420,902;50,86448
 460,49; 7543,698;  307,613;14465,441;51,11013
 461,08; 7560,343;  260,227;14540,470;51,12039
 461,66; 7606,848;  269,074;14705,695;50,82751
 462,25; 7682,394;  274,765;14768,951;51,10759
 462,84; 7720,782;  305,611;14861,627;50,94231
 463,43; 7709,071;  225,532;14723,671;51,61724
 464,01; 7703,409;  279,839;14804,958;51,10849
 464,60; 7717,853;  298,840;14660,777;51,65746
 465,19; 7598,060;  251,377;14529,914;51,45263
 465,77; 7538,554;  260,222;14500,613;51,11048
 466,36; 7527,717;  279,763;14398,720;51,33491
 466,95; 7404,630;  265,378;14036,410;51,84253
 467,53; 7246,728;  272,683;13795,128;51,57384
 468,12; 7143,714;  290,914;13525,142;51,78088
 468,71; 7016,635;  276,146;13288,632;51,80017
 469,29; 6822,763;  252,144;13019,777;51,46310
 469,88; 6672,785;  266,682;12782,208;51,18525
 470,47; 6771,267;  320,834;12886,030;51,33571
 471,06; 6672,442;  276,142;12797,112;51,08470
 471,64; 6782,479;  281,373;12903,787;51,50445
 472,23; 6721,918;  258,832;12969,427;50,84802
 472,81; 6807,089;  250,218;13064,664;51,16781
 473,40; 6864,849;  267,986;13177,668;51,10012
 473,99; 7024,371;  325,986;13397,075;51,24581
 474,57; 7014,213;  254,986;13550,202;50,83954
 475,16; 7121,882;  283,448;13690,353;51,00681
 475,75; 7217,185;  295,985;13791,964;51,28342
 476,33; 7304,810;  299,676;13939,246;51,35891
 476,92; 7258,848;  296,909;13952,599;50,98196
 477,51; 7338,044;  286,599;14029,615;51,30930
 478,09; 7361,164;  291,061;14052,274;51,37703
 478,68; 7337,276;  288,830;13928,922;51,67448
 479,27; 7345,484;  315,215;13986,380;51,42406
 479,85; 7323,747;  281,368;14001,583;51,32849
 480,44; 7353,307;  273,522;14138,587;51,06204
 481,02; 7792,737;  282,521;15426,629;49,59167
 481,61; 8859,530;  309,060;17352,003;50,17015
 482,20; 9618,733;  303,136;18588,261;50,94631
 482,78;10118,565;  327,291;19488,567;51,09928
 483,37;10404,095;  316,827;20006,159;51,23215
 483,95;10638,272;  356,750;20350,617;51,42338
 484,54;10765,784;  359,752;20511,076;51,63944
 485,13;10700,299;  329,671;20410,228;51,64512
 485,71;10641,494;  302,980;20145,964;52,10161
 486,30;10499,690;  341,672;19971,854;51,74694
 486,88;10306,479;  363,133;19615,481;51,64744
 487,47; 9999,113;  358,133;18959,263;51,83008
 488,05; 9582,088;  344,363;18134,778;51,92529
 488,64; 8956,389;  339,054;16811,390;52,31398
 489,23; 8112,065;  352,516;14894,823;53,35844
 489,81; 6764,375;  354,516;12523,088;52,67552
 490,40; 6297,160;  311,362;12084,382;50,84335
 490,98; 6157,097;  294,285;11786,145;51,01708
 491,57; 6093,338;  322,670;11696,679;50,73556
 492,15; 6033,933;  314,284;11626,681;50,56089
 492,74; 6007,690;  303,671;11589,364;50,54204
 493,32; 5933,371;  323,746;11405,223;50,62163
 493,91; 5888,429;  305,899;11349,295;50,55085
 494,50; 5897,510;  311,051;11349,412;50,60950
 495,08; 5824,631;  304,359;11235,952;50,49833
 495,67; 5824,990;  308,438;11276,291;50,29747
 496,25; 5722,628;  267,591;11130,337;50,21785
 496,84; 5709,525;  273,130;11090,265;50,25725
 497,42; 5733,177;  262,283;11081,382;50,56701
 498,01; 5694,861;  305,745;11021,784;50,29019
 498,59; 5632,231;  249,744;10959,769;50,25653
 499,18; 5611,198;  256,822;10895,491;50,32938
 499,76; 5620,008;  280,821;10812,815;50,69493
 500,35; 5476,460;  273,281;10641,169;50,18552
 500,93; 5467,464;  269,283;10586,762;50,38228
 501,52; 5388,313;  269,129;10561,138;49,73940
 502,10; 5417,156;  269,281;10522,895;50,20547
 502,69; 5349,604;  257,664;10354,216;50,43247
 503,27; 5262,685;  241,974;10217,186;50,33188
 503,86; 5188,166;  252,357;10114,555;50,04776
 504,44; 5122,957;  248,126; 9977,524;50,10413
 505,03; 4982,910;  236,126; 9776,266;49,75591
 505,61; 4981,685;  234,587; 9670,473;50,30898
 506,19; 4861,487;  258,741; 9510,975;49,74740
 506,78; 4780,494;  232,201; 9342,308;49,92579
 507,36; 4697,970;  251,357; 9198,553;49,69840
 507,95; 4608,533;  249,200; 9012,486;49,74541
 508,53; 4509,392;  237,432; 8924,396;49,17667
 509,12; 4445,163;  251,893; 8795,088;49,08315
 509,70; 4350,194;  266,893; 8635,864;48,79096
 510,29; 4302,301;  269,046; 8478,690;49,12826
 510,87; 4156,409;  246,278; 8300,528;48,54742
 511,46; 4085,753;  238,893; 8133,519;48,72758
 512,04; 4011,838;  251,739; 8027,537;48,35645
 512,62; 3910,181;  261,201; 7826,255;48,23468
 513,21; 3821,706;  226,892; 7660,771;48,35718
 513,79; 3730,799;  247,505; 7539,352;47,76970
 514,38; 3657,838;  220,121; 7422,747;47,72866
 514,96; 3654,779;  269,198; 7272,221;48,34456
 515,54; 3549,361;  235,275; 7141,110;47,98965
 516,13; 3467,356;  245,890; 7050,707;47,34096
 516,71; 3444,311;  241,043; 6959,294;47,68009
 517,30; 3364,297;  229,503; 6837,273;47,44103
 517,88; 3317,336;  267,965; 6727,598;47,20658
 518,46; 3246,513;  242,042; 6618,405;47,11889
 519,05; 3240,859;  243,502; 6611,738;47,06731
 519,63; 3181,165;  246,657; 6519,242;46,78307
 520,22; 3152,754;  255,040; 6497,730;46,41772
 520,80; 3093,322;  248,117; 6421,821;46,08586
 521,38; 3107,551;  268,887; 6400,395;46,29634
 521,97; 3040,899;  242,808; 6313,231;46,09384
 522,55; 3056,578;  246,424; 6330,852;46,18601
 523,13; 2983,327;  245,115; 6330,274;44,99820
 523,72; 2973,398;  250,042; 6341,500;44,70779
 524,30; 3053,695;  267,038; 6426,183;45,24422
 524,89; 3022,543;  235,424; 6457,553;44,79366
 525,47; 3102,227;  260,884; 6580,669;44,95950
 526,05; 3119,560;  231,807; 6653,853;44,96624
 526,64; 3158,215;  261,729; 6791,024;44,36139
 527,22; 3245,540;  258,730; 6912,114;44,89158
 527,80; 3286,857;  288,268; 7069,509;44,21888
 528,39; 3300,358;  247,883; 7137,337;44,30648
 528,97; 3374,825;  246,498; 7315,159;44,25629
 529,55; 3444,541;  260,269; 7491,834;44,03295
 530,14; 3537,018;  273,113; 7702,184;43,93422
 530,72; 3590,329;  251,575; 7838,357;44,00751
 531,30; 3629,277;  240,036; 7989,199;43,73687
 531,89; 3677,064;  243,190; 8050,408;43,98332
 532,47; 3716,557;  285,882; 8190,645;43,40010
 533,05; 3770,814;  279,729; 8224,927;43,93956
 533,63; 3754,364;  283,036; 8315,978;43,21366
 534,22; 3774,069;  247,112; 8335,203;43,60679
 534,80; 3771,866;  282,496; 8383,421;43,07372
 535,38; 3874,396;  322,728; 8514,977;43,35400
 535,97; 3741,890;  267,574; 8442,864;42,49777
 536,55; 3759,002;  320,111; 8548,254;41,79425
 537,13; 3725,150;  322,421; 8519,376;41,51211
 537,71; 3716,582;  358,113; 8528,284;41,10647
 538,30; 3741,746;  391,112; 8628,489;40,67598
 538,88; 3754,783;  413,957; 8708,948;40,27523
 539,46; 3828,238;  468,419; 8881,888;39,93381
 540,05; 3851,350;  494,572; 9035,502;39,30224
 540,63; 3899,866;  539,957; 9221,694;38,70089
 541,21; 3967,820;  559,956; 9425,554;38,43918
 541,79; 4001,068;  613,880; 9464,225;38,27182
 542,38; 4047,474;  647,034; 9646,872;37,78335
 542,96; 4111,733;  650,879; 9875,132;37,51908
 543,54; 4184,282;  672,418;10064,358;37,39232
 544,12; 4209,229;  649,726;10209,816;37,23295
 544,70; 4244,246;  620,648;10311,340;37,39256
 545,29; 4285,624;  633,034;10483,042;37,08210
 545,87; 4300,683;  591,187;10508,609;37,40383
 546,45; 4282,359;  556,880;10509,428;37,43242
 547,03; 4313,694;  543,803;10615,416;37,43085
 547,62; 4333,392;  517,187;10722,861;37,39297
 548,20; 4400,350;  496,571;10954,705;37,32768
 548,78; 4441,170;  484,261;11066,773;37,39102
 549,36; 4470,795;  440,954;11265,314;37,22937
 549,94; 4493,065;  398,725;11431,506;37,11068
 550,53; 4583,161;  407,108;11651,379;37,13938
 551,11; 4606,428;  379,876;11893,334;36,70967
 551,69; 4728,710;  379,185;12188,919;36,83000
 552,27; 4794,664;  341,493;12518,730;36,56963
 552,85; 4916,001;  359,261;12838,290;36,51518
 553,44; 5008,638;  341,185;13136,057;36,47909
 554,02; 5155,965;  358,108;13552,069;36,36404
 554,60; 5248,428;  302,184;13924,530;36,30978
 555,18; 5422,274;  330,108;14285,984;36,48761
 555,76; 5483,533;  313,031;14653,965;36,05415
 556,34; 5658,316;  316,491;15063,889;36,22215
 556,93; 5705,573;  307,108;15518,555;35,48949
 557,51; 5839,726;  296,645;15921,031;35,47711
 558,09; 6024,868;  319,185;16333,868;35,62782
 558,67; 6119,970;  311,413;16709,683;35,42176
 559,25; 6182,724;  326,029;16958,808;35,21177
 559,83; 6247,552;  304,874;17274,264;35,01998
 560,41; 6354,394;  295,184;17674,496;34,86450
 561,00; 6455,953;  305,644;18096,935;34,56921
 561,58; 6486,711;  305,184;18289,541;34,37169
 562,16; 6561,518;  291,107;18681,944;34,09530
 562,74; 6648,593;  274,415;18983,448;34,07005
 563,32; 6717,509;  278,182;19485,836;33,52480
 563,90; 6864,615;  298,721;19802,655;33,66446
 564,48; 6977,088;  310,107;20232,719;33,46439
 565,06; 7138,616;  290,644;20847,997;33,31154
 565,65; 7332,661;  295,797;21561,697;33,08990
 566,23; 7482,734;  353,644;22263,545;32,53821
 566,81; 7725,836;  290,106;23073,534;32,63657
 567,39; 7934,615;  312,413;23938,355;32,26200
 567,97; 8111,967;  317,798;24662,383;32,01603
 568,55; 8354,117;  312,721;25479,749;31,95211
 569,13; 8521,375;  300,875;26194,226;31,74753
 569,71; 8726,322;  298,800;27067,131;31,48318
 570,29; 9061,962;  340,646;28119,847;31,39513
 570,87; 9201,130;  332,800;28927,721;31,01366
 571,45; 9361,269;  317,644;29623,518;30,85943
 572,03; 9432,895;  271,182;30086,374;30,72834
 572,61; 9611,660;  278,567;30750,810;30,62818
 573,20; 9734,273;  313,876;31410,734;30,29373
 573,78; 9904,309;  300,336;32121,501;30,18108
 574,36;10011,819;  303,490;32588,059;30,07111
 574,94;10121,407;  350,028;33005,086;29,92302
 575,52;10066,198;  322,257;33348,789;29,50337
 576,10;10207,740;  372,181;33880,697;29,35242
 576,68;10239,806;  356,028;34410,072;29,02380
 577,26;10455,237;  376,718;35120,617;29,00802
 577,84;10549,899;  374,259;35593,008;28,89268
 578,42;10592,024;  397,797;35937,350;28,68417
 579,00;10538,185;  367,336;36182,319;28,39831
 579,58;10507,018;  394,951;36359,717;28,11659
 580,16;10490,831;  386,258;36427,299;28,03630
 580,74;10519,326;  393,027;36698,605;27,89185
 581,32;10419,675;  385,489;36651,418;27,66835
 581,90;10349,989;  404,104;36725,667;27,38287
 582,48;10329,245;  394,796;36916,348;27,20161
 583,06;10313,996;  408,489;37079,755;27,01163
 583,64;10277,116;  407,412;37182,141;26,83828
 584,22;10187,859;  409,103;37027,671;26,70436
 584,80;10099,357;  424,950;36779,108;26,61156
 585,38; 9920,201;  430,491;36407,829;26,37691
 585,96; 9771,145;  400,028;36551,729;25,92165
 586,54; 9786,134;  417,411;36518,706;25,95121
 587,12; 9755,654;  384,873;36836,575;25,70739
 587,70; 9731,794;  411,336;36953,343;25,50615
 588,28; 9691,534;  398,335;36934,070;25,43592
 588,86; 9658,639;  411,411;37158,665;25,16441
 589,44; 9606,823;  381,487;37279,918;25,00197
 590,02; 9605,513;  378,718;37582,345;24,80080
 590,59; 9640,830;  354,488;37776,921;24,81491
 591,17; 9643,161;  357,101;37987,247;24,67718
 591,75; 9596,311;  359,025;38145,675;24,44590
 592,33; 9597,420;  371,871;38350,828;24,29121
 592,91; 9596,141;  326,101;38632,465;24,19974
 593,49; 9602,907;  333,947;38951,446;24,00197
 594,07; 9603,296;  341,716;39104,046;23,89325
 594,65; 9541,488;  357,642;39206,546;23,63991
 595,23; 9613,304;  347,718;39593,384;23,60920
 595,81; 9570,524;  350,795;39779,116;23,38352
 596,39; 9588,806;  349,871;39885,016;23,36892
 596,97; 9607,774;  337,178;40222,828;23,24294
 597,55; 9468,862;  327,026;39995,585;23,04554
 598,12; 9387,204;  316,254;40014,409;22,84980
 598,70; 9293,204;  316,870;40175,248;22,52057
 599,28; 9352,140;  339,024;40342,396;22,53089
 599,86; 9257,213;  330,793;40394,678;22,28047
 600,44; 9181,630;  300,024;40641,146;22,01626
 601,02; 9227,923;  350,099;40599,747;22,05690
 601,60; 9107,768;  330,640;40572,383;21,81100
 602,18; 9038,307;  303,946;40581,663;21,68534
 602,75; 9002,183;  305,564;40725,348;21,51575
 603,33; 8952,661;  325,947;40729,418;21,35142
 603,91; 8880,089;  316,792;40636,776;21,23834
 604,49; 8853,930;  325,639;40757,478;21,09301
 605,07; 8731,423;  334,871;40728,554;20,78679
 605,65; 8720,872;  344,485;40791,105;20,70973
 606,23; 8701,327;  405,950;41039,681;20,41500
 606,80; 8659,893;  452,256;41005,480;20,23917
 607,38; 8606,300;  493,638;41150,422;19,95402
 607,96; 8600,589;  546,795;41168,080;19,82654
 608,54; 8550,120;  594,101;41174,853;19,60540
 609,12; 8459,675;  616,641;41306,552;19,27513
 609,70; 8440,590;  644,793;41355,437;19,14928
 610,27; 8406,206;  652,641;41359,499;19,04732
 610,85; 8445,983;  660,024;41483,712;19,07216
 611,43; 8313,482;  677,178;41433,814;18,73635
 612,01; 8204,210;  640,871;41210,798;18,64272
 612,59; 8196,406;  630,947;41220,233;18,63905
 613,16; 8118,072;  606,026;41152,539;18,52698
 613,74; 8035,751;  579,024;41015,412;18,44064
 614,32; 8000,898;  540,408;41101,402;18,39326
 614,90; 7949,947;  490,178;40918,799;18,45170
 615,48; 7808,661;  452,487;40464,096;18,38510
 616,05; 7801,569;  410,180;40483,222;18,44479
 616,63; 7709,785;  401,104;40318,655;18,30944
 617,21; 7709,637;  399,718;40241,373;18,34743
 617,79; 7615,233;  387,333;40174,829;18,16626
 618,36; 7516,055;  397,486;40006,763;17,97197
 618,94; 7417,553;  336,410;39753,397;17,96470
 619,52; 7391,028;  365,642;39521,153;17,94227
 620,10; 7326,439;  354,487;39388,721;17,86112
 620,67; 7228,644;  361,873;39318,419;17,62675
 621,25; 7210,815;  372,409;39167,334;17,62706
 621,83; 7156,968;  354,641;39084,754;17,56340
 622,41; 7167,592;  391,026;38977,184;17,56217
 622,98; 7075,636;  364,642;38686,562;17,51215
 623,56; 6993,179;  365,181;38813,734;17,23862
 624,14; 6927,339;  355,409;38569,159;17,19781
 624,72; 6914,771;  341,718;38523,095;17,21534
 625,29; 6875,115;  316,104;38657,806;17,10673
 625,87; 6900,062;  360,641;38546,774;17,12512
 626,45; 6775,360;  314,873;38389,177;16,96810
 627,02; 6722,450;  335,256;38401,416;16,77919
 627,60; 6668,403;  309,331;38247,745;16,76157
 628,18; 6610,675;  300,795;38407,398;16,55849
 628,76; 6545,746;  310,488;38347,407;16,39265
 629,33; 6577,854;  323,334;38402,917;16,42487
 629,91; 6533,670;  314,718;38329,260;16,35940
 630,49; 6582,573;  344,488;38490,667;16,35311
 631,06; 6524,194;  329,411;38713,378;16,13899
 631,64; 6526,317;  330,488;38659,022;16,16505
 632,22; 6504,397;  289,335;38498,083;16,26607
 632,79; 6535,102;  314,489;38859,231;16,13868
 633,37; 6533,235;  297,563;38933,633;16,13951
 633,95; 6498,459;  304,873;39003,600;16,00462
 634,52; 6579,006;  282,103;39130,617;16,20887
 635,10; 6554,055;  293,872;39129,679;16,11962
 635,68; 6532,042;  298,643;39388,902;15,94617
 636,25; 6552,077;  287,567;39270,081;16,07005
 636,83; 6552,900;  278,027;39558,253;15,97464
 637,41; 6559,146;  282,258;39529,959;15,99301
 637,98; 6592,095;  311,182;39727,598;15,93477
 638,56; 6624,002;  313,182;39916,997;15,93488
 639,13; 6619,290;  288,334;39909,502;15,97872
 639,71; 6688,036;  304,950;40113,548;16,03444
 640,29; 6554,595;  256,796;39925,736;15,87590
 640,86; 6598,230;  264,949;40184,562;15,86509
 641,44; 6566,789;  279,949;40078,388;15,79670
 642,02; 6600,270;  299,488;40090,906;15,83453
 642,59; 6584,906;  274,949;40214,885;15,79861
 643,17; 6587,310;  281,334;40217,711;15,79006
 643,74; 6575,253;  280,180;40277,075;15,73890
 644,32; 6551,273;  297,872;40159,824;15,68764
 644,89; 6506,985;  294,641;40232,803;15,55491
 645,47; 6586,236;  303,641;40301,321;15,70740
 646,05; 6503,948;  290,411;40214,993;15,56319
 646,62; 6496,891;  289,641;40043,972;15,61402
 647,20; 6513,834;  289,718;40272,721;15,56691
 647,77; 6467,624;  265,487;40089,931;15,57369
 648,35; 6450,567;  256,026;40063,757;15,56115
 648,92; 6463,356;  298,949;40061,506;15,50304
 649,50; 6439,837;  255,026;40072,947;15,53273
 650,08; 6407,703;  261,410;39830,003;15,53326
 650,65; 6472,569;  262,333;40126,983;15,57830
 651,23; 6518,666;  243,564;40781,193;15,47970
 651,80; 6689,225;  258,179;41812,942;15,47607
 652,38; 6766,475;  261,872;42203,383;15,50875
 652,95; 6773,957;  233,256;42419,747;15,50425
 653,53; 6865,592;  276,564;42711,496;15,52737
 654,10; 6949,920;  289,718;42850,937;15,64852
 654,68; 6869,478;  250,641;42834,224;15,54317
 655,25; 6912,344;  264,872;42856,280;15,60754
 655,83; 6952,057;  245,179;43021,106;15,67909
 656,40; 7002,692;  284,795;43014,547;15,72183
 656,98; 6922,558;  253,179;42886,680;15,64352
 657,55; 6949,424;  261,410;42794,352;15,72432
 658,13; 6901,367;  252,641;42510,870;15,73357
 658,70; 6884,926;  269,102;42238,234;15,76355
 659,28; 6797,099;  260,640;41264,675;15,94101
 659,85; 6664,812;  256,948;40488,270;15,92755
 660,43; 6675,216;  275,948;40627,788;15,85868
 661,00; 6665,236;  262,486;40779,383;15,80267
 661,58; 6701,564;  249,794;41039,132;15,81729
 662,15; 6762,122;  239,333;41294,419;15,88790
 662,73; 6863,988;  299,948;41606,552;15,89102
 663,30; 6907,316;  268,563;41825,301;15,97515
 663,88; 6924,490;  270,948;42051,742;15,92488
 664,45; 6958,125;  255,486;42169,953;15,99123
 665,03; 7028,837;  264,717;42663,547;15,95355
 665,60; 7186,242;  312,102;43031,681;16,09131
 666,17; 7148,877;  271,255;43217,045;16,01466
 666,75; 7209,512;  261,025;43595,255;16,03464
 667,32; 7294,379;  289,948;43882,773;16,06785
 667,90; 7363,322;  266,101;44222,445;16,14607
 668,47; 7427,495;  294,640;44399,809;16,17238
 669,05; 7483,669;  269,486;44814,404;16,19530
 669,62; 7521,305;  245,178;44839,537;16,31625
 670,19; 7555,094;  254,794;45024,055;16,30650
 670,77; 7655,191;  265,793;45142,650;16,46594
 671,34; 7657,210;  268,793;45083,399;16,48663
 671,92; 7743,461;  253,947;45352,917;16,60684
 672,49; 7745,404;  269,947;45434,742;16,55151
 673,06; 7760,424;  224,024;45458,568;16,66072
 673,64; 7830,598;  255,947;45434,625;16,76599
 674,21; 7867,849;  237,255;45375,681;16,90487
 674,79; 7933,099;  262,255;45685,430;16,88751
 675,36; 7991,273;  276,947;45761,640;16,96027
 675,93; 7986,293;  253,332;45644,620;17,03622
 676,51; 8109,236;  281,870;45776,061;17,20520
 677,08; 8121,948;  268,101;45883,502;17,21754
 677,65; 8211,814;  263,947;45972,481;17,38815
 678,23; 8282,527;  268,485;46306,307;17,40752
 678,80; 8310,777;  257,101;46338,209;17,47718
 679,38; 8401,028;  241,639;46545,881;17,62126
 679,95; 8481,125;  267,485;46826,784;17,64124
 680,52; 8505,914;  250,639;47050,917;17,63937
 681,10; 8636,550;  270,331;47495,127;17,71573
 681,67; 8702,646;  272,562;47798,953;17,73769
 682,24; 8774,743;  236,254;47846,856;17,93401
 682,82; 8900,379;  250,716;48419,374;17,95704
 683,39; 9043,245;  279,331;48796,122;18,06367
 683,96; 9107,188;  243,869;49050,333;18,16013
 684,54; 9205,054;  237,408;49433,774;18,22827
 685,11; 9286,612;  268,254;49718,215;18,23734
 685,68; 9433,786;  255,023;50291,117;18,34428
 686,25; 9465,267;  242,254;50335,020;18,41187
 686,83; 9602,441;  243,715;50522,692;18,61360
 687,40; 9713,461;  228,023;50831,517;18,74463
 687,97; 9804,097;  276,331;51254,728;18,68981
 688,55; 9841,424;  237,869;51314,476;18,80226
 689,12; 9930,675;  225,254;51619,687;18,88419
 689,69; 9966,156;  232,023;51565,205;18,96265
 690,26;10047,484;  242,869;51710,876;19,04992
 690,84;10170,196;  241,946;51886,164;19,22432
 691,41;10230,678;  250,638;51992,912;19,28798
 691,98;10351,236;  256,561;52263,276;19,41033
 692,56;10443,564;  235,253;52323,564;19,59808
 693,13;10518,891;  294,869;52434,543;19,60891
 693,70;10573,604;  274,176;52635,061;19,67008
 694,27;10628,701;  250,715;52732,887;19,77431
 694,84;10720,797;  243,561;52812,020;19,93065
 695,42;10818,740;  284,023;52904,307;20,02026
 695,99;10856,145;  250,099;53163,364;20,04421
 696,56;10906,934;  243,099;52917,189;20,24493
 697,13;11034,723;  264,022;53517,323;20,22541
 697,71;11134,666;  219,638;53425,610;20,51467
 698,28;11187,148;  251,253;53845,820;20,40486
 698,85;11341,706;  218,330;53828,107;20,74878
 699,42;11392,265;  225,715;53963,625;20,77965
 699,99;11488,900;  265,253;54026,143;20,87697
 700,57;11571,612;  265,868;54102,815;20,99997
 701,14;11649,940;  245,176;54274,718;21,10839
 701,71;11780,652;  249,330;54471,236;21,26691
 702,28;11840,441;  256,407;54548,600;21,33646
 702,85;11906,769;  258,484;54541,733;21,45834
 703,43;12065,789;  273,714;54770,713;21,63803
 704,00;12200,501;  279,483;55057,154;21,76255
 704,57;12259,444;  259,791;55058,441;21,89772
 705,14;12418,002;  288,330;55471,882;21,98059
 705,71;12489,638;  304,483;55285,169;22,16261
 706,28;12487,504;  265,714;55104,226;22,28687
 706,86;12622,908;  295,252;55534,820;22,31671
 707,43;12729,544;  310,022;55383,723;22,55073
 708,00;12835,102;  290,252;55346,395;22,78556
 708,57;12767,122;  268,098;55235,913;22,73880
 709,14;12927,527;  293,791;55411,815;22,92124
 709,71;12984,162;  276,560;55532,718;22,99762
 710,28;13140,259;  279,637;55805,621;23,16145
 710,86;13232,740;  291,175;55970,600;23,24299
 711,43;13390,453;  290,406;55888,118;23,56220
 712,00;13403,396;  274,637;55957,174;23,57787
 712,57;13583,723;  275,791;56137,308;23,82308
 713,14;13708,359;  262,252;56208,749;24,03387
 713,71;13719,686;  270,021;56201,882;24,04652
 714,28;13768,860;  257,560;56236,785;24,13628
 714,85;13846,111;  242,790;55991,303;24,40123
 715,42;13946,900;  253,098;56180,205;24,48509
 716,00;14059,381;  284,329;56225,416;24,62421
 716,57;14127,248;  247,636;56417,087;24,71025
 717,14;14216,037;  228,329;56269,682;24,95962
 717,71;14260,826;  227,636;56335,508;25,01109
 718,28;14410,077;  255,405;56488,026;25,17164
 718,85;14431,635;  227,252;56446,544;25,26603
 719,42;14549,732;  251,790;56574,600;25,38570
 719,99;14567,367;  222,405;56358,041;25,55411
 720,56;14713,387;  244,328;56784,098;25,59094
 721,13;14810,792;  243,867;56791,000;25,76068
 721,70;14799,812;  235,405;56697,057;25,79522
 722,27;14940,601;  254,867;56687,267;26,02359
 722,84;15089,467;  280,867;56820,324;26,19162
 723,41;15061,718;  234,251;56890,611;26,17088
 723,98;15238,968;  241,328;57073,359;26,38941
 724,55;15397,988;  262,328;57088,108;26,63520
 725,12;15398,777;  207,636;56945,242;26,77438
 725,69;15517,105;  237,020;57245,298;26,80327
 726,27;15662,125;  233,020;57271,047;27,05056
 726,84;15834,530;  240,636;57624,565;27,17467
 727,41;15905,319;  251,251;57589,621;27,30121
 727,98;16073,569;  263,020;57923,216;27,42021
 728,55;16217,051;  283,020;57835,657;27,68601
 729,12;16339,686;  230,328;57945,098;27,91202
 729,69;16421,398;  268,559;58066,616;27,94703
 730,26;16589,726;  275,251;58355,826;28,08938
 730,82;16574,361;  245,712;58148,806;28,19996
 731,39;16816,535;  244,097;58373,478;28,50957
 731,96;16962,324;  238,866;58516,303;28,69628
 732,53;17150,883;  269,251;58742,898;28,87050
 733,10;17226,287;  270,558;58825,955;28,95673
 733,67;17400,692;  277,097;59177,088;29,07232
 734,24;17387,020;  258,020;58721,067;29,29885
 734,81;17483,193;  285,097;58925,509;29,32806
 735,38;17520,059;  263,097;58723,334;29,51915
 735,95;17545,310;  264,789;58613,237;29,61608
 736,52;17681,484;  280,096;58822,985;29,72417
 737,09;17781,812;  276,635;58394,965;30,11989
 737,66;17924,678;  316,712;58646,406;30,18697
 738,23;18038,236;  248,866;58650,309;30,46050
 738,80;18195,487;  294,635;58915,904;30,53645
 739,37;18320,507;  293,866;59062,883;30,67372
 739,94;18437,911;  277,865;59129,863;30,85714
 740,51;18563,624;  326,250;59178,611;30,98835
 741,07;18642,259;  267,865;59139,360;31,21102
 741,64;18823,663;  288,404;59329,263;31,39395
 742,21;18940,222;  274,096;59443,781;31,54677
 742,78;18992,319;  246,327;59094,991;31,85458
 743,35;19070,493;  261,634;59433,124;31,78703
 743,92;19328,974;  301,942;59601,950;32,08605
 744,49;19372,302;  279,250;59429,545;32,27888
 745,06;19386,398;  268,250;59462,986;32,29704
 745,63;19548,111;  252,865;59424,581;32,60890
 746,19;19679,515;  258,942;59418,714;32,82733
 746,76;19789,304;  272,557;59542,078;32,92881
 747,33;19854,863;  253,865;59456,827;33,10814
 747,90;20061,498;  273,173;59651,499;33,32584
 748,47;20057,057;  286,096;59525,247;33,37482
 749,04;20206,615;  282,942;59625,458;33,57403
 749,61;20323,789;  291,480;59468,976;33,85123
 750,17;20440,963;  278,634;59581,263;33,99905
 750,74;20490,521;  284,557;59467,704;34,14142
 751,31;20583,156;  257,634;59390,068;34,37288
 751,88;20674,253;  244,788;59226,047;34,63721
 752,45;20846,119;  272,480;59405,104;34,79237
 753,02;20855,370;  267,557;59205,314;34,93145
 753,58;20925,621;  256,403;59122,755;35,11211
 754,15;21147,179;  268,326;59189,504;35,43523
 754,72;21144,045;  247,172;59014,637;35,55857
 755,29;21200,296;  243,634;58905,694;35,72439
 755,86;21387,393;  261,480;58876,212;36,04199
 756,42;21500,105;  268,710;58750,653;36,30419
 756,99;21574,433;  222,864;58846,863;36,42121
 757,56;21638,530;  245,787;58790,458;36,54089
 758,13;21800,396;  201,480;58545,361;37,02002
 758,70;21927,723;  227,326;58772,186;37,06627
 759,26;22100,666;  219,787;58855,627;37,31656
 759,83;22281,148;  217,249;58988,761;37,54183
 760,40;22286,245;  215,556;58826,202;37,65645
 760,97;22357,726;  191,941;58879,796;37,76895
 761,53;22372,054;  167,787;58425,084;38,11414
 762,10;22449,381;  188,864;58423,448;38,22560
 762,67;22499,478;  215,556;58351,197;38,33091
 763,24;22496,729;  171,864;57767,253;38,76155
 763,80;22610,518;  215,941;58088,848;38,69613
 764,37;22594,923;  221,633;58054,058;38,68641
 764,94;22514,789;  202,479;57578,653;38,88776
 765,50;22669,424;  200,941;57513,094;39,20370
 766,07;22767,829;  250,941;57612,381;39,25440
 766,64;22734,310;  222,402;57285,438;39,45095
 767,21;22741,484;  218,479;57147,879;39,56305
 767,77;22809,196;  245,017;57066,397;39,71072
 768,34;22815,832;  254,633;57069,684;39,70990
 768,91;22919,851;  249,171;56848,048;40,05500
 769,47;22954,102;  242,094;56918,720;40,07297
 770,04;23016,199;  264,094;56714,392;40,30467
 770,61;22991,065;  238,556;56494,679;40,44450
 771,18;22988,085;  229,017;56359,889;40,54644
 771,74;23202,490;  251,786;56535,561;40,77677
 772,31;23290,817;  254,632;56343,310;41,07101
 772,88;23143,530;  219,555;56090,212;41,03044
 773,44;23129,319;  231,325;55928,038;41,11193
 774,01;23368,108;  242,017;56069,710;41,42405
 774,58;23248,666;  224,786;55530,920;41,62989
 775,14;23407,763;  214,171;55797,361;41,72771
 775,71;23554,091;  233,863;55588,110;42,12907
 776,27;23695,957;  273,632;55554,397;42,36976
 776,84;23807,361;  278,171;55555,530;42,56569
 777,41;23774,920;  255,324;55365,587;42,67734
 777,97;23754,247;  248,324;55056,105;42,88793
 778,54;23981,498;  248,632;54984,930;43,35855
 779,11;24107,672;  258,170;55127,525;43,46598
 779,67;24233,000;  230,093;54995,659;43,82846
 780,24;24236,481;  253,863;54725,946;44,02736
 780,80;24343,886;  263,401;54791,233;44,16182
 781,37;24381,521;  252,939;54738,366;44,28447
 781,94;24352,695;  254,862;54609,423;44,33452
 782,50;24479,561;  256,170;54425,941;44,71754
 783,07;24544,119;  272,401;54443,382;44,80576
 783,63;24587,678;  230,247;54203,900;45,12837
 784,20;24656,313;  255,478;54131,725;45,29052
 784,77;24633,333;  249,401;53909,782;45,44122
 785,33;24592,584;  226,170;53752,992;45,52188
 785,90;24672,604;  246,554;53709,741;45,68760
 786,46;24788,008;  265,939;53596,567;45,98121
 787,03;24767,105;  237,016;53392,238;46,14803
 787,59;24814,279;  245,708;53256,372;46,34647
 788,16;24907,376;  241,785;53273,120;46,51135
 788,73;24938,703;  245,400;53157,715;46,66835
 789,29;24879,492;  241,631;52693,310;46,97249
 789,86;25034,282;  246,016;52655,367;47,29741
 790,42;25020,071;  255,093;52516,808;47,38646
 790,99;24985,783;  254,246;52100,479;47,70170
 791,55;25097,341;  236,016;52082,382;47,95192
 792,12;25087,515;  259,092;52155,823;47,84198
 792,68;25079,458;  239,939;51808,341;48,16810
 793,25;25043,786;  247,015;51550,551;48,33345
 793,81;25000,729;  277,400;51208,915;48,54230
 794,38;24992,441;  221,708;50908,587;48,87011
 794,94;25068,384;  227,323;50764,721;49,15382
 795,51;25009,020;  243,708;50542,854;49,23605
 796,07;24908,193;  253,015;50333,987;49,23063
 796,64;25095,521;  272,477;50487,890;49,43312
 797,20;24924,002;  240,938;49802,792;49,80254
 797,77;24900,330;  231,246;49591,310;49,97782
 798,33;24891,888;  230,861;49426,521;50,12846
 798,90;24900,601;  267,554;49308,500;50,22955
 799,46;24868,621;  243,092;48887,557;50,62350
 800,03;24792,102;  251,246;48753,382;50,59747
 800,59;24834,276;  264,246;48521,746;50,91443
 801,15;24718,373;  256,169;48366,495;50,84606
 801,72;24692,470;  253,246;47952,244;51,23635
 802,28;24536,797;  285,707;47615,993;51,23800
 802,85;24511,740;  252,861;47502,203;51,34226
 803,41;24596,991;  252,553;47225,182;51,82686
 803,98;24365,319;  238,861;46825,777;51,78805
 804,54;24407,569;  241,938;46639,603;52,08372
 805,11;24381,359;  251,168;46334,582;52,36198
 805,67;24453,840;  264,322;46328,562;52,51257
 806,23;24332,937;  257,015;45764,695;52,90518
 806,80;24309,649;  271,091;45659,521;52,96186
 807,36;24388,669;  276,399;45604,039;53,19551
 807,93;24343,612;  277,322;45434,403;53,29461
 808,49;24204,324;  234,784;44903,536;53,66064
 809,05;24192,344;  223,399;44802,670;53,76702
 809,62;24212,672;  256,707;44716,188;53,88269
 810,18;24291,846;  257,399;44535,860;54,28022
 810,74;24169,173;  234,322;44307,608;54,30694
 811,31;24136,193;  232,553;43994,203;54,62235
 811,87;24185,752;  234,860;43757,798;55,03050
 812,44;24198,464;  272,783;43915,470;54,82174
 813,00;24100,869;  212,168;43590,142;55,07104
 813,56;24320,042;  244,552;43547,044;55,59839
 814,13;24385,293;  239,937;43498,793;55,81598
 814,69;24395,313;  247,860;43391,696;55,96965
 815,25;24178,948;  219,245;42853,752;56,19791
 815,82;24257,199;  256,783;42841,116;56,35973
 816,38;24246,450;  262,783;42599,942;56,64921
 816,94;24120,547;  220,245;42260,460;56,85105
 817,51;24125,413;  215,629;42091,055;57,09741
 818,07;24077,894;  223,091;41767,496;57,42001
 818,63;24125,991;  240,398;41667,321;57,65717
 819,20;24169,242;  235,398;41566,839;57,90711
 819,76;23939,954;  223,552;41074,742;58,05560
 820,32;24060,435;  272,244;41011,106;58,39189
 820,89;24022,763;  255,167;40687,239;58,78402
 821,45;23907,629;  234,475;40463,834;58,84547
 822,01;23815,188;  249,629;40220,968;58,95614
 822,57;23833,977;  259,783;39982,101;59,34748
 823,14;23707,920;  225,475;39833,157;59,28760
 823,70;23731,247;  218,706;39567,752;59,75378
 824,26;23589,960;  228,936;39387,347;59,65774
 824,82;23653,826;  252,552;39175,250;60,12244
 825,39;23581,846;  227,859;38963,614;60,29052
 825,95;23660,404;  256,398;39067,363;60,30256
 826,51;23428,809;  249,552;38561,111;60,50199
 827,08;23605,521;  270,244;38724,245;60,68361
 827,64;23596,926;  260,936;38392,301;61,19894
 828,20;23449,945;  233,859;38115,127;61,28646
 828,76;23587,350;  245,474;38089,183;61,67967
 829,32;23499,985;  254,321;37973,317;61,62854
 829,89;23404,313;  212,321;37802,988;61,69614
 830,45;23513,256;  229,936;37824,429;61,93279
 831,01;23484,045;  221,936;37613,717;62,21183
 831,57;23538,450;  234,628;37533,388;62,47881
 832,14;23571,008;  231,167;37369,753;62,84526
 832,70;23404,490;  232,705;37181,194;62,71376
 833,26;23465,894;  220,320;37071,481;63,07963
 833,82;23517,914;  230,705;37021,230;63,29676
 834,38;23618,857;  225,320;36996,440;63,61932
 834,95;23472,569;  213,936;36952,804;63,30798
 835,51;23432,743;  192,166;36686,014;63,68355
 836,07;23615,148;  232,859;36854,994;63,84742
 836,63;23676,168;  244,320;36785,742;64,12407
 837,19;23631,495;  231,782;36651,183;64,25068
 837,75;23522,823;  204,012;36309,701;64,58487
 838,32;23690,843;  244,935;36406,142;64,83718
 838,88;23808,940;  252,320;36453,814;65,07085
 839,44;23781,960;  237,243;36295,948;65,29551
 840,00;23835,903;  233,551;36287,619;65,46377
 840,56;23778,692;  210,089;35888,676;66,05812
 841,12;23774,173;  211,474;35894,040;66,03421
 841,68;23723,732;  209,012;35755,481;66,15206
 842,25;23796,444;  217,320;35702,461;66,44788
 842,81;23763,079;  215,012;35419,979;66,88848
 843,37;23822,945;  205,704;35401,112;67,10319
 843,93;23805,965;  223,320;35395,399;67,04934
 844,49;23909,139;  230,396;35421,994;67,28522
 845,05;23858,159;  204,089;35120,435;67,74498
 845,61;24006,102;  240,858;35187,338;68,00469
 846,17;23973,430;  225,781;35010,394;68,27056
 846,73;24048,604;  228,396;34950,604;68,60223
 847,29;24023,547;  204,012;34827,738;68,79541
 847,86;24038,336;  213,242;34715,333;69,05406
 848,42;23980,586;  204,858;34488,004;69,35107
 848,98;24057,914;  219,704;34480,984;69,57770
 849,54;24092,011;  211,242;34480,425;69,68584
 850,10;24108,954;  226,627;34362,866;69,96180
 850,66;24050,128;  202,088;34152,999;70,24271
 851,22;24081,686;  196,627;34137,210;70,37316
 851,78;24239,860;  250,242;34209,266;70,64284
 852,34;24100,265;  227,011;33986,169;70,71638
 852,90;24025,131;  210,165;33799,225;70,90096
 853,46;23921,766;  207,703;33608,128;70,99929
 854,02;24005,555;  222,473;33612,492;71,22812
 854,58;23881,037;  206,550;33277,317;71,58735
 855,14;23929,287;  188,088;33354,220;71,58266
 855,70;23858,846;  181,088;33088,969;71,95163
 856,26;23805,943;  230,857;33075,948;71,77659
 856,82;23795,424;  211,011;32863,158;72,22929
 857,38;23805,982;  232,780;32774,138;72,44075
 857,94;23786,926;  223,318;32659,810;72,64536
 858,50;23843,407;  227,472;32530,405;73,10771
 859,06;23700,042;  212,857;32381,692;73,01224
 859,62;23827,678;  238,165;32286,517;73,60601
 860,18;23634,544;  211,703;32127,805;73,38879
 860,74;23678,871;  191,164;31923,477;74,01827
 861,30;23618,968;  198,703;31767,302;74,18848
 861,86;23708,604;  234,241;31797,743;74,37186
 862,42;23608,854;  211,241;31628,569;74,47359
 862,98;23780,413;  233,549;31602,010;75,06541
 863,54;23676,356;  232,703;31329,066;75,39034
 864,10;23770,068;  218,780;31484,661;75,32584
 864,66;23634,703;  197,164;31206,641;75,58186
 865,22;23598,954;  218,395;31051,928;75,82835
 865,78;23592,205;  226,164;30883,215;76,21751
 866,34;23621,148;  217,549;30887,579;76,30771
 866,90;23539,322;  224,010;30757,020;76,36100
 867,45;23479,111;  234,779;30473,000;76,87070
 868,01;23465,977;  225,010;30303,825;77,26690
 868,57;23323,612;  220,856;30039,651;77,47716
 869,13;23237,786;  209,933;29981,323;77,34893
 869,69;23215,729;  210,702;29867,533;77,57075
 870,25;23201,749;  195,010;29826,051;77,64404
 870,81;23188,461;  223,625;29740,185;77,80323
 871,37;23240,096;  225,087;29572,318;78,42310
 871,93;23115,424;  240,317;29451,913;78,30831
 872,49;22967,367;  224,779;29189,046;78,51947
 873,04;22959,849;  209,471;29004,179;79,00888
 873,60;22883,407;  195,702;28887,159;79,07477
 874,16;22896,042;  228,471;28813,062;79,29997
 874,72;22872,735;  209,394;28708,985;79,52164
 875,28;22904,196;  227,240;28637,369;79,81997
 875,84;22868,812;  215,625;28635,985;79,70760
 876,40;22888,888;  221,163;28542,754;80,03691
 876,95;22940,119;  228,779;28543,138;80,21139
 877,51;23024,427;  241,625;28472,292;80,70231
 878,07;23013,042;  256,240;28418,138;80,80706
 878,63;22968,888;  221,702;28446,062;80,59416
 879,19;22975,888;  236,317;28484,831;80,49829
 879,75;23191,042;  231,317;28551,523;81,07189
 880,30;23217,119;  218,010;28479,215;81,38050
 880,86;23436,119;  260,933;28569,600;81,86605
 881,42;23462,504;  217,240;28612,677;81,86267
 881,98;23669,581;  230,702;28630,677;82,53134
 882,54;23847,812;  214,394;28784,292;82,72139
 883,09;23993,273;  239,779;28888,138;82,91398
 883,65;24121,119;  208,317;28963,908;83,15879
 884,21;24411,350;  241,702;29296,062;83,18768
 884,77;24443,965;  218,471;29311,677;83,26856
 885,32;24612,350;  213,240;29452,369;83,44677
 885,88;24893,196;  256,702;29581,754;84,01177
 886,44;25073,735;  226,394;29676,062;84,37223
 887,00;25196,581;  239,856;29623,600;84,93378
 887,56;25358,504;  223,163;29824,215;84,91367
 888,11;25428,658;  210,317;29801,831;85,22153
 888,67;25732,965;  252,317;30013,138;85,61809
 889,23;25854,273;  237,471;30036,369;85,96560
 889,79;25731,504;  212,702;29856,446;86,08495
 890,34;25786,350;  218,702;29755,677;86,56150
 890,90;25995,581;  276,702;29912,908;86,78196
 891,46;26008,888;  214,625;29891,908;86,91585
 892,01;25990,812;  241,317;29837,831;87,00178
 892,57;25983,196;  249,317;29815,908;87,03702
 893,13;26027,812;  211,471;29535,831;88,03718
 893,69;25997,658;  211,548;29489,138;88,07456
 894,24;25966,812;  224,471;29436,369;88,12279
 894,80;25936,350;  227,702;29311,292;88,39572
 895,36;25980,196;  225,394;29145,600;89,05470
 895,91;25795,581;  223,856;28901,062;89,17091
 896,47;25725,581;  225,548;28834,831;89,13202
 897,03;25642,888;  215,394;28646,446;89,43564
 897,58;25559,888;  230,087;28489,215;89,63405
 898,14;25522,812;  234,163;28277,523;90,17696
 898,70;25452,735;  203,548;28110,677;90,47576
 899,25;25522,581;  218,240;28128,600;90,66290
 899,81;25442,119;  238,702;27953,523;90,93841
 900,37;25376,812;  202,471;27739,600;91,41963
 900,92;25564,888;  223,317;27738,292;92,10101
 901,48;25376,273;  218,087;27590,908;91,90937
 902,03;25229,504;  210,010;27470,600;91,77899
 902,59;25184,350;  215,394;27349,446;92,02074
 903,15;25169,965;  235,317;27222,677;92,39380
 903,70;25023,427;  234,163;26894,523;92,98173
 904,26;25011,427;  207,010;26756,754;93,42620
 904,82;25072,888;  216,856;26783,292;93,56179
 905,37;24955,273;  218,010;26597,446;93,77480
 905,93;24911,350;  218,625;26490,677;93,98857
 906,48;24978,273;  227,548;26393,831;94,59015
 907,04;25034,581;  232,317;26286,985;95,19317
 907,60;24867,042;  207,010;26103,523;95,22530
 908,15;24850,350;  206,087;25973,292;95,64197
 908,71;24846,196;  240,087;25927,985;95,78872
 909,26;24788,888;  211,471;25778,831;96,12810
 909,82;24702,965;  234,625;25663,985;96,22083
 910,37;24704,196;  255,010;25578,985;96,54561
 910,93;24521,427;  204,702;25386,677;96,56401
 911,48;24525,042;  205,933;25212,138;97,25230
 912,04;24472,581;  208,779;25197,062;97,10072
 912,60;24628,427;  217,779;25104,292;98,08786
 913,15;24359,581;  222,548;24869,062;97,93285
 913,71;24313,735;  204,702;24769,062;98,14639
 914,26;24253,504;  196,548;24667,292;98,30905
 914,82;24197,658;  218,317;24587,446;98,40048
 915,37;24278,658;  205,779;24464,677;99,23319
 915,93;24275,504;  239,010;24302,831;99,88644
 916,48;24166,658;  205,394;24189,908;99,90306
 917,04;24144,042;  228,702;24118,446;100,10714
 917,59;24042,965;  237,010;23943,831;100,41817
 918,15;23944,581;  187,548;23757,138;100,79527
 918,70;23898,042;  216,163;23660,062;101,01511
 919,26;23862,119;  216,702;23574,292;101,23226
 919,81;23757,735;  205,856;23432,062;101,40218
 920,37;23761,350;  212,625;23338,215;101,82972
 920,92;23748,119;  234,010;23275,754;102,05004
 921,48;23574,350;  203,317;23074,985;102,18334
 922,03;23569,427;  214,471;23022,677;102,39716
 922,59;23467,735;  201,779;22864,215;102,66308
 923,14;23351,965;  198,240;22737,062;102,72820
 923,69;23422,427;  228,625;22602,138;103,66634
 924,25;23405,504;  232,779;22644,985;103,39333
 924,80;23329,042;  216,087;22431,908;104,03827
 925,36;23260,581;  209,163;22327,677;104,21775
 925,91;23145,812;  211,856;22212,600;104,24173
 926,47;23147,119;  187,625;22136,523;104,60431
 927,02;23083,350;  232,010;21913,908;105,39363
 927,57;23000,042;  217,933;21878,831;105,17620
 928,13;22914,350;  203,625;21741,369;105,44616
 928,68;22907,504;  208,702;21738,754;105,42846
 929,24;22672,812;  185,163;21501,138;105,49669
 929,79;22648,888;  199,471;21321,754;106,28310
 930,34;22694,273;  209,163;21279,831;106,71285
 930,90;22640,658;  195,548;21201,446;106,85146
 931,45;22600,427;  212,394;21130,600;107,02654
 932,01;22639,812;  218,394;21122,754;107,25714
 932,56;22569,812;  227,779;20854,754;108,31464
 933,11;22608,658;  226,471;20900,062;108,26463
 933,67;22397,119;  203,240;20674,446;108,41510
 934,22;22456,119;  212,087;20583,831;109,19061
 934,77;22331,350;  226,163;20451,523;109,29441
 935,33;22277,196;  223,779;20349,754;109,57689
 935,88;22290,119;  215,317;20240,985;110,23254
 936,43;22249,350;  197,394;20161,523;110,45789
 936,99;22130,812;  212,394;20146,062;109,95677
 937,54;21988,812;  194,010;19957,677;110,27711
 938,09;22029,273;  214,394;19891,446;110,86457
 938,65;21859,196;  213,779;19737,677;110,86627
 939,20;21873,119;  194,163;19643,754;111,46227
 939,75;21749,658;  198,163;19498,062;111,66636
 940,31;21656,965;  182,087;19441,600;111,50271
 940,86;21745,119;  219,702;19434,369;112,02597
 941,41;21699,581;  256,394;19287,677;112,67336
 941,96;21515,965;  203,471;19205,908;112,15664
 942,52;21413,581;  214,394;19047,215;112,56511
 943,07;21369,581;  190,163;18956,754;112,85703
 943,62;21282,042;  202,240;18877,754;112,87402
 944,18;21231,888;  196,548;18813,523;112,99011
 944,73;21110,581;  207,087;18695,138;113,06488
 945,28;21005,658;  181,702;18496,369;113,70098
 945,83;21077,042;  199,240;18507,985;114,03186
 946,39;21046,350;  202,856;18413,062;114,46051
 946,94;20915,658;  230,548;18384,677;113,94163
 947,49;20797,658;  200,163;18217,446;114,32076
 948,04;20735,581;  219,010;18221,908;113,96260
 948,59;20725,273;  227,317;18113,062;114,60499
 949,15;20587,042;  188,394;18063,062;114,12043
 949,70;20518,427;  194,933;17914,369;114,69605
 950,25;20580,581;  226,779;17773,754;115,99607
 950,80;20461,504;  171,625;17692,677;115,80286
 951,36;20421,581;  177,010;17595,908;116,22188
 951,91;20398,273;  223,087;17601,985;116,09014
 952,46;20175,042;  183,933;17384,831;116,22131
 953,01;20326,812;  222,856;17419,985;116,90298
 953,56;20174,273;  177,702;17263,600;117,03553
 954,11;20082,888;  216,087;17247,062;116,65100
 954,67;20008,965;  198,779;17164,677;116,76474
 955,22;19943,119;  180,779;16994,446;117,53736
 955,77;19898,735;  221,625;16988,754;117,35527
 956,32;19849,888;  243,010;16874,446;117,89047
 956,87;19761,196;  188,702;16714,831;118,43363
 957,42;19712,888;  204,471;16632,446;118,75120
 957,98;19648,119;  195,240;16599,369;118,58526
 958,53;19683,812;  222,471;16547,138;119,21432
 959,08;19522,965;  194,163;16408,138;119,21075
 959,63;19468,042;  192,087;16331,600;119,43331
 960,18;19426,350;  215,163;16244,369;119,85114
 960,73;19378,273;  205,010;16235,600;119,60423
 961,28;19397,735;  186,933;16052,985;121,08117
 961,83;19312,119;  213,087;16048,754;120,60769
 962,39;19263,812;  189,856;15892,985;121,46596
 962,94;19124,196;  223,317;15823,138;121,16087
 963,49;19061,196;  203,087;15643,369;122,13578
 964,04;19056,504;  215,317;15701,754;121,66250
 964,59;18956,965;  180,087;15528,292;122,33924
 965,14;18990,965;  213,471;15522,523;122,65615
 965,69;18768,042;  204,702;15344,523;122,61268
 966,24;18817,581;  208,548;15286,369;123,41991
 966,79;18681,273;  213,856;15118,677;123,90231
 967,34;18550,427;  178,087;14954,369;124,33669
 967,89;18557,888;  189,317;14949,062;124,45047
 968,44;18450,812;  211,394;14925,138;123,96177
 968,99;18390,888;  212,163;14861,600;124,09163
 969,55;18393,273;  209,856;14736,446;125,17333
 970,10;18144,273;  210,625;14599,215;124,63798
 970,65;18121,888;  214,933;14600,446;124,47909
 971,20;18019,965;  203,471;14429,831;125,23579
 971,75;17947,196;  189,548;14307,292;125,78247
 972,30;17870,273;  202,779;14217,677;126,06224
 972,85;17772,735;  203,548;14192,369;125,59448
 973,40;17624,812;  195,702;13995,369;126,30094
 973,95;17498,273;  206,779;13956,523;125,75866
 974,50;17543,427;  223,394;13924,754;126,41105
 975,05;17479,735;  220,779;13814,138;126,96608
 975,60;17472,350;  225,779;13755,215;127,47442
 976,15;17364,735;  215,394;13603,369;128,09510
 976,70;17334,196;  213,163;13577,292;128,11185
 977,25;17231,350;  208,779;13508,369;127,99320
 977,80;17038,965;  199,933;13354,446;128,00954
 978,35;16973,581;  215,163;13229,600;128,76791
 978,89;16892,812;  196,010;13118,600;129,20631
 979,44;16869,350;  205,317;13052,292;129,71172
 979,99;16667,581;  193,625;12881,292;129,84227
 980,54;16678,350;  235,779;12788,292;130,99027
 981,09;16638,042;  218,779;12741,985;131,11071
 981,64;16507,888;  216,471;12576,292;131,80949
 982,19;16448,581;  248,240;12534,523;131,85714
 982,74;16340,119;  226,702;12426,677;132,07746
 983,29;16162,735;  195,240;12235,369;132,61896
 983,84;16113,735;  212,856;12153,138;133,17004
 984,39;16007,812;  247,471;12121,062;132,73441
 984,94;15904,658;  190,471;11949,754;133,63219
 985,49;15821,965;  229,010;11893,138;133,68299
 986,03;15786,504;  240,856;11820,831;134,24596
 986,58;15582,735;  246,240;11686,985;134,05154
 987,13;15418,350;  218,240;11542,600;134,22489
 987,68;15313,965;  230,163;11404,985;134,98025
 988,23;15248,119;  229,933;11353,523;135,01204
 988,78;15056,812;  214,317;11223,292;134,82176
 989,33;15042,581;  228,471;11134,985;135,82810
 989,88;14942,427;  235,394;11119,831;135,11984
 990,42;14856,658;  219,625;10899,677;137,05020
 990,97;14568,735;  216,856;10851,600;134,95274
 991,52;14545,965;  239,779;10713,523;136,59095
 992,07;14488,812;  244,394;10635,985;137,07639
 992,62;14348,350;  230,163;10571,985;136,51548
 993,17;14131,812;  230,471;10423,215;136,38467
 993,71;14046,350;  222,471;10308,215;137,06355
 994,26;13866,735;  199,471;10194,369;136,74240
 994,81;13858,273;  232,779;10166,369;137,16586
 995,36;13602,427;  218,702;10009,831;136,69236
 995,91;13614,735;  223,317; 9934,138;137,90201
 996,45;13419,581;  228,548; 9834,215;137,32552
 997,00;13215,504;  199,471; 9690,677;137,13782
 997,55;13173,812;  216,702; 9629,523;137,65384
 998,10;13065,196;  247,317; 9522,215;138,19967
 998,65;12964,427;  218,779; 9451,831;138,04372
 999,19;12847,504;  237,317; 9256,831;139,81005
 999,74;12705,504;  252,779; 9225,523;138,78391
1000,29;12633,888;  227,933; 9121,754;139,48960
1000,84;12441,735;  216,317; 9033,292;138,65773
1001,38;12323,888;  220,702; 8862,446;140,05490
1001,93;12252,042;  237,087; 8807,677;140,18819
1002,48;12114,965;  203,087; 8696,677;140,24551
1003,03;12071,581;  221,856; 8659,369;140,44096
1003,57;11870,042;  231,087; 8529,523;140,25480
1004,12;11740,350;  245,010; 8427,215;140,49195
1004,67;11692,888;  214,779; 8341,138;141,24541
1005,22;11514,042;  210,933; 8213,985;141,23499
1005,76;11298,196;  205,548; 8064,677;141,14348
1006,31;11205,965;  242,625; 8032,369;140,74070
1006,86;11089,273;  211,010; 7859,446;142,22859
1007,40;10931,504;  196,471; 7727,292;142,54797
1007,95;10771,119;  215,163; 7683,754;141,33799
1008,50;10627,042;  218,933; 7577,677;141,43867
1009,04;10514,350;  225,625; 7457,908;142,26110
1009,59;10362,658;  231,625; 7315,523;143,01494
1010,14;10241,042;  211,471; 7221,831;143,06786
1010,68;10044,504;  219,087; 7066,831;143,48400
1011,23; 9886,504;  200,548; 6984,523;142,77700
1011,78; 9814,658;  229,856; 6928,831;143,07863
1012,32; 9665,658;  217,240; 6785,908;143,84070
1012,87; 9657,042;  244,933; 6796,292;143,66651
1013,42; 9518,888;  209,240; 6641,369;144,73665
1013,96; 9475,427;  242,163; 6651,292;144,06425
1014,51; 9366,042;  195,779; 6561,985;144,04598
1015,06; 9356,350;  196,471; 6542,908;144,33106
1015,60; 9386,042;  260,702; 6590,446;144,16602
1016,15; 9360,042;  215,394; 6511,754;145,23707
1016,69; 9473,196;  210,702; 6584,215;145,32792
1017,24; 9479,273;  201,625; 6533,215;146,52951
1017,79; 9528,965;  236,625; 6648,215;144,93035
1018,33; 9574,658;  196,856; 6574,138;147,05012
1018,88; 9637,581;  217,856; 6679,292;145,78376
1019,42; 9704,888;  221,625; 6673,369;146,98759
1019,97; 9745,350;  212,010; 6700,754;146,92119
1020,51; 9819,965;  216,317; 6676,062;148,66917
1021,06; 9755,812;  211,240; 6675,831;147,64387
1021,61; 9824,965;  190,087; 6661,600;148,88138
1022,15; 9833,581;  171,856; 6627,369;149,66625
1022,70; 9826,812;  215,856; 6593,677;150,69340
1023,24; 9825,888;  204,548; 6580,215;150,90719
1023,79; 9718,888;  220,163; 6547,138;150,13059
1024,33; 9661,350;  218,087; 6440,292;151,76714
1024,88; 9573,350;  219,240; 6406,985;151,17156
1025,42; 9476,119;  201,779; 6280,831;152,56228
1025,97; 9355,196;  203,933; 6205,677;152,47673
1026,51; 9202,427;  173,087; 6046,600;153,72980
1027,06; 9144,273;  209,317; 6048,446;153,01864
1027,60; 9001,581;  207,702; 5891,600;154,71563
1028,15; 8867,119;  221,087; 5849,754;153,60710
1028,69; 8751,504;  174,317; 5712,523;154,87302
1029,24; 8631,581;  207,933; 5681,062;153,90919
1029,78; 8470,965;  205,779; 5514,600;155,68779
1030,33; 8238,735;  177,933; 5433,292;153,38250
1030,87; 8238,196;  206,471; 5377,138;155,33247
1031,42; 8095,658;  194,933; 5281,754;155,31753
1031,96; 8008,119;  212,317; 5252,754;154,66521
1032,51; 7875,812;  199,317; 5121,062;155,97101
1033,05; 7732,812;  208,163; 5095,985;153,94688
1033,60; 7597,196;  174,933; 4951,138;155,40083
1034,14; 7491,042;  199,933; 4910,831;154,77112
1034,69; 7474,581;  199,317; 4856,908;156,20230
1035,23; 7324,504;  204,702; 4754,600;156,48267
1035,77; 7241,658;  196,087; 4713,292;155,97189
1036,32; 7136,119;  180,779; 4606,908;157,14275
1036,86; 7005,812;  198,163; 4560,138;156,06802
1037,41; 6923,119;  204,625; 4497,369;156,50814
1037,95; 6788,042;  183,933; 4440,754;155,14182
1038,50; 6667,119;  196,240; 4361,138;155,36704
1039,04; 6621,888;  203,779; 4342,831;155,06231
1039,58; 6531,042;  192,010; 4257,446;155,92502
1040,13; 6433,196;  201,471; 4193,754;156,09428
1040,67; 6353,888;  223,394; 4184,369;154,77235
1041,21; 6297,581;  228,317; 4080,523;157,55294
1041,76; 6155,427;  176,471; 3987,908;156,86883
1042,30; 6122,350;  210,471; 3959,215;157,70291
1042,85; 5971,888;  207,856; 3900,831;156,08101
1043,39; 5893,812;  190,010; 3855,600;155,60391
1043,93; 5864,350;  217,394; 3807,292;157,30128
1044,48; 5775,965;  205,548; 3721,600;158,42819
1045,02; 5658,888;  202,856; 3640,062;158,73454
1045,56; 5574,812;  210,548; 3624,985;157,10538
1046,11; 5566,350;  210,394; 3580,523;158,92436
1046,65; 5454,427;  208,779; 3510,292;158,88616
1047,19; 5403,196;  198,779; 3490,523;158,10515
1047,74; 5337,888;  182,856; 3377,062;161,38699
1048,28; 5251,273;  210,779; 3371,369;159,47952
1048,82; 5211,965;  222,625; 3358,138;159,12355
1049,37; 5103,658;  205,240; 3283,600;159,12427
1049,91; 5029,196;  197,548; 3233,215;159,16264
1050,45; 4962,581;  228,317; 3187,908;159,96347
1050,99; 4950,504;  207,856; 3150,215;161,18519
1051,54; 4847,658;  196,933; 3088,369;160,84479
1052,08; 4830,427;  215,010; 3068,446;161,74943
1052,62; 4756,196;  221,548; 3029,369;161,50060
1053,16; 4692,581;  192,702; 2968,446;162,11432
1053,71; 4649,812;  215,856; 2966,446;161,20015
1054,25; 4572,196;  223,779; 2873,908;164,08324
1054,79; 4535,888;  211,933; 2868,446;162,76807
1055,33; 4408,581;  183,163; 2789,831;162,10037
1055,88; 4390,965;  227,317; 2766,677;163,96449
1056,42; 4340,735;  234,702; 2757,062;162,78538
1056,96; 4291,427;  221,240; 2686,600;165,09504
1057,50; 4255,119;  201,240; 2655,215;165,19642
1058,05; 4177,965;  212,625; 2609,523;165,43634
1058,59; 4122,658;  228,163; 2575,908;165,88239
1059,13; 4039,812;  196,163; 2525,062;165,04149
1059,67; 4011,427;  229,163; 2516,369;165,36612
1060,21; 3935,658;  218,240; 2436,908;167,55181
1060,76; 3884,350;  221,779; 2449,600;164,40149
1061,30; 3842,581;  232,010; 2417,138;165,23379
1061,84; 3746,735;  211,471; 2366,446;164,05125
1062,38; 3683,735;  205,317; 2303,446;165,78664
1062,92; 3712,581;  243,317; 2308,446;167,99259
1063,46; 3609,581;  229,933; 2273,292;165,39664
1064,01; 3547,119;  208,317; 2224,062;165,63619
1064,55; 3546,965;  217,163; 2196,677;168,21315
1065,09; 3438,042;  186,779; 2143,754;166,13720
1065,63; 3473,581;  232,471; 2184,446;166,04258
1066,17; 3421,273;  234,010; 2139,600;167,25858
1066,71; 3368,273;  230,087; 2103,985;167,46837
1067,25; 3313,735;  212,471; 2065,831;167,33199
1067,80; 3291,273;  233,163; 2048,600;168,45037
1068,34; 3269,658;  237,471; 2032,446;168,92639
1068,88; 3151,504;  213,087; 1969,677;167,27960
1069,42; 3200,196;  248,779; 1996,523;168,87009
1069,96; 3121,888;  218,625; 1934,754;169,17514
1070,50; 3143,273;  245,317; 1943,600;170,64036
1071,04; 3051,042;  212,394; 1893,677;168,83824
1071,58; 3003,350;  221,548; 1860,523;169,72815
1072,12; 2987,196;  212,625; 1832,215;171,31314
1072,66; 2967,812;  211,240; 1815,292;171,85049
1073,21; 2922,119;  230,163; 1807,831;170,62886
1073,75; 2899,735;  223,163; 1779,523;171,97639
1074,29; 2857,888;  230,087; 1780,754;169,46265
1074,83; 2829,735;  228,163; 1753,600;170,54601
1075,37; 2782,581;  226,856; 1738,062;169,11827
1075,91; 2744,196;  233,240; 1720,446;168,83715
1076,45; 2705,350;  229,317; 1687,600;169,79099
1076,99; 2667,888;  222,933; 1658,908;170,26451
1077,53; 2630,350;  207,625; 1627,292;170,65442
1078,07; 2589,888;  232,933; 1623,215;169,53068
1078,61; 2561,350;  223,087; 1604,523;169,26318
1079,15; 2520,965;  220,548; 1579,215;169,31425
1079,69; 2507,427;  234,933; 1567,908;170,48288
1080,23; 2498,350;  232,240; 1558,292;170,89147
1080,77; 2484,273;  252,240; 1545,985;172,52504
1081,31; 2390,812;  217,240; 1499,446;169,51812
1081,85; 2394,888;  233,240; 1493,985;171,45810
1082,39; 2366,581;  221,394; 1457,138;173,59470
1082,93; 2335,658;  216,010; 1457,754;170,69925
1083,47; 2317,965;  207,625; 1426,215;173,17881
1084,01; 2285,196;  236,625; 1434,754;170,98087
1084,55; 2241,888;  216,163; 1398,831;171,28443
1085,09; 2211,735;  227,317; 1404,523;168,57013
1085,63; 2196,581;  219,394; 1375,600;171,00646
1086,17; 2165,812;  213,394; 1342,523;172,91360
1086,71; 2125,350;  214,087; 1332,985;170,81658
1087,24; 2150,888;  237,625; 1357,292;170,87785
1087,78; 2101,888;  235,702; 1310,754;173,59036
1088,32; 2055,196;  221,548; 1278,292;173,51863
1088,86; 2071,965;  241,702; 1305,138;172,10839
1089,40; 2026,504;  226,779; 1282,831;170,42012
1089,94; 1978,735;  193,702; 1241,600;170,34411
1090,48; 1977,504;  233,779; 1250,831;171,44897
1091,02; 1942,658;  229,933; 1228,369;171,54070
1091,56; 1920,658;  238,702; 1222,369;170,98828
1092,10; 1878,581;  207,240; 1176,985;172,34858
1092,63; 1904,273;  235,317; 1194,292;174,03538
1093,17; 1847,119;  223,625; 1183,215;169,18617
1093,71; 1821,042;  211,548; 1152,754;171,00344
1094,25; 1829,735;  246,010; 1158,062;173,64417
1094,79; 1791,965;  223,163; 1139,369;171,22812
1095,33; 1771,735;  229,394; 1123,754;172,45193
1095,87; 1754,196;  223,471; 1094,985;175,63986
1096,40; 1717,658;  200,548; 1065,985;175,29993
1096,94; 1709,658;  220,087; 1078,908;173,44370
1097,48; 1713,888;  224,240; 1080,831;173,90437
1098,02; 1656,427;  222,087; 1063,985;170,36984
1098,56; 1628,119;  200,548; 1018,908;174,44301
1099,10; 1607,581;  202,933; 1023,523;171,17530
1099,63; 1586,735;  211,933; 1004,062;173,55787
1100,17; 1599,735;  228,471; 1018,985;173,46491
1100,71; 1612,965;  240,779; 1003,523;179,90127

