
Integration time [ms]: 115,000
Averaging Nr. [scans]: 13
Smoothing Nr. [pixels]: 0
Data measured with spectrometer [name]: 2009305U1
Wave   ;Sample   ;Dark     ;Reference;Reflectance
[nm]   ;[counts] ;[counts] ;[counts] ;[%]

 175,72;  206,531;  176,239;  216,377;75,46806
 176,32;  229,707;  211,934;  220,629;204,39413
 176,92;  259,797;  225,163;  254,806;116,83749
 177,52;  266,176;  252,086;  276,497;57,72266
 178,12;  234,134;  223,549;  229,646;173,59872
 178,72;  276,893;  243,857;  246,426;1286,00585
 179,32;  252,081;  236,780;  245,502;175,42862
 179,92;  252,976;  232,933;  243,184;195,51635
 180,52;  252,090;  234,084;  251,849;101,35720
 181,12;  256,885;  235,010;  258,040;94,98278
 181,73;  278,617;  253,163;  272,610;130,88769
 182,33;  358,922;  298,008;  354,611;107,61594
 182,93;  274,748;  245,240;  267,679;131,50374
 183,53;  243,966;  227,319;  231,255;422,97873
 184,13;  256,938;  231,011;  230,121; 0,00000
 184,73;  280,191;  249,935;  276,206;115,16931
 185,33;  266,812;  222,716;  348,805;34,97236
 185,93;  270,965;  214,717;  380,479;33,93268
 186,53;  288,618;  241,332;  381,727;33,68101
 187,13;  309,101;  264,099;  406,630;31,57301
 187,73;  279,817;  220,102;  379,098;37,55805
 188,33;  276,121;  227,718;  376,187;32,60130
 188,93;  294,441;  231,182;  389,757;39,89212
 189,53;  292,089;  240,799;  389,798;34,42267
 190,13;  331,291;  271,649;  443,566;34,69226
 190,73;  276,122;  217,185;  377,425;36,78048
 191,34;  303,985;  254,183;  413,712;31,21812
 191,94;  282,096;  227,565;  367,514;38,96470
 192,54;  291,416;  237,868;  406,065;31,83660
 193,14;  312,873;  248,715;  393,108;44,43302
 193,74;  294,527;  249,561;  386,677;32,79426
 194,34;  301,646;  235,099;  379,479;46,09124
 194,94;  258,984;  206,792;  347,521;37,08655
 195,54;  242,074;  196,177;  321,772;36,54394
 196,14;  263,704;  218,484;  355,903;32,90703
 196,74;  257,610;  211,331;  351,478;33,02135
 197,34;  240,947;  187,252;  345,540;33,92243
 197,94;  266,012;  225,715;  362,779;29,40006
 198,54;  285,616;  217,484;  389,006;39,72237
 199,14;  251,913;  197,636;  381,096;29,58540
 199,74;  251,726;  198,097;  381,375;29,26080
 200,34;  251,106;  186,097;  382,635;33,07707
 200,94;  278,579;  223,637;  421,823;27,72235
 201,54;  263,359;  202,328;  428,459;26,98896
 202,14;  293,438;  211,635;  474,923;31,06972
 202,74;  265,838;  204,328;  476,128;22,63042
 203,34;  258,830;  195,558;  479,311;22,29840
 203,94;  226,885;  163,635;  500,548;18,77347
 204,54;  299,581;  228,869;  592,022;19,47166
 205,14;  277,980;  199,405;  597,661;19,72960
 205,74;  321,205;  218,481;  690,215;21,77587
 206,34;  281,615;  197,405;  690,439;17,07992
 206,94;  306,575;  203,328;  773,362;18,11254
 207,54;  278,188;  180,251;  804,961;15,67717
 208,14;  309,096;  195,097;  861,786;17,09925
 208,74;  322,014;  194,559;  953,337;16,79743
 209,34;  319,219;  193,636; 1030,265;15,01061
 209,94;  344,045;  202,328; 1148,580;14,97660
 210,54;  366,453;  198,866; 1237,375;16,13730
 211,14;  384,266;  209,174; 1365,714;15,13922
 211,73;  389,251;  201,175; 1462,293;14,91349
 212,33;  405,074;  218,791; 1597,159;13,51475
 212,93;  401,158;  196,636; 1668,394;13,89646
 213,53;  400,750;  181,790; 1767,846;13,80531
 214,13;  428,621;  176,403; 1856,152;15,01522
 214,73;  422,130;  178,481; 1880,384;14,31626
 215,33;  390,352;  156,405; 1915,118;13,30218
 215,93;  434,251;  188,327; 2037,402;13,29981
 216,53;  405,215;  142,559; 2075,324;13,58962
 217,13;  457,639;  210,866; 2307,296;11,77114
 217,73;  474,106;  181,250; 2505,729;12,59880
 218,33;  434,826;  162,403; 2685,388;10,79764
 218,93;  490,243;  172,632; 2992,680;11,26261
 219,53;  517,792;  174,942; 3296,897;10,98192
 220,13;  510,214;  151,557; 3577,759;10,46807
 220,73;  564,054;  167,405; 3938,368;10,51851
 221,32;  601,168;  178,251; 4361,644;10,10942
 221,92;  645,612;  192,249; 4765,641; 9,91305
 222,52;  672,456;  172,558; 5220,516; 9,90299
 223,12;  730,586;  167,481; 5680,122;10,21481
 223,72;  771,476;  185,019; 6134,170; 9,85782
 224,32;  828,166;  176,865; 6553,184;10,21437
 224,92;  848,298;  175,404; 6818,083;10,12987
 225,52;  897,619;  188,020; 7246,795;10,05272
 226,12;  898,662;  182,327; 7519,659; 9,76288
 226,72;  957,807;  155,174; 7864,594;10,41108
 227,31; 1002,016;  151,251; 8241,262;10,51625
 227,91; 1085,545;  174,405; 8608,273;10,80335
 228,51; 1141,872;  177,790; 9061,833;10,85184
 229,11; 1199,765;  166,020; 9428,961;11,16001
 229,71; 1258,862;  168,175; 9795,860;11,32866
 230,31; 1320,797;  163,326;10145,637;11,59521
 230,91; 1385,783;  163,483;10541,858;11,77737
 231,51; 1492,239;  147,173;10894,551;12,51529
 232,10; 1574,540;  152,172;11267,104;12,79691
 232,70; 1703,799;  167,484;11505,325;13,55034
 233,30; 1786,813;  192,789;11856,258;13,66681
 233,90; 1890,407;  163,789;12037,003;14,54213
 234,50; 1976,459;  175,558;12250,655;14,91417
 235,10; 2081,837;  157,404;12347,468;15,78690
 235,70; 2226,106;  192,020;12458,020;16,58312
 236,29; 2337,686;  182,251;12486,574;17,51770
 236,89; 2410,253;  165,022;12367,077;18,40044
 237,49; 2546,344;  177,173;12382,301;19,41127
 238,09; 2605,691;  176,789;12207,055;20,18993
 238,69; 2720,517;  193,099;12025,720;21,35975
 239,29; 2735,167;  168,328;11806,275;22,05577
 239,89; 2819,814;  178,791;11452,563;23,42626
 240,48; 2813,593;  173,635;11111,338;24,13631
 241,08; 2838,015;  163,097;10762,261;25,23707
 241,68; 2893,174;  198,558;10511,432;26,12865
 242,28; 2877,848;  162,404;10160,933;27,15843
 242,88; 2905,434;  190,480; 9825,661;28,17750
 243,48; 2936,531;  192,250; 9558,253;29,30045
 244,07; 2912,754;  186,482; 9286,172;29,96006
 244,67; 2934,413;  188,943; 9134,113;30,69221
 245,27; 2965,021;  182,329; 8936,369;31,78751
 245,87; 2973,602;  184,096; 8853,728;32,17560
 246,47; 3003,427;  172,329; 8804,009;32,79892
 247,06; 2985,695;  169,097; 8795,610;32,65048
 247,66; 3047,074;  170,943; 8817,762;33,26230
 248,26; 3121,864;  208,559; 8992,584;33,16594
 248,86; 3183,591;  189,559; 9141,797;33,44450
 249,46; 3166,195;  150,789; 9313,349;32,91009
 250,05; 3289,968;  191,405; 9693,550;32,60909
 250,65; 3334,189;  158,636;10006,744;32,24530
 251,25; 3489,016;  179,713;10412,907;32,33891
 251,85; 3606,550;  182,329;11056,103;31,49064
 252,44; 3682,454;  147,251;11624,928;30,80068
 253,04; 3864,670;  180,559;12334,676;30,31163
 253,64; 3919,961;  144,175;12999,837;29,37061
 254,24; 4136,078;  186,559;13928,194;28,74126
 254,84; 4243,734;  175,712;14774,119;27,86621
 255,43; 4406,321;  178,713;15718,690;27,20472
 256,03; 4523,629;  163,329;16666,213;26,42145
 256,63; 4647,463;  176,868;17718,668;25,48538
 257,23; 4696,483;  165,098;18500,507;24,71385
 257,82; 4780,586;  177,022;19474,686;23,85555
 258,42; 4751,572;  132,484;20270,264;22,93742
 259,02; 4853,615;  174,636;21174,808;22,28067
 259,62; 4807,862;  159,792;21804,596;21,47430
 260,21; 4752,465;  177,328;22295,978;20,68452
 260,81; 4648,960;  170,481;22823,178;19,77018
 261,41; 4547,699;  166,176;23209,931;19,01393
 262,01; 4487,572;  195,023;23642,910;18,30676
 262,60; 4302,945;  161,483;23968,584;17,39591
 263,20; 4200,274;  164,944;24178,655;16,80428
 263,80; 4056,287;  182,562;24384,042;16,00615
 264,40; 3851,481;  145,484;24473,227;15,23362
 264,99; 3730,003;  179,331;24635,359;14,51860
 265,59; 3569,662;  164,255;24795,929;13,82532
 266,19; 3420,022;  164,638;24886,859;13,16785
 266,78; 3356,265;  198,716;25019,817;12,72123
 267,38; 3174,140;  172,332;25091,828;12,04603
 267,98; 3074,967;  158,331;25004,990;11,73854
 268,58; 2968,196;  177,562;25077,419;11,20743
 269,17; 2830,421;  165,332;25112,785;10,68281
 269,77; 2774,248;  182,945;24923,644;10,47385
 270,37; 2654,410;  150,485;24758,337;10,17531
 270,96; 2590,960;  204,253;24703,174; 9,74209
 271,56; 2482,826;  167,868;24397,106; 9,55440
 272,16; 2399,118;  169,176;24154,837; 9,29698
 272,75; 2330,831;  166,561;24041,291; 9,06511
 273,35; 2317,639;  173,099;24093,138; 8,96545
 273,95; 2269,259;  175,176;23998,878; 8,78991
 274,54; 2232,529;  155,251;24001,451; 8,71115
 275,14; 2286,330;  180,253;24296,492; 8,73303
 275,74; 2208,920;  144,022;24387,065; 8,51748
 276,33; 2292,446;  190,099;24762,723; 8,55565
 276,93; 2299,392;  175,943;24987,120; 8,55844
 277,53; 2359,114;  174,867;25496,469; 8,62602
 278,12; 2414,744;  157,252;26003,751; 8,73423
 278,72; 2536,511;  194,867;26636,274; 8,85598
 279,32; 2579,678;  165,713;27171,463; 8,93871
 279,91; 2683,969;  163,021;27905,256; 9,08704
 280,51; 2784,497;  173,251;28428,361; 9,24168
 281,11; 2868,716;  174,098;29118,155; 9,30975
 281,70; 3019,158;  153,098;29568,424; 9,74342
 282,30; 3126,518;  159,098;30230,644; 9,86786
 282,90; 3233,024;  169,945;30561,185;10,07882
 283,49; 3419,375;  186,099;31199,186;10,42552
 284,09; 3567,588;  190,714;31628,304;10,74152
 284,69; 3715,064;  189,175;32037,341;11,07093
 285,28; 3828,006;  191,867;32500,794;11,25429
 285,88; 4041,701;  199,022;32695,762;11,82481
 286,47; 4106,442;  175,329;32693,137;12,08911
 287,07; 4340,712;  203,944;32809,646;12,68725
 287,67; 4496,839;  190,789;32982,022;13,13171
 288,26; 4689,262;  169,559;32869,266;13,82185
 288,86; 4906,544;  172,175;32963,147;14,43803
 289,46; 5244,825;  170,636;33023,814;15,44505
 290,05; 5472,281;  162,251;33047,628;16,14708
 290,65; 5781,961;  175,252;33285,329;16,93354
 291,24; 6140,479;  189,559;33411,430;17,91266
 291,84; 6497,463;  182,406;33467,438;18,97266
 292,44; 6821,166;  176,327;33666,984;19,84087
 293,03; 7245,776;  230,636;33835,995;20,87506
 293,63; 7576,925;  170,022;33925,161;21,94304
 294,22; 7983,035;  194,175;34192,898;22,90927
 294,82; 8263,403;  181,561;34111,735;23,81904
 295,41; 8506,312;  153,944;33869,501;24,77304
 296,01; 8903,912;  217,176;33826,800;25,84598
 296,61; 9072,348;  179,559;33699,024;26,53022
 297,20; 9228,976;  182,638;33244,688;27,36170
 297,80; 9466,518;  187,635;33052,862;28,23313
 298,39; 9542,858;  163,868;32744,796;28,78675
 298,99; 9803,212;  175,638;32519,890;29,76595
 299,58; 9971,293;  186,558;32371,911;30,40120
 300,18;10136,301;  207,097;32078,314;31,15414
 300,78;10163,189;  169,405;31723,868;31,67154
 301,37;10364,138;  186,639;31725,967;32,26923
 301,97;10583,341;  182,021;31752,405;32,94645
 302,56;10660,323;  166,099;31633,889;33,34910
 303,16;10762,218;  155,099;31597,477;33,73510
 303,75;10947,416;  174,405;31569,005;34,31485
 304,35;11226,148;  163,635;31819,100;34,94661
 304,94;11378,494;  180,098;31793,374;35,42308
 305,54;11450,322;  203,636;31684,952;35,72495
 306,13;11603,014;  149,173;31607,401;36,40968
 306,73;11635,518;  165,404;31473,524;36,63623
 307,33;11756,269;  185,020;31361,055;37,11585
 307,92;11918,259;  169,944;31395,096;37,62453
 308,52;12155,505;  165,099;31890,100;37,79482
 309,11;12468,530;  172,638;32427,632;38,12089
 309,71;12672,044;  155,177;32681,960;38,48172
 310,30;12911,008;  157,098;32836,795;39,02701
 310,90;13162,546;  179,329;33162,180;39,36354
 311,49;13352,735;  182,559;33344,317;39,71495
 312,09;13432,861;  142,636;33547,722;39,78504
 312,68;13760,442;  201,790;33927,769;40,20240
 313,28;13895,490;  152,559;33956,788;40,65447
 313,87;14052,075;  150,482;34176,314;40,85600
 314,47;14234,295;  167,253;34398,507;41,09415
 315,06;14311,852;  148,405;34567,733;41,14969
 315,66;14514,938;  158,943;34854,645;41,37687
 316,25;14440,875;  140,406;34689,418;41,39183
 316,85;14491,762;  139,559;34777,975;41,43435
 317,44;14635,869;  158,561;34947,829;41,61429
 318,04;14674,815;  148,945;34913,363;41,78373
 318,63;14712,606;  148,712;34929,575;41,87330
 319,22;14829,984;  174,253;35197,076;41,84623
 319,82;14853,326;  176,483;35096,106;42,03036
 320,41;14748,773;  161,945;35099,992;41,75055
 321,01;14825,237;  171,020;35141,349;41,90472
 321,60;14881,171;  166,714;35251,383;41,93985
 322,20;14797,335;  161,405;35121,065;41,86519
 322,79;14856,324;  191,790;35166,860;41,92853
 323,39;14776,436;  168,250;35279,984;41,60485
 323,98;14816,553;  153,251;35282,413;41,74111
 324,58;14691,900;  157,176;35187,689;41,49161
 325,17;14677,577;  167,637;35145,514;41,48319
 325,76;14577,241;  182,867;34943,934;41,40947
 326,36;14371,513;  147,174;34505,813;41,39960
 326,95;14290,653;  174,406;34216,453;41,46709
 327,55;14008,107;  161,560;33888,496;41,05486
 328,14;13938,274;  160,558;33455,672;41,38059
 328,74;13697,818;  193,637;33098,303;41,04032
 329,33;13539,678;  182,328;32807,741;40,94155
 329,92;13267,452;  159,869;32210,755;40,89616
 330,52;12939,998;  177,097;31505,485;40,73909
 331,11;12770,259;  174,790;31212,280;40,58147
 331,71;12479,276;  171,560;30432,102;40,67249
 332,30;12244,725;  186,406;30077,143;40,34132
 332,89;12002,790;  194,867;29511,339;40,27744
 333,49;11731,203;  191,483;28964,734;40,10572
 334,08;11447,866;  176,252;28472,291;39,83460
 334,68;11208,514;  178,944;28023,751;39,61087
 335,27;11057,566;  189,097;27739,620;39,44923
 335,86;10893,874;  198,252;27392,433;39,33055
 336,46;10700,795;  178,404;27143,820;39,02180
 337,05;10536,237;  173,175;26956,025;38,69290
 337,65;10413,755;  154,252;26747,263;38,57970
 338,24;10419,828;  213,636;26704,877;38,52666
 338,83;10288,739;  192,482;26645,103;38,16732
 339,43;10250,259;  167,791;26542,617;38,22762
 340,02;10155,085;  173,945;26436,655;38,00499
 340,61;10108,764;  160,482;26511,836;37,75245
 341,21;10074,587;  202,099;26614,149;37,37873
 341,80; 9979,844;  167,483;26464,883;37,31305
 342,40; 9946,602;  184,866;26529,250;37,05433
 342,99; 9964,098;  176,482;26685,878;36,92131
 343,58; 9967,986;  171,251;26786,510;36,80872
 344,18; 9947,665;  187,789;26883,705;36,55943
 344,77;10051,130;  173,791;27228,350;36,50896
 345,36;10034,423;  152,944;27547,530;36,07092
 345,96;10074,469;  186,790;27898,073;35,68106
 346,55;10111,666;  159,250;28039,876;35,69653
 347,14;10147,634;  148,712;28352,017;35,45302
 347,74;10235,602;  134,941;28802,237;35,23409
 348,33;10373,528;  176,788;29445,868;34,83792
 348,92;10543,371;  182,864;30050,130;34,68850
 349,52;10651,993;  153,249;30534,317;34,55686
 350,11;10633,143;  164,330;30849,386;34,11698
 350,70;10629,039;  157,636;30870,762;34,09423
 351,29;10455,397;  151,793;30630,485;33,80593
 351,89;10322,596;  176,946;30644,581;33,29976
 352,48;10267,237;  148,098;30744,072;33,07344
 353,07;10215,092;  171,481;30661,308;32,94086
 353,67;10134,984;  187,941;30661,298;32,64177
 354,26; 9933,645;  177,943;30285,990;32,40231
 354,85; 9763,410;  180,097;30287,588;31,83033
 355,45; 9666,835;  150,483;30048,817;31,82904
 356,04; 9569,156;  171,712;29992,195;31,51339
 356,63; 9394,960;  194,637;29722,345;31,15827
 357,22; 9292,378;  182,254;29642,724;30,92321
 357,82; 9168,799;  179,254;29568,586;30,58779
 358,41; 9017,692;  183,944;29398,069;30,23794
 359,00; 8882,577;  171,253;29186,052;30,02373
 359,60; 8763,048;  179,559;29089,288;29,69066
 360,19; 8655,648;  167,250;28900,900;29,54166
 360,78; 8552,195;  182,868;28752,546;29,29444
 361,37; 8377,777;  175,637;28566,902;28,88966
 361,97; 8277,255;  177,175;28530,155;28,56871
 362,56; 8085,627;  174,560;28176,133;28,25222
 363,15; 8033,021;  188,252;27971,246;28,23586
 363,74; 7866,426;  173,022;27662,683;27,98653
 364,34; 7663,523;  206,022;27333,877;27,49020
 364,93; 7451,311;  157,484;26881,684;27,29297
 365,52; 7256,182;  145,329;26525,510;26,95528
 366,11; 7119,357;  169,791;26163,872;26,73519
 366,71; 6966,599;  156,791;25776,076;26,58079
 367,30; 6811,862;  165,790;25473,044;26,26153
 367,89; 6716,817;  201,328;25232,258;26,02975
 368,48; 6515,666;  179,561;24906,241;25,62457
 369,07; 6386,962;  181,713;24451,608;25,56768
 369,67; 6250,784;  185,253;24105,611;25,35719
 370,26; 6082,510;  173,867;23873,858;24,93099
 370,85; 5946,787;  174,252;23550,537;24,69398
 371,44; 5889,267;  171,867;23370,237;24,64569
 372,03; 5741,149;  156,637;23193,697;24,24143
 372,63; 5631,092;  153,483;22877,551;24,10488
 373,22; 5518,997;  163,713;22601,975;23,86675
 373,81; 5361,699;  151,098;22258,948;23,56901
 374,40; 5274,208;  157,866;21988,723;23,43629
 374,99; 5199,736;  160,945;21684,224;23,41089
 375,59; 5017,990;  159,635;21418,913;22,85287
 376,18; 5007,449;  193,021;21403,678;22,69815
 376,77; 4898,550;  175,021;21085,997;22,58876
 377,36; 4844,831;  193,098;21072,078;22,27950
 377,95; 4747,916;  179,791;20770,557;22,18531
 378,55; 4676,776;  157,790;20539,965;22,17127
 379,14; 4610,589;  164,637;20564,566;21,79396
 379,73; 4548,542;  170,483;20364,577;21,67990
 380,32; 4548,958;  182,867;20445,975;21,54699
 380,91; 4476,093;  165,330;20277,027;21,43411
 381,50; 4482,286;  181,637;20290,182;21,38717
 382,10; 4409,881;  159,406;20190,898;21,21896
 382,69; 4355,095;  155,867;20114,568;21,03959
 383,28; 4359,096;  188,560;20055,244;20,99261
 383,87; 4294,690;  162,483;19910,528;20,92464
 384,46; 4249,051;  171,330;19836,502;20,73575
 385,05; 4268,352;  193,637;19833,439;20,74723
 385,64; 4220,896;  161,022;19814,872;20,65689
 386,24; 4212,964;  152,869;19756,098;20,71136
 386,83; 4175,681;  186,100;19744,215;20,39860
 387,42; 4212,521;  190,791;19875,815;20,43041
 388,01; 4249,292;  179,178;20018,150;20,51575
 388,60; 4259,718;  176,792;20248,923;20,34127
 389,19; 4285,118;  154,948;20518,679;20,28199
 389,78; 4339,892;  164,025;20750,651;20,28437
 390,37; 4477,897;  214,023;21186,993;20,33033
 390,96; 4452,811;  178,869;21368,206;20,17025
 391,56; 4497,103;  167,794;21459,411;20,33340
 392,15; 4537,811;  162,409;21772,680;20,24686
 392,74; 4558,684;  146,796;21948,826;20,23613
 393,33; 4662,876;  160,256;22265,505;20,36901
 393,92; 4766,414;  189,258;22553,240;20,46664
 394,51; 4782,338;  156,641;22829,766;20,40168
 395,10; 4861,504;  185,414;23114,549;20,39366
 395,69; 4901,925;  170,491;23248,411;20,50200
 396,28; 4982,752;  189,338;23335,047;20,70973
 396,87; 4974,046;  194,724;23425,208;20,57349
 397,46; 5045,337;  190,495;23585,477;20,75164
 398,06; 5126,438;  193,035;23669,499;21,01425
 398,65; 5108,859;  179,116;23892,754;20,78864
 399,24; 5221,786;  198,885;23988,985;21,11341
 399,83; 5189,611;  178,276;23940,630;21,08939
 400,42; 5251,620;  206,819;24092,641;21,12048
 401,01; 5336,601;  178,902;24273,148;21,40635
 401,60; 5368,506;  192,679;24311,313;21,45987
 402,19; 5407,299;  205,069;24262,482;21,62423
 402,78; 5467,582;  220,079;24386,919;21,71365
 403,37; 5405,383;  191,857;24237,918;21,68141
 403,96; 5427,073;  198,098;24082,316;21,89301
 404,55; 5458,176;  217,956;23963,646;22,06809
 405,14; 5411,605;  193,043;23849,033;22,06021
 405,73; 5483,668;  217,671;23709,315;22,41647
 406,32; 5540,818;  206,526;23650,839;22,75303
 406,91; 5499,975;  210,305;23438,841;22,77229
 407,50; 5508,962;  205,002;23254,443;23,01123
 408,09; 5487,786;  180,775;23033,321;23,22285
 408,68; 5520,489;  195,469;22862,291;23,49257
 409,27; 5516,748;  181,543;22610,369;23,78727
 409,86; 5554,101;  200,459;22544,737;23,95979
 410,45; 5602,731;  221,452;22443,953;24,21545
 411,04; 5627,600;  237,138;22448,357;24,26910
 411,63; 5562,195;  220,591;22151,746;24,35624
 412,22; 5603,104;  214,430;21951,430;24,79033
 412,81; 5578,386;  231,119;21704,362;24,90200
 413,40; 5566,201;  243,270;21441,770;25,10994
 413,99; 5566,631;  264,040;21081,094;25,47234
 414,58; 5453,703;  218,885;20678,324;25,58632
 415,17; 5454,353;  213,504;20453,641;25,89335
 415,76; 5428,209;  211,661;20265,794;26,01234
 416,35; 5441,627;  202,582;20074,317;26,36430
 416,94; 5513,612;  227,660;20097,464;26,60294
 417,53; 5580,633;  216,196;20200,077;26,84382
 418,12; 5618,321;  202,580;20275,076;26,98091
 418,71; 5834,352;  227,423;20627,785;27,48446
 419,30; 5913,359;  222,272;20746,353;27,72883
 419,89; 6013,841;  215,887;20936,746;27,98124
 420,48; 6164,560;  237,500;21154,960;28,33547
 421,07; 6245,624;  223,807;21303,048;28,56752
 421,66; 6273,029;  202,883;21350,228;28,70406
 422,25; 6362,963;  215,649;21401,329;29,01636
 422,84; 6395,938;  237,110;21426,490;29,06564
 423,43; 6413,604;  219,265;21156,431;29,58538
 424,02; 6412,976;  235,495;20902,596;29,89041
 424,60; 6280,204;  202,184;20473,524;29,98332
 425,19; 6284,157;  225,647;20175,271;30,36904
 425,78; 6298,461;  240,186;20022,685;30,62442
 426,37; 6312,795;  231,338;19876,821;30,95600
 426,96; 6334,146;  230,723;19783,638;31,21490
 427,55; 6319,540;  219,644;19652,922;31,38892
 428,14; 6306,938;  199,181;19444,821;31,73579
 428,73; 6348,690;  223,337;19263,012;32,17152
 429,32; 6311,326;  235,569;19202,049;32,03419
 429,91; 6404,611;  249,875;19173,334;32,52437
 430,50; 6393,477;  233,797;19094,344;32,65908
 431,08; 6384,015;  250,181;18933,791;32,83003
 431,67; 6467,917;  286,872;18905,631;33,19794
 432,26; 6433,028;  296,102;18745,246;33,26402
 432,85; 6391,496;  317,487;18395,740;33,59843
 433,44; 6343,345;  312,255;18133,559;33,84202
 434,03; 6263,798;  342,022;17695,758;34,12392
 434,62; 6135,815;  310,101;17215,162;34,46136
 435,21; 6114,141;  324,333;16992,491;34,73574
 435,79; 6102,330;  309,330;16909,247;34,89776
 436,38; 6104,861;  310,098;16758,093;35,23082
 436,97; 6119,031;  303,867;16607,577;35,66774
 437,56; 6082,146;  308,941;16465,781;35,73227
 438,15; 6044,195;  281,634;16353,092;35,85587
 438,74; 6099,090;  298,403;16405,496;36,01325
 439,33; 6134,747;  270,711;16356,282;36,45525
 439,91; 6189,741;  236,479;16410,297;36,80802
 440,50; 6328,629;  281,940;16444,821;37,41096
 441,09; 6364,265;  277,400;16525,340;37,46238
 441,68; 6435,383;  268,783;16548,389;37,87929
 442,27; 6385,794;  251,784;16509,568;37,72968
 442,86; 6431,993;  225,473;16522,899;38,08282
 443,44; 6568,678;  238,474;16566,157;38,76977
 444,03; 6624,024;  276,165;16663,942;38,73533
 444,62; 6580,629;  243,934;16586,123;38,77506
 445,21; 6540,748;  252,935;16352,093;39,05678
 445,80; 6583,838;  274,241;16328,009;39,30290
 446,39; 6560,944;  267,549;16060,943;39,84828
 446,97; 6441,952;  231,777;15859,550;39,73807
 447,56; 6394,884;  244,006;15688,833;39,82484
 448,15; 6370,898;  247,008;15457,759;40,26027
 448,74; 6314,443;  263,008;15203,685;40,50308
 449,33; 6292,660;  248,776;15094,481;40,71133
 449,91; 6186,322;  254,928;14884,349;40,54428
 450,50; 6137,814;  236,390;14632,699;40,99262
 451,09; 6142,084;  256,313;14522,392;41,25710
 451,68; 6130,418;  277,004;14475,127;41,22668
 452,26; 6121,071;  263,157;14303,420;41,72225
 452,85; 6070,071;  255,004;14205,988;41,68213
 453,44; 6139,522;  259,540;14222,480;42,11134
 454,03; 6116,587;  235,926;14222,181;42,04600
 454,61; 6151,716;  233,540;14135,743;42,57006
 455,20; 6226,851;  268,000;14327,598;42,38280
 455,79; 6312,631;  265,310;14302,277;43,08140
 456,38; 6339,866;  270,768;14375,037;43,03022
 456,97; 6428,842;  247,461;14459,903;43,49274
 457,55; 6490,093;  258,460;14465,683;43,86243
 458,14; 6491,409;  278,461;14494,376;43,70417
 458,73; 6443,826;  266,075;14408,714;43,68174
 459,31; 6514,858;  297,766;14431,468;43,98771
 459,90; 6587,734;  292,844;14493,663;44,32765
 460,49; 6661,469;  307,613;14617,511;44,40183
 461,08; 6667,710;  260,227;14620,564;44,61931
 461,66; 6749,981;  269,074;14741,348;44,78154
 462,25; 6835,684;  274,765;14849,924;45,01439
 462,84; 6856,981;  305,611;14869,211;44,98455
 463,43; 6823,812;  225,532;14858,762;45,09107
 464,01; 6884,708;  279,839;14872,707;45,26094
 464,60; 6898,155;  298,840;14842,160;45,37695
 465,19; 6776,160;  251,377;14583,580;45,52533
 465,77; 6803,890;  260,222;14606,796;45,61136
 466,36; 6809,131;  279,763;14574,813;45,67573
 466,95; 6673,819;  265,378;14237,227;45,86681
 467,53; 6594,704;  272,683;13933,693;46,27785
 468,12; 6496,524;  290,914;13652,744;46,44281
 468,71; 6414,222;  276,146;13430,328;46,66254
 469,29; 6267,849;  252,144;13139,336;46,67972
 469,88; 6164,043;  266,682;12926,338;46,58389
 470,47; 6231,276;  320,834;12918,849;46,91566
 471,06; 6204,472;  276,142;12893,327;46,98615
 471,64; 6318,074;  281,373;12979,937;47,53846
 472,23; 6269,804;  258,832;13007,110;47,15125
 472,81; 6361,514;  250,218;13114,976;47,50417
 473,40; 6430,275;  267,986;13240,975;47,50092
 473,99; 6608,220;  325,986;13445,692;47,88396
 474,57; 6632,079;  254,986;13513,881;48,09671
 475,16; 6719,585;  283,448;13680,790;48,04040
 475,75; 6831,177;  295,985;13818,814;48,32710
 476,33; 6868,526;  299,676;13907,279;48,27338
 476,92; 6952,511;  296,909;13974,870;48,65932
 477,51; 6981,669;  286,599;14099,874;48,46837
 478,09; 7029,866;  291,061;14109,999;48,76500
 478,68; 7026,318;  288,830;14023,796;49,05355
 479,27; 7040,208;  315,215;14085,166;48,83818
 479,85; 6995,055;  281,368;13996,598;48,95060
 480,44; 7080,285;  273,522;14109,383;49,19653
 481,02; 7449,704;  282,521;15040,352;48,56529
 481,61; 8495,427;  309,060;16960,272;49,16379
 482,20; 9263,373;  303,136;18418,989;49,46075
 482,78; 9793,499;  327,291;19377,022;49,69208
 483,37;10098,296;  316,827;20002,822;49,68745
 483,95;10326,521;  356,750;20363,482;49,83208
 484,54;10438,156;  359,752;20595,702;49,80445
 485,13;10402,736;  329,671;20633,139;49,61253
 485,71;10347,361;  302,980;20348,881;50,10691
 486,30;10309,635;  341,672;20188,775;50,22377
 486,88;10169,144;  363,133;19891,302;50,21470
 487,47; 9772,807;  358,133;19249,214;49,83661
 488,05; 9448,278;  344,363;18461,434;50,25048
 488,64; 8809,572;  339,054;17309,615;49,91301
 489,23; 8077,744;  352,516;15703,760;50,32314
 489,81; 6801,275;  354,516;13150,773;50,38004
 490,40; 6285,567;  311,362;12205,489;50,22819
 490,98; 6164,864;  294,285;11953,332;50,35213
 491,57; 6065,137;  322,670;11732,563;50,32884
 492,15; 6057,706;  314,284;11727,361;50,32316
 492,74; 6030,979;  303,671;11646,115;50,49449
 493,32; 5994,481;  323,746;11543,241;50,54359
 493,91; 5935,045;  305,899;11490,144;50,33103
 494,50; 5911,144;  311,051;11441,741;50,31218
 495,08; 5871,069;  304,359;11304,957;50,60370
 495,67; 5933,928;  308,438;11340,728;50,99113
 496,25; 5860,079;  267,591;11205,805;51,12798
 496,84; 5855,787;  273,130;11166,841;51,24660
 497,42; 5850,312;  262,283;11075,222;51,67909
 498,01; 5836,957;  305,745;11128,401;51,10771
 498,59; 5808,736;  249,744;11004,100;51,69061
 499,18; 5803,240;  256,822;11018,053;51,54074
 499,76; 5797,902;  280,821;10932,366;51,79606
 500,35; 5680,704;  273,281;10723,427;51,74495
 500,93; 5666,731;  269,283;10654,821;51,97081
 501,52; 5616,067;  269,129;10614,694;51,68338
 502,10; 5631,192;  269,281;10616,285;51,82090
 502,69; 5547,737;  257,664;10453,796;51,88313
 503,27; 5462,032;  241,974;10276,758;52,01964
 503,86; 5444,578;  252,357;10235,548;52,00964
 504,44; 5358,003;  248,126;10108,781;51,82087
 505,03; 5226,322;  236,126; 9868,908;51,80431
 505,61; 5175,339;  234,587; 9763,068;51,85246
 506,19; 5115,840;  258,741; 9651,530;51,71093
 506,78; 5024,389;  232,201; 9479,953;51,82003
 507,36; 4931,918;  251,357; 9286,946;51,80139
 507,95; 4842,023;  249,200; 9146,084;51,62282
 508,53; 4791,170;  237,432; 9044,650;51,70462
 509,12; 4749,435;  251,893; 8852,802;52,29147
 509,70; 4682,746;  266,893; 8712,712;52,28449
 510,29; 4625,642;  269,046; 8581,502;52,41045
 510,87; 4456,533;  246,278; 8374,779;51,79620
 511,46; 4388,175;  238,893; 8224,590;51,95891
 512,04; 4295,300;  251,739; 8077,734;51,66834
 512,62; 4230,372;  261,201; 7960,177;51,55453
 513,21; 4171,146;  226,892; 7788,365;52,16250
 513,79; 4090,975;  247,505; 7638,547;52,00173
 514,38; 3986,377;  220,121; 7479,199;51,88339
 514,96; 3972,468;  269,198; 7369,881;52,15371
 515,54; 3854,775;  235,275; 7277,389;51,39792
 516,13; 3843,332;  245,890; 7174,012;51,92521
 516,71; 3741,564;  241,043; 7042,984;51,46357
 517,30; 3642,535;  229,503; 6925,173;50,97372
 517,88; 3616,207;  267,965; 6837,488;50,96629
 518,46; 3556,011;  242,042; 6709,210;51,24297
 519,05; 3553,876;  243,502; 6677,957;51,44761
 519,63; 3520,345;  246,657; 6593,944;51,57617
 520,22; 3487,281;  255,040; 6529,659;51,51294
 520,80; 3418,487;  248,117; 6459,927;51,03778
 521,38; 3414,224;  268,887; 6475,789;50,67484
 521,97; 3382,505;  242,808; 6411,135;50,90030
 522,55; 3421,473;  246,424; 6397,907;51,61437
 523,13; 3383,659;  245,115; 6349,413;51,41532
 523,72; 3366,067;  250,042; 6333,987;51,21719
 524,30; 3465,525;  267,038; 6475,268;51,52011
 524,89; 3433,250;  235,424; 6475,171;51,24928
 525,47; 3528,277;  260,884; 6593,415;51,59695
 526,05; 3526,306;  231,807; 6667,627;51,19005
 526,64; 3611,781;  261,729; 6744,633;51,67517
 527,22; 3669,838;  258,730; 6923,624;51,18023
 527,80; 3783,266;  288,268; 7049,642;51,69065
 528,39; 3807,013;  247,883; 7124,865;51,75424
 528,97; 3894,107;  246,498; 7290,410;51,78385
 529,55; 3991,912;  260,269; 7517,821;51,41737
 530,14; 4082,202;  273,113; 7733,311;51,05883
 530,72; 4139,304;  251,575; 7806,535;51,45929
 531,30; 4213,947;  240,036; 7949,347;51,54690
 531,89; 4305,387;  243,190; 8060,554;51,96377
 532,47; 4355,928;  285,882; 8193,540;51,46968
 533,05; 4371,838;  279,729; 8276,056;51,17486
 533,63; 4397,682;  283,036; 8348,519;51,01550
 534,22; 4368,253;  247,112; 8375,286;50,70193
 534,80; 4477,078;  282,496; 8404,433;51,64510
 535,38; 4521,570;  322,728; 8535,996;51,12266
 535,97; 4450,840;  267,574; 8477,382;50,95449
 536,55; 4525,602;  320,111; 8568,904;50,98311
 537,13; 4463,355;  322,421; 8487,202;50,71702
 537,71; 4502,534;  358,113; 8523,551;50,75565
 538,30; 4479,883;  391,112; 8644,246;49,54204
 538,88; 4552,059;  413,957; 8682,565;50,04593
 539,46; 4674,122;  468,419; 8886,589;49,95983
 540,05; 4684,154;  494,572; 9053,679;48,94882
 540,63; 4819,230;  539,957; 9234,648;49,21708
 541,21; 4864,239;  559,956; 9382,760;48,78588
 541,79; 4940,294;  613,880; 9523,505;48,55888
 542,38; 5008,794;  647,034; 9641,720;48,49264
 542,96; 5109,848;  650,879; 9843,390;48,50654
 543,54; 5187,582;  672,418;10010,159;48,35392
 544,12; 5257,806;  649,726;10193,280;48,28474
 544,70; 5306,055;  620,648;10278,150;48,51572
 545,29; 5396,387;  633,034;10494,357;48,30339
 545,87; 5415,371;  591,187;10505,428;48,65913
 546,45; 5390,620;  556,880;10536,496;48,43613
 547,03; 5434,257;  543,803;10577,875;48,73848
 547,62; 5513,236;  517,187;10757,852;48,78638
 548,20; 5529,037;  496,571;10926,865;48,24855
 548,78; 5622,048;  484,261;10996,873;48,87260
 549,36; 5662,130;  440,954;11236,228;48,36538
 549,94; 5764,110;  398,725;11380,386;48,85768
 550,53; 5835,466;  407,108;11622,701;48,40010
 551,11; 5928,952;  379,876;11786,112;48,64949
 551,69; 6092,120;  379,185;12101,132;48,73708
 552,27; 6202,322;  341,493;12354,289;48,78822
 552,85; 6394,062;  359,261;12791,756;48,54055
 553,44; 6525,912;  341,185;13065,187;48,60677
 554,02; 6701,190;  358,108;13463,714;48,39976
 554,60; 6811,301;  302,184;13792,329;48,25090
 555,18; 7027,339;  330,108;14250,743;48,11010
 555,76; 7214,740;  313,031;14592,996;48,33141
 556,34; 7405,999;  316,491;15034,886;48,16767
 556,93; 7622,678;  307,108;15418,478;48,41103
 557,51; 7749,448;  296,645;15808,650;48,04539
 558,09; 7937,799;  319,185;16208,481;47,94809
 558,67; 8081,710;  311,413;16605,017;47,68924
 559,25; 8264,685;  326,029;16858,468;48,01866
 559,83; 8348,017;  304,874;17220,141;47,54961
 560,41; 8554,455;  295,184;17658,299;47,56791
 561,00; 8684,116;  305,644;17964,349;47,44669
 561,58; 8750,885;  305,184;18198,794;47,19954
 562,16; 8931,523;  291,107;18535,033;47,36051
 562,74; 9113,607;  274,415;18920,020;47,40631
 563,32; 9201,589;  278,182;19425,170;46,60476
 563,90; 9401,643;  298,721;19734,376;46,83620
 564,48; 9569,526;  310,107;20128,558;46,72121
 565,06; 9790,295;  290,644;20677,928;46,59596
 565,65;10076,788;  295,797;21411,651;46,32060
 566,23;10433,764;  353,644;22074,577;46,40740
 566,81;10695,180;  290,106;22813,189;46,19738
 567,39;11093,836;  312,413;23749,654;46,00125
 567,97;11376,835;  317,798;24445,760;45,83494
 568,55;11719,272;  312,721;25282,074;45,68221
 569,13;12036,598;  300,875;25985,573;45,69150
 569,71;12407,018;  298,800;26976,138;45,38766
 570,29;12877,854;  340,646;27965,534;45,38374
 570,87;13178,110;  332,800;28807,390;45,11148
 571,45;13486,392;  317,644;29504,075;45,11942
 572,03;13524,777;  271,182;29935,400;44,67873
 572,61;13808,987;  278,567;30658,437;44,53745
 573,20;14116,689;  313,876;31279,977;44,57395
 573,78;14358,831;  300,336;32070,451;44,25069
 574,36;14630,122;  303,490;32659,967;44,27748
 574,94;14699,025;  350,028;32969,530;43,98901
 575,52;14736,294;  322,257;33286,439;43,72636
 576,10;14996,514;  372,181;33829,419;43,71052
 576,68;15157,821;  356,028;34304,094;43,60129
 577,26;15353,117;  376,718;34970,970;43,29158
 577,84;15606,109;  374,259;35561,855;43,28756
 578,42;15697,556;  397,797;35907,543;43,08608
 579,00;15693,149;  367,336;36066,117;42,93092
 579,58;15718,695;  394,951;36358,705;42,60885
 580,16;15697,233;  386,258;36366,522;42,55382
 580,74;15726,077;  393,027;36608,613;42,33826
 581,32;15689,087;  385,489;36676,432;42,16919
 581,90;15659,256;  404,104;36700,500;42,02938
 582,48;15635,782;  394,796;36762,572;41,90794
 583,06;15669,617;  408,489;36882,136;41,84152
 583,64;15682,080;  407,412;37150,429;41,57162
 584,22;15482,135;  409,103;37069,976;41,11476
 584,80;15458,467;  424,950;36926,307;41,18619
 585,38;15193,593;  430,491;36498,816;40,93093
 585,96;15168,442;  400,028;36510,096;40,89833
 586,54;15141,942;  417,411;36434,899;40,88162
 587,12;15152,314;  384,873;36671,924;40,69617
 587,70;15216,440;  411,336;36772,495;40,71681
 588,28;15140,425;  398,335;36987,799;40,29053
 588,86;15184,287;  411,411;37134,744;40,22749
 589,44;15096,643;  381,487;37139,135;40,03291
 590,02;15137,881;  378,718;37355,737;39,91442
 590,59;15146,272;  354,488;37591,492;39,72335
 591,17;15159,768;  357,101;37811,448;39,52189
 591,75;15212,895;  359,025;37960,898;39,50301
 592,33;15269,398;  371,871;38254,145;39,32585
 592,91;15284,412;  326,101;38606,306;39,07584
 593,49;15388,618;  333,947;38912,389;39,02353
 594,07;15432,872;  341,716;39061,906;38,97490
 594,65;15415,434;  357,642;39133,911;38,83249
 595,23;15467,190;  347,718;39574,230;38,54401
 595,81;15553,919;  350,795;39762,091;38,57555
 596,39;15535,126;  349,871;39896,005;38,39884
 596,97;15513,698;  337,178;40114,666;38,15354
 597,55;15422,547;  327,026;39943,849;38,10382
 598,12;15398,424;  316,254;40022,096;37,98476
 598,70;15278,001;  316,870;40076,357;37,62908
 599,28;15353,341;  339,024;40361,354;37,51485
 599,86;15292,123;  330,793;40412,698;37,32689
 600,44;15219,203;  300,024;40495,453;37,11661
 601,02;15197,290;  350,099;40514,998;36,96559
 601,60;15092,103;  330,640;40527,074;36,72332
 602,18;14956,140;  303,946;40587,644;36,37251
 602,75;14870,767;  305,564;40724,692;36,03542
 603,33;14807,132;  325,947;40591,378;35,96431
 603,91;14728,248;  316,792;40690,319;35,69531
 604,49;14705,537;  325,639;40747,602;35,57447
 605,07;14668,621;  334,871;40763,081;35,45482
 605,65;14531,969;  344,485;40908,668;34,97540
 606,23;14509,649;  405,950;41020,458;34,72577
 606,80;14460,592;  452,256;41017,360;34,53297
 607,38;14419,087;  493,638;41115,470;34,28070
 607,96;14372,692;  546,795;41162,646;34,04064
 608,54;14325,640;  594,101;41212,721;33,80602
 609,12;14219,855;  616,641;41306,666;33,43133
 609,70;14183,729;  644,793;41349,678;33,26121
 610,27;14120,497;  652,641;41295,814;33,13682
 610,85;14064,928;  660,024;41419,558;32,88778
 611,43;13954,528;  677,178;41371,614;32,62694
 612,01;13889,558;  640,871;41203,148;32,66258
 612,59;13796,256;  630,947;41214,166;32,44028
 613,16;13707,079;  606,026;41170,539;32,29683
 613,74;13572,164;  579,024;40990,914;32,15178
 614,32;13489,188;  540,408;41042,971;31,97027
 614,90;13437,133;  490,178;40866,286;32,06588
 615,48;13251,251;  452,487;40559,746;31,91134
 616,05;13119,379;  410,180;40471,966;31,72400
 616,63;13000,047;  401,104;40363,494;31,52700
 617,21;12936,947;  399,718;40268,994;31,44584
 617,79;12810,862;  387,333;40142,361;31,25021
 618,36;12763,215;  397,486;40069,057;31,17025
 618,94;12528,204;  336,410;39771,528;30,91608
 619,52;12411,505;  365,642;39429,093;30,83666
 620,10;12312,063;  354,487;39491,226;30,55333
 620,67;12201,387;  361,873;39350,492;30,36659
 621,25;12068,708;  372,409;39161,485;30,15359
 621,83;11997,676;  354,641;39088,347;30,05918
 622,41;11994,030;  391,026;39125,842;29,95497
 622,98;11754,762;  364,642;38758,549;29,66648
 623,56;11739,205;  365,181;38884,157;29,52837
 624,14;11567,799;  355,409;38728,291;29,21957
 624,72;11532,941;  341,718;38649,914;29,21365
 625,29;11399,084;  316,104;38666,309;28,89940
 625,87;11380,730;  360,641;38532,616;28,86958
 626,45;11225,418;  314,873;38446,873;28,61257
 627,02;11148,332;  335,256;38280,118;28,49681
 627,60;11044,918;  309,331;38281,586;28,27219
 628,18;10958,701;  300,795;38338,973;28,01897
 628,76;10919,990;  310,488;38379,025;27,86948
 629,33;10862,189;  323,334;38358,690;27,70805
 629,91;10732,217;  314,718;38329,687;27,40368
 630,49;10720,018;  344,488;38449,637;27,22868
 631,06;10694,076;  329,411;38535,475;27,12832
 631,64;10609,955;  330,488;38571,503;26,88074
 632,22;10489,021;  289,335;38453,021;26,72615
 632,79;10564,669;  314,489;38673,557;26,72166
 633,37;10501,470;  297,563;38843,835;26,47184
 633,95;10445,419;  304,873;38879,750;26,28795
 634,52;10420,194;  282,103;38992,354;26,18968
 635,10;10353,484;  293,872;39015,394;25,97938
 635,68;10345,493;  298,643;39256,610;25,78895
 636,25;10247,488;  287,567;39194,822;25,59914
 636,83;10263,683;  278,027;39495,718;25,46212
 637,41;10210,630;  282,258;39440,479;25,35450
 637,98;10254,730;  311,182;39708,412;25,23921
 638,56;10208,636;  313,182;39881,850;25,00831
 639,13;10138,972;  288,334;39933,633;24,84692
 639,71;10160,130;  304,950;40086,266;24,77339
 640,29; 9945,984;  256,796;39748,763;24,53458
 640,86; 9990,816;  264,949;40035,288;24,45508
 641,44; 9931,572;  279,949;40050,505;24,26826
 642,02; 9871,942;  299,488;40076,798;24,06511
 642,59; 9804,313;  274,949;40148,861;23,89874
 643,17; 9790,376;  281,334;40262,617;23,78373
 643,74; 9739,593;  280,180;40240,603;23,67195
 644,32; 9698,579;  297,872;40196,974;23,56120
 644,89; 9614,181;  294,641;40164,421;23,37495
 645,47; 9586,013;  303,641;40245,177;23,23990
 646,05; 9544,153;  290,411;40090,932;23,25030
 646,62; 9405,293;  289,641;40109,995;22,89194
 647,20; 9412,433;  289,718;40289,058;22,80716
 647,77; 9371,496;  265,487;40197,967;22,80351
 648,35; 9233,174;  256,026;40034,107;22,56808
 648,92; 9195,083;  298,949;40081,786;22,36174
 649,50; 9107,300;  255,026;40013,310;22,26523
 650,08; 9001,440;  261,410;39907,450;22,04515
 650,65; 8985,657;  262,333;40059,590;21,91941
 651,23; 8995,951;  243,564;40483,499;21,75050
 651,80; 9089,091;  258,179;41612,870;21,35407
 652,38; 9197,308;  261,872;42032,164;21,39184
 652,95; 9176,525;  233,256;42436,227;21,19109
 653,53; 9166,742;  276,564;42747,752;20,93226
 654,10; 9176,651;  289,718;42884,815;20,86375
 654,68; 9050,714;  250,641;42776,185;20,69362
 655,25; 8988,623;  264,872;42974,018;20,42596
 655,83; 8971,532;  245,179;43005,004;20,40783
 656,40; 8951,057;  284,795;42952,990;20,31082
 656,98; 8883,581;  253,179;42933,591;20,22099
 657,55; 8799,798;  261,410;42895,270;20,02725
 658,13; 8684,784;  252,641;42493,410;19,96210
 658,70; 8564,924;  269,102;42348,011;19,71492
 659,28; 8339,449;  260,640;41591,459;19,54669
 659,85; 8096,358;  256,948;40543,599;19,45908
 660,43; 8048,883;  275,948;40407,508;19,36863
 661,00; 8033,792;  262,486;40634,879;19,24906
 661,58; 7998,932;  249,794;40897,480;19,06415
 662,15; 7970,457;  239,333;41179,928;18,88376
 662,73; 8045,289;  299,948;41449,453;18,82244
 663,30; 8001,352;  268,563;41664,977;18,67985
 663,88; 8023,646;  270,948;41892,886;18,62647
 664,45; 8015,170;  255,486;42090,257;18,54841
 665,03; 8053,233;  264,717;42455,705;18,46014
 665,60; 8142,373;  312,102;42942,152;18,36796
 666,17; 8024,129;  271,255;43090,446;18,10607
 666,75; 8054,653;  261,025;43340,663;18,09121
 667,32; 8100,947;  289,948;43719,188;17,98558
 667,90; 8150,702;  266,101;43996,712;18,02994
 668,47; 8116,535;  294,640;44317,698;17,76772
 669,05; 8141,752;  269,486;44670,762;17,72982
 669,62; 8092,122;  245,178;44863,671;17,58675
 670,19; 8120,108;  254,794;44851,888;17,63638
 670,77; 8100,094;  265,793;45132,643;17,46122
 671,34; 8035,927;  268,793;45023,860;17,35476
 671,92; 8023,221;  253,947;45300,846;17,24708
 672,49; 7976,899;  269,947;45421,294;17,06915
 673,06; 7961,962;  224,024;45433,818;17,11562
 673,64; 7888,871;  255,947;45416,958;16,90158
 674,21; 7831,473;  237,255;45450,021;16,79662
 674,79; 7842,997;  262,255;45639,007;16,70623
 675,36; 7832,214;  276,947;45766,840;16,60867
 675,93; 7719,970;  253,332;45623,903;16,45701
 676,51; 7704,648;  281,870;45858,427;16,28639
 677,08; 7659,250;  268,101;45891,952;16,20019
 677,65; 7631,313;  263,947;45995,707;16,10995
 678,23; 7664,376;  268,485;46231,924;16,09081
 678,80; 7581,285;  257,101;46384,987;15,87800
 679,38; 7505,348;  241,639;46510,358;15,69896
 679,95; 7583,488;  267,485;46653,959;15,77184
 680,52; 7536,166;  250,639;47027,638;15,57502
 681,10; 7559,229;  270,331;47363,778;15,47752
 681,67; 7589,446;  272,562;47716,918;15,42203
 682,24; 7508,278;  236,254;47830,289;15,27928
 682,82; 7577,572;  250,716;48266,736;15,25919
 683,39; 7563,020;  279,331;48759,338;15,02411
 683,96; 7564,852;  243,869;48931,478;15,03664
 684,54; 7592,069;  237,408;49218,233;15,01539
 685,11; 7583,055;  268,254;49710,835;14,79454
 685,68; 7568,811;  255,023;50123,975;14,66601
 686,25; 7565,104;  242,254;50130,576;14,67849
 686,83; 7540,244;  243,715;50379,947;14,55341
 687,40; 7500,461;  228,023;50759,471;14,39191
 687,97; 7591,447;  276,331;51175,073;14,37190
 688,55; 7507,280;  237,869;51281,367;14,24160
 689,12; 7496,343;  225,254;51495,045;14,18201
 689,69; 7491,944;  232,023;51621,339;14,12730
 690,26; 7492,007;  242,869;51610,787;14,11219
 690,84; 7417,224;  241,946;51917,080;13,88536
 691,41; 7443,287;  250,638;51948,759;13,91279
 691,98; 7421,812;  256,561;52306,822;13,76602
 692,56; 7424,029;  235,253;52441,270;13,77001
 693,13; 7425,245;  294,869;52495,871;13,65946
 693,70; 7401,078;  274,176;52639,396;13,60999
 694,27; 7325,372;  250,715;52769,689;13,47067
 694,84; 7320,819;  243,561;52835,829;13,45684
 695,42; 7358,805;  284,023;52996,892;13,42136
 695,99; 7323,945;  250,099;53277,263;13,34004
 696,56; 7237,624;  243,099;53121,557;13,22755
 697,13; 7242,994;  264,022;53431,082;13,12650
 697,71; 7214,134;  219,638;53449,529;13,14017
 698,28; 7177,044;  251,253;53810,515;12,93108
 698,85; 7124,953;  218,330;53892,809;12,86761
 699,42; 7117,785;  225,715;54085,718;12,79627
 699,99; 7114,464;  265,253;54175,781;12,70477
 700,57; 7062,603;  265,868;54237,845;12,59308
 701,14; 7041,051;  245,176;54338,754;12,56318
 701,71; 7102,730;  249,330;54598,124;12,61003
 702,28; 7017,870;  256,407;54509,418;12,46283
 702,85; 7003,086;  258,484;54701,327;12,38841
 703,43; 6941,457;  273,714;54993,775;12,18519
 704,00; 6960,136;  279,483;55230,223;12,15753
 704,57; 6929,122;  259,791;55148,209;12,15071
 705,14; 6950,800;  288,330;55447,580;12,07861
 705,71; 6879,555;  304,483;55488,950;11,91472
 706,28; 6861,542;  265,714;55340,706;11,97608
 706,86; 6885,374;  295,252;55697,307;11,89508
 707,43; 6890,591;  310,022;55571,909;11,90797
 708,00; 6792,346;  290,252;55628,818;11,74966
 708,57; 6747,409;  268,098;55526,881;11,72540
 709,14; 6754,934;  293,791;55719,329;11,65734
 709,71; 6722,997;  276,560;55778,853;11,61472
 710,28; 6738,137;  279,637;56054,301;11,57963
 710,86; 6718,046;  291,175;56245,287;11,48597
 711,43; 6727,878;  290,406;56174,812;11,51926
 712,00; 6679,326;  274,637;56266,490;11,43861
 712,57; 6685,312;  275,791;56451,861;11,40970
 713,14; 6639,298;  262,252;56564,847;11,32638
 713,71; 6599,284;  270,021;56355,602;11,28501
 714,28; 6595,732;  257,560;56496,742;11,27003
 714,85; 6501,564;  242,790;56285,498;11,16786
 715,42; 6557,627;  253,098;56570,330;11,19467
 716,00; 6633,306;  284,329;56620,008;11,26990
 716,57; 6510,753;  247,636;56825,918;11,06983
 717,14; 6494,739;  228,329;56662,134;11,10400
 717,71; 6486,879;  227,636;56615,659;11,10031
 718,28; 6529,019;  255,405;56809,337;11,09315
 718,85; 6486,390;  227,252;56777,554;11,06827
 719,42; 6536,453;  251,790;56956,925;11,08306
 719,99; 6455,593;  222,405;56871,680;11,00312
 720,56; 6504,656;  244,328;57079,282;11,01493
 721,13; 6488,719;  243,867;57071,037;10,98920
 721,70; 6448,321;  235,405;56982,716;10,94839
 722,27; 6473,307;  254,867;57061,317;10,94671
 722,84; 6510,985;  280,867;57280,842;10,93004
 723,41; 6446,510;  234,251;57128,136;10,91903
 723,98; 6477,727;  241,328;57476,276;10,89614
 724,55; 6475,328;  262,328;57525,877;10,84983
 725,12; 6419,007;  207,636;57460,709;10,84897
 725,69; 6519,224;  237,020;57676,772;10,93703
 726,27; 6456,133;  233,020;57737,989;10,82187
 726,84; 6468,811;  240,636;58096,668;10,76495
 727,41; 6465,643;  251,251;57917,039;10,77657
 727,98; 6497,168;  263,020;58335,717;10,73508
 728,55; 6554,462;  283,020;58212,549;10,82598
 729,12; 6480,140;  230,328;58427,843;10,73897
 729,69; 6472,896;  268,559;58545,983;10,64621
 730,26; 6507,266;  275,251;58827,046;10,64359
 730,82; 6460,329;  245,712;58534,955;10,66169
 731,39; 6468,854;  244,097;58687,249;10,65096
 731,96; 6458,071;  238,866;58878,312;10,60584
 732,53; 6494,672;  269,251;59284,914;10,54876
 733,10; 6516,582;  270,558;59342,284;10,57363
 733,67; 6527,875;  277,097;59617,578;10,53375
 734,24; 6421,785;  258,020;59095,872;10,47585
 734,81; 6472,694;  285,097;59304,397;10,48402
 735,38; 6421,449;  263,097;59005,075;10,48373
 735,95; 6430,051;  264,789;58936,215;10,50812
 736,52; 6431,575;  280,096;59168,663;10,44596
 737,09; 6414,331;  276,635;58809,033;10,48598
 737,66; 6473,932;  316,712;59152,712;10,46506
 738,23; 6428,687;  248,866;59120,159;10,49717
 738,80; 6512,520;  294,635;59379,761;10,52360
 739,37; 6495,737;  293,866;59598,824;10,45759
 739,94; 6474,107;  277,865;59713,887;10,42506
 740,51; 6612,786;  326,250;59698,258;10,58838
 741,07; 6460,233;  267,865;59637,475;10,43020
 741,64; 6524,527;  288,404;59815,307;10,47614
 742,21; 6531,052;  274,096;59962,755;10,48265
 742,78; 6496,807;  246,327;59720,818;10,50951
 743,35; 6537,332;  261,634;60063,265;10,49419
 743,92; 6639,933;  301,942;60219,098;10,57792
 744,49; 6615,458;  279,250;60013,084;10,60740
 745,06; 6613,675;  268,250;60047,301;10,61480
 745,63; 6599,584;  252,865;60047,902;10,61412
 746,19; 6630,339;  258,942;59949,811;10,67399
 746,76; 6606,325;  272,557;60104,413;10,58595
 747,33; 6667,235;  253,865;60042,937;10,72666
 747,90; 6709,836;  273,173;60244,770;10,73285
 748,47; 6747,976;  286,096;60168,371;10,79097
 749,04; 6709,885;  282,942;60151,204;10,73514
 749,61; 6716,410;  291,480;60108,882;10,74090
 750,17; 6769,627;  278,634;60286,176;10,81696
 750,74; 6717,844;  284,557;60067,470;10,76108
 751,31; 6691,445;  257,634;59969,763;10,77471
 751,88; 6691,431;  244,788;59851,903;10,81522
 752,45; 6701,725;  272,480;59977,505;10,76835
 753,02; 6744,634;  267,557;59914,414;10,85904
 753,58; 6714,159;  256,403;59677,939;10,86770
 754,15; 6760,145;  268,326;59703,463;10,92253
 754,72; 6735,131;  247,172;59566,834;10,93728
 755,29; 6704,117;  243,634;59412,436;10,91873
 755,86; 6744,103;  261,480;59606,268;10,92366
 756,42; 6821,012;  268,710;59348,946;11,09051
 756,99; 6743,460;  222,864;59379,317;11,02263
 757,56; 6788,908;  245,787;59345,226;11,07138
 758,13; 6749,355;  201,480;59297,366;11,08009
 758,70; 6848,803;  227,326;59328,045;11,20372
 759,26; 6864,943;  219,787;59508,569;11,20812
 759,83; 6883,545;  217,249;59608,171;11,22444
 760,40; 6907,608;  215,556;59569,618;11,27480
 760,97; 6886,132;  191,941;59507,374;11,28575
 761,53; 6856,734;  167,787;59097,206;11,35078
 762,10; 6857,643;  188,864;59006,731;11,33802
 762,67; 6955,244;  215,556;58978,563;11,46927
 763,24; 6867,923;  171,864;58655,010;11,44955
 763,80; 6912,601;  215,941;58695,920;11,45120
 764,37; 6967,895;  221,633;58724,444;11,53152
 764,94; 6868,804;  202,479;58223,661;11,48947
 765,50; 6879,713;  200,941;58188,109;11,51767
 766,07; 6959,930;  250,941;58312,403;11,55498
 766,64; 6910,916;  222,402;57961,389;11,58405
 767,21; 6885,364;  218,479;57850,759;11,56797
 767,77; 6936,427;  245,017;57809,284;11,62424
 768,34; 6913,875;  254,633;57720,039;11,58826
 768,91; 6952,476;  249,171;57490,872;11,71053
 769,47; 6976,924;  242,094;57610,550;11,73960
 770,04; 6978,141;  264,094;57447,998;11,74115
 770,61; 6968,512;  238,556;57207,445;11,81339
 771,18; 6966,652;  229,017;57093,432;11,84860
 771,74; 7006,330;  251,786;57403,264;11,81867
 772,31; 7005,470;  254,632;57036,096;11,88916
 772,88; 6980,148;  219,555;56781,313;11,95259
 773,44; 7005,673;  231,325;56535,915;12,03161
 774,01; 7042,967;  242,017;56679,516;12,05041
 774,58; 7043,107;  224,786;56336,041;12,15143
 775,14; 7073,939;  214,171;56509,181;12,18539
 775,71; 7077,617;  233,863;56373,936;12,19050
 776,27; 7171,757;  273,632;56323,307;12,30716
 776,84; 7173,205;  278,171;56319,216;12,30354
 777,41; 7174,422;  255,324;56158,587;12,37691
 777,97; 7138,100;  248,324;55869,034;12,38707
 778,54; 7208,933;  248,632;55862,944;12,51531
 779,11; 7241,688;  258,170;55932,391;12,54354
 779,67; 7249,905;  230,093;55868,993;12,61673
 780,24; 7244,506;  253,863;55591,825;12,63264
 780,80; 7299,185;  263,401;55479,273;12,74232
 781,37; 7279,094;  252,939;55529,951;12,71081
 781,94; 7270,696;  254,862;55312,629;12,74268
 782,50; 7305,143;  256,170;55101,000;12,85258
 783,07; 7344,822;  272,401;55288,525;12,85518
 783,63; 7313,346;  230,247;55059,588;12,91845
 784,20; 7391,717;  255,478;55068,112;13,01933
 784,77; 7362,395;  249,401;54868,560;13,02289
 785,33; 7344,997;  226,170;54638,085;13,08321
 785,90; 7393,829;  246,554;54549,609;13,16183
 786,46; 7432,815;  265,939;54460,518;13,22434
 787,03; 7409,724;  237,016;54258,582;13,27749
 787,59; 7437,403;  245,708;54143,568;13,34319
 788,16; 7477,235;  241,785;54108,708;13,43208
 788,73; 7510,837;  245,400;54001,078;13,51566
 789,29; 7466,284;  241,631;53561,988;13,54952
 789,86; 7483,886;  246,016;53556,281;13,57688
 790,42; 7481,795;  255,093;53430,575;13,59029
 790,99; 7450,166;  254,246;53023,484;13,63658
 791,55; 7483,152;  236,016;53114,009;13,70539
 792,12; 7554,215;  259,092;53020,149;13,82672
 792,68; 7518,047;  239,939;52791,366;13,84950
 793,25; 7517,110;  247,015;52456,275;13,92491
 793,81; 7539,481;  277,400;52162,646;13,99643
 794,38; 7427,467;  221,708;51920,940;13,93785
 794,94; 7496,992;  227,323;51778,464;14,10186
 795,51; 7484,516;  243,708;51502,220;14,12606
 796,07; 7487,195;  253,015;51154,283;14,21218
 796,64; 7551,027;  272,477;51359,653;14,24731
 797,20; 7494,552;  240,938;50841,024;14,33518
 797,77; 7443,307;  231,246;50515,472;14,34259
 798,33; 7502,447;  230,861;50318,612;14,51769
 798,90; 7500,664;  267,554;50350,290;14,44232
 799,46; 7437,650;  243,092;49905,892;14,48682
 800,03; 7487,174;  251,246;49702,570;14,63243
 800,59; 7498,391;  264,246;49447,556;14,70854
 801,15; 7487,147;  256,169;49249,696;14,75905
 801,72; 7450,056;  253,246;48855,452;14,80758
 802,28; 7443,273;  285,707;48559,976;14,82688
 802,85; 7489,951;  252,861;48411,885;15,02749
 803,41; 7481,553;  252,553;48186,025;15,08132
 803,98; 7438,539;  238,861;47748,858;15,15403
 804,54; 7436,217;  241,938;47473,921;15,23180
 805,11; 7509,588;  251,168;47388,676;15,39839
 805,67; 7471,113;  264,322;47262,739;15,33411
 806,23; 7410,022;  257,015;46777,571;15,37601
 806,80; 7446,239;  271,091;46658,327;15,46793
 807,36; 7493,686;  276,399;46582,928;15,58590
 807,93; 7501,211;  277,322;46312,914;15,69196
 808,49; 7445,351;  234,784;45881,900;15,79633
 809,05; 7419,260;  223,399;45730,810;15,81250
 809,62; 7434,400;  256,707;45606,565;15,82738
 810,18; 7464,540;  257,399;45514,320;15,92495
 810,74; 7414,065;  234,322;45219,614;15,96020
 811,31; 7458,358;  232,553;44936,677;16,16362
 811,87; 7466,037;  234,860;44874,894;16,19886
 812,44; 7560,946;  272,783;44842,726;16,35219
 813,00; 7418,009;  212,168;44537,251;16,25680
 813,56; 7531,380;  244,552;44600,699;16,42800
 814,13; 7525,443;  239,937;44506,223;16,45836
 814,69; 7531,967;  247,860;44407,440;16,49497
 815,25; 7457,030;  219,245;43855,965;16,58646
 815,82; 7558,863;  256,783;43796,335;16,77114
 816,38; 7591,772;  262,783;43605,706;16,90931
 816,94; 7505,143;  220,245;43263,154;16,92473
 817,51; 7514,360;  215,629;43108,832;17,01605
 818,07; 7509,269;  223,091;42865,588;17,08666
 818,63; 7504,409;  240,398;42571,497;17,15999
 819,20; 7597,933;  235,398;42559,791;17,39549
 819,76; 7490,689;  223,552;42053,854;17,37290
 820,32; 7550,752;  272,244;42024,378;17,43266
 820,89; 7512,276;  255,167;41769,980;17,48077
 821,45; 7472,032;  234,475;41470,120;17,55170
 822,01; 7511,864;  249,629;41212,490;17,72883
 822,57; 7536,696;  259,783;41085,092;17,82452
 823,14; 7482,528;  225,475;40882,693;17,84936
 823,70; 7474,976;  218,706;40583,218;17,97686
 824,26; 7483,962;  228,936;40340,127;18,08729
 824,82; 7556,333;  252,552;40181,883;18,29177
 825,39; 7515,627;  227,859;39873,023;18,38249
 825,95; 7579,536;  256,398;39937,778;18,45485
 826,51; 7561,061;  249,552;39501,918;18,62693
 827,08; 7626,739;  270,244;39705,827;18,65446
 827,64; 7599,110;  260,936;39398,275;18,74980
 828,20; 7576,634;  233,859;39124,799;18,88043
 828,76; 7597,544;  245,474;39040,478;18,95107
 829,32; 7596,683;  254,321;38899,233;18,99956
 829,89; 7608,285;  212,321;38687,604;19,22264
 830,45; 7642,502;  229,936;38682,359;19,27724
 831,01; 7638,950;  221,936;38457,576;19,39817
 831,57; 7653,474;  234,628;38340,178;19,46920
 832,14; 7669,999;  231,167;38418,087;19,48005
 832,70; 7631,446;  232,705;38101,304;19,53793
 833,26; 7604,125;  220,320;37979,213;19,55514
 833,82; 7656,419;  230,705;37849,122;19,73957
 834,38; 7636,251;  225,320;37884,954;19,67871
 834,95; 7626,391;  213,936;37765,633;19,73933
 835,51; 7639,762;  192,166;37620,619;19,89822
 836,07; 7709,055;  232,859;37709,990;19,94869
 836,63; 7749,888;  244,320;37710,437;20,03295
 837,19; 7745,874;  231,782;37494,116;20,16538
 837,75; 7684,475;  204,012;37174,563;20,23357
 838,32; 7751,000;  244,935;37201,473;20,31052
 838,88; 7859,448;  252,320;37381,074;20,48851
 839,44; 7777,434;  237,243;37208,445;20,39477
 840,00; 7860,112;  233,551;37106,585;20,68330
 840,56; 7762,790;  210,089;36842,340;20,61763
 841,12; 7861,777;  211,474;36801,326;20,90826
 841,68; 7822,301;  209,012;36654,851;20,88932
 842,25; 7927,364;  217,320;36602,222;21,19023
 842,81; 7886,273;  215,012;36276,054;21,27299
 843,37; 7926,413;  205,704;36358,963;21,35550
 843,93; 7920,323;  223,320;36140,565;21,42983
 844,49; 8042,078;  230,396;36145,859;21,75019
 845,05; 7957,756;  204,089;36008,460;21,65565
 845,61; 8060,435;  240,858;36106,831;21,80222
 846,17; 8048,421;  225,781;35977,586;21,88041
 846,73; 8097,484;  228,396;35902,495;22,05827
 847,29; 8053,624;  204,012;35749,866;22,08306
 847,86; 8092,918;  213,242;35627,083;22,25027
 848,42; 8029,365;  204,858;35443,531;22,20432
 848,98; 8123,967;  219,704;35396,055;22,47039
 849,54; 8161,876;  211,242;35299,195;22,65916
 850,10; 8113,401;  226,627;35297,489;22,48811
 850,66; 8155,771;  202,088;35152,090;22,75732
 851,22; 8122,758;  196,627;35074,461;22,72541
 851,78; 8167,436;  250,242;35120,447;22,70475
 852,34; 8149,499;  227,011;34792,126;22,92047
 852,90; 8168,716;  210,165;34638,420;23,11634
 853,46; 8151,471;  207,703;34422,483;23,21736
 854,02; 8217,996;  222,473;34570,776;23,27778
 854,58; 8155,059;  206,550;34248,070;23,34945
 855,14; 8206,430;  188,088;34113,672;23,63509
 855,70; 8137,339;  181,088;34010,119;23,51900
 856,26; 8224,402;  230,857;33985,413;23,68138
 856,82; 8248,388;  211,011;33795,476;23,93183
 857,38; 8261,374;  232,780;33755,001;23,95007
 857,94; 8180,514;  223,318;33563,141;23,86694
 858,50; 8235,731;  227,472;33468,435;24,09154
 859,06; 8149,332;  212,857;33216,113;24,04755
 859,62; 8184,242;  238,165;33200,638;24,10643
 860,18; 8172,535;  211,703;32975,239;24,29784
 860,74; 8188,291;  191,164;32877,995;24,46590
 861,30; 8157,738;  198,703;32637,750;24,53536
 861,86; 8218,109;  234,241;32729,967;24,56898
 862,42; 8201,403;  211,241;32530,722;24,72243
 862,98; 8248,774;  233,549;32460,324;24,87132
 863,54; 8206,991;  232,703;32223,233;24,92703
 864,10; 8232,361;  218,780;32280,296;24,99439
 864,66; 8187,194;  197,164;32030,436;25,09962
 865,22; 8215,795;  218,395;31993,114;25,16907
 865,78; 8235,166;  226,164;31765,024;25,39408
 866,34; 8246,767;  217,549;31711,471;25,49450
 866,90; 8282,523;  224,010;31595,842;25,68710
 867,45; 8222,740;  234,779;31383,982;25,64419
 868,01; 8203,649;  225,010;31204,122;25,75490
 868,57; 8175,866;  220,856;30995,954;25,84885
 869,13; 8160,698;  209,933;30903,633;25,90357
 869,69; 8176,223;  210,702;30762,849;26,07188
 870,25; 8210,516;  195,010;30629,220;26,33716
 870,81; 8195,964;  223,625;30592,745;26,25147
 871,37; 8166,335;  225,087;30508,423;26,22316
 871,93; 8141,244;  240,317;30317,409;26,26892
 872,49; 8161,615;  224,779;30062,395;26,60010
 873,04; 8092,139;  209,471;29764,382;26,67126
 873,60; 8096,741;  195,702;29773,906;26,71237
 874,16; 8113,035;  228,471;29725,815;26,72974
 874,72; 8138,419;  209,394;29565,508;27,00979
 875,28; 8177,112;  227,240;29508,892;27,14967
 875,84; 8141,419;  215,625;29468,508;27,09406
 876,40; 8169,496;  221,163;29483,277;27,16254
 876,95; 8224,650;  228,779;29318,585;27,48685
 877,51; 8287,035;  241,625;29324,046;27,66417
 878,07; 8320,265;  256,240;29308,892;27,75659
 878,63; 8361,035;  221,702;29386,123;27,90843
 879,19; 8361,881;  236,317;29306,892;27,95116
 879,75; 8430,573;  231,317;29315,585;28,19138
 880,30; 8453,419;  218,010;29349,738;28,26955
 880,86; 8545,573;  260,933;29409,200;28,42241
 881,42; 8538,035;  217,240;29516,585;28,39925
 881,98; 8644,035;  230,702;29638,585;28,60911
 882,54; 8650,573;  214,394;29673,585;28,63683
 883,09; 8732,265;  239,779;29802,200;28,72730
 883,65; 8775,727;  208,317;29926,815;28,82854
 884,21; 8894,958;  241,702;30083,892;28,99672
 884,77; 8937,727;  218,471;30170,277;29,11095
 885,32; 8942,650;  213,240;30367,662;28,94902
 885,88; 9063,419;  256,702;30528,354;29,09229
 886,44; 9192,112;  226,394;30561,277;29,55580
 887,00; 9200,727;  239,856;30602,200;29,51311
 887,56; 9271,650;  223,163;30764,969;29,62656
 888,11; 9306,496;  210,317;30778,815;29,75671
 888,67; 9395,804;  252,317;31034,662;29,70367
 889,23; 9443,650;  237,471;31000,738;29,92588
 889,79; 9450,496;  212,702;30827,354;30,17442
 890,34; 9463,804;  218,702;30761,738;30,26910
 890,90; 9587,419;  276,702;31002,738;30,30237
 891,46; 9515,265;  214,625;30871,892;30,33747
 892,01; 9561,958;  241,317;30809,123;30,49169
 892,57; 9636,496;  249,317;30782,046;30,74464
 893,13; 9570,727;  211,471;30613,508;30,78496
 893,69; 9628,188;  211,548;30430,200;31,16168
 894,24; 9579,035;  224,471;30329,738;31,07285
 894,80; 9608,188;  227,702;30158,200;31,34090
 895,36; 9605,112;  225,394;30082,200;31,41568
 895,91; 9534,727;  223,856;29868,815;31,40794
 896,47; 9558,035;  225,548;29737,815;31,62240
 897,03; 9495,265;  215,394;29583,431;31,59854
 897,58; 9511,035;  230,087;29458,969;31,75266
 898,14; 9513,650;  234,163;29259,354;31,97046
 898,70; 9422,496;  203,548;29083,277;31,92187
 899,25; 9505,881;  218,240;29094,815;32,16323
 899,81; 9493,727;  238,702;28850,123;32,34731
 900,37; 9418,496;  202,471;28737,200;32,29757
 900,92; 9468,727;  223,317;28698,892;32,46786
 901,48; 9420,727;  218,087;28523,277;32,51220
 902,03; 9382,573;  210,010;28373,277;32,56924
 902,59; 9387,188;  215,394;28163,969;32,81668
 903,15; 9418,650;  235,317;28146,277;32,90225
 903,70; 9272,881;  234,163;27831,431;32,75222
 904,26; 9272,419;  207,010;27701,046;32,97228
 904,82; 9301,035;  216,856;27670,200;33,08952
 905,37; 9324,650;  218,010;27592,354;33,26706
 905,93; 9284,035;  218,625;27372,892;33,38484
 906,48; 9275,265;  227,548;27292,123;33,43011
 907,04; 9323,265;  232,317;27288,046;33,60082
 907,60; 9288,265;  207,010;26962,738;33,94135
 908,15; 9289,958;  206,087;26884,431;34,04961
 908,71; 9310,265;  240,087;26822,508;34,12097
 909,26; 9257,650;  211,471;26718,431;34,12756
 909,82; 9250,265;  234,625;26520,431;34,29851
 910,37; 9298,496;  255,010;26494,738;34,46486
 910,93; 9246,112;  204,702;26271,815;34,68512
 911,48; 9178,035;  205,933;26016,431;34,76144
 912,04; 9173,727;  208,779;25987,969;34,77591
 912,60; 9255,496;  217,779;25989,431;35,06844
 913,15; 9197,265;  222,548;25880,969;34,97767
 913,71; 9132,804;  204,702;25663,738;35,06850
 914,26; 9172,958;  196,548;25538,354;35,42135
 914,82; 9167,650;  218,317;25452,431;35,46522
 915,37; 9205,265;  205,779;25397,431;35,72408
 915,93; 9193,958;  239,010;25291,969;35,74407
 916,48; 9171,958;  205,394;25086,431;36,03774
 917,04; 9142,650;  228,702;25025,585;35,94786
 917,59; 9177,727;  237,010;24963,046;36,15912
 918,15; 9096,496;  187,548;24694,738;36,35238
 918,70; 9062,958;  216,163;24653,738;36,20160
 919,26; 9063,496;  216,702;24573,815;36,32119
 919,81; 9015,419;  205,856;24446,277;36,34245
 920,37; 8994,188;  212,625;24303,200;36,45228
 920,92; 8996,650;  234,010;24199,200;36,56403
 921,48; 8917,496;  203,317;23943,046;36,70715
 922,03; 8974,265;  214,471;23948,123;36,90875
 922,59; 8939,573;  201,779;23805,892;37,01810
 923,14; 8943,342;  198,240;23665,046;37,26584
 923,69; 8972,342;  228,625;23581,354;37,44195
 924,25; 8957,188;  232,779;23595,508;37,34328
 924,80; 8844,419;  216,087;23307,585;37,36584
 925,36; 8854,727;  209,163;23299,892;37,44171
 925,91; 8811,035;  211,856;23093,892;37,58048
 926,47; 8775,265;  187,625;23053,046;37,55732
 927,02; 8886,188;  232,010;22928,046;38,13079
 927,57; 8779,342;  217,933;22757,200;37,98442
 928,13; 8799,573;  203,625;22745,738;38,13284
 928,68; 8761,188;  208,702;22598,431;38,19826
 929,24; 8687,804;  185,163;22383,046;38,30384
 929,79; 8694,035;  199,471;22287,200;38,45829
 930,34; 8660,342;  209,163;22196,123;38,43723
 930,90; 8651,035;  195,548;22095,815;38,60906
 931,45; 8642,958;  212,394;22056,738;38,59380
 932,01; 8674,265;  218,394;21929,354;38,94748
 932,56; 8684,112;  227,779;21786,969;39,22380
 933,11; 8718,035;  226,471;21769,662;39,41646
 933,67; 8564,958;  203,240;21552,585;39,16616
 934,22; 8595,419;  212,087;21467,354;39,44120
 934,77; 8588,881;  226,163;21440,046;39,42097
 935,33; 8532,419;  223,779;21228,431;39,55619
 935,88; 8535,419;  215,317;21155,200;39,73328
 936,43; 8506,496;  197,394;21104,200;39,74353
 936,99; 8517,188;  212,394;20907,277;40,12970
 937,54; 8458,804;  194,010;20763,431;40,18000
 938,09; 8461,035;  214,394;20733,123;40,19080
 938,65; 8387,419;  213,779;20592,354;40,10899
 939,20; 8398,650;  194,163;20559,354;40,28681
 939,75; 8353,958;  198,163;20358,200;40,45526
 940,31; 8325,342;  182,087;20308,969;40,45960
 940,86; 8428,804;  219,702;20218,046;41,04891
 941,41; 8449,342;  256,394;20175,354;41,13141
 941,96; 8342,727;  203,471;20056,662;40,99722
 942,52; 8373,419;  214,394;20002,738;41,23147
 943,07; 8319,650;  190,163;19846,431;41,35824
 943,62; 8329,958;  202,240;19760,585;41,55626
 944,18; 8355,419;  196,548;19663,969;41,91038
 944,73; 8345,342;  207,087;19558,046;42,05608
 945,28; 8277,650;  181,702;19285,046;42,37974
 945,83; 8315,265;  199,240;19313,662;42,46022
 946,39; 8291,727;  202,856;19304,508;42,34645
 946,94; 8271,881;  230,548;19179,123;42,43766
 947,49; 8232,496;  200,163;19056,277;42,59803
 948,04; 8273,496;  219,010;19013,508;42,85556
 948,59; 8281,881;  227,317;18957,354;43,00346
 949,15; 8231,958;  188,394;18849,277;43,10387
 949,70; 8175,496;  194,933;18773,738;42,95520
 950,25; 8199,112;  226,779;18670,892;43,22427
 950,80; 8149,727;  171,625;18547,046;43,41725
 951,36; 8147,958;  177,010;18350,046;43,86140
 951,91; 8222,881;  223,087;18425,200;43,94981
 952,46; 8098,650;  183,933;18200,738;43,92964
 953,01; 8170,419;  222,856;18321,277;43,91302
 953,56; 8103,342;  177,702;18106,662;44,20580
 954,11; 8116,112;  216,087;18032,892;44,34030
 954,67; 8067,035;  198,779;17954,969;44,31275
 955,22; 8025,188;  180,779;17802,431;44,51574
 955,77; 8053,650;  221,625;17822,969;44,49674
 956,32; 8064,265;  243,010;17689,354;44,83034
 956,87; 8000,419;  188,702;17499,585;45,12605
 957,42; 8063,496;  204,471;17490,123;45,46560
 957,98; 7996,881;  195,240;17383,354;45,38974
 958,53; 7983,265;  222,471;17341,969;45,33307
 959,08; 7953,419;  194,163;17226,815;45,55518
 959,63; 7946,265;  192,087;17128,123;45,78509
 960,18; 7968,958;  215,163;17113,277;45,88556
 960,73; 7976,573;  205,010;17021,277;46,21456
 961,28; 7878,650;  186,933;16850,815;46,15801
 961,83; 7912,881;  213,087;16829,277;46,33911
 962,39; 7806,727;  189,856;16719,508;46,08005
 962,94; 7814,188;  223,317;16656,815;46,19145
 963,49; 7740,419;  203,087;16471,662;46,33063
 964,04; 7689,727;  215,317;16481,508;45,95058
 964,59; 7721,342;  180,087;16306,892;46,76224
 965,14; 7716,265;  213,471;16273,200;46,71806
 965,69; 7628,727;  204,702;16118,046;46,65283
 966,24; 7604,804;  208,548;16067,354;46,63816
 966,79; 7554,419;  213,856;15941,662;46,67252
 967,34; 7522,881;  178,087;15834,046;46,91373
 967,89; 7519,035;  189,317;15766,508;47,05417
 968,44; 7518,727;  211,394;15739,123;47,05989
 968,99; 7515,804;  212,163;15617,277;47,41049
 969,55; 7518,265;  209,856;15543,585;47,66231
 970,10; 7459,342;  210,625;15387,354;47,76205
 970,65; 7436,496;  214,933;15328,815;47,78099
 971,20; 7404,496;  203,471;15221,892;47,94795
 971,75; 7365,342;  189,548;15016,892;48,39568
 972,30; 7308,881;  202,779;14988,354;48,06105
 972,85; 7277,881;  203,548;14955,662;47,95471
 973,40; 7242,035;  195,702;14768,354;48,35313
 973,95; 7241,419;  206,779;14719,200;48,47324
 974,50; 7174,573;  223,394;14604,046;48,33702
 975,05; 7207,804;  220,779;14528,277;48,83471
 975,60; 7144,265;  225,779;14499,892;48,46877
 976,15; 7081,881;  215,394;14385,815;48,45647
 976,70; 7052,804;  213,163;14295,585;48,56864
 977,25; 6999,496;  208,779;14246,431;48,37502
 977,80; 6931,419;  199,933;14070,969;48,52908
 978,35; 6881,419;  215,163;13921,200;48,63737
 978,89; 6901,342;  196,010;13858,892;49,07700
 979,44; 6896,881;  205,317;13801,046;49,21813
 979,99; 6775,112;  193,625;13576,815;49,17726
 980,54; 6756,265;  235,779;13537,431;49,02013
 981,09; 6728,419;  218,779;13386,431;49,43661
 981,64; 6721,650;  216,471;13246,123;49,92596
 982,19; 6706,265;  248,240;13218,815;49,78981
 982,74; 6641,727;  226,702;13068,892;49,95273
 983,29; 6573,881;  195,240;12960,431;49,96902
 983,84; 6562,265;  212,856;12819,046;50,36739
 984,39; 6602,958;  247,471;12780,277;50,71080
 984,94; 6476,419;  190,471;12605,277;50,63267
 985,49; 6491,573;  229,010;12594,200;50,64672
 986,03; 6493,573;  240,856;12523,431;50,90722
 986,58; 6404,496;  246,240;12336,354;50,93629
 987,13; 6361,573;  218,240;12182,662;51,34668
 987,68; 6355,881;  230,163;12091,585;51,64404
 988,23; 6350,035;  229,933;12044,508;51,80129
 988,78; 6283,419;  214,317;11896,508;51,95175
 989,33; 6217,650;  228,471;11790,969;51,79831
 989,88; 6234,573;  235,394;11768,508;52,01699
 990,42; 6156,727;  219,625;11560,354;52,35203
 990,97; 6097,342;  216,856;11451,354;52,34312
 991,52; 6088,496;  239,779;11399,585;52,40877
 992,07; 6101,650;  244,394;11279,277;53,07946
 992,62; 6033,958;  230,163;11193,431;52,93855
 993,17; 5967,650;  230,471;11045,662;53,04741
 993,71; 5957,419;  222,471;10962,046;53,40014
 994,26; 5869,650;  199,471;10790,431;53,53791
 994,81; 5859,419;  232,779;10751,969;53,48929
 995,36; 5784,958;  218,702;10593,046;53,65405
 995,91; 5785,804;  223,317;10579,277;53,71290
 996,45; 5735,496;  228,548;10423,046;54,01883
 997,00; 5668,804;  199,471;10229,431;54,52996
 997,55; 5688,342;  216,702;10290,815;54,31386
 998,10; 5669,958;  247,317;10106,662;55,00001
 998,65; 5615,727;  218,779;10045,662;54,92025
 999,19; 5556,727;  237,317; 9846,277;55,35885
 999,74; 5509,188;  252,779; 9788,892;55,12109
1000,29; 5497,035;  227,933; 9701,815;55,61713
1000,84; 5407,188;  216,317; 9565,969;55,51941
1001,38; 5366,650;  220,702; 9439,508;55,82012
1001,93; 5345,419;  237,087; 9388,585;55,81963
1002,48; 5306,650;  203,087; 9251,662;56,40185
1003,03; 5298,881;  221,856; 9196,969;56,56781
1003,57; 5244,188;  231,087; 9100,738;56,51971
1004,12; 5284,727;  245,010; 8986,123;57,65532
1004,67; 5147,958;  214,779; 8895,277;56,83060
1005,22; 5098,958;  210,933; 8746,969;57,26340
1005,76; 5013,419;  205,548; 8598,431;57,28510
1006,31; 5028,112;  242,625; 8582,508;57,38074
1006,86; 4965,881;  211,010; 8482,738;57,48340
1007,40; 4851,650;  196,471; 8278,046;57,60237
1007,95; 4851,035;  215,163; 8231,277;57,83191
1008,50; 4764,035;  218,933; 8077,508;57,83621
1009,04; 4691,035;  225,625; 8005,123;57,39971
1009,59; 4615,265;  231,625; 7830,585;57,68738
1010,14; 4574,727;  211,471; 7737,277;57,97726
1010,68; 4538,265;  219,087; 7635,585;58,23744
1011,23; 4479,573;  200,548; 7480,662;58,77690
1011,78; 4438,112;  229,856; 7416,508;58,55655
1012,32; 4411,727;  217,240; 7308,738;59,14810
1012,87; 4371,342;  244,933; 7266,738;58,76565
1013,42; 4276,958;  209,240; 7137,046;58,71581
1013,96; 4305,573;  242,163; 7109,815;59,16738
1014,51; 4229,419;  195,779; 6996,431;59,31255
1015,06; 4246,496;  196,471; 7019,431;59,35877
1015,60; 4332,881;  260,702; 7074,738;59,76162
1016,15; 4245,573;  215,394; 7027,354;59,16328
1016,69; 4312,573;  210,702; 7032,892;60,12543
1017,24; 4279,804;  201,625; 7041,277;59,62553
1017,79; 4339,881;  236,625; 7133,046;59,49834
1018,33; 4360,419;  196,856; 7086,431;60,43281
1018,88; 4434,112;  217,856; 7119,123;61,09394
1019,42; 4430,035;  221,625; 7189,431;60,39792
1019,97; 4411,342;  212,010; 7144,431;60,57527
1020,51; 4461,035;  216,317; 7204,585;60,74063
1021,06; 4449,496;  211,240; 7194,277;60,69359
1021,61; 4390,650;  190,087; 7111,277;60,69134
1022,15; 4369,881;  171,856; 7116,969;60,44574
1022,70; 4439,035;  215,856; 7101,815;61,33029
1023,24; 4393,188;  204,548; 7089,123;60,84094
1023,79; 4357,650;  220,163; 7016,892;60,87467
1024,33; 4373,881;  218,087; 7014,508;61,14680
1024,88; 4318,958;  219,240; 6898,200;61,38257
1025,42; 4276,804;  201,779; 6767,585;62,06435
1025,97; 4254,419;  203,933; 6709,815;62,25883
1026,51; 4142,035;  173,087; 6576,123;61,98540
1027,06; 4104,727;  209,317; 6514,508;61,78100
1027,60; 4077,727;  207,702; 6401,508;62,48218
1028,15; 4037,650;  221,087; 6325,200;62,52445
1028,69; 3936,496;  174,317; 6191,277;62,52624
1029,24; 3929,035;  207,933; 6127,738;62,85851
1029,78; 3865,958;  205,779; 6030,892;62,83446
1030,33; 3778,265;  177,933; 5875,969;63,18550
1030,87; 3731,804;  206,471; 5843,354;62,54047
1031,42; 3710,881;  194,933; 5743,123;63,37108
1031,96; 3675,958;  212,317; 5674,431;63,41209
1032,51; 3607,035;  199,317; 5561,277;63,55358
1033,05; 3596,188;  208,163; 5559,431;63,31257
1033,60; 3478,958;  174,933; 5420,508;62,98690
1034,14; 3477,881;  199,933; 5322,815;63,98640
1034,69; 3441,496;  199,317; 5278,585;63,83162
1035,23; 3388,650;  204,702; 5203,662;63,69221
1035,77; 3389,419;  196,087; 5102,969;65,07864
1036,32; 3327,419;  180,779; 5061,277;64,47376
1036,86; 3287,112;  198,163; 5007,200;64,23216
1037,41; 3220,035;  204,625; 4916,046;64,00212
1037,95; 3155,881;  183,933; 4840,200;63,82684
1038,50; 3121,342;  196,240; 4790,200;63,67278
1039,04; 3122,958;  203,779; 4734,585;64,42957
1039,58; 3039,573;  192,010; 4634,892;64,09270
1040,13; 3033,881;  201,471; 4572,431;64,80064
1040,67; 3054,035;  223,394; 4554,431;65,35711
1041,21; 2998,496;  228,317; 4467,892;65,34096
1041,76; 2906,881;  176,471; 4386,431;64,85596
1042,30; 2882,035;  210,471; 4333,738;64,79239
1042,85; 2861,188;  207,856; 4276,046;65,22145
1043,39; 2843,496;  190,010; 4189,123;66,35187
1043,93; 2809,650;  217,394; 4146,431;65,97688
1044,48; 2760,265;  205,548; 4087,123;65,81651
1045,02; 2685,727;  202,856; 4031,046;64,85757
1045,56; 2715,727;  210,548; 3970,969;66,61963
1046,11; 2693,881;  210,394; 3918,277;66,97856
1046,65; 2642,342;  208,779; 3887,123;66,15921
1047,19; 2581,804;  198,779; 3772,354;66,68462
1047,74; 2537,035;  182,856; 3709,354;66,75684
1048,28; 2512,804;  210,779; 3699,123;65,99191
1048,82; 2523,035;  222,625; 3665,508;66,81638
1049,37; 2477,035;  205,240; 3596,738;66,98498
1049,91; 2452,112;  197,548; 3556,892;67,11320
1050,45; 2395,112;  228,317; 3497,738;66,27455
1050,99; 2355,342;  207,856; 3457,277;66,08828
1051,54; 2321,804;  196,933; 3406,969;66,19461
1052,08; 2324,958;  215,010; 3390,508;66,44463
1052,62; 2296,727;  221,548; 3324,277;66,88238
1053,16; 2257,188;  192,702; 3260,046;67,30534
1053,71; 2238,650;  215,856; 3214,123;67,46544
1054,25; 2201,804;  223,779; 3169,892;67,14015
1054,79; 2173,881;  211,933; 3115,354;67,57366
1055,33; 2095,035;  183,163; 3065,123;66,33928
1055,88; 2124,342;  227,317; 3055,123;67,08470
1056,42; 2095,496;  234,702; 3005,662;67,15342
1056,96; 2057,419;  221,240; 2946,508;67,37610
1057,50; 2032,804;  201,240; 2901,738;67,82317
1058,05; 2015,727;  212,625; 2862,354;68,04854
1058,59; 2010,881;  228,163; 2863,431;67,64844
1059,13; 1943,112;  196,163; 2778,892;67,63962
1059,67; 1963,881;  229,163; 2767,354;68,34465
1060,21; 1911,496;  218,240; 2707,815;68,01385
1060,76; 1910,265;  221,779; 2650,815;69,51260
1061,30; 1904,265;  232,010; 2631,815;69,68296
1061,84; 1869,112;  211,471; 2589,585;69,70401
1062,38; 1824,650;  205,317; 2537,738;69,42711
1062,92; 1849,496;  243,317; 2551,277;69,59302
1063,46; 1810,265;  229,933; 2483,585;70,12319
1064,01; 1754,112;  208,317; 2434,892;69,42475
1064,55; 1753,188;  217,163; 2405,431;70,19366
1065,09; 1714,419;  186,779; 2359,815;70,29980
1065,63; 1759,650;  232,471; 2386,508;70,89847
1066,17; 1721,804;  234,010; 2342,508;70,56180
1066,71; 1703,881;  230,087; 2316,969;70,62181
1067,25; 1645,265;  212,471; 2262,969;69,87542
1067,80; 1672,958;  233,163; 2246,123;71,52624
1068,34; 1647,419;  237,471; 2246,585;70,17762
1068,88; 1578,035;  213,087; 2162,431;70,02088
1069,42; 1604,265;  248,779; 2180,585;70,16681
1069,96; 1571,881;  218,625; 2115,738;71,33236
1070,50; 1588,804;  245,317; 2124,123;71,50747
1071,04; 1547,958;  212,394; 2064,354;72,11623
1071,58; 1501,650;  221,548; 2029,123;70,81874
1072,12; 1500,112;  212,625; 2019,892;71,23941
1072,66; 1472,958;  211,240; 1998,354;70,60085
1073,21; 1473,419;  230,163; 2000,738;70,21763
1073,75; 1446,804;  223,163; 1961,585;70,38803
1074,29; 1429,727;  230,087; 1930,277;70,55918
1074,83; 1435,804;  228,163; 1910,046;71,80289
1075,37; 1422,188;  226,856; 1907,508;71,12316
1075,91; 1409,419;  233,240; 1899,738;70,57787
1076,45; 1401,188;  229,317; 1849,662;72,32236
1076,99; 1369,496;  222,933; 1827,431;71,45932
1077,53; 1341,188;  207,625; 1766,200;72,73076
1078,07; 1346,112;  232,933; 1774,738;72,19968
1078,61; 1315,727;  223,087; 1751,123;71,50617
1079,15; 1294,496;  220,548; 1742,431;70,56707
1079,69; 1307,419;  234,933; 1710,200;72,69778
1080,23; 1307,496;  232,240; 1702,046;73,15632
1080,77; 1319,958;  252,240; 1702,354;73,62991
1081,31; 1267,881;  217,240; 1635,969;74,05505
1081,85; 1257,342;  233,240; 1652,508;72,15709
1082,39; 1245,342;  221,394; 1597,354;74,41702
1082,93; 1242,573;  216,010; 1611,892;73,54224
1083,47; 1206,188;  207,625; 1568,123;73,39690
1084,01; 1217,112;  236,625; 1576,046;73,20226
1084,55; 1178,496;  216,163; 1516,738;73,99286
1085,09; 1201,419;  227,317; 1543,277;74,02217
1085,63; 1175,881;  219,394; 1525,662;73,22288
1086,17; 1159,958;  213,394; 1487,892;74,26951
1086,71; 1142,496;  214,087; 1471,277;73,84797
1087,24; 1160,419;  237,625; 1468,662;74,96075
1087,78; 1154,881;  235,702; 1460,662;75,03748
1088,32; 1097,804;  221,548; 1420,662;73,07530
1088,86; 1136,188;  241,702; 1424,508;75,62413
1089,40; 1091,727;  226,779; 1386,431;74,58687
1089,94; 1069,650;  193,702; 1343,815;76,16188
1090,48; 1064,496;  233,779; 1347,969;74,55793
1091,02; 1066,188;  229,933; 1353,431;74,43322
1091,56; 1053,112;  238,702; 1347,277;73,46455
1092,10; 1029,573;  207,240; 1278,892;76,73505
1092,63; 1066,958;  235,317; 1306,662;77,62588
1093,17; 1015,188;  223,625; 1280,969;74,86336
1093,71;  996,727;  211,548; 1279,815;73,50022
1094,25; 1011,188;  246,010; 1260,662;75,41294
1094,79;  982,958;  223,163; 1235,123;75,08148
1095,33;  973,265;  229,394; 1229,585;74,37296
1095,87;  976,188;  223,471; 1204,508;76,72674
1096,40;  940,188;  200,548; 1177,277;75,72628
1096,94;  942,727;  220,087; 1190,508;74,46668
1097,48;  939,650;  224,240; 1172,354;75,45612
1098,02;  909,419;  222,087; 1139,277;74,93893
1098,56;  885,342;  200,548; 1117,354;74,69349
1099,10;  878,035;  202,933; 1101,892;75,09814
1099,63;  885,804;  211,933; 1091,969;76,57309
1100,17;  893,112;  228,471; 1098,431;76,39899
1100,71;  900,035;  240,779; 1111,508;75,71310

