
Integration time [ms]: 115,000
Averaging Nr. [scans]: 13
Smoothing Nr. [pixels]: 0
Data measured with spectrometer [name]: 2009305U1
Wave   ;Sample   ;Dark     ;Reference;Reflectance
[nm]   ;[counts] ;[counts] ;[counts] ;[%]

 175,72;  201,687;  176,239;  216,377;63,40036
 176,32;  224,518;  211,934;  220,629;144,72200
 176,92;  257,189;  225,163;  254,806;108,04040
 177,52;  254,020;  252,086;  276,497; 7,92464
 178,12;  230,087;  223,549;  229,646;107,22713
 178,72;  258,442;  243,857;  246,426;567,75457
 179,32;  257,725;  236,780;  245,502;240,14303
 179,92;  250,283;  232,933;  243,184;169,25318
 180,52;  253,041;  234,084;  251,849;106,71161
 181,12;  256,374;  235,010;  258,040;92,76350
 181,73;  278,429;  253,163;  272,610;129,91854
 182,33;  365,452;  298,008;  354,611;119,15345
 182,93;  277,002;  245,240;  267,679;141,54812
 183,53;  240,960;  227,319;  231,255;346,59906
 184,13;  233,909;  231,011;  230,121; 0,00000
 184,73;  279,567;  249,935;  276,206;112,79241
 185,33;  273,327;  222,716;  348,805;40,13885
 185,93;  278,590;  214,717;  380,479;38,53269
 186,53;  290,817;  241,332;  381,727;35,24698
 187,13;  320,703;  264,099;  406,630;39,71309
 187,73;  280,663;  220,102;  379,098;38,08982
 188,33;  285,572;  227,718;  376,187;38,96704
 188,93;  303,604;  231,182;  389,757;45,67072
 189,53;  298,472;  240,799;  389,798;38,70667
 190,13;  332,930;  271,649;  443,566;35,64566
 190,73;  283,544;  217,185;  377,425;41,41224
 191,34;  309,780;  254,183;  413,712;34,85094
 191,94;  279,190;  227,565;  367,514;36,88862
 192,54;  292,673;  237,868;  406,065;32,58396
 193,14;  304,512;  248,715;  393,108;38,64237
 193,74;  299,047;  249,561;  386,677;36,09077
 194,34;  287,853;  235,099;  379,479;36,53800
 194,94;  252,878;  206,792;  347,521;32,74828
 195,54;  242,333;  196,177;  321,772;36,75004
 196,14;  267,684;  218,484;  355,903;35,80357
 196,74;  260,992;  211,331;  351,478;35,43511
 197,34;  237,144;  187,252;  345,540;31,51991
 197,94;  263,922;  225,715;  362,779;27,87541
 198,54;  283,045;  217,484;  389,006;38,22346
 199,14;  265,002;  197,636;  381,096;36,71942
 199,74;  250,943;  198,097;  381,375;28,83339
 200,34;  237,761;  186,097;  382,635;26,28701
 200,94;  277,260;  223,637;  421,823;27,05701
 201,54;  258,200;  202,328;  428,459;24,70769
 202,14;  297,239;  211,635;  474,923;32,51339
 202,74;  268,220;  204,328;  476,128;23,50694
 203,34;  263,831;  195,558;  479,311;24,06092
 203,94;  232,714;  163,635;  500,548;20,50340
 204,54;  300,864;  228,869;  592,022;19,82509
 205,14;  269,670;  199,405;  597,661;17,64315
 205,74;  328,641;  218,481;  690,215;23,35228
 206,34;  298,274;  197,405;  690,439;20,45890
 206,94;  316,976;  203,328;  773,362;19,93706
 207,54;  297,705;  180,251;  804,961;18,80143
 208,14;  324,885;  195,097;  861,786;19,46753
 208,74;  338,178;  194,559;  953,337;18,92770
 209,34;  357,334;  193,636; 1030,265;19,56639
 209,94;  362,659;  202,328; 1148,580;16,94375
 210,54;  373,130;  198,866; 1237,375;16,78019
 211,14;  400,315;  209,174; 1365,714;16,52693
 211,73;  410,566;  201,175; 1462,293;16,60360
 212,33;  440,780;  218,791; 1597,159;16,10525
 212,93;  450,065;  196,636; 1668,394;17,21948
 213,53;  430,581;  181,790; 1767,846;15,68614
 214,13;  471,718;  176,403; 1856,152;17,58091
 214,73;  462,700;  178,481; 1880,384;16,70007
 215,33;  463,582;  156,405; 1915,118;17,46599
 215,93;  518,173;  188,327; 2037,402;17,83844
 216,53;  484,159;  142,559; 2075,324;17,67416
 217,13;  581,201;  210,866; 2307,296;17,66504
 217,73;  602,594;  181,250; 2505,729;18,12638
 218,33;  601,720;  162,403; 2685,388;17,41260
 218,93;  672,848;  172,632; 2992,680;17,73785
 219,53;  753,431;  174,942; 3296,897;18,52970
 220,13;  794,523;  151,557; 3577,759;18,76614
 220,73;  879,464;  167,405; 3938,368;18,88268
 221,32;  958,563;  178,251; 4361,644;18,65260
 221,92; 1076,829;  192,249; 4765,641;19,34189
 222,52; 1131,471;  172,558; 5220,516;18,99605
 223,12; 1237,217;  167,481; 5680,122;19,40515
 223,72; 1348,543;  185,019; 6134,170;19,55781
 224,32; 1413,721;  176,865; 6553,184;19,39765
 224,92; 1468,520;  175,404; 6818,083;19,46679
 225,52; 1555,994;  188,020; 7246,795;19,37976
 226,12; 1622,390;  182,327; 7519,659;19,62652
 226,72; 1672,803;  155,174; 7864,594;19,68539
 227,31; 1725,371;  151,251; 8241,262;19,45758
 227,91; 1841,034;  174,405; 8608,273;19,76115
 228,51; 1915,812;  177,790; 9061,833;19,56341
 229,11; 2023,926;  166,020; 9428,961;20,05742
 229,71; 2105,384;  168,175; 9795,860;20,12124
 230,31; 2169,997;  163,326;10145,637;20,10226
 230,91; 2204,269;  163,483;10541,858;19,66382
 231,51; 2259,931;  147,173;10894,551;19,65836
 232,10; 2384,306;  152,172;11267,104;20,08230
 232,70; 2417,083;  167,484;11505,325;19,84152
 233,30; 2514,504;  192,789;11856,258;19,90587
 233,90; 2510,379;  163,789;12037,003;19,76374
 234,50; 2541,215;  175,558;12250,655;19,59121
 235,10; 2563,828;  157,404;12347,468;19,74086
 235,70; 2609,300;  192,020;12458,020;19,70715
 236,29; 2606,734;  182,251;12486,574;19,70431
 236,89; 2595,548;  165,022;12367,077;19,91899
 237,49; 2606,058;  177,173;12382,301;19,90053
 238,09; 2532,966;  176,789;12207,055;19,58541
 238,69; 2532,087;  193,099;12025,720;19,76729
 239,29; 2437,876;  168,328;11806,275;19,50128
 239,89; 2358,826;  178,791;11452,563;19,33723
 240,48; 2281,073;  173,635;11111,338;19,26764
 241,08; 2196,775;  163,097;10762,261;19,18715
 241,68; 2141,872;  198,558;10511,432;18,84357
 242,28; 2019,089;  162,404;10160,933;18,56958
 242,88; 1990,813;  190,480; 9825,661;18,68499
 243,48; 1937,117;  192,250; 9558,253;18,62979
 244,07; 1849,525;  186,482; 9286,172;18,27582
 244,67; 1807,690;  188,943; 9134,113;18,09633
 245,27; 1716,412;  182,329; 8936,369;17,52429
 245,87; 1720,877;  184,096; 8853,728;17,72602
 246,47; 1685,459;  172,329; 8804,009;17,52997
 247,06; 1649,391;  169,097; 8795,610;17,15982
 247,66; 1631,683;  170,943; 8817,762;16,89339
 248,26; 1667,449;  208,559; 8992,584;16,60844
 248,86; 1688,572;  189,559; 9141,797;16,74456
 249,46; 1657,452;  150,789; 9313,349;16,44369
 250,05; 1732,806;  191,405; 9693,550;16,22161
 250,65; 1778,629;  158,636;10006,744;16,44979
 251,25; 1843,378;  179,713;10412,907;16,25753
 251,85; 1920,062;  182,329;11056,103;15,98096
 252,44; 1991,669;  147,251;11624,928;16,06961
 253,04; 2121,002;  180,559;12334,676;15,96532
 253,64; 2235,362;  144,175;12999,837;16,26666
 254,24; 2402,788;  186,559;13928,194;16,12784
 254,84; 2560,452;  175,712;14774,119;16,33562
 255,43; 2722,498;  178,713;15718,690;16,36930
 256,03; 2921,262;  163,329;16666,213;16,71182
 256,63; 3108,962;  176,868;17718,668;16,71490
 257,23; 3260,022;  165,098;18500,507;16,87949
 257,82; 3428,873;  177,022;19474,686;16,85101
 258,42; 3530,662;  132,484;20270,264;16,87464
 259,02; 3746,345;  174,636;21174,808;17,00800
 259,62; 3915,642;  159,792;21804,596;17,35220
 260,21; 4087,693;  177,328;22295,978;17,67904
 260,81; 4154,661;  170,481;22823,178;17,58811
 261,41; 4314,907;  166,176;23209,931;18,00371
 262,01; 4439,745;  195,023;23642,910;18,10279
 262,60; 4506,714;  161,483;23968,584;18,25183
 263,20; 4593,832;  164,944;24178,655;18,44316
 263,80; 4707,704;  182,562;24384,042;18,69779
 264,40; 4762,220;  145,484;24473,227;18,97725
 264,99; 4858,880;  179,331;24635,359;19,13454
 265,59; 4909,142;  164,255;24795,929;19,26336
 266,19; 4993,260;  164,638;24886,859;19,53150
 266,78; 5123,894;  198,716;25019,817;19,84270
 267,38; 5087,162;  172,332;25091,828;19,72283
 267,98; 5184,699;  158,331;25004,990;20,22955
 268,58; 5197,499;  177,562;25077,419;20,16051
 269,17; 5266,421;  165,332;25112,785;20,44733
 269,77; 5279,231;  182,945;24923,644;20,59880
 270,37; 5252,454;  150,485;24758,337;20,73309
 270,96; 5296,233;  204,253;24703,174;20,78451
 271,56; 5250,068;  167,868;24397,106;20,97549
 272,16; 5254,107;  169,176;24154,837;21,19988
 272,75; 5249,244;  166,561;24041,291;21,28897
 273,35; 5230,465;  173,099;24093,138;21,14280
 273,95; 5242,339;  175,176;23998,878;21,26942
 274,54; 5292,072;  155,251;24001,451;21,54147
 275,14; 5419,554;  180,253;24296,492;21,72520
 275,74; 5419,640;  144,022;24387,065;21,76137
 276,33; 5540,237;  190,099;24762,723;21,77276
 276,93; 5612,015;  175,943;24987,120;21,90977
 277,53; 5753,675;  174,867;25496,469;22,03181
 278,12; 5889,810;  157,252;26003,751;22,17924
 278,72; 6088,905;  194,867;26636,274;22,29094
 279,32; 6219,442;  165,713;27171,463;22,41644
 279,91; 6413,499;  163,021;27905,256;22,53055
 280,51; 6617,687;  173,251;28428,361;22,80804
 281,11; 6784,067;  174,098;29118,155;22,83705
 281,70; 6954,764;  153,098;29568,424;23,12286
 282,30; 7170,299;  159,098;30230,644;23,31506
 282,90; 7350,612;  169,945;30561,185;23,62743
 283,49; 7558,329;  186,099;31199,186;23,77135
 284,09; 7749,142;  190,714;31628,304;24,04265
 284,69; 7889,814;  189,175;32037,341;24,17923
 285,28; 8059,663;  191,867;32500,794;24,35177
 285,88; 8293,574;  199,022;32695,762;24,90881
 286,47; 8383,671;  175,329;32693,137;25,24261
 287,07; 8548,809;  203,944;32809,646;25,59327
 287,67; 8673,656;  190,789;32982,022;25,86931
 288,26; 8761,205;  169,559;32869,266;26,27438
 288,86; 8974,444;  172,175;32963,147;26,84357
 289,46; 9155,151;  170,636;33023,814;27,34747
 290,05; 9368,052;  162,251;33047,628;27,99360
 290,65; 9604,137;  175,252;33285,329;28,47739
 291,24; 9861,757;  189,559;33411,430;29,11395
 291,84;10089,269;  182,406;33467,438;29,76372
 292,44;10294,882;  176,327;33666,984;30,21307
 293,03;10594,964;  230,636;33835,995;30,84129
 293,63;10729,719;  170,022;33925,161;31,28323
 294,22;10983,475;  194,175;34192,898;31,73443
 294,82;11120,463;  181,561;34111,735;32,23945
 295,41;11178,995;  153,944;33869,501;32,70019
 296,01;11318,118;  217,176;33826,800;33,02906
 296,61;11327,715;  179,559;33699,024;33,25875
 297,20;11206,811;  182,638;33244,688;33,34389
 297,80;11227,356;  187,635;33052,862;33,59088
 298,39;11140,062;  163,868;32744,796;33,68902
 298,99;11083,896;  175,638;32519,890;33,72549
 299,58;11035,672;  186,558;32371,911;33,70823
 300,18;10963,727;  207,097;32078,314;33,75030
 300,78;10842,623;  169,405;31723,868;33,82475
 301,37;10874,565;  186,639;31725,967;33,88762
 301,97;10799,872;  182,021;31752,405;33,63232
 302,56;10797,179;  166,099;31633,889;33,78401
 303,16;10671,136;  155,099;31597,477;33,44542
 303,75;10621,583;  174,405;31569,005;33,27699
 304,35;10699,637;  163,635;31819,100;33,28336
 304,94;10710,731;  180,098;31793,374;33,31079
 305,54;10615,255;  203,636;31684,952;33,07238
 306,13;10503,081;  149,173;31607,401;32,91320
 306,73;10412,118;  165,404;31473,524;32,72861
 307,33;10365,803;  185,020;31361,055;32,65580
 307,92;10338,088;  169,944;31395,096;32,56395
 308,52;10444,691;  165,099;31890,100;32,40218
 309,11;10511,631;  172,638;32427,632;32,05393
 309,71;10555,231;  155,177;32681,960;31,97382
 310,30;10563,874;  157,098;32836,795;31,84478
 310,90;10667,259;  179,329;33162,180;31,79813
 311,49;10622,152;  182,559;33344,317;31,48082
 312,09;10572,698;  142,636;33547,722;31,22298
 312,68;10779,735;  201,790;33927,769;31,36438
 313,28;10553,165;  152,559;33956,788;30,76717
 313,87;10583,146;  150,482;34176,314;30,66101
 314,47;10557,681;  167,253;34398,507;30,35363
 315,06;10545,361;  148,405;34567,733;30,20674
 315,66;10522,313;  158,943;34854,645;29,86932
 316,25;10294,627;  140,406;34689,418;29,39077
 316,85;10231,201;  139,559;34777,975;29,13425
 317,44;10220,792;  158,561;34947,829;28,92338
 318,04;10160,121;  148,945;34913,363;28,79719
 318,63;10040,065;  148,712;34929,575;28,43907
 319,22; 9985,788;  174,253;35197,076;28,01469
 319,82; 9867,520;  176,483;35096,106;27,75241
 320,41; 9724,694;  161,945;35099,992;27,37059
 321,01; 9641,880;  171,020;35141,349;27,08256
 321,60; 9536,225;  166,714;35251,383;26,70543
 322,20; 9416,639;  161,405;35121,065;26,47404
 322,79; 9384,692;  191,790;35166,860;26,28416
 323,39; 9264,488;  168,250;35279,984;25,90655
 323,98; 9118,178;  153,251;35282,413;25,51990
 324,58; 9023,715;  157,176;35187,689;25,31090
 325,17; 8893,894;  167,637;35145,514;24,94793
 325,76; 8821,927;  182,867;34943,934;24,85269
 326,36; 8555,193;  147,174;34505,813;24,47134
 326,95; 8381,669;  174,406;34216,453;24,10919
 327,55; 8239,070;  161,560;33888,496;23,94973
 328,14; 8032,049;  160,558;33455,672;23,64158
 328,74; 7895,469;  193,637;33098,303;23,40650
 329,33; 7721,974;  182,328;32807,741;23,10973
 329,92; 7477,567;  159,869;32210,755;22,83150
 330,52; 7276,594;  177,097;31505,485;22,66155
 331,11; 7124,172;  174,790;31212,280;22,39028
 331,71; 6921,576;  171,560;30432,102;22,30633
 332,30; 6765,269;  186,406;30077,143;22,00971
 332,89; 6650,559;  194,867;29511,339;22,02070
 333,49; 6387,462;  191,483;28964,734;21,53382
 334,08; 6230,508;  176,252;28472,291;21,39612
 334,68; 6075,964;  178,944;28023,751;21,17817
 335,27; 5956,241;  189,097;27739,620;20,93297
 335,86; 5843,556;  198,252;27392,433;20,75924
 336,46; 5686,869;  178,404;27143,820;20,42789
 337,05; 5550,278;  173,175;26956,025;20,07666
 337,65; 5504,141;  154,252;26747,263;20,11765
 338,24; 5495,338;  213,636;26704,877;19,93754
 338,83; 5422,249;  192,482;26645,103;19,77032
 339,43; 5324,255;  167,791;26542,617;19,55070
 340,02; 5269,875;  173,945;26436,655;19,40367
 340,61; 5221,644;  160,482;26511,836;19,20646
 341,21; 5170,546;  202,099;26614,149;18,81129
 341,80; 5095,845;  167,483;26464,883;18,74087
 342,40; 5127,198;  184,866;26529,250;18,76048
 342,99; 5038,790;  176,482;26685,878;18,34183
 343,58; 5066,589;  171,251;26786,510;18,39298
 344,18; 5076,436;  187,789;26883,705;18,31234
 344,77; 5062,266;  173,791;27228,350;18,06895
 345,36; 5062,362;  152,944;27547,530;17,92112
 345,96; 5173,945;  186,790;27898,073;17,99684
 346,55; 5124,577;  159,250;28039,876;17,80924
 347,14; 5169,346;  148,712;28352,017;17,80158
 347,74; 5190,716;  134,941;28802,237;17,63604
 348,33; 5285,756;  176,788;29445,868;17,45517
 348,92; 5418,402;  182,864;30050,130;17,52935
 349,52; 5439,636;  153,249;30534,317;17,40027
 350,11; 5464,265;  164,330;30849,386;17,27204
 350,70; 5480,419;  157,636;30870,762;17,33065
 351,29; 5401,846;  151,793;30630,485;17,22532
 351,89; 5362,608;  176,946;30644,581;17,02023
 352,48; 5329,194;  148,098;30744,072;16,93392
 353,07; 5355,614;  171,481;30661,308;17,00283
 353,67; 5354,350;  187,941;30661,298;16,95386
 354,26; 5270,524;  177,943;30285,990;16,91435
 354,85; 5248,657;  180,097;30287,588;16,83488
 355,45; 5188,720;  150,483;30048,817;16,85123
 356,04; 5198,384;  171,712;29992,195;16,85644
 356,63; 5166,374;  194,637;29722,345;16,83753
 357,22; 5150,152;  182,254;29642,724;16,86293
 357,82; 5045,859;  179,254;29568,586;16,55909
 358,41; 5088,737;  183,944;29398,069;16,78911
 359,00; 5021,202;  171,253;29186,052;16,71543
 359,60; 5015,622;  179,559;29089,288;16,72815
 360,19; 5033,788;  167,250;28900,900;16,93672
 360,78; 5002,863;  182,868;28752,546;16,87102
 361,37; 4971,343;  175,637;28566,902;16,89148
 361,97; 4999,683;  177,175;28530,155;17,00882
 362,56; 4908,146;  174,560;28176,133;16,90471
 363,15; 4986,111;  188,252;27971,246;17,26905
 363,74; 4867,261;  173,022;27662,683;17,07638
 364,34; 4859,699;  206,022;27333,877;17,15461
 364,93; 4778,098;  157,484;26881,684;17,29000
 365,52; 4718,864;  145,329;26525,510;17,33701
 366,11; 4666,533;  169,791;26163,872;17,29910
 366,71; 4640,250;  156,791;25776,076;17,50033
 367,30; 4642,545;  165,790;25473,044;17,68961
 367,89; 4608,000;  201,328;25232,258;17,60491
 368,48; 4573,682;  179,561;24906,241;17,77077
 369,07; 4515,419;  181,713;24451,608;17,85630
 369,67; 4512,647;  185,253;24105,611;18,09084
 370,26; 4459,225;  173,867;23873,858;18,08169
 370,85; 4473,302;  174,252;23550,537;18,39065
 371,44; 4428,309;  171,867;23370,237;18,34802
 372,03; 4422,184;  156,637;23193,697;18,51602
 372,63; 4368,942;  153,483;22877,551;18,55064
 373,22; 4404,620;  163,713;22601,975;18,90033
 373,81; 4352,124;  151,098;22258,948;19,00242
 374,40; 4373,688;  157,866;21988,723;19,31130
 374,99; 4312,377;  160,945;21684,224;19,28810
 375,59; 4305,226;  159,635;21418,913;19,50015
 376,18; 4307,898;  193,021;21403,678;19,40004
 376,77; 4291,825;  175,021;21085,997;19,68729
 377,36; 4329,615;  193,098;21072,078;19,81187
 377,95; 4319,901;  179,791;20770,557;20,10663
 378,55; 4317,265;  157,790;20539,965;20,40741
 379,14; 4338,745;  164,637;20564,566;20,46139
 379,73; 4361,476;  170,483;20364,577;20,75356
 380,32; 4420,706;  182,867;20445,975;20,91406
 380,91; 4366,097;  165,330;20277,027;20,88718
 381,50; 4454,703;  181,637;20290,182;21,25000
 382,10; 4422,783;  159,406;20190,898;21,28337
 382,69; 4484,366;  155,867;20114,568;21,68728
 383,28; 4518,284;  188,560;20055,244;21,79389
 383,87; 4530,775;  162,483;19910,528;22,12012
 384,46; 4545,842;  171,330;19836,502;22,24497
 385,05; 4589,371;  193,637;19833,439;22,38176
 385,64; 4633,226;  161,022;19814,872;22,75485
 386,24; 4651,729;  152,869;19756,098;22,94959
 386,83; 4730,894;  186,100;19744,215;23,23738
 387,42; 4818,723;  190,791;19875,815;23,50992
 388,01; 4869,802;  179,178;20018,150;23,64349
 388,60; 4980,678;  176,792;20248,923;23,93311
 389,19; 5042,987;  154,948;20518,679;24,00365
 389,78; 5180,457;  164,025;20750,651;24,36743
 390,37; 5372,541;  214,023;21186,993;24,59603
 390,96; 5399,486;  178,869;21368,206;24,63794
 391,56; 5496,853;  167,794;21459,411;25,02890
 392,15; 5613,352;  162,409;21772,680;25,22385
 392,74; 5666,980;  146,796;21948,826;25,31959
 393,33; 5825,662;  160,256;22265,505;25,62923
 393,92; 5999,766;  189,258;22553,240;25,98154
 394,51; 6060,650;  156,641;22829,766;26,03968
 395,10; 6230,945;  185,414;23114,549;26,36616
 395,69; 6333,038;  170,491;23248,411;26,70322
 396,28; 6366,748;  189,338;23335,047;26,68922
 396,87; 6488,545;  194,724;23425,208;27,09294
 397,46; 6558,911;  190,495;23585,477;27,22129
 398,06; 6688,646;  193,035;23669,499;27,66861
 398,65; 6762,099;  179,116;23892,754;27,76033
 399,24; 6846,133;  198,885;23988,985;27,94124
 399,83; 6880,763;  178,276;23940,630;28,20633
 400,42; 7040,558;  206,819;24092,641;28,61002
 401,01; 7084,304;  178,902;24273,148;28,65996
 401,60; 7143,462;  192,679;24311,313;28,81914
 402,19; 7206,091;  205,069;24262,482;29,10131
 402,78; 7280,337;  220,079;24386,919;29,21465
 403,37; 7269,913;  191,857;24237,918;29,43541
 403,96; 7290,592;  198,098;24082,316;29,69532
 404,55; 7304,963;  217,956;23963,646;29,84544
 405,14; 7297,238;  193,043;23849,033;30,03127
 405,73; 7357,856;  217,671;23709,315;30,39457
 406,32; 7356,917;  206,526;23650,839;30,49947
 406,91; 7333,457;  210,305;23438,841;30,66552
 407,50; 7386,820;  205,002;23254,443;31,15832
 408,09; 7300,358;  180,775;23033,321;31,15444
 408,68; 7305,031;  195,469;22862,291;31,36550
 409,27; 7310,419;  181,543;22610,369;31,78444
 409,86; 7390,567;  200,459;22544,737;32,17875
 410,45; 7396,390;  221,452;22443,953;32,28681
 411,04; 7420,119;  237,138;22448,357;32,33943
 411,63; 7391,727;  220,591;22151,746;32,69840
 412,22; 7359,883;  214,430;21951,430;32,87231
 412,81; 7364,467;  231,119;21704,362;33,21970
 413,40; 7276,657;  243,270;21441,770;33,17870
 413,99; 7274,740;  264,040;21081,094;33,67768
 414,58; 7098,860;  218,885;20678,324;33,62739
 415,17; 7014,870;  213,504;20453,641;33,60336
 415,76; 7023,626;  211,661;20265,794;33,96789
 416,35; 6989,600;  202,582;20074,317;34,15413
 416,94; 7029,165;  227,660;20097,464;34,23036
 417,53; 7133,422;  216,196;20200,077;34,61403
 418,12; 7218,773;  202,580;20275,076;34,95426
 418,71; 7357,066;  227,423;20627,785;34,94861
 419,30; 7419,545;  222,272;20746,353;35,06745
 419,89; 7523,379;  215,887;20936,746;35,26636
 420,48; 7712,185;  237,500;21154,960;35,73419
 421,07; 7750,487;  223,807;21303,048;35,70659
 421,66; 7821,462;  202,883;21350,228;36,02617
 422,25; 7854,368;  215,649;21401,329;36,05605
 422,84; 7887,890;  237,110;21426,490;36,10667
 423,43; 7850,450;  219,265;21156,431;36,44803
 424,02; 7800,906;  235,495;20902,596;36,60606
 424,60; 7706,050;  202,184;20473,524;37,01712
 425,19; 7611,403;  225,647;20175,271;37,02203
 425,78; 7601,222;  240,186;20022,685;37,20984
 426,37; 7571,892;  231,338;19876,821;37,36510
 426,96; 7553,295;  230,723;19783,638;37,45003
 427,55; 7590,304;  219,644;19652,922;37,92803
 428,14; 7507,444;  199,181;19444,821;37,97360
 428,73; 7442,675;  223,337;19263,012;37,91734
 429,32; 7513,511;  235,569;19202,049;38,37266
 429,91; 7542,930;  249,875;19173,334;38,53976
 430,50; 7533,438;  233,797;19094,344;38,70323
 431,08; 7467,591;  250,181;18933,791;38,62963
 431,67; 7442,992;  286,872;18905,631;38,43500
 432,26; 7456,409;  296,102;18745,246;38,81105
 432,85; 7379,566;  317,487;18395,740;39,06395
 433,44; 7259,829;  312,255;18133,559;38,98466
 434,03; 7132,138;  342,022;17695,758;39,12769
 434,62; 6973,724;  310,101;17215,162;39,41791
 435,21; 6904,828;  324,333;16992,491;39,47944
 435,79; 6889,303;  309,330;16909,247;39,63859
 436,38; 6865,446;  310,098;16758,093;39,85500
 436,97; 6803,555;  303,867;16607,577;39,86631
 437,56; 6778,832;  308,941;16465,781;40,04429
 438,15; 6714,487;  281,634;16353,092;40,02657
 438,74; 6773,053;  298,403;16405,496;40,19750
 439,33; 6776,410;  270,711;16356,282;40,44431
 439,91; 6825,458;  236,479;16410,297;40,73855
 440,50; 6899,578;  281,940;16444,821;40,94343
 441,09; 6941,617;  277,400;16525,340;41,01577
 441,68; 6956,948;  268,783;16548,389;41,08308
 442,27; 6984,568;  251,784;16509,568;41,41268
 442,86; 7019,373;  225,473;16522,899;41,68695
 443,44; 7055,537;  238,474;16566,157;41,75157
 444,03; 7114,149;  276,165;16663,942;41,72612
 444,62; 7103,202;  243,934;16586,123;41,97276
 445,21; 7035,470;  252,935;16352,093;42,12975
 445,80; 7018,057;  274,241;16328,009;42,00769
 446,39; 6998,249;  267,549;16060,943;42,61719
 446,97; 6865,437;  231,777;15859,550;42,44789
 447,56; 6748,619;  244,006;15688,833;42,11516
 448,15; 6699,780;  247,008;15457,759;42,42244
 448,74; 6624,084;  263,008;15203,685;42,57555
 449,33; 6588,084;  248,776;15094,481;42,70129
 449,91; 6512,499;  254,928;14884,349;42,77388
 450,50; 6452,987;  236,390;14632,699;43,18188
 451,09; 6362,977;  256,313;14522,392;42,80549
 451,68; 6379,180;  277,004;14475,127;42,97875
 452,26; 6314,496;  263,157;14303,420;43,09990
 452,85; 6282,503;  255,004;14205,988;43,20483
 453,44; 6286,369;  259,540;14222,480;43,16304
 454,03; 6297,301;  235,926;14222,181;43,33808
 454,61; 6239,501;  233,540;14135,743;43,20151
 455,20; 6381,480;  268,000;14327,598;43,48261
 455,79; 6389,985;  265,310;14302,277;43,63247
 456,38; 6442,139;  270,768;14375,037;43,75534
 456,97; 6467,738;  247,461;14459,903;43,76642
 457,55; 6491,785;  258,460;14465,683;43,87434
 458,14; 6557,622;  278,461;14494,376;44,16994
 458,73; 6491,378;  266,075;14408,714;44,01797
 459,31; 6565,352;  297,766;14431,468;44,34497
 459,90; 6628,166;  292,844;14493,663;44,61237
 460,49; 6661,576;  307,613;14617,511;44,40257
 461,08; 6657,893;  260,227;14620,564;44,55094
 461,66; 6725,577;  269,074;14741,348;44,61291
 462,25; 6760,734;  274,765;14849,924;44,50016
 462,84; 6823,179;  305,611;14869,211;44,75245
 463,43; 6759,177;  225,532;14858,762;44,64937
 464,01; 6797,646;  279,839;14872,707;44,66434
 464,60; 6848,154;  298,840;14842,160;45,03314
 465,19; 6690,988;  251,377;14583,580;44,93106
 465,77; 6715,151;  260,222;14606,796;44,99282
 466,36; 6705,509;  279,763;14574,813;44,95085
 466,95; 6563,635;  265,378;14237,227;45,07819
 467,53; 6461,207;  272,683;13933,693;45,30064
 468,12; 6324,606;  290,914;13652,744;45,15618
 468,71; 6193,475;  276,146;13430,328;44,98439
 469,29; 6109,626;  252,144;13139,336;45,45197
 469,88; 6013,290;  266,682;12926,338;45,39308
 470,47; 6054,168;  320,834;12918,849;45,50982
 471,06; 5982,737;  276,142;12893,327;45,22875
 471,64; 6025,899;  281,373;12979,937;45,23760
 472,23; 6040,573;  258,832;13007,110;45,35311
 472,81; 6067,293;  250,218;13114,976;45,21713
 473,40; 6144,224;  267,986;13240,975;45,29595
 473,99; 6284,810;  325,986;13445,692;45,41889
 474,57; 6296,424;  254,986;13513,881;45,56517
 475,16; 6382,520;  283,448;13680,790;45,52450
 475,75; 6444,625;  295,985;13818,814;45,46859
 476,33; 6509,962;  299,676;13907,279;45,63835
 476,92; 6533,617;  296,909;13974,870;45,59677
 477,51; 6571,868;  286,599;14099,874;45,50165
 478,09; 6587,040;  291,061;14109,999;45,56051
 478,68; 6543,766;  288,830;14023,796;45,54024
 479,27; 6594,478;  315,215;14085,166;45,60120
 479,85; 6533,452;  281,368;13996,598;45,58497
 480,44; 6582,611;  273,522;14109,383;45,59954
 481,02; 6974,349;  282,521;15040,352;45,34425
 481,61; 7894,670;  309,060;16960,272;45,55591
 482,20; 8574,468;  303,136;18418,989;45,65798
 482,78; 8992,822;  327,291;19377,022;45,48899
 483,37; 9303,832;  316,827;20002,822;45,65177
 483,95; 9492,368;  356,750;20363,482;45,66272
 484,54; 9610,384;  359,752;20595,702;45,71385
 485,13; 9639,008;  329,671;20633,139;45,85097
 485,71; 9512,589;  302,980;20348,881;45,94261
 486,30; 9470,530;  341,672;20188,775;45,99592
 486,88; 9272,261;  363,133;19891,302;45,62193
 487,47; 8957,454;  358,133;19249,214;45,52054
 488,05; 8606,637;  344,363;18461,434;45,60491
 488,64; 8102,407;  339,054;17309,615;45,74600
 489,23; 7350,735;  352,516;15703,760;45,58731
 489,81; 6130,437;  354,516;13150,773;45,13758
 490,40; 5698,321;  311,362;12205,489;45,29091
 490,98; 5585,368;  294,285;11953,332;45,38178
 491,57; 5491,258;  322,670;11732,563;45,29918
 492,15; 5457,032;  314,284;11727,361;45,06013
 492,74; 5410,301;  303,671;11646,115;45,02231
 493,32; 5417,728;  323,746;11543,241;45,40295
 493,91; 5289,109;  305,899;11490,144;44,55562
 494,50; 5348,207;  311,051;11441,741;45,25466
 495,08; 5296,644;  304,359;11304,957;45,38194
 495,67; 5303,439;  308,438;11340,728;45,27619
 496,25; 5208,616;  267,591;11205,805;45,17214
 496,84; 5181,592;  273,130;11166,841;45,05776
 497,42; 5129,200;  262,283;11075,222;45,01013
 498,01; 5168,932;  305,745;11128,401;44,93524
 498,59; 5113,101;  249,744;11004,100;45,22221
 499,18; 5098,690;  256,822;11018,053;44,99363
 499,76; 5090,196;  280,821;10932,366;45,15190
 500,35; 4971,094;  273,281;10723,427;44,95452
 500,93; 4931,324;  269,283;10654,821;44,88974
 501,52; 4889,214;  269,129;10614,694;44,65764
 502,10; 4911,232;  269,281;10616,285;44,86276
 502,69; 4838,683;  257,664;10453,796;44,92899
 503,27; 4777,083;  241,974;10276,758;45,19389
 503,86; 4720,893;  252,357;10235,548;44,76060
 504,44; 4670,711;  248,126;10108,781;44,85083
 505,03; 4538,581;  236,126; 9868,908;44,66472
 505,61; 4482,915;  234,587; 9763,068;44,58557
 506,19; 4419,059;  258,741; 9651,530;44,29268
 506,78; 4373,832;  232,201; 9479,953;44,78528
 507,36; 4242,816;  251,357; 9286,946;44,17487
 507,95; 4182,525;  249,200; 9146,084;44,21014
 508,53; 4126,459;  237,432; 9044,650;44,15727
 509,12; 4072,127;  251,893; 8852,802;44,41663
 509,70; 4039,544;  266,893; 8712,712;44,66887
 510,29; 3964,552;  269,046; 8581,502;44,45745
 510,87; 3826,181;  246,278; 8374,779;44,04136
 511,46; 3770,249;  238,893; 8224,590;44,22101
 512,04; 3729,654;  251,739; 8077,734;44,44054
 512,62; 3630,036;  261,201; 7960,177;43,75693
 513,21; 3543,429;  226,892; 7788,365;43,86098
 513,79; 3486,529;  247,505; 7638,547;43,82365
 514,38; 3391,870;  220,121; 7479,199;43,69355
 514,96; 3369,164;  269,198; 7369,881;43,65730
 515,54; 3272,312;  235,275; 7277,389;43,12677
 516,13; 3251,473;  245,890; 7174,012;43,38236
 516,71; 3205,216;  241,043; 7042,984;43,57835
 517,30; 3121,864;  229,503; 6925,173;43,19748
 517,88; 3086,958;  267,965; 6837,488;42,91016
 518,46; 3008,383;  242,042; 6709,210;42,77515
 519,05; 2978,460;  243,502; 6677,957;42,50489
 519,63; 2983,451;  246,657; 6593,944;43,11754
 520,22; 2916,507;  255,040; 6529,659;42,41639
 520,80; 2880,881;  248,117; 6459,927;42,38321
 521,38; 2901,580;  268,887; 6475,789;42,41557
 521,97; 2849,728;  242,808; 6411,135;42,26300
 522,55; 2860,580;  246,424; 6397,907;42,49636
 523,13; 2836,414;  245,115; 6349,413;42,45039
 523,72; 2799,630;  250,042; 6333,987;41,90684
 524,30; 2867,479;  267,038; 6475,268;41,88700
 524,89; 2862,717;  235,424; 6475,171;42,10577
 525,47; 2912,529;  260,884; 6593,415;41,87339
 526,05; 2908,176;  231,807; 6667,627;41,58552
 526,64; 2987,861;  261,729; 6744,633;42,05109
 527,22; 3039,949;  258,730; 6923,624;41,72938
 527,80; 3106,807;  288,268; 7049,642;41,68588
 528,39; 3072,226;  247,883; 7124,865;41,06952
 528,97; 3194,022;  246,498; 7290,410;41,84499
 529,55; 3254,384;  260,269; 7517,821;41,25516
 530,14; 3343,408;  273,113; 7733,311;41,15567
 530,72; 3379,502;  251,575; 7806,535;41,40229
 531,30; 3416,474;  240,036; 7949,347;41,20262
 531,89; 3497,504;  243,190; 8060,554;41,62930
 532,47; 3541,383;  285,882; 8193,540;41,16896
 533,05; 3543,712;  279,729; 8276,056;40,81852
 533,63; 3570,716;  283,036; 8348,519;40,76235
 534,22; 3538,018;  247,112; 8375,286;40,48764
 534,80; 3591,342;  282,496; 8404,433;40,73962
 535,38; 3653,843;  322,728; 8535,996;40,55772
 535,97; 3538,679;  267,574; 8477,382;39,84387
 536,55; 3600,355;  320,111; 8568,904;39,76635
 537,13; 3573,958;  322,421; 8487,202;39,82394
 537,71; 3601,661;  358,113; 8523,551;39,72289
 538,30; 3594,767;  391,112; 8644,246;38,81744
 538,88; 3607,410;  413,957; 8682,565;38,62142
 539,46; 3711,655;  468,419; 8886,589;38,52662
 540,05; 3713,732;  494,572; 9053,679;37,61093
 540,63; 3781,437;  539,957; 9234,648;37,28114
 541,21; 3822,171;  559,956; 9382,760;36,97480
 541,79; 3876,585;  613,880; 9523,505;36,62000
 542,38; 3926,897;  647,034; 9641,720;36,46445
 542,96; 4003,007;  650,879; 9843,390;36,46587
 543,54; 4062,128;  672,418;10010,159;36,30118
 544,12; 4090,279;  649,726;10193,280;36,05107
 544,70; 4114,908;  620,648;10278,150;36,18182
 545,29; 4167,092;  633,034;10494,357;35,83757
 545,87; 4174,277;  591,187;10505,428;36,14084
 546,45; 4182,452;  556,880;10536,496;36,32977
 547,03; 4146,262;  543,803;10577,875;35,90227
 547,62; 4217,272;  517,187;10757,852;36,13130
 548,20; 4276,426;  496,571;10926,865;36,23920
 548,78; 4294,808;  484,261;10996,873;36,24738
 549,36; 4349,758;  440,954;11236,228;36,20848
 549,94; 4391,175;  398,725;11380,386;36,35561
 550,53; 4525,104;  407,108;11622,701;36,71670
 551,11; 4527,421;  379,876;11786,112;36,36208
 551,69; 4653,261;  379,185;12101,132;36,46217
 552,27; 4693,224;  341,493;12354,289;36,22580
 552,85; 4831,326;  359,261;12791,756;35,97078
 553,44; 4930,065;  341,185;13065,187;36,06476
 554,02; 5097,489;  358,108;13463,714;36,16300
 554,60; 5147,387;  302,184;13792,329;35,91661
 555,18; 5350,019;  330,108;14250,743;36,06093
 555,76; 5449,282;  313,031;14592,996;35,96823
 556,34; 5600,235;  316,491;15034,886;35,89892
 556,93; 5689,410;  307,108;15418,478;35,61756
 557,51; 5816,685;  296,645;15808,650;35,58560
 558,09; 5947,185;  319,185;16208,481;35,42007
 558,67; 6050,851;  311,413;16605,017;35,22510
 559,25; 6141,771;  326,029;16858,468;35,17776
 559,83; 6245,845;  304,874;17220,141;35,12194
 560,41; 6306,688;  295,184;17658,299;34,62227
 561,00; 6393,283;  305,644;17964,349;34,47387
 561,58; 6442,989;  305,184;18198,794;34,30166
 562,16; 6546,646;  291,107;18535,033;34,28834
 562,74; 6658,791;  274,415;18920,020;34,24065
 563,32; 6780,057;  278,182;19425,170;33,95769
 563,90; 6846,260;  298,721;19734,376;33,68828
 564,48; 6956,833;  310,107;20128,558;33,53807
 565,06; 7104,525;  290,644;20677,928;33,42221
 565,65; 7304,973;  295,797;21411,651;33,19390
 566,23; 7598,047;  353,644;22074,577;33,35217
 566,81; 7746,983;  290,106;22813,189;33,10771
 567,39; 8027,320;  312,413;23749,654;32,91730
 567,97; 8167,192;  317,798;24445,760;32,53236
 568,55; 8442,175;  312,721;25282,074;32,55773
 569,13; 8587,574;  300,875;25985,573;32,26318
 569,71; 8907,859;  298,800;26976,138;32,27106
 570,29; 9171,368;  340,646;27965,534;31,96654
 570,87; 9413,218;  332,800;28807,390;31,88955
 571,45; 9618,200;  317,644;29504,075;31,86603
 572,03; 9639,956;  271,182;29935,400;31,58274
 572,61; 9886,826;  278,567;30658,437;31,62706
 573,20;10060,337;  313,876;31279,977;31,47461
 573,78;10243,158;  300,336;32070,451;31,29615
 574,36;10419,280;  303,490;32659,967;31,26357
 574,94;10476,129;  350,028;32969,530;31,04309
 575,52;10518,427;  322,257;33286,439;30,93106
 576,10;10702,102;  372,181;33829,419;30,87500
 576,68;10784,269;  356,028;34304,094;30,71822
 577,26;10966,539;  376,718;34970,970;30,61150
 577,84;11012,973;  374,259;35561,855;30,23427
 578,42;11120,062;  397,797;35907,543;30,19527
 579,00;11096,105;  367,336;36066,117;30,05360
 579,58;11150,710;  394,951;36358,705;29,90722
 580,16;11062,242;  386,258;36366,522;29,67178
 580,74;11067,189;  393,027;36608,613;29,47395
 581,32;11085,847;  385,489;36676,432;29,48493
 581,90;10974,738;  404,104;36700,500;29,12310
 582,48;10948,958;  394,796;36762,572;29,02064
 583,06;11032,568;  408,489;36882,136;29,12810
 583,64;10966,159;  407,412;37150,429;28,73674
 584,22;10876,104;  409,103;37069,976;28,55088
 584,80;10810,820;  424,950;36926,307;28,45338
 585,38;10634,714;  430,491;36498,816;28,29137
 585,96;10509,130;  400,028;36510,096;27,99525
 586,54;10529,113;  417,411;36434,899;28,07442
 587,12;10467,032;  384,873;36671,924;27,78445
 587,70;10522,847;  411,336;36772,495;27,80855
 588,28;10490,475;  398,335;36987,799;27,58209
 588,86;10493,430;  411,411;37134,744;27,45399
 589,44;10399,917;  381,487;37139,135;27,25536
 590,02;10426,293;  378,718;37355,737;27,17248
 590,59;10463,610;  354,488;37591,492;27,14805
 591,17;10474,097;  357,101;37811,448;27,01154
 591,75;10409,574;  359,025;37960,898;26,72885
 592,33;10462,238;  371,871;38254,145;26,63612
 592,91;10448,519;  326,101;38606,306;26,44296
 593,49;10548,887;  333,947;38912,389;26,47836
 594,07;10564,230;  341,716;39061,906;26,40099
 594,65;10481,671;  357,642;39133,911;26,10883
 595,23;10545,434;  347,718;39574,230;25,99700
 595,81;10522,295;  350,795;39762,091;25,80859
 596,39;10502,811;  349,871;39896,005;25,67366
 596,97;10531,395;  337,178;40114,666;25,62811
 597,55;10470,455;  327,026;39943,849;25,60384
 598,12;10374,441;  316,254;40022,096;25,33175
 598,70;10318,457;  316,870;40076,357;25,15522
 599,28;10348,913;  339,024;40361,354;25,01076
 599,86;10286,066;  330,793;40412,698;24,83732
 600,44;10277,945;  300,024;40495,453;24,82352
 601,02;10210,192;  350,099;40514,998;24,54903
 601,60;10189,385;  330,640;40527,074;24,52642
 602,18;10107,002;  303,946;40587,644;24,33504
 602,75;10016,348;  305,564;40724,692;24,02522
 603,33;10001,729;  325,947;40591,378;24,03000
 603,91; 9923,399;  316,792;40690,319;23,79432
 604,49; 9895,097;  325,639;40747,602;23,67391
 605,07; 9799,709;  334,871;40763,081;23,41147
 605,65; 9787,367;  344,485;40908,668;23,27887
 606,23; 9698,318;  405,950;41020,458;22,87943
 606,80; 9684,839;  452,256;41017,360;22,75991
 607,38; 9619,172;  493,638;41115,470;22,46460
 607,96; 9610,412;  546,795;41162,646;22,31547
 608,54; 9627,473;  594,101;41212,721;22,23949
 609,12; 9577,141;  616,641;41306,666;22,02137
 609,70; 9532,491;  644,793;41349,678;21,83447
 610,27; 9516,908;  652,641;41295,814;21,80998
 610,85; 9505,254;  660,024;41419,558;21,70101
 611,43; 9368,895;  677,178;41371,614;21,35849
 612,01; 9294,158;  640,871;41203,148;21,33334
 612,59; 9250,852;  630,947;41214,166;21,24007
 613,16; 9140,151;  606,026;41170,539;21,03840
 613,74; 9108,339;  579,024;40990,914;21,10595
 614,32; 9085,663;  540,408;41042,971;21,09806
 614,90; 8982,339;  490,178;40866,286;21,03264
 615,48; 8836,325;  452,487;40559,746;20,90354
 616,05; 8760,090;  410,180;40471,966;20,84258
 616,63; 8678,625;  401,104;40363,494;20,71328
 617,21; 8594,884;  399,718;40268,994;20,55509
 617,79; 8539,752;  387,333;40142,361;20,50664
 618,36; 8486,431;  397,486;40069,057;20,38978
 618,94; 8379,113;  336,410;39771,528;20,39477
 619,52; 8266,354;  365,642;39429,093;20,22533
 620,10; 8224,721;  354,487;39491,226;20,10958
 620,67; 8127,004;  361,873;39350,492;19,91641
 621,25; 8082,515;  372,409;39161,485;19,87700
 621,83; 8013,906;  354,641;39088,347;19,77416
 622,41; 8038,284;  391,026;39125,842;19,74260
 622,98; 7901,122;  364,642;38758,549;19,62936
 623,56; 7901,730;  365,181;38884,157;19,56581
 624,14; 7804,033;  355,409;38728,291;19,41117
 624,72; 7772,811;  341,718;38649,914;19,39818
 625,29; 7729,262;  316,104;38666,309;19,33017
 625,87; 7722,723;  360,641;38532,616;19,28662
 626,45; 7644,094;  314,873;38446,873;19,22066
 627,02; 7576,108;  335,256;38280,118;19,08256
 627,60; 7547,595;  309,331;38281,586;19,06198
 628,18; 7466,833;  300,795;38338,973;18,83907
 628,76; 7482,300;  310,488;38379,025;18,83921
 629,33; 7427,838;  323,334;38358,690;18,67868
 629,91; 7440,106;  314,718;38329,687;18,74364
 630,49; 7473,510;  344,488;38449,637;18,70882
 631,06; 7395,964;  329,411;38535,475;18,49589
 631,64; 7364,581;  330,488;38571,503;18,39410
 632,22; 7281,871;  289,335;38453,021;18,32249
 632,79; 7327,789;  314,489;38673,557;18,28329
 633,37; 7368,685;  297,563;38843,835;18,34450
 633,95; 7292,005;  304,873;38879,750;18,11317
 634,52; 7294,616;  282,103;38992,354;18,11539
 635,10; 7255,601;  293,872;39015,394;17,97897
 635,68; 7242,818;  298,643;39256,610;17,82479
 636,25; 7184,124;  287,567;39194,822;17,72563
 636,83; 7161,531;  278,027;39495,718;17,55204
 637,41; 7159,490;  282,258;39440,479;17,56268
 637,98; 7183,898;  311,182;39708,412;17,44467
 638,56; 7144,500;  313,182;39881,850;17,26446
 639,13; 7151,293;  288,334;39933,633;17,31090
 639,71; 7167,467;  304,950;40086,266;17,25061
 640,29; 7038,330;  256,796;39748,763;17,17193
 640,86; 7062,391;  264,949;40035,288;17,09174
 641,44; 7053,376;  279,949;40050,505;17,03126
 642,02; 6991,206;  299,488;40076,798;16,82295
 642,59; 6966,883;  274,949;40148,861;16,78274
 643,17; 7003,252;  281,334;40262,617;16,81266
 643,74; 6942,313;  280,180;40240,603;16,67183
 644,32; 6930,066;  297,872;40196,974;16,62241
 644,89; 6917,128;  294,641;40164,421;16,61029
 645,47; 6882,112;  303,641;40245,177;16,47025
 646,05; 6895,942;  290,411;40090,932;16,59660
 646,62; 6863,927;  289,641;40109,995;16,50986
 647,20; 6858,295;  289,718;40289,058;16,42171
 647,77; 6775,741;  265,487;40197,967;16,30315
 648,35; 6692,956;  256,026;40034,107;16,18210
 648,92; 6717,941;  298,949;40081,786;16,13508
 649,50; 6672,310;  255,026;40013,310;16,14075
 650,08; 6708,448;  261,410;39907,450;16,26149
 650,65; 6685,124;  262,333;40059,590;16,13878
 651,23; 6682,647;  243,564;40483,499;16,00172
 651,80; 6857,093;  258,179;41612,870;15,95687
 652,38; 6992,616;  261,872;42032,164;16,11371
 652,95; 6983,831;  233,256;42436,227;15,99550
 653,53; 7018,276;  276,564;42747,752;15,87361
 654,10; 7052,107;  289,718;42884,815;15,87598
 654,68; 7010,168;  250,641;42776,185;15,89522
 655,25; 6991,614;  264,872;42974,018;15,75012
 655,83; 7003,906;  245,179;43005,004;15,80625
 656,40; 7007,582;  284,795;42952,990;15,75597
 656,98; 6995,798;  253,179;42933,591;15,79792
 657,55; 6971,243;  261,410;42895,270;15,73827
 658,13; 6892,535;  252,641;42493,410;15,71916
 658,70; 6887,212;  269,102;42348,011;15,72786
 659,28; 6734,427;  260,640;41591,459;15,66334
 659,85; 6552,257;  256,948;40543,599;15,62629
 660,43; 6554,472;  275,948;40407,508;15,64486
 661,00; 6558,457;  262,486;40634,879;15,59474
 661,58; 6569,826;  249,794;40897,480;15,54832
 662,15; 6610,579;  239,333;41179,928;15,56217
 662,73; 6700,410;  299,948;41449,453;15,55416
 663,30; 6651,317;  268,563;41664,977;15,41862
 663,88; 6682,455;  270,948;41892,886;15,40415
 664,45; 6738,286;  255,486;42090,257;15,49620
 665,03; 6779,270;  264,717;42455,705;15,44063
 665,60; 6901,562;  312,102;42942,152;15,45731
 666,17; 6826,161;  271,255;43090,446;15,30834
 666,75; 6893,377;  261,025;43340,663;15,39556
 667,32; 6924,822;  289,948;43719,188;15,27744
 667,90; 7003,653;  266,101;43996,712;15,40695
 668,47; 7001,945;  294,640;44317,698;15,23589
 669,05; 7053,391;  269,486;44670,762;15,27863
 669,62; 7061,990;  245,178;44863,671;15,27800
 670,19; 7083,436;  254,794;44851,888;15,31186
 670,77; 7115,190;  265,793;45132,643;15,26605
 671,34; 7117,020;  268,793;45023,860;15,30157
 671,92; 7171,235;  253,947;45300,846;15,35575
 672,49; 7224,989;  269,947;45421,294;15,40384
 673,06; 7220,204;  224,024;45433,818;15,47492
 673,64; 7212,034;  255,947;45416,958;15,40286
 674,21; 7158,788;  237,255;45450,021;15,30880
 674,79; 7255,464;  262,255;45639,007;15,41144
 675,36; 7262,064;  276,947;45766,840;15,35532
 675,93; 7218,664;  253,332;45623,903;15,35209
 676,51; 7251,032;  281,870;45858,427;15,29111
 677,08; 7329,171;  268,101;45891,952;15,47671
 677,65; 7335,386;  263,947;45995,707;15,46286
 678,23; 7384,678;  268,485;46231,924;15,48229
 678,80; 7372,200;  257,101;46384,987;15,42473
 679,38; 7379,492;  241,639;46510,358;15,42695
 679,95; 7488,784;  267,485;46653,959;15,56768
 680,52; 7501,153;  250,639;47027,638;15,50017
 681,10; 7587,138;  270,331;47363,778;15,53678
 681,67; 7641,276;  272,562;47716,918;15,53128
 682,24; 7638,414;  236,254;47830,289;15,55270
 682,82; 7749,090;  250,716;48266,736;15,61640
 683,39; 7898,305;  279,331;48759,338;15,71570
 683,96; 7903,674;  243,869;48931,478;15,73256
 684,54; 7966,889;  237,408;49218,233;15,78063
 685,11; 8042,720;  268,254;49710,835;15,72423
 685,68; 8090,550;  255,023;50123,975;15,71224
 686,25; 8069,842;  242,254;50130,576;15,69022
 686,83; 8136,980;  243,715;50379,947;15,74363
 687,40; 8249,349;  228,023;50759,471;15,87393
 687,97; 8351,641;  276,331;51175,073;15,86544
 688,55; 8332,549;  237,869;51281,367;15,85840
 689,12; 8405,148;  225,254;51495,045;15,95461
 689,69; 8465,440;  232,023;51621,339;16,02165
 690,26; 8507,501;  242,869;51610,787;16,08909
 690,84; 8522,563;  241,946;51917,080;16,02437
 691,41; 8599,932;  250,638;51948,759;16,15009
 691,98; 8688,224;  256,561;52306,822;16,19908
 692,56; 8699,285;  235,253;52441,270;16,21275
 693,13; 8716,115;  294,869;52495,871;16,13235
 693,70; 8804,023;  274,176;52639,396;16,28914
 694,27; 8790,545;  250,715;52769,689;16,26047
 694,84; 8814,991;  243,561;52835,829;16,29789
 695,42; 8917,360;  284,023;52996,892;16,37804
 695,99; 8950,575;  250,099;53277,263;16,40758
 696,56; 8933,559;  243,099;53121,557;16,43478
 697,13; 9066,544;  264,022;53431,082;16,55634
 697,71; 9074,682;  219,638;53449,529;16,63547
 698,28; 9182,051;  251,253;53810,515;16,67461
 698,85; 9165,343;  218,330;53892,809;16,66903
 699,42; 9218,635;  225,715;54085,718;16,69684
 699,99; 9287,157;  265,253;54175,781;16,73496
 700,57; 9331,372;  265,868;54237,845;16,79669
 701,14; 9350,972;  245,176;54338,754;16,83341
 701,71; 9350,110;  249,330;54598,124;16,74514
 702,28; 9440,402;  256,407;54509,418;16,92808
 702,85; 9457,848;  258,484;54701,327;16,89729
 703,43; 9573,679;  273,714;54993,775;16,99553
 704,00; 9619,355;  279,483;55230,223;16,99681
 704,57; 9686,801;  259,791;55148,209;17,17486
 705,14; 9741,093;  288,330;55447,580;17,13722
 705,71; 9777,308;  304,483;55488,950;17,16574
 706,28; 9826,138;  265,714;55340,706;17,35892
 706,86; 9938,815;  295,252;55697,307;17,40651
 707,43; 9937,338;  310,022;55571,909;17,42126
 708,00; 9970,091;  290,252;55628,818;17,49203
 708,57; 9940,768;  268,098;55526,881;17,50431
 709,14;10038,829;  293,791;55719,329;17,58222
 709,71;10075,583;  276,560;55778,853;17,65517
 710,28;10161,259;  279,637;56054,301;17,71704
 710,86;10192,090;  291,175;56245,287;17,69470
 711,43;10260,382;  290,406;56174,812;17,84035
 712,00;10325,520;  274,637;56266,490;17,95062
 712,57;10392,966;  275,791;56451,861;18,00976
 713,14;10454,488;  262,252;56564,847;18,10260
 713,71;10435,242;  270,021;56355,602;18,12448
 714,28;10496,611;  257,560;56496,742;18,20626
 714,85;10418,826;  242,790;56285,498;18,15764
 715,42;10542,964;  253,098;56570,330;18,27126
 716,00;10662,102;  284,329;56620,008;18,42132
 716,57;10678,702;  247,636;56825,918;18,43652
 717,14;10677,917;  228,329;56662,134;18,51654
 717,71;10765,593;  227,636;56615,659;18,68829
 718,28;10877,808;  255,405;56809,337;18,78278
 718,85;10897,639;  227,252;56777,554;18,86884
 719,42;11035,700;  251,790;56956,925;19,01752
 719,99;11090,300;  222,405;56871,680;19,18452
 720,56;11151,592;  244,328;57079,282;19,19112
 721,13;11161,114;  243,867;57071,037;19,21132
 721,70;11253,868;  235,405;56982,716;19,41671
 722,27;11296,775;  254,867;57061,317;19,43777
 722,84;11444,067;  280,867;57280,842;19,58457
 723,41;11449,744;  234,251;57128,136;19,71300
 723,98;11518,190;  241,328;57476,276;19,70276
 724,55;11659,482;  262,328;57525,877;19,90298
 725,12;11646,851;  207,636;57460,709;19,98009
 725,69;11760,989;  237,020;57676,772;20,06271
 726,27;11805,819;  233,020;57737,989;20,12487
 726,84;11926,957;  240,636;58096,668;20,19897
 727,41;11983,018;  251,251;57917,039;20,34442
 727,98;12125,310;  263,020;58335,717;20,42662
 728,55;12216,756;  283,020;58212,549;20,60044
 729,12;12174,510;  230,328;58427,843;20,52353
 729,69;12327,109;  268,559;58545,983;20,69163
 730,26;12401,632;  275,251;58827,046;20,71052
 730,82;12419,078;  245,712;58534,955;20,88441
 731,39;12484,601;  244,097;58687,249;20,94429
 731,96;12663,124;  238,866;58878,312;21,18754
 732,53;12753,492;  269,251;59284,914;21,15412
 733,10;12854,015;  270,558;59342,284;21,30200
 733,67;12992,846;  277,097;59617,578;21,42846
 734,24;12966,368;  258,020;59095,872;21,59893
 734,81;13098,276;  285,097;59304,397;21,71015
 735,38;13121,260;  263,097;59005,075;21,88922
 735,95;13160,475;  264,789;58936,215;21,97950
 736,52;13274,767;  280,096;59168,663;22,06654
 737,09;13260,444;  276,635;58809,033;22,18226
 737,66;13389,659;  316,712;59152,712;22,21930
 738,23;13442,566;  248,866;59120,159;22,41109
 738,80;13617,012;  294,635;59379,761;22,54777
 739,37;13667,535;  293,866;59598,824;22,55068
 739,94;13757,750;  277,865;59713,887;22,67965
 740,51;13887,965;  326,250;59698,258;22,84193
 741,07;13865,949;  267,865;59637,475;22,90412
 741,64;13982,703;  288,404;59815,307;23,00523
 742,21;14004,841;  274,096;59962,755;23,00394
 742,78;14077,902;  246,327;59720,818;23,25632
 743,35;14147,886;  261,634;60063,265;23,22052
 743,92;14353,563;  301,942;60219,098;23,45175
 744,49;14338,624;  279,250;60013,084;23,53670
 745,06;14479,070;  268,250;60047,301;23,77224
 745,63;14495,900;  252,865;60047,902;23,81976
 746,19;14562,038;  258,942;59949,811;23,96195
 746,76;14617,638;  272,557;60104,413;23,97566
 747,33;14713,776;  253,865;60042,937;24,18487
 747,90;14853,607;  273,173;60244,770;24,31223
 748,47;14883,899;  286,096;60168,371;24,37750
 749,04;14924,267;  282,942;60151,204;24,45591
 749,61;15031,098;  291,480;60108,882;24,64102
 750,17;15094,775;  278,634;60286,176;24,69046
 750,74;15181,066;  284,557;60067,470;24,91767
 751,31;15215,358;  257,634;59969,763;25,04973
 751,88;15259,112;  244,788;59851,903;25,18881
 752,45;15382,866;  272,480;59977,505;25,30840
 753,02;15333,081;  267,557;59914,414;25,25787
 753,58;15411,142;  256,403;59677,939;25,50378
 754,15;15518,280;  268,326;59703,463;25,65815
 754,72;15473,110;  247,172;59566,834;25,66761
 755,29;15494,941;  243,634;59412,436;25,77593
 755,86;15667,233;  261,480;59606,268;25,95974
 756,42;15733,217;  268,710;59348,946;26,17543
 756,99;15789,047;  222,864;59379,317;26,31358
 757,56;15799,955;  245,787;59345,226;26,31864
 758,13;15847,093;  201,480;59297,366;26,47496
 758,70;16077,077;  227,326;59328,045;26,81820
 759,26;16120,677;  219,787;59508,569;26,81939
 759,83;16325,969;  217,249;59608,171;27,12320
 760,40;16318,876;  215,556;59569,618;27,13095
 760,97;16350,322;  191,941;59507,374;27,24145
 761,53;16382,076;  167,787;59097,206;27,51476
 762,10;16434,752;  188,864;59006,731;27,62067
 762,67;16562,275;  215,556;58978,563;27,81804
 763,24;16493,875;  171,864;58655,010;27,90891
 763,80;16598,397;  215,941;58695,920;28,01379
 764,37;16693,997;  221,633;58724,444;28,15653
 764,94;16627,289;  202,479;58223,661;28,30830
 765,50;16679,196;  200,941;58188,109;28,41707
 766,07;16813,488;  250,941;58312,403;28,52589
 766,64;16821,165;  222,402;57961,389;28,74793
 767,21;16790,688;  218,479;57850,759;28,75508
 767,77;16889,210;  245,017;57809,284;28,91411
 768,34;16904,195;  254,633;57720,039;28,97319
 768,91;16933,179;  249,171;57490,872;29,14660
 769,47;16986,394;  242,094;57610,550;29,18729
 770,04;17052,071;  264,094;57447,998;29,35787
 770,61;17019,055;  238,556;57207,445;29,45555
 771,18;17088,116;  229,017;57093,432;29,64789
 771,74;17267,562;  251,786;57403,264;29,77312
 772,31;17221,546;  254,632;57036,096;29,88108
 772,88;17279,684;  219,555;56781,313;30,16195
 773,44;17237,976;  231,325;56535,915;30,20473
 774,01;17349,961;  242,017;56679,516;30,31308
 774,58;17412,176;  224,786;56336,041;30,63091
 775,14;17455,929;  214,171;56509,181;30,62751
 775,71;17504,221;  233,863;56373,936;30,76298
 776,27;17649,744;  273,632;56323,307;31,00127
 776,84;17805,805;  278,171;56319,216;31,27642
 777,41;17799,482;  255,324;56158,587;31,38307
 777,97;17764,543;  248,324;55869,034;31,49226
 778,54;17841,527;  248,632;55862,944;31,63376
 779,11;17972,973;  258,170;55932,391;31,81868
 779,67;18107,650;  230,093;55868,993;32,13140
 780,24;18091,403;  253,863;55591,825;32,23382
 780,80;18195,926;  263,401;55479,273;32,47712
 781,37;18284,756;  252,939;55529,951;32,62082
 781,94;18363,587;  254,862;55312,629;32,89041
 782,50;18466,725;  256,170;55101,000;33,20378
 783,07;18567,632;  272,401;55288,525;33,25431
 783,63;18591,155;  230,247;55059,588;33,48738
 784,20;18691,678;  255,478;55068,112;33,63495
 784,77;18661,124;  249,401;54868,560;33,70928
 785,33;18688,954;  226,170;54638,085;33,93151
 785,90;18829,477;  246,554;54549,609;34,22077
 786,46;18899,307;  265,939;54460,518;34,38235
 787,03;18801,215;  237,016;54258,582;34,36442
 787,59;18945,122;  245,708;54143,568;34,69417
 788,16;18976,645;  241,785;54108,708;34,77990
 788,73;19029,937;  245,400;54001,078;34,94428
 789,29;19007,459;  241,631;53561,988;35,19449
 789,86;19011,290;  246,016;53556,281;35,20011
 790,42;19142,505;  255,093;53430,575;35,51902
 790,99;19055,258;  254,246;53023,484;35,62874
 791,55;19124,858;  236,016;53114,009;35,72156
 792,12;19274,458;  259,092;53020,149;36,04053
 792,68;19171,057;  239,939;52791,366;36,02399
 793,25;19184,273;  247,015;52456,275;36,27184
 793,81;19189,180;  277,400;52162,646;36,44924
 794,38;19180,241;  221,708;51920,940;36,67082
 794,94;19164,841;  227,323;51778,464;36,73540
 795,51;19205,825;  243,708;51502,220;36,99311
 796,07;19198,502;  253,015;51154,283;37,22007
 796,64;19307,563;  272,477;51359,653;37,26001
 797,20;19198,701;  240,938;50841,024;37,46587
 797,77;19083,147;  231,246;50515,472;37,49069
 798,33;19077,131;  230,861;50318,612;37,62650
 798,90;19115,654;  267,554;50350,290;37,63393
 799,46;19058,023;  243,092;49905,892;37,88536
 800,03;18972,622;  251,246;49702,570;37,85819
 800,59;19078,914;  264,246;49447,556;38,25417
 801,15;19036,129;  256,169;49249,696;38,33151
 801,72;18920,344;  253,246;48855,452;38,40793
 802,28;18966,636;  285,707;48559,976;38,69749
 802,85;18909,313;  252,861;48411,885;38,73927
 803,41;18918,990;  252,553;48186,025;38,94238
 803,98;18906,589;  238,861;47748,858;39,29221
 804,54;18791,881;  241,938;47473,921;39,27412
 805,11;18777,096;  251,168;47388,676;39,30188
 805,67;18838,388;  264,322;47262,739;39,52062
 806,23;18651,065;  257,015;46777,571;39,53962
 806,80;18752,588;  271,091;46658,327;39,84177
 807,36;18789,187;  276,399;46582,928;39,97879
 807,93;18706,633;  277,322;46312,914;40,03274
 808,49;18697,925;  234,784;45881,900;40,44755
 809,05;18655,140;  223,399;45730,810;40,50272
 809,62;18751,894;  256,707;45606,565;40,78334
 810,18;18834,878;  257,399;45514,320;41,04892
 810,74;18740,093;  234,322;45219,614;41,13738
 811,31;18709,462;  232,553;44936,677;41,33155
 811,87;18833,831;  234,860;44874,894;41,66433
 812,44;18839,969;  272,783;44842,726;41,65854
 813,00;18698,030;  212,168;44537,251;41,70519
 813,56;18874,399;  244,552;44600,699;42,00060
 814,13;18866,922;  239,937;44506,223;42,07939
 814,69;18893,983;  247,860;44407,440;42,22441
 815,25;18739,275;  219,245;43855,965;42,44139
 815,82;18756,413;  256,783;43796,335;42,48925
 816,38;18782,936;  262,783;43605,706;42,72936
 816,94;18675,689;  220,245;43263,154;42,87685
 817,51;18688,289;  215,629;43108,832;43,06664
 818,07;18650,120;  223,091;42865,588;43,21283
 818,63;18641,642;  240,398;42571,497;43,46980
 819,20;18733,627;  235,398;42559,791;43,70583
 819,76;18558,611;  223,552;42053,854;43,83200
 820,32;18588,903;  272,244;42024,378;43,86999
 820,89;18552,349;  255,167;41769,980;44,07386
 821,45;18457,102;  234,475;41470,120;44,19144
 822,01;18529,163;  249,629;41212,490;44,62465
 822,57;18479,148;  259,783;41085,092;44,62762
 823,14;18399,593;  225,475;40882,693;44,70084
 823,70;18423,116;  218,706;40583,218;45,10004
 824,26;18354,947;  228,936;40340,127;45,18941
 824,82;18397,393;  252,552;40181,883;45,44239
 825,39;18288,684;  227,859;39873,023;45,55619
 825,95;18388,053;  256,398;39937,778;45,69311
 826,51;18275,038;  249,552;39501,918;45,92204
 827,08;18363,407;  270,244;39705,827;45,88030
 827,64;18296,160;  260,936;39398,275;46,08189
 828,20;18251,529;  233,859;39124,799;46,32871
 828,76;18308,513;  245,474;39040,478;46,56022
 829,32;18317,190;  254,321;38899,233;46,74061
 829,89;18238,636;  212,321;38687,604;46,85168
 830,45;18334,697;  229,936;38682,359;47,08354
 831,01;18324,373;  221,936;38457,576;47,34441
 831,57;18277,589;  234,628;38340,178;47,34995
 832,14;18386,881;  231,167;38418,087;47,54433
 832,70;18316,711;  232,705;38101,304;47,75462
 833,26;18371,541;  220,320;37979,213;48,07138
 833,82;18352,987;  230,705;37849,122;48,17396
 834,38;18490,587;  225,320;37884,954;48,50091
 834,95;18453,263;  213,936;37765,633;48,57125
 835,51;18408,017;  192,166;37620,619;48,66846
 836,07;18513,924;  232,859;37709,990;48,77926
 836,63;18618,216;  244,320;37710,437;49,04137
 837,19;18552,354;  231,782;37494,116;49,16647
 837,75;18456,416;  204,012;37174,563;49,37011
 838,32;18525,938;  244,935;37201,473;49,46622
 838,88;18650,461;  252,320;37381,074;49,55227
 839,44;18665,215;  237,243;37208,445;49,84412
 840,00;18672,276;  233,551;37106,585;50,00599
 840,56;18626,645;  210,089;36842,340;50,27416
 841,12;18607,244;  211,474;36801,326;50,27561
 841,68;18650,075;  209,012;36654,851;50,59854
 842,25;18684,752;  217,320;36602,222;50,75576
 842,81;18601,351;  215,012;36276,054;50,98671
 843,37;18690,028;  205,704;36358,963;51,12768
 843,93;18747,935;  223,320;36140,565;51,57583
 844,49;18889,919;  230,396;36145,859;51,95401
 845,05;18781,750;  204,089;36008,460;51,88657
 845,61;18932,426;  240,858;36106,831;52,11505
 846,17;18922,718;  225,781;35977,586;52,29649
 846,73;18987,087;  228,396;35902,495;52,58350
 847,29;19016,149;  204,012;35749,866;52,92358
 847,86;19032,056;  213,242;35627,083;53,13971
 848,42;18966,809;  204,858;35443,531;53,24250
 848,98;19062,101;  219,704;35396,055;53,56553
 849,54;19166,855;  211,242;35299,195;54,02314
 850,10;19202,839;  226,627;35297,489;54,10820
 850,66;19189,439;  202,088;35152,090;54,32718
 851,22;19263,654;  196,627;35074,461;54,66804
 851,78;19334,946;  250,242;35120,447;54,73069
 852,34;19252,161;  227,011;34792,126;55,04148
 852,90;19327,376;  210,165;34638,420;55,52768
 853,46;19277,206;  207,703;34422,483;55,73470
 854,02;19335,268;  222,473;34570,776;55,64407
 854,58;19268,483;  206,550;34248,070;55,99613
 855,14;19324,775;  188,088;34113,672;56,40783
 855,70;19288,451;  181,088;34010,119;56,48215
 856,26;19276,897;  230,857;33985,413;56,42509
 856,82;19287,497;  211,011;33795,476;56,80152
 857,38;19287,712;  232,780;33755,001;56,84269
 857,94;19349,235;  223,318;33563,141;57,36658
 858,50;19335,373;  227,472;33468,435;57,48299
 859,06;19199,588;  212,857;33216,113;57,52987
 859,62;19309,187;  238,165;33200,638;57,85677
 860,18;19149,556;  211,703;32975,239;57,80162
 860,74;19233,310;  191,164;32877,995;58,25632
 861,30;19157,217;  198,703;32637,750;58,44350
 861,86;19211,125;  234,241;32729,967;58,39809
 862,42;19164,955;  211,241;32530,722;58,64486
 862,98;19306,247;  233,549;32460,324;59,18277
 863,54;19208,001;  232,703;32223,233;59,31536
 864,10;19322,369;  218,780;32280,296;59,58417
 864,66;19226,354;  197,164;32030,436;59,77767
 865,22;19299,800;  218,395;31993,114;60,05216
 865,78;19246,476;  226,164;31765,024;60,30755
 866,34;19173,307;  217,549;31711,471;60,18862
 866,90;19233,599;  224,010;31595,842;60,59445
 867,45;19139,429;  234,779;31383,982;60,69064
 868,01;19151,336;  225,010;31204,122;61,09383
 868,57;19072,551;  220,856;30995,954;61,25633
 869,13;19083,305;  209,933;30903,633;61,48940
 869,69;19055,981;  210,702;30762,849;61,68234
 870,25;19123,658;  195,010;30629,220;62,19530
 870,81;19101,950;  223,625;30592,745;62,16290
 871,37;19072,242;  225,087;30508,423;62,23606
 871,93;19103,996;  240,317;30317,409;62,71776
 872,49;18946,211;  224,779;30062,395;62,74439
 873,04;18898,349;  209,471;29764,382;63,23442
 873,60;18907,102;  195,702;29773,906;63,26077
 874,16;18876,317;  228,471;29725,815;63,21873
 874,72;18891,010;  209,394;29565,508;63,63790
 875,28;18863,471;  227,240;29508,892;63,64474
 875,84;18889,010;  215,625;29468,508;63,83434
 876,40;18928,317;  221,163;29483,277;63,92961
 876,95;18977,933;  228,779;29318,585;64,45266
 877,51;18997,779;  241,625;29324,046;64,49310
 878,07;19134,087;  256,240;29308,892;64,97805
 878,63;19150,010;  221,702;29386,123;64,90205
 879,19;19158,394;  236,317;29306,892;65,09014
 879,75;19274,317;  231,317;29315,585;65,47526
 880,30;19294,471;  218,010;29349,738;65,48345
 880,86;19469,087;  260,933;29409,200;65,89810
 881,42;19462,625;  217,240;29516,585;65,68538
 881,98;19613,240;  230,702;29638,585;65,90933
 882,54;19638,163;  214,394;29673,585;65,93450
 883,09;19816,471;  239,779;29802,200;66,22155
 883,65;19874,702;  208,317;29926,815;66,17557
 884,21;20054,625;  241,702;30083,892;66,39232
 884,77;20114,087;  218,471;30170,277;66,42543
 885,32;20376,087;  213,240;30367,662;66,86531
 885,88;20427,240;  256,702;30528,354;66,63177
 886,44;20615,010;  226,394;30561,277;67,21178
 887,00;20673,240;  239,856;30602,200;67,29844
 887,56;20877,548;  223,163;30764,969;67,62660
 888,11;20999,548;  210,317;30778,815;68,00868
 888,67;21121,548;  252,317;31034,662;67,79611
 889,23;21251,163;  237,471;31000,738;68,30774
 889,79;21200,702;  212,702;30827,354;68,55541
 890,34;21232,471;  218,702;30761,738;68,80052
 890,90;21430,779;  276,702;31002,738;68,84740
 891,46;21360,702;  214,625;30871,892;68,97574
 892,01;21405,240;  241,317;30809,123;69,23599
 892,57;21377,933;  249,317;30782,046;69,19989
 893,13;21244,471;  211,471;30613,508;69,18287
 893,69;21215,010;  211,548;30430,200;69,50496
 894,24;21187,317;  224,471;30329,738;69,63182
 894,80;21120,548;  227,702;30158,200;69,80454
 895,36;21050,548;  225,394;30082,200;69,75011
 895,91;20975,856;  223,856;29868,815;70,00178
 896,47;20923,010;  225,548;29737,815;70,13172
 897,03;20838,163;  215,394;29583,431;70,22182
 897,58;20862,702;  230,087;29458,969;70,58982
 898,14;20824,856;  234,163;29259,354;70,94077
 898,70;20661,010;  203,548;29083,277;70,83675
 899,25;20775,240;  218,240;29094,815;71,18919
 899,81;20671,933;  238,702;28850,123;71,41634
 900,37;20496,933;  202,471;28737,200;71,12197
 900,92;20615,163;  223,317;28698,892;71,61171
 901,48;20590,625;  218,087;28523,277;71,97457
 902,03;20578,625;  210,010;28373,277;72,32334
 902,59;20541,471;  215,394;28163,969;72,72670
 903,15;20544,163;  235,317;28146,277;72,76298
 903,70;20353,163;  234,163;27831,431;72,90215
 904,26;20389,163;  207,010;27701,046;73,40557
 904,82;20531,240;  216,856;27670,200;73,99603
 905,37;20420,933;  218,010;27592,354;73,80240
 905,93;20354,779;  218,625;27372,892;74,15466
 906,48;20421,779;  227,548;27292,123;74,61499
 907,04;20400,471;  232,317;27288,046;74,54301
 907,60;20297,933;  207,010;26962,738;75,09017
 908,15;20303,087;  206,087;26884,431;75,33076
 908,71;20362,240;  240,087;26822,508;75,69722
 909,26;20183,856;  211,471;26718,431;75,34770
 909,82;20207,856;  234,625;26520,431;75,98485
 910,37;20162,856;  255,010;26494,738;75,86910
 910,93;20111,394;  204,702;26271,815;76,36708
 911,48;20001,240;  205,933;26016,431;76,69479
 912,04;19908,702;  208,779;25987,969;76,41793
 912,60;20087,087;  217,779;25989,431;77,09753
 913,15;19978,933;  222,548;25880,969;76,99766
 913,71;19835,702;  204,702;25663,738;77,10818
 914,26;19773,163;  196,548;25538,354;77,25028
 914,82;19786,856;  218,317;25452,431;77,54795
 915,37;19807,933;  205,779;25397,431;77,81210
 915,93;19733,548;  239,010;25291,969;77,81332
 916,48;19659,317;  205,394;25086,431;78,18775
 917,04;19586,702;  228,702;25025,585;78,06626
 917,59;19631,240;  237,010;24963,046;78,43647
 918,15;19484,317;  187,548;24694,738;78,73921
 918,70;19554,163;  216,163;24653,738;79,13224
 919,26;19515,933;  216,702;24573,815;79,23447
 919,81;19477,548;  205,856;24446,277;79,50230
 920,37;19380,317;  212,625;24303,200;79,56511
 920,92;19402,625;  234,010;24199,200;79,98524
 921,48;19290,317;  203,317;23943,046;80,40109
 922,03;19342,394;  214,471;23948,123;80,59410
 922,59;19287,779;  201,779;23805,892;80,85879
 923,14;19222,394;  198,240;23665,046;81,06836
 923,69;19245,010;  228,625;23581,354;81,43110
 924,25;19249,779;  232,779;23595,508;81,39888
 924,80;19202,702;  216,087;23307,585;82,22340
 925,36;19108,240;  209,163;23299,892;81,84704
 925,91;19091,394;  211,856;23093,892;82,50812
 926,47;18989,394;  187,625;23053,046;82,22796
 927,02;19021,240;  232,010;22928,046;82,78640
 927,57;18838,779;  217,933;22757,200;82,61514
 928,13;18831,702;  203,625;22745,738;82,63678
 928,68;18857,317;  208,702;22598,431;83,29094
 929,24;18772,394;  185,163;22383,046;83,73425
 929,79;18673,163;  199,471;22287,200;83,63781
 930,34;18577,548;  209,163;22196,123;83,54218
 930,90;18566,317;  195,548;22095,815;83,88377
 931,45;18532,317;  212,394;22056,738;83,86575
 932,01;18503,317;  218,394;21929,354;84,21978
 932,56;18443,779;  227,779;21786,969;84,49297
 933,11;18414,010;  226,471;21769,662;84,42361
 933,67;18343,010;  203,240;21552,585;84,96640
 934,22;18308,317;  212,087;21467,354;85,13763
 934,77;18239,548;  226,163;21440,046;84,91319
 935,33;18152,010;  223,779;21228,431;85,35362
 935,88;18050,856;  215,317;21155,200;85,17497
 936,43;18018,394;  197,394;21104,200;85,24019
 936,99;18053,779;  212,394;20907,277;86,21158
 937,54;17946,702;  194,010;20763,431;86,30623
 938,09;17903,394;  214,394;20733,123;86,20904
 938,65;17846,933;  213,779;20592,354;86,52790
 939,20;17848,163;  194,163;20559,354;86,68713
 939,75;17788,087;  198,163;20358,200;87,25144
 940,31;17716,548;  182,087;20308,969;87,11961
 940,86;17850,010;  219,702;20218,046;88,15884
 941,41;17777,394;  256,394;20175,354;87,96142
 941,96;17654,471;  203,471;20056,662;87,90023
 942,52;17576,163;  214,394;20002,738;87,73735
 943,07;17478,779;  190,163;19846,431;87,95472
 943,62;17543,548;  202,240;19760,585;88,66450
 944,18;17481,856;  196,548;19663,969;88,79095
 944,73;17359,702;  207,087;19558,046;88,63961
 945,28;17245,471;  181,702;19285,046;89,32347
 945,83;17289,471;  199,240;19313,662;89,41014
 946,39;17301,394;  202,856;19304,508;89,51340
 946,94;17295,317;  230,548;19179,123;90,05832
 947,49;17185,548;  200,163;19056,277;90,07893
 948,04;17200,625;  219,010;19013,508;90,35418
 948,59;17157,240;  227,317;18957,354;90,38916
 949,15;17098,625;  188,394;18849,277;90,61860
 949,70;17039,163;  194,933;18773,738;90,66369
 950,25;16959,702;  226,779;18670,892;90,72230
 950,80;16872,163;  171,625;18547,046;90,88520
 951,36;16842,779;  177,010;18350,046;91,70602
 951,91;16914,163;  223,087;18425,200;91,69857
 952,46;16700,933;  183,933;18200,738;91,67552
 953,01;16815,317;  222,856;18321,277;91,67906
 953,56;16643,548;  177,702;18106,662;91,83938
 954,11;16668,010;  216,087;18032,892;92,33935
 954,67;16561,163;  198,779;17954,969;92,15031
 955,22;16454,240;  180,779;17802,431;92,34924
 955,77;16505,163;  221,625;17822,969;92,51304
 956,32;16399,933;  243,010;17689,354;92,60922
 956,87;16343,010;  188,702;17499,585;93,31880
 957,42;16324,933;  204,471;17490,123;93,25920
 957,98;16259,548;  195,240;17383,354;93,46173
 958,53;16303,317;  222,471;17341,969;93,93293
 959,08;16275,625;  194,163;17226,815;94,41549
 959,63;16247,856;  192,087;17128,123;94,80240
 960,18;16195,163;  215,163;17113,277;94,56677
 960,73;16198,317;  205,010;17021,277;95,10617
 961,28;16085,317;  186,933;16850,815;95,40624
 961,83;16137,240;  213,087;16829,277;95,83517
 962,39;16015,317;  189,856;16719,508;95,73984
 962,94;16034,548;  223,317;16656,815;96,21342
 963,49;15848,471;  203,087;16471,662;96,16936
 964,04;15995,625;  215,317;16481,508;97,01293
 964,59;15887,163;  180,087;16306,892;97,39732
 965,14;15928,779;  213,471;16273,200;97,85537
 965,69;15852,548;  204,702;16118,046;98,33160
 966,24;15737,779;  208,548;16067,354;97,92182
 966,79;15778,394;  213,856;15941,662;98,96192
 967,34;15609,548;  178,087;15834,046;98,56605
 967,89;15614,625;  189,317;15766,508;99,02497
 968,44;15568,702;  211,394;15739,123;98,90247
 968,99;15496,548;  212,163;15617,277;99,21631
 969,55;15458,163;  209,856;15543,585;99,44292
 970,10;15350,779;  210,625;15387,354;99,75901
 970,65;15307,471;  214,933;15328,815;99,85878
 971,20;15237,240;  203,471;15221,892;100,10220
 971,75;15155,471;  189,548;15016,892;100,93462
 972,30;15095,471;  202,779;14988,354;100,72447
 972,85;14967,394;  203,548;14955,662;100,07953
 973,40;14825,856;  195,702;14768,354;100,39459
 973,95;14806,317;  206,779;14719,200;100,60029
 974,50;14735,702;  223,394;14604,046;100,91551
 975,05;14695,625;  220,779;14528,277;101,16965
 975,60;14615,163;  225,779;14499,892;100,80755
 976,15;14524,702;  215,394;14385,815;100,98012
 976,70;14466,240;  213,163;14295,585;101,21184
 977,25;14435,625;  208,779;14246,431;101,34776
 977,80;14241,471;  199,933;14070,969;101,22919
 978,35;14090,856;  215,163;13921,200;101,23782
 978,89;14112,010;  196,010;13858,892;101,85259
 979,44;14022,010;  205,317;13801,046;101,62524
 979,99;13866,625;  193,625;13576,815;102,16547
 980,54;13782,702;  235,779;13537,431;101,84391
 981,09;13687,702;  218,779;13386,431;102,28796
 981,64;13585,471;  216,471;13246,123;102,60443
 982,19;13484,625;  248,240;13218,815;102,04933
 982,74;13372,702;  226,702;13068,892;102,36571
 983,29;13278,087;  195,240;12960,431;102,48845
 983,84;13131,702;  212,856;12819,046;102,48018
 984,39;13129,163;  247,471;12780,277;102,78379
 984,94;13007,471;  190,471;12605,277;103,23963
 985,49;12970,010;  229,010;12594,200;103,03925
 986,03;12861,856;  240,856;12523,431;102,75533
 986,58;12768,087;  246,240;12336,354;103,57096
 987,13;12631,394;  218,240;12182,662;103,75056
 987,68;12540,471;  230,163;12091,585;103,78442
 988,23;12580,010;  229,933;12044,508;104,53255
 988,78;12440,548;  214,317;11896,508;104,65701
 989,33;12338,394;  228,471;11790,969;104,73449
 989,88;12317,010;  235,394;11768,508;104,75589
 990,42;12186,856;  219,625;11560,354;105,52435
 990,97;12011,856;  216,856;11451,354;104,98911
 991,52;12015,702;  239,779;11399,585;105,52086
 992,07;11885,702;  244,394;11279,277;105,49553
 992,62;11787,702;  230,163;11193,431;105,42057
 993,17;11669,933;  230,471;11045,662;105,77217
 993,71;11652,933;  222,471;10962,046;106,43309
 994,26;11555,702;  199,471;10790,431;107,22570
 994,81;11448,163;  232,779;10751,969;106,61833
 995,36;11316,548;  218,702;10593,046;106,97395
 995,91;11276,702;  223,317;10579,277;106,73453
 996,45;11220,856;  228,548;10423,046;107,82588
 997,00;11010,394;  199,471;10229,431;107,78631
 997,55;11000,394;  216,702;10290,815;107,04359
 998,10;10869,702;  247,317;10106,662;107,73926
 998,65;10815,163;  218,779;10045,662;107,83058
 999,19;10709,163;  237,317; 9846,277;108,98002
 999,74;10680,548;  252,779; 9788,892;109,35031
1000,29;10577,240;  227,933; 9701,815;109,24040
1000,84;10355,702;  216,317; 9565,969;108,44665
1001,38;10278,163;  220,702; 9439,508;109,09723
1001,93;10233,394;  237,087; 9388,585;109,23138
1002,48;10084,702;  203,087; 9251,662;109,20632
1003,03;10079,087;  221,856; 9196,969;109,82848
1003,57;10010,625;  231,087; 9100,738;110,25842
1004,12; 9902,471;  245,010; 8986,123;110,48320
1004,67; 9776,394;  214,779; 8895,277;110,15054
1005,22; 9662,471;  210,933; 8746,969;110,72514
1005,76; 9559,779;  205,548; 8598,431;111,45433
1006,31; 9535,471;  242,625; 8582,508;111,42658
1006,86; 9392,163;  211,010; 8482,738;110,99438
1007,40; 9259,856;  196,471; 8278,046;112,14874
1007,95; 9177,240;  215,163; 8231,277;111,80077
1008,50; 9030,317;  218,933; 8077,508;112,12446
1009,04; 8936,702;  225,625; 8005,123;111,97479
1009,59; 8780,856;  231,625; 7830,585;112,50528
1010,14; 8668,010;  211,471; 7737,277;112,36722
1010,68; 8586,240;  219,087; 7635,585;112,81812
1011,23; 8423,933;  200,548; 7480,662;112,95682
1011,78; 8387,087;  229,856; 7416,508;113,50530
1012,32; 8278,010;  217,240; 7308,738;113,66807
1012,87; 8207,087;  244,933; 7266,738;113,39183
1013,42; 8024,317;  209,240; 7137,046;112,80739
1013,96; 8084,702;  242,163; 7109,815;114,19534
1014,51; 7968,471;  195,779; 6996,431;114,29334
1015,06; 7961,163;  196,471; 7019,431;113,80241
1015,60; 8035,933;  260,702; 7074,738;114,10609
1016,15; 8001,548;  215,394; 7027,354;114,30123
1016,69; 8058,779;  210,702; 7032,892;115,03750
1017,24; 8071,625;  201,625; 7041,277;115,06433
1017,79; 8152,010;  236,625; 7133,046;114,77525
1018,33; 8145,933;  196,856; 7086,431;115,37833
1018,88; 8240,087;  217,856; 7119,123;116,24286
1019,42; 8260,317;  221,625; 7189,431;115,36906
1019,97; 8258,471;  212,010; 7144,431;116,07000
1020,51; 8408,394;  216,317; 7204,585;117,22615
1021,06; 8330,163;  211,240; 7194,277;116,26637
1021,61; 8339,856;  190,087; 7111,277;117,75098
1022,15; 8262,856;  171,856; 7116,969;116,49918
1022,70; 8328,856;  215,856; 7101,815;117,81945
1023,24; 8262,087;  204,548; 7089,123;117,03756
1023,79; 8188,240;  220,163; 7016,892;117,23400
1024,33; 8139,240;  218,087; 7014,508;116,54890
1024,88; 8083,856;  219,240; 6898,200;117,75210
1025,42; 7977,163;  201,779; 6767,585;118,42240
1025,97; 7885,702;  203,933; 6709,815;118,07420
1026,51; 7748,087;  173,087; 6576,123;118,30324
1027,06; 7645,856;  209,317; 6514,508;117,94312
1027,60; 7528,240;  207,702; 6401,508;118,19128
1028,15; 7443,779;  221,087; 6325,200;118,32500
1028,69; 7300,471;  174,317; 6191,277;118,43446
1029,24; 7200,702;  207,933; 6127,738;118,12498
1029,78; 7075,933;  205,779; 6030,892;117,94026
1030,33; 6973,240;  177,933; 5875,969;119,25700
1030,87; 6927,779;  206,471; 5843,354;119,23803
1031,42; 6823,317;  194,933; 5743,123;119,46931
1031,96; 6762,779;  212,317; 5674,431;119,92540
1032,51; 6675,163;  199,317; 5561,277;120,77387
1033,05; 6543,625;  208,163; 5559,431;118,39180
1033,60; 6397,471;  174,933; 5420,508;118,62453
1034,14; 6339,163;  199,933; 5322,815;119,83938
1034,69; 6269,702;  199,317; 5278,585;119,51300
1035,23; 6177,856;  204,702; 5203,662;119,48794
1035,77; 6109,471;  196,087; 5102,969;120,51204
1036,32; 5991,240;  180,779; 5061,277;119,05468
1036,86; 5947,548;  198,163; 5007,200;119,55377
1037,41; 5855,163;  204,625; 4916,046;119,93278
1037,95; 5795,163;  183,933; 4840,200;120,50921
1038,50; 5711,548;  196,240; 4790,200;120,05564
1039,04; 5659,856;  203,779; 4734,585;120,42178
1039,58; 5503,548;  192,010; 4634,892;119,55163
1040,13; 5436,548;  201,471; 4572,431;119,76951
1040,67; 5421,779;  223,394; 4554,431;120,02634
1041,21; 5310,087;  228,317; 4467,892;119,86506
1041,76; 5205,933;  176,471; 4386,431;119,46579
1042,30; 5183,779;  210,471; 4333,738;120,61570
1042,85; 5101,779;  207,856; 4276,046;120,29730
1043,39; 4980,702;  190,010; 4189,123;119,79386
1043,93; 4929,317;  217,394; 4146,431;119,92566
1044,48; 4890,548;  205,548; 4087,123;120,69843
1045,02; 4854,548;  202,856; 4031,046;121,51152
1045,56; 4830,779;  210,548; 3970,969;122,86472
1046,11; 4754,394;  210,394; 3918,277;122,54972
1046,65; 4656,163;  208,779; 3887,123;120,90724
1047,19; 4594,317;  198,779; 3772,354;123,00115
1047,74; 4489,625;  182,856; 3709,354;122,12595
1048,28; 4463,163;  210,779; 3699,123;121,90267
1048,82; 4402,394;  222,625; 3665,508;121,40318
1049,37; 4362,856;  205,240; 3596,738;122,58935
1049,91; 4303,394;  197,548; 3556,892;122,22166
1050,45; 4270,087;  228,317; 3497,738;123,62339
1050,99; 4209,702;  207,856; 3457,277;123,15566
1051,54; 4142,010;  196,933; 3406,969;122,89819
1052,08; 4094,933;  215,010; 3390,508;122,18313
1052,62; 4037,702;  221,548; 3324,277;122,99347
1053,16; 3996,933;  192,702; 3260,046;124,02360
1053,71; 3923,163;  215,856; 3214,123;123,64834
1054,25; 3879,471;  223,779; 3169,892;124,08525
1054,79; 3809,317;  211,933; 3115,354;123,90158
1055,33; 3762,087;  183,163; 3065,123;124,18367
1055,88; 3744,702;  227,317; 3055,123;124,38565
1056,42; 3716,240;  234,702; 3005,662;125,64378
1056,96; 3643,625;  221,240; 2946,508;125,57978
1057,50; 3615,702;  201,240; 2901,738;126,43821
1058,05; 3527,933;  212,625; 2862,354;125,11875
1058,59; 3526,010;  228,163; 2863,431;125,14276
1059,13; 3437,471;  196,163; 2778,892;125,49934
1059,67; 3409,933;  229,163; 2767,354;125,31642
1060,21; 3345,856;  218,240; 2707,815;125,62849
1060,76; 3332,471;  221,779; 2650,815;128,06280
1061,30; 3289,779;  232,010; 2631,815;127,41736
1061,84; 3249,702;  211,471; 2589,585;127,75802
1062,38; 3174,856;  205,317; 2537,738;127,31571
1062,92; 3203,548;  243,317; 2551,277;128,26181
1063,46; 3152,548;  229,933; 2483,585;129,68353
1064,01; 3070,010;  208,317; 2434,892;128,52441
1064,55; 3073,625;  217,163; 2405,431;130,53531
1065,09; 2984,548;  186,779; 2359,815;128,74930
1065,63; 2996,163;  232,471; 2386,508;128,30294
1066,17; 2979,702;  234,010; 2342,508;130,22029
1066,71; 2933,240;  230,087; 2316,969;129,53070
1067,25; 2858,856;  212,471; 2262,969;129,06058
1067,80; 2867,779;  233,163; 2246,123;130,88267
1068,34; 2824,702;  237,471; 2246,585;128,77475
1068,88; 2762,702;  213,087; 2162,431;130,79349
1069,42; 2763,856;  248,779; 2180,585;130,19305
1069,96; 2712,394;  218,625; 2115,738;131,45072
1070,50; 2695,548;  245,317; 2124,123;130,41427
1071,04; 2625,240;  212,394; 2064,354;130,28611
1071,58; 2589,933;  221,548; 2029,123;131,02552
1072,12; 2545,933;  212,625; 2019,892;129,10695
1072,66; 2556,317;  211,240; 1998,354;131,22149
1073,21; 2549,317;  230,163; 2000,738;130,98309
1073,75; 2495,010;  223,163; 1961,585;130,68445
1074,29; 2431,548;  230,087; 1930,277;129,48324
1074,83; 2443,548;  228,163; 1910,046;131,72052
1075,37; 2401,548;  226,856; 1907,508;129,39576
1075,91; 2377,240;  233,240; 1899,738;128,65301
1076,45; 2340,317;  229,317; 1849,662;130,28096
1076,99; 2320,702;  222,933; 1827,431;130,74302
1077,53; 2289,471;  207,625; 1766,200;133,57369
1078,07; 2266,163;  232,933; 1774,738;131,87334
1078,61; 2237,548;  223,087; 1751,123;131,83334
1079,15; 2191,394;  220,548; 1742,431;129,50053
1079,69; 2168,625;  234,933; 1710,200;131,07403
1080,23; 2175,240;  232,240; 1702,046;132,19434
1080,77; 2178,856;  252,240; 1702,354;132,85963
1081,31; 2100,317;  217,240; 1635,969;132,72987
1081,85; 2092,548;  233,240; 1652,508;131,00476
1082,39; 2051,548;  221,394; 1597,354;133,00927
1082,93; 2020,856;  216,010; 1611,892;129,29784
1083,47; 1978,087;  207,625; 1568,123;130,13334
1084,01; 2000,625;  236,625; 1576,046;131,69868
1084,55; 1955,317;  216,163; 1516,738;133,72192
1085,09; 1971,471;  227,317; 1543,277;132,53855
1085,63; 1933,933;  219,394; 1525,662;131,25479
1086,17; 1889,625;  213,394; 1487,892;131,52086
1086,71; 1855,087;  214,087; 1471,277;130,52916
1087,24; 1876,625;  237,625; 1468,662;133,13983
1087,78; 1851,625;  235,702; 1460,662;131,91644
1088,32; 1785,163;  221,548; 1420,662;130,39762
1088,86; 1807,087;  241,702; 1424,508;132,34503
1089,40; 1771,394;  226,779; 1386,431;133,19647
1089,94; 1760,087;  193,702; 1343,815;136,19392
1090,48; 1731,240;  233,779; 1347,969;134,39907
1091,02; 1719,240;  229,933; 1353,431;132,55988
1091,56; 1685,471;  238,702; 1347,277;130,50711
1092,10; 1666,702;  207,240; 1278,892;136,18802
1092,63; 1686,933;  235,317; 1306,662;135,49477
1093,17; 1640,548;  223,625; 1280,969;134,00774
1093,71; 1635,394;  211,548; 1279,815;133,28557
1094,25; 1633,548;  246,010; 1260,662;136,75019
1094,79; 1594,933;  223,163; 1235,123;135,55573
1095,33; 1565,010;  229,394; 1229,585;133,53612
1095,87; 1523,163;  223,471; 1204,508;132,48154
1096,40; 1502,548;  200,548; 1177,277;133,30209
1096,94; 1507,933;  220,087; 1190,508;132,71002
1097,48; 1502,010;  224,240; 1172,354;134,76965
1098,02; 1458,087;  222,087; 1139,277;134,75937
1098,56; 1406,779;  200,548; 1117,354;131,56885
1099,10; 1419,856;  202,933; 1101,892;135,37016
1099,63; 1409,625;  211,933; 1091,969;136,09575
1100,17; 1396,625;  228,471; 1098,431;134,27679
1100,71; 1406,548;  240,779; 1111,508;133,88430

