
Integration time [ms]: 115,000
Averaging Nr. [scans]: 13
Smoothing Nr. [pixels]: 0
Data measured with spectrometer [name]: 2009305U1
Wave   ;Sample   ;Dark     ;Reference;Reflectance
[nm]   ;[counts] ;[counts] ;[counts] ;[%]

 175,72;  210,753;  176,239;  216,377;85,98763
 176,32;  222,711;  211,934;  220,629;123,93813
 176,92;  257,052;  225,163;  254,806;107,57686
 177,52;  258,504;  252,086;  276,497;26,29231
 178,12;  236,719;  223,549;  229,646;215,99415
 178,72;  255,773;  243,857;  246,426;463,86183
 179,32;  259,535;  236,780;  245,502;260,89671
 179,92;  256,868;  232,933;  243,184;233,48170
 180,52;  237,877;  234,084;  251,849;21,34790
 181,12;  255,994;  235,010;  258,040;91,11545
 181,73;  276,152;  253,163;  272,610;118,21196
 182,33;  355,613;  298,008;  354,611;101,77069
 182,93;  280,802;  245,240;  267,679;158,48040
 183,53;  239,917;  227,319;  231,255;320,09967
 184,13;  236,170;  231,011;  230,121; 0,00000
 184,73;  277,289;  249,935;  276,206;104,12387
 185,33;  268,396;  222,716;  348,805;36,22816
 185,93;  271,155;  214,717;  380,479;34,04747
 186,53;  283,773;  241,332;  381,727;30,23021
 187,13;  314,823;  264,099;  406,630;35,58784
 187,73;  283,400;  220,102;  379,098;39,81122
 188,33;  272,310;  227,718;  376,187;30,03468
 188,93;  302,322;  231,182;  389,757;44,86223
 189,53;  288,146;  240,799;  389,798;31,77670
 190,13;  327,765;  271,649;  443,566;32,64150
 190,73;  278,054;  217,185;  377,425;37,98618
 191,34;  304,637;  254,183;  413,712;31,62693
 191,94;  275,179;  227,565;  367,514;34,02225
 192,54;  288,075;  237,868;  406,065;29,85020
 193,14;  290,675;  248,715;  393,108;29,05948
 193,74;  298,751;  249,561;  386,677;35,87485
 194,34;  300,452;  235,099;  379,479;45,26480
 194,94;  255,511;  206,792;  347,521;34,61904
 195,54;  227,305;  196,177;  321,772;24,78435
 196,14;  260,340;  218,484;  355,903;30,45924
 196,74;  258,912;  211,331;  351,478;33,95071
 197,34;  240,139;  187,252;  345,540;33,41170
 197,94;  272,415;  225,715;  362,779;34,07156
 198,54;  269,165;  217,484;  389,006;30,13090
 199,14;  256,536;  197,636;  381,096;32,10487
 199,74;  255,007;  198,097;  381,375;31,05103
 200,34;  236,230;  186,097;  382,635;25,50803
 200,94;  282,939;  223,637;  421,823;29,92253
 201,54;  256,117;  202,328;  428,459;23,78660
 202,14;  311,126;  211,635;  474,923;37,78800
 202,74;  271,153;  204,328;  476,128;24,58604
 203,34;  255,453;  195,558;  479,311;21,10807
 203,94;  227,560;  163,635;  500,548;18,97383
 204,54;  312,784;  228,869;  592,022;23,10735
 205,14;  261,437;  199,405;  597,661;15,57587
 205,74;  319,510;  218,481;  690,215;21,41649
 206,34;  286,249;  197,405;  690,439;18,01982
 206,94;  304,477;  203,328;  773,362;17,74441
 207,54;  285,241;  180,251;  804,961;16,80616
 208,14;  314,519;  195,097;  861,786;17,91272
 208,74;  333,814;  194,559;  953,337;18,35249
 209,34;  322,686;  193,636; 1030,265;15,42498
 209,94;  342,413;  202,328; 1148,580;14,80423
 210,54;  364,158;  198,866; 1237,375;15,91632
 211,14;  388,009;  209,174; 1365,714;15,46290
 211,73;  388,748;  201,175; 1462,293;14,87358
 212,33;  423,698;  218,791; 1597,159;14,86596
 212,93;  414,409;  196,636; 1668,394;14,79681
 213,53;  403,747;  181,790; 1767,846;13,99426
 214,13;  447,729;  176,403; 1856,152;16,15278
 214,73;  432,742;  178,481; 1880,384;14,93976
 215,33;  424,029;  156,405; 1915,118;15,21702
 215,93;  487,908;  188,327; 2037,402;16,20167
 216,53;  462,983;  142,559; 2075,324;16,57852
 217,13;  541,916;  210,866; 2307,296;15,79113
 217,73;  551,620;  181,250; 2505,729;15,93346
 218,33;  539,986;  162,403; 2685,388;14,96573
 218,93;  640,598;  172,632; 2992,680;16,59423
 219,53;  703,611;  174,942; 3296,897;16,93393
 220,13;  734,456;  151,557; 3577,759;17,01299
 220,73;  827,741;  167,405; 3938,368;17,51107
 221,32;  899,968;  178,251; 4361,644;17,25193
 221,92;  994,020;  192,249; 4765,641;17,53121
 222,52; 1043,705;  172,558; 5220,516;17,25742
 223,12; 1163,042;  167,481; 5680,122;18,05962
 223,72; 1245,206;  185,019; 6134,170;17,82081
 224,32; 1325,279;  176,865; 6553,184;18,01061
 224,92; 1365,928;  175,404; 6818,083;17,92235
 225,52; 1471,718;  188,020; 7246,795;18,18584
 226,12; 1510,576;  182,327; 7519,659;18,10262
 226,72; 1564,251;  155,174; 7864,594;18,27734
 227,31; 1636,361;  151,251; 8241,262;18,35734
 227,91; 1747,185;  174,405; 8608,273;18,64838
 228,51; 1797,450;  177,790; 9061,833;18,23111
 229,11; 1873,550;  166,020; 9428,961;18,43400
 229,71; 1933,664;  168,175; 9795,860;18,33763
 230,31; 1999,234;  163,326;10145,637;18,39161
 230,91; 2073,885;  163,483;10541,858;18,40753
 231,51; 2132,423;  147,173;10894,551;18,47194
 232,10; 2207,645;  152,172;11267,104;18,49289
 232,70; 2269,452;  167,484;11505,325;18,53941
 233,30; 2342,417;  192,789;11856,258;18,43044
 233,90; 2355,758;  163,789;12037,003;18,46147
 234,50; 2394,401;  175,558;12250,655;18,37537
 235,10; 2423,544;  157,404;12347,468;18,59006
 235,70; 2438,769;  192,020;12458,020;18,31688
 236,29; 2430,080;  182,251;12486,574;18,26861
 236,89; 2417,211;  165,022;12367,077;18,45746
 237,49; 2431,324;  177,173;12382,301;18,46888
 238,09; 2371,787;  176,789;12207,055;18,24563
 238,69; 2338,350;  193,099;12025,720;18,12998
 239,29; 2245,430;  168,328;11806,275;17,84767
 239,89; 2193,254;  178,791;11452,563;17,86859
 240,48; 2073,513;  173,635;11111,338;17,36999
 241,08; 2006,587;  163,097;10762,261;17,39279
 241,68; 1948,675;  198,558;10511,432;16,97021
 242,28; 1844,024;  162,404;10160,933;16,81867
 242,88; 1819,355;  190,480; 9825,661;16,90549
 243,48; 1731,929;  192,250; 9558,253;16,43902
 244,07; 1645,526;  186,482; 9286,172;16,03400
 244,67; 1578,385;  188,943; 9134,113;15,53287
 245,27; 1539,902;  182,329; 8936,369;15,50796
 245,87; 1486,767;  184,096; 8853,728;15,02568
 246,47; 1462,022;  172,329; 8804,009;14,94140
 247,06; 1422,562;  169,097; 8795,610;14,53038
 247,66; 1416,552;  170,943; 8817,762;14,40541
 248,26; 1432,819;  208,559; 8992,584;13,93735
 248,86; 1424,811;  189,559; 9141,797;13,79825
 249,46; 1406,105;  150,789; 9313,349;13,70050
 250,05; 1460,339;  191,405; 9693,550;13,35419
 250,65; 1476,776;  158,636;10006,744;13,38469
 251,25; 1545,897;  179,713;10412,907;13,35052
 251,85; 1601,881;  182,329;11056,103;13,05483
 252,44; 1653,539;  147,251;11624,928;13,12363
 253,04; 1797,049;  180,559;12334,676;13,29994
 253,64; 1836,166;  144,175;12999,837;13,16144
 254,24; 1993,791;  186,559;13928,194;13,15151
 254,84; 2112,336;  175,712;14774,119;13,26600
 255,43; 2249,889;  178,713;15718,690;13,32805
 256,03; 2412,734;  163,329;16666,213;13,63038
 256,63; 2588,706;  176,868;17718,668;13,74909
 257,23; 2675,440;  165,098;18500,507;13,69122
 257,82; 2893,488;  177,022;19474,686;14,07666
 258,42; 3030,150;  132,484;20270,264;14,38920
 259,02; 3266,632;  174,636;21174,808;14,72367
 259,62; 3352,422;  159,792;21804,596;14,75010
 260,21; 3502,869;  177,328;22295,978;15,03501
 260,81; 3608,941;  170,481;22823,178;15,17903
 261,41; 3731,482;  166,176;23209,931;15,47190
 262,01; 3909,917;  195,023;23642,910;15,84319
 262,60; 3981,055;  161,483;23968,584;16,04384
 263,20; 4120,947;  164,944;24178,655;16,47394
 263,80; 4217,501;  182,562;24384,042;16,67228
 264,40; 4272,505;  145,484;24473,227;16,96426
 264,99; 4377,317;  179,331;24635,359;17,16545
 265,59; 4462,629;  164,255;24795,929;17,45060
 266,19; 4565,126;  164,638;24886,859;17,79973
 266,78; 4681,532;  198,716;25019,817;18,06050
 267,38; 4683,742;  172,332;25091,828;18,10394
 267,98; 4780,782;  158,331;25004,990;18,60391
 268,58; 4836,468;  177,562;25077,419;18,71057
 269,17; 4888,069;  165,332;25112,785;18,93074
 269,77; 4945,891;  182,945;24923,644;19,25146
 270,37; 4928,362;  150,485;24758,337;19,41607
 270,96; 4962,774;  204,253;24703,174;19,42339
 271,56; 4922,278;  167,868;24397,106;19,62262
 272,16; 4939,013;  169,176;24154,837;19,88620
 272,75; 4949,131;  166,561;24041,291;20,03193
 273,35; 4964,518;  173,099;24093,138;20,03098
 273,95; 5023,218;  175,176;23998,878;20,34966
 274,54; 5067,846;  155,251;24001,451;20,60117
 275,14; 5141,362;  180,253;24296,492;20,57165
 275,74; 5203,231;  144,022;24387,065;20,86871
 276,33; 5379,364;  190,099;24762,723;21,11808
 276,93; 5439,113;  175,943;24987,120;21,21290
 277,53; 5606,167;  174,867;25496,469;21,44927
 278,12; 5699,963;  157,252;26003,751;21,44472
 278,72; 5921,115;  194,867;26636,274;21,65637
 279,32; 6071,525;  165,713;27171,463;21,86872
 279,91; 6267,182;  163,021;27905,256;22,00313
 280,51; 6433,626;  173,251;28428,361;22,15661
 281,11; 6651,831;  174,098;29118,155;22,38018
 281,70; 6829,868;  153,098;29568,424;22,69827
 282,30; 7024,970;  159,098;30230,644;22,83179
 282,90; 7241,213;  169,945;30561,185;23,26745
 283,49; 7394,374;  186,099;31199,186;23,24269
 284,09; 7571,574;  190,714;31628,304;23,47782
 284,69; 7778,604;  189,175;32037,341;23,83004
 285,28; 7952,641;  191,867;32500,794;24,02052
 285,88; 8154,332;  199,022;32695,762;24,48033
 286,47; 8239,664;  175,329;32693,137;24,79975
 287,07; 8385,362;  203,944;32809,646;25,09198
 287,67; 8560,391;  190,789;32982,022;25,52390
 288,26; 8690,770;  169,559;32869,266;26,05898
 288,86; 8894,255;  172,175;32963,147;26,59903
 289,46; 9135,817;  170,636;33023,814;27,28863
 290,05; 9373,579;  162,251;33047,628;28,01041
 290,65; 9605,856;  175,252;33285,329;28,48258
 291,24; 9886,819;  189,559;33411,430;29,18939
 291,84;10084,706;  182,406;33467,438;29,75001
 292,44;10376,123;  176,327;33666,984;30,45565
 293,03;10681,105;  230,636;33835,995;31,09763
 293,63;10814,092;  170,022;33925,161;31,53319
 294,22;11212,468;  194,175;34192,898;32,40796
 294,82;11313,426;  181,561;34111,735;32,80816
 295,41;11368,407;  153,944;33869,501;33,26198
 296,01;11545,985;  217,176;33826,800;33,70704
 296,61;11554,480;  179,559;33699,024;33,93527
 297,20;11472,882;  182,638;33244,688;34,14865
 297,80;11557,594;  187,635;33052,862;34,59571
 298,39;11423,958;  163,868;32744,796;34,56037
 298,99;11431,741;  175,638;32519,890;34,80094
 299,58;11415,375;  186,558;32371,911;34,88797
 300,18;11372,544;  207,097;32078,314;35,03301
 300,78;11232,163;  169,405;31723,868;35,05925
 301,37;11225,741;  186,639;31725,967;35,00107
 301,97;11180,235;  182,021;31752,405;34,83712
 302,56;11152,272;  166,099;31633,889;34,91244
 303,16;11194,291;  155,099;31597,477;35,10928
 303,75;11136,849;  174,405;31569,005;34,91825
 304,35;11166,934;  163,635;31819,100;34,75956
 304,94;11205,464;  180,098;31793,374;34,87575
 305,54;11162,198;  203,636;31684,952;34,80973
 306,13;11016,514;  149,173;31607,401;34,54531
 306,73;10926,596;  165,404;31473,524;34,37189
 307,33;10876,405;  185,020;31361,055;34,29360
 307,92;10875,456;  169,944;31395,096;34,28490
 308,52;10914,711;  165,099;31890,100;33,88373
 309,11;11052,373;  172,638;32427,632;33,73039
 309,71;11062,323;  155,177;32681,960;33,53282
 310,30;11151,030;  157,098;32836,795;33,64148
 310,90;11195,030;  179,329;33162,180;33,39827
 311,49;11094,715;  182,559;33344,317;32,90584
 312,09;11087,049;  142,636;33547,722;32,76272
 312,68;11217,593;  201,790;33927,769;32,66266
 313,28;11096,995;  152,559;33956,788;32,37594
 313,87;11050,934;  150,482;34176,314;32,03581
 314,47;11059,596;  167,253;34398,507;31,81988
 315,06;11024,719;  148,405;34567,733;31,59944
 315,66;10987,741;  158,943;34854,645;31,21078
 316,25;10903,068;  140,406;34689,418;31,15187
 316,85;10753,388;  139,559;34777,975;30,64179
 317,44;10727,975;  158,561;34947,829;30,38125
 318,04;10642,718;  148,945;34913,363;30,18538
 318,63;10550,926;  148,712;34929,575;29,90787
 319,22;10478,132;  174,253;35197,076;29,42047
 319,82;10310,357;  176,483;35096,106;29,02057
 320,41;10233,250;  161,945;35099,992;28,82618
 321,01;10090,800;  171,020;35141,349;28,36628
 321,60; 9996,663;  166,714;35251,383;28,01779
 322,20; 9915,070;  161,405;35121,065;27,89977
 322,79; 9789,202;  191,790;35166,860;27,44072
 323,39; 9683,587;  168,250;35279,984;27,10016
 323,98; 9538,506;  153,251;35282,413;26,71642
 324,58; 9385,271;  157,176;35187,689;26,34302
 325,17; 9258,857;  167,637;35145,514;25,99134
 325,76; 9091,265;  182,867;34943,934;25,62752
 326,36; 8948,735;  147,174;34505,813;25,61673
 326,95; 8798,474;  174,406;34216,453;25,33358
 327,55; 8531,458;  161,560;33888,496;24,81666
 328,14; 8348,953;  160,558;33455,672;24,59338
 328,74; 8188,570;  193,637;33098,303;24,29726
 329,33; 7917,374;  182,328;32807,741;23,70865
 329,92; 7704,217;  159,869;32210,755;23,53866
 330,52; 7515,631;  177,097;31505,485;23,42455
 331,11; 7309,992;  174,790;31212,280;22,98898
 331,71; 7089,643;  171,560;30432,102;22,86173
 332,30; 6930,464;  186,406;30077,143;22,56237
 332,89; 6728,366;  194,867;29511,339;22,28610
 333,49; 6528,111;  191,483;28964,734;22,02263
 334,08; 6328,974;  176,252;28472,291;21,74411
 334,68; 6124,424;  178,944;28023,751;21,35220
 335,27; 5973,229;  189,097;27739,620;20,99464
 335,86; 5907,223;  198,252;27392,433;20,99335
 336,46; 5737,535;  178,404;27143,820;20,61578
 337,05; 5611,026;  173,175;26956,025;20,30348
 337,65; 5449,523;  154,252;26747,263;19,91226
 338,24; 5482,979;  213,636;26704,877;19,89089
 338,83; 5355,648;  192,482;26645,103;19,51854
 339,43; 5281,374;  167,791;26542,617;19,38812
 340,02; 5164,104;  173,945;26436,655;19,00093
 340,61; 5156,005;  160,482;26511,836;18,95737
 341,21; 5123,262;  202,099;26614,149;18,63227
 341,80; 5087,777;  167,483;26464,883;18,71019
 342,40; 5057,992;  184,866;26529,250;18,49778
 342,99; 4966,366;  176,482;26685,878;18,06863
 343,58; 4919,605;  171,251;26786,510;17,84072
 344,18; 4962,810;  187,789;26883,705;17,88671
 344,77; 4946,962;  173,791;27228,350;17,64276
 345,36; 4934,089;  152,944;27547,530;17,45288
 345,96; 4973,341;  186,790;27898,073;17,27293
 346,55; 4953,662;  159,250;28039,876;17,19621
 347,14; 4956,750;  148,712;28352,017;17,04778
 347,74; 5026,000;  134,941;28802,237;17,06146
 348,33; 5109,467;  176,788;29445,868;16,85287
 348,92; 5160,541;  182,864;30050,130;16,66600
 349,52; 5194,860;  153,249;30534,317;16,59458
 350,11; 5226,295;  164,330;30849,386;16,49652
 350,70; 5262,478;  157,636;30870,762;16,62104
 351,29; 5159,411;  151,793;30630,485;16,42990
 351,89; 5114,659;  176,946;30644,581;16,20642
 352,48; 5091,028;  148,098;30744,072;16,15549
 353,07; 5117,436;  171,481;30661,308;16,22166
 353,67; 5107,537;  187,941;30661,298;16,14393
 354,26; 5028,541;  177,943;30285,990;16,11064
 354,85; 5022,530;  180,097;30287,588;16,08382
 355,45; 4957,375;  150,483;30048,817;16,07746
 356,04; 4947,641;  171,712;29992,195;16,01560
 356,63; 4928,702;  194,637;29722,345;16,03262
 357,22; 4889,451;  182,254;29642,724;15,97801
 357,82; 4859,065;  179,254;29568,586;15,92350
 358,41; 4876,861;  183,944;29398,069;16,06386
 359,00; 4831,934;  171,253;29186,052;16,06312
 359,60; 4810,958;  179,559;29089,288;16,02021
 360,19; 4810,626;  167,250;28900,900;16,16006
 360,78; 4775,556;  182,868;28752,546;16,07540
 361,37; 4781,643;  175,637;28566,902;16,22332
 361,97; 4753,139;  177,175;28530,155;16,13927
 362,56; 4730,725;  174,560;28176,133;16,27110
 363,15; 4765,515;  188,252;27971,246;16,47505
 363,74; 4687,320;  173,022;27662,683;16,42180
 364,34; 4672,211;  206,022;27333,877;16,46348
 364,93; 4583,169;  157,484;26881,684;16,56059
 365,52; 4555,146;  145,329;26525,510;16,71640
 366,11; 4541,341;  169,791;26163,872;16,81748
 366,71; 4493,593;  156,791;25776,076;16,92788
 367,30; 4471,199;  165,790;25473,044;17,01255
 367,89; 4509,653;  201,328;25232,258;17,21200
 368,48; 4454,263;  179,561;24906,241;17,28781
 369,07; 4408,940;  181,713;24451,608;17,41757
 369,67; 4401,577;  185,253;24105,611;17,62651
 370,26; 4359,113;  173,867;23873,858;17,65927
 370,85; 4372,355;  174,252;23550,537;17,95881
 371,44; 4360,162;  171,867;23370,237;18,05426
 372,03; 4325,925;  156,637;23193,697;18,09818
 372,63; 4315,428;  153,483;22877,551;18,31514
 373,22; 4294,778;  163,713;22601,975;18,41081
 373,81; 4263,949;  151,098;22258,948;18,60358
 374,40; 4283,513;  157,866;21988,723;18,89824
 374,99; 4257,406;  160,945;21684,224;19,03270
 375,59; 4261,538;  159,635;21418,913;19,29465
 376,18; 4323,832;  193,021;21403,678;19,47517
 376,77; 4291,730;  175,021;21085,997;19,68684
 377,36; 4315,829;  193,098;21072,078;19,74584
 377,95; 4334,767;  179,791;20770,557;20,17883
 378,55; 4313,262;  157,790;20539,965;20,38778
 379,14; 4393,730;  164,637;20564,566;20,73092
 379,73; 4386,787;  170,483;20364,577;20,87889
 380,32; 4448,776;  182,867;20445,975;21,05259
 380,91; 4409,425;  165,330;20277,027;21,10262
 381,50; 4470,504;  181,637;20290,182;21,32858
 382,10; 4466,699;  159,406;20190,898;21,50261
 382,69; 4522,819;  155,867;20114,568;21,87994
 383,28; 4588,587;  188,560;20055,244;22,14777
 383,87; 4582,082;  162,483;19910,528;22,37993
 384,46; 4610,030;  171,330;19836,502;22,57137
 385,05; 4680,867;  193,637;19833,439;22,84763
 385,64; 4703,495;  161,022;19814,872;23,11238
 386,24; 4733,856;  152,869;19756,098;23,36853
 386,83; 4818,751;  186,100;19744,215;23,68659
 387,42; 4895,053;  190,791;19875,815;23,89767
 388,01; 4989,738;  179,178;20018,150;24,24803
 388,60; 5068,750;  176,792;20248,923;24,37189
 389,19; 5180,692;  154,948;20518,679;24,67988
 389,78; 5316,935;  164,025;20750,651;25,03038
 390,37; 5484,104;  214,023;21186,993;25,12797
 390,96; 5517,319;  178,869;21368,206;25,19404
 391,56; 5627,431;  167,794;21459,411;25,64219
 392,15; 5789,542;  162,409;21772,680;26,03916
 392,74; 5839,046;  146,796;21948,826;26,10881
 393,33; 6029,206;  160,256;22265,505;26,55003
 393,92; 6186,272;  189,258;22553,240;26,81550
 394,51; 6282,438;  156,641;22829,766;27,01788
 395,10; 6461,518;  185,414;23114,549;27,37174
 395,69; 6488,747;  170,491;23248,411;27,37793
 396,28; 6602,702;  189,338;23335,047;27,70865
 396,87; 6692,435;  194,724;23425,208;27,97062
 397,46; 6801,627;  190,495;23585,477;28,25876
 398,06; 6901,974;  193,035;23669,499;28,57730
 398,65; 7007,259;  179,116;23892,754;28,79416
 399,24; 7072,110;  198,885;23988,985;28,89111
 399,83; 7114,039;  178,276;23940,630;29,18803
 400,42; 7279,109;  206,819;24092,641;29,60874
 401,01; 7367,045;  178,902;24273,148;29,83344
 401,60; 7437,354;  192,679;24311,313;30,03767
 402,19; 7520,525;  205,069;24262,482;30,40832
 402,78; 7568,891;  220,079;24386,919;30,40866
 403,37; 7530,677;  191,857;24237,918;30,51985
 403,96; 7572,083;  198,098;24082,316;30,87388
 404,55; 7591,999;  217,956;23963,646;31,05424
 405,14; 7607,112;  193,043;23849,033;31,34119
 405,73; 7633,253;  217,671;23709,315;31,56689
 406,32; 7666,666;  206,526;23650,839;31,82068
 406,91; 7657,470;  210,305;23438,841;32,06041
 407,50; 7660,881;  205,002;23254,443;32,34733
 408,09; 7597,358;  180,775;23033,321;32,45408
 408,68; 7595,597;  195,469;22862,291;32,64740
 409,27; 7602,901;  181,543;22610,369;33,08848
 409,86; 7655,874;  200,459;22544,737;33,36610
 410,45; 7717,397;  221,452;22443,953;33,73133
 411,04; 7767,013;  237,138;22448,357;33,90123
 411,63; 7713,861;  220,591;22151,746;34,16724
 412,22; 7712,718;  214,430;21951,430;34,49550
 412,81; 7707,295;  231,119;21704,362;34,81624
 413,40; 7596,172;  243,270;21441,770;34,68595
 413,99; 7576,026;  264,040;21081,094;35,12498
 414,58; 7432,714;  218,885;20678,324;35,25917
 415,17; 7357,459;  213,504;20453,641;35,29598
 415,76; 7343,311;  211,661;20265,794;35,56200
 416,35; 7334,461;  202,582;20074,317;35,88956
 416,94; 7374,120;  227,660;20097,464;35,96644
 417,53; 7506,406;  216,196;20200,077;36,48045
 418,12; 7547,863;  202,580;20275,076;36,59377
 418,71; 7787,783;  227,423;20627,785;37,05993
 419,30; 7803,171;  222,272;20746,353;36,93660
 419,89; 7906,213;  215,887;20936,746;37,11393
 420,48; 8085,815;  237,500;21154,960;37,52040
 421,07; 8139,946;  223,807;21303,048;37,55419
 421,66; 8220,301;  202,883;21350,228;37,91217
 422,25; 8265,954;  215,649;21401,329;37,99880
 422,84; 8316,831;  237,110;21426,490;38,13099
 423,43; 8235,541;  219,265;21156,431;38,28730
 424,02; 8169,518;  235,495;20902,596;38,38963
 424,60; 8036,454;  202,184;20473,524;38,64703
 425,19; 7973,582;  225,647;20175,271;38,83749
 425,78; 7990,959;  240,186;20022,685;39,17995
 426,37; 8001,402;  231,338;19876,821;39,55140
 426,96; 7996,412;  230,723;19783,638;39,71627
 427,55; 7927,904;  219,644;19652,922;39,66526
 428,14; 7901,089;  199,181;19444,821;40,01897
 428,73; 7848,506;  223,337;19263,012;40,04884
 429,32; 7891,696;  235,569;19202,049;40,36662
 429,91; 7937,887;  249,875;19173,334;40,62689
 430,50; 7854,780;  233,797;19094,344;40,40701
 431,08; 7893,476;  250,181;18933,791;40,90909
 431,67; 7882,669;  286,872;18905,631;40,79647
 432,26; 7862,666;  296,102;18745,246;41,01309
 432,85; 7761,139;  317,487;18395,740;41,17462
 433,44; 7622,381;  312,255;18133,559;41,01903
 434,03; 7546,836;  342,022;17695,758;41,51736
 434,62; 7344,476;  310,101;17215,162;41,61106
 435,21; 7310,891;  324,333;16992,491;41,91560
 435,79; 7254,665;  309,330;16909,247;41,83957
 436,38; 7251,121;  310,098;16758,093;42,19981
 436,97; 7224,463;  303,867;16607,577;42,44798
 437,56; 7144,399;  308,941;16465,781;42,30690
 438,15; 7104,493;  281,634;16353,092;42,45327
 438,74; 7196,746;  298,403;16405,496;42,82798
 439,33; 7208,596;  270,711;16356,282;43,13111
 439,91; 7242,284;  236,479;16410,297;43,31571
 440,50; 7336,136;  281,940;16444,821;43,64442
 441,09; 7399,108;  277,400;16525,340;43,83145
 441,68; 7385,892;  268,783;16548,389;43,71794
 442,27; 7354,709;  251,784;16509,568;43,68938
 442,86; 7389,740;  225,473;16522,899;43,95950
 443,44; 7432,646;  238,474;16566,157;44,06119
 444,03; 7512,110;  276,165;16663,942;44,15453
 444,62; 7502,627;  243,934;16586,123;44,41690
 445,21; 7445,786;  252,935;16352,093;44,67843
 445,80; 7427,130;  274,241;16328,009;44,55583
 446,39; 7347,649;  267,549;16060,943;44,82950
 446,97; 7197,752;  231,777;15859,550;44,57433
 447,56; 7166,162;  244,006;15688,833;44,81861
 448,15; 7095,028;  247,008;15457,759;45,02092
 448,74; 7010,888;  263,008;15203,685;45,16449
 449,33; 6988,943;  248,776;15094,481;45,40146
 449,91; 6847,354;  254,928;14884,349;45,06280
 450,50; 6786,336;  236,390;14632,699;45,49740
 451,09; 6757,030;  256,313;14522,392;45,56765
 451,68; 6744,858;  277,004;14475,127;45,55429
 452,26; 6739,167;  263,157;14303,420;46,12456
 452,85; 6657,472;  255,004;14205,988;45,89259
 453,44; 6656,002;  259,540;14222,480;45,81028
 454,03; 6651,585;  235,926;14222,181;45,87118
 454,61; 6595,006;  233,540;14135,743;45,75869
 455,20; 6761,666;  268,000;14327,598;46,18671
 455,79; 6781,987;  265,310;14302,277;46,42511
 456,38; 6828,086;  270,768;14375,037;46,49172
 456,97; 6878,190;  247,461;14459,903;46,65439
 457,55; 6960,467;  258,460;14465,683;47,17324
 458,14; 6945,093;  278,461;14494,376;46,89555
 458,73; 6939,856;  266,075;14408,714;47,18908
 459,31; 6971,544;  297,766;14431,468;47,21890
 459,90; 7001,676;  292,844;14493,663;47,24257
 460,49; 7066,375;  307,613;14617,511;47,23138
 461,08; 7058,482;  260,227;14620,564;47,34050
 461,66; 7133,250;  269,074;14741,348;47,42984
 462,25; 7191,434;  274,765;14849,924;47,45519
 462,84; 7251,640;  305,611;14869,211;47,69445
 463,43; 7192,391;  225,532;14858,762;47,60985
 464,01; 7274,110;  279,839;14872,707;47,92938
 464,60; 7263,688;  298,840;14842,160;47,89036
 465,19; 7147,323;  251,377;14583,580;48,11505
 465,77; 7136,325;  260,222;14606,796;47,92853
 466,36; 7101,720;  279,763;14574,813;47,72252
 466,95; 6972,482;  265,378;14237,227;48,00441
 467,53; 6863,728;  272,683;13933,693;48,24713
 468,12; 6775,060;  290,914;13652,744;48,52738
 468,71; 6635,448;  276,146;13430,328;48,34433
 469,29; 6497,480;  252,144;13139,336;48,46157
 469,88; 6377,333;  266,682;12926,338;48,26870
 470,47; 6436,960;  320,834;12918,849;48,54833
 471,06; 6385,430;  276,142;12893,327;48,42037
 471,64; 6415,017;  281,373;12979,937;48,30187
 472,23; 6428,183;  258,832;13007,110;48,39360
 472,81; 6495,828;  250,218;13114,976;48,54821
 473,40; 6527,895;  267,986;13240,975;48,25340
 473,99; 6719,784;  325,986;13445,692;48,73431
 474,57; 6716,887;  254,986;13513,881;48,73634
 475,16; 6806,047;  283,448;13680,790;48,68577
 475,75; 6880,626;  295,985;13818,814;48,69278
 476,33; 6926,791;  299,676;13907,279;48,70156
 476,92; 6949,138;  296,909;13974,870;48,63465
 477,51; 7011,921;  286,599;14099,874;48,68738
 478,09; 7020,546;  291,061;14109,999;48,69756
 478,68; 7030,913;  288,830;14023,796;49,08701
 479,27; 7067,381;  315,215;14085,166;49,03552
 479,85; 6980,696;  281,368;13996,598;48,84590
 480,44; 7071,543;  273,522;14109,383;49,13334
 481,02; 7453,000;  282,521;15040,352;48,58762
 481,61; 8463,599;  309,060;16960,272;48,97265
 482,20; 9177,570;  303,136;18418,989;48,98712
 482,78; 9696,507;  327,291;19377,022;49,18293
 483,37;10033,194;  316,827;20002,822;49,35675
 483,95;10197,413;  356,750;20363,482;49,18676
 484,54;10325,903;  359,752;20595,702;49,24973
 485,13;10290,387;  329,671;20633,139;49,05918
 485,71;10208,404;  302,980;20348,881;49,41372
 486,30;10162,183;  341,672;20188,775;49,48083
 486,88;10004,434;  363,133;19891,302;49,37125
 487,47; 9669,070;  358,133;19249,214;49,28747
 488,05; 9278,554;  344,363;18461,434;49,31366
 488,64; 8743,916;  339,054;17309,615;49,52613
 489,23; 7964,641;  352,516;15703,760;49,58637
 489,81; 6626,551;  354,516;13150,773;49,01460
 490,40; 6150,212;  311,362;12205,489;49,09019
 490,98; 6019,885;  294,285;11953,332;49,10865
 491,57; 5919,503;  322,670;11732,563;49,05246
 492,15; 5893,185;  314,284;11727,361;48,88165
 492,74; 5843,725;  303,671;11646,115;48,84357
 493,32; 5825,966;  323,746;11543,241;49,04160
 493,91; 5765,174;  305,899;11490,144;48,81219
 494,50; 5745,843;  311,051;11441,741;48,82709
 495,08; 5693,232;  304,359;11304,957;48,98709
 495,67; 5706,401;  308,438;11340,728;48,92876
 496,25; 5621,092;  267,591;11205,805;48,94310
 496,84; 5642,195;  273,130;11166,841;49,28592
 497,42; 5586,560;  262,283;11075,222;49,23987
 498,01; 5619,152;  305,745;11128,401;49,09522
 498,59; 5535,411;  249,744;11004,100;49,14908
 499,18; 5520,872;  256,822;11018,053;48,91680
 499,76; 5542,278;  280,821;10932,366;49,39619
 500,35; 5411,505;  273,281;10723,427;49,16892
 500,93; 5399,475;  269,283;10654,821;49,39747
 501,52; 5369,995;  269,129;10614,694;49,30486
 502,10; 5359,946;  269,281;10616,285;49,19941
 502,69; 5264,732;  257,664;10453,796;49,10752
 503,27; 5168,236;  241,974;10276,758;49,09186
 503,86; 5142,798;  252,357;10235,548;48,98675
 504,44; 5067,421;  248,126;10108,781;48,87398
 505,03; 4952,750;  236,126; 9868,908;48,96430
 505,61; 4895,091;  234,587; 9763,068;48,91129
 506,19; 4825,785;  258,741; 9651,530;48,62288
 506,78; 4728,123;  232,201; 9479,953;48,61638
 507,36; 4650,095;  251,357; 9286,946;48,68236
 507,95; 4558,625;  249,200; 9146,084;48,43746
 508,53; 4509,685;  237,432; 9044,650;48,50854
 509,12; 4452,754;  251,893; 8852,802;48,84206
 509,70; 4385,071;  266,893; 8712,712;48,75996
 510,29; 4298,097;  269,046; 8581,502;48,47005
 510,87; 4161,872;  246,278; 8374,779;48,17117
 511,46; 4102,157;  238,893; 8224,590;48,37728
 512,04; 4043,874;  251,739; 8077,734;48,45562
 512,62; 3979,090;  261,201; 7960,177;48,29069
 513,21; 3851,874;  226,892; 7788,365;47,94016
 513,79; 3833,160;  247,505; 7638,547;48,51352
 514,38; 3712,036;  220,121; 7479,199;48,10412
 514,96; 3677,525;  269,198; 7369,881;47,99999
 515,54; 3602,220;  235,275; 7277,389;47,81157
 516,13; 3544,719;  245,890; 7174,012;47,61506
 516,71; 3488,188;  241,043; 7042,984;47,73851
 517,30; 3436,211;  229,503; 6925,173;47,89226
 517,88; 3404,708;  267,965; 6837,488;47,74689
 518,46; 3317,472;  242,042; 6709,210;47,55451
 519,05; 3307,743;  243,502; 6677,957;47,62238
 519,63; 3268,141;  246,657; 6593,944;47,60276
 520,22; 3272,174;  255,040; 6529,659;48,08474
 520,80; 3211,971;  248,117; 6459,927;47,71322
 521,38; 3225,903;  268,887; 6475,789;47,64077
 521,97; 3180,242;  242,808; 6411,135;47,62125
 522,55; 3154,485;  246,424; 6397,907;47,27415
 523,13; 3131,476;  245,115; 6349,413;47,28407
 523,72; 3110,661;  250,042; 6333,987;47,01915
 524,30; 3223,056;  267,038; 6475,268;47,61452
 524,89; 3177,962;  235,424; 6475,171;47,15798
 525,47; 3246,331;  260,884; 6593,415;47,14461
 526,05; 3265,390;  231,807; 6667,627;47,13593
 526,64; 3347,726;  261,729; 6744,633;47,60208
 527,22; 3413,607;  258,730; 6923,624;47,33574
 527,80; 3476,389;  288,268; 7049,642;47,15197
 528,39; 3490,500;  247,883; 7124,865;47,15175
 528,97; 3572,918;  246,498; 7290,410;47,22404
 529,55; 3710,365;  260,269; 7517,821;47,53801
 530,14; 3764,650;  273,113; 7733,311;46,80221
 530,72; 3789,389;  251,575; 7806,535;46,82770
 531,30; 3871,140;  240,036; 7949,347;47,10024
 531,89; 3893,250;  243,190; 8060,554;46,69170
 532,47; 3988,951;  285,882; 8193,540;46,82890
 533,05; 3974,841;  279,729; 8276,056;46,21011
 533,63; 4012,768;  283,036; 8348,519;46,24313
 534,22; 4013,217;  247,112; 8375,286;46,33397
 534,80; 4030,795;  282,496; 8404,433;46,15031
 535,38; 4128,694;  322,728; 8535,996;46,33924
 535,97; 4042,158;  267,574; 8477,382;45,97652
 536,55; 4099,383;  320,111; 8568,904;45,81605
 537,13; 4028,033;  322,421; 8487,202;45,38532
 537,71; 4039,544;  358,113; 8523,551;45,08553
 538,30; 4072,017;  391,112; 8644,246;44,60008
 538,88; 4104,991;  413,957; 8682,565;44,63913
 539,46; 4191,345;  468,419; 8886,589;44,22488
 540,05; 4244,103;  494,572; 9053,679;43,80750
 540,63; 4308,871;  539,957; 9234,648;43,34730
 541,21; 4356,122;  559,956; 9382,760;43,02675
 541,79; 4442,694;  613,880; 9523,505;42,97391
 542,38; 4528,998;  647,034; 9641,720;43,15842
 542,96; 4603,575;  650,879; 9843,390;42,99909
 543,54; 4677,654;  672,418;10010,159;42,89299
 544,12; 4717,181;  649,726;10193,280;42,61992
 544,70; 4752,758;  620,648;10278,150;42,78653
 545,29; 4835,492;  633,034;10494,357;42,61556
 545,87; 4875,694;  591,187;10505,428;43,21568
 546,45; 4817,188;  556,880;10536,496;42,69009
 547,03; 4836,388;  543,803;10577,875;42,78009
 547,62; 4877,118;  517,187;10757,852;42,57469
 548,20; 4989,568;  496,571;10926,865;43,07642
 548,78; 5006,139;  484,261;10996,873;43,01384
 549,36; 5064,224;  440,954;11236,228;42,82679
 549,94; 5115,174;  398,725;11380,386;42,94841
 550,53; 5176,896;  407,108;11622,701;42,52818
 551,11; 5242,410;  379,876;11786,112;42,63049
 551,69; 5389,896;  379,185;12101,132;42,74641
 552,27; 5485,375;  341,493;12354,289;42,82002
 552,85; 5629,015;  359,261;12791,756;42,38694
 553,44; 5795,019;  341,185;13065,187;42,86256
 554,02; 5930,423;  358,108;13463,714;42,51856
 554,60; 6016,416;  302,184;13792,329;42,35857
 555,18; 6202,719;  330,108;14250,743;42,18637
 555,76; 6387,060;  313,031;14592,996;42,53533
 556,34; 6546,816;  316,491;15034,886;42,33019
 556,93; 6682,859;  307,108;15418,478;42,19175
 557,51; 6841,484;  296,645;15808,650;42,19209
 558,09; 7008,563;  319,185;16208,481;42,09990
 558,67; 7126,933;  311,413;16605,017;41,82942
 559,25; 7291,112;  326,029;16858,468;42,12979
 559,83; 7332,705;  304,874;17220,141;41,54726
 560,41; 7463,649;  295,184;17658,299;41,28560
 561,00; 7662,822;  305,644;17964,349;41,66318
 561,58; 7737,125;  305,184;18198,794;41,53405
 562,16; 7871,706;  291,107;18535,033;41,55136
 562,74; 7954,796;  274,415;18920,020;41,19138
 563,32; 8136,464;  278,182;19425,170;41,04187
 563,90; 8335,185;  298,721;19734,376;41,34908
 564,48; 8416,330;  310,107;20128,558;40,90240
 565,06; 8580,564;  290,644;20677,928;40,66221
 565,65; 8840,250;  295,797;21411,651;40,46464
 566,23; 9096,118;  353,644;22074,577;40,24907
 566,81; 9321,948;  290,106;22813,189;40,10038
 567,39; 9635,036;  312,413;23749,654;39,77697
 567,97; 9886,491;  317,798;24445,760;39,65811
 568,55;10198,060;  312,721;25282,074;39,58989
 569,13;10416,479;  300,875;25985,573;39,38378
 569,71;10705,465;  298,800;26976,138;39,00938
 570,29;11125,443;  340,646;27965,534;39,04015
 570,87;11421,110;  332,800;28807,390;38,94107
 571,45;11591,067;  317,644;29504,075;38,62556
 572,03;11750,534;  271,182;29935,400;38,69764
 572,61;11944,413;  278,567;30658,437;38,39992
 573,20;12155,658;  313,876;31279,977;38,24111
 573,78;12396,947;  300,336;32070,451;38,07544
 574,36;12559,990;  303,490;32659,967;37,87959
 574,94;12690,723;  350,028;32969,530;37,83226
 575,52;12673,883;  322,257;33286,439;37,46984
 576,10;12924,782;  372,181;33829,419;37,51834
 576,68;13034,699;  356,028;34304,094;37,34726
 577,26;13254,532;  376,718;34970,970;37,22530
 577,84;13375,042;  374,259;35561,855;36,94706
 578,42;13509,095;  397,797;35907,543;36,92310
 579,00;13414,969;  367,336;36066,117;36,54924
 579,58;13509,447;  394,951;36358,705;36,46587
 580,16;13418,373;  386,258;36366,522;36,22018
 580,74;13460,523;  393,027;36608,613;36,08252
 581,32;13498,540;  385,489;36676,432;36,13312
 581,90;13411,495;  404,104;36700,500;35,83659
 582,48;13424,010;  394,796;36762,572;35,82626
 583,06;13407,445;  408,489;36882,136;35,63931
 583,64;13475,757;  407,412;37150,429;35,56688
 584,22;13337,258;  409,103;37069,976;35,26418
 584,80;13285,686;  424,950;36926,307;35,23358
 585,38;13067,466;  430,491;36498,816;35,03621
 585,96;13057,324;  400,028;36510,096;35,05199
 586,54;13051,409;  417,411;36434,899;35,07740
 587,12;13059,306;  384,873;36671,924;34,92825
 587,70;13054,474;  411,336;36772,495;34,77100
 588,28;13065,143;  398,335;36987,799;34,61873
 588,86;13024,715;  411,411;37134,744;34,34684
 589,44;12981,817;  381,487;37139,135;34,27948
 590,02;13013,369;  378,718;37355,737;34,16893
 590,59;13007,301;  354,488;37591,492;33,97914
 591,17;13033,073;  357,101;37811,448;33,84380
 591,75;13055,709;  359,025;37960,898;33,76610
 592,33;13106,636;  371,871;38254,145;33,61669
 592,91;13072,438;  326,101;38606,306;33,29746
 593,49;13169,391;  333,947;38912,389;33,27103
 594,07;13166,975;  341,716;39061,906;33,12292
 594,65;13137,163;  357,642;39133,911;32,95707
 595,23;13255,986;  347,718;39574,230;32,90700
 595,81;13219,677;  350,795;39762,091;32,65278
 596,39;13212,861;  349,871;39896,005;32,52654
 596,97;13245,164;  337,178;40114,666;32,45048
 597,55;13111,931;  327,026;39943,849;32,27140
 598,12;13074,467;  316,254;40022,096;32,13183
 598,70;12975,000;  316,870;40076,357;31,83675
 599,28;13018,219;  339,024;40361,354;31,68030
 599,86;12975,399;  330,793;40412,698;31,54692
 600,44;12949,407;  300,024;40495,453;31,46971
 601,02;12877,973;  350,099;40514,998;31,19110
 601,60;12845,356;  330,640;40527,074;31,13390
 602,18;12802,437;  303,946;40587,644;31,02618
 602,75;12735,450;  305,564;40724,692;30,75248
 603,33;12665,186;  325,947;40591,378;30,64475
 603,91;12574,424;  316,792;40690,319;30,36057
 604,49;12584,458;  325,639;40747,602;30,32712
 605,07;12526,776;  334,871;40763,081;30,15693
 605,65;12475,401;  344,485;40908,668;29,90549
 606,23;12450,900;  405,950;41020,458;29,65677
 606,80;12440,714;  452,256;41017,360;29,55362
 607,38;12322,718;  493,638;41115,470;29,12001
 607,96;12298,529;  546,795;41162,646;28,93386
 608,54;12280,512;  594,101;41212,721;28,77107
 609,12;12249,703;  616,641;41306,666;28,58947
 609,70;12224,225;  644,793;41349,678;28,44728
 610,27;12167,523;  652,641;41295,814;28,33165
 610,85;12120,700;  660,024;41419,558;28,11778
 611,43;12057,056;  677,178;41371,614;27,96421
 612,01;11915,496;  640,871;41203,148;27,79584
 612,59;11880,665;  630,947;41214,166;27,72012
 613,16;11746,455;  606,026;41170,539;27,46349
 613,74;11675,405;  579,024;40990,914;27,45821
 614,32;11590,070;  540,408;41042,971;27,28139
 614,90;11532,493;  490,178;40866,286;27,34864
 615,48;11375,029;  452,487;40559,746;27,23333
 616,05;11275,901;  410,180;40471,966;27,12241
 616,63;11160,464;  401,104;40363,494;26,92372
 617,21;11107,655;  399,718;40268,994;26,85762
 617,79;10995,563;  387,333;40142,361;26,68400
 618,36;10957,964;  397,486;40069,057;26,61976
 618,94;10774,168;  336,410;39771,528;26,46818
 619,52;10636,382;  365,642;39429,093;26,29245
 620,10;10574,119;  354,487;39491,226;26,11263
 620,67;10485,376;  361,873;39350,492;25,96528
 621,25;10365,104;  372,409;39161,485;25,76162
 621,83;10281,420;  354,641;39088,347;25,62827
 622,41;10297,818;  391,026;39125,842;25,57594
 622,98;10133,279;  364,642;38758,549;25,44320
 623,56;10069,087;  365,181;38884,157;25,19254
 624,14; 9970,365;  355,409;38728,291;25,05664
 624,72; 9928,487;  341,718;38649,914;25,02537
 625,29; 9896,691;  316,104;38666,309;24,98184
 625,87; 9857,760;  360,641;38532,616;24,87982
 626,45; 9748,128;  314,873;38446,873;24,73842
 627,02; 9667,581;  335,256;38280,118;24,59444
 627,60; 9581,299;  309,331;38281,586;24,41774
 628,18; 9576,549;  300,795;38338,973;24,38538
 628,76; 9573,121;  310,488;38379,025;24,33147
 629,33; 9443,905;  323,334;38358,690;23,97919
 629,91; 9419,042;  314,718;38329,687;23,94931
 630,49; 9430,869;  344,488;38449,637;23,84555
 631,06; 9419,293;  329,411;38535,475;23,79173
 631,64; 9328,663;  330,488;38571,503;23,53017
 632,22; 9222,177;  289,335;38453,021;23,40665
 632,79; 9321,935;  314,489;38673,557;23,48192
 633,37; 9282,088;  297,563;38843,835;23,30841
 633,95; 9256,977;  304,873;38879,750;23,20708
 634,52; 9209,994;  282,103;38992,354;23,06338
 635,10; 9196,267;  293,872;39015,394;22,99082
 635,68; 9191,814;  298,643;39256,610;22,82761
 636,25; 9169,569;  287,567;39194,822;22,82865
 636,83; 9128,660;  278,027;39495,718;22,56796
 637,41; 9123,163;  282,258;39440,479;22,57739
 637,98; 9155,287;  311,182;39708,412;22,44855
 638,56; 9100,018;  313,182;39881,850;22,20655
 639,13; 9065,237;  288,334;39933,633;22,13857
 639,71; 9124,017;  304,950;40086,266;22,16887
 640,29; 8980,494;  256,796;39748,763;22,08980
 640,86; 8981,158;  264,949;40035,288;21,91636
 641,44; 8993,054;  279,949;40050,505;21,90843
 642,02; 8916,411;  299,488;40076,798;21,66291
 642,59; 8852,999;  274,949;40148,861;21,51294
 643,17; 8864,894;  281,334;40262,617;21,46895
 643,74; 8818,944;  280,180;40240,603;21,36805
 644,32; 8817,147;  297,872;40196,974;21,35205
 644,89; 8807,504;  294,641;40164,421;21,35167
 645,47; 8765,015;  303,641;40245,177;21,18440
 646,05; 8718,987;  290,411;40090,932;21,17705
 646,62; 8629,652;  289,641;40109,995;20,94409
 647,20; 8666,932;  289,718;40289,058;20,94338
 647,77; 8601,289;  265,487;40197,967;20,87474
 648,35; 8523,031;  256,026;40034,107;20,78281
 648,92; 8484,080;  298,949;40081,786;20,57453
 649,50; 8406,283;  255,026;40013,310;20,50204
 650,08; 8374,717;  261,410;39907,450;20,46436
 650,65; 8346,690;  262,333;40059,590;20,31385
 651,23; 8420,739;  243,564;40483,499;20,32104
 651,80; 8572,635;  258,179;41612,870;20,10523
 652,38; 8684,684;  261,872;42032,164;20,16460
 652,95; 8761,580;  233,256;42436,227;20,20787
 653,53; 8757,860;  276,564;42747,752;19,96953
 654,10; 8794,217;  289,718;42884,815;19,96591
 654,68; 8718,035;  250,641;42776,185;19,91131
 655,25; 8724,546;  264,872;42974,018;19,80764
 655,83; 8702,211;  245,179;43005,004;19,77799
 656,40; 8714,568;  284,795;42952,990;19,75657
 656,98; 8647,541;  253,179;42933,591;19,66795
 657,55; 8588,590;  261,410;42895,270;19,53185
 658,13; 8536,485;  252,641;42493,410;19,61102
 658,70; 8489,919;  269,102;42348,011;19,53667
 659,28; 8271,123;  260,640;41591,459;19,38138
 659,85; 8094,557;  256,948;40543,599;19,45460
 660,43; 8055,221;  275,948;40407,508;19,38443
 661,00; 8042,886;  262,486;40634,879;19,27158
 661,58; 8117,243;  249,794;40897,480;19,35522
 662,15; 8080,293;  239,333;41179,928;19,15204
 662,73; 8172,803;  299,948;41449,453;19,13232
 663,30; 8157,237;  268,563;41664,977;19,05642
 663,88; 8193,056;  270,948;41892,886;19,03349
 664,45; 8226,798;  255,486;42090,257;19,05427
 665,03; 8268,847;  264,717;42455,705;18,97118
 665,60; 8399,973;  312,102;42942,152;18,97223
 666,17; 8350,330;  271,255;43090,446;18,86788
 666,75; 8401,687;  261,025;43340,663;18,89678
 667,32; 8529,968;  289,948;43719,188;18,97344
 667,90; 8536,017;  266,101;43996,712;18,91105
 668,47; 8606,220;  294,640;44317,698;18,88006
 669,05; 8624,270;  269,486;44670,762;18,81654
 669,62; 8563,780;  245,178;44863,671;18,64384
 670,19; 8600,830;  254,794;44851,888;18,71431
 670,77; 8698,648;  265,793;45132,643;18,79529
 671,34; 8646,467;  268,793;45023,860;18,71894
 671,92; 8690,747;  253,947;45300,846;18,72893
 672,49; 8691,181;  269,947;45421,294;18,65112
 673,06; 8672,692;  224,024;45433,818;18,68769
 673,64; 8667,588;  255,947;45416,958;18,62589
 674,21; 8668,329;  237,255;45450,021;18,64755
 674,79; 8728,840;  262,255;45639,007;18,65842
 675,36; 8792,736;  276,947;45766,840;18,72018
 675,93; 8652,631;  253,332;45623,903;18,51266
 676,51; 8752,296;  281,870;45858,427;18,58505
 677,08; 8728,884;  268,101;45891,952;18,54465
 677,65; 8720,779;  263,947;45995,707;18,49225
 678,23; 8781,752;  268,485;46231,924;18,52182
 678,80; 8796,955;  257,101;46384,987;18,51343
 679,38; 8859,774;  241,639;46510,358;18,62627
 679,95; 8899,669;  267,485;46653,959;18,60927
 680,52; 8942,718;  250,639;47027,638;18,58195
 681,10; 9051,999;  270,331;47363,778;18,64732
 681,67; 9082,356;  272,562;47716,918;18,56869
 682,24; 9128,713;  236,254;47830,289;18,68398
 682,82; 9212,762;  250,716;48266,736;18,66470
 683,39; 9341,119;  279,331;48759,338;18,69180
 683,96; 9398,168;  243,869;48931,478;18,80211
 684,54; 9388,295;  237,408;49218,233;18,68259
 685,11; 9546,575;  268,254;49710,835;18,76585
 685,68; 9616,394;  255,023;50123,975;18,77194
 686,25; 9612,828;  242,254;50130,576;18,78310
 686,83; 9662,338;  243,715;50379,947;18,78606
 687,40; 9743,465;  228,023;50759,471;18,83073
 687,97; 9852,283;  276,331;51175,073;18,81373
 688,55; 9848,640;  237,869;51281,367;18,82859
 689,12; 9890,074;  225,254;51495,045;18,85091
 689,69; 9947,201;  232,023;51621,339;18,90505
 690,26; 9954,865;  242,869;51610,787;18,90674
 690,84;10048,761;  241,946;51917,080;18,97782
 691,41;10070,426;  250,638;51948,759;18,99448
 691,98;10186,090;  256,561;52306,822;19,07681
 692,56;10154,063;  235,253;52441,270;18,99936
 693,13;10297,266;  294,869;52495,871;19,16131
 693,70;10282,469;  274,176;52639,396;19,11248
 694,27;10299,519;  250,715;52769,689;19,13366
 694,84;10358,030;  243,561;52835,829;19,23185
 695,42;10442,156;  284,023;52996,892;19,27069
 695,99;10454,128;  250,099;53277,263;19,24302
 696,56;10478,485;  243,099;53121,557;19,35644
 697,13;10613,612;  264,022;53431,082;19,46617
 697,71;10516,123;  219,638;53449,529;19,34343
 698,28;10697,633;  251,253;53810,515;19,50434
 698,85;10706,221;  218,330;53892,809;19,53981
 699,42;10796,655;  225,715;54085,718;19,62670
 699,99;10840,089;  265,253;54175,781;19,61553
 700,57;10866,446;  265,868;54237,845;19,64089
 701,14;10917,419;  245,176;54338,754;19,72922
 701,71;10994,160;  249,330;54598,124;19,77014
 702,28;10999,210;  256,407;54509,418;19,80130
 702,85;11069,875;  258,484;54701,327;19,85824
 703,43;11078,155;  273,714;54993,775;19,74493
 704,00;11223,127;  279,483;55230,223;19,91537
 704,57;11182,638;  259,791;55148,209;19,90009
 705,14;11266,841;  288,330;55447,580;19,90330
 705,71;11292,044;  304,483;55488,950;19,91060
 706,28;11325,709;  265,714;55340,706;20,08170
 706,86;11445,528;  295,252;55697,307;20,12610
 707,43;11368,039;  310,022;55571,909;20,01021
 708,00;11393,550;  290,252;55628,818;20,06430
 708,57;11447,522;  268,098;55526,881;20,23103
 709,14;11543,648;  293,791;55719,329;20,29725
 709,71;11584,928;  276,560;55778,853;20,37460
 710,28;11652,516;  279,637;56054,301;20,39076
 710,86;11770,566;  291,175;56245,287;20,51572
 711,43;11826,000;  290,406;56174,812;20,64188
 712,00;11814,357;  274,637;56266,490;20,60964
 712,57;11912,252;  275,791;56451,861;20,71427
 713,14;11982,917;  262,252;56564,847;20,81727
 713,71;11980,351;  270,021;56355,602;20,87939
 714,28;12048,093;  257,560;56496,742;20,96498
 714,85;11992,142;  242,790;56285,498;20,96500
 715,42;12099,961;  253,098;56570,330;21,03595
 716,00;12257,164;  284,329;56620,008;21,25267
 716,57;12172,444;  247,636;56825,918;21,07665
 717,14;12244,801;  228,329;56662,134;21,29304
 717,71;12285,004;  227,636;56615,659;21,38285
 718,28;12384,592;  255,405;56809,337;21,44711
 718,85;12386,564;  227,252;56777,554;21,50176
 719,42;12463,845;  251,790;56956,925;21,53606
 719,99;12452,356;  222,405;56871,680;21,58889
 720,56;12604,790;  244,328;57079,282;21,74799
 721,13;12635,377;  243,867;57071,037;21,80561
 721,70;12645,427;  235,405;56982,716;21,86892
 722,27;12707,168;  254,867;57061,317;21,92058
 722,84;12821,679;  280,867;57280,842;22,00144
 723,41;12864,806;  234,251;57128,136;22,20020
 723,98;12864,932;  241,328;57476,276;22,05576
 724,55;13042,904;  262,328;57525,877;22,31887
 725,12;13003,800;  207,636;57460,709;22,35018
 725,69;13212,388;  237,020;57676,772;22,58953
 726,27;13260,668;  233,020;57737,989;22,65482
 726,84;13397,871;  240,636;58096,668;22,74134
 727,41;13440,459;  251,251;57917,039;22,87181
 727,98;13585,739;  263,020;58335,717;22,94145
 728,55;13620,404;  283,020;58212,549;23,02346
 729,12;13632,068;  230,328;58427,843;23,02803
 729,69;13804,733;  268,559;58545,983;23,22713
 730,26;13812,321;  275,251;58827,046;23,11982
 730,82;13786,294;  245,712;58534,955;23,22998
 731,39;13909,881;  244,097;58687,249;23,38304
 731,96;14002,008;  238,866;58878,312;23,47079
 732,53;14102,903;  269,251;59284,914;23,44065
 733,10;14239,645;  270,558;59342,284;23,64767
 733,67;14303,540;  277,097;59617,578;23,63723
 734,24;14250,128;  258,020;59095,872;23,78079
 734,81;14407,408;  285,097;59304,397;23,92829
 735,38;14343,612;  263,097;59005,075;23,97011
 735,95;14379,122;  264,789;58936,215;24,05657
 736,52;14508,556;  280,096;59168,663;24,16167
 737,09;14464,913;  276,635;58809,033;24,24004
 737,66;14633,732;  316,712;59152,712;24,33378
 738,23;14712,474;  248,866;59120,159;24,56818
 738,80;14827,369;  294,635;59379,761;24,59627
 739,37;14836,111;  293,866;59598,824;24,52113
 739,94;14950,083;  277,865;59713,887;24,68573
 740,51;15117,979;  326,250;59698,258;24,91364
 741,07;15031,721;  267,865;59637,475;24,86770
 741,64;15156,155;  288,404;59815,307;24,97652
 742,21;15296,127;  274,096;59962,755;25,16731
 742,78;15295,023;  246,327;59720,818;25,30277
 743,35;15385,918;  261,634;60063,265;25,29075
 743,92;15541,890;  301,942;60219,098;25,43503
 744,49;15540,555;  279,250;60013,084;25,54885
 745,06;15597,297;  268,250;60047,301;25,64284
 745,63;15694,116;  252,865;60047,902;25,82363
 746,19;15734,626;  258,942;59949,811;25,92638
 746,76;15750,137;  272,557;60104,413;25,86846
 747,33;15833,264;  253,865;60042,937;26,05727
 747,90;16020,005;  273,173;60244,770;26,25715
 748,47;16088,593;  286,096;60168,371;26,38927
 749,04;16083,181;  282,942;60151,204;26,39168
 749,61;16255,307;  291,480;60108,882;26,68760
 750,17;16282,126;  278,634;60286,176;26,66913
 750,74;16354,329;  284,557;60067,470;26,88021
 751,31;16349,301;  257,634;59969,763;26,94874
 751,88;16410,428;  244,788;59851,903;27,12032
 752,45;16483,477;  272,480;59977,505;27,15181
 753,02;16429,065;  267,557;59914,414;27,09532
 753,58;16488,960;  256,403;59677,939;27,31763
 754,15;16595,087;  268,326;59703,463;27,46988
 754,72;16529,290;  247,172;59566,834;27,44810
 755,29;16569,647;  243,634;59412,436;27,59227
 755,86;16650,696;  261,480;59606,268;27,61694
 756,42;16712,207;  268,710;59348,946;27,83248
 756,99;16701,334;  222,864;59379,317;27,85574
 757,56;16770,075;  245,787;59345,226;27,96014
 758,13;16806,740;  201,480;59297,366;28,09884
 758,70;17003,943;  227,326;59328,045;28,38649
 759,26;17062,839;  219,787;59508,569;28,40850
 759,83;17175,580;  217,249;59608,171;28,55374
 760,40;17203,322;  215,556;59569,618;28,62107
 760,97;17226,987;  191,941;59507,374;28,71942
 761,53;17191,498;  167,787;59097,206;28,88831
 762,10;17277,624;  188,864;59006,731;29,05369
 762,67;17317,673;  215,556;58978,563;29,10354
 763,24;17238,492;  171,864;58655,010;29,18213
 763,80;17448,849;  215,941;58695,920;29,46805
 764,37;17432,975;  221,633;58724,444;29,41968
 764,94;17293,948;  202,479;58223,661;29,45729
 765,50;17386,382;  200,941;58188,109;29,63663
 766,07;17470,816;  250,941;58312,403;29,65801
 766,64;17498,942;  222,402;57961,389;29,92179
 767,21;17514,299;  218,479;57850,759;30,01065
 767,77;17530,579;  245,017;57809,284;30,02828
 768,34;17568,398;  254,633;57720,039;30,12902
 768,91;17550,293;  249,171;57490,872;30,22468
 769,47;17647,035;  242,094;57610,550;30,33887
 770,04;17731,161;  264,094;57447,998;30,54543
 770,61;17685,518;  238,556;57207,445;30,62542
 771,18;17632,491;  229,017;57093,432;30,60521
 771,74;17773,694;  251,786;57403,264;30,65871
 772,31;17798,974;  254,632;57036,096;30,89801
 772,88;17769,793;  219,555;56781,313;31,02845
 773,44;17780,996;  231,325;56535,915;31,16917
 774,01;17870,738;  242,017;56679,516;31,23583
 774,58;17792,172;  224,786;56336,041;31,30813
 775,14;17941,913;  214,171;56509,181;31,49079
 775,71;17956,655;  233,863;56373,936;31,56888
 776,27;18075,012;  273,632;56323,307;31,76001
 776,84;18259,061;  278,171;56319,216;32,08522
 777,41;18230,419;  255,324;56158,587;32,15393
 777,97;18154,314;  248,324;55869,034;32,19303
 778,54;18285,056;  248,632;55862,944;32,43126
 779,11;18352,028;  258,170;55932,391;32,49953
 779,67;18390,616;  230,093;55868,993;32,63997
 780,24;18456,896;  253,863;55591,825;32,89430
 780,80;18476,869;  263,401;55479,273;32,98593
 781,37;18524,764;  252,939;55529,951;33,05502
 781,94;18558,737;  254,862;55312,629;33,24485
 782,50;18637,324;  256,170;55101,000;33,51483
 783,07;18715,451;  272,401;55288,525;33,52299
 783,63;18736,115;  230,247;55059,588;33,75176
 784,20;18740,088;  255,478;55068,112;33,72327
 784,77;18670,368;  249,401;54868,560;33,72620
 785,33;18650,340;  226,170;54638,085;33,86054
 785,90;18757,697;  246,554;54549,609;34,08859
 786,46;18716,285;  265,939;54460,518;34,04463
 787,03;18695,181;  237,016;54258,582;34,16814
 787,59;18787,384;  245,708;54143,568;34,40151
 788,16;18846,510;  241,785;54108,708;34,53831
 788,73;18777,560;  245,400;54001,078;34,47479
 789,29;18708,455;  241,631;53561,988;34,63372
 789,86;18777,966;  246,016;53556,281;34,76244
 790,42;18817,631;  255,093;53430,575;34,90808
 790,99;18743,219;  254,246;53023,484;35,03741
 791,55;18813,883;  236,016;53114,009;35,13346
 792,12;18925,779;  259,092;53020,149;35,37967
 792,68;18837,905;  239,939;52791,366;35,39003
 793,25;18920,570;  247,015;52456,275;35,76675
 793,81;18823,081;  277,400;52162,646;35,74365
 794,38;18766,284;  221,708;51920,940;35,87012
 794,94;18785,333;  227,323;51778,464;35,99922
 795,51;18786,152;  243,708;51502,220;36,17437
 796,07;18710,971;  253,015;51154,283;36,26227
 796,64;18855,251;  272,477;51359,653;36,37464
 797,20;18713,223;  240,938;50841,024;36,50643
 797,77;18665,580;  231,246;50515,472;36,66027
 798,33;18624,937;  230,861;50318,612;36,72370
 798,90;18648,448;  267,554;50350,290;36,70106
 799,46;18583,190;  243,092;49905,892;36,92925
 800,03;18618,316;  251,246;49702,570;37,14172
 800,59;18598,827;  264,246;49447,556;37,27805
 801,15;18594,030;  256,169;49249,696;37,42915
 801,72;18498,541;  253,246;48855,452;37,54006
 802,28;18426,129;  285,707;48559,976;37,57783
 802,85;18431,794;  252,861;48411,885;37,74772
 803,41;18398,766;  252,553;48186,025;37,85708
 803,98;18385,277;  238,861;47748,858;38,19494
 804,54;18372,557;  241,938;47473,921;38,38632
 805,11;18242,145;  251,168;47388,676;38,16701
 805,67;18390,118;  264,322;47262,739;38,56682
 806,23;18204,244;  257,015;46777,571;38,57914
 806,80;18258,524;  271,091;46658,327;38,77669
 807,36;18335,343;  276,399;46582,928;38,99870
 807,93;18269,623;  277,322;46312,914;39,08346
 808,49;18155,211;  234,784;45881,900;39,25862
 809,05;18172,722;  223,399;45730,810;39,44264
 809,62;18159,232;  256,707;45606,565;39,47648
 810,18;18195,051;  257,399;45514,320;39,63516
 810,74;18080,408;  234,322;45219,614;39,67094
 811,31;18186,227;  232,553;44936,677;40,16111
 811,87;18082,276;  234,860;44874,894;39,98074
 812,44;18122,479;  272,783;44842,726;40,04873
 813,00;18145,452;  212,168;44537,251;40,45855
 813,56;18197,578;  244,552;44600,699;40,47472
 814,13;18256,012;  239,937;44506,223;40,69931
 814,69;18242,138;  247,860;44407,440;40,74830
 815,25;18133,957;  219,245;43855,965;41,05421
 815,82;18132,545;  256,783;43796,335;41,05637
 816,38;18201,594;  262,783;43605,706;41,38810
 816,94;18097,182;  220,245;43263,154;41,53283
 817,51;18022,693;  215,629;43108,832;41,51488
 818,07;17998,281;  223,091;42865,588;41,68421
 818,63;17931,099;  240,398;42571,497;41,79126
 819,20;17951,149;  235,398;42559,791;41,85707
 819,76;17788,121;  223,552;42053,854;41,99006
 820,32;17852,401;  272,244;42024,378;42,10601
 820,89;17809,835;  255,167;41769,980;42,28531
 821,45;17744,808;  234,475;41470,120;42,46407
 822,01;17645,934;  249,629;41212,490;42,46848
 822,57;17664,137;  259,783;41085,092;42,63129
 823,14;17529,648;  225,475;40882,693;42,56113
 823,70;17478,620;  218,706;40583,218;42,76012
 824,26;17500,824;  228,936;40340,127;43,06002
 824,82;17523,488;  252,552;40181,883;43,25376
 825,39;17421,538;  227,859;39873,023;43,36892
 825,95;17405,741;  256,398;39937,778;43,21761
 826,51;17297,944;  249,552;39501,918;43,43278
 827,08;17405,070;  270,244;39705,827;43,45017
 827,64;17356,274;  260,936;39398,275;43,68038
 828,20;17290,708;  233,859;39124,799;43,85815
 828,76;17350,065;  245,474;39040,478;44,08967
 829,32;17385,653;  254,321;38899,233;44,33011
 829,89;17324,548;  212,321;38687,604;44,47590
 830,45;17437,828;  229,936;38682,359;44,75113
 831,01;17411,647;  221,936;38457,576;44,95730
 831,57;17395,081;  234,628;38340,178;45,03400
 832,14;17388,284;  231,167;38418,087;44,92930
 832,70;17396,641;  232,705;38101,304;45,32498
 833,26;17365,844;  220,320;37979,213;45,40791
 833,82;17377,971;  230,705;37849,122;45,58210
 834,38;17427,097;  225,320;37884,954;45,67696
 834,95;17418,454;  213,936;37765,633;45,81555
 835,51;17403,580;  192,166;37620,619;45,98484
 836,07;17463,707;  232,859;37709,990;45,97697
 836,63;17554,448;  244,320;37710,437;46,20209
 837,19;17500,190;  231,782;37494,116;46,34280
 837,75;17292,470;  204,012;37174,563;46,22181
 838,32;17498,596;  244,935;37201,473;46,68636
 838,88;17511,646;  252,320;37381,074;46,48507
 839,44;17501,772;  237,243;37208,445;46,69723
 840,00;17487,360;  233,551;37106,585;46,79249
 840,56;17359,563;  210,089;36842,340;46,81523
 841,12;17425,766;  211,474;36801,326;47,04663
 841,68;17381,662;  209,012;36654,851;47,11827
 842,25;17494,557;  217,320;36602,222;47,48463
 842,81;17404,299;  215,012;36276,054;47,66719
 843,37;17422,656;  205,704;36358,963;47,62213
 843,93;17475,475;  223,320;36140,565;48,03307
 844,49;17601,985;  230,396;36145,859;48,36800
 845,05;17473,112;  204,089;36008,460;48,23161
 845,61;17608,700;  240,858;36106,831;48,42429
 846,17;17557,134;  225,781;35977,586;48,47686
 846,73;17632,183;  228,396;35902,495;48,78550
 847,29;17493,848;  204,012;35749,866;48,64094
 847,86;17575,589;  213,242;35627,083;49,02701
 848,42;17453,023;  204,858;35443,531;48,94669
 848,98;17460,842;  219,704;35396,055;49,01344
 849,54;17552,045;  211,242;35299,195;49,42096
 850,10;17491,710;  226,627;35297,489;49,22914
 850,66;17406,298;  202,088;35152,090;49,22520
 851,22;17386,962;  196,627;35074,461;49,28728
 851,78;17519,704;  250,242;35120,447;49,52498
 852,34;17326,061;  227,011;34792,126;49,46910
 852,90;17326,880;  210,165;34638,420;49,71706
 853,46;17262,622;  207,703;34422,483;49,84664
 854,02;17310,132;  222,473;34570,776;49,74819
 854,58;17112,489;  206,550;34248,070;49,66270
 855,14;17100,923;  188,088;34113,672;49,85275
 855,70;17015,050;  181,088;34010,119;49,76188
 856,26;17066,791;  230,857;33985,413;49,87752
 856,82;17011,533;  211,011;33795,476;50,02468
 857,38;17101,659;  232,780;33755,001;50,32148
 857,94;17009,324;  223,318;33563,141;50,34822
 858,50;17039,373;  227,472;33468,435;50,57586
 859,06;16921,269;  212,857;33216,113;50,62656
 859,62;17049,780;  238,165;33200,638;51,00229
 860,18;17035,214;  211,703;32975,239;51,34828
 860,74;17079,109;  191,164;32877,995;51,66590
 861,30;17008,159;  198,703;32637,750;51,81859
 861,86;17145,439;  234,241;32729,967;52,04130
 862,42;17085,488;  211,241;32530,722;52,21076
 862,98;17217,461;  233,549;32460,324;52,70125
 863,54;17153,049;  232,703;32223,233;52,89173
 864,10;17220,098;  218,780;32280,296;53,02718
 864,66;17118,609;  197,164;32030,436;53,15647
 865,22;17142,427;  218,395;31993,114;53,26257
 865,78;17110,938;  226,164;31765,024;53,53641
 866,34;17076,988;  217,549;31711,471;53,53236
 866,90;17064,806;  224,010;31595,842;53,68127
 867,45;16985,933;  234,779;31383,982;53,77715
 868,01;16871,751;  225,010;31204,122;53,73537
 868,57;16826,647;  220,856;30995,954;53,95853
 869,13;16731,235;  209,933;30903,633;53,82636
 869,69;16822,592;  210,702;30762,849;54,37225
 870,25;16768,795;  195,010;30629,220;54,45775
 870,81;16691,613;  223,625;30592,745;54,22610
 871,37;16669,817;  225,087;30508,423;54,30290
 871,93;16644,020;  240,317;30317,409;54,53886
 872,49;16601,531;  224,779;30062,395;54,88626
 873,04;16451,042;  209,471;29764,382;54,95388
 873,60;16417,399;  195,702;29773,906;54,84341
 874,16;16368,602;  228,471;29725,815;54,71723
 874,72;16404,448;  209,394;29565,508;55,16757
 875,28;16439,525;  227,240;29508,892;55,36670
 875,84;16353,063;  215,625;29468,508;55,16529
 876,40;16352,679;  221,163;29483,277;55,12765
 876,95;16362,448;  228,779;29318,585;55,46159
 877,51;16433,910;  241,625;29324,046;55,67722
 878,07;16475,525;  256,240;29308,892;55,82721
 878,63;16534,910;  221,702;29386,123;55,93530
 879,19;16634,756;  236,317;29306,892;56,40906
 879,75;16691,063;  231,317;29315,585;56,59330
 880,30;16714,063;  218,010;29349,738;56,62573
 880,86;16851,294;  260,933;29409,200;56,91714
 881,42;16858,602;  217,240;29516,585;56,79773
 881,98;16984,756;  230,702;29638,585;56,97130
 882,54;17021,910;  214,394;29673,585;57,05355
 883,09;17168,602;  239,779;29802,200;57,26467
 883,65;17216,063;  208,317;29926,815;57,22949
 884,21;17343,756;  241,702;30083,892;57,30831
 884,77;17422,910;  218,471;30170,277;57,44040
 885,32;17631,140;  213,240;30367,662;57,76234
 885,88;17779,294;  256,702;30528,354;57,88449
 886,44;17893,756;  226,394;30561,277;58,24107
 887,00;17937,910;  239,856;30602,200;58,28948
 887,56;18088,910;  223,163;30764,969;58,49604
 888,11;18117,371;  210,317;30778,815;58,58009
 888,67;18237,294;  252,317;31034,662;58,42627
 889,23;18399,679;  237,471;31000,738;59,03862
 889,79;18326,525;  212,702;30827,354;59,16717
 890,34;18338,371;  218,702;30761,738;59,32504
 890,90;18549,217;  276,702;31002,738;59,46916
 891,46;18463,756;  214,625;30871,892;59,52628
 892,01;18516,602;  241,317;30809,123;59,78605
 892,57;18501,448;  249,317;30782,046;59,77890
 893,13;18376,679;  211,471;30613,508;59,74997
 893,69;18420,910;  211,548;30430,200;60,25868
 894,24;18340,371;  224,471;30329,738;60,17518
 894,80;18271,833;  227,702;30158,200;60,28677
 895,36;18260,448;  225,394;30082,200;60,40517
 895,91;18112,679;  223,856;29868,815;60,34356
 896,47;18163,063;  225,548;29737,815;60,77986
 897,03;18032,294;  215,394;29583,431;60,66766
 897,58;17986,756;  230,087;29458,969;60,75042
 898,14;17930,294;  234,163;29259,354;60,96818
 898,70;17829,602;  203,548;29083,277;61,03262
 899,25;17810,910;  218,240;29094,815;60,92367
 899,81;17728,833;  238,702;28850,123;61,12989
 900,37;17612,371;  202,471;28737,200;61,01302
 900,92;17606,448;  223,317;28698,892;61,04576
 901,48;17571,371;  218,087;28523,277;61,30778
 902,03;17442,525;  210,010;28373,277;61,18791
 902,59;17417,063;  215,394;28163,969;61,54757
 903,15;17430,910;  235,317;28146,277;61,60875
 903,70;17215,679;  234,163;27831,431;61,53332
 904,26;17204,679;  207,010;27701,046;61,82311
 904,82;17250,833;  216,856;27670,200;62,04700
 905,37;17163,987;  218,010;27592,354;61,90459
 905,93;17085,987;  218,625;27372,892;62,11680
 906,48;17118,294;  227,548;27292,123;62,40906
 907,04;17119,756;  232,317;27288,046;62,41724
 907,60;17010,140;  207,010;26962,738;62,80199
 908,15;16993,833;  206,087;26884,431;62,92649
 908,71;17009,987;  240,087;26822,508;63,08643
 909,26;16912,448;  211,471;26718,431;63,00601
 909,82;16969,602;  234,625;26520,431;63,66545
 910,37;17012,140;  255,010;26494,738;63,86168
 910,93;16934,217;  204,702;26271,815;64,17863
 911,48;16809,217;  205,933;26016,431;64,32764
 912,04;16789,294;  208,779;25987,969;64,31744
 912,60;16811,063;  217,779;25989,431;64,38580
 913,15;16719,833;  222,548;25880,969;64,29579
 913,71;16662,987;  204,702;25663,738;64,64614
 914,26;16684,910;  196,548;25538,354;65,06388
 914,82;16647,525;  218,317;25452,431;65,10713
 915,37;16594,140;  205,779;25397,431;65,05473
 915,93;16609,910;  239,010;25291,969;65,34517
 916,48;16491,602;  205,394;25086,431;65,45631
 917,04;16380,371;  228,702;25025,585;65,13589
 917,59;16394,910;  237,010;24963,046;65,34772
 918,15;16259,910;  187,548;24694,738;65,58223
 918,70;16255,756;  216,163;24653,738;65,63496
 919,26;16139,756;  216,702;24573,815;65,37332
 919,81;16085,679;  205,856;24446,277;65,50968
 920,37;16029,525;  212,625;24303,200;65,65597
 920,92;15947,294;  234,010;24199,200;65,56712
 921,48;15829,217;  203,317;23943,046;65,82173
 922,03;15781,448;  214,471;23948,123;65,59031
 922,59;15756,448;  201,779;23805,892;65,89813
 923,14;15751,448;  198,240;23665,046;66,27748
 923,69;15706,063;  228,625;23581,354;66,27679
 924,25;15801,602;  232,779;23595,508;66,63957
 924,80;15628,371;  216,087;23307,585;66,74441
 925,36;15634,602;  209,163;23299,892;66,80360
 925,91;15590,602;  211,856;23093,892;67,20882
 926,47;15515,525;  187,625;23053,046;67,03528
 927,02;15583,217;  232,010;22928,046;67,63828
 927,57;15467,294;  217,933;22757,200;67,65686
 928,13;15496,063;  203,625;22745,738;67,83942
 928,68;15415,602;  208,702;22598,431;67,91909
 929,24;15317,910;  185,163;22383,046;68,17203
 929,79;15332,679;  199,471;22287,200;68,51410
 930,34;15279,063;  209,163;22196,123;68,54017
 930,90;15304,448;  195,548;22095,815;68,98957
 931,45;15299,910;  212,394;22056,738;69,06829
 932,01;15203,448;  218,394;21929,354;69,02069
 932,56;15115,140;  227,779;21786,969;69,05344
 933,11;15159,679;  226,471;21769,662;69,31753
 933,67;15034,756;  203,240;21552,585;69,47059
 934,22;15022,987;  212,087;21467,354;69,68108
 934,77;15019,294;  226,163;21440,046;69,73325
 935,33;14974,525;  223,779;21228,431;70,22609
 935,88;14907,063;  215,317;21155,200;70,16155
 936,43;14914,371;  197,394;21104,200;70,39324
 936,99;14866,140;  212,394;20907,277;70,80855
 937,54;14788,371;  194,010;20763,431;70,95174
 938,09;14812,371;  214,394;20733,123;71,14465
 938,65;14746,679;  213,779;20592,354;71,31460
 939,20;14682,756;  194,163;20559,354;71,14391
 939,75;14706,987;  198,163;20358,200;71,96824
 940,31;14656,063;  182,087;20308,969;71,91365
 940,86;14638,679;  219,702;20218,046;72,10085
 941,41;14644,448;  256,394;20175,354;72,23296
 941,96;14551,679;  203,471;20056,662;72,27155
 942,52;14433,756;  214,394;20002,738;71,85726
 943,07;14449,602;  190,163;19846,431;72,54398
 943,62;14433,679;  202,240;19760,585;72,76402
 944,18;14356,217;  196,548;19663,969;72,73521
 944,73;14338,217;  207,087;19558,046;73,02548
 945,28;14177,140;  181,702;19285,046;73,26172
 945,83;14169,602;  199,240;19313,662;73,08807
 946,39;14113,371;  202,856;19304,508;72,82363
 946,94;14080,525;  230,548;19179,123;73,09245
 947,49;13993,602;  200,163;19056,277;73,15102
 948,04;14012,525;  219,010;19013,508;73,39124
 948,59;13985,371;  227,317;18957,354;73,45450
 949,15;13911,294;  188,394;18849,277;73,53832
 949,70;13895,294;  194,933;18773,738;73,74188
 950,25;13734,910;  226,779;18670,892;73,23817
 950,80;13693,910;  171,625;18547,046;73,58898
 951,36;13700,063;  177,010;18350,046;74,41274
 951,91;13692,448;  223,087;18425,200;73,99889
 952,46;13590,910;  183,933;18200,738;74,41373
 953,01;13696,217;  222,856;18321,277;74,44496
 953,56;13574,063;  177,702;18106,662;74,71912
 954,11;13578,063;  216,087;18032,892;74,99648
 954,67;13569,987;  198,779;17954,969;75,30448
 955,22;13483,294;  180,779;17802,431;75,48960
 955,77;13515,525;  221,625;17822,969;75,52775
 956,32;13499,525;  243,010;17689,354;75,98449
 956,87;13360,294;  188,702;17499,585;76,08851
 957,42;13404,063;  204,471;17490,123;76,36155
 957,98;13447,987;  195,240;17383,354;77,10413
 958,53;13385,448;  222,471;17341,969;76,88880
 959,08;13287,063;  194,163;17226,815;76,86942
 959,63;13242,448;  192,087;17128,123;77,05676
 960,18;13294,217;  215,163;17113,277;77,39949
 960,73;13248,063;  205,010;17021,277;77,56212
 961,28;13169,217;  186,933;16850,815;77,90672
 961,83;13145,063;  213,087;16829,277;77,82757
 962,39;13151,371;  189,856;16719,508;78,41372
 962,94;13110,448;  223,317;16656,815;78,41989
 963,49;12984,602;  203,087;16471,662;78,56567
 964,04;12987,217;  215,317;16481,508;78,51808
 964,59;12879,602;  180,087;16306,892;78,74787
 965,14;12901,217;  213,471;16273,200;79,00349
 965,69;12862,063;  204,702;16118,046;79,53929
 966,24;12741,140;  208,548;16067,354;79,02608
 966,79;12652,525;  213,856;15941,662;79,08712
 967,34;12587,371;  178,087;15834,046;79,26237
 967,89;12566,217;  189,317;15766,508;79,45528
 968,44;12509,525;  211,394;15739,123;79,20109
 968,99;12486,833;  212,163;15617,277;79,67919
 969,55;12410,679;  209,856;15543,585;79,56853
 970,10;12383,987;  210,625;15387,354;80,21071
 970,65;12346,063;  214,933;15328,815;80,26482
 971,20;12303,448;  203,471;15221,892;80,56757
 971,75;12112,910;  189,548;15016,892;80,41468
 972,30;12060,910;  202,779;14988,354;80,20067
 972,85;12093,140;  203,548;14955,662;80,59586
 973,40;11921,679;  195,702;14768,354;80,46564
 973,95;11973,602;  206,779;14719,200;81,08105
 974,50;11899,294;  223,394;14604,046;81,19173
 975,05;11839,371;  220,779;14528,277;81,20632
 975,60;11781,679;  225,779;14499,892;80,95704
 976,15;11746,910;  215,394;14385,815;81,37737
 976,70;11671,448;  213,163;14295,585;81,36587
 977,25;11650,294;  208,779;14246,431;81,50591
 977,80;11526,833;  199,933;14070,969;81,65864
 978,35;11381,833;  215,163;13921,200;81,47264
 978,89;11357,448;  196,010;13858,892;81,69168
 979,44;11335,140;  205,317;13801,046;81,86264
 979,99;11163,371;  193,625;13576,815;81,96660
 980,54;11133,756;  235,779;13537,431;81,92950
 981,09;11056,679;  218,779;13386,431;82,30701
 981,64;10994,602;  216,471;13246,123;82,72002
 982,19;10999,217;  248,240;13218,815;82,88744
 982,74;10871,525;  226,702;13068,892;82,88947
 983,29;10767,679;  195,240;12960,431;82,82241
 983,84;10681,987;  212,856;12819,046;83,04754
 984,39;10690,525;  247,471;12780,277;83,32575
 984,94;10551,833;  190,471;12605,277;83,45972
 985,49;10526,602;  229,010;12594,200;83,27888
 986,03;10483,140;  240,856;12523,431;83,38874
 986,58;10372,910;  246,240;12336,354;83,75992
 987,13;10249,371;  218,240;12182,662;83,84134
 987,68;10204,063;  230,163;12091,585;84,08689
 988,23;10181,602;  229,933;12044,508;84,23214
 988,78;10083,448;  214,317;11896,508;84,48014
 989,33; 9992,448;  228,471;11790,969;84,44522
 989,88; 9933,756;  235,394;11768,508;84,09144
 990,42; 9810,063;  219,625;11560,354;84,56633
 990,97; 9753,910;  216,856;11451,354;84,89079
 991,52; 9720,294;  239,779;11399,585;84,95233
 992,07; 9638,294;  244,394;11279,277;85,12913
 992,62; 9553,217;  230,163;11193,431;85,03901
 993,17; 9493,217;  230,471;11045,662;85,64571
 993,71; 9430,294;  222,471;10962,046;85,73731
 994,26; 9336,679;  199,471;10790,431;86,27365
 994,81; 9293,602;  232,779;10751,969;86,13613
 995,36; 9136,602;  218,702;10593,046;85,96110
 995,91; 9206,910;  223,317;10579,277;86,74804
 996,45; 9078,525;  228,548;10423,046;86,81131
 997,00; 8991,679;  199,471;10229,431;87,65945
 997,55; 8949,987;  216,702;10290,815;86,69035
 998,10; 8834,602;  247,317;10106,662;87,09793
 998,65; 8798,294;  218,779;10045,662;87,30658
 999,19; 8772,910;  237,317; 9846,277;88,82952
 999,74; 8652,448;  252,779; 9788,892;88,08273
1000,29; 8658,371;  227,933; 9701,815;88,98610
1000,84; 8439,756;  216,317; 9565,969;87,95449
1001,38; 8429,294;  220,702; 9439,508;89,04182
1001,93; 8341,833;  237,087; 9388,585;88,56196
1002,48; 8243,987;  203,087; 9251,662;88,86372
1003,03; 8251,756;  221,856; 9196,969;89,46851
1003,57; 8128,371;  231,087; 9100,738;89,03714
1004,12; 8079,602;  245,010; 8986,123;89,62923
1004,67; 7928,833;  214,779; 8895,277;88,86649
1005,22; 7809,063;  210,933; 8746,969;89,01240
1005,76; 7737,525;  205,548; 8598,431;89,74243
1006,31; 7710,525;  242,625; 8582,508;89,54442
1006,86; 7563,294;  211,010; 8482,738;88,88450
1007,40; 7473,063;  196,471; 8278,046;90,03928
1007,95; 7413,448;  215,163; 8231,277;89,79769
1008,50; 7238,294;  218,933; 8077,508;89,32105
1009,04; 7185,371;  225,625; 8005,123;89,46266
1009,59; 7082,140;  231,625; 7830,585;90,15070
1010,14; 7031,910;  211,471; 7737,277;90,62735
1010,68; 6910,140;  219,087; 7635,585;90,21851
1011,23; 6823,217;  200,548; 7480,662;90,96931
1011,78; 6769,525;  229,856; 7416,508;90,99744
1012,32; 6618,525;  217,240; 7308,738;90,26703
1012,87; 6616,217;  244,933; 7266,738;90,73570
1013,42; 6480,217;  209,240; 7137,046;90,51895
1013,96; 6536,987;  242,163; 7109,815;91,65903
1014,51; 6429,602;  195,779; 6996,431;91,66508
1015,06; 6440,910;  196,471; 7019,431;91,52096
1015,60; 6486,525;  260,702; 7074,738;91,36762
1016,15; 6454,371;  215,394; 7027,354;91,58858
1016,69; 6493,063;  210,702; 7032,892;92,08716
1017,24; 6449,602;  201,625; 7041,277;91,34934
1017,79; 6525,756;  236,625; 7133,046;91,19412
1018,33; 6521,679;  196,856; 7086,431;91,80280
1018,88; 6610,987;  217,856; 7119,123;92,63705
1019,42; 6572,602;  221,625; 7189,431;91,14744
1019,97; 6553,371;  212,010; 7144,431;91,47398
1020,51; 6672,679;  216,317; 7204,585;92,38859
1021,06; 6598,910;  211,240; 7194,277;91,47409
1021,61; 6564,217;  190,087; 7111,277;92,09587
1022,15; 6595,140;  171,856; 7116,969;92,48639
1022,70; 6589,371;  215,856; 7101,815;92,55813
1023,24; 6558,140;  204,548; 7089,123;92,28736
1023,79; 6496,063;  220,163; 7016,892;92,33707
1024,33; 6486,679;  218,087; 7014,508;92,23372
1024,88; 6397,910;  219,240; 6898,200;92,50946
1025,42; 6331,756;  201,779; 6767,585;93,36214
1025,97; 6277,525;  203,933; 6709,815;93,35539
1026,51; 6138,294;  173,087; 6576,123;93,16217
1027,06; 6120,525;  209,317; 6514,508;93,75145
1027,60; 6044,910;  207,702; 6401,508;94,24267
1028,15; 6011,217;  221,087; 6325,200;94,85621
1028,69; 5892,910;  174,317; 6191,277;95,04123
1029,24; 5819,063;  207,933; 6127,738;94,78572
1029,78; 5730,756;  205,779; 6030,892;94,84754
1030,33; 5645,833;  177,933; 5875,969;95,96113
1030,87; 5554,602;  206,471; 5843,354;94,87745
1031,42; 5494,679;  194,933; 5743,123;95,52207
1031,96; 5435,525;  212,317; 5674,431;95,62613
1032,51; 5327,679;  199,317; 5561,277;95,64342
1033,05; 5264,910;  208,163; 5559,431;94,49624
1033,60; 5137,294;  174,933; 5420,508;94,60091
1034,14; 5069,371;  199,933; 5322,815;95,05270
1034,69; 4991,217;  199,317; 5278,585;94,34235
1035,23; 4939,294;  204,702; 5203,662;94,71155
1035,77; 4886,448;  196,087; 5102,969;95,58740
1036,32; 4799,140;  180,779; 5061,277;94,62890
1036,86; 4766,371;  198,163; 5007,200;94,99216
1037,41; 4676,602;  204,625; 4916,046;94,91779
1037,95; 4613,294;  183,933; 4840,200;95,12687
1038,50; 4565,910;  196,240; 4790,200;95,11771
1039,04; 4541,371;  203,779; 4734,585;95,73556
1039,58; 4457,525;  192,010; 4634,892;96,00783
1040,13; 4391,679;  201,471; 4572,431;95,86471
1040,67; 4378,063;  223,394; 4554,431;95,92783
1041,21; 4312,294;  228,317; 4467,892;96,32987
1041,76; 4231,833;  176,471; 4386,431;96,32780
1042,30; 4212,602;  210,471; 4333,738;97,06212
1042,85; 4138,140;  207,856; 4276,046;96,61014
1043,39; 4073,140;  190,010; 4189,123;97,09979
1043,93; 4031,525;  217,394; 4146,431;97,07547
1044,48; 3999,679;  205,548; 4087,123;97,74720
1045,02; 3922,371;  202,856; 4031,046;97,16119
1045,56; 3915,602;  210,548; 3970,969;98,52763
1046,11; 3853,987;  210,394; 3918,277;98,26612
1046,65; 3810,756;  208,779; 3887,123;97,92387
1047,19; 3750,448;  198,779; 3772,354;99,38701
1047,74; 3687,679;  182,856; 3709,354;99,38537
1048,28; 3663,448;  210,779; 3699,123;98,97731
1048,82; 3647,063;  222,625; 3665,508;99,46428
1049,37; 3568,448;  205,240; 3596,738;99,16584
1049,91; 3531,679;  197,548; 3556,892;99,24945
1050,45; 3511,679;  228,317; 3497,738;100,42639
1050,99; 3456,910;  207,856; 3457,277;99,98870
1051,54; 3399,910;  196,933; 3406,969;99,78008
1052,08; 3349,140;  215,010; 3390,508;98,69730
1052,62; 3353,140;  221,548; 3324,277;100,93026
1053,16; 3239,217;  192,702; 3260,046;99,32095
1053,71; 3224,756;  215,856; 3214,123;100,35463
1054,25; 3194,371;  223,779; 3169,892;100,83089
1054,79; 3132,756;  211,933; 3115,354;100,59936
1055,33; 3053,448;  183,163; 3065,123;99,59489
1055,88; 3067,371;  227,317; 3055,123;100,43313
1056,42; 3009,063;  234,702; 3005,662;100,12277
1056,96; 2976,140;  221,240; 2946,508;101,08733
1057,50; 2913,756;  201,240; 2901,738;100,44500
1058,05; 2854,756;  212,625; 2862,354;99,71325
1058,59; 2849,756;  228,163; 2863,431;99,48108
1059,13; 2723,756;  196,163; 2778,892;97,86518
1059,67; 2747,217;  229,163; 2767,354;99,20666
1060,21; 2694,217;  218,240; 2707,815;99,45380
1060,76; 2680,294;  221,779; 2650,815;101,21360
1061,30; 2648,448;  232,010; 2631,815;100,69308
1061,84; 2588,217;  211,471; 2589,585;99,94250
1062,38; 2520,448;  205,317; 2537,738;99,25869
1062,92; 2582,910;  243,317; 2551,277;101,37059
1063,46; 2508,217;  229,933; 2483,585;101,09301
1064,01; 2444,679;  208,317; 2434,892;100,43953
1064,55; 2439,448;  217,163; 2405,431;101,55453
1065,09; 2406,217;  186,779; 2359,815;102,13535
1065,63; 2414,063;  232,471; 2386,508;101,27926
1066,17; 2347,371;  234,010; 2342,508;100,23066
1066,71; 2328,910;  230,087; 2316,969;100,57216
1067,25; 2283,756;  212,471; 2262,969;101,01373
1067,80; 2294,987;  233,163; 2246,123;102,42744
1068,34; 2273,833;  237,471; 2246,585;101,35622
1068,88; 2218,217;  213,087; 2162,431;102,86181
1069,42; 2237,140;  248,779; 2180,585;102,92761
1069,96; 2170,910;  218,625; 2115,738;102,90816
1070,50; 2179,294;  245,317; 2124,123;102,93650
1071,04; 2102,140;  212,394; 2064,354;102,04035
1071,58; 2097,525;  221,548; 2029,123;103,78418
1072,12; 2067,987;  212,625; 2019,892;102,66116
1072,66; 2052,525;  211,240; 1998,354;103,03121
1073,21; 2060,140;  230,163; 2000,738;103,35495
1073,75; 1997,679;  223,163; 1961,585;102,07627
1074,29; 1981,987;  230,087; 1930,277;103,04140
1074,83; 1979,679;  228,163; 1910,046;104,14016
1075,37; 1967,525;  226,856; 1907,508;103,57107
1075,91; 1932,525;  233,240; 1899,738;101,96739
1076,45; 1893,448;  229,317; 1849,662;102,70230
1076,99; 1872,756;  222,933; 1827,431;102,82487
1077,53; 1812,910;  207,625; 1766,200;102,99694
1078,07; 1829,294;  232,933; 1774,738;103,53843
1078,61; 1790,217;  223,087; 1751,123;102,55846
1079,15; 1783,063;  220,548; 1742,431;102,66990
1079,69; 1778,217;  234,933; 1710,200;104,61051
1080,23; 1763,371;  232,240; 1702,046;104,17232
1080,77; 1772,140;  252,240; 1702,354;104,81249
1081,31; 1665,679;  217,240; 1635,969;102,09410
1081,85; 1720,294;  233,240; 1652,508;104,77616
1082,39; 1675,063;  221,394; 1597,354;105,64767
1082,93; 1671,448;  216,010; 1611,892;104,26653
1083,47; 1619,833;  207,625; 1568,123;103,80079
1084,01; 1627,756;  236,625; 1576,046;103,86059
1084,55; 1607,140;  216,163; 1516,738;106,95092
1085,09; 1606,294;  227,317; 1543,277;104,78870
1085,63; 1568,602;  219,394; 1525,662;103,28726
1086,17; 1554,679;  213,394; 1487,892;105,24022
1086,71; 1519,063;  214,087; 1471,277;103,80106
1087,24; 1547,987;  237,625; 1468,662;106,44376
1087,78; 1513,448;  235,702; 1460,662;104,30925
1088,32; 1463,602;  221,548; 1420,662;103,58101
1088,86; 1497,063;  241,702; 1424,508;106,13421
1089,40; 1469,140;  226,779; 1386,431;107,13228
1089,94; 1445,679;  193,702; 1343,815;108,85682
1090,48; 1396,063;  233,779; 1347,969;104,31652
1091,02; 1407,063;  229,933; 1353,431;104,77372
1091,56; 1380,294;  238,702; 1347,277;102,97836
1092,10; 1338,063;  207,240; 1278,892;105,52149
1092,63; 1390,910;  235,317; 1306,662;107,86377
1093,17; 1360,987;  223,625; 1280,969;107,56776
1093,71; 1311,679;  211,548; 1279,815;102,98272
1094,25; 1348,602;  246,010; 1260,662;108,66705
1094,79; 1306,833;  223,163; 1235,123;107,08621
1095,33; 1296,910;  229,394; 1229,585;106,73122
1095,87; 1292,371;  223,471; 1204,508;108,95619
1096,40; 1241,063;  200,548; 1177,277;106,53063
1096,94; 1248,910;  220,087; 1190,508;106,01820
1097,48; 1244,217;  224,240; 1172,354;107,57963
1098,02; 1225,217;  222,087; 1139,277;109,36996
1098,56; 1177,063;  200,548; 1117,354;106,51279
1099,10; 1161,063;  202,933; 1101,892;106,58218
1099,63; 1171,833;  211,933; 1091,969;109,07502
1100,17; 1182,679;  228,471; 1098,431;109,68414
1100,71; 1182,910;  240,779; 1111,508;108,20025

