
Integration time [ms]: 115,000
Averaging Nr. [scans]: 13
Smoothing Nr. [pixels]: 0
Data measured with spectrometer [name]: 2009305U1
Wave   ;Sample   ;Dark     ;Reference;Reflectance
[nm]   ;[counts] ;[counts] ;[counts] ;[%]

 175,72;  201,041;  176,239;  216,377;61,79172
 176,32;  229,198;  211,934;  220,629;198,53814
 176,92;  259,863;  225,163;  254,806;117,06053
 177,52;  255,170;  252,086;  276,497;12,63463
 178,12;  232,006;  223,549;  229,646;138,70517
 178,72;  265,004;  243,857;  246,426;823,18090
 179,32;  242,642;  236,780;  245,502;67,20805
 179,92;  247,514;  232,933;  243,184;142,23491
 180,52;  242,693;  234,084;  251,849;48,45727
 181,12;  254,403;  235,010;  258,040;84,20840
 181,73;  266,150;  253,163;  272,610;66,77951
 182,33;  358,935;  298,008;  354,611;107,63935
 182,93;  267,792;  245,240;  267,679;100,50358
 183,53;  241,018;  227,319;  231,255;348,07891
 184,13;  240,028;  231,011;  230,121; 0,00000
 184,73;  282,386;  249,935;  276,206;123,52387
 185,33;  277,776;  222,716;  348,805;43,66780
 185,93;  277,005;  214,717;  380,479;37,57687
 186,53;  298,091;  241,332;  381,727;40,42805
 187,13;  320,989;  264,099;  406,630;39,91373
 187,73;  275,438;  220,102;  379,098;34,80343
 188,33;  284,667;  227,718;  376,187;38,35749
 188,93;  303,590;  231,182;  389,757;45,66168
 189,53;  305,349;  240,799;  389,798;43,32209
 190,13;  335,324;  271,649;  443,566;37,03864
 190,73;  288,093;  217,185;  377,425;44,25101
 191,34;  318,652;  254,183;  413,712;40,41219
 191,94;  278,969;  227,565;  367,514;36,73040
 192,54;  294,945;  237,868;  406,065;33,93474
 193,14;  312,928;  248,715;  393,108;44,47080
 193,74;  299,243;  249,561;  386,677;36,23329
 194,34;  293,190;  235,099;  379,479;40,23481
 194,94;  259,550;  206,792;  347,521;37,48882
 195,54;  243,413;  196,177;  321,772;37,61004
 196,14;  272,341;  218,484;  355,903;39,19178
 196,74;  263,228;  211,331;  351,478;37,03017
 197,34;  247,498;  187,252;  345,540;38,06093
 197,94;  265,632;  225,715;  362,779;29,12331
 198,54;  270,554;  217,484;  389,006;30,94067
 199,14;  266,353;  197,636;  381,096;37,45607
 199,74;  242,654;  198,097;  381,375;24,31094
 200,34;  248,299;  186,097;  382,635;31,64894
 200,94;  287,055;  223,637;  421,823;31,99915
 201,54;  266,703;  202,328;  428,459;28,46805
 202,14;  294,720;  211,635;  474,923;31,55669
 202,74;  281,769;  204,328;  476,128;28,49172
 203,34;  264,507;  195,558;  479,311;24,29893
 203,94;  232,071;  163,635;  500,548;20,31269
 204,54;  315,085;  228,869;  592,022;23,74098
 205,14;  278,951;  199,405;  597,661;19,97350
 205,74;  335,751;  218,481;  690,215;24,85936
 206,34;  306,017;  197,405;  690,439;22,02934
 206,94;  326,455;  203,328;  773,362;21,59997
 207,54;  320,824;  180,251;  804,961;22,50211
 208,14;  340,452;  195,097;  861,786;21,80250
 208,74;  348,604;  194,559;  953,337;20,30170
 209,34;  364,830;  193,636; 1030,265;20,46232
 209,94;  393,902;  202,328; 1148,580;20,24558
 210,54;  399,108;  198,866; 1237,375;19,28169
 211,14;  427,223;  209,174; 1365,714;18,85357
 211,73;  441,789;  201,175; 1462,293;19,07948
 212,33;  459,061;  218,791; 1597,159;17,43152
 212,93;  466,079;  196,636; 1668,394;18,30754
 213,53;  454,213;  181,790; 1767,846;17,17610
 214,13;  487,250;  176,403; 1856,152;18,50555
 214,73;  482,028;  178,481; 1880,384;17,83570
 215,33;  457,595;  156,405; 1915,118;17,12556
 215,93;  505,345;  188,327; 2037,402;17,14465
 216,53;  488,305;  142,559; 2075,324;17,88868
 217,13;  541,084;  210,866; 2307,296;15,75144
 217,73;  560,408;  181,250; 2505,729;16,31153
 218,33;  544,322;  162,403; 2685,388;15,13758
 218,93;  626,653;  172,632; 2992,680;16,09975
 219,53;  654,700;  174,942; 3296,897;15,36724
 220,13;  677,892;  151,557; 3577,759;15,36207
 220,73;  753,043;  167,405; 3938,368;15,53019
 221,32;  824,988;  178,251; 4361,644;15,45963
 221,92;  894,741;  192,249; 4765,641;15,36041
 222,52;  941,832;  172,558; 5220,516;15,23932
 223,12; 1037,504;  167,481; 5680,122;15,78234
 223,72; 1124,651;  185,019; 6134,170;15,79439
 224,32; 1201,974;  176,865; 6553,184;16,07681
 224,92; 1250,016;  175,404; 6818,083;16,17739
 225,52; 1331,910;  188,020; 7246,795;16,20522
 226,12; 1394,381;  182,327; 7519,659;16,51899
 226,72; 1445,656;  155,174; 7864,594;16,73903
 227,31; 1537,082;  151,251; 8241,262;17,13016
 227,91; 1671,849;  174,405; 8608,273;17,75513
 228,51; 1761,406;  177,790; 9061,833;17,82539
 229,11; 1851,078;  166,020; 9428,961;18,19139
 229,71; 1942,050;  168,175; 9795,860;18,42474
 230,31; 2059,208;  163,326;10145,637;18,99241
 230,91; 2172,034;  163,483;10541,858;19,35323
 231,51; 2291,373;  147,173;10894,551;19,95091
 232,10; 2416,203;  152,172;11267,104;20,36927
 232,70; 2522,652;  167,484;11505,325;20,77263
 233,30; 2690,442;  192,789;11856,258;21,41432
 233,90; 2771,253;  163,789;12037,003;21,96089
 234,50; 2871,894;  175,558;12250,655;22,32973
 235,10; 2989,862;  157,404;12347,468;23,23580
 235,70; 3160,299;  192,020;12458,020;24,19924
 236,29; 3236,138;  182,251;12486,574;24,81962
 236,89; 3308,297;  165,022;12367,077;25,76021
 237,49; 3404,363;  177,173;12382,301;26,44126
 238,09; 3458,171;  176,789;12207,055;27,27605
 238,69; 3522,872;  193,099;12025,720;28,14062
 239,29; 3483,743;  168,328;11806,275;28,48797
 239,89; 3499,794;  178,791;11452,563;29,45778
 240,48; 3467,905;  173,635;11111,338;30,11848
 241,08; 3442,804;  163,097;10762,261;30,94308
 241,68; 3459,636;  198,558;10511,432;31,62143
 242,28; 3376,018;  162,404;10160,933;32,14086
 242,88; 3348,166;  190,480; 9825,661;32,77246
 243,48; 3309,754;  192,250; 9558,253;33,28532
 244,07; 3290,737;  186,482; 9286,172;34,11385
 244,67; 3246,823;  188,943; 9134,113;34,18471
 245,27; 3202,789;  182,329; 8936,369;34,50362
 245,87; 3152,969;  184,096; 8853,728;34,24451
 246,47; 3131,978;  172,329; 8804,009;34,28822
 247,06; 3103,110;  169,097; 8795,610;34,01157
 247,66; 3091,878;  170,943; 8817,762;33,78046
 248,26; 3107,774;  208,559; 8992,584;33,00554
 248,86; 3149,273;  189,559; 9141,797;33,06116
 249,46; 3118,072;  150,789; 9313,349;32,38487
 250,05; 3159,764;  191,405; 9693,550;31,23884
 250,65; 3233,284;  158,636;10006,744;31,22070
 251,25; 3302,759;  179,713;10412,907;30,51878
 251,85; 3385,895;  182,329;11056,103;29,46140
 252,44; 3439,799;  147,251;11624,928;28,68654
 253,04; 3569,581;  180,559;12334,676;27,88374
 253,64; 3594,839;  144,175;12999,837;26,84159
 254,24; 3752,386;  186,559;13928,194;25,94908
 254,84; 3842,841;  175,712;14774,119;25,12007
 255,43; 3959,727;  178,713;15718,690;24,33088
 256,03; 4080,511;  163,329;16666,213;23,73635
 256,63; 4133,647;  176,868;17718,668;22,55629
 257,23; 4188,420;  165,098;18500,507;21,94291
 257,82; 4253,409;  177,022;19474,686;21,12373
 258,42; 4256,667;  132,484;20270,264;20,47983
 259,02; 4305,801;  174,636;21174,808;19,67205
 259,62; 4288,833;  159,792;21804,596;19,07636
 260,21; 4229,202;  177,328;22295,978;18,31881
 260,81; 4153,548;  170,481;22823,178;17,58319
 261,41; 4094,016;  166,176;23209,931;17,04514
 262,01; 4098,344;  195,023;23642,910;16,64679
 262,60; 3978,651;  161,483;23968,584;16,03374
 263,20; 3865,317;  164,944;24178,655;15,40942
 263,80; 3821,333;  182,562;24384,042;15,03533
 264,40; 3664,387;  145,484;24473,227;14,46457
 264,99; 3612,353;  179,331;24635,359;14,03753
 265,59; 3520,853;  164,255;24795,929;13,62716
 266,19; 3469,788;  164,638;24886,859;13,36914
 266,78; 3417,974;  198,716;25019,817;12,96985
 267,38; 3358,534;  172,332;25091,828;12,78598
 267,98; 3313,884;  158,331;25004,990;12,70011
 268,58; 3249,653;  177,562;25077,419;12,33778
 269,17; 3224,543;  165,332;25112,785;12,26262
 269,77; 3204,665;  182,945;24923,644;12,21356
 270,37; 3128,342;  150,485;24758,337;12,10125
 270,96; 3159,392;  204,253;24703,174;12,06232
 271,56; 3119,381;  167,868;24397,106;12,18162
 272,16; 3034,977;  169,176;24154,837;11,94797
 272,75; 3068,596;  166,561;24041,291;12,15526
 273,35; 3092,312;  173,099;24093,138;12,20405
 273,95; 3082,436;  175,176;23998,878;12,20322
 274,54; 3124,215;  155,251;24001,451;12,45047
 275,14; 3192,281;  180,253;24296,492;12,48963
 275,74; 3209,568;  144,022;24387,065;12,64505
 276,33; 3312,843;  190,099;24762,723;12,70822
 276,93; 3398,819;  175,943;24987,120;12,98961
 277,53; 3520,901;  174,867;25496,469;13,21415
 278,12; 3642,565;  157,252;26003,751;13,48466
 278,72; 3828,519;  194,867;26636,274;13,74228
 279,32; 3946,521;  165,713;27171,463;14,00001
 279,91; 4110,302;  163,021;27905,256;14,22842
 280,51; 4268,793;  173,251;28428,361;14,49487
 281,11; 4487,959;  174,098;29118,155;14,90413
 281,70; 4655,832;  153,098;29568,424;15,30744
 282,30; 4826,304;  159,098;30230,644;15,52034
 282,90; 5026,174;  169,945;30561,185;15,97904
 283,49; 5220,613;  186,099;31199,186;16,23351
 284,09; 5478,964;  190,714;31628,304;16,82143
 284,69; 5641,244;  189,175;32037,341;17,11894
 285,28; 5869,509;  191,867;32500,794;17,57298
 285,88; 6100,309;  199,022;32695,762;18,15963
 286,47; 6262,335;  175,329;32693,137;18,71899
 287,07; 6524,528;  203,944;32809,646;19,38490
 287,67; 6746,062;  190,789;32982,022;19,99093
 288,26; 6925,653;  169,559;32869,266;20,66102
 288,86; 7281,863;  172,175;32963,147;21,68185
 289,46; 7567,058;  170,636;33023,814;22,51357
 290,05; 7838,073;  162,251;33047,628;23,34114
 290,65; 8180,361;  175,252;33285,329;24,17726
 291,24; 8551,851;  189,559;33411,430;25,17104
 291,84; 8921,800;  182,406;33467,438;26,25623
 292,44; 9282,574;  176,327;33666,984;27,19041
 293,03; 9699,910;  230,636;33835,995;28,17787
 293,63;10012,985;  170,022;33925,161;29,15990
 294,22;10417,900;  194,175;34192,898;30,07091
 294,82;10694,895;  181,561;34111,735;30,98520
 295,41;10871,601;  153,944;33869,501;31,78846
 296,01;11177,028;  217,176;33826,800;32,60927
 296,61;11339,609;  179,559;33699,024;33,29424
 297,20;11441,410;  182,638;33244,688;34,05346
 297,80;11646,274;  187,635;33052,862;34,86554
 298,39;11688,818;  163,868;32744,796;35,37330
 298,99;11794,427;  175,638;32519,890;35,92227
 299,58;11868,214;  186,558;32371,911;36,29494
 300,18;12013,462;  207,097;32078,314;37,04397
 300,78;11980,685;  169,405;31723,868;37,43141
 301,37;12065,795;  186,639;31725,967;37,66458
 301,97;12216,715;  182,021;31752,405;38,12020
 302,56;12283,834;  166,099;31633,889;38,50838
 303,16;12351,982;  155,099;31597,477;38,79122
 303,75;12437,977;  174,405;31569,005;39,06268
 304,35;12683,109;  163,635;31819,100;39,54917
 304,94;12770,607;  180,098;31793,374;39,82665
 305,54;12840,219;  203,636;31684,952;40,13995
 306,13;12828,959;  149,173;31607,401;40,30674
 306,73;12845,752;  165,404;31473,524;40,50179
 307,33;12946,733;  185,020;31361,055;40,93437
 307,92;12964,407;  169,944;31395,096;40,97486
 308,52;13245,132;  165,099;31890,100;41,22942
 309,11;13525,397;  172,638;32427,632;41,39749
 309,71;13628,900;  155,177;32681,960;41,42347
 310,30;13763,787;  157,098;32836,795;41,63652
 310,90;13968,864;  179,329;33162,180;41,80820
 311,49;14027,286;  182,559;33344,317;41,74907
 312,09;14201,112;  142,636;33547,722;42,08484
 312,68;14404,674;  201,790;33927,769;42,11259
 313,28;14452,868;  152,559;33956,788;42,30331
 313,87;14495,570;  150,482;34176,314;42,15940
 314,47;14684,120;  167,253;34398,507;42,40822
 315,06;14636,648;  148,405;34567,733;42,09333
 315,66;14812,343;  158,943;34854,645;42,23405
 316,25;14715,021;  140,406;34689,418;42,18533
 316,85;14736,277;  139,559;34777,975;42,14026
 317,44;14763,496;  158,561;34947,829;41,98115
 318,04;14777,594;  148,945;34913,363;42,07937
 318,63;14669,231;  148,712;34929,575;41,74859
 319,22;14722,812;  174,253;35197,076;41,54022
 319,82;14660,404;  176,483;35096,106;41,47788
 320,41;14618,739;  161,945;35099,992;41,37837
 321,01;14554,003;  171,020;35141,349;41,12910
 321,60;14536,758;  166,714;35251,383;40,95819
 322,20;14461,991;  161,405;35121,065;40,90596
 322,79;14376,358;  191,790;35166,860;40,55622
 323,39;14360,443;  168,250;35279,984;40,42009
 323,98;14249,450;  153,251;35282,413;40,12677
 324,58;14095,918;  157,176;35187,689;39,79029
 325,17;14001,392;  167,637;35145,514;39,55001
 325,76;13847,464;  182,867;34943,934;39,31006
 326,36;13656,412;  147,174;34505,813;39,31831
 326,95;13497,762;  174,406;34216,453;39,13794
 327,55;13271,991;  161,560;33888,496;38,87229
 328,14;13017,887;  160,558;33455,672;38,61626
 328,74;12884,379;  193,637;33098,303;38,56821
 329,33;12624,229;  182,328;32807,741;38,13561
 329,92;12321,443;  159,869;32210,755;37,94458
 330,52;12003,678;  177,097;31505,485;37,75037
 331,11;11799,006;  174,790;31212,280;37,45218
 331,71;11459,840;  171,560;30432,102;37,30363
 332,30;11200,300;  186,406;30077,143;36,84718
 332,89;11033,575;  194,867;29511,339;36,97139
 333,49;10622,549;  191,483;28964,734;36,25265
 334,08;10402,973;  176,252;28472,291;36,14188
 334,68;10178,795;  178,944;28023,751;35,91281
 335,27; 9922,253;  189,097;27739,620;35,32839
 335,86; 9764,391;  198,252;27392,433;35,17715
 336,46; 9597,838;  178,404;27143,820;34,93154
 337,05; 9399,817;  173,175;26956,025;34,44981
 337,65; 9266,428;  154,252;26747,263;34,26531
 338,24; 9182,474;  213,636;26704,877;33,85586
 338,83; 9119,349;  192,482;26645,103;33,74662
 339,43; 8994,375;  167,791;26542,617;33,46594
 340,02; 8881,940;  173,945;26436,655;33,15726
 340,61; 8838,015;  160,482;26511,836;32,93012
 341,21; 8737,533;  202,099;26614,149;32,31644
 341,80; 8669,092;  167,483;26464,883;32,32871
 342,40; 8590,014;  184,866;26529,250;31,90490
 342,99; 8519,036;  176,482;26685,878;31,47018
 343,58; 8495,229;  171,251;26786,510;31,27521
 344,18; 8490,227;  187,789;26883,705;31,10003
 344,77; 8451,118;  173,791;27228,350;30,59494
 345,36; 8497,147;  152,944;27547,530;30,45931
 345,96; 8565,111;  186,790;27898,073;30,23433
 346,55; 8533,335;  159,250;28039,876;30,03550
 347,14; 8532,221;  148,712;28352,017;29,72527
 347,74; 8534,370;  134,941;28802,237;29,29969
 348,33; 8664,155;  176,788;29445,868;28,99772
 348,92; 8780,001;  182,864;30050,130;28,78448
 349,52; 8786,648;  153,249;30534,317;28,41704
 350,11; 8808,121;  164,330;30849,386;28,16938
 350,70; 8794,732;  157,636;30870,762;28,12184
 351,29; 8584,401;  151,793;30630,485;27,66722
 351,89; 8570,380;  176,946;30644,581;27,54869
 352,48; 8474,833;  148,098;30744,072;27,21513
 353,07; 8356,205;  171,481;30661,308;26,84411
 353,67; 8272,093;  187,941;30661,298;26,52859
 354,26; 8132,008;  177,943;30285,990;26,41840
 354,85; 8003,406;  180,097;30287,588;25,98459
 355,45; 7861,675;  150,483;30048,817;25,79138
 356,04; 7743,433;  171,712;29992,195;25,39101
 356,63; 7639,962;  194,637;29722,345;25,21471
 357,22; 7466,443;  182,254;29642,724;24,72530
 357,82; 7403,328;  179,254;29568,586;24,58060
 358,41; 7279,093;  183,944;29398,069;24,28671
 359,00; 7154,623;  171,253;29186,052;24,06831
 359,60; 7062,841;  179,559;29089,288;23,80957
 360,19; 6949,501;  167,250;28900,900;23,60386
 360,78; 6855,009;  182,868;28752,546;23,35392
 361,37; 6733,694;  175,637;28566,902;23,09886
 361,97; 6671,652;  177,175;28530,155;22,90580
 362,56; 6477,110;  174,560;28176,133;22,50784
 363,15; 6453,543;  188,252;27971,246;22,55081
 363,74; 6265,746;  173,022;27662,683;22,16369
 364,34; 6125,228;  206,022;27333,877;21,81966
 364,93; 5955,616;  157,484;26881,684;21,69619
 365,52; 5836,006;  145,329;26525,510;21,57179
 366,11; 5724,564;  169,791;26163,872;21,36938
 366,71; 5582,120;  156,791;25776,076;21,17674
 367,30; 5485,188;  165,790;25473,044;21,01926
 367,89; 5417,549;  201,328;25232,258;20,83910
 368,48; 5297,887;  179,561;24906,241;20,69961
 369,07; 5143,501;  181,713;24451,608;20,44421
 369,67; 5032,741;  185,253;24105,611;20,26511
 370,26; 4966,411;  173,867;23873,858;20,22171
 370,85; 4843,142;  174,252;23550,537;19,97276
 371,44; 4781,085;  171,867;23370,237;19,86871
 372,03; 4664,091;  156,637;23193,697;19,56610
 372,63; 4619,465;  153,483;22877,551;19,65309
 373,22; 4516,462;  163,713;22601,975;19,39878
 373,81; 4442,740;  151,098;22258,948;19,41230
 374,40; 4342,443;  157,866;21988,723;19,16818
 374,99; 4265,686;  160,945;21684,224;19,07117
 375,59; 4198,369;  159,635;21418,913;18,99751
 376,18; 4153,613;  193,021;21403,678;18,67265
 376,77; 4135,603;  175,021;21085,997;18,94021
 377,36; 4095,013;  193,098;21072,078;18,68824
 377,95; 4023,568;  179,791;20770,557;18,66748
 378,55; 3953,541;  157,790;20539,965;18,62290
 379,14; 3948,226;  164,637;20564,566;18,54707
 379,73; 3882,016;  170,483;20364,577;18,37930
 380,32; 3928,361;  182,867;20445,975;18,48430
 380,91; 3856,003;  165,330;20277,027;18,35088
 381,50; 3901,180;  181,637;20290,182;18,49732
 382,10; 3850,746;  159,406;20190,898;18,42769
 382,69; 3825,943;  155,867;20114,568;18,38835
 383,28; 3827,035;  188,560;20055,244;18,31445
 383,87; 3794,615;  162,483;19910,528;18,39236
 384,46; 3791,871;  171,330;19836,502;18,41093
 385,05; 3837,316;  193,637;19833,439;18,55252
 385,64; 3806,410;  161,022;19814,872;18,54796
 386,24; 3801,653;  152,869;19756,098;18,61318
 386,83; 3821,397;  186,100;19744,215;18,58715
 387,42; 3841,012;  190,791;19875,815;18,54314
 388,01; 3889,549;  179,178;20018,150;18,70244
 388,60; 3959,204;  176,792;20248,923;18,84410
 389,19; 3986,128;  154,948;20518,679;18,81374
 389,78; 4028,222;  164,025;20750,651;18,77043
 390,37; 4191,163;  214,023;21186,993;18,96317
 390,96; 4200,761;  178,869;21368,206;18,98074
 391,56; 4223,925;  167,794;21459,411;19,05037
 392,15; 4307,406;  162,409;21772,680;19,18068
 392,74; 4346,455;  146,796;21948,826;19,26270
 393,33; 4438,556;  160,256;22265,505;19,35423
 393,92; 4603,339;  189,258;22553,240;19,73746
 394,51; 4631,434;  156,641;22829,766;19,73611
 395,10; 4713,201;  185,414;23114,549;19,74687
 395,69; 4764,086;  170,491;23248,411;19,90472
 396,28; 4837,619;  189,338;23335,047;20,08269
 396,87; 4900,323;  194,724;23425,208;20,25614
 397,46; 4920,872;  190,495;23585,477;20,21962
 398,06; 5031,152;  193,035;23669,499;20,60837
 398,65; 5045,448;  179,116;23892,754;20,52124
 399,24; 5127,249;  198,885;23988,985;20,71603
 399,83; 5164,147;  178,276;23940,630;20,98223
 400,42; 5293,744;  206,819;24092,641;21,29684
 401,01; 5304,966;  178,902;24273,148;21,27506
 401,60; 5375,894;  192,679;24311,313;21,49050
 402,19; 5429,524;  205,069;24262,482;21,71661
 402,78; 5421,003;  220,079;24386,919;21,52091
 403,37; 5451,154;  191,857;24237,918;21,87176
 403,96; 5474,591;  198,098;24082,316;22,09196
 404,55; 5492,031;  217,956;23963,646;22,21066
 405,14; 5498,092;  193,043;23849,033;22,42582
 405,73; 5507,493;  217,671;23709,315;22,51789
 406,32; 5543,623;  206,526;23650,839;22,76500
 406,91; 5541,907;  210,305;23438,841;22,95281
 407,50; 5588,623;  205,002;23254,443;23,35684
 408,09; 5538,938;  180,775;23033,321;23,44668
 408,68; 5575,646;  195,469;22862,291;23,73591
 409,27; 5608,285;  181,543;22610,369;24,19539
 409,86; 5624,517;  200,459;22544,737;24,27493
 410,45; 5691,679;  221,452;22443,953;24,61571
 411,04; 5726,151;  237,138;22448,357;24,71280
 411,63; 5721,617;  220,591;22151,746;25,08315
 412,22; 5749,867;  214,430;21951,430;25,46551
 412,81; 5713,864;  231,119;21704,362;25,53292
 413,40; 5733,000;  243,270;21441,770;25,89678
 413,99; 5706,254;  264,040;21081,094;26,14305
 414,58; 5586,915;  218,885;20678,324;26,23742
 415,17; 5574,088;  213,504;20453,641;26,48492
 415,76; 5588,549;  211,661;20265,794;26,81187
 416,35; 5558,880;  202,582;20074,317;26,95435
 416,94; 5635,892;  227,660;20097,464;27,21835
 417,53; 5755,745;  216,196;20200,077;27,72009
 418,12; 5841,637;  202,580;20275,076;28,09345
 418,71; 6050,399;  227,423;20627,785;28,54349
 419,30; 6050,322;  222,272;20746,353;28,39615
 419,89; 6210,234;  215,887;20936,746;28,92905
 420,48; 6369,718;  237,500;21154,960;29,31626
 421,07; 6452,116;  223,807;21303,048;29,54712
 421,66; 6521,983;  202,883;21350,228;29,88129
 422,25; 6622,249;  215,649;21401,329;30,24024
 422,84; 6666,983;  237,110;21426,490;30,34479
 423,43; 6605,008;  219,265;21156,431;30,49956
 424,02; 6587,175;  235,495;20902,596;30,73329
 424,60; 6534,655;  202,184;20473,524;31,23854
 425,19; 6486,505;  225,647;20175,271;31,38334
 425,78; 6543,151;  240,186;20022,685;31,86132
 426,37; 6555,357;  231,338;19876,821;32,19070
 426,96; 6588,273;  230,723;19783,638;32,51459
 427,55; 6595,170;  219,644;19652,922;32,80726
 428,14; 6589,665;  199,181;19444,821;33,20484
 428,73; 6595,091;  223,337;19263,012;33,46567
 429,32; 6651,617;  235,569;19202,049;33,82835
 429,91; 6731,568;  249,875;19173,334;34,25215
 430,50; 6726,065;  233,797;19094,344;34,42248
 431,08; 6746,143;  250,181;18933,791;34,76824
 431,67; 6768,293;  286,872;18905,631;34,81124
 432,26; 6754,593;  296,102;18745,246;35,00700
 432,85; 6661,164;  317,487;18395,740;35,09010
 433,44; 6651,350;  312,255;18133,559;35,57032
 434,03; 6612,304;  342,022;17695,758;36,13217
 434,62; 6471,921;  310,101;17215,162;36,44956
 435,21; 6417,354;  324,333;16992,491;36,55486
 435,79; 6445,010;  309,330;16909,247;36,96211
 436,38; 6453,533;  310,098;16758,093;37,35066
 436,97; 6445,336;  303,867;16607,577;37,66915
 437,56; 6415,023;  308,941;16465,781;37,79255
 438,15; 6421,233;  281,634;16353,092;38,20188
 438,74; 6476,166;  298,403;16405,496;38,35430
 439,33; 6556,543;  270,711;16356,282;39,07746
 439,91; 6625,958;  236,479;16410,297;39,50508
 440,50; 6701,120;  281,940;16444,821;39,71557
 441,09; 6787,403;  277,400;16525,340;40,06664
 441,68; 6844,613;  268,783;16548,389;40,39305
 442,27; 6907,525;  251,784;16509,568;40,93880
 442,86; 6903,814;  225,473;16522,899;40,97789
 443,44; 7033,904;  238,474;16566,157;41,61908
 444,03; 7115,836;  276,165;16663,942;41,73641
 444,62; 7107,972;  243,934;16586,123;42,00195
 445,21; 7110,919;  252,935;16352,093;42,59840
 445,80; 7159,677;  274,241;16328,009;42,88984
 446,39; 7078,313;  267,549;16060,943;43,12413
 446,97; 6998,378;  231,777;15859,550;43,29856
 447,56; 6960,689;  244,006;15688,833;43,48824
 448,15; 6937,598;  247,008;15457,759;43,98593
 448,74; 6900,415;  263,008;15203,685;44,42508
 449,33; 6855,875;  248,776;15094,481;44,50512
 449,91; 6854,640;  254,928;14884,349;45,11260
 450,50; 6781,615;  236,390;14632,699;45,46460
 451,09; 6824,869;  256,313;14522,392;46,04318
 451,68; 6832,629;  277,004;14475,127;46,17248
 452,26; 6838,914;  263,157;14303,420;46,83500
 452,85; 6810,590;  255,004;14205,988;46,99014
 453,44; 6884,191;  259,540;14222,480;47,44453
 454,03; 6867,941;  235,926;14222,181;47,41809
 454,61; 6886,091;  233,540;14135,743;47,85250
 455,20; 7024,873;  268,000;14327,598;48,05879
 455,79; 7105,766;  265,310;14302,277;48,73172
 456,38; 7114,646;  270,768;14375,037;48,52345
 456,97; 7250,687;  247,461;14459,903;49,27532
 457,55; 7279,569;  258,460;14465,683;49,41929
 458,14; 7308,400;  278,461;14494,376;49,45119
 458,73; 7321,700;  266,075;14408,714;49,88903
 459,31; 7416,032;  297,766;14431,468;50,36377
 459,90; 7442,498;  292,844;14493,663;50,34677
 460,49; 7569,476;  307,613;14617,511;50,74713
 461,08; 7587,526;  260,227;14620,564;51,02456
 461,66; 7686,625;  269,074;14741,348;51,25353
 462,25; 7748,690;  274,765;14849,924;51,27852
 462,84; 7816,657;  305,611;14869,211;51,57410
 463,43; 7821,733;  225,532;14858,762;51,91062
 464,01; 7885,944;  279,839;14872,707;52,12207
 464,60; 7923,524;  298,840;14842,160;52,42739
 465,19; 7797,434;  251,377;14583,580;52,65106
 465,77; 7878,950;  260,222;14606,796;53,10486
 466,36; 7854,904;  279,763;14574,813;52,99136
 466,95; 7732,550;  265,378;14237,227;53,44441
 467,53; 7626,499;  272,683;13933,693;53,83069
 468,12; 7526,693;  290,914;13652,744;54,15261
 468,71; 7453,601;  276,146;13430,328;54,56405
 469,29; 7316,605;  252,144;13139,336;54,81769
 469,88; 7214,983;  266,682;12926,338;54,88538
 470,47; 7303,169;  320,834;12918,849;55,42409
 471,06; 7244,824;  276,142;12893,327;55,23167
 471,64; 7383,036;  281,373;12979,937;55,92493
 472,23; 7366,846;  258,832;13007,110;55,75666
 472,81; 7468,972;  250,218;13114,976;56,11262
 473,40; 7562,140;  267,986;13240,975;56,22570
 473,99; 7749,637;  325,986;13445,692;56,58398
 474,57; 7814,024;  254,986;13513,881;57,01107
 475,16; 7950,401;  283,448;13680,790;57,22742
 475,75; 8080,368;  295,985;13818,814;57,56475
 476,33; 8140,716;  299,676;13907,279;57,62249
 476,92; 8202,773;  296,909;13974,870;57,80002
 477,51; 8252,067;  286,599;14099,874;57,66531
 478,09; 8355,906;  291,061;14109,999;58,36082
 478,68; 8367,166;  288,830;14023,796;58,81585
 479,27; 8445,159;  315,215;14085,166;59,04120
 479,85; 8445,452;  281,368;13996,598;59,52568
 480,44; 8526,053;  273,522;14109,383;59,64595
 481,02; 8997,322;  282,521;15040,352;59,05204
 481,61;10352,481;  309,060;16960,272;60,31646
 482,20;11211,256;  303,136;18418,989;60,21312
 482,78;11910,833;  327,291;19377,022;60,80685
 483,37;12359,688;  316,827;20002,822;61,17476
 483,95;12589,118;  356,750;20363,482;61,14126
 484,54;12740,812;  359,752;20595,702;61,18349
 485,13;12689,900;  329,671;20633,139;60,87743
 485,71;12632,179;  302,980;20348,881;61,50484
 486,30;12539,018;  341,672;20188,775;61,45656
 486,88;12358,536;  363,133;19891,302;61,42615
 487,47;11958,668;  358,133;19249,214;61,40747
 488,05;11484,363;  344,363;18461,434;61,48897
 488,64;10758,823;  339,054;17309,615;61,39908
 489,23; 9809,503;  352,516;15703,760;61,60404
 489,81; 8218,594;  354,516;13150,773;61,45608
 490,40; 7646,806;  311,362;12205,489;61,67282
 490,98; 7529,189;  294,285;11953,332;62,05399
 491,57; 7411,735;  322,670;11732,563;62,13087
 492,15; 7435,142;  314,284;11727,361;62,39210
 492,74; 7359,165;  303,671;11646,115;62,20436
 493,32; 7335,328;  323,746;11543,241;62,49463
 493,91; 7249,026;  305,899;11490,144;62,07953
 494,50; 7261,432;  311,051;11441,741;62,44340
 495,08; 7233,879;  304,359;11304,957;62,99221
 495,67; 7257,049;  308,438;11340,728;62,98430
 496,25; 7151,757;  267,591;11205,805;62,93684
 496,84; 7140,359;  273,130;11166,841;63,03847
 497,42; 7176,527;  262,283;11075,222;63,94417
 498,01; 7085,855;  305,745;11128,401;62,64737
 498,59; 7094,581;  249,744;11004,100;63,64711
 499,18; 7055,881;  256,822;11018,053;63,18105
 499,76; 7090,845;  280,821;10932,366;63,93461
 500,35; 6886,099;  273,281;10723,427;63,27967
 500,93; 6915,180;  269,283;10654,821;63,99185
 501,52; 6886,032;  269,129;10614,694;63,95884
 502,10; 6887,751;  269,281;10616,285;63,96509
 502,69; 6787,430;  257,664;10453,796;64,04159
 503,27; 6741,933;  241,974;10276,758;64,77428
 503,86; 6680,752;  252,357;10235,548;64,39218
 504,44; 6580,130;  248,126;10108,781;64,21484
 505,03; 6490,993;  236,126; 9868,908;64,93314
 505,61; 6417,581;  234,587; 9763,068;64,88961
 506,19; 6341,605;  258,741; 9651,530;64,76099
 506,78; 6229,208;  232,201; 9479,953;64,84827
 507,36; 6107,789;  251,357; 9286,946;64,81517
 507,95; 6032,628;  249,200; 9146,084;65,00509
 508,53; 5958,334;  237,432; 9044,650;64,95697
 509,12; 5873,048;  251,893; 8852,802;65,35536
 509,70; 5787,849;  266,893; 8712,712;65,36911
 510,29; 5696,291;  269,046; 8581,502;65,29051
 510,87; 5524,529;  246,278; 8374,779;64,93511
 511,46; 5446,627;  238,893; 8224,590;65,21327
 512,04; 5303,191;  251,739; 8077,734;64,54710
 512,62; 5196,697;  261,201; 7960,177;64,10588
 513,21; 5081,638;  226,892; 7788,365;64,20370
 513,79; 4991,267;  247,505; 7638,547;64,18259
 514,38; 4908,070;  220,121; 7479,199;64,58051
 514,96; 4836,796;  269,198; 7369,881;64,32618
 515,54; 4740,119;  235,275; 7277,389;63,97006
 516,13; 4663,446;  245,890; 7174,012;63,76268
 516,71; 4577,201;  241,043; 7042,984;63,74884
 517,30; 4512,581;  229,503; 6925,173;63,96787
 517,88; 4462,038;  267,965; 6837,488;63,84136
 518,46; 4366,784;  242,042; 6709,210;63,77972
 519,05; 4351,127;  243,502; 6677,957;63,83795
 519,63; 4314,189;  246,657; 6593,944;64,08301
 520,22; 4277,316;  255,040; 6529,659;64,10391
 520,80; 4187,189;  248,117; 6459,927;63,41263
 521,38; 4203,058;  268,887; 6475,789;63,38381
 521,97; 4154,454;  242,808; 6411,135;63,41503
 522,55; 4144,709;  246,424; 6397,907;63,37148
 523,13; 4140,547;  245,115; 6349,413;63,81458
 523,72; 4099,780;  250,042; 6333,987;63,27701
 524,30; 4189,305;  267,038; 6475,268;63,17852
 524,89; 4206,403;  235,424; 6475,171;63,64007
 525,47; 4295,102;  260,884; 6593,415;63,70625
 526,05; 4334,831;  231,807; 6667,627;63,75294
 526,64; 4398,388;  261,729; 6744,633;63,80874
 527,22; 4518,861;  258,730; 6923,624;63,91895
 527,80; 4582,178;  288,268; 7049,642;63,50646
 528,39; 4613,358;  247,883; 7124,865;63,47952
 528,97; 4764,330;  246,498; 7290,410;64,13812
 529,55; 4900,428;  260,269; 7517,821;63,93559
 530,14; 4986,596;  273,113; 7733,311;63,18175
 530,72; 5046,632;  251,575; 7806,535;63,46899
 531,30; 5135,315;  240,036; 7949,347;63,49826
 531,89; 5225,433;  243,190; 8060,554;63,73304
 532,47; 5336,619;  285,882; 8193,540;63,87146
 533,05; 5330,723;  279,729; 8276,056;63,16642
 533,63; 5391,093;  283,036; 8348,519;63,33232
 534,22; 5355,607;  247,112; 8375,286;62,84923
 534,80; 5398,604;  282,496; 8404,433;62,99123
 535,38; 5462,855;  322,728; 8535,996;62,58321
 535,97; 5392,032;  267,574; 8477,382;62,41873
 536,55; 5438,493;  320,111; 8568,904;62,05007
 537,13; 5397,181;  322,421; 8487,202;62,15426
 537,71; 5425,078;  358,113; 8523,551;62,05381
 538,30; 5478,195;  391,112; 8644,246;61,63820
 538,88; 5476,355;  413,957; 8682,565;61,22431
 539,46; 5603,090;  468,419; 8886,589;60,99509
 540,05; 5684,973;  494,572; 9053,679;60,64185
 540,63; 5762,558;  539,957; 9234,648;60,06655
 541,21; 5868,299;  559,956; 9382,760;60,16616
 541,79; 5909,340;  613,880; 9523,505;59,43528
 542,38; 5998,486;  647,034; 9641,720;59,49571
 542,96; 6064,744;  650,879; 9843,390;58,89430
 543,54; 6208,521;  672,418;10010,159;59,28739
 544,12; 6328,797;  649,726;10193,280;59,50688
 544,70; 6339,493;  620,648;10278,150;59,21661
 545,29; 6457,035;  633,034;10494,357;59,05903
 545,87; 6473,571;  591,187;10505,428;59,33267
 546,45; 6440,789;  556,880;10536,496;58,95927
 547,03; 6503,456;  543,803;10577,875;59,39416
 547,62; 6553,775;  517,187;10757,852;58,94723
 548,20; 6625,890;  496,571;10926,865;58,76458
 548,78; 6673,048;  484,261;10996,873;58,87011
 549,36; 6769,556;  440,954;11236,228;58,62382
 549,94; 6888,135;  398,725;11380,386;59,09315
 550,53; 7001,731;  407,108;11622,701;58,79870
 551,11; 7069,244;  379,876;11786,112;58,64658
 551,69; 7248,646;  379,185;12101,132;58,60342
 552,27; 7350,548;  341,493;12354,289;58,34657
 552,85; 7579,558;  359,261;12791,756;58,07601
 553,44; 7749,020;  341,185;13065,187;58,21938
 554,02; 7989,845;  358,108;13463,714;58,23262
 554,60; 8126,406;  302,184;13792,329;57,99954
 555,18; 8405,136;  330,108;14250,743;58,00762
 555,76; 8598,017;  313,031;14592,996;58,01825
 556,34; 8836,516;  316,491;15034,886;57,88692
 556,93; 9028,389;  307,108;15418,478;57,71337
 557,51; 9193,544;  296,645;15808,650;57,35493
 558,09; 9373,413;  319,185;16208,481;56,98319
 558,67; 9648,551;  311,413;16605,017;57,30554
 559,25; 9768,484;  326,029;16858,468;57,11471
 559,83; 9922,259;  304,874;17220,141;56,85624
 560,41;10115,884;  295,184;17658,299;56,56070
 561,00;10284,355;  305,644;17964,349;56,50874
 561,58;10358,170;  305,184;18198,794;56,18199
 562,16;10486,912;  291,107;18535,033;55,88603
 562,74;10680,590;  274,415;18920,020;55,81034
 563,32;10874,804;  278,182;19425,170;55,34355
 563,90;11066,338;  298,721;19734,376;55,40136
 564,48;11260,867;  310,107;20128,558;55,25538
 565,06;11507,868;  290,644;20677,928;55,02069
 565,65;11860,706;  295,797;21411,651;54,76885
 566,23;12194,792;  353,644;22074,577;54,51491
 566,81;12519,875;  290,106;22813,189;54,29882
 567,39;12947,915;  312,413;23749,654;53,91207
 567,97;13308,699;  317,798;24445,760;53,84168
 568,55;13664,356;  312,721;25282,074;53,47209
 569,13;13998,052;  300,875;25985,573;53,32816
 569,71;14425,919;  298,800;26976,138;52,95550
 570,29;14877,070;  340,646;27965,534;52,62075
 570,87;15276,060;  332,800;28807,390;52,47928
 571,45;15494,487;  317,644;29504,075;51,99965
 572,03;15629,211;  271,182;29935,400;51,77291
 572,61;15966,191;  278,567;30658,437;51,63822
 573,20;16209,223;  313,876;31279,977;51,33144
 573,78;16500,206;  300,336;32070,451;50,99091
 574,36;16769,634;  303,490;32659,967;50,88979
 574,94;16832,584;  350,028;32969,530;50,52976
 575,52;16893,378;  322,257;33286,439;50,27008
 576,10;17085,267;  372,181;33829,419;49,95357
 576,68;17254,312;  356,028;34304,094;49,77687
 577,26;17571,404;  376,718;34970,970;49,70388
 577,84;17791,708;  374,259;35561,855;49,49883
 578,42;17875,060;  397,797;35907,543;49,21822
 579,00;17785,762;  367,336;36066,117;48,79278
 579,58;17882,057;  394,951;36358,705;48,62425
 580,16;17768,380;  386,258;36366,522;48,31016
 580,74;17834,780;  393,027;36608,613;48,16090
 581,32;17775,135;  385,489;36676,432;47,91732
 581,90;17677,985;  404,104;36700,500;47,59117
 582,48;17679,782;  394,796;36762,572;47,52830
 583,06;17610,795;  408,489;36882,136;47,16366
 583,64;17686,088;  407,412;37150,429;47,02574
 584,22;17546,377;  409,103;37069,976;46,74541
 584,80;17350,319;  424,950;36926,307;46,36915
 585,38;17041,127;  430,491;36498,816;46,05325
 585,96;17037,929;  400,028;36510,096;46,07552
 586,54;16915,584;  417,411;36434,899;45,80601
 587,12;16928,289;  384,873;36671,924;45,59041
 587,70;16954,174;  411,336;36772,495;45,49591
 588,28;16906,834;  398,335;36987,799;45,11818
 588,86;16926,868;  411,411;37134,744;44,97265
 589,44;16819,110;  381,487;37139,135;44,71892
 590,02;16860,173;  378,718;37355,737;44,57216
 590,59;16935,035;  354,488;37591,492;44,52707
 591,17;16918,044;  357,101;37811,448;44,21634
 591,75;16863,238;  359,025;37960,898;43,89200
 592,33;16896,538;  371,871;38254,145;43,62111
 592,91;16940,142;  326,101;38606,306;43,40113
 593,49;17012,183;  333,947;38912,389;43,23201
 594,07;17011,019;  341,716;39061,906;43,05067
 594,65;16943,575;  357,642;39133,911;42,77341
 595,23;17035,665;  347,718;39574,230;42,54252
 595,81;17027,934;  350,795;39762,091;42,31563
 596,39;16975,453;  349,871;39896,005;42,04098
 596,97;16988,799;  337,178;40114,666;41,86192
 597,55;16874,229;  327,026;39943,849;41,76812
 598,12;16804,453;  316,254;40022,096;41,52588
 598,70;16812,260;  316,870;40076,357;41,48793
 599,28;16680,928;  339,024;40361,354;40,83196
 599,86;16634,699;  330,793;40412,698;40,67648
 600,44;16615,808;  300,024;40495,453;40,59114
 601,02;16606,150;  350,099;40514,998;40,47328
 601,60;16494,941;  330,640;40527,074;40,21327
 602,18;16352,857;  303,946;40587,644;39,83972
 602,75;16337,842;  305,564;40724,692;39,66508
 603,33;16155,655;  325,947;40591,378;39,31339
 603,91;16076,326;  316,792;40690,319;39,03432
 604,49;16029,659;  325,639;40747,602;38,85022
 605,07;15925,091;  334,871;40763,081;38,56273
 605,65;15807,100;  344,485;40908,668;38,11889
 606,23;15745,572;  405,950;41020,458;37,76882
 606,80;15730,730;  452,256;41017,360;37,66408
 607,38;15597,509;  493,638;41115,470;37,18166
 607,96;15574,796;  546,795;41162,646;37,00034
 608,54;15449,680;  594,101;41212,721;36,57332
 609,12;15350,860;  616,641;41306,666;36,21089
 609,70;15334,790;  644,793;41349,678;36,08903
 610,27;15153,865;  652,641;41295,814;35,67936
 610,85;15113,383;  660,024;41419,558;35,46007
 611,43;14988,704;  677,178;41371,614;35,16826
 612,01;14754,970;  640,871;41203,148;34,79612
 612,59;14683,311;  630,947;41214,166;34,62604
 613,16;14585,643;  606,026;41170,539;34,46268
 613,74;14459,169;  579,024;40990,914;34,34669
 614,32;14325,436;  540,408;41042,971;34,03495
 614,90;14158,747;  490,178;40866,286;33,85311
 615,48;13908,939;  452,487;40559,746;33,55116
 616,05;13837,026;  410,180;40471,966;33,51534
 616,63;13746,189;  401,104;40363,494;33,39411
 617,21;13633,386;  399,718;40268,994;33,19265
 617,79;13417,985;  387,333;40142,361;32,77737
 618,36;13334,056;  397,486;40069,057;32,60917
 618,94;13076,699;  336,410;39771,528;32,30696
 619,52;12999,020;  365,642;39429,093;32,34066
 620,10;12805,025;  354,487;39491,226;31,81292
 620,67;12657,165;  361,873;39350,492;31,53559
 621,25;12548,693;  372,409;39161,485;31,39101
 621,83;12451,870;  354,641;39088,347;31,23179
 622,41;12407,233;  391,026;39125,842;31,02172
 622,98;12158,717;  364,642;38758,549;30,71861
 623,56;12120,390;  365,181;38884,157;30,51797
 624,14;11907,896;  355,409;38728,291;30,10586
 624,72;11823,569;  341,718;38649,914;29,97231
 625,29;11779,597;  316,104;38666,309;29,89161
 625,87;11729,250;  360,641;38532,616;29,78261
 626,45;11530,940;  314,873;38446,873;29,41379
 627,02;11441,171;  335,256;38280,118;29,26856
 627,60;11349,797;  309,331;38281,586;29,07509
 628,18;11283,014;  300,795;38338,973;28,87157
 628,76;11170,194;  310,488;38379,025;28,52672
 629,33;11109,695;  323,334;38358,690;28,35878
 629,91;10994,179;  314,718;38329,687;28,09278
 630,49;11022,630;  344,488;38449,637;28,02283
 631,06;11025,303;  329,411;38535,475;27,99527
 631,64;10901,878;  330,488;38571,503;27,64411
 632,22;10757,691;  289,335;38453,021;27,43015
 632,79;10789,052;  314,489;38673,557;27,30661
 633,37;10712,460;  297,563;38843,835;27,01921
 633,95;10696,048;  304,873;38879,750;26,93767
 634,52;10670,097;  282,103;38992,354;26,83525
 635,10;10553,862;  293,872;39015,394;26,49687
 635,68;10597,324;  298,643;39256,610;26,43537
 636,25;10451,830;  287,567;39194,822;26,12434
 636,83;10431,501;  278,027;39495,718;25,89004
 637,41;10377,644;  282,258;39440,479;25,78101
 637,98;10370,971;  311,182;39708,412;25,53426
 638,56;10348,583;  313,182;39881,850;25,36199
 639,13;10335,251;  288,334;39933,633;25,34201
 639,71;10305,006;  304,950;40086,266;25,13757
 640,29;10069,172;  256,796;39748,763;24,84651
 640,86;10087,813;  264,949;40035,288;24,69897
 641,44;10022,608;  279,949;40050,505;24,49716
 642,02; 9998,940;  299,488;40076,798;24,38439
 642,59; 9940,273;  274,949;40148,861;24,23972
 643,17; 9891,376;  281,334;40262,617;24,03635
 643,74; 9812,093;  280,180;40240,603;23,85338
 644,32; 9760,349;  297,872;40196,974;23,71601
 644,89; 9690,451;  294,641;40164,421;23,56624
 645,47; 9646,476;  303,641;40245,177;23,39128
 646,05; 9557,194;  290,411;40090,932;23,28307
 646,62; 9510,296;  289,641;40109,995;23,15563
 647,20; 9473,091;  289,718;40289,058;22,95881
 647,77; 9364,193;  265,487;40197,967;22,78523
 648,35; 9278,526;  256,026;40034,107;22,68209
 648,92; 9239,474;  298,949;40081,786;22,47332
 649,50; 9214,115;  255,026;40013,310;22,53389
 650,08; 9082,601;  261,410;39907,450;22,24987
 650,65; 9037,550;  262,333;40059,590;22,04980
 651,23; 9046,190;  243,564;40483,499;21,87535
 651,80; 9216,600;  258,179;41612,870;21,66241
 652,38; 9322,933;  261,872;42032,164;21,69260
 652,95; 9353,805;  233,256;42436,227;21,61115
 653,53; 9355,291;  276,564;42747,752;21,37620
 654,10; 9387,855;  289,718;42884,815;21,35959
 654,68; 9229,419;  250,641;42776,185;21,11385
 655,25; 9231,444;  264,872;42974,018;20,99450
 655,83; 9216,008;  245,179;43005,004;20,97957
 656,40; 9198,648;  284,795;42952,990;20,89110
 656,98; 9100,443;  253,179;42933,591;20,72910
 657,55; 9041,237;  261,410;42895,270;20,59355
 658,13; 8920,032;  252,641;42493,410;20,51902
 658,70; 8870,595;  269,102;42348,011;20,44134
 659,28; 8628,313;  260,640;41591,459;20,24560
 659,85; 8345,800;  256,948;40543,599;20,07824
 660,43; 8256,286;  275,948;40407,508;19,88544
 661,00; 8264,850;  262,486;40634,879;19,82138
 661,58; 8247,875;  249,794;40897,480;19,67660
 662,15; 8237,054;  239,333;41179,928;19,53494
 662,73; 8259,926;  299,948;41449,453;19,34404
 663,30; 8236,951;  268,563;41664,977;19,24898
 663,88; 8208,592;  270,948;41892,886;19,07082
 664,45; 8220,155;  255,486;42090,257;19,03840
 665,03; 8224,411;  264,717;42455,705;18,86586
 665,60; 8351,052;  312,102;42942,152;18,85747
 666,17; 8246,693;  271,255;43090,446;18,62585
 666,75; 8275,026;  261,025;43340,663;18,60276
 667,32; 8324,282;  289,948;43719,188;18,49983
 667,90; 8298,922;  266,101;43996,712;18,36887
 668,47; 8335,947;  294,640;44317,698;18,26613
 669,05; 8345,127;  269,486;44670,762;18,18786
 669,62; 8302,536;  245,178;44863,671;18,05834
 670,19; 8241,639;  254,794;44851,888;17,90889
 670,77; 8271,741;  265,793;45132,643;17,84379
 671,34; 8242,151;  268,793;45023,860;17,81554
 671,92; 8258,868;  253,947;45300,846;17,77019
 672,49; 8224,432;  269,947;45421,294;17,61738
 673,06; 8149,072;  224,024;45433,818;17,52949
 673,64; 8116,175;  255,947;45416,958;17,40490
 674,21; 8082,892;  237,255;45450,021;17,35270
 674,79; 8126,610;  262,255;45639,007;17,33124
 675,36; 8148,866;  276,947;45766,840;17,30476
 675,93; 8093,891;  253,332;45623,903;17,28116
 676,51; 8086,608;  281,870;45858,427;17,12446
 677,08; 8088,172;  268,101;45891,952;17,14031
 677,65; 8056,736;  263,947;45995,707;17,04021
 678,23; 8087,992;  268,485;46231,924;17,01245
 678,80; 8063,248;  257,101;46384,987;16,92284
 679,38; 8056,042;  241,639;46510,358;16,88917
 679,95; 8087,529;  267,485;46653,959;16,85846
 680,52; 8081,862;  250,639;47027,638;16,74161
 681,10; 8110,503;  270,331;47363,778;16,64812
 681,67; 8140,066;  272,562;47716,918;16,58259
 682,24; 8151,399;  236,254;47830,289;16,63054
 682,82; 8216,655;  250,716;48266,736;16,59017
 683,39; 8267,988;  279,331;48759,338;16,47825
 683,96; 8238,783;  243,869;48931,478;16,42084
 684,54; 8310,346;  237,408;49218,233;16,48183
 685,11; 8352,064;  268,254;49710,835;16,34989
 685,68; 8415,781;  255,023;50123,975;16,36441
 686,25; 8373,807;  242,254;50130,576;16,29951
 686,83; 8411,832;  243,715;50379,947;16,29184
 687,40; 8398,396;  228,023;50759,471;16,16889
 687,97; 8502,421;  276,331;51175,073;16,16168
 688,55; 8410,677;  237,869;51281,367;16,01146
 689,12; 8482,087;  225,254;51495,045;16,10467
 689,69; 8449,804;  232,023;51621,339;15,99123
 690,26; 8511,445;  242,869;51610,787;16,09677
 690,84; 8469,624;  241,946;51917,080;15,92193
 691,41; 8522,495;  250,638;51948,759;16,00031
 691,98; 8572,674;  256,561;52306,822;15,97708
 692,56; 8525,469;  235,253;52441,270;15,87981
 693,13; 8570,340;  294,869;52495,871;15,85309
 693,70; 8564,904;  274,176;52639,396;15,83251
 694,27; 8559,083;  250,715;52769,689;15,81975
 694,84; 8576,954;  243,561;52835,829;15,84528
 695,42; 8582,903;  284,023;52996,892;15,74356
 695,99; 8572,928;  250,099;53277,263;15,69541
 696,56; 8543,569;  243,099;53121,557;15,69726
 697,13; 8601,363;  264,022;53431,082;15,68140
 697,71; 8570,311;  219,638;53449,529;15,68794
 698,28; 8645,490;  251,253;53810,515;15,67280
 698,85; 8584,823;  218,330;53892,809;15,58747
 699,42; 8597,233;  225,715;54085,718;15,54311
 699,99; 8632,181;  265,253;54175,781;15,52003
 700,57; 8619,976;  265,868;54237,845;15,47860
 701,14; 8576,770;  245,176;54338,754;15,40219
 701,71; 8666,026;  249,330;54598,124;15,48645
 702,28; 8629,667;  256,407;54509,418;15,43372
 702,85; 8595,154;  258,484;54701,327;15,31270
 703,43; 8696,179;  273,714;54993,775;15,39191
 704,00; 8684,974;  279,483;55230,223;15,29641
 704,57; 8693,460;  259,791;55148,209;15,36512
 705,14; 8733,716;  288,330;55447,580;15,31092
 705,71; 8708,434;  304,483;55488,950;15,22883
 706,28; 8679,690;  265,714;55340,706;15,27731
 706,86; 8741,638;  295,252;55697,307;15,24562
 707,43; 8743,510;  310,022;55571,909;15,26095
 708,00; 8660,535;  290,252;55628,818;15,12559
 708,57; 8654,791;  268,098;55526,881;15,17712
 709,14; 8706,278;  293,791;55719,329;15,17800
 709,71; 8719,303;  276,560;55778,853;15,21152
 710,28; 8751,713;  279,637;56054,301;15,18983
 710,86; 8805,430;  291,175;56245,287;15,21650
 711,43; 8796,455;  290,406;56174,812;15,22079
 712,00; 8851,865;  274,637;56266,490;15,31871
 712,57; 8862,044;  275,791;56451,861;15,28454
 713,14; 8877,685;  262,252;56564,847;15,30202
 713,71; 8890,787;  270,021;56355,602;15,37073
 714,28; 8886,428;  257,560;56496,742;15,34316
 714,85; 8847,761;  242,790;56285,498;15,35431
 715,42; 8868,863;  253,098;56570,330;15,29863
 716,00; 8965,042;  284,329;56620,008;15,40891
 716,57; 8914,759;  247,636;56825,918;15,31882
 717,14; 8960,323;  228,329;56662,134;15,47299
 717,71; 8939,964;  227,636;56615,659;15,45067
 718,28; 8983,989;  255,405;56809,337;15,43409
 718,85; 8963,476;  227,252;56777,554;15,44859
 719,42; 9045,578;  251,790;56956,925;15,50792
 719,99; 8972,988;  222,405;56871,680;15,44695
 720,56; 9006,398;  244,328;57079,282;15,41669
 721,13; 9037,884;  243,867;57071,037;15,47502
 721,70; 9044,833;  235,405;56982,716;15,52396
 722,27; 9036,627;  254,867;57061,317;15,45909
 722,84; 9090,883;  280,867;57280,842;15,45618
 723,41; 9052,447;  234,251;57128,136;15,49937
 723,98; 9154,395;  241,328;57476,276;15,57277
 724,55; 9210,882;  262,328;57525,877;15,62696
 725,12; 9114,523;  207,636;57460,709;15,55705
 725,69; 9234,625;  237,020;57676,772;15,66442
 726,27; 9269,958;  233,020;57737,989;15,71505
 726,84; 9335,675;  240,636;58096,668;15,72012
 727,41; 9356,239;  251,251;57917,039;15,78924
 727,98; 9439,418;  263,020;58335,717;15,80157
 728,55; 9432,674;  283,020;58212,549;15,79446
 729,12; 9433,930;  230,328;58427,843;15,81442
 729,69; 9516,648;  268,559;58545,983;15,86908
 730,26; 9527,904;  275,251;58827,046;15,80251
 730,82; 9530,621;  245,712;58534,955;15,92903
 731,39; 9585,262;  244,097;58687,249;15,98334
 731,96; 9617,518;  238,866;58878,312;15,99376
 732,53; 9710,389;  269,251;59284,914;15,99768
 733,10; 9748,568;  270,558;59342,284;16,04492
 733,67; 9832,055;  277,097;59617,578;16,10192
 734,24; 9744,157;  258,020;59095,872;16,12251
 734,81; 9796,798;  285,097;59304,397;16,11626
 735,38; 9849,054;  263,097;59005,075;16,31875
 735,95; 9816,387;  264,789;58936,215;16,27981
 736,52; 9862,797;  280,096;59168,663;16,27260
 737,09; 9869,899;  276,635;58809,033;16,38966
 737,66; 9992,078;  316,712;59152,712;16,44464
 738,23;10009,565;  248,866;59120,159;16,57973
 738,80;10085,282;  294,635;59379,761;16,57041
 739,37;10130,384;  293,866;59598,824;16,58633
 739,94;10152,640;  277,865;59713,887;16,61412
 740,51;10321,819;  326,250;59698,258;16,83549
 741,07;10238,229;  267,865;59637,475;16,79372
 741,64;10310,716;  288,404;59815,307;16,83661
 742,21;10322,357;  274,096;59962,755;16,83446
 742,78;10366,151;  246,327;59720,818;17,01540
 743,35;10414,330;  261,634;60063,265;16,97729
 743,92;10460,048;  301,942;60219,098;16,95358
 744,49;10533,458;  279,250;60013,084;17,16650
 745,06;10506,483;  268,250;60047,301;17,12679
 745,63;10542,277;  252,865;60047,902;17,20780
 746,19;10526,072;  258,942;59949,811;17,20050
 746,76;10559,405;  272,557;60104,413;17,19293
 747,33;10613,968;  253,865;60042,937;17,32775
 747,90;10727,917;  273,173;60244,770;17,43283
 748,47;10717,557;  286,096;60168,371;17,41995
 749,04;10728,659;  282,942;60151,204;17,44784
 749,61;10843,300;  291,480;60108,882;17,64005
 750,17;10853,787;  278,634;60286,176;17,62304
 750,74;10896,812;  284,557;60067,470;17,75132
 751,31;10800,760;  257,634;59969,763;17,65659
 751,88;10902,401;  244,788;59851,903;17,87977
 752,45;10927,888;  272,480;59977,505;17,84675
 753,02;11014,528;  267,557;59914,414;18,01767
 753,58;10931,630;  256,403;59677,939;17,96525
 754,15;11054,117;  268,326;59703,463;18,14716
 754,72;11027,143;  247,172;59566,834;18,17268
 755,29;11070,168;  243,634;59412,436;18,29771
 755,86;11115,962;  261,480;59606,268;18,29054
 756,42;11146,141;  268,710;59348,946;18,41129
 756,99;11154,628;  222,864;59379,317;18,47941
 757,56;11167,115;  245,787;59345,226;18,47958
 758,13;11178,986;  201,480;59297,366;18,57575
 758,70;11244,396;  227,326;59328,045;18,64118
 759,26;11372,652;  219,787;59508,569;18,81109
 759,83;11432,293;  217,249;59608,171;18,88343
 760,40;11457,933;  215,556;59569,618;18,94121
 760,97;11521,420;  191,941;59507,374;19,10039
 761,53;11520,830;  167,787;59097,206;19,26549
 762,10;11568,394;  188,864;59006,731;19,34706
 762,67;11618,265;  215,556;58978,563;19,40457
 763,24;11586,598;  171,864;58655,010;19,51799
 763,80;11637,854;  215,941;58695,920;19,53132
 764,37;11637,110;  221,633;58724,444;19,51270
 764,94;11641,674;  202,479;58223,661;19,71555
 765,50;11709,699;  200,941;58188,109;19,84708
 766,07;11811,109;  250,941;58312,403;19,91023
 766,64;11739,596;  222,402;57961,389;19,94700
 767,21;11749,005;  218,479;57850,759;20,00706
 767,77;11808,108;  245,017;57809,284;20,08727
 768,34;11820,440;  254,633;57720,039;20,12656
 768,91;11871,696;  249,171;57490,872;20,30430
 769,47;11889,414;  242,094;57610,550;20,30266
 770,04;11943,132;  264,094;57447,998;20,42364
 770,61;11908,157;  238,556;57207,445;20,48416
 771,18;11972,413;  229,017;57093,432;20,65157
 771,74;12017,515;  251,786;57403,264;20,58692
 772,31;12041,386;  254,632;57036,096;20,75810
 772,88;12058,488;  219,555;56781,313;20,93099
 773,44;12020,283;  231,325;56535,915;20,93783
 774,01;12114,924;  242,017;56679,516;21,03727
 774,58;12119,872;  224,786;56336,041;21,19911
 775,14;12199,128;  214,171;56509,181;21,28956
 775,71;12220,769;  233,863;56373,936;21,35178
 776,27;12343,332;  273,632;56323,307;21,53393
 776,84;12437,896;  278,171;56319,216;21,69789
 777,41;12336,844;  255,324;56158,587;21,61148
 777,97;12366,023;  248,324;55869,034;21,78631
 778,54;12346,741;  248,632;55862,944;21,75359
 779,11;12495,381;  258,170;55932,391;21,98003
 779,67;12525,791;  230,093;55868,993;22,09910
 780,24;12477,124;  253,863;55591,825;22,08838
 780,80;12580,919;  263,401;55479,273;22,30793
 781,37;12642,098;  252,939;55529,951;22,41286
 781,94;12621,738;  254,862;55312,629;22,46164
 782,50;12671,533;  256,170;55101,000;22,63725
 783,07;12733,097;  272,401;55288,525;22,64917
 783,63;12696,199;  230,247;55059,588;22,73591
 784,20;12768,916;  255,478;55068,112;22,82948
 784,77;12764,172;  249,401;54868,560;22,91279
 785,33;12745,890;  226,170;54638,085;23,00915
 785,90;12823,761;  246,554;54549,609;23,16114
 786,46;12851,863;  265,939;54460,518;23,22359
 787,03;12865,966;  237,016;54258,582;23,37761
 787,59;12820,914;  245,708;54143,568;23,33155
 788,16;12892,170;  241,785;54108,708;23,48451
 788,73;12958,041;  245,400;54001,078;23,64893
 789,29;12930,528;  241,631;53561,988;23,79747
 789,86;12967,630;  246,016;53556,281;23,86335
 790,42;12995,425;  255,093;53430,575;23,95903
 790,99;13010,296;  254,246;53023,484;24,17327
 791,55;13037,937;  236,016;53114,009;24,21030
 792,12;13112,039;  259,092;53020,149;24,36067
 792,68;13099,679;  239,939;52791,366;24,47077
 793,25;13074,628;  247,015;52456,275;24,56961
 793,81;13108,268;  277,400;52162,646;24,72932
 794,38;13056,063;  221,708;51920,940;24,82504
 794,94;13110,934;  227,323;51778,464;24,99190
 795,51;13120,959;  243,708;51502,220;25,12217
 796,07;13146,985;  253,015;51154,283;25,33133
 796,64;13257,548;  272,477;51359,653;25,41748
 797,20;13128,112;  240,938;50841,024;25,46868
 797,77;13105,599;  231,246;50515,472;25,60316
 798,33;13164,086;  230,861;50318,612;25,82113
 798,90;13215,034;  267,554;50350,290;25,85218
 799,46;13147,828;  243,092;49905,892;25,98471
 800,03;13168,700;  251,246;49702,570;26,12155
 800,59;13201,956;  264,246;49447,556;26,30508
 801,15;13132,904;  256,169;49249,696;26,28252
 801,72;13096,699;  253,246;48855,452;26,42566
 802,28;13042,955;  285,707;48559,976;26,42660
 802,85;13022,826;  252,861;48411,885;26,51625
 803,41;13064,390;  252,553;48186,025;26,72837
 803,98;13037,953;  238,861;47748,858;26,93979
 804,54;12943,748;  241,938;47473,921;26,89239
 805,11;12914,004;  251,168;47388,676;26,86361
 805,67;13005,567;  264,322;47262,739;27,10995
 806,23;12837,823;  257,015;46777,571;27,04355
 806,80;12895,464;  271,091;46658,327;27,21519
 807,36;12961,336;  276,399;46582,928;27,39341
 807,93;12913,361;  277,322;46312,914;27,44841
 808,49;12852,463;  234,784;45881,900;27,64179
 809,05;12794,104;  223,399;45730,810;27,62342
 809,62;12846,436;  256,707;45606,565;27,76134
 810,18;12912,000;  257,399;45514,320;27,96169
 810,74;12894,795;  234,322;45219,614;28,14358
 811,31;12860,051;  232,553;44936,677;28,24683
 811,87;12860,384;  234,860;44874,894;28,28296
 812,44;12946,255;  272,783;44842,726;28,43502
 813,00;12952,819;  212,168;44537,251;28,74366
 813,56;13043,382;  244,552;44600,699;28,85469
 814,13;13077,484;  239,937;44506,223;29,00073
 814,69;13050,125;  247,860;44407,440;28,99091
 815,25;12958,381;  219,245;43855,965;29,19362
 815,82;13066,714;  256,783;43796,335;29,42137
 816,38;13026,893;  262,783;43605,706;29,44912
 816,94;12913,226;  220,245;43263,154;29,48913
 817,51;12957,251;  215,629;43108,832;29,70546
 818,07;12943,353;  223,091;42865,588;29,83001
 818,63;12929,917;  240,398;42571,497;29,97682
 819,20;13012,481;  235,398;42559,791;30,18846
 819,76;12859,506;  223,552;42053,854;30,20766
 820,32;12945,993;  272,244;42024,378;30,35473
 820,89;12940,480;  255,167;41769,980;30,55611
 821,45;12918,505;  234,475;41470,120;30,75987
 822,01;12982,145;  249,629;41212,490;31,08307
 822,57;12984,709;  259,783;41085,092;31,16921
 823,14;12847,350;  225,475;40882,693;31,04461
 823,70;12858,221;  218,706;40583,218;31,31344
 824,26;12886,169;  228,936;40340,127;31,55537
 824,82;12969,041;  252,552;40181,883;31,84749
 825,39;12881,528;  227,859;39873,023;31,91731
 825,95;12934,476;  256,398;39937,778;31,94969
 826,51;12851,732;  249,552;39501,918;32,10553
 827,08;12968,373;  270,244;39705,827;32,19967
 827,64;12940,936;  260,936;39398,275;32,39873
 828,20;12897,731;  233,859;39124,799;32,56252
 828,76;13012,294;  245,474;39040,478;32,90841
 829,32;12999,089;  254,321;38899,233;32,97916
 829,89;12971,653;  212,321;38687,604;33,16241
 830,45;13059,370;  229,936;38682,359;33,36444
 831,01;13001,395;  221,936;38457,576;33,42290
 831,57;13057,574;  234,628;38340,178;33,65113
 832,14;13044,292;  231,167;38418,087;33,55370
 832,70;13084,625;  232,705;38101,304;33,93820
 833,26;13010,342;  220,320;37979,213;33,87287
 833,82;13119,752;  230,705;37849,122;34,26260
 834,38;13141,162;  225,320;37884,954;34,29625
 834,95;13159,803;  213,936;37765,633;34,47479
 835,51;13166,059;  192,166;37620,619;34,66318
 836,07;13228,007;  232,859;37709,990;34,67488
 836,63;13362,417;  244,320;37710,437;35,01323
 837,19;13326,134;  231,782;37494,116;35,14099
 837,75;13301,544;  204,012;37174,563;35,42693
 838,32;13393,108;  244,935;37201,473;35,57739
 838,88;13451,287;  252,320;37381,074;35,54918
 839,44;13444,312;  237,243;37208,445;35,72259
 840,00;13544,645;  233,551;37106,585;36,09981
 840,56;13477,209;  210,089;36842,340;36,21705
 841,12;13511,388;  211,474;36801,326;36,34864
 841,68;13453,106;  209,012;36654,851;36,33911
 842,25;13524,054;  217,320;36602,222;36,57213
 842,81;13490,387;  215,012;36276,054;36,81362
 843,37;13562,181;  205,704;36358,963;36,94405
 843,93;13592,360;  223,320;36140,565;37,22179
 844,49;13657,155;  230,396;36145,859;37,38434
 845,05;13611,411;  204,089;36008,460;37,44605
 845,61;13780,898;  240,858;36106,831;37,75177
 846,17;13716,154;  225,781;35977,586;37,73340
 846,73;13717,640;  228,396;35902,495;37,81243
 847,29;13720,973;  204,012;35749,866;38,02683
 847,86;13701,922;  213,242;35627,083;38,08872
 848,42;13659,947;  204,858;35443,531;38,18274
 848,98;13743,049;  219,704;35396,055;38,44442
 849,54;13840,920;  211,242;35299,195;38,84432
 850,10;13813,253;  226,627;35297,489;38,74050
 850,66;13757,586;  202,088;35152,090;38,78540
 851,22;13864,458;  196,627;35074,461;39,18773
 851,78;13871,252;  250,242;35120,447;39,06203
 852,34;13815,354;  227,011;34792,126;39,31230
 852,90;13890,918;  210,165;34638,420;39,73699
 853,46;13840,174;  207,703;34422,483;39,84381
 854,02;13907,353;  222,473;34570,776;39,84150
 854,58;13861,071;  206,550;34248,070;40,11137
 855,14;13857,019;  188,088;34113,672;40,29092
 855,70;13804,890;  181,088;34010,119;40,27252
 856,26;13878,377;  230,857;33985,413;40,43164
 856,82;13898,325;  211,011;33795,476;40,75490
 857,38;13848,120;  232,780;33755,001;40,61586
 857,94;13815,837;  223,318;33563,141;40,76962
 858,50;13940,863;  227,472;33468,435;41,25449
 859,06;13860,349;  212,857;33216,113;41,35196
 859,62;13879,682;  238,165;33200,638;41,38499
 860,18;13788,092;  211,703;32975,239;41,43750
 860,74;13790,887;  191,164;32877,995;41,60612
 861,30;13786,143;  198,703;32637,750;41,88606
 861,86;13885,322;  234,241;32729,967;42,00885
 862,42;13747,732;  211,241;32530,722;41,88338
 862,98;13825,834;  233,549;32460,324;42,17699
 863,54;13758,474;  232,703;32223,233;42,28055
 864,10;13783,192;  218,780;32280,296;42,30746
 864,66;13735,371;  197,164;32030,436;42,52848
 865,22;13728,165;  218,395;31993,114;42,51736
 865,78;13739,498;  226,164;31765,024;42,84662
 866,34;13679,293;  217,549;31711,471;42,74394
 866,90;13764,318;  224,010;31595,842;43,16072
 867,45;13671,113;  234,779;31383,982;43,13540
 868,01;13710,830;  225,010;31204,122;43,53198
 868,57;13580,394;  220,856;30995,954;43,41022
 869,13;13562,958;  209,933;30903,633;43,50412
 869,69;13607,752;  210,702;30762,849;43,84978
 870,25;13628,854;  195,010;30629,220;44,14060
 870,81;13632,802;  223,625;30592,745;44,15399
 871,37;13610,135;  225,087;30508,423;44,19939
 871,93;13631,084;  240,317;30317,409;44,52148
 872,49;13585,955;  224,779;30062,395;44,77964
 873,04;13537,826;  209,471;29764,382;45,09692
 873,60;13526,006;  195,702;29773,906;45,06799
 874,16;13535,338;  228,471;29725,815;45,11209
 874,72;13541,723;  209,394;29565,508;45,41585
 875,28;13609,646;  227,240;29508,892;45,70236
 875,84;13608,800;  215,625;29468,508;45,78412
 876,40;13702,338;  221,163;29483,277;46,07041
 876,95;13736,415;  228,779;29318,585;46,43426
 877,51;13731,492;  241,625;29324,046;46,38495
 878,07;13774,262;  256,240;29308,892;46,52939
 878,63;13849,108;  221,702;29386,123;46,72613
 879,19;13904,108;  236,317;29306,892;47,01589
 879,75;13963,262;  231,317;29315,585;47,21434
 880,30;13960,415;  218,010;29349,738;47,17333
 880,86;14124,954;  260,933;29409,200;47,56379
 881,42;14157,338;  217,240;29516,585;47,57819
 881,98;14229,338;  230,702;29638,585;47,60165
 882,54;14314,262;  214,394;29673,585;47,86237
 883,09;14472,262;  239,779;29802,200;48,14383
 883,65;14530,954;  208,317;29926,815;48,19435
 884,21;14691,108;  241,702;30083,892;48,41939
 884,77;14737,569;  218,471;30170,277;48,47487
 885,32;14905,954;  213,240;30367,662;48,72491
 885,88;15077,646;  256,702;30528,354;48,95981
 886,44;15188,108;  226,394;30561,277;49,32181
 887,00;15286,723;  239,856;30602,200;49,55766
 887,56;15457,031;  223,163;30764,969;49,87874
 888,11;15509,108;  210,317;30778,815;50,04757
 888,67;15628,877;  252,317;31034,662;49,95253
 889,23;15648,108;  237,471;31000,738;50,09428
 889,79;15593,108;  212,702;30827,354;50,23871
 890,34;15704,492;  218,702;30761,738;50,70154
 890,90;15839,569;  276,702;31002,738;50,65042
 891,46;15760,877;  214,625;30871,892;50,70984
 892,01;15820,492;  241,317;30809,123;50,96596
 892,57;15815,569;  249,317;30782,046;50,98218
 893,13;15782,185;  211,471;30613,508;51,21602
 893,69;15781,723;  211,548;30430,200;51,52505
 894,24;15758,108;  224,471;30329,738;51,59774
 894,80;15754,492;  227,702;30158,200;51,87615
 895,36;15726,262;  225,394;30082,200;51,91737
 895,91;15670,338;  223,856;29868,815;52,10492
 896,47;15695,877;  225,548;29737,815;52,41999
 897,03;15576,338;  215,394;29583,431;52,30498
 897,58;15620,800;  230,087;29458,969;52,65584
 898,14;15567,262;  234,163;29259,354;52,82686
 898,70;15473,877;  203,548;29083,277;52,87560
 899,25;15479,338;  218,240;29094,815;52,84941
 899,81;15423,800;  238,702;28850,123;53,07355
 900,37;15337,569;  202,471;28737,200;53,04097
 900,92;15409,646;  223,317;28698,892;53,33107
 901,48;15370,415;  218,087;28523,277;53,53198
 902,03;15348,415;  210,010;28373,277;53,75231
 902,59;15219,569;  215,394;28163,969;53,68494
 903,15;15218,492;  235,317;28146,277;53,68205
 903,70;15106,031;  234,163;27831,431;53,88891
 904,26;15119,954;  207,010;27701,046;54,24065
 904,82;15112,262;  216,856;27670,200;54,25716
 905,37;15154,185;  218,010;27592,354;54,56268
 905,93;15046,877;  218,625;27372,892;54,60745
 906,48;15106,031;  227,548;27292,123;54,97401
 907,04;15050,262;  232,317;27288,046;54,76823
 907,60;15068,646;  207,010;26962,738;55,54562
 908,15;14985,108;  206,087;26884,431;55,39707
 908,71;15033,954;  240,087;26822,508;55,65282
 909,26;15018,185;  211,471;26718,431;55,85972
 909,82;15016,415;  234,625;26520,431;56,23488
 910,37;15062,108;  255,010;26494,738;56,43007
 910,93;14977,800;  204,702;26271,815;56,67332
 911,48;14934,185;  205,933;26016,431;57,06303
 912,04;14885,877;  208,779;25987,969;56,93390
 912,60;14951,492;  217,779;25989,431;57,17023
 913,15;14827,031;  222,548;25880,969;56,91887
 913,71;14756,108;  204,702;25663,738;57,15615
 914,26;14780,954;  196,548;25538,354;57,55078
 914,82;14738,954;  218,317;25452,431;57,54368
 915,37;14692,800;  205,779;25397,431;57,50723
 915,93;14672,185;  239,010;25291,969;57,61066
 916,48;14653,108;  205,394;25086,431;58,06717
 917,04;14594,031;  228,702;25025,585;57,93200
 917,59;14647,338;  237,010;24963,046;58,27998
 918,15;14519,492;  187,548;24694,738;58,48057
 918,70;14503,877;  216,163;24653,738;58,46617
 919,26;14468,954;  216,702;24573,815;58,51371
 919,81;14362,492;  205,856;24446,277;58,40095
 920,37;14382,723;  212,625;24303,200;58,82009
 920,92;14486,262;  234,010;24199,200;59,47064
 921,48;14396,877;  203,317;23943,046;59,78821
 922,03;14471,723;  214,471;23948,123;60,07188
 922,59;14490,415;  201,779;23805,892;60,53452
 923,14;14420,185;  198,240;23665,046;60,60452
 923,69;14442,800;  228,625;23581,354;60,86730
 924,25;14421,569;  232,779;23595,508;60,73259
 924,80;14355,338;  216,087;23307,585;61,23142
 925,36;14356,338;  209,163;23299,892;61,26777
 925,91;14364,954;  211,856;23093,892;61,85244
 926,47;14316,338;  187,625;23053,046;61,79074
 927,02;14376,954;  232,010;22928,046;62,32341
 927,57;14254,492;  217,933;22757,200;62,27602
 928,13;14276,569;  203,625;22745,738;62,42957
 928,68;14253,492;  208,702;22598,431;62,72872
 929,24;14163,954;  185,163;22383,046;62,97353
 929,79;14076,800;  199,471;22287,200;62,82823
 930,34;14034,185;  209,163;22196,123;62,87828
 930,90;14046,262;  195,548;22095,815;63,24449
 931,45;14034,338;  212,394;22056,738;63,27470
 932,01;13937,723;  218,394;21929,354;63,19080
 932,56;13857,262;  227,779;21786,969;63,21890
 933,11;13956,185;  226,471;21769,662;63,73111
 933,67;13793,415;  203,240;21552,585;63,65617
 934,22;13732,492;  212,087;21467,354;63,60967
 934,77;13701,646;  226,163;21440,046;63,52200
 935,33;13661,415;  223,779;21228,431;63,97457
 935,88;13669,031;  215,317;21155,200;64,24923
 936,43;13627,262;  197,394;21104,200;64,23682
 936,99;13640,954;  212,394;20907,277;64,88831
 937,54;13546,108;  194,010;20763,431;64,91237
 938,09;13466,569;  214,394;20733,123;64,58575
 938,65;13432,185;  213,779;20592,354;64,86423
 939,20;13439,338;  194,163;20559,354;65,03831
 939,75;13317,492;  198,163;20358,200;65,07592
 940,31;13305,108;  182,087;20308,969;65,20146
 940,86;13352,492;  219,702;20218,046;65,66939
 941,41;13389,569;  256,394;20175,354;65,93304
 941,96;13286,185;  203,471;20056,662;65,89729
 942,52;13245,262;  214,394;20002,738;65,85123
 943,07;13209,031;  190,163;19846,431;66,23265
 943,62;13157,031;  202,240;19760,585;66,23664
 944,18;13179,954;  196,548;19663,969;66,69299
 944,73;13127,262;  207,087;19558,046;66,76762
 945,28;13052,262;  181,702;19285,046;67,37333
 945,83;13156,108;  199,240;19313,662;67,78582
 946,39;13083,954;  202,856;19304,508;67,43447
 946,94;13097,723;  230,548;19179,123;67,90577
 947,49;13023,185;  200,163;19056,277;68,00458
 948,04;13051,723;  219,010;19013,508;68,27910
 948,59;13020,185;  227,317;18957,354;68,30135
 949,15;13012,262;  188,394;18849,277;68,72058
 949,70;13023,800;  194,933;18773,738;69,05109
 950,25;12980,338;  226,779;18670,892;69,14705
 950,80;12900,108;  171,625;18547,046;69,26907
 951,36;12895,031;  177,010;18350,046;69,98292
 951,91;13006,877;  223,087;18425,200;70,23245
 952,46;12822,415;  183,933;18200,738;70,14830
 953,01;12902,492;  222,856;18321,277;70,05935
 953,56;12807,877;  177,702;18106,662;70,44567
 954,11;12809,492;  216,087;18032,892;70,68274
 954,67;12789,492;  198,779;17954,969;70,90887
 955,22;12692,338;  180,779;17802,431;71,00106
 955,77;12795,415;  221,625;17822,969;71,43653
 956,32;12709,723;  243,010;17689,354;71,45745
 956,87;12577,723;  188,702;17499,585;71,56782
 957,42;12578,877;  204,471;17490,123;71,58773
 957,98;12528,415;  195,240;17383,354;71,75409
 958,53;12516,646;  222,471;17341,969;71,81388
 959,08;12460,338;  194,163;17226,815;72,01565
 959,63;12371,954;  192,087;17128,123;71,91687
 960,18;12361,262;  215,163;17113,277;71,87843
 960,73;12371,646;  205,010;17021,277;72,35040
 961,28;12310,569;  186,933;16850,815;72,75397
 961,83;12345,723;  213,087;16829,277;73,01696
 962,39;12224,877;  189,856;16719,508;72,80868
 962,94;12173,646;  223,317;16656,815;72,71932
 963,49;12107,800;  203,087;16471,662;73,17613
 964,04;12085,569;  215,317;16481,508;72,97500
 964,59;12009,646;  180,087;16306,892;73,35340
 965,14;12050,185;  213,471;16273,200;73,70432
 965,69;11999,262;  204,702;16118,046;74,11742
 966,24;11913,492;  208,548;16067,354;73,80722
 966,79;11900,185;  213,856;15941,662;74,30362
 967,34;11855,954;  178,087;15834,046;74,59056
 967,89;11840,954;  189,317;15766,508;74,79935
 968,44;11723,877;  211,394;15739,123;74,14145
 968,99;11690,723;  212,163;15617,277;74,51136
 969,55;11702,800;  209,856;15543,585;74,95205
 970,10;11682,800;  210,625;15387,354;75,59056
 970,65;11560,569;  214,933;15328,815;75,06765
 971,20;11533,262;  203,471;15221,892;75,43929
 971,75;11471,646;  189,548;15016,892;76,08981
 972,30;11414,262;  202,779;14988,354;75,82717
 972,85;11357,723;  203,548;14955,662;75,61069
 973,40;11224,108;  195,702;14768,354;75,67878
 973,95;11243,185;  206,779;14719,200;76,04800
 974,50;11148,723;  223,394;14604,046;75,97242
 975,05;11081,492;  220,779;14528,277;75,90924
 975,60;11118,031;  225,779;14499,892;76,30773
 976,15;11051,262;  215,394;14385,815;76,46821
 976,70;11022,723;  213,163;14295,585;76,75924
 977,25;11030,646;  208,779;14246,431;77,09172
 977,80;10907,338;  199,933;14070,969;77,19254
 978,35;10805,800;  215,163;13921,200;77,26987
 978,89;10770,877;  196,010;13858,892;77,39851
 979,44;10794,185;  205,317;13801,046;77,88378
 979,99;10651,877;  193,625;13576,815;78,14468
 980,54;10615,646;  235,779;13537,431;78,03442
 981,09;10550,262;  218,779;13386,431;78,46109
 981,64;10475,646;  216,471;13246,123;78,73714
 982,19;10466,415;  248,240;13218,815;78,77966
 982,74;10359,338;  226,702;13068,892;78,90115
 983,29;10260,877;  195,240;12960,431;78,85222
 983,84;10224,646;  212,856;12819,046;79,41963
 984,39;10221,492;  247,471;12780,277;79,58331
 984,94;10128,877;  190,471;12605,277;80,05285
 985,49;10110,415;  229,010;12594,200;79,91309
 986,03;10027,954;  240,856;12523,431;79,68279
 986,58; 9946,646;  246,240;12336,354;80,23420
 987,13; 9909,031;  218,240;12182,662;80,99673
 987,68; 9852,800;  230,163;12091,585;81,12549
 988,23; 9894,031;  229,933;12044,508;81,79810
 988,78; 9761,954;  214,317;11896,508;81,72814
 989,33; 9727,031;  228,471;11790,969;82,14972
 989,88; 9715,877;  235,394;11768,508;82,20228
 990,42; 9585,185;  219,625;11560,354;82,58340
 990,97; 9443,262;  216,856;11451,354;82,12566
 991,52; 9446,646;  239,779;11399,585;82,50025
 992,07; 9449,877;  244,394;11279,277;83,42166
 992,62; 9338,877;  230,163;11193,431;83,08393
 993,17; 9320,492;  230,471;11045,662;84,04865
 993,71; 9206,954;  222,471;10962,046;83,65771
 994,26; 9130,877;  199,471;10790,431;84,33047
 994,81; 9109,646;  232,779;10751,969;84,38736
 995,36; 8984,569;  218,702;10593,046;84,49563
 995,91; 8982,954;  223,317;10579,277;84,58546
 996,45; 8860,108;  228,548;10423,046;84,66880
 997,00; 8778,877;  199,471;10229,431;85,53779
 997,55; 8733,569;  216,702;10290,815;84,54210
 998,10; 8686,108;  247,317;10106,662;85,59180
 998,65; 8621,108;  218,779;10045,662;85,50350
 999,19; 8527,031;  237,317; 9846,277;86,27067
 999,74; 8466,800;  252,779; 9788,892;86,13594
1000,29; 8404,877;  227,933; 9701,815;86,31038
1000,84; 8267,646;  216,317; 9565,969;86,11367
1001,38; 8202,338;  220,702; 9439,508;86,57994
1001,93; 8138,262;  237,087; 9388,585;86,33750
1002,48; 8074,262;  203,087; 9251,662;86,98801
1003,03; 8066,031;  221,856; 9196,969;87,39917
1003,57; 7941,954;  231,087; 9100,738;86,93540
1004,12; 7909,877;  245,010; 8986,123;87,68754
1004,67; 7870,031;  214,779; 8895,277;88,18909
1005,22; 7703,338;  210,933; 8746,969;87,77382
1005,76; 7591,185;  205,548; 8598,431;87,99881
1006,31; 7644,569;  242,625; 8582,508;88,75358
1006,86; 7513,262;  211,010; 8482,738;88,27963
1007,40; 7388,800;  196,471; 8278,046;88,99662
1007,95; 7293,877;  215,163; 8231,277;88,30605
1008,50; 7225,646;  218,933; 8077,508;89,16010
1009,04; 7165,338;  225,625; 8005,123;89,20516
1009,59; 7027,646;  231,625; 7830,585;89,43357
1010,14; 6945,492;  211,471; 7737,277;89,47907
1010,68; 6859,262;  219,087; 7635,585;89,53248
1011,23; 6780,954;  200,548; 7480,662;90,38878
1011,78; 6687,108;  229,856; 7416,508;89,85063
1012,32; 6608,031;  217,240; 7308,738;90,11905
1012,87; 6598,723;  244,933; 7266,738;90,48656
1013,42; 6512,108;  209,240; 7137,046;90,97927
1013,96; 6573,031;  242,163; 7109,815;92,18387
1014,51; 6429,031;  195,779; 6996,431;91,65668
1015,06; 6431,800;  196,471; 7019,431;91,38745
1015,60; 6499,646;  260,702; 7074,738;91,56018
1016,15; 6466,185;  215,394; 7027,354;91,76200
1016,69; 6532,262;  210,702; 7032,892;92,66173
1017,24; 6549,338;  201,625; 7041,277;92,80755
1017,79; 6608,492;  236,625; 7133,046;92,39383
1018,33; 6614,185;  196,856; 7086,431;93,14550
1018,88; 6640,492;  217,856; 7119,123;93,06460
1019,42; 6684,954;  221,625; 7189,431;92,75989
1019,97; 6675,569;  212,010; 7144,431;93,23668
1020,51; 6776,954;  216,317; 7204,585;93,88073
1021,06; 6722,492;  211,240; 7194,277;93,24385
1021,61; 6689,723;  190,087; 7111,277;93,90923
1022,15; 6666,723;  171,856; 7116,969;93,51708
1022,70; 6672,338;  215,856; 7101,815;93,76301
1023,24; 6598,954;  204,548; 7089,123;92,88018
1023,79; 6575,877;  220,163; 7016,892;93,51136
1024,33; 6586,877;  218,087; 7014,508;93,70800
1024,88; 6496,492;  219,240; 6898,200;93,98548
1025,42; 6405,723;  201,779; 6767,585;94,48870
1025,97; 6304,338;  203,933; 6709,815;93,76753
1026,51; 6193,031;  173,087; 6576,123;94,01702
1027,06; 6138,877;  209,317; 6514,508;94,04252
1027,60; 6017,338;  207,702; 6401,508;93,79753
1028,15; 5991,877;  221,087; 6325,200;94,53937
1028,69; 5867,185;  174,317; 6191,277;94,61369
1029,24; 5823,031;  207,933; 6127,738;94,85274
1029,78; 5695,031;  205,779; 6030,892;94,23425
1030,33; 5603,262;  177,933; 5875,969;95,21401
1030,87; 5572,492;  206,471; 5843,354;95,19483
1031,42; 5506,262;  194,933; 5743,123;95,73083
1031,96; 5444,569;  212,317; 5674,431;95,79171
1032,51; 5329,492;  199,317; 5561,277;95,67724
1033,05; 5313,338;  208,163; 5559,431;95,40123
1033,60; 5203,185;  174,933; 5420,508;95,85702
1034,14; 5127,569;  199,933; 5322,815;96,18874
1034,69; 5107,338;  199,317; 5278,585;96,62853
1035,23; 4999,954;  204,702; 5203,662;95,92500
1035,77; 4965,108;  196,087; 5102,969;97,19045
1036,32; 4884,185;  180,779; 5061,277;96,37143
1036,86; 4840,877;  198,163; 5007,200;96,54145
1037,41; 4772,262;  204,625; 4916,046;96,94817
1037,95; 4678,185;  183,933; 4840,200;96,52049
1038,50; 4633,262;  196,240; 4790,200;96,58381
1039,04; 4592,031;  203,779; 4734,585;96,85368
1039,58; 4517,723;  192,010; 4634,892;97,36277
1040,13; 4450,185;  201,471; 4572,431;97,20322
1040,67; 4419,031;  223,394; 4554,431;96,87373
1041,21; 4363,646;  228,317; 4467,892;97,54112
1041,76; 4283,262;  176,471; 4386,431;97,54940
1042,30; 4276,646;  210,471; 4333,738;98,61536
1042,85; 4174,338;  207,856; 4276,046;97,49993
1043,39; 4132,108;  190,010; 4189,123;98,57430
1043,93; 4100,031;  217,394; 4146,431;98,81905
1044,48; 4033,877;  205,548; 4087,123;98,62823
1045,02; 3986,262;  202,856; 4031,046;98,83014
1045,56; 3966,108;  210,548; 3970,969;99,87072
1046,11; 3905,877;  210,394; 3918,277;99,66558
1046,65; 3833,800;  208,779; 3887,123;98,55035
1047,19; 3771,338;  198,779; 3772,354;99,97159
1047,74; 3726,415;  182,856; 3709,354;100,48381
1048,28; 3642,954;  210,779; 3699,123;98,38980
1048,82; 3627,185;  222,625; 3665,508;98,88689
1049,37; 3587,569;  205,240; 3596,738;99,72964
1049,91; 3574,569;  197,548; 3556,892;100,52620
1050,45; 3476,800;  228,317; 3497,738;99,35957
1050,99; 3426,185;  207,856; 3457,277;99,04314
1051,54; 3368,108;  196,933; 3406,969;98,78937
1052,08; 3379,954;  215,010; 3390,508;99,66765
1052,62; 3294,954;  221,548; 3324,277;99,05493
1053,16; 3255,108;  192,702; 3260,046;99,83900
1053,71; 3204,723;  215,856; 3214,123;99,68649
1054,25; 3173,877;  223,779; 3169,892;100,13525
1054,79; 3133,108;  211,933; 3115,354;100,61148
1055,33; 3052,492;  183,163; 3065,123;99,56173
1055,88; 3031,338;  227,317; 3055,123;99,15890
1056,42; 3018,569;  234,702; 3005,662;100,46582
1056,96; 2976,723;  221,240; 2946,508;101,10871
1057,50; 2931,877;  201,240; 2901,738;101,11603
1058,05; 2900,877;  212,625; 2862,354;101,45385
1058,59; 2865,338;  228,163; 2863,431;100,07239
1059,13; 2807,800;  196,163; 2778,892;101,11927
1059,67; 2798,185;  229,163; 2767,354;101,21468
1060,21; 2749,569;  218,240; 2707,815;101,67715
1060,76; 2721,492;  221,779; 2650,815;102,90967
1061,30; 2710,492;  232,010; 2631,815;103,27847
1061,84; 2639,569;  211,471; 2589,585;102,10186
1062,38; 2591,108;  205,317; 2537,738;102,28815
1062,92; 2594,108;  243,317; 2551,277;101,85579
1063,46; 2561,338;  229,933; 2483,585;103,45013
1064,01; 2506,031;  208,317; 2434,892;103,19497
1064,55; 2479,492;  217,163; 2405,431;103,38448
1065,09; 2417,877;  186,779; 2359,815;102,67191
1065,63; 2446,723;  232,471; 2386,508;102,79547
1066,17; 2416,262;  234,010; 2342,508;103,49793
1066,71; 2387,954;  230,087; 2316,969;103,40147
1067,25; 2357,415;  212,471; 2262,969;104,60601
1067,80; 2350,031;  233,163; 2246,123;105,16194
1068,34; 2320,800;  237,471; 2246,585;103,69394
1068,88; 2253,723;  213,087; 2162,431;104,68323
1069,42; 2267,415;  248,779; 2180,585;104,49480
1069,96; 2220,723;  218,625; 2115,738;105,53391
1070,50; 2249,954;  245,317; 2124,123;106,69738
1071,04; 2188,800;  212,394; 2064,354;106,71970
1071,58; 2156,031;  221,548; 2029,123;107,02088
1072,12; 2127,877;  212,625; 2019,892;105,97502
1072,66; 2091,185;  211,240; 1998,354;105,19445
1073,21; 2093,031;  230,163; 2000,738;105,21256
1073,75; 2062,108;  223,163; 1961,585;105,78244
1074,29; 2047,569;  230,087; 1930,277;106,89877
1074,83; 2052,800;  228,163; 1910,046;108,48774
1075,37; 2003,569;  226,856; 1907,508;105,71573
1075,91; 1996,415;  233,240; 1899,738;105,80120
1076,45; 1964,569;  229,317; 1849,662;107,09156
1076,99; 1920,492;  222,933; 1827,431;105,80004
1077,53; 1897,262;  207,625; 1766,200;108,40906
1078,07; 1897,646;  232,933; 1774,738;107,97167
1078,61; 1864,031;  223,087; 1751,123;107,38907
1079,15; 1839,723;  220,548; 1742,431;106,39289
1079,69; 1833,569;  234,933; 1710,200;108,36250
1080,23; 1811,415;  232,240; 1702,046;107,44107
1080,77; 1827,338;  252,240; 1702,354;108,61895
1081,31; 1750,723;  217,240; 1635,969;108,08850
1081,85; 1751,569;  233,240; 1652,508;106,97977
1082,39; 1701,415;  221,394; 1597,354;107,56283
1082,93; 1700,723;  216,010; 1611,892;106,36377
1083,47; 1658,800;  207,625; 1568,123;106,66498
1084,01; 1681,877;  236,625; 1576,046;107,90123
1084,55; 1629,877;  216,163; 1516,738;108,69911
1085,09; 1626,800;  227,317; 1543,277;106,34693
1085,63; 1626,031;  219,394; 1525,662;107,68367
1086,17; 1581,877;  213,394; 1487,892;107,37425
1086,71; 1565,415;  214,087; 1471,277;107,48800
1087,24; 1589,723;  237,625; 1468,662;109,83411
1087,78; 1559,723;  235,702; 1460,662;108,08692
1088,32; 1521,108;  221,548; 1420,662;108,37670
1088,86; 1511,646;  241,702; 1424,508;107,36710
1089,40; 1518,492;  226,779; 1386,431;111,38803
1089,94; 1471,492;  193,702; 1343,815;111,10125
1090,48; 1464,569;  233,779; 1347,969;110,46500
1091,02; 1459,185;  229,933; 1353,431;109,41291
1091,56; 1429,723;  238,702; 1347,277;107,43713
1092,10; 1414,569;  207,240; 1278,892;112,66054
1092,63; 1413,569;  235,317; 1306,662;109,97884
1093,17; 1389,415;  223,625; 1280,969;110,25647
1093,71; 1367,492;  211,548; 1279,815;108,20740
1094,25; 1388,031;  246,010; 1260,662;112,55300
1094,79; 1331,954;  223,163; 1235,123;109,56864
1095,33; 1317,800;  229,394; 1229,585;108,81986
1095,87; 1309,646;  223,471; 1204,508;110,71708
1096,40; 1269,877;  200,548; 1177,277;109,48063
1096,94; 1290,262;  220,087; 1190,508;110,27944
1097,48; 1275,646;  224,240; 1172,354;110,89451
1098,02; 1241,800;  222,087; 1139,277;111,17795
1098,56; 1216,877;  200,548; 1117,354;110,85542
1099,10; 1196,877;  202,933; 1101,892;110,56606
1099,63; 1194,569;  211,933; 1091,969;111,65861
1100,17; 1185,031;  228,471; 1098,431;109,95449
1100,71; 1190,492;  240,779; 1111,508;109,07109

