
Integration time [ms]: 115,000
Averaging Nr. [scans]: 13
Smoothing Nr. [pixels]: 0
Data measured with spectrometer [name]: 2009305U1
Wave   ;Sample   ;Dark     ;Reference;Reflectance
[nm]   ;[counts] ;[counts] ;[counts] ;[%]

 175,72;  190,844;  176,239;  192,535;89,61894
 176,32;  223,829;  211,934;  210,654; 0,00000
 176,92;  233,524;  225,163;  228,142;280,66395
 177,52;  262,796;  252,086;  251,024; 0,00000
 178,12;  239,703;  223,549;  212,736; 0,00000
 178,72;  249,011;  243,857;  232,990; 0,00000
 179,32;  229,889;  236,780;  232,605; 0,00000
 179,92;  245,265;  232,933;  233,930; 0,00000
 180,52;  243,574;  234,084;  244,758;88,90633
 181,12;  241,135;  235,010;  240,995;102,34099
 181,73;  260,779;  253,163;  254,844;453,17882
 182,33;  317,631;  298,008;  297,582; 0,00000
 182,93;  255,422;  245,240;  250,595;190,12134
 183,53;  235,145;  227,319;  217,483; 0,00000
 184,13;  236,961;  231,011;  221,458; 0,00000
 184,73;  269,011;  249,935;  249,706; 0,00000
 185,33;  268,783;  222,716;  326,527;44,37603
 185,93;  269,757;  214,717;  353,127;39,76603
 186,53;  277,578;  241,332;  365,557;29,17806
 187,13;  309,484;  264,099;  400,362;33,30683
 187,73;  275,930;  220,102;  360,559;39,74746
 188,33;  274,273;  227,718;  355,547;36,42019
 188,93;  285,182;  231,182;  389,767;34,05105
 189,53;  288,992;  240,799;  397,281;30,79749
 190,13;  321,042;  271,649;  418,569;33,61918
 190,73;  263,959;  217,185;  353,690;34,26591
 191,34;  308,889;  254,183;  378,073;44,15674
 191,94;  268,930;  227,565;  351,476;33,38276
 192,54;  278,583;  237,868;  391,072;26,57616
 193,14;  292,906;  248,715;  367,171;37,30550
 193,74;  276,645;  249,561;  377,015;21,24945
 194,34;  279,964;  235,099;  373,562;32,40204
 194,94;  246,916;  206,792;  326,435;33,53670
 195,54;  234,102;  196,177;  306,559;34,35818
 196,14;  258,143;  218,484;  345,393;31,25039
 196,74;  248,121;  211,331;  332,860;30,27220
 197,34;  237,395;  187,252;  341,491;32,50977
 197,94;  256,814;  225,715;  366,581;22,07724
 198,54;  266,050;  217,484;  375,036;30,82544
 199,14;  256,021;  197,636;  374,578;32,99665
 199,74;  244,318;  198,097;  374,544;26,19502
 200,34;  237,550;  186,097;  382,388;26,21276
 200,94;  278,755;  223,637;  423,813;27,53486
 201,54;  264,947;  202,328;  426,059;27,98825
 202,14;  281,066;  211,635;  454,454;28,59346
 202,74;  270,751;  204,328;  459,386;26,04225
 203,34;  256,374;  195,558;  484,506;21,04755
 203,94;  240,089;  163,635;  488,134;23,56061
 204,54;  306,711;  228,869;  576,728;22,37756
 205,14;  276,312;  199,405;  583,682;20,01336
 205,74;  317,165;  218,481;  689,034;20,97192
 206,34;  286,367;  197,405;  695,130;17,87387
 206,94;  310,915;  203,328;  758,320;19,38528
 207,54;  290,801;  180,251;  808,972;17,58330
 208,14;  315,094;  195,097;  884,612;17,40310
 208,74;  326,130;  194,559;  973,216;16,89713
 209,34;  341,560;  193,636; 1035,192;17,57748
 209,94;  380,334;  202,328; 1138,209;19,02016
 210,54;  381,102;  198,866; 1278,087;16,88586
 211,14;  396,202;  209,174; 1387,429;15,87325
 211,73;  404,511;  201,175; 1481,066;15,88703
 212,33;  432,996;  218,791; 1621,615;15,26960
 212,93;  434,074;  196,636; 1687,436;15,92689
 213,53;  422,658;  181,790; 1751,490;15,34482
 214,13;  450,121;  176,403; 1840,494;16,44849
 214,73;  441,681;  178,481; 1882,146;15,44902
 215,33;  423,950;  156,405; 1881,671;15,50744
 215,93;  489,922;  188,327; 2004,541;16,60572
 216,53;  460,771;  142,559; 2120,685;16,08656
 217,13;  543,074;  210,866; 2330,389;15,67374
 217,73;  578,440;  181,250; 2511,243;17,04681
 218,33;  589,013;  162,403; 2717,931;16,69361
 218,93;  663,589;  172,632; 3034,286;17,15639
 219,53;  720,233;  174,942; 3329,667;17,28491
 220,13;  774,687;  151,557; 3630,169;17,91319
 220,73;  876,851;  167,405; 4022,604;18,40233
 221,32;  948,822;  178,251; 4438,831;18,08605
 221,92; 1052,318;  192,249; 4839,758;18,50602
 222,52; 1132,006;  172,558; 5288,171;18,75530
 223,12; 1230,205;  167,481; 5667,302;19,32289
 223,72; 1341,810;  185,019; 6101,038;19,55353
 224,32; 1435,349;  176,865; 6457,959;20,03606
 224,92; 1505,854;  175,404; 6750,553;20,23453
 225,52; 1589,519;  188,020; 7141,364;20,15576
 226,12; 1699,838;  182,327; 7406,758;21,00526
 226,72; 1750,513;  155,174; 7753,787;20,99513
 227,31; 1837,787;  151,251; 8116,765;21,17298
 227,91; 1992,172;  174,405; 8483,173;21,87769
 228,51; 2077,394;  177,790; 8858,954;21,88190
 229,11; 2203,792;  166,020; 9259,013;22,41036
 229,71; 2261,513;  168,175; 9549,448;22,31402
 230,31; 2390,539;  163,326; 9978,285;22,69202
 230,91; 2453,779;  163,483;10275,130;22,65008
 231,51; 2589,560;  147,173;10535,529;23,51081
 232,10; 2676,585;  152,172;10961,492;23,35404
 232,70; 2764,810;  167,484;11191,562;23,56049
 233,30; 2897,955;  192,789;11484,718;23,95663
 233,90; 2947,152;  163,789;11681,157;24,16666
 234,50; 3002,005;  175,558;11834,788;24,24215
 235,10; 3052,547;  157,404;11945,630;24,55962
 235,70; 3130,012;  192,020;12055,542;24,76492
 236,29; 3123,058;  182,251;12046,002;24,78817
 236,89; 3125,104;  165,022;12027,332;24,95368
 237,49; 3162,667;  177,173;11955,862;25,34657
 238,09; 3112,137;  176,789;11831,592;25,18573
 238,69; 3116,286;  193,099;11562,206;25,71167
 239,29; 3010,729;  168,328;11357,605;25,40290
 239,89; 2941,907;  178,791;11119,277;25,25588
 240,48; 2832,027;  173,635;10750,647;25,13367
 241,08; 2765,805;  163,097;10440,606;25,32430
 241,68; 2709,670;  198,558;10197,575;25,11359
 242,28; 2546,311;  162,404; 9835,559;24,64456
 242,88; 2473,880;  190,480; 9551,769;24,39194
 243,48; 2378,524;  192,250; 9275,819;24,06845
 244,07; 2252,215;  186,482; 9060,382;23,27876
 244,67; 2231,919;  188,943; 8907,392;23,43279
 245,27; 2108,973;  182,329; 8765,066;22,44790
 245,87; 2079,626;  184,096; 8715,012;22,21953
 246,47; 1989,775;  172,329; 8647,318;21,44482
 247,06; 1963,943;  169,097; 8751,863;20,91221
 247,66; 1919,061;  170,943; 8780,591;20,30417
 248,26; 1925,628;  208,559; 8853,410;19,86233
 248,86; 1899,600;  189,559; 9072,867;19,25004
 249,46; 1855,417;  150,789; 9304,178;18,62292
 250,05; 1930,202;  191,405; 9678,021;18,32895
 250,65; 1881,719;  158,636; 9992,771;17,52144
 251,25; 1882,150;  179,713;10456,645;16,56562
 251,85; 1948,396;  182,329;11040,821;16,26438
 252,44; 1983,327;  147,251;11634,425;15,98371
 253,04; 2106,851;  180,559;12375,450;15,79590
 253,64; 2137,294;  144,175;13037,657;15,45835
 254,24; 2261,366;  186,559;13945,362;15,07986
 254,84; 2352,186;  175,712;14824,332;14,85788
 255,43; 2431,784;  178,713;15804,177;14,41923
 256,03; 2570,724;  163,329;16686,096;14,57017
 256,63; 2688,994;  176,868;17730,541;14,31112
 257,23; 2778,528;  165,098;18502,985;14,25153
 257,82; 2899,307;  177,022;19401,582;14,16045
 258,42; 3003,847;  132,484;20180,526;14,32241
 259,02; 3152,999;  174,636;21054,511;14,26428
 259,62; 3285,197;  159,792;21613,506;14,56813
 260,21; 3355,344;  177,328;22121,013;14,48260
 260,81; 3462,090;  170,481;22596,055;14,67792
 261,41; 3524,624;  166,176;22930,924;14,75285
 262,01; 3616,210;  195,023;23398,867;14,74405
 262,60; 3691,759;  161,483;23604,446;15,05900
 263,20; 3793,583;  164,944;23926,742;15,27089
 263,80; 3882,820;  182,562;23990,851;15,54189
 264,40; 3946,618;  145,484;24149,854;15,83517
 264,99; 4044,698;  179,331;24276,797;16,04056
 265,59; 4113,568;  164,255;24468,447;16,24951
 266,19; 4198,886;  164,638;24545,895;16,54651
 266,78; 4360,535;  198,716;24673,094;17,00480
 267,38; 4368,987;  172,332;24624,851;17,16247
 267,98; 4459,129;  158,331;24699,335;17,52494
 268,58; 4521,493;  177,562;24623,983;17,76919
 269,17; 4598,029;  165,332;24587,470;18,15032
 269,77; 4661,893;  182,945;24431,709;18,47083
 270,37; 4650,615;  150,485;24336,935;18,60600
 270,96; 4757,598;  204,253;24220,378;18,95953
 271,56; 4753,500;  167,868;23947,904;19,28354
 272,16; 4775,519;  169,176;23816,919;19,47900
 272,75; 4847,207;  166,561;23679,287;19,90686
 273,35; 4935,736;  173,099;23630,866;20,30303
 273,95; 4954,888;  175,176;23590,407;20,41283
 274,54; 5022,888;  155,251;23590,698;20,77041
 275,14; 5215,852;  180,253;23998,596;21,14169
 275,74; 5261,646;  144,022;24084,606;21,37635
 276,33; 5456,228;  190,099;24442,945;21,71345
 276,93; 5564,154;  175,943;24787,025;21,89344
 277,53; 5773,662;  174,867;25274,354;22,30641
 278,12; 5967,656;  157,252;25742,978;22,70955
 278,72; 6177,293;  194,867;26377,327;22,84898
 279,32; 6392,309;  165,713;26948,301;23,24867
 279,91; 6657,120;  163,021;27660,590;23,61699
 280,51; 6872,701;  173,251;28124,238;23,96856
 281,11; 7120,702;  174,098;28951,875;24,13878
 281,70; 7309,591;  153,098;29289,701;24,56187
 282,30; 7553,807;  159,098;29882,442;24,87846
 282,90; 7784,835;  169,945;30322,371;25,25465
 283,49; 8089,187;  186,099;30893,525;25,73673
 284,09; 8305,195;  190,714;31268,823;26,10996
 284,69; 8532,193;  189,175;31701,186;26,47568
 285,28; 8761,206;  191,867;32001,395;26,93953
 285,88; 8971,085;  199,022;32204,771;27,40777
 286,47; 9137,692;  175,329;32254,866;27,93794
 287,07; 9352,627;  203,944;32349,873;28,45985
 287,67; 9612,293;  190,789;32540,819;29,12363
 288,26; 9796,759;  169,559;32393,038;29,87635
 288,86; 9999,860;  172,175;32475,048;30,42356
 289,46;10267,560;  170,636;32616,984;31,11883
 290,05;10575,776;  162,251;32659,063;32,04476
 290,65;10878,657;  175,252;32837,768;32,76969
 291,24;11152,859;  189,559;32846,641;33,57097
 291,84;11463,994;  182,406;33108,541;34,26332
 292,44;11864,481;  176,327;33215,378;35,37679
 293,03;12093,381;  230,636;33279,207;35,89488
 293,63;12336,878;  170,022;33558,272;36,44053
 294,22;12665,796;  194,175;33609,771;37,32275
 294,82;12868,273;  181,561;33694,123;37,85659
 295,41;12897,899;  153,944;33405,778;38,32557
 296,01;13095,435;  217,176;33315,366;38,90926
 296,61;13156,315;  179,559;33087,471;39,43354
 297,20;13072,727;  182,638;32727,854;39,60671
 297,80;13137,795;  187,635;32483,187;40,09890
 298,39;13131,396;  163,868;32117,898;40,58182
 298,99;13044,554;  175,638;31987,785;40,45284
 299,58;13061,160;  186,558;31903,194;40,59258
 300,18;13038,156;  207,097;31634,199;40,82801
 300,78;12851,279;  169,405;31248,968;40,80454
 301,37;12946,471;  186,639;31248,200;41,07917
 301,97;12996,450;  182,021;31203,424;41,30835
 302,56;12912,663;  166,099;31192,784;41,08259
 303,16;12921,612;  155,099;31139,100;41,20356
 303,75;12900,780;  174,405;31130,312;41,11130
 304,35;13053,276;  163,635;31375,055;41,29784
 304,94;13058,643;  180,098;31411,616;41,23573
 305,54;13016,899;  203,636;31326,908;41,16940
 306,13;12909,040;  149,173;31256,038;41,01946
 306,73;12920,816;  165,404;31021,614;41,33823
 307,33;12841,897;  185,020;31002,479;41,07048
 307,92;12811,260;  169,944;31026,844;40,96755
 308,52;12935,001;  165,099;31545,656;40,69368
 309,11;13122,434;  172,638;31967,983;40,72859
 309,71;13130,227;  155,177;32273,763;40,39733
 310,30;13181,419;  157,098;32512,708;40,25367
 310,90;13253,880;  179,329;32754,785;40,13621
 311,49;13289,545;  182,559;32933,165;40,02059
 312,09;13288,805;  142,636;33146,067;39,83273
 312,68;13400,119;  201,790;33436,875;39,71204
 313,28;13363,029;  152,559;33623,921;39,46798
 313,87;13368,440;  150,482;33764,236;39,32306
 314,47;13386,052;  167,253;34029,596;39,03687
 315,06;13324,958;  148,405;34111,168;38,79706
 315,66;13351,728;  158,943;34272,452;38,67320
 316,25;13201,409;  140,406;34269,797;38,26908
 316,85;13084,887;  139,559;34269,314;37,92974
 317,44;13100,985;  158,561;34432,015;37,76224
 318,04;12898,406;  148,945;34411,623;37,21093
 318,63;12834,602;  148,712;34462,125;36,97064
 319,22;12759,344;  174,253;34628,829;36,52662
 319,82;12653,568;  176,483;34649,175;36,19411
 320,41;12488,877;  161,945;34655,273;35,73715
 321,01;12410,787;  171,020;34713,019;35,43445
 321,60;12300,068;  166,714;34772,521;35,06161
 322,20;12137,145;  161,405;34695,805;34,67771
 322,79;12024,975;  191,790;34850,679;34,14185
 323,39;11905,088;  168,250;34912,111;33,78104
 323,98;11811,668;  153,251;34916,754;33,53637
 324,58;11611,018;  157,176;34675,705;33,18172
 325,17;11442,157;  167,637;34671,884;32,67575
 325,76;11248,110;  182,867;34580,632;32,16849
 326,36;10957,507;  147,174;34117,564;31,82281
 326,95;10803,833;  174,406;33836,427;31,57691
 327,55;10553,699;  161,560;33520,110;31,15285
 328,14;10285,933;  160,558;33117,059;30,72345
 328,74;10097,136;  193,637;32732,125;30,43626
 329,33; 9857,023;  182,328;32375,960;30,05158
 329,92; 9501,935;  159,869;31801,790;29,52433
 330,52; 9223,483;  177,097;31099,937;29,25471
 331,11; 9034,162;  174,790;30776,263;28,95080
 331,71; 8716,889;  171,560;30201,743;28,45580
 332,30; 8505,643;  186,406;29712,539;28,17584
 332,89; 8273,610;  194,867;29225,340;27,82849
 333,49; 8010,926;  191,483;28574,245;27,54997
 334,08; 7780,914;  176,252;28174,984;27,16074
 334,68; 7548,886;  178,944;27803,132;26,67931
 335,27; 7362,650;  189,097;27452,276;26,31224
 335,86; 7215,008;  198,252;27217,493;25,96948
 336,46; 7043,304;  178,404;26985,698;25,60833
 337,05; 6871,898;  173,175;26844,625;25,11571
 337,65; 6750,364;  154,252;26679,950;24,86688
 338,24; 6681,465;  213,636;26662,991;24,45363
 338,83; 6570,333;  192,482;26559,364;24,18887
 339,43; 6438,140;  167,791;26490,296;23,82125
 340,02; 6368,568;  173,945;26460,814;23,56546
 340,61; 6271,942;  160,482;26450,042;23,24672
 341,21; 6230,212;  202,099;26525,356;22,90033
 341,80; 6095,650;  167,483;26395,347;22,60255
 342,40; 6054,660;  184,866;26520,310;22,28857
 342,99; 6015,071;  176,482;26590,724;22,10394
 343,58; 5937,407;  171,251;26799,037;21,65466
 344,18; 5909,315;  187,789;26927,678;21,39697
 344,77; 5885,749;  173,791;27249,512;21,09624
 345,36; 5830,448;  152,944;27536,350;20,73337
 345,96; 5865,594;  186,790;27873,058;20,51127
 346,55; 5850,896;  159,250;28092,072;20,37619
 347,14; 5854,478;  148,712;28451,228;20,15993
 347,74; 5837,801;  134,941;28878,440;19,84052
 348,33; 5911,146;  176,788;29514,865;19,54579
 348,92; 5991,515;  182,864;30117,098;19,40471
 349,52; 6023,127;  153,249;30612,640;19,27116
 350,11; 5976,226;  164,330;30817,101;18,96043
 350,70; 5955,431;  157,636;30903,586;18,85710
 351,29; 5849,117;  151,793;30588,226;18,71876
 351,89; 5822,264;  176,946;30619,087;18,54442
 352,48; 5718,919;  148,098;30627,899;18,27709
 353,07; 5688,134;  171,481;30594,341;18,13325
 353,67; 5621,208;  187,941;30615,020;17,85668
 354,26; 5509,572;  177,943;30339,046;17,67717
 354,85; 5464,706;  180,097;30180,462;17,61515
 355,45; 5391,863;  150,483;29943,606;17,59258
 356,04; 5308,195;  171,712;29893,214;17,28204
 356,63; 5235,949;  194,637;29646,157;17,11732
 357,22; 5168,873;  182,254;29531,018;16,99090
 357,82; 5092,943;  179,254;29412,827;16,80838
 358,41; 5067,055;  183,944;29233,775;16,80943
 359,00; 5010,772;  171,253;29083,346;16,73874
 359,60; 4956,756;  179,559;28951,480;16,60368
 360,19; 4893,861;  167,250;28796,361;16,50981
 360,78; 4869,254;  182,868;28621,698;16,47883
 361,37; 4816,551;  175,637;28351,280;16,47137
 361,97; 4773,702;  177,175;28360,722;16,30926
 362,56; 4695,913;  174,560;28008,778;16,24386
 363,15; 4711,490;  188,252;27715,330;16,43196
 363,74; 4647,365;  173,022;27391,996;16,43832
 364,34; 4591,151;  206,022;27028,560;16,34867
 364,93; 4484,126;  157,484;26611,191;16,35552
 365,52; 4388,239;  145,329;26230,570;16,26556
 366,11; 4337,097;  169,791;26013,164;16,12524
 366,71; 4312,959;  156,791;25573,444;16,35215
 367,30; 4272,569;  165,790;25173,251;16,42221
 367,89; 4269,854;  201,328;25014,215;16,39683
 368,48; 4213,267;  179,561;24687,391;16,45885
 369,07; 4138,277;  181,713;24293,278;16,40940
 369,67; 4102,411;  185,253;23969,510;16,46954
 370,26; 4046,563;  173,867;23750,288;16,42614
 370,85; 4065,761;  174,252;23419,906;16,74080
 371,44; 4021,449;  171,867;23200,195;16,71672
 372,03; 3995,860;  156,637;23001,687;16,80549
 372,63; 3944,916;  153,483;22621,750;16,87461
 373,22; 3981,402;  163,713;22383,812;17,18124
 373,81; 3926,206;  151,098;22159,856;17,15275
 374,40; 3891,180;  157,866;21872,493;17,19262
 374,99; 3896,946;  160,945;21559,161;17,45940
 375,59; 3876,581;  159,635;21256,928;17,61811
 376,18; 3883,556;  193,021;21188,836;17,57748
 376,77; 3886,109;  175,021;21031,787;17,79321
 377,36; 3896,711;  193,098;20976,834;17,81976
 377,95; 3885,861;  179,791;20672,301;18,08500
 378,55; 3881,172;  157,790;20490,712;18,31209
 379,14; 3923,694;  164,637;20451,554;18,52947
 379,73; 3923,301;  170,483;20337,542;18,60865
 380,32; 3985,257;  182,867;20328,079;18,87491
 380,91; 3976,372;  165,330;20225,703;18,99786
 381,50; 4004,286;  181,637;20174,360;19,12020
 382,10; 4031,488;  159,406;20028,463;19,48800
 382,69; 4054,953;  155,867;20054,252;19,59498
 383,28; 4097,123;  188,560;19963,864;19,76487
 383,87; 4096,397;  162,483;19820,765;20,01148
 384,46; 4118,553;  171,330;19805,502;20,10384
 385,05; 4218,193;  193,637;19811,772;20,51447
 385,64; 4239,097;  161,022;19779,703;20,78669
 386,24; 4245,959;  152,869;19726,184;20,91158
 386,83; 4308,722;  186,100;19814,477;21,00338
 387,42; 4374,921;  190,791;19853,559;21,27946
 388,01; 4467,142;  179,178;20058,696;21,56976
 388,60; 4561,637;  176,792;20297,747;21,79243
 389,19; 4680,796;  154,948;20529,242;22,21352
 389,78; 4768,700;  164,025;20730,327;22,38942
 390,37; 4961,916;  214,023;21178,997;22,64679
 390,96; 4993,689;  178,869;21297,684;22,79872
 391,56; 5115,798;  167,794;21560,725;23,12915
 392,15; 5224,164;  162,409;21779,017;23,41604
 392,74; 5320,916;  146,796;21899,600;23,78599
 393,33; 5433,451;  160,256;22240,842;23,88159
 393,92; 5576,596;  189,258;22676,131;23,95770
 394,51; 5672,489;  156,641;22812,881;24,34582
 395,10; 5835,218;  185,414;23107,394;24,64797
 395,69; 5924,671;  170,491;23158,895;25,03080
 396,28; 6013,364;  189,338;23332,404;25,16532
 396,87; 6093,954;  194,724;23432,642;25,38622
 397,46; 6194,914;  190,495;23517,345;25,74038
 398,06; 6307,344;  193,035;23739,316;25,96720
 398,65; 6388,010;  179,116;23844,242;26,23648
 399,24; 6468,295;  198,885;23967,663;26,37666
 399,83; 6545,910;  178,276;24015,052;26,71349
 400,42; 6676,520;  206,819;24111,631;27,06443
 401,01; 6779,249;  178,902;24228,445;27,44479
 401,60; 6845,276;  192,679;24332,471;27,55864
 402,19; 6913,858;  205,069;24190,939;27,96975
 402,78; 6908,687;  220,079;24243,290;27,84227
 403,37; 6938,196;  191,857;24115,970;28,19891
 403,96; 6977,592;  198,098;23946,219;28,54749
 404,55; 7028,244;  217,956;23899,444;28,75785
 405,14; 6999,281;  193,043;23795,008;28,83759
 405,73; 7095,767;  217,671;23725,380;29,25889
 406,32; 7145,095;  206,526;23561,569;29,70908
 406,91; 7094,916;  210,305;23314,445;29,79817
 407,50; 7149,339;  205,002;23171,463;30,23686
 408,09; 7121,617;  180,775;22856,755;30,60879
 408,68; 7146,604;  195,469;22701,974;30,88500
 409,27; 7135,553;  181,543;22490,301;31,17166
 409,86; 7186,095;  200,459;22332,914;31,56286
 410,45; 7230,736;  221,452;22309,180;31,73384
 411,04; 7271,355;  237,138;22209,224;32,01434
 411,63; 7223,533;  220,591;21988,858;32,17042
 412,22; 7238,841;  214,430;21730,760;32,64688
 412,81; 7189,071;  231,119;21497,028;32,71881
 413,40; 7211,710;  243,270;21230,105;33,20386
 413,99; 7121,732;  264,040;20862,371;33,29246
 414,58; 6978,679;  218,885;20502,643;33,32614
 415,17; 6974,983;  213,504;20236,995;33,76773
 415,76; 6970,102;  211,661;20083,093;34,01084
 416,35; 6932,293;  202,582;19885,448;34,19070
 416,94; 7056,119;  227,660;19944,733;34,63221
 417,53; 7129,452;  216,196;20239,624;34,52584
 418,12; 7236,476;  202,580;20197,357;35,17867
 418,71; 7387,865;  227,423;20602,642;35,14289
 419,30; 7461,352;  222,272;20658,743;35,42236
 419,89; 7633,562;  215,887;20802,499;36,03155
 420,48; 7746,486;  237,500;21190,043;35,83806
 421,07; 7839,799;  223,807;21238,266;36,24168
 421,66; 7908,436;  202,883;21206,647;36,68654
 422,25; 7924,043;  215,649;21214,032;36,70947
 422,84; 7963,379;  237,110;21188,859;36,87649
 423,43; 7875,130;  219,265;20942,013;36,94425
 424,02; 7913,828;  235,495;20698,929;37,52221
 424,60; 7717,480;  202,184;20264,036;37,46063
 425,19; 7716,906;  225,647;19981,318;37,91954
 425,78; 7702,600;  240,186;19843,777;38,06657
 426,37; 7683,004;  231,338;19769,546;38,13894
 426,96; 7639,608;  230,723;19718,898;38,01734
 427,55; 7671,057;  219,644;19471,388;38,70513
 428,14; 7588,270;  199,181;19239,909;38,80675
 428,73; 7566,786;  223,337;19054,915;38,99540
 429,32; 7582,908;  235,569;19064,192;39,02218
 429,91; 7669,556;  249,875;19101,452;39,35841
 430,50; 7661,978;  233,797;18979,059;39,62698
 431,08; 7642,445;  250,181;18810,337;39,82867
 431,67; 7661,070;  286,872;18736,709;39,96891
 432,26; 7600,931;  296,102;18505,252;40,11625
 432,85; 7517,313;  317,487;18251,641;40,14589
 433,44; 7419,222;  312,255;17822,772;40,58685
 434,03; 7247,367;  342,022;17493,588;40,26073
 434,62; 7144,778;  310,101;17052,050;40,82367
 435,21; 7089,864;  324,333;16875,056;40,87755
 435,79; 7033,635;  309,330;16672,652;41,09376
 436,38; 7060,741;  310,098;16641,354;41,33573
 436,97; 7011,354;  303,867;16541,488;41,30831
 437,56; 6923,261;  308,941;16361,629;41,20382
 438,15; 6990,418;  281,634;16266,517;41,96956
 438,74; 7008,542;  298,403;16225,568;42,13015
 439,33; 7054,049;  270,711;16224,567;42,51849
 439,91; 7090,749;  236,479;16286,150;42,70660
 440,50; 7126,585;  281,940;16358,193;42,57612
 441,09; 7210,645;  277,400;16474,920;42,80436
 441,68; 7255,238;  268,783;16482,630;43,08943
 442,27; 7251,863;  251,784;16450,381;43,21411
 442,86; 7222,502;  225,473;16453,996;43,11562
 443,44; 7284,539;  238,474;16492,368;43,35001
 444,03; 7362,898;  276,165;16575,720;43,47808
 444,62; 7248,266;  243,934;16483,748;43,13062
 445,21; 7256,119;  252,935;16239,017;43,80801
 445,80; 7238,297;  274,241;16102,317;43,99812
 446,39; 7162,904;  267,549;15872,612;44,18665
 446,97; 7053,200;  231,777;15720,563;44,04104
 447,56; 6994,744;  244,006;15533,741;44,15209
 448,15; 6975,887;  247,008;15307,778;44,67818
 448,74; 6893,059;  263,008;15159,363;44,50787
 449,33; 6765,664;  248,776;14945,360;44,34288
 449,91; 6714,776;  254,928;14774,924;44,48932
 450,50; 6617,497;  236,390;14478,335;44,80503
 451,09; 6612,566;  256,313;14425,761;44,85886
 451,68; 6627,678;  277,004;14318,526;45,22781
 452,26; 6586,768;  263,157;14241,378;45,23903
 452,85; 6535,901;  255,004;14109,720;45,33400
 453,44; 6589,376;  259,540;14159,732;45,53776
 454,03; 6580,873;  235,926;14076,130;45,84431
 454,61; 6571,405;  233,540;14042,889;45,89547
 455,20; 6665,144;  268,000;14246,302;45,76482
 455,79; 6673,866;  265,310;14214,221;45,94305
 456,38; 6776,724;  270,768;14284,751;46,42474
 456,97; 6807,440;  247,461;14415,070;46,30265
 457,55; 6795,324;  258,460;14453,369;46,05076
 458,14; 6859,508;  278,461;14357,288;46,74428
 458,73; 6835,891;  266,075;14319,680;46,74826
 459,31; 6878,852;  297,766;14339,496;46,86805
 459,90; 6868,052;  292,844;14420,902;46,54007
 460,49; 6941,020;  307,613;14465,441;46,85328
 461,08; 6948,238;  260,227;14540,470;46,83402
 461,66; 7007,455;  269,074;14705,695;46,67561
 462,25; 7104,229;  274,765;14768,951;47,11864
 462,84; 7100,729;  305,611;14861,627;46,68254
 463,43; 7068,031;  225,532;14723,671;47,19571
 464,01; 7104,676;  279,839;14804,958;46,98644
 464,60; 7077,597;  298,840;14660,777;47,19946
 465,19; 6985,257;  251,377;14529,914;47,16085
 465,77; 6988,348;  260,222;14500,613;47,24678
 466,36; 6954,278;  279,763;14398,720;47,27343
 466,95; 6836,973;  265,378;14036,410;47,72042
 467,53; 6696,533;  272,683;13795,128;47,50509
 468,12; 6541,848;  290,914;13525,142;47,23309
 468,71; 6452,166;  276,146;13288,632;47,46226
 469,29; 6364,037;  252,144;13019,777;47,87021
 469,88; 6248,780;  266,682;12782,208;47,79742
 470,47; 6317,382;  320,834;12886,030;47,72347
 471,06; 6264,718;  276,142;12797,112;47,82837
 471,64; 6307,066;  281,373;12903,787;47,73803
 472,23; 6318,165;  258,832;12969,427;47,67151
 472,81; 6376,251;  250,218;13064,664;47,80568
 473,40; 6425,528;  267,986;13177,668;47,69709
 473,99; 6615,792;  325,986;13397,075;48,11999
 474,57; 6624,346;  254,986;13550,202;47,90716
 475,16; 6651,408;  283,448;13690,353;47,49761
 475,75; 6757,307;  295,985;13791,964;47,87591
 476,33; 6878,033;  299,676;13939,246;48,22994
 476,92; 6856,740;  296,909;13952,599;48,03734
 477,51; 6888,841;  286,599;14029,615;48,04070
 478,09; 6945,984;  291,061;14052,274;48,36000
 478,68; 6869,258;  288,830;13928,922;48,24328
 479,27; 6889,934;  315,215;13986,380;48,09187
 479,85; 6900,708;  281,368;14001,583;48,24516
 480,44; 6897,999;  273,522;14138,587;47,77819
 481,02; 7456,745;  282,521;15426,629;47,37304
 481,61; 8465,427;  309,060;17352,003;47,85774
 482,20; 9056,058;  303,136;18588,261;47,86909
 482,78; 9522,348;  327,291;19488,567;47,98771
 483,37; 9791,200;  316,827;20006,159;48,11932
 483,95; 9983,895;  356,750;20350,617;48,15049
 484,54;10094,321;  359,752;20511,076;48,30734
 485,13;10034,731;  329,671;20410,228;48,33063
 485,71; 9966,381;  302,980;20145,964;48,69933
 486,30; 9859,755;  341,672;19971,854;48,48698
 486,88; 9742,302;  363,133;19615,481;48,71701
 487,47; 9375,542;  358,133;18959,263;48,47775
 488,05; 8936,926;  344,363;18134,778;48,29884
 488,64; 8366,223;  339,054;16811,390;48,73121
 489,23; 7568,176;  352,516;14894,823;49,61840
 489,81; 6306,141;  354,516;12523,088;48,90981
 490,40; 5931,704;  311,362;12084,382;47,73917
 490,98; 5809,094;  294,285;11786,145;47,98883
 491,57; 5767,310;  322,670;11696,679;47,86914
 492,15; 5721,634;  314,284;11626,681;47,80021
 492,74; 5683,482;  303,671;11589,364;47,66930
 493,32; 5628,016;  323,746;11405,223;47,86609
 493,91; 5604,667;  305,899;11349,295;47,98133
 494,50; 5613,325;  311,051;11349,412;48,03497
 495,08; 5504,478;  304,359;11235,952;47,56964
 495,67; 5562,254;  308,438;11276,291;47,90195
 496,25; 5470,952;  267,591;11130,337;47,90097
 496,84; 5457,731;  273,130;11090,265;47,92952
 497,42; 5477,665;  262,283;11081,382;48,20533
 498,01; 5403,728;  305,745;11021,784;47,57339
 498,59; 5396,694;  249,744;10959,769;48,05731
 499,18; 5382,504;  256,822;10895,491;48,17973
 499,76; 5366,419;  280,821;10812,815;48,28713
 500,35; 5252,226;  273,281;10641,169;48,02274
 500,93; 5206,252;  269,283;10586,762;47,85054
 501,52; 5186,842;  269,129;10561,138;47,78186
 502,10; 5179,530;  269,281;10522,895;47,88799
 502,69; 5082,263;  257,664;10354,216;47,78462
 503,27; 4988,507;  241,974;10217,186;47,58328
 503,86; 4988,551;  252,357;10114,555;48,02372
 504,44; 4904,909;  248,126; 9977,524;47,86302
 505,03; 4785,926;  236,126; 9776,266;47,69112
 505,61; 4758,016;  234,587; 9670,473;47,93857
 506,19; 4677,008;  258,741; 9510,975;47,75351
 506,78; 4551,165;  232,201; 9342,308;47,40849
 507,36; 4519,507;  251,357; 9198,553;47,70378
 507,95; 4401,875;  249,200; 9012,486;47,38719
 508,53; 4373,220;  237,432; 8924,396;47,60913
 509,12; 4295,791;  251,893; 8795,088;47,33472
 509,70; 4208,772;  266,893; 8635,864;47,10112
 510,29; 4172,955;  269,046; 8478,690;47,55273
 510,87; 4036,879;  246,278; 8300,528;47,06336
 511,46; 3960,316;  238,893; 8133,519;47,13869
 512,04; 3871,846;  251,739; 8027,537;46,55609
 512,62; 3803,844;  261,201; 7826,255;46,82906
 513,21; 3697,984;  226,892; 7660,771;46,69287
 513,79; 3646,056;  247,505; 7539,352;46,60754
 514,38; 3561,817;  220,121; 7422,747;46,39553
 514,96; 3526,101;  269,198; 7272,221;46,50711
 515,54; 3448,046;  235,275; 7141,110;46,52256
 516,13; 3436,888;  245,890; 7050,707;46,89323
 516,71; 3355,354;  241,043; 6959,294;46,35598
 517,30; 3285,923;  229,503; 6837,273;46,25493
 517,88; 3248,235;  267,965; 6727,598;46,13684
 518,46; 3185,536;  242,042; 6618,405;46,16259
 519,05; 3177,707;  243,502; 6611,738;46,07564
 519,63; 3137,589;  246,657; 6519,242;46,08836
 520,22; 3085,361;  255,040; 6497,730;45,33817
 520,80; 3054,368;  248,117; 6421,821;45,45490
 521,38; 3083,159;  268,887; 6400,395;45,89853
 521,97; 3003,924;  242,808; 6313,231;45,48473
 522,55; 3015,028;  246,424; 6330,852;45,50311
 523,13; 2987,868;  245,115; 6330,274;45,07283
 523,72; 3004,002;  250,042; 6341,500;45,21021
 524,30; 3059,539;  267,038; 6426,183;45,33910
 524,89; 3051,700;  235,424; 6457,553;45,26226
 525,47; 3074,064;  260,884; 6580,669;44,51386
 526,05; 3119,615;  231,807; 6653,853;44,96710
 526,64; 3194,498;  261,729; 6791,024;44,91709
 527,22; 3238,289;  258,730; 6912,114;44,78261
 527,80; 3331,684;  288,268; 7069,509;44,87993
 528,39; 3349,789;  247,883; 7137,337;45,02397
 528,97; 3416,110;  246,498; 7315,159;44,84034
 529,55; 3504,363;  260,269; 7491,834;44,86019
 530,14; 3619,589;  273,113; 7702,184;45,04568
 530,72; 3619,022;  251,575; 7838,357;44,38571
 531,30; 3668,134;  240,036; 7989,199;44,23830
 531,89; 3735,486;  243,190; 8050,408;44,73163
 532,47; 3794,390;  285,882; 8190,645;44,38474
 533,05; 3846,618;  279,729; 8224,927;44,89365
 533,63; 3843,684;  283,036; 8315,978;44,32558
 534,22; 3844,964;  247,112; 8335,203;44,48332
 534,80; 3868,743;  282,496; 8383,421;44,26960
 535,38; 3955,498;  322,728; 8514,977;44,34399
 535,97; 3870,951;  267,574; 8442,864;44,07644
 536,55; 3886,843;  320,111; 8548,254;43,34796
 537,13; 3862,243;  322,421; 8519,376;43,18460
 537,71; 3851,544;  358,113; 8528,284;42,75836
 538,30; 3837,731;  391,112; 8628,489;41,84122
 538,88; 3901,752;  413,957; 8708,948;42,04700
 539,46; 3970,155;  468,419; 8881,888;41,62059
 540,05; 4018,726;  494,572; 9035,502;41,26195
 540,63; 4090,150;  539,957; 9221,694;40,89266
 541,21; 4166,497;  559,956; 9425,554;40,68017
 541,79; 4185,925;  613,880; 9464,225;40,36052
 542,38; 4248,643;  647,034; 9646,872;40,01859
 542,96; 4314,906;  650,879; 9875,132;39,72167
 543,54; 4369,583;  672,418;10064,358;39,36530
 544,12; 4387,509;  649,726;10209,816;39,09779
 544,70; 4479,181;  620,648;10311,340;39,81690
 545,29; 4527,418;  633,034;10483,042;39,53686
 545,87; 4527,541;  591,187;10508,609;39,69130
 546,45; 4511,801;  556,880;10509,428;39,73778
 547,03; 4536,933;  543,803;10615,416;39,64737
 547,62; 4603,267;  517,187;10722,861;40,03734
 548,20; 4667,454;  496,571;10954,705;39,88171
 548,78; 4708,018;  484,261;11066,773;39,91261
 549,36; 4742,016;  440,954;11265,314;39,73502
 549,94; 4793,358;  398,725;11431,506;39,83250
 550,53; 4919,623;  407,108;11651,379;40,13168
 551,11; 4938,467;  379,876;11893,334;39,59358
 551,69; 5036,037;  379,185;12188,919;39,43232
 552,27; 5145,118;  341,493;12518,730;39,44758
 552,85; 5272,862;  359,261;12838,290;39,37487
 553,44; 5405,724;  341,185;13136,057;39,58257
 554,02; 5542,425;  358,108;13552,069;39,29311
 554,60; 5641,303;  302,184;13924,530;39,19383
 555,18; 5834,214;  330,108;14285,984;39,43934
 555,76; 5967,365;  313,031;14653,965;39,42793
 556,34; 6114,074;  316,491;15063,889;39,31259
 556,93; 6247,764;  307,108;15518,555;39,05385
 557,51; 6357,405;  296,645;15921,031;38,79039
 558,09; 6540,406;  319,185;16333,868;38,84698
 558,67; 6652,323;  311,413;16709,683;38,66816
 559,25; 6736,001;  326,029;16958,808;38,53819
 559,83; 6805,421;  304,874;17274,264;38,30749
 560,41; 6960,709;  295,184;17674,496;38,35322
 561,00; 7036,741;  305,644;18096,935;37,83366
 561,58; 7099,698;  305,184;18289,541;37,78013
 562,16; 7212,978;  291,107;18681,944;37,63761
 562,74; 7311,321;  274,415;18983,448;37,61234
 563,32; 7453,970;  278,182;19485,836;37,35900
 563,90; 7612,955;  298,721;19802,655;37,50133
 564,48; 7700,036;  310,107;20232,719;37,09318
 565,06; 7934,734;  290,644;20847,997;37,18421
 565,65; 8119,271;  295,797;21561,697;36,78882
 566,23; 8361,559;  353,644;22263,545;36,54930
 566,81; 8570,011;  290,106;23073,534;36,34179
 567,39; 8893,660;  312,413;23938,355;36,32129
 567,97; 9066,271;  317,798;24662,383;35,93601
 568,55; 9380,376;  312,721;25479,749;36,02990
 569,13; 9617,197;  300,875;26194,226;35,97959
 569,71; 9905,450;  298,800;27067,131;35,88812
 570,29;10258,912;  340,646;28119,847;35,70393
 570,87;10491,926;  332,800;28927,721;35,52773
 571,45;10643,883;  317,644;29623,518;35,23607
 572,03;10743,003;  271,182;30086,374;35,12243
 572,61;11017,217;  278,567;30750,810;35,24076
 573,20;11217,383;  313,876;31410,734;35,06305
 573,78;11341,602;  300,336;32121,501;34,69787
 574,36;11487,990;  303,490;32588,059;34,64348
 574,94;11543,807;  350,028;33005,086;34,27885
 575,52;11535,495;  322,257;33348,789;33,95221
 576,10;11767,227;  372,181;33880,697;34,00642
 576,68;11898,876;  356,028;34410,072;33,89568
 577,26;12032,369;  376,718;35120,617;33,54733
 577,84;12229,974;  374,259;35593,008;33,66308
 578,42;12258,618;  397,797;35937,350;33,37358
 579,00;12267,080;  367,336;36182,319;33,22560
 579,58;12287,505;  394,951;36359,717;33,06724
 580,16;12213,296;  386,258;36427,299;32,81547
 580,74;12298,297;  393,027;36698,605;32,79185
 581,32;12253,331;  385,489;36651,418;32,72449
 581,90;12235,444;  404,104;36725,667;32,57387
 582,48;12192,928;  394,796;36916,348;32,30457
 583,06;12205,236;  408,489;37079,755;32,16891
 583,64;12137,389;  407,412;37182,141;31,89684
 584,22;12068,152;  409,103;37027,671;31,83917
 584,80;11966,871;  424,950;36779,108;31,74856
 585,38;11746,926;  430,491;36407,829;31,45434
 585,96;11726,450;  400,028;36551,729;31,33026
 586,54;11680,853;  417,411;36518,706;31,19955
 587,12;11704,623;  384,873;36836,575;31,05411
 587,70;11734,528;  411,336;36953,343;30,98678
 588,28;11669,018;  398,335;36934,070;30,84838
 588,86;11669,400;  411,411;37158,665;30,63627
 589,44;11643,375;  381,487;37279,918;30,52132
 590,02;11697,179;  378,718;37582,345;30,42300
 590,59;11707,616;  354,488;37776,921;30,33776
 591,17;11704,811;  357,101;37987,247;30,15590
 591,75;11664,583;  359,025;38145,675;29,91945
 592,33;11722,937;  371,871;38350,828;29,88778
 592,91;11724,033;  326,101;38632,465;29,75467
 593,49;11807,446;  333,947;38951,446;29,71062
 594,07;11818,671;  341,716;39104,046;29,60853
 594,65;11788,596;  357,642;39206,546;29,42414
 595,23;11853,679;  347,718;39593,384;29,31779
 595,81;11826,363;  350,795;39779,116;29,10489
 596,39;11869,254;  349,871;39885,016;29,13707
 596,97;11860,692;  337,178;40222,828;28,89138
 597,55;11756,973;  327,026;39995,585;28,81362
 598,12;11720,592;  316,254;40014,409;28,72763
 598,70;11697,656;  316,870;40175,248;28,55306
 599,28;11694,091;  339,024;40342,396;28,38527
 599,86;11633,337;  330,793;40394,678;28,21130
 600,44;11609,011;  300,024;40641,146;28,03340
 601,02;11632,284;  350,099;40599,747;28,03052
 601,60;11513,127;  330,640;40572,383;27,78828
 602,18;11447,855;  303,946;40581,663;27,66768
 602,75;11400,901;  305,564;40725,348;27,45026
 603,33;11367,893;  325,947;40729,418;27,32920
 603,91;11251,619;  316,792;40636,776;27,12012
 604,49;11301,350;  325,639;40757,478;27,14621
 605,07;11240,748;  334,871;40728,554;26,99897
 605,65;11212,281;  344,485;40791,105;26,86948
 606,23;11149,406;  405,950;41039,681;26,43975
 606,80;11145,637;  452,256;41005,480;26,36876
 607,38;11112,216;  493,638;41150,422;26,11760
 607,96;11012,400;  546,795;41168,080;25,76385
 608,54;11011,556;  594,101;41174,853;25,67093
 609,12;10963,225;  616,641;41306,552;25,42789
 609,70;10890,435;  644,793;41355,437;25,16699
 610,27;10877,256;  652,641;41359,499;25,11767
 610,85;10849,885;  660,024;41483,712;24,96066
 611,43;10781,332;  677,178;41433,814;24,79143
 612,01;10630,417;  640,871;41210,798;24,62303
 612,59;10584,957;  630,947;41220,233;24,52374
 613,16;10528,877;  606,026;41152,539;24,47276
 613,74;10489,943;  579,024;41015,412;24,50990
 614,32;10431,304;  540,408;41101,402;24,38524
 614,90;10304,986;  490,178;40918,799;24,27688
 615,48;10150,143;  452,487;40464,096;24,23710
 616,05;10109,205;  410,180;40483,222;24,20337
 616,63;10008,806;  401,104;40318,655;24,06887
 617,21; 9916,932;  399,718;40241,373;23,88760
 617,79; 9852,397;  387,333;40174,829;23,78904
 618,36; 9720,407;  397,486;40006,763;23,53721
 618,94; 9593,501;  336,410;39753,397;23,48503
 619,52; 9504,846;  365,642;39521,153;23,34079
 620,10; 9411,000;  354,487;39388,721;23,20146
 620,67; 9329,317;  361,873;39318,419;23,01910
 621,25; 9225,265;  372,409;39167,334;22,81962
 621,83; 9166,672;  354,641;39084,754;22,75240
 622,41; 9090,968;  391,026;38977,184;22,54679
 622,98; 9002,954;  364,642;38686,562;22,54144
 623,56; 8924,804;  365,181;38813,734;22,26254
 624,14; 8831,878;  355,409;38569,159;22,18173
 624,72; 8760,605;  341,718;38523,095;22,04972
 625,29; 8726,238;  316,104;38657,806;21,93469
 625,87; 8678,661;  360,641;38546,774;21,78283
 626,45; 8563,154;  314,873;38389,177;21,66364
 627,02; 8494,415;  335,256;38401,416;21,43415
 627,60; 8417,620;  309,331;38247,745;21,37224
 628,18; 8335,686;  300,795;38407,398;21,08530
 628,76; 8313,263;  310,488;38347,407;21,03949
 629,33; 8320,081;  323,334;38402,917;21,00009
 629,91; 8238,615;  314,718;38329,260;20,84439
 630,49; 8225,199;  344,488;38490,667;20,65924
 631,06; 8237,973;  329,411;38713,378;20,60381
 631,64; 8132,462;  330,488;38659,022;20,35552
 632,22; 8027,270;  289,335;38498,083;20,25174
 632,79; 8064,935;  314,489;38859,231;20,10766
 633,37; 8050,439;  297,563;38933,633;20,06642
 633,95; 8006,730;  304,873;39003,600;19,90209
 634,52; 8002,369;  282,103;39130,617;19,87274
 635,10; 7947,317;  293,872;39129,679;19,70719
 635,68; 7960,287;  298,643;39388,902;19,59988
 636,25; 7885,285;  287,567;39270,081;19,49007
 636,83; 7919,263;  278,027;39558,253;19,45314
 637,41; 7853,098;  282,258;39529,959;19,28989
 637,98; 7873,438;  311,182;39727,598;19,18555
 638,56; 7848,227;  313,182;39916,997;19,02606
 639,13; 7789,113;  288,334;39909,502;18,93124
 639,71; 7794,978;  304,950;40113,548;18,81510
 640,29; 7689,067;  256,796;39925,736;18,73574
 640,86; 7708,702;  264,949;40184,562;18,64685
 641,44; 7693,183;  279,949;40078,388;18,62694
 642,02; 7612,433;  299,488;40090,906;18,37820
 642,59; 7603,298;  274,949;40214,885;18,34842
 643,17; 7581,087;  281,334;40217,711;18,27846
 643,74; 7513,260;  280,180;40277,075;18,08410
 644,32; 7497,818;  297,872;40159,824;18,06220
 644,89; 7445,299;  294,641;40232,803;17,90432
 645,47; 7457,857;  303,641;40301,321;17,88658
 646,05; 7350,415;  290,411;40214,993;17,68335
 646,62; 7325,588;  289,641;40043,972;17,69857
 647,20; 7314,300;  289,718;40272,721;17,56892
 647,77; 7253,704;  265,487;40089,931;17,54755
 648,35; 7165,492;  256,026;40063,757;17,35710
 648,92; 7156,435;  298,949;40061,506;17,24609
 649,50; 7136,377;  255,026;40072,947;17,28205
 650,08; 7084,396;  261,410;39830,003;17,24344
 650,65; 7058,570;  262,333;40126,983;17,04828
 651,23; 7108,051;  243,564;40781,193;16,93362
 651,80; 7267,070;  258,179;41812,942;16,86664
 652,38; 7331,166;  261,872;42203,383;16,85513
 652,95; 7315,493;  233,256;42419,747;16,78793
 653,53; 7323,974;  276,564;42711,496;16,60757
 654,10; 7373,455;  289,718;42850,937;16,64364
 654,68; 7327,705;  250,641;42834,224;16,61923
 655,25; 7285,956;  264,872;42856,280;16,48474
 655,83; 7228,129;  245,179;43021,106;16,32448
 656,40; 7221,917;  284,795;43014,547;16,23488
 656,98; 7179,091;  253,179;42886,680;16,24523
 657,55; 7117,956;  261,410;42794,352;16,12056
 658,13; 7032,283;  252,641;42510,870;16,04337
 658,70; 7046,380;  269,102;42238,234;16,14824
 659,28; 6792,014;  260,640;41264,675;15,92861
 659,85; 6654,880;  256,948;40488,270;15,90286
 660,43; 6684,746;  275,948;40627,788;15,88229
 661,00; 6612,226;  262,486;40779,383;15,67183
 661,58; 6651,784;  249,794;41039,132;15,69525
 662,15; 6668,573;  239,333;41294,419;15,66003
 662,73; 6701,977;  299,948;41606,552;15,49880
 663,30; 6690,227;  268,563;41825,301;15,45276
 663,88; 6696,631;  270,948;42051,742;15,37951
 664,45; 6678,343;  255,486;42169,953;15,32372
 665,03; 6741,901;  264,717;42663,547;15,27680
 665,60; 6868,689;  312,102;43031,681;15,34797
 666,17; 6798,401;  271,255;43217,045;15,19857
 666,75; 6853,882;  261,025;43595,255;15,21397
 667,32; 6880,517;  289,948;43882,773;15,11847
 667,90; 6833,305;  266,101;44222,445;14,94029
 668,47; 6901,479;  294,640;44399,809;14,97974
 669,05; 6931,421;  269,486;44814,404;14,95554
 669,62; 6842,748;  245,178;44839,537;14,79463
 670,19; 6869,537;  254,794;45024,055;14,77519
 670,77; 6937,248;  265,793;45142,650;14,86614
 671,34; 6874,883;  268,793;45083,399;14,74093
 671,92; 6933,903;  253,947;45352,917;14,81177
 672,49; 6936,537;  269,947;45434,742;14,76059
 673,06; 6896,249;  224,024;45458,568;14,75029
 673,64; 6860,191;  255,947;45434,625;14,61806
 674,21; 6846,057;  237,255;45375,681;14,64119
 674,79; 6873,538;  262,255;45685,430;14,55487
 675,36; 6882,173;  276,947;45761,640;14,52187
 675,93; 6794,961;  253,332;45644,620;14,41164
 676,51; 6826,519;  281,870;45776,061;14,38568
 677,08; 6814,462;  268,101;45883,502;14,35121
 677,65; 6836,173;  263,947;45972,481;14,37855
 678,23; 6887,577;  268,485;46306,307;14,37751
 678,80; 6808,904;  257,101;46338,209;14,21798
 679,38; 6848,155;  241,639;46545,881;14,26762
 679,95; 6841,636;  267,485;46826,784;14,11995
 680,52; 6847,270;  250,639;47050,917;14,09528
 681,10; 6935,444;  270,331;47495,127;14,11359
 681,67; 6954,078;  272,562;47798,953;14,05854
 682,24; 6930,559;  236,254;47846,856;14,06053
 682,82; 7021,733;  250,716;48419,374;14,05689
 683,39; 7108,213;  279,331;48796,122;14,07530
 683,96; 7141,848;  243,869;49050,333;14,13333
 684,54; 7164,637;  237,408;49433,774;14,08077
 685,11; 7153,810;  268,254;49718,215;13,92429
 685,68; 7263,368;  255,023;50291,117;14,00658
 686,25; 7259,618;  242,254;50335,020;14,00874
 686,83; 7266,637;  243,715;50522,692;13,96791
 687,40; 7296,657;  228,023;50831,517;13,96867
 687,97; 7385,753;  276,331;51254,728;13,94595
 688,55; 7373,696;  237,869;51314,476;13,97083
 689,12; 7354,177;  225,254;51619,687;13,87100
 689,69; 7394,504;  232,023;51565,205;13,95293
 690,26; 7377,985;  242,869;51710,876;13,86321
 690,84; 7419,312;  241,946;51886,164;13,89771
 691,41; 7450,023;  250,638;51992,912;13,91393
 691,98; 7459,658;  256,561;52263,276;13,85032
 692,56; 7464,908;  235,253;52323,564;13,87961
 693,13; 7545,774;  294,869;52434,543;13,90669
 693,70; 7523,562;  274,176;52635,061;13,84504
 694,27; 7501,582;  250,715;52732,887;13,81587
 694,84; 7528,063;  243,561;52812,020;13,85717
 695,42; 7575,313;  284,023;52904,307;13,85643
 695,99; 7546,486;  250,099;53163,364;13,78933
 696,56; 7526,967;  243,099;52917,189;13,82818
 697,13; 7607,448;  264,022;53517,323;13,78962
 697,71; 7566,852;  219,638;53425,610;13,80900
 698,28; 7631,333;  251,253;53845,820;13,77020
 698,85; 7641,506;  218,330;53828,107;13,84668
 699,42; 7638,064;  225,715;53963,625;13,79352
 699,99; 7704,160;  265,253;54026,143;13,83702
 700,57; 7735,564;  265,868;54102,815;13,87467
 701,14; 7680,430;  245,176;54274,718;13,76146
 701,71; 7792,065;  249,330;54471,236;13,91086
 702,28; 7732,007;  256,407;54548,600;13,76920
 702,85; 7767,180;  258,484;54541,733;13,83244
 703,43; 7815,200;  273,714;54770,713;13,83835
 704,00; 7892,450;  279,483;55057,154;13,89794
 704,57; 7849,931;  259,791;55058,441;13,85096
 705,14; 7916,104;  288,330;55471,882;13,82255
 705,71; 7961,124;  304,483;55285,169;13,92605
 706,28; 7932,758;  265,714;55104,226;13,98113
 706,86; 7996,393;  295,252;55534,820;13,94135
 707,43; 7951,797;  310,022;55383,723;13,87554
 708,00; 8001,201;  290,252;55346,395;14,00561
 708,57; 7967,067;  268,098;55235,913;14,00632
 709,14; 8026,394;  293,791;55411,815;14,02917
 709,71; 8018,490;  276,560;55532,718;14,01098
 710,28; 8098,356;  279,637;55805,621;14,08119
 710,86; 8095,990;  291,175;55970,600;14,01741
 711,43; 8147,625;  290,406;55888,118;14,13227
 712,00; 8170,260;  274,637;55957,174;14,17971
 712,57; 8229,818;  275,791;56137,308;14,23883
 713,14; 8198,376;  262,252;56208,749;14,18520
 713,71; 8203,703;  270,021;56201,882;14,18455
 714,28; 8286,107;  257,560;56236,785;14,34201
 714,85; 8220,741;  242,790;55991,303;14,31061
 715,42; 8306,222;  253,098;56180,205;14,39932
 716,00; 8357,011;  284,329;56225,416;14,43069
 716,57; 8413,800;  247,636;56417,087;14,53844
 717,14; 8410,973;  228,329;56269,682;14,60108
 717,71; 8400,454;  227,636;56335,508;14,56626
 718,28; 8419,704;  255,405;56488,026;14,51879
 718,85; 8420,416;  227,252;56446,544;14,57358
 719,42; 8505,050;  251,790;56574,600;14,65350
 719,99; 8489,070;  222,405;56358,041;14,72623
 720,56; 8530,628;  244,328;56784,098;14,65570
 721,13; 8530,186;  243,867;56791,000;14,65383
 721,70; 8529,282;  235,405;56697,057;14,68940
 722,27; 8573,147;  254,867;56687,267;14,74026
 722,84; 8703,859;  280,867;56820,324;14,89755
 723,41; 8628,263;  234,251;56890,611;14,81566
 723,98; 8694,821;  241,328;57073,359;14,87452
 724,55; 8742,917;  262,328;57088,108;14,92384
 725,12; 8708,014;  207,636;56945,242;14,98191
 725,69; 8805,802;  237,020;57245,298;15,03077
 726,27; 8830,129;  233,020;57271,047;15,07259
 726,84; 8922,149;  240,636;57624,565;15,12882
 727,41; 8975,399;  251,251;57589,621;15,21520
 727,98; 9014,726;  263,020;57923,216;15,17807
 728,55; 9064,438;  283,020;57835,657;15,25806
 729,12; 9085,303;  230,328;57945,098;15,34265
 729,69; 9162,784;  268,559;58066,616;15,38845
 730,26; 9215,419;  275,251;58355,826;15,39270
 730,82; 9163,515;  245,712;58148,806;15,40125
 731,39; 9270,688;  244,097;58373,478;15,52845
 731,96; 9369,785;  238,866;58516,303;15,66802
 732,53; 9468,189;  269,251;58742,898;15,73177
 733,10; 9477,439;  270,558;58825,955;15,72337
 733,67; 9592,458;  277,097;59177,088;15,81556
 734,24; 9550,247;  258,020;58721,067;15,89419
 734,81; 9618,497;  285,097;58925,509;15,91633
 735,38; 9596,363;  263,097;58723,334;15,96515
 735,95; 9610,536;  264,789;58613,237;16,01713
 736,52; 9683,632;  280,096;58822,985;16,06264
 737,09; 9634,190;  276,635;58394,965;16,10087
 737,66; 9749,748;  316,712;58646,406;16,17193
 738,23; 9744,767;  248,866;58650,309;16,25970
 738,80; 9887,248;  294,635;58915,904;16,36371
 739,37; 9949,498;  293,866;59062,883;16,42980
 739,94;10015,825;  277,865;59129,863;16,54652
 740,51;10074,460;  326,250;59178,611;16,56384
 741,07;10028,249;  267,865;59139,360;16,57913
 741,64;10131,191;  288,404;59329,263;16,67115
 742,21;10182,365;  274,096;59443,781;16,74552
 742,78;10176,461;  246,327;59094,991;16,87402
 743,35;10206,403;  261,634;59433,124;16,80669
 743,92;10341,577;  301,942;59601,950;16,93024
 744,49;10301,981;  279,250;59429,545;16,94452
 745,06;10351,308;  268,250;59462,986;17,03371
 745,63;10404,404;  252,865;59424,581;17,15607
 746,19;10433,500;  258,942;59418,714;17,19844
 746,76;10474,058;  272,557;59542,078;17,21205
 747,33;10502,693;  253,865;59456,827;17,31134
 747,90;10585,174;  273,173;59651,499;17,36661
 748,47;10594,116;  286,096;59525,247;17,40069
 749,04;10631,674;  282,942;59625,458;17,43898
 749,61;10697,386;  291,480;59468,976;17,58423
 750,17;10750,405;  278,634;59581,263;17,65819
 750,74;10752,271;  284,557;59467,704;17,68698
 751,31;10822,598;  257,634;59390,068;17,86661
 751,88;10800,002;  244,788;59226,047;17,89588
 752,45;10898,944;  272,480;59405,104;17,97056
 753,02;10875,964;  267,557;59205,314;17,99934
 753,58;10888,675;  256,403;59122,755;18,06171
 754,15;10984,772;  268,326;59189,504;18,18777
 754,72;11004,176;  247,172;59014,637;18,30435
 755,29;10988,426;  243,634;58905,694;18,31643
 755,86;11062,291;  261,480;58876,212;18,42679
 756,42;11204,080;  268,710;58750,653;18,69871
 756,99;11155,407;  222,864;58846,863;18,64858
 757,56;11162,273;  245,787;58790,458;18,64642
 758,13;11219,061;  201,480;58545,361;18,88387
 758,70;11362,465;  227,326;58772,186;19,01984
 759,26;11418,100;  219,787;58855,627;19,09807
 759,83;11512,658;  217,249;58988,761;19,21919
 760,40;11514,600;  215,556;58826,202;19,27814
 760,97;11568,312;  191,941;58879,796;19,38454
 761,53;11587,024;  167,787;58425,084;19,60138
 762,10;11595,120;  188,864;58423,448;19,58674
 762,67;11672,370;  215,556;58351,197;19,70704
 763,24;11653,697;  171,864;57767,253;19,93533
 763,80;11723,486;  215,941;58088,848;19,88417
 764,37;11749,198;  221,633;58054,058;19,93270
 764,94;11727,140;  202,479;57578,653;20,08614
 765,50;11789,621;  200,941;57513,094;20,22028
 766,07;11824,410;  250,941;57612,381;20,17639
 766,64;11816,275;  222,402;57285,438;20,31766
 767,21;11792,448;  218,479;57147,879;20,33039
 767,77;11878,852;  245,017;57066,397;20,47440
 768,34;11919,795;  254,633;57069,684;20,53182
 768,91;11867,968;  249,171;56848,048;20,52832
 769,47;11947,757;  242,094;56918,720;20,65342
 770,04;11961,930;  264,094;56714,392;20,72236
 770,61;11869,488;  238,556;56494,679;20,67496
 771,18;11954,584;  229,017;56359,889;20,88969
 771,74;12038,065;  251,786;56535,561;20,94081
 772,31;12065,315;  254,632;56343,310;21,05716
 772,88;12036,719;  219,555;56090,212;21,15093
 773,44;12037,662;  231,325;55928,038;21,19755
 774,01;12104,220;  242,017;56069,710;21,24788
 774,58;12065,854;  224,786;55530,920;21,41005
 775,14;12197,028;  214,171;55797,361;21,55842
 775,71;12188,816;  233,863;55588,110;21,59717
 776,27;12319,836;  273,632;55554,397;21,79095
 776,84;12406,086;  278,171;55555,530;21,94011
 777,41;12350,490;  255,324;55365,587;21,94721
 777,97;12364,663;  248,324;55056,105;22,10697
 778,54;12357,221;  248,632;54984,930;22,12168
 779,11;12440,933;  258,170;55127,525;22,20322
 779,67;12495,490;  230,093;54995,659;22,39618
 780,24;12452,894;  253,863;54725,946;22,39502
 780,80;12535,606;  263,401;54791,233;22,50631
 781,37;12532,164;  252,939;54738,366;22,53671
 781,94;12585,030;  254,862;54609,423;22,68470
 782,50;12604,664;  256,170;54425,941;22,79591
 783,07;12640,145;  272,401;54443,382;22,83094
 783,63;12625,549;  230,247;54203,900;22,96547
 784,20;12636,492;  255,478;54131,725;22,98047
 784,77;12712,588;  249,401;53909,782;23,22605
 785,33;12702,684;  226,170;53752,992;23,30890
 785,90;12729,473;  246,554;53709,741;23,34862
 786,46;12812,569;  265,939;53596,567;23,52613
 787,03;12740,896;  237,016;53392,238;23,52333
 787,59;12847,070;  245,708;53256,372;23,77137
 788,16;12855,935;  241,785;53273,120;23,78622
 788,73;12866,955;  245,400;53157,715;23,85372
 789,29;12860,589;  241,631;52693,310;24,05825
 789,86;12889,609;  246,016;52655,367;24,12469
 790,42;12894,243;  255,093;52516,808;24,18434
 790,99;12829,724;  254,246;52100,479;24,25534
 791,55;12931,128;  236,016;52082,382;24,48602
 792,12;12956,225;  259,092;52155,823;24,46615
 792,68;12925,475;  239,939;51808,341;24,59944
 793,25;12974,879;  247,015;51550,551;24,80894
 793,81;12951,898;  277,400;51208,915;24,88537
 794,38;12880,995;  221,708;50908,587;24,97547
 794,94;12929,860;  227,323;50764,721;25,13493
 795,51;12905,956;  243,708;50542,854;25,17388
 796,07;12839,976;  253,015;50333,987;25,13322
 796,64;12966,611;  272,477;50487,890;25,27936
 797,20;12854,092;  240,938;49802,792;25,44932
 797,77;12830,419;  231,246;49591,310;25,52503
 798,33;12832,823;  230,861;49426,521;25,61600
 798,90;12900,227;  267,554;49308,500;25,75944
 799,46;12807,938;  243,092;48887,557;25,82996
 800,03;12811,727;  251,246;48753,382;25,89676
 800,59;12839,439;  264,246;48521,746;26,05853
 801,15;12826,689;  256,169;48366,495;26,12853
 801,72;12774,247;  253,246;47952,244;26,25003
 802,28;12801,728;  285,707;47615,993;26,44400
 802,85;12694,978;  252,861;47502,203;26,33289
 803,41;12810,766;  252,553;47225,182;26,73517
 803,98;12751,247;  238,861;46825,777;26,85816
 804,54;12729,344;  241,938;46639,603;26,91387
 805,11;12757,671;  251,168;46334,582;27,13884
 805,67;12806,844;  264,322;46328,562;27,22833
 806,23;12670,402;  257,015;45764,695;27,27757
 806,80;12729,267;  271,091;45659,521;27,44791
 807,36;12731,287;  276,399;45604,039;27,47747
 807,93;12713,537;  277,322;45434,403;27,53990
 808,49;12657,787;  234,784;44903,536;27,81140
 809,05;12691,806;  223,399;44802,670;27,96907
 809,62;12721,134;  256,707;44716,188;28,03548
 810,18;12657,230;  257,399;44535,860;28,00421
 810,74;12646,018;  234,322;44307,608;28,16150
 811,31;12666,346;  232,553;43994,203;28,41253
 811,87;12678,442;  234,860;43757,798;28,59086
 812,44;12676,384;  272,783;43915,470;28,42080
 813,00;12619,865;  212,168;43590,142;28,60368
 813,56;12723,192;  244,552;43547,044;28,81737
 814,13;12748,443;  239,937;43498,793;28,91548
 814,69;12753,847;  247,860;43391,696;28,98673
 815,25;12717,174;  219,245;42853,752;29,31412
 815,82;12730,270;  256,783;42841,116;29,29126
 816,38;12814,443;  262,783;42599,942;29,64691
 816,94;12766,616;  220,245;42260,460;29,84374
 817,51;12662,482;  215,629;42091,055;29,72353
 818,07;12633,117;  223,091;41767,496;29,87171
 818,63;12623,598;  240,398;41667,321;29,89167
 819,20;12660,848;  235,398;41566,839;30,06295
 819,76;12532,867;  223,552;41074,742;30,13208
 820,32;12613,040;  272,244;41011,106;30,29244
 820,89;12535,598;  255,167;40687,239;30,37299
 821,45;12519,541;  234,475;40463,834;30,53756
 822,01;12501,945;  249,629;40220,968;30,65275
 822,57;12472,964;  259,783;39982,101;30,74640
 823,14;12419,830;  225,475;39833,157;30,78785
 823,70;12380,464;  218,706;39567,752;30,90738
 824,26;12344,561;  228,936;39387,347;30,94003
 824,82;12380,119;  252,552;39175,250;31,15808
 825,39;12338,138;  227,859;38963,614;31,26383
 825,95;12378,234;  256,398;39067,363;31,23302
 826,51;12361,946;  249,552;38561,111;31,61551
 827,08;12503,504;  270,244;38724,245;31,81271
 827,64;12429,754;  260,936;38392,301;31,91288
 828,20;12383,081;  233,859;38115,127;32,07185
 828,76;12411,331;  245,474;38089,183;32,14763
 829,32;12438,581;  254,321;37973,317;32,30272
 829,89;12384,832;  212,321;37802,988;32,38174
 830,45;12448,466;  229,936;37824,429;32,50085
 831,01;12422,717;  221,936;37613,717;32,62958
 831,57;12436,197;  234,628;37533,388;32,71307
 832,14;12480,601;  231,167;37369,753;32,98304
 832,70;12429,005;  232,705;37181,194;33,00893
 833,26;12384,256;  220,320;37071,481;33,00828
 833,82;12458,737;  230,705;37021,230;33,23690
 834,38;12510,141;  225,320;36996,440;33,40888
 834,95;12447,622;  213,936;36952,804;33,29903
 835,51;12446,026;  192,166;36686,014;33,57788
 836,07;12557,122;  232,859;36854,994;33,65250
 836,63;12577,987;  244,320;36785,742;33,75256
 837,19;12535,391;  231,782;36651,183;33,78312
 837,75;12487,642;  204,012;36309,701;34,02131
 838,32;12614,815;  244,935;36406,142;34,20760
 838,88;12641,526;  252,320;36453,814;34,22291
 839,44;12634,238;  237,243;36295,948;34,38003
 840,00;12737,411;  233,551;36287,619;34,68086
 840,56;12627,892;  210,089;35888,676;34,80464
 841,12;12661,296;  211,474;35894,040;34,89049
 841,68;12645,623;  209,012;35755,481;34,98691
 842,25;12630,951;  217,320;35702,461;34,98262
 842,81;12609,047;  215,012;35419,979;35,20536
 843,37;12697,220;  205,704;35401,112;35,49189
 843,93;12676,393;  223,320;35395,399;35,40613
 844,49;12740,028;  230,396;35421,994;35,54721
 845,05;12708,278;  204,089;35120,435;35,81185
 845,61;12831,067;  240,858;35187,338;36,02712
 846,17;12786,009;  225,781;35010,394;36,10858
 846,73;12851,721;  228,396;34950,604;36,35519
 847,29;12780,356;  204,012;34827,738;36,32291
 847,86;12862,067;  213,242;34715,333;36,66104
 848,42;12798,933;  204,858;34488,004;36,73547
 848,98;12881,491;  219,704;34480,984;36,95655
 849,54;12883,203;  211,242;34480,425;36,97771
 850,10;12906,914;  226,627;34362,866;37,14612
 850,66;12876,549;  202,088;34152,999;37,33173
 851,22;12927,953;  196,627;34137,210;37,51063
 851,78;13073,280;  250,242;34209,266;37,76033
 852,34;12986,761;  227,011;33986,169;37,79641
 852,90;12968,319;  210,165;33799,225;37,98306
 853,46;12974,646;  207,703;33608,128;38,22389
 854,02;12975,435;  222,473;33612,492;38,19393
 854,58;12981,146;  206,550;33277,317;38,62806
 855,14;12990,396;  188,088;33354,220;38,60055
 855,70;12956,800;  181,088;33088,969;38,82265
 856,26;13017,974;  230,857;33075,948;38,93159
 856,82;13019,147;  211,011;32863,158;39,22601
 857,38;13049,013;  232,780;32774,138;39,38444
 857,94;13036,263;  223,318;32659,810;39,50163
 858,50;13098,436;  227,472;32530,405;39,84457
 859,06;13086,301;  212,857;32381,692;40,01837
 859,62;13114,859;  238,165;32286,517;40,17896
 860,18;13042,648;  211,703;32127,805;40,20211
 860,74;13028,513;  191,164;31923,477;40,45513
 861,30;13031,764;  198,703;31767,302;40,65135
 861,86;13185,245;  234,241;31797,743;41,03158
 862,42;13127,110;  211,241;31628,569;41,11065
 862,98;13166,437;  233,549;31602,010;41,22895
 863,54;13084,534;  232,703;31329,066;41,32905
 864,10;13179,630;  218,780;31484,661;41,45365
 864,66;13111,418;  197,164;31206,641;41,64615
 865,22;13113,822;  218,395;31051,928;41,82274
 865,78;13087,534;  226,164;30883,215;41,95240
 866,34;13108,169;  217,549;30887,579;42,03002
 866,90;13080,727;  224,010;30757,020;42,10760
 867,45;13028,362;  234,779;30473,000;42,30931
 868,01;12919,612;  225,010;30303,825;42,20446
 868,57;12959,939;  220,856;30039,651;42,72165
 869,13;12899,189;  209,933;29981,323;42,62232
 869,69;12906,131;  210,702;29867,533;42,80777
 870,25;12853,997;  195,010;29826,051;42,72205
 870,81;12798,170;  223,625;29740,185;42,60166
 871,37;12863,497;  225,087;29572,318;43,06509
 871,93;12840,594;  240,317;29451,913;43,13450
 872,49;12840,459;  224,779;29189,046;43,55601
 873,04;12728,863;  209,471;29004,179;43,47810
 873,60;12759,498;  195,702;28887,159;43,78933
 874,16;12790,979;  228,471;28813,062;43,94853
 874,72;12783,133;  209,394;28708,985;44,11901
 875,28;12780,902;  227,240;28637,369;44,18727
 875,84;12790,133;  215,625;28635,985;44,24472
 876,40;12772,594;  221,163;28542,754;44,31754
 876,95;12864,287;  228,779;28543,138;44,62579
 877,51;12939,825;  241,625;28472,292;44,98016
 878,07;13005,517;  256,240;28418,138;45,27137
 878,63;12998,671;  221,702;28446,062;45,26930
 879,19;13105,287;  236,317;28484,831;45,55627
 879,75;13166,440;  231,317;28551,523;45,67454
 880,30;13177,210;  218,010;28479,215;45,85509
 880,86;13338,671;  260,933;28569,600;46,19694
 881,42;13364,902;  217,240;28612,677;46,30202
 881,98;13448,287;  230,702;28630,677;46,54083
 882,54;13511,671;  214,394;28784,292;46,54296
 883,09;13573,979;  239,779;28888,138;46,54438
 883,65;13675,440;  208,317;28963,908;46,83306
 884,21;13866,979;  241,702;29296,062;46,89581
 884,77;13893,133;  218,471;29311,677;47,00294
 885,32;13926,517;  213,240;29452,369;46,90043
 885,88;14068,671;  256,702;29581,754;47,09956
 886,44;14148,287;  226,394;29676,062;47,27351
 887,00;14180,133;  239,856;29623,600;47,44214
 887,56;14274,748;  223,163;29824,215;47,46988
 888,11;14254,440;  210,317;29801,831;47,45997
 888,67;14458,748;  252,317;30013,138;47,73535
 889,23;14447,594;  237,471;30036,369;47,68674
 889,79;14458,517;  212,702;29856,446;48,05673
 890,34;14436,671;  218,702;29755,677;48,13617
 890,90;14543,825;  276,702;29912,908;48,14086
 891,46;14505,517;  214,625;29891,908;48,15432
 892,01;14609,287;  241,317;29837,831;48,54615
 892,57;14598,440;  249,317;29815,908;48,53154
 893,13;14614,056;  211,471;29535,831;49,11475
 893,69;14629,748;  211,548;29489,138;49,24654
 894,24;14635,133;  224,471;29436,369;49,33148
 894,80;14678,748;  227,702;29311,292;49,68797
 895,36;14771,440;  225,394;29145,600;50,29717
 895,91;14626,902;  223,856;28901,062;50,22472
 896,47;14625,210;  225,548;28834,831;50,33213
 897,03;14632,287;  215,394;28646,446;50,70826
 897,58;14576,056;  230,087;28489,215;50,76579
 898,14;14608,825;  234,163;28277,523;51,25870
 898,70;14493,056;  203,548;28110,677;51,20379
 899,25;14594,594;  218,240;28128,600;51,50902
 899,81;14535,056;  238,702;27953,523;51,58379
 900,37;14490,210;  202,471;27739,600;51,88536
 900,92;14524,056;  223,317;27738,292;51,97438
 901,48;14479,979;  218,087;27590,908;52,10238
 902,03;14422,287;  210,010;27470,600;52,13488
 902,59;14433,210;  215,394;27349,446;52,39842
 903,15;14419,517;  235,317;27222,677;52,55868
 903,70;14323,979;  234,163;26894,523;52,84931
 904,26;14288,671;  207,010;26756,754;53,03878
 904,82;14321,594;  216,856;26783,292;53,09232
 905,37;14292,594;  218,010;26597,446;53,35438
 905,93;14222,056;  218,625;26490,677;53,30163
 906,48;14242,440;  227,548;26393,831;53,56088
 907,04;14300,133;  232,317;26286,985;53,99346
 907,60;14207,440;  207,010;26103,523;54,06299
 908,15;14169,056;  206,087;25973,292;54,18891
 908,71;14168,979;  240,087;25927,985;54,22356
 909,26;14102,133;  211,471;25778,831;54,32967
 909,82;14120,287;  234,625;25663,985;54,60484
 910,37;14156,748;  255,010;25578,985;54,89556
 910,93;14023,287;  204,702;25386,677;54,87490
 911,48;14073,517;  205,933;25212,138;55,45657
 912,04;14076,748;  208,779;25197,062;55,49789
 912,60;14071,210;  217,779;25104,292;55,66642
 913,15;13978,902;  222,548;24869,062;55,81460
 913,71;13946,210;  204,702;24769,062;55,94083
 914,26;13982,748;  196,548;24667,292;56,33748
 914,82;13968,902;  218,317;24587,446;56,42625
 915,37;14021,287;  205,779;24464,677;56,95027
 915,93;14004,825;  239,010;24302,831;57,20544
 916,48;13977,825;  205,394;24189,908;57,42218
 917,04;13989,979;  228,702;24118,446;57,60328
 917,59;13986,517;  237,010;23943,831;57,99811
 918,15;13920,210;  187,548;23757,138;58,26432
 918,70;13945,517;  216,163;23660,062;58,56259
 919,26;13859,133;  216,702;23574,292;58,40684
 919,81;13826,210;  205,856;23432,062;58,64218
 920,37;13860,671;  212,625;23338,215;59,01707
 920,92;13810,594;  234,010;23275,754;58,92169
 921,48;13758,440;  203,317;23074,985;59,26600
 922,03;13772,210;  214,471;23022,677;59,44237
 922,59;13714,902;  201,779;22864,215;59,62785
 923,14;13611,671;  198,240;22737,062;59,51257
 923,69;13568,517;  228,625;22602,138;59,62359
 924,25;13656,825;  232,779;22644,985;59,89614
 924,80;13504,133;  216,087;22431,908;59,81344
 925,36;13517,594;  209,163;22327,677;60,16874
 925,91;13413,517;  211,856;22212,600;60,00552
 926,47;13419,748;  187,625;22136,523;60,28605
 927,02;13468,056;  232,010;21913,908;61,04653
 927,57;13370,363;  217,933;21878,831;60,71969
 928,13;13359,825;  203,625;21741,369;61,08439
 928,68;13431,594;  208,702;21738,754;61,41598
 929,24;13190,133;  185,163;21501,138;61,01044
 929,79;13222,210;  199,471;21321,754;61,65403
 930,34;13199,210;  209,163;21279,831;61,64990
 930,90;13106,210;  195,548;21201,446;61,46208
 931,45;13168,517;  212,394;21130,600;61,93707
 932,01;13122,363;  218,394;21122,754;61,72860
 932,56;13136,287;  227,779;20854,754;62,58071
 933,11;13065,517;  226,471;20900,062;62,10361
 933,67;13007,517;  203,240;20674,446;62,54774
 934,22;12979,440;  212,087;20583,831;62,67187
 934,77;12976,517;  226,163;20451,523;63,04142
 935,33;12963,594;  223,779;20349,754;63,30036
 935,88;12903,133;  215,317;20240,985;63,35777
 936,43;12945,671;  197,394;20161,523;63,85591
 936,99;12838,517;  212,394;20146,062;63,34069
 937,54;12784,517;  194,010;19957,677;63,70532
 938,09;12918,133;  214,394;19891,446;64,56119
 938,65;12854,594;  213,779;19737,677;64,74535
 939,20;12748,979;  194,163;19643,754;64,55054
 939,75;12737,979;  198,163;19498,062;64,97348
 940,31;12717,363;  182,087;19441,600;65,08616
 940,86;12796,056;  219,702;19434,369;65,45184
 941,41;12685,671;  256,394;19287,677;65,30972
 941,96;12628,748;  203,471;19205,908;65,38781
 942,52;12538,748;  214,394;19047,215;65,44083
 943,07;12447,825;  190,163;18956,754;65,31640
 943,62;12498,671;  202,240;18877,754;65,84253
 944,18;12473,210;  196,548;18813,523;65,94337
 944,73;12355,979;  207,087;18695,138;65,71213
 945,28;12243,671;  181,702;18496,369;65,85961
 945,83;12246,440;  199,240;18507,985;65,80025
 946,39;12282,440;  202,856;18413,062;66,33415
 946,94;12260,133;  230,548;18384,677;66,26363
 947,49;12182,287;  200,163;18217,446;66,50350
 948,04;12127,287;  219,010;18221,908;66,14644
 948,59;12092,287;  227,317;18113,062;66,33758
 949,15;12093,748;  188,394;18063,062;66,60462
 949,70;12017,133;  194,933;17914,369;66,71883
 950,25;11953,440;  226,779;17773,754;66,83010
 950,80;11907,363;  171,625;17692,677;66,98079
 951,36;11849,594;  177,010;17595,908;67,01104
 951,91;11838,210;  223,087;17601,985;66,83463
 952,46;11675,748;  183,933;17384,831;66,80939
 953,01;11781,748;  222,856;17419,985;67,21408
 953,56;11634,825;  177,702;17263,600;67,05602
 954,11;11652,517;  216,087;17247,062;67,15077
 954,67;11579,056;  198,779;17164,677;67,07736
 955,22;11491,133;  180,779;16994,446;67,26881
 955,77;11527,363;  221,625;16988,754;67,42799
 956,32;11458,825;  243,010;16874,446;67,43744
 956,87;11462,825;  188,702;16714,831;68,21999
 957,42;11407,979;  204,471;16632,446;68,19774
 957,98;11386,671;  195,240;16599,369;68,22326
 958,53;11379,748;  222,471;16547,138;68,34612
 959,08;11324,979;  194,163;16408,138;68,64952
 959,63;11331,440;  192,087;16331,600;69,01914
 960,18;11286,902;  215,163;16244,369;69,07228
 960,73;11258,210;  205,010;16235,600;68,95067
 961,28;11146,594;  186,933;16052,985;69,07617
 961,83;11235,287;  213,087;16048,754;69,60363
 962,39;11173,825;  189,856;15892,985;69,94765
 962,94;11188,440;  223,317;15823,138;70,29006
 963,49;11114,210;  203,087;15643,369;70,66660
 964,04;11111,133;  215,317;15701,754;70,35715
 964,59;11093,210;  180,087;15528,292;71,10358
 965,14;11112,363;  213,471;15522,523;71,19247
 965,69;10970,210;  204,702;15344,523;71,10723
 966,24;11085,748;  208,548;15286,369;72,14040
 966,79;11015,363;  213,856;15118,677;72,46989
 967,34;10912,979;  178,087;14954,369;72,64948
 967,89;10927,671;  189,317;14949,062;72,75434
 968,44;10856,902;  211,394;14925,138;72,35077
 968,99;10860,210;  212,163;14861,600;72,68570
 969,55;10789,287;  209,856;14736,446;72,82804
 970,10;10730,671;  210,625;14599,215;73,11381
 970,65;10651,902;  214,933;14600,446;72,55194
 971,20;10647,363;  203,471;14429,831;73,41226
 971,75;10546,979;  189,548;14307,292;73,36463
 972,30;10496,133;  202,779;14217,677;73,44580
 972,85;10444,056;  203,548;14192,369;73,20494
 973,40;10372,287;  195,702;13995,369;73,74514
 973,95;10359,210;  206,779;13956,523;73,83723
 974,50;10378,287;  223,394;13924,754;74,11595
 975,05;10271,594;  220,779;13814,138;73,93916
 975,60;10200,979;  225,779;13755,215;73,72960
 976,15;10216,902;  215,394;13603,369;74,70516
 976,70;10151,287;  213,163;13577,292;74,36417
 977,25;10110,517;  208,779;13508,369;74,45145
 977,80;10075,133;  199,933;13354,446;75,07081
 978,35; 9939,056;  215,163;13229,600;74,71620
 978,89; 9868,133;  196,010;13118,600;74,84663
 979,44; 9855,748;  205,317;13052,292;75,11831
 979,99; 9775,979;  193,625;12881,292;75,52495
 980,54; 9724,979;  235,779;12788,292;75,59602
 981,09; 9719,133;  218,779;12741,985;75,86200
 981,64; 9603,363;  216,471;12576,292;75,94683
 982,19; 9668,902;  248,240;12534,523;76,67626
 982,74; 9586,671;  226,702;12426,677;76,72122
 983,29; 9445,825;  195,240;12235,369;76,83128
 983,84; 9416,517;  212,856;12153,138;77,08077
 984,39; 9387,979;  247,471;12121,062;76,98183
 984,94; 9334,440;  190,471;11949,754;77,75958
 985,49; 9277,056;  229,010;11893,138;77,57156
 986,03; 9194,210;  240,856;11820,831;77,31756
 986,58; 9115,210;  246,240;11686,985;77,52091
 987,13; 9034,748;  218,240;11542,600;77,85436
 987,68; 8977,979;  230,163;11404,985;78,28148
 988,23; 8937,133;  229,933;11353,523;78,27688
 988,78; 8852,979;  214,317;11223,292;78,46926
 989,33; 8756,056;  228,471;11134,985;78,18800
 989,88; 8746,902;  235,394;11119,831;78,19888
 990,42; 8657,671;  219,625;10899,677;79,00754
 990,97; 8588,133;  216,856;10851,600;78,71630
 991,52; 8608,056;  239,779;10713,523;79,89766
 992,07; 8550,056;  244,394;10635,985;79,92676
 992,62; 8423,210;  230,163;10571,985;79,22247
 993,17; 8383,287;  230,471;10423,215;79,98646
 993,71; 8308,210;  222,471;10308,215;80,16997
 994,26; 8193,517;  199,471;10194,369;79,98127
 994,81; 8245,594;  232,779;10166,369;80,66384
 995,36; 8086,056;  218,702;10009,831;80,35186
 995,91; 8027,056;  223,317; 9934,138;80,36126
 996,45; 7976,594;  228,548; 9834,215;80,66120
 997,00; 7875,902;  199,471; 9690,677;80,87941
 997,55; 7883,671;  216,702; 9629,523;81,45241
 998,10; 7821,825;  247,317; 9522,215;81,66675
 998,65; 7815,133;  218,779; 9451,831;82,27349
 999,19; 7696,979;  237,317; 9256,831;82,70581
 999,74; 7630,748;  252,779; 9225,523;82,22645
1000,29; 7568,287;  227,933; 9121,754;82,53318
1000,84; 7456,440;  216,317; 9033,292;82,11573
1001,38; 7425,363;  220,702; 8862,446;83,37046
1001,93; 7365,671;  237,087; 8807,677;83,17495
1002,48; 7248,902;  203,087; 8696,677;82,95450
1003,03; 7264,748;  221,856; 8659,369;83,47118
1003,57; 7137,825;  231,087; 8529,523;83,22939
1004,12; 7136,594;  245,010; 8427,215;84,22649
1004,67; 7062,671;  214,779; 8341,138;84,26765
1005,22; 6942,363;  210,933; 8213,985;84,11080
1005,76; 6840,210;  205,548; 8064,677;84,41981
1006,31; 6809,748;  242,625; 8032,369;84,30473
1006,86; 6716,517;  211,010; 7859,446;85,05670
1007,40; 6626,979;  196,471; 7727,292;85,38920
1007,95; 6555,902;  215,163; 7683,754;84,89873
1008,50; 6442,440;  218,933; 7577,677;84,57296
1009,04; 6390,979;  225,625; 7457,908;85,24769
1009,59; 6241,748;  231,625; 7315,523;84,84203
1010,14; 6174,210;  211,471; 7221,831;85,05610
1010,68; 6087,440;  219,087; 7066,831;85,69762
1011,23; 6005,056;  200,548; 6984,523;85,56204
1011,78; 5926,671;  229,856; 6928,831;85,04011
1012,32; 5899,825;  217,240; 6785,908;86,51046
1012,87; 5866,440;  244,933; 6796,292;85,80673
1013,42; 5756,825;  209,240; 6641,369;86,24803
1013,96; 5794,825;  242,163; 6651,292;86,63676
1014,51; 5704,517;  195,779; 6561,985;86,53095
1015,06; 5722,056;  196,471; 6542,908;87,06594
1015,60; 5777,287;  260,702; 6590,446;87,15336
1016,15; 5758,979;  215,394; 6511,754;88,04428
1016,69; 5810,594;  210,702; 6584,215;87,86194
1017,24; 5854,594;  201,625; 6533,215;89,28198
1017,79; 5874,287;  236,625; 6648,215;87,92922
1018,33; 5882,210;  196,856; 6574,138;89,15010
1018,88; 5942,517;  217,856; 6679,292;88,59735
1019,42; 5958,671;  221,625; 6673,369;88,92241
1019,97; 5952,517;  212,010; 6700,754;88,46870
1020,51; 6020,748;  216,317; 6676,062;89,85543
1021,06; 5997,902;  211,240; 6675,831;89,51320
1021,61; 5942,825;  190,087; 6661,600;88,89325
1022,15; 5922,440;  171,856; 6627,369;89,08020
1022,70; 5934,056;  215,856; 6593,677;89,65758
1023,24; 5879,056;  204,548; 6580,215;89,00257
1023,79; 5821,133;  220,163; 6547,138;88,52523
1024,33; 5813,825;  218,087; 6440,292;89,93175
1024,88; 5731,287;  219,240; 6406,985;89,08006
1025,42; 5661,594;  201,779; 6280,831;89,81360
1025,97; 5609,979;  203,933; 6205,677;90,07458
1026,51; 5455,979;  173,087; 6046,600;89,94433
1027,06; 5405,440;  209,317; 6048,446;88,98798
1027,60; 5352,671;  207,702; 5891,600;90,51832
1028,15; 5274,825;  221,087; 5849,754;89,78570
1028,69; 5213,363;  174,317; 5712,523;90,98698
1029,24; 5167,979;  207,933; 5681,062;90,62542
1029,78; 5070,748;  205,779; 5514,600;91,63935
1030,33; 4991,671;  177,933; 5433,292;91,59675
1030,87; 4940,748;  206,471; 5377,138;91,56027
1031,42; 4873,979;  194,933; 5281,754;91,98370
1031,96; 4852,671;  212,317; 5252,754;92,06254
1032,51; 4785,363;  199,317; 5121,062;93,17929
1033,05; 4710,979;  208,163; 5095,985;92,12316
1033,60; 4612,825;  174,933; 4951,138;92,91669
1034,14; 4554,056;  199,933; 4910,831;92,42660
1034,69; 4533,287;  199,317; 4856,908;93,05175
1035,23; 4467,979;  204,702; 4754,600;93,70049
1035,77; 4448,902;  196,087; 4713,292;94,14704
1036,32; 4385,979;  180,779; 4606,908;95,00853
1036,86; 4325,825;  198,163; 4560,138;94,62827
1037,41; 4279,594;  204,625; 4497,369;94,92690
1037,95; 4200,825;  183,933; 4440,754;94,36366
1038,50; 4176,748;  196,240; 4361,138;95,57275
1039,04; 4149,287;  203,779; 4342,831;95,32395
1039,58; 4074,287;  192,010; 4257,446;95,49471
1040,13; 3997,979;  201,471; 4193,754;95,09616
1040,67; 3976,440;  223,394; 4184,369;94,75056
1041,21; 3934,287;  228,317; 4080,523;96,20382
1041,76; 3827,056;  176,471; 3987,908;95,77976
1042,30; 3791,133;  210,471; 3959,215;95,51629
1042,85; 3761,440;  207,856; 3900,831;96,22553
1043,39; 3687,594;  190,010; 3855,600;95,41668
1043,93; 3666,594;  217,394; 3807,292;96,08072
1044,48; 3613,287;  205,548; 3721,600;96,91946
1045,02; 3568,440;  202,856; 3640,062;97,91630
1045,56; 3511,287;  210,548; 3624,985;96,67008
1046,11; 3463,979;  210,394; 3580,523;96,54185
1046,65; 3402,671;  208,779; 3510,292;96,74025
1047,19; 3353,825;  198,779; 3490,523;95,84724
1047,74; 3276,902;  182,856; 3377,062;96,86433
1048,28; 3270,440;  210,779; 3371,369;96,80665
1048,82; 3230,517;  222,625; 3358,138;95,92982
1049,37; 3166,133;  205,240; 3283,600;96,18409
1049,91; 3106,902;  197,548; 3233,215;95,83902
1050,45; 3104,979;  228,317; 3187,908;97,19796
1050,99; 3015,902;  207,856; 3150,215;95,43518
1051,54; 2975,517;  196,933; 3088,369;96,09703
1052,08; 2959,287;  215,010; 3068,446;96,17445
1052,62; 2941,363;  221,548; 3029,369;96,86569
1053,16; 2897,594;  192,702; 2968,446;97,44746
1053,71; 2827,594;  215,856; 2966,446;94,95192
1054,25; 2797,056;  223,779; 2873,908;97,10007
1054,79; 2751,825;  211,933; 2868,446;95,60999
1055,33; 2687,056;  183,163; 2789,831;96,05723
1055,88; 2695,210;  227,317; 2766,677;97,18562
1056,42; 2672,056;  234,702; 2757,062;96,62991
1056,96; 2607,825;  221,240; 2686,600;96,80473
1057,50; 2591,825;  201,240; 2655,215;97,41683
1058,05; 2541,671;  212,625; 2609,523;97,16918
1058,59; 2506,594;  228,163; 2575,908;97,04766
1059,13; 2435,825;  196,163; 2525,062;96,16829
1059,67; 2449,133;  229,163; 2516,369;97,06032
1060,21; 2384,287;  218,240; 2436,908;97,62825
1060,76; 2386,440;  221,779; 2449,600;97,16496
1061,30; 2385,594;  232,010; 2417,138;98,55641
1061,84; 2307,594;  211,471; 2366,446;97,26902
1062,38; 2256,056;  205,317; 2303,446;97,74130
1062,92; 2290,133;  243,317; 2308,446;99,11320
1063,46; 2241,748;  229,933; 2273,292;98,45626
1064,01; 2200,825;  208,317; 2224,062;98,84725
1064,55; 2169,671;  217,163; 2196,677;98,63574
1065,09; 2113,979;  186,779; 2143,754;98,47852
1065,63; 2111,748;  232,471; 2184,446;96,27567
1066,17; 2098,517;  234,010; 2139,600;97,84410
1066,71; 2080,902;  230,087; 2103,985;98,76820
1067,25; 2019,979;  212,471; 2065,831;97,52601
1067,80; 2017,748;  233,163; 2048,600;98,30058
1068,34; 2023,979;  237,471; 2032,446;99,52828
1068,88; 1932,517;  213,087; 1969,677;97,88456
1069,42; 1978,671;  248,779; 1996,523;98,97857
1069,96; 1924,133;  218,625; 1934,754;99,38110
1070,50; 1934,363;  245,317; 1943,600;99,45612
1071,04; 1881,440;  212,394; 1893,677;99,27219
1071,58; 1843,210;  221,548; 1860,523;98,94364
1072,12; 1839,287;  212,625; 1832,215;100,43660
1072,66; 1826,517;  211,240; 1815,292;100,69979
1073,21; 1818,671;  230,163; 1807,831;100,68711
1073,75; 1820,133;  223,163; 1779,523;102,60927
1074,29; 1749,363;  230,087; 1780,754;97,97569
1074,83; 1756,440;  228,163; 1753,600;100,18620
1075,37; 1726,056;  226,856; 1738,062;99,20555
1075,91; 1711,133;  233,240; 1720,446;99,37376
1076,45; 1675,133;  229,317; 1687,600;99,14507
1076,99; 1668,902;  222,933; 1658,908;100,69599
1077,53; 1628,210;  207,625; 1627,292;100,06461
1078,07; 1621,825;  232,933; 1623,215;99,89999
1078,61; 1597,133;  223,087; 1604,523;99,46502
1079,15; 1584,594;  220,548; 1579,215;100,39589
1079,69; 1581,902;  234,933; 1567,908;101,04985
1080,23; 1586,056;  232,240; 1558,292;102,09369
1080,77; 1584,133;  252,240; 1545,985;102,94866
1081,31; 1513,287;  217,240; 1499,446;101,07942
1081,85; 1516,825;  233,240; 1493,985;101,81166
1082,39; 1507,440;  221,394; 1457,138;104,07058
1082,93; 1484,825;  216,010; 1457,754;102,18009
1083,47; 1444,210;  207,625; 1426,215;101,47664
1084,01; 1466,517;  236,625; 1434,754;102,65109
1084,55; 1425,748;  216,163; 1398,831;102,27598
1085,09; 1418,748;  227,317; 1404,523;101,20837
1085,63; 1402,594;  219,394; 1375,600;102,33473
1086,17; 1386,133;  213,394; 1342,523;103,86224
1086,71; 1371,210;  214,087; 1332,985;103,41631
1087,24; 1381,671;  237,625; 1357,292;102,17733
1087,78; 1349,363;  235,702; 1310,754;103,59142
1088,32; 1313,979;  221,548; 1278,292;103,37703
1088,86; 1312,748;  241,702; 1305,138;100,71557
1089,40; 1306,979;  226,779; 1282,831;102,28664
1089,94; 1271,979;  193,702; 1241,600;102,89903
1090,48; 1271,671;  233,779; 1250,831;102,04910
1091,02; 1271,671;  229,933; 1228,369;104,33697
1091,56; 1251,671;  238,702; 1222,369;102,97884
1092,10; 1215,594;  207,240; 1176,985;103,98142
1092,63; 1240,210;  235,317; 1194,292;104,78817
1093,17; 1218,979;  223,625; 1183,215;103,72695
1093,71; 1212,056;  211,548; 1152,754;106,30063
1094,25; 1219,210;  246,010; 1158,062;106,70445
1094,79; 1166,363;  223,163; 1139,369;102,94631
1095,33; 1163,902;  229,394; 1123,754;104,48903
1095,87; 1158,825;  223,471; 1094,985;107,32523
1096,40; 1117,440;  200,548; 1065,985;105,94564
1096,94; 1130,440;  220,087; 1078,908;106,00040
1097,48; 1133,056;  224,240; 1080,831;106,09685
1098,02; 1093,210;  222,087; 1063,985;103,47132
1098,56; 1066,056;  200,548; 1018,908;105,76129
1099,10; 1053,287;  202,933; 1023,523;103,62708
1099,63; 1053,287;  211,933; 1004,062;106,21427
1100,17; 1063,133;  228,471; 1018,985;105,58473
1100,71; 1049,133;  240,779; 1003,523;105,97967

