
Integration time [ms]: 115,000
Averaging Nr. [scans]: 13
Smoothing Nr. [pixels]: 0
Data measured with spectrometer [name]: 2009305U1
Wave   ;Sample   ;Dark     ;Reference;Reflectance
[nm]   ;[counts] ;[counts] ;[counts] ;[%]

 175,72;  216,273;  176,239;  216,377;99,74118
 176,32;  224,880;  211,934;  220,629;148,87801
 176,92;  261,216;  225,163;  254,806;121,62498
 177,52;  267,154;  252,086;  276,497;61,72784
 178,12;  236,260;  223,549;  229,646;208,46824
 178,72;  262,031;  243,857;  246,426;707,46396
 179,32;  261,712;  236,780;  245,502;285,85390
 179,92;  261,684;  232,933;  243,184;280,46380
 180,52;  245,328;  234,084;  251,849;63,29313
 181,12;  260,802;  235,010;  258,040;111,99255
 181,73;  282,373;  253,163;  272,610;150,20148
 182,33;  360,130;  298,008;  354,611;109,74964
 182,93;  270,869;  245,240;  267,679;114,21474
 183,53;  236,369;  227,319;  231,255;229,95473
 184,13;  249,913;  231,011;  230,121; 0,00000
 184,73;  279,264;  249,935;  276,206;111,64006
 185,33;  268,223;  222,716;  348,805;36,09152
 185,93;  276,497;  214,717;  380,479;37,27031
 186,53;  283,225;  241,332;  381,727;29,83943
 187,13;  316,092;  264,099;  406,630;36,47803
 187,73;  280,815;  220,102;  379,098;38,18544
 188,33;  272,033;  227,718;  376,187;29,84809
 188,93;  289,795;  231,182;  389,757;36,96225
 189,53;  290,971;  240,799;  389,798;33,67290
 190,13;  322,984;  271,649;  443,566;29,86040
 190,73;  273,985;  217,185;  377,425;35,44675
 191,34;  298,276;  254,183;  413,712;27,63943
 191,94;  273,667;  227,565;  367,514;32,94211
 192,54;  282,092;  237,868;  406,065;26,29337
 193,14;  295,267;  248,715;  393,108;32,24019
 193,74;  292,121;  249,561;  386,677;31,03958
 194,34;  290,563;  235,099;  379,479;38,41539
 194,94;  253,982;  206,792;  347,521;33,53274
 195,54;  235,590;  196,177;  321,772;31,38113
 196,14;  259,062;  218,484;  355,903;29,52931
 196,74;  254,833;  211,331;  351,478;31,04011
 197,34;  238,836;  187,252;  345,540;32,58888
 197,94;  268,635;  225,715;  362,779;31,31387
 198,54;  276,203;  217,484;  389,006;34,23409
 199,14;  256,857;  197,636;  381,096;32,27980
 199,74;  234,065;  198,097;  381,375;19,62454
 200,34;  226,754;  186,097;  382,635;20,68622
 200,94;  271,066;  223,637;  421,823;23,93158
 201,54;  260,661;  202,328;  428,459;25,79591
 202,14;  285,479;  211,635;  474,923;28,04699
 202,74;  264,915;  204,328;  476,128;22,29105
 203,34;  244,668;  195,558;  479,311;17,30736
 203,94;  236,598;  163,635;  500,548;21,65622
 204,54;  297,943;  228,869;  592,022;19,02076
 205,14;  259,612;  199,405;  597,661;15,11767
 205,74;  310,251;  218,481;  690,215;19,45387
 206,34;  288,796;  197,405;  690,439;18,53652
 206,94;  304,207;  203,328;  773,362;17,69700
 207,54;  273,492;  180,251;  804,961;14,92560
 208,14;  296,475;  195,097;  861,786;15,20627
 208,74;  312,847;  194,559;  953,337;15,58930
 209,34;  328,201;  193,636; 1030,265;16,08420
 209,94;  343,617;  202,328; 1148,580;14,93142
 210,54;  350,617;  198,866; 1237,375;14,61237
 211,14;  369,893;  209,174; 1365,714;13,89648
 211,73;  374,276;  201,175; 1462,293;13,72599
 212,33;  395,627;  218,791; 1597,159;12,82938
 212,93;  388,508;  196,636; 1668,394;13,03689
 213,53;  365,594;  181,790; 1767,846;11,58875
 214,13;  399,507;  176,403; 1856,152;13,28199
 214,73;  387,633;  178,481; 1880,384;12,28930
 215,33;  371,540;  156,405; 1915,118;12,23252
 215,93;  410,731;  188,327; 2037,402;12,02783
 216,53;  384,154;  142,559; 2075,324;12,49997
 217,13;  440,888;  210,866; 2307,296;10,97210
 217,73;  445,378;  181,250; 2505,729;11,36289
 218,33;  421,323;  162,403; 2685,388;10,26243
 218,93;  492,031;  172,632; 2992,680;11,32600
 219,53;  523,377;  174,942; 3296,897;11,16081
 220,13;  510,080;  151,557; 3577,759;10,46416
 220,73;  583,418;  167,405; 3938,368;11,03201
 221,32;  625,463;  178,251; 4361,644;10,69015
 221,92;  690,518;  192,249; 4765,641;10,89497
 222,52;  727,912;  172,558; 5220,516;11,00157
 223,12;  792,691;  167,481; 5680,122;11,34139
 223,72;  863,438;  185,019; 6134,170;11,40362
 224,32;  928,397;  176,865; 6553,184;11,78630
 224,92;  991,293;  175,404; 6818,083;12,28254
 225,52; 1046,107;  188,020; 7246,795;12,15632
 226,12; 1106,205;  182,327; 7519,659;12,59146
 226,72; 1146,308;  155,174; 7864,594;12,85615
 227,31; 1217,973;  151,251; 8241,262;13,18568
 227,91; 1319,668;  174,405; 8608,273;13,57933
 228,51; 1371,953;  177,790; 9061,833;13,44166
 229,11; 1463,620;  166,020; 9428,961;14,00851
 229,71; 1530,734;  168,175; 9795,860;14,15251
 230,31; 1632,612;  163,326;10145,637;14,71889
 230,91; 1691,838;  163,483;10541,858;14,72634
 231,51; 1792,812;  147,173;10894,551;15,31201
 232,10; 1893,811;  152,172;11267,104;15,66936
 232,70; 2032,640;  167,484;11505,325;16,45072
 233,30; 2105,567;  192,789;11856,258;16,39974
 233,90; 2209,617;  163,789;12037,003;17,23062
 234,50; 2272,491;  175,558;12250,655;17,36577
 235,10; 2362,909;  157,404;12347,468;18,09264
 235,70; 2464,907;  192,020;12458,020;18,52998
 236,29; 2532,109;  182,251;12486,574;19,09782
 236,89; 2564,504;  165,022;12367,077;19,66457
 237,49; 2666,960;  177,173;12382,301;20,39952
 238,09; 2648,334;  176,789;12207,055;20,54440
 238,69; 2743,655;  193,099;12025,720;21,55530
 239,29; 2698,908;  168,328;11806,275;21,74422
 239,89; 2687,223;  178,791;11452,563;22,25016
 240,48; 2637,153;  173,635;11111,338;22,52318
 241,08; 2611,026;  163,097;10762,261;23,09549
 241,68; 2596,995;  198,558;10511,432;23,25673
 242,28; 2535,572;  162,404;10160,933;23,73517
 242,88; 2519,485;  190,480; 9825,661;24,17188
 243,48; 2476,291;  192,250; 9558,253;24,38650
 244,07; 2433,179;  186,482; 9286,172;24,68982
 244,67; 2358,123;  188,943; 9134,113;24,24973
 245,27; 2356,276;  182,329; 8936,369;24,83364
 245,87; 2296,290;  184,096; 8853,728;24,36313
 246,47; 2284,611;  172,329; 8804,009;24,47127
 247,06; 2260,049;  169,097; 8795,610;24,23867
 247,66; 2244,448;  170,943; 8817,762;23,97998
 248,26; 2253,792;  208,559; 8992,584;23,28355
 248,86; 2252,950;  189,559; 9141,797;23,04888
 249,46; 2204,373;  150,789; 9313,349;22,41278
 250,05; 2263,429;  191,405; 9693,550;21,80586
 250,65; 2257,080;  158,636;10006,744;21,30809
 251,25; 2335,700;  179,713;10412,907;21,06856
 251,85; 2362,490;  182,329;11056,103;20,04972
 252,44; 2397,743;  147,251;11624,928;19,60755
 253,04; 2517,495;  180,559;12334,676;19,22753
 253,64; 2505,487;  144,175;12999,837;18,36787
 254,24; 2623,606;  186,559;13928,194;17,73477
 254,84; 2679,681;  175,712;14774,119;17,15235
 255,43; 2766,173;  178,713;15718,690;16,65035
 256,03; 2830,804;  163,329;16666,213;16,16369
 256,63; 2889,553;  176,868;17718,668;15,46412
 257,23; 2880,830;  165,098;18500,507;14,81140
 257,82; 2966,202;  177,022;19474,686;14,45346
 258,42; 2958,201;  132,484;20270,264;14,03192
 259,02; 3029,042;  174,636;21174,808;13,59230
 259,62; 3012,946;  159,792;21804,596;13,18171
 260,21; 3042,141;  177,328;22295,978;12,95202
 260,81; 2984,404;  170,481;22823,178;12,42202
 261,41; 2971,726;  166,176;23209,931;12,17488
 262,01; 2940,081;  195,023;23642,910;11,70706
 262,60; 2890,599;  161,483;23968,584;11,46345
 263,20; 2858,746;  164,944;24178,655;11,21777
 263,80; 2868,628;  182,562;24384,042;11,09877
 264,40; 2785,276;  145,484;24473,227;10,85095
 264,99; 2771,772;  179,331;24635,359;10,60042
 265,59; 2733,125;  164,255;24795,929;10,42914
 266,19; 2749,913;  164,638;24886,859;10,45729
 266,78; 2767,481;  198,716;25019,817;10,34912
 267,38; 2701,918;  172,332;25091,828;10,15103
 267,98; 2686,667;  158,331;25004,990;10,17576
 268,58; 2697,891;  177,562;25077,419;10,12186
 269,17; 2686,435;  165,332;25112,785;10,10565
 269,77; 2697,552;  182,945;24923,644;10,16385
 270,37; 2682,089;  150,485;24758,337;10,28779
 270,96; 2747,342;  204,253;24703,174;10,38041
 271,56; 2695,680;  167,868;24397,106;10,43290
 272,16; 2690,192;  169,176;24154,837;10,51051
 272,75; 2707,392;  166,561;24041,291;10,64234
 273,35; 2729,519;  173,099;24093,138;10,68736
 273,95; 2800,446;  175,176;23998,878;11,01957
 274,54; 2819,515;  155,251;24001,451;11,17270
 275,14; 2891,230;  180,253;24296,492;11,24129
 275,74; 2909,310;  144,022;24387,065;11,40652
 276,33; 3051,127;  190,099;24762,723;11,64315
 276,93; 3120,154;  175,943;24987,120;11,86647
 277,53; 3253,318;  174,867;25496,469;12,15741
 278,12; 3320,907;  157,252;26003,751;12,24017
 278,72; 3517,371;  194,867;26636,274;12,56554
 279,32; 3610,656;  165,713;27171,463;12,75633
 279,91; 3774,325;  163,021;27905,256;13,01735
 280,51; 3918,874;  173,251;28428,361;13,25644
 281,11; 4115,759;  174,098;29118,155;13,61821
 281,70; 4281,080;  153,098;29568,424;14,03344
 282,30; 4465,142;  159,098;30230,644;14,31933
 282,90; 4598,639;  169,945;30561,185;14,57227
 283,49; 4826,035;  186,099;31199,186;14,96122
 284,09; 5021,328;  190,714;31628,304;15,36573
 284,69; 5213,022;  189,175;32037,341;15,77437
 285,28; 5412,351;  191,867;32500,794;16,15802
 285,88; 5592,921;  199,022;32695,762;16,59827
 286,47; 5736,969;  175,329;32693,137;17,10337
 287,07; 5948,986;  203,944;32809,646;17,61975
 287,67; 6171,829;  190,789;32982,022;18,23975
 288,26; 6283,366;  169,559;32869,266;18,69682
 288,86; 6550,600;  172,175;32963,147;19,45177
 289,46; 6836,434;  170,636;33023,814;20,28966
 290,05; 7095,414;  162,251;33047,628;21,08282
 290,65; 7391,598;  175,252;33285,329;21,79501
 291,24; 7743,869;  189,559;33411,430;22,73897
 291,84; 8047,553;  182,406;33467,438;23,62968
 292,44; 8336,124;  176,327;33666,984;24,36440
 293,03; 8729,932;  230,636;33835,995;25,29149
 293,63; 9025,381;  170,022;33925,161;26,23411
 294,22; 9301,773;  194,175;34192,898;26,78806
 294,82; 9553,371;  181,561;34111,735;27,62087
 295,41; 9746,388;  153,944;33869,501;28,45109
 296,01; 9977,472;  217,176;33826,800;29,04018
 296,61;10110,109;  179,559;33699,024;29,62622
 297,20;10140,957;  182,638;33244,688;30,12009
 297,80;10279,117;  187,635;33052,862;30,70565
 298,39;10287,875;  163,868;32744,796;31,07342
 298,99;10437,754;  175,638;32519,890;31,72779
 299,58;10501,530;  186,558;32371,911;32,04865
 300,18;10578,691;  207,097;32078,314;32,54220
 300,78;10515,739;  169,405;31723,868;32,78881
 301,37;10578,536;  186,639;31725,967;32,94901
 301,97;10717,560;  182,021;31752,405;33,37159
 302,56;10745,358;  166,099;31633,889;33,61933
 303,16;10774,167;  155,099;31597,477;33,77311
 303,75;10824,025;  174,405;31569,005;33,92182
 304,35;10937,008;  163,635;31819,100;34,03322
 304,94;11050,117;  180,098;31793,374;34,38435
 305,54;11071,386;  203,636;31684,952;34,52127
 306,13;11065,899;  149,173;31607,401;34,70229
 306,73;11036,314;  165,404;31473,524;34,72233
 307,33;11089,155;  185,020;31361,055;34,97601
 307,92;11112,498;  169,944;31395,096;35,04404
 308,52;11356,737;  165,099;31890,100;35,27703
 309,11;11530,359;  172,638;32427,632;35,21229
 309,71;11660,402;  155,177;32681,960;35,37154
 310,30;11711,299;  157,098;32836,795;35,35590
 310,90;11948,068;  179,329;33162,180;35,68139
 311,49;11944,764;  182,559;33344,317;35,46919
 312,09;12029,333;  142,636;33547,722;35,58350
 312,68;12186,440;  201,790;33927,769;35,53537
 313,28;12170,421;  152,559;33956,788;35,55136
 313,87;12238,421;  150,482;34176,314;35,52577
 314,47;12358,201;  167,253;34398,507;35,61350
 315,06;12340,412;  148,405;34567,733;35,42198
 315,66;12373,564;  158,943;34854,645;35,20500
 316,25;12287,701;  140,406;34689,418;35,15960
 316,85;12270,863;  139,559;34777,975;35,02269
 317,44;12280,418;  158,561;34947,829;34,84367
 318,04;12273,743;  148,945;34913,363;34,87704
 318,63;12188,481;  148,712;34929,575;34,61607
 319,22;12162,607;  174,253;35197,076;34,23012
 319,82;12145,192;  176,483;35096,106;34,27502
 320,41;12062,729;  161,945;35099,992;34,06253
 321,01;12032,591;  171,020;35141,349;33,91896
 321,60;11967,365;  166,714;35251,383;33,63478
 322,20;11838,286;  161,405;35121,065;33,40101
 322,79;11827,734;  191,790;35166,860;33,26925
 323,39;11769,251;  168,250;35279,984;33,04024
 323,98;11693,539;  153,251;35282,413;32,85102
 324,58;11514,366;  157,176;35187,689;32,42085
 325,17;11468,272;  167,637;35145,514;32,30795
 325,76;11324,724;  182,867;34943,934;32,05269
 326,36;11148,012;  147,174;34505,813;32,01767
 326,95;10983,025;  174,406;34216,453;31,75079
 327,55;10808,726;  161,560;33888,496;31,56873
 328,14;10622,140;  160,558;33455,672;31,42077
 328,74;10427,688;  193,637;33098,303;31,10213
 329,33;10202,315;  182,328;32807,741;30,71221
 329,92; 9985,608;  159,869;32210,755;30,65668
 330,52; 9721,584;  177,097;31505,485;30,46594
 331,11; 9515,840;  174,790;31212,280;30,09602
 331,71; 9269,325;  171,560;30432,102;30,06478
 332,30; 9046,809;  186,406;30077,143;29,64264
 332,89; 8843,088;  194,867;29511,339;29,49953
 333,49; 8577,578;  191,483;28964,734;29,14545
 334,08; 8313,713;  176,252;28472,291;28,75830
 334,68; 8156,523;  178,944;28023,751;28,65015
 335,27; 8008,833;  189,097;27739,620;28,38326
 335,86; 7863,070;  198,252;27392,433;28,18551
 336,46; 7641,005;  178,404;27143,820;27,67471
 337,05; 7515,043;  173,175;26956,025;27,41257
 337,65; 7354,844;  154,252;26747,263;27,07701
 338,24; 7370,345;  213,636;26704,877;27,01538
 338,83; 7209,196;  192,482;26645,103;26,52559
 339,43; 7155,797;  167,791;26542,617;26,49498
 340,02; 7074,348;  173,945;26436,655;26,27453
 340,61; 6999,553;  160,482;26511,836;25,95339
 341,21; 6934,919;  202,099;26614,149;25,49147
 341,80; 6880,147;  167,483;26464,883;25,52596
 342,40; 6793,127;  184,866;26529,250;25,08413
 342,99; 6754,088;  176,482;26685,878;24,81236
 343,58; 6748,161;  171,251;26786,510;24,71105
 344,18; 6714,184;  187,789;26883,705;24,44716
 344,77; 6704,230;  173,791;27228,350;24,13804
 345,36; 6690,795;  152,944;27547,530;23,86548
 345,96; 6743,880;  186,790;27898,073;23,66217
 346,55; 6686,424;  159,250;28039,876;23,41114
 347,14; 6664,014;  148,712;28352,017;23,10120
 347,74; 6673,640;  134,941;28802,237;22,80891
 348,33; 6808,355;  176,788;29445,868;22,65724
 348,92; 6874,068;  182,864;30050,130;22,40314
 349,52; 6885,573;  153,249;30534,317;22,15960
 350,11; 6924,284;  164,330;30849,386;22,03012
 350,70; 6858,742;  157,636;30870,762;21,81838
 351,29; 6741,531;  151,793;30630,485;21,62080
 351,89; 6689,345;  176,946;30644,581;21,37481
 352,48; 6631,471;  148,098;30744,072;21,19028
 353,07; 6586,069;  171,481;30661,308;21,03845
 353,67; 6505,720;  187,941;30661,298;20,73214
 354,26; 6374,873;  177,943;30285,990;20,58231
 354,85; 6254,750;  180,097;30287,588;20,17655
 355,45; 6167,558;  150,483;30048,817;20,12512
 356,04; 6086,553;  171,712;29992,195;19,83483
 356,63; 5976,351;  194,637;29722,345;19,58064
 357,22; 5931,971;  182,254;29642,724;19,51672
 357,82; 5758,520;  179,254;29568,586;18,98399
 358,41; 5740,538;  183,944;29398,069;19,02023
 359,00; 5615,041;  171,253;29186,052;18,76211
 359,60; 5578,254;  179,559;29089,288;18,67432
 360,19; 5471,246;  167,250;28900,900;18,45918
 360,78; 5379,432;  182,868;28752,546;18,18909
 361,37; 5296,333;  175,637;28566,902;18,03617
 361,97; 5274,913;  177,175;28530,155;17,97955
 362,56; 5131,755;  174,560;28176,133;17,70327
 363,15; 5121,002;  188,252;27971,246;17,75457
 363,74; 4979,269;  173,022;27662,683;17,48383
 364,34; 4922,358;  206,022;27333,877;17,38558
 364,93; 4765,628;  157,484;26881,684;17,24334
 365,52; 4623,994;  145,329;26525,510;16,97738
 366,11; 4572,362;  169,791;26163,872;16,93682
 366,71; 4454,838;  156,791;25776,076;16,77661
 367,30; 4386,537;  165,790;25473,044;16,67801
 367,89; 4354,913;  201,328;25232,258;16,59381
 368,48; 4257,378;  179,561;24906,241;16,49157
 369,07; 4151,896;  181,713;24451,608;16,35847
 369,67; 4097,700;  185,253;24105,611;16,35614
 370,26; 4004,159;  173,867;23873,858;16,16158
 370,85; 3934,749;  174,252;23550,537;16,08680
 371,44; 3896,139;  171,867;23370,237;16,05402
 372,03; 3824,679;  156,637;23193,697;15,92235
 372,63; 3779,324;  153,483;22877,551;15,95595
 373,22; 3725,208;  163,713;22601,975;15,87242
 373,81; 3667,736;  151,098;22258,948;15,90674
 374,40; 3629,461;  157,866;21988,723;15,90224
 374,99; 3548,857;  160,945;21684,224;15,74069
 375,59; 3473,515;  159,635;21418,913;15,58792
 376,18; 3500,595;  193,021;21403,678;15,59392
 376,77; 3472,995;  175,021;21085,997;15,77150
 377,36; 3432,093;  193,098;21072,078;15,51319
 377,95; 3393,177;  179,791;20770,557;15,60596
 378,55; 3361,745;  157,790;20539,965;15,71940
 379,14; 3339,541;  164,637;20564,566;15,56331
 379,73; 3331,901;  170,483;20364,577;15,65516
 380,32; 3328,388;  182,867;20445,975;15,52339
 380,91; 3290,835;  165,330;20277,027;15,54073
 381,50; 3292,502;  181,637;20290,182;15,47036
 382,10; 3299,157;  159,406;20190,898;15,67408
 382,69; 3286,731;  155,867;20114,568;15,68671
 383,28; 3322,977;  188,560;20055,244;15,77725
 383,87; 3278,796;  162,483;19910,528;15,78036
 384,46; 3264,950;  171,330;19836,502;15,73147
 385,05; 3310,257;  193,637;19833,439;15,86890
 385,64; 3305,901;  161,022;19814,872;16,00134
 386,24; 3314,226;  152,869;19756,098;16,12672
 386,83; 3344,891;  186,100;19744,215;16,15079
 387,42; 3359,856;  190,791;19875,815;16,09886
 388,01; 3405,801;  179,178;20018,150;16,26406
 388,60; 3478,670;  176,792;20248,923;16,45006
 389,19; 3506,823;  154,948;20518,679;16,46003
 389,78; 3585,929;  164,025;20750,651;16,62198
 390,37; 3713,215;  214,023;21186,993;16,68429
 390,96; 3755,362;  178,869;21368,206;16,87874
 391,56; 3776,129;  167,794;21459,411;16,94721
 392,15; 3846,002;  162,409;21772,680;17,04556
 392,74; 3885,612;  146,796;21948,826;17,14893
 393,33; 3977,613;  160,256;22265,505;17,26901
 393,92; 4073,287;  189,258;22553,240;17,36734
 394,51; 4105,133;  156,641;22829,766;17,41486
 395,10; 4258,476;  185,414;23114,549;17,76370
 395,69; 4282,333;  170,491;23248,411;17,81721
 396,28; 4371,799;  189,338;23335,047;18,07013
 396,87; 4400,342;  194,724;23425,208;18,10387
 397,46; 4368,983;  190,495;23585,477;17,86062
 398,06; 4514,845;  193,035;23669,499;18,40912
 398,65; 4571,973;  179,116;23892,754;18,52460
 399,24; 4661,164;  198,885;23988,985;18,75687
 399,83; 4647,107;  178,276;23940,630;18,80635
 400,42; 4743,632;  206,819;24092,641;18,99375
 401,01; 4766,905;  178,902;24273,148;19,04190
 401,60; 4831,313;  192,679;24311,313;19,23257
 402,19; 4899,076;  205,069;24262,482;19,51169
 402,78; 4917,097;  220,079;24386,919;19,43580
 403,37; 4925,056;  191,857;24237,918;19,68388
 403,96; 4958,845;  198,098;24082,316;19,93260
 404,55; 4974,329;  217,956;23963,646;20,03047
 405,14; 4994,580;  193,043;23849,033;20,29734
 405,73; 5022,278;  217,671;23709,315;20,45241
 406,32; 5036,199;  206,526;23650,839;20,60062
 406,91; 5015,309;  210,305;23438,841;20,68578
 407,50; 5005,268;  205,002;23254,443;20,82595
 408,09; 5009,632;  180,775;23033,321;21,13050
 408,68; 5029,430;  195,469;22862,291;21,32615
 409,27; 5033,649;  181,543;22610,369;21,63335
 409,86; 5033,271;  200,459;22544,737;21,62886
 410,45; 5087,558;  221,452;22443,953;21,89720
 411,04; 5128,837;  237,138;22448,357;22,02355
 411,63; 5087,079;  220,591;22151,746;22,18984
 412,22; 5085,554;  214,430;21951,430;22,40937
 412,81; 5077,892;  231,119;21704,362;22,57122
 413,40; 5058,460;  243,270;21441,770;22,71477
 413,99; 5048,930;  264,040;21081,094;22,98543
 414,58; 4939,661;  218,885;20678,324;23,07383
 415,17; 4940,946;  213,504;20453,641;23,35677
 415,76; 4896,702;  211,661;20265,794;23,36197
 416,35; 4895,641;  202,582;20074,317;23,61675
 416,94; 4946,904;  227,660;20097,464;23,75083
 417,53; 5038,780;  216,196;20200,077;24,13237
 418,12; 5092,357;  202,580;20275,076;24,36059
 418,71; 5275,112;  227,423;20627,785;24,74313
 419,30; 5286,580;  222,272;20746,353;24,67496
 419,89; 5413,457;  215,887;20936,746;25,08376
 420,48; 5504,026;  237,500;21154,960;25,17765
 421,07; 5573,707;  223,807;21303,048;25,37994
 421,66; 5625,285;  202,883;21350,228;25,64105
 422,25; 5656,941;  215,649;21401,329;25,68382
 422,84; 5721,319;  237,110;21426,490;25,88188
 423,43; 5695,852;  219,265;21156,431;26,15725
 424,02; 5693,841;  235,495;20902,596;26,41080
 424,60; 5601,043;  202,184;20473,524;26,63297
 425,19; 5570,872;  225,647;20175,271;26,79361
 425,78; 5596,022;  240,186;20022,685;27,07361
 426,37; 5605,643;  231,338;19876,821;27,35644
 426,96; 5577,698;  230,723;19783,638;27,34618
 427,55; 5593,440;  219,644;19652,922;27,65255
 428,14; 5563,349;  199,181;19444,821;27,87212
 428,73; 5555,812;  223,337;19263,012;28,00718
 429,32; 5578,787;  235,569;19202,049;28,17190
 429,91; 5615,233;  249,875;19173,334;28,35295
 430,50; 5604,365;  233,797;19094,344;28,47514
 431,08; 5587,392;  250,181;18933,791;28,56627
 431,67; 5638,067;  286,872;18905,631;28,74088
 432,26; 5607,541;  296,102;18745,246;28,78963
 432,85; 5546,739;  317,487;18395,740;28,92565
 433,44; 5482,447;  312,255;18133,559;29,01130
 434,03; 5413,569;  342,022;17695,758;29,22452
 434,62; 5284,266;  310,101;17215,162;29,42412
 435,21; 5267,912;  324,333;16992,491;29,65882
 435,79; 5227,516;  309,330;16909,247;29,62777
 436,38; 5271,081;  310,098;16758,093;30,16163
 436,97; 5258,123;  303,867;16607,577;30,38729
 437,56; 5229,407;  308,941;16465,781;30,45438
 438,15; 5222,250;  281,634;16353,092;30,74155
 438,74; 5262,871;  298,403;16405,496;30,82162
 439,33; 5281,380;  270,711;16356,282;31,15009
 439,91; 5318,173;  236,479;16410,297;31,41926
 440,50; 5396,803;  281,940;16444,821;31,64574
 441,09; 5441,824;  277,400;16525,340;31,78510
 441,68; 5463,198;  268,783;16548,389;31,90749
 442,27; 5465,339;  251,784;16509,568;32,06806
 442,86; 5455,138;  225,473;16522,899;32,08890
 443,44; 5549,393;  238,474;16566,157;32,52708
 444,03; 5607,582;  276,165;16663,942;32,53288
 444,62; 5580,337;  243,934;16586,123;32,65415
 445,21; 5588,290;  252,935;16352,093;33,14059
 445,80; 5598,439;  274,241;16328,009;33,16479
 446,39; 5533,415;  267,549;16060,943;33,34221
 446,97; 5476,579;  231,777;15859,550;33,56078
 447,56; 5448,527;  244,006;15688,833;33,69750
 448,15; 5372,742;  247,008;15457,759;33,69810
 448,74; 5349,213;  263,008;15203,685;34,04267
 449,33; 5314,956;  248,776;15094,481;34,12556
 449,91; 5282,435;  254,928;14884,349;34,36573
 450,50; 5187,008;  236,390;14632,699;34,38811
 451,09; 5210,751;  256,313;14522,392;34,72880
 451,68; 5215,773;  277,004;14475,127;34,78466
 452,26; 5181,903;  263,157;14303,420;35,03315
 452,85; 5160,629;  255,004;14205,988;35,16329
 453,44; 5176,677;  259,540;14222,480;35,21563
 454,03; 5165,091;  235,926;14222,181;35,24292
 454,61; 5206,402;  233,540;14135,743;35,77032
 455,20; 5327,559;  268,000;14327,598;35,98651
 455,79; 5350,059;  265,310;14302,277;36,22399
 456,38; 5414,493;  270,768;14375,037;36,46928
 456,97; 5424,152;  247,461;14459,903;36,42365
 457,55; 5529,745;  258,460;14465,683;37,10285
 458,14; 5521,589;  278,461;14494,376;36,88210
 458,73; 5497,931;  266,075;14408,714;36,99349
 459,31; 5558,486;  297,766;14431,468;37,22110
 459,90; 5624,034;  292,844;14493,663;37,54143
 460,49; 5694,738;  307,613;14617,511;37,64614
 461,08; 5680,942;  260,227;14620,564;37,74783
 461,66; 5748,581;  269,074;14741,348;37,86210
 462,25; 5788,031;  274,765;14849,924;37,82646
 462,84; 5858,282;  305,611;14869,211;38,12705
 463,43; 5817,898;  225,532;14858,762;38,21689
 464,01; 5828,929;  279,839;14872,707;38,02604
 464,60; 5917,013;  298,840;14842,160;38,63061
 465,19; 5772,094;  251,377;14583,580;38,51966
 465,77; 5806,224;  260,222;14606,796;38,65733
 466,36; 5818,373;  279,763;14574,813;38,74495
 466,95; 5680,524;  265,378;14237,227;38,75755
 467,53; 5640,866;  272,683;13933,693;39,29566
 468,12; 5545,008;  290,914;13652,744;39,32166
 468,71; 5481,538;  276,146;13430,328;39,57214
 469,29; 5386,031;  252,144;13139,336;39,83713
 469,88; 5273,799;  266,682;12926,338;39,55176
 470,47; 5370,353;  320,834;12918,849;40,08186
 471,06; 5357,195;  276,142;12893,327;40,27089
 471,64; 5398,021;  281,373;12979,937;40,29313
 472,23; 5408,939;  258,832;13007,110;40,39845
 472,81; 5492,662;  250,218;13114,976;40,75042
 473,40; 5531,202;  267,986;13240,975;40,57057
 473,99; 5703,075;  325,986;13445,692;40,98483
 474,57; 5713,437;  254,986;13513,881;41,16822
 475,16; 5788,079;  283,448;13680,790;41,08749
 475,75; 5887,722;  295,985;13818,814;41,35035
 476,33; 5936,053;  299,676;13907,279;41,42079
 476,92; 5976,615;  296,909;13974,870;41,52451
 477,51; 6044,150;  286,599;14099,874;41,68129
 478,09; 6072,205;  291,061;14109,999;41,83494
 478,68; 6097,216;  288,830;14023,796;42,28905
 479,27; 6097,551;  315,215;14085,166;41,99242
 479,85; 6083,157;  281,368;13996,598;42,30179
 480,44; 6159,372;  273,522;14109,383;42,54054
 481,02; 6590,634;  282,521;15040,352;42,74418
 481,61; 7489,573;  309,060;16960,272;43,12307
 482,20; 8150,164;  303,136;18418,989;43,31581
 482,78; 8561,502;  327,291;19377,022;43,22482
 483,37; 8886,139;  316,827;20002,822;43,52999
 483,95; 9085,403;  356,750;20363,482;43,62858
 484,54; 9228,464;  359,752;20595,702;43,82652
 485,13; 9137,951;  329,671;20633,139;43,38313
 485,71; 9108,556;  302,980;20348,881;43,92707
 486,30; 9034,533;  341,672;20188,775;43,79914
 486,88; 8958,019;  363,133;19891,302;44,01276
 487,47; 8700,274;  358,133;19249,214;44,15915
 488,05; 8291,041;  344,363;18461,434;43,86293
 488,64; 7808,553;  339,054;17309,615;44,01445
 489,23; 7152,242;  352,516;15703,760;44,29430
 489,81; 6002,601;  354,516;13150,773;44,13857
 490,40; 5575,294;  311,362;12205,489;44,25656
 490,98; 5429,939;  294,285;11953,332;44,04866
 491,57; 5360,464;  322,670;11732,563;44,15286
 492,15; 5340,012;  314,284;11727,361;44,03482
 492,74; 5335,091;  303,671;11646,115;44,35923
 493,32; 5281,287;  323,746;11543,241;44,18684
 493,91; 5252,807;  305,899;11490,144;44,23104
 494,50; 5258,852;  311,051;11441,741;44,45188
 495,08; 5204,123;  304,359;11304,957;44,54089
 495,67; 5212,697;  308,438;11340,728;44,45368
 496,25; 5149,454;  267,591;11205,805;44,63126
 496,84; 5171,905;  273,130;11166,841;44,96883
 497,42; 5137,460;  262,283;11075,222;45,08651
 498,01; 5163,331;  305,745;11128,401;44,88349
 498,59; 5099,569;  249,744;11004,100;45,09638
 499,18; 5081,282;  256,822;11018,053;44,83186
 499,76; 5086,983;  280,821;10932,366;45,12174
 500,35; 4969,461;  273,281;10723,427;44,93889
 500,93; 4966,079;  269,283;10654,821;45,22440
 501,52; 4934,040;  269,129;10614,694;45,09093
 502,10; 4942,808;  269,281;10616,285;45,16793
 502,69; 4874,784;  257,664;10453,796;45,28305
 503,27; 4785,002;  241,974;10276,758;45,27280
 503,86; 4785,969;  252,357;10235,548;45,41245
 504,44; 4728,967;  248,126;10108,781;45,44162
 505,03; 4600,750;  236,126; 9868,908;45,31011
 505,61; 4585,038;  234,587; 9763,068;45,65734
 506,19; 4538,320;  258,741; 9651,530;45,56238
 506,78; 4444,155;  232,201; 9479,953;45,54570
 507,36; 4376,455;  251,357; 9286,946;45,65390
 507,95; 4309,972;  249,200; 9146,084;45,64263
 508,53; 4252,150;  237,432; 9044,650;45,58441
 509,12; 4194,831;  251,893; 8852,802;45,84327
 509,70; 4169,357;  266,893; 8712,712;46,20588
 510,29; 4096,388;  269,046; 8581,502;46,04345
 510,87; 3996,430;  246,278; 8374,779;46,13584
 511,46; 3915,120;  238,893; 8224,590;46,03514
 512,04; 3901,784;  251,739; 8077,734;46,64001
 512,62; 3811,020;  261,201; 7960,177;46,10768
 513,21; 3711,845;  226,892; 7788,365;46,08828
 513,79; 3661,114;  247,505; 7638,547;46,18576
 514,38; 3516,820;  220,121; 7479,199;45,41485
 514,96; 3511,471;  269,198; 7369,881;45,66143
 515,54; 3440,361;  235,275; 7277,389;45,51312
 516,13; 3415,904;  245,890; 7174,012;45,75575
 516,71; 3333,510;  241,043; 7042,984;45,46449
 517,30; 3269,116;  229,503; 6925,173;45,39669
 517,88; 3281,994;  267,965; 6837,488;45,87896
 518,46; 3177,887;  242,042; 6709,210;45,39615
 519,05; 3190,320;  243,502; 6677,957;45,79747
 519,63; 3133,730;  246,657; 6593,944;45,48515
 520,22; 3134,605;  255,040; 6529,659;45,89227
 520,80; 3087,556;  248,117; 6459,927;45,71034
 521,38; 3105,180;  268,887; 6475,789;45,69579
 521,97; 3070,066;  242,808; 6411,135;45,83508
 522,55; 3068,179;  246,424; 6397,907;45,87114
 523,13; 3046,955;  245,115; 6349,413;45,89946
 523,72; 3042,303;  250,042; 6333,987;45,89557
 524,30; 3111,216;  267,038; 6475,268;45,81302
 524,89; 3091,478;  235,424; 6475,171;45,77196
 525,47; 3173,081;  260,884; 6593,415;45,98789
 526,05; 3182,100;  231,807; 6667,627;45,84176
 526,64; 3235,812;  261,729; 6744,633;45,87579
 527,22; 3341,167;  258,730; 6923,624;46,24885
 527,80; 3411,265;  288,268; 7049,642;46,18878
 528,39; 3408,145;  247,883; 7124,865;45,95420
 528,97; 3491,895;  246,498; 7290,410;46,07378
 529,55; 3571,905;  260,269; 7517,821;45,63021
 530,14; 3690,251;  273,113; 7733,311;45,80492
 530,72; 3698,026;  251,575; 7806,535;45,61839
 531,30; 3769,586;  240,036; 7949,347;45,78295
 531,89; 3836,713;  243,190; 8060,554;45,96847
 532,47; 3904,470;  285,882; 8193,540;45,76055
 533,05; 3915,749;  279,729; 8276,056;45,47112
 533,63; 3939,299;  283,036; 8348,519;45,33223
 534,22; 3908,647;  247,112; 8375,286;45,04745
 534,80; 3973,168;  282,496; 8404,433;45,44078
 535,38; 4038,732;  322,728; 8535,996;45,24391
 535,97; 3964,936;  267,574; 8477,382;45,03592
 536,55; 3971,363;  320,111; 8568,904;44,26407
 537,13; 3961,269;  322,421; 8487,202;44,56761
 537,71; 4018,164;  358,113; 8523,551;44,82370
 538,30; 3997,880;  391,112; 8644,246;43,70180
 538,88; 4020,036;  413,957; 8682,565;43,61169
 539,46; 4126,742;  468,419; 8886,589;43,45746
 540,05; 4180,768;  494,572; 9053,679;43,06752
 540,63; 4274,170;  539,957; 9234,648;42,94820
 541,21; 4344,110;  559,956; 9382,760;42,89060
 541,79; 4363,698;  613,880; 9523,505;42,08727
 542,38; 4450,894;  647,034; 9641,720;42,29008
 542,96; 4540,494;  650,879; 9843,390;42,31287
 543,54; 4597,711;  672,418;10010,159;42,03686
 544,12; 4669,206;  649,726;10193,280;42,11722
 544,70; 4698,272;  620,648;10278,150;42,22235
 545,29; 4837,654;  633,034;10494,357;42,63748
 545,87; 4779,006;  591,187;10505,428;42,24043
 546,45; 4806,694;  556,880;10536,496;42,58495
 547,03; 4831,149;  543,803;10577,875;42,72788
 547,62; 4897,993;  517,187;10757,852;42,77853
 548,20; 4958,864;  496,571;10926,865;42,78204
 548,78; 4964,896;  484,261;10996,873;42,62152
 549,36; 5042,284;  440,954;11236,228;42,62356
 549,94; 5097,587;  398,725;11380,386;42,78826
 550,53; 5228,568;  407,108;11622,701;42,98890
 551,11; 5323,490;  379,876;11786,112;43,34133
 551,69; 5395,252;  379,185;12101,132;42,79210
 552,27; 5516,710;  341,493;12354,289;43,08087
 552,85; 5674,974;  359,261;12791,756;42,75661
 553,44; 5794,415;  341,185;13065,187;42,85782
 554,02; 5995,208;  358,108;13463,714;43,01289
 554,60; 6067,274;  302,184;13792,329;42,73557
 555,18; 6249,565;  330,108;14250,743;42,52289
 555,76; 6418,299;  313,031;14592,996;42,75408
 556,34; 6590,961;  316,491;15034,886;42,63012
 556,93; 6738,778;  307,108;15418,478;42,56179
 557,51; 6878,119;  296,645;15808,650;42,42826
 558,09; 7057,121;  319,185;16208,481;42,40551
 558,67; 7264,163;  311,413;16605,017;42,67165
 559,25; 7372,147;  326,029;16858,468;42,61996
 559,83; 7496,898;  304,874;17220,141;42,51794
 560,41; 7636,394;  295,184;17658,299;42,28049
 561,00; 7800,959;  305,644;17964,349;42,44544
 561,58; 7875,104;  305,184;18198,794;42,30516
 562,16; 8002,300;  291,107;18535,033;42,26718
 562,74; 8152,172;  274,415;18920,020;42,24994
 563,32; 8310,382;  278,182;19425,170;41,95020
 563,90; 8449,792;  298,721;19734,376;41,93875
 564,48; 8631,596;  310,107;20128,558;41,98860
 565,06; 8779,393;  290,644;20677,928;41,63747
 565,65; 9023,889;  295,797;21411,651;41,33431
 566,23; 9305,461;  353,644;22074,577;41,21286
 566,81; 9592,247;  290,106;22813,189;41,30048
 567,39; 9895,270;  312,413;23749,654;40,88731
 567,97;10156,125;  317,798;24445,760;40,77563
 568,55;10402,196;  312,721;25282,074;40,40744
 569,13;10672,543;  300,875;25985,573;40,38073
 569,71;10990,400;  298,800;26976,138;40,07746
 570,29;11394,402;  340,646;27965,534;40,01376
 570,87;11623,109;  332,800;28807,390;39,65047
 571,45;11821,900;  317,644;29504,075;39,41645
 572,03;11968,755;  271,182;29935,400;39,43328
 572,61;12182,436;  278,567;30658,437;39,18341
 573,20;12417,228;  313,876;31279,977;39,08581
 573,78;12591,780;  300,336;32070,451;38,68870
 574,36;12746,277;  303,490;32659,967;38,45532
 574,94;12842,548;  350,028;32969,530;38,29770
 575,52;12861,242;  322,257;33286,439;38,03821
 576,10;13126,185;  372,181;33829,419;38,12031
 576,68;13222,945;  356,028;34304,094;37,90177
 577,26;13535,199;  376,718;34970,970;38,03661
 577,84;13687,684;  374,259;35561,855;37,83556
 578,42;13779,907;  397,797;35907,543;37,68574
 579,00;13807,409;  367,336;36066,117;37,64855
 579,58;13843,847;  394,951;36358,705;37,39570
 580,16;13821,121;  386,258;36366,522;37,33953
 580,74;13842,926;  393,027;36608,613;37,13843
 581,32;13854,685;  385,489;36676,432;37,11448
 581,90;13800,206;  404,104;36700,500;36,90753
 582,48;13777,826;  394,796;36762,572;36,79914
 583,06;13785,634;  408,489;36882,136;36,67619
 583,64;13756,290;  407,412;37150,429;36,33038
 584,22;13678,718;  409,103;37069,976;36,19558
 584,80;13568,373;  424,950;36926,307;36,00804
 585,38;13415,377;  430,491;36498,816;36,00080
 585,96;13315,469;  400,028;36510,096;35,76687
 586,54;13234,821;  417,411;36434,899;35,58663
 587,12;13286,013;  384,873;36671,924;35,55301
 587,70;13325,813;  411,336;36772,495;35,51723
 588,28;13260,267;  398,335;36987,799;35,15201
 588,86;13246,462;  411,411;37134,744;34,95067
 589,44;13224,957;  381,487;37139,135;34,94095
 590,02;13222,214;  378,718;37355,737;34,73372
 590,59;13265,291;  354,488;37591,492;34,67197
 591,17;13255,144;  357,101;37811,448;34,43671
 591,75;13236,874;  359,025;37960,898;34,24789
 592,33;13292,999;  371,871;38254,145;34,10864
 592,91;13299,812;  326,101;38606,306;33,89144
 593,49;13364,114;  333,947;38912,389;33,77577
 594,07;13408,354;  341,716;39061,906;33,74632
 594,65;13363,360;  357,642;39133,911;33,54041
 595,23;13457,195;  347,718;39574,230;33,41994
 595,81;13437,283;  350,795;39762,091;33,20492
 596,39;13431,523;  349,871;39896,005;33,07947
 596,97;13378,247;  337,178;40114,666;32,78505
 597,55;13411,294;  327,026;39943,849;33,02705
 598,12;13299,817;  316,254;40022,096;32,69938
 598,70;13296,185;  316,870;40076,357;32,64457
 599,28;13346,148;  339,024;40361,354;32,49967
 599,86;13277,125;  330,793;40412,698;32,29969
 600,44;13170,575;  300,024;40495,453;32,01994
 601,02;13175,813;  350,099;40514,998;31,93264
 601,60;13122,711;  330,640;40527,074;31,82389
 602,18;13068,730;  303,946;40587,644;31,68722
 602,75;12975,015;  305,564;40724,692;31,34519
 603,33;12927,483;  325,947;40591,378;31,29617
 603,91;12821,928;  316,792;40690,319;30,97360
 604,49;12788,144;  325,639;40747,602;30,83102
 605,07;12707,973;  334,871;40763,081;30,60512
 605,65;12672,476;  344,485;40908,668;30,39132
 606,23;12622,377;  405,950;41020,458;30,07897
 606,80;12550,450;  452,256;41017,360;29,82414
 607,38;12514,841;  493,638;41115,470;29,59296
 607,96;12488,689;  546,795;41162,646;29,40205
 608,54;12430,987;  594,101;41212,721;29,14153
 609,12;12341,413;  616,641;41306,666;28,81486
 609,70;12259,555;  644,793;41349,678;28,53407
 610,27;12244,137;  652,641;41295,814;28,52015
 610,85;12260,804;  660,024;41419,558;28,46151
 611,43;12148,556;  677,178;41371,614;28,18906
 612,01;11998,239;  640,871;41203,148;27,99983
 612,59;11907,234;  630,947;41214,166;27,78559
 613,16;11876,591;  606,026;41170,539;27,78430
 613,74;11770,755;  579,024;40990,914;27,69415
 614,32;11745,712;  540,408;41042,971;27,66567
 614,90;11630,653;  490,178;40866,286;27,59175
 615,48;11382,769;  452,487;40559,746;27,25263
 616,05;11347,523;  410,180;40471,966;27,30119
 616,63;11210,815;  401,104;40363,494;27,04971
 617,21;11097,815;  399,718;40268,994;26,83294
 617,79;10986,808;  387,333;40142,361;26,66197
 618,36;10949,330;  397,486;40069,057;26,59800
 618,94;10715,308;  336,410;39771,528;26,31892
 619,52;10591,485;  365,642;39429,093;26,17752
 620,10;10544,712;  354,487;39491,226;26,03749
 620,67;10454,779;  361,873;39350,492;25,88680
 621,25;10376,005;  372,409;39161,485;25,78972
 621,83;10243,629;  354,641;39088,347;25,53070
 622,41;10245,570;  391,026;39125,842;25,44105
 622,98;10058,055;  364,642;38758,549;25,24727
 623,56;10020,280;  365,181;38884,157;25,06583
 624,14; 9876,468;  355,409;38728,291;24,81195
 624,72; 9826,113;  341,718;38649,914;24,75813
 625,29; 9769,706;  316,104;38666,309;24,65072
 625,87; 9755,066;  360,641;38532,616;24,61079
 626,45; 9581,949;  314,873;38446,873;24,30262
 627,02; 9482,474;  335,256;38280,118;24,10660
 627,60; 9456,122;  309,331;38281,586;24,08809
 628,18; 9416,490;  300,795;38338,973;23,96460
 628,76; 9338,784;  310,488;38379,025;23,71590
 629,33; 9336,555;  323,334;38358,690;23,69696
 629,91; 9167,251;  314,718;38329,687;23,28697
 630,49; 9213,762;  344,488;38449,637;23,27579
 631,06; 9166,988;  329,411;38535,475;23,13135
 631,64; 9118,832;  330,488;38571,503;22,98146
 632,22; 9012,237;  289,335;38453,021;22,85655
 632,79; 9078,431;  314,489;38673,557;22,84712
 633,37; 9020,244;  297,563;38843,835;22,62912
 633,95; 8985,315;  304,873;38879,750;22,50284
 634,52; 8896,353;  282,103;38992,354;22,25315
 635,10; 8913,237;  293,872;39015,394;22,25988
 635,68; 8870,173;  298,643;39256,610;22,00200
 636,25; 8765,256;  287,567;39194,822;21,78948
 636,83; 8783,399;  278,027;39495,718;21,68759
 637,41; 8744,150;  282,258;39440,479;21,60949
 637,98; 8779,448;  311,182;39708,412;21,49457
 638,56; 8765,689;  313,182;39881,850;21,36162
 639,13; 8680,855;  288,334;39933,633;21,16902
 639,71; 8705,594;  304,950;40086,266;21,11706
 640,29; 8535,681;  256,796;39748,763;20,96347
 640,86; 8571,606;  264,949;40035,288;20,88656
 641,44; 8426,839;  279,949;40050,505;20,48473
 642,02; 8486,841;  299,488;40076,798;20,58297
 642,59; 8425,151;  274,949;40148,861;20,43994
 643,17; 8376,538;  281,334;40262,617;20,24748
 643,74; 8311,463;  280,180;40240,603;20,09809
 644,32; 8277,773;  297,872;40196,974;20,00020
 644,89; 8193,776;  294,641;40164,421;19,81233
 645,47; 8196,470;  303,641;40245,177;19,76095
 646,05; 8119,395;  290,411;40090,932;19,67056
 646,62; 8065,552;  289,641;40109,995;19,52748
 647,20; 8013,938;  289,718;40289,058;19,31087
 647,77; 7927,248;  265,487;40197,967;19,18679
 648,35; 7871,866;  256,026;40034,107;19,14582
 648,92; 7853,099;  298,949;40081,786;18,98847
 649,50; 7736,409;  255,026;40013,310;18,81717
 650,08; 7642,796;  261,410;39907,450;18,61822
 650,65; 7714,875;  262,333;40059,590;18,72627
 651,23; 7675,877;  243,564;40483,499;18,46999
 651,80; 7807,572;  258,179;41612,870;18,25523
 652,38; 7875,112;  261,872;42032,164;18,22645
 652,95; 7865,192;  233,256;42436,227;18,08388
 653,53; 7927,886;  276,564;42747,752;18,01532
 654,10; 7901,119;  289,718;42884,815;17,86920
 654,68; 7824,121;  250,641;42776,185;17,80925
 655,25; 7776,739;  264,872;42974,018;17,58843
 655,83; 7741,434;  245,179;43005,004;17,53107
 656,40; 7769,513;  284,795;42952,990;17,54168
 656,98; 7682,977;  253,179;42933,591;17,40798
 657,55; 7608,440;  261,410;42895,270;17,23285
 658,13; 7536,750;  252,641;42493,410;17,24426
 658,70; 7454,214;  269,102;42348,011;17,07533
 659,28; 7326,139;  260,640;41591,459;17,09499
 659,85; 7063,757;  256,948;40543,599;16,89594
 660,43; 7034,990;  275,948;40407,508;16,84221
 661,00; 7018,300;  262,486;40634,879;16,73375
 661,58; 7024,456;  249,794;40897,480;16,66678
 662,15; 7019,766;  239,333;41179,928;16,56164
 662,73; 7088,538;  299,948;41449,453;16,49738
 663,30; 7065,001;  268,563;41664,977;16,41794
 663,88; 6994,927;  270,948;41892,886;16,15489
 664,45; 7007,083;  255,486;42090,257;16,13872
 665,03; 7062,316;  264,717;42455,705;16,11149
 665,60; 7137,626;  312,102;42942,152;16,01106
 666,17; 7072,089;  271,255;43090,446;15,88268
 666,75; 7094,938;  261,025;43340,663;15,86344
 667,32; 7111,632;  289,948;43719,188;15,70758
 667,90; 7100,096;  266,101;43996,712;15,62749
 668,47; 7075,329;  294,640;44317,698;15,40259
 669,05; 7133,408;  269,486;44670,762;15,45884
 669,62; 7114,949;  245,178;44863,671;15,39669
 670,19; 7069,951;  254,794;44851,888;15,28162
 670,77; 7085,800;  265,793;45132,643;15,20055
 671,34; 7034,648;  268,793;45023,860;15,11752
 671,92; 7069,343;  253,947;45300,846;15,12956
 672,49; 7100,422;  269,947;45421,294;15,12795
 673,06; 7014,732;  224,024;45433,818;15,02043
 673,64; 6962,042;  255,947;45416,958;14,84930
 674,21; 6951,121;  237,255;45450,021;14,84949
 674,79; 6998,969;  262,255;45639,007;14,84618
 675,36; 6977,741;  276,947;45766,840;14,73029
 675,93; 6896,897;  253,332;45623,903;14,64290
 676,51; 6868,053;  281,870;45858,427;14,45081
 677,08; 6874,901;  268,101;45891,952;14,48102
 677,65; 6832,057;  263,947;45995,707;14,36225
 678,23; 6865,367;  268,485;46231,924;14,35246
 678,80; 6876,985;  257,101;46384,987;14,35115
 679,38; 6852,218;  241,639;46510,358;14,28736
 679,95; 6865,989;  267,485;46653,959;14,22506
 680,52; 6874,684;  250,639;47027,638;14,16090
 681,10; 6907,302;  270,331;47363,778;14,09319
 681,67; 6879,535;  272,562;47716,918;13,92573
 682,24; 6853,152;  236,254;47830,289;13,90279
 682,82; 6943,308;  250,716;48266,736;13,93825
 683,39; 7001,618;  279,331;48759,338;13,86610
 683,96; 7013,928;  243,869;48931,478;13,90510
 684,54; 6953,546;  237,408;49218,233;13,71177
 685,11; 7040,856;  268,254;49710,835;13,69791
 685,68; 7085,781;  255,023;50123,975;13,69742
 686,25; 7041,245;  242,254;50130,576;13,62842
 686,83; 7044,555;  243,715;50379,947;13,56472
 687,40; 7067,711;  228,023;50759,471;13,53551
 687,97; 7143,252;  276,331;51175,073;13,49134
 688,55; 7096,639;  237,869;51281,367;13,43711
 689,12; 7106,333;  225,254;51495,045;13,42131
 689,69; 7116,181;  232,023;51621,339;13,39609
 690,26; 7130,261;  242,869;51610,787;13,40796
 690,84; 7121,724;  241,946;51917,080;13,31352
 691,41; 7110,111;  250,638;51948,759;13,26832
 691,98; 7113,806;  256,561;52306,822;13,17428
 692,56; 7135,577;  235,253;52441,270;13,21749
 693,13; 7175,964;  294,869;52495,871;13,18192
 693,70; 7140,659;  274,176;52639,396;13,11268
 694,27; 7161,199;  250,715;52769,689;13,15807
 694,84; 7108,048;  243,561;52835,829;13,05227
 695,42; 7196,127;  284,023;52996,892;13,11275
 695,99; 7133,052;  250,099;53277,263;12,98005
 696,56; 7112,901;  243,099;53121,557;12,99168
 697,13; 7169,057;  264,022;53431,082;12,98743
 697,71; 7073,059;  219,638;53449,529;12,87514
 698,28; 7156,215;  251,253;53810,515;12,89219
 698,85; 7141,679;  218,330;53892,809;12,89877
 699,42; 7178,066;  225,715;54085,718;12,90819
 699,99; 7211,453;  265,253;54175,781;12,88468
 700,57; 7210,224;  265,868;54237,845;12,86660
 701,14; 7176,842;  245,176;54338,754;12,81421
 701,71; 7210,229;  249,330;54598,124;12,80783
 702,28; 7220,616;  256,407;54509,418;12,83654
 702,85; 7214,310;  258,484;54701,327;12,77638
 703,43; 7244,005;  273,714;54993,775;12,73809
 704,00; 7287,699;  279,483;55230,223;12,75363
 704,57; 7214,317;  259,791;55148,209;12,67030
 705,14; 7264,858;  288,330;55447,580;12,64797
 705,71; 7249,706;  304,483;55488,950;12,58547
 706,28; 7263,862;  265,714;55340,706;12,70658
 706,86; 7257,018;  295,252;55697,307;12,56590
 707,43; 7258,174;  310,022;55571,909;12,57314
 708,00; 7227,330;  290,252;55628,818;12,53570
 708,57; 7200,409;  268,098;55526,881;12,54517
 709,14; 7277,642;  293,791;55719,329;12,60042
 709,71; 7227,799;  276,560;55778,853;12,52424
 710,28; 7267,108;  279,637;56054,301;12,52804
 710,86; 7267,880;  291,175;56245,287;12,46862
 711,43; 7302,344;  290,406;56174,812;12,54722
 712,00; 7300,192;  274,637;56266,490;12,54746
 712,57; 7346,502;  275,791;56451,861;12,58670
 713,14; 7390,658;  262,252;56564,847;12,66088
 713,71; 7351,430;  270,021;56355,602;12,62608
 714,28; 7367,970;  257,560;56496,742;12,64316
 714,85; 7298,896;  242,790;56285,498;12,59059
 715,42; 7378,667;  253,098;56570,330;12,65256
 716,00; 7454,746;  284,329;56620,008;12,72802
 716,57; 7414,441;  247,636;56825,918;12,66706
 717,14; 7383,905;  228,329;56662,134;12,67959
 717,71; 7371,445;  227,636;56615,659;12,66902
 718,28; 7454,371;  255,405;56809,337;12,72938
 718,85; 7353,681;  227,252;56777,554;12,60193
 719,42; 7488,067;  251,790;56956,925;12,76124
 719,99; 7397,685;  222,405;56871,680;12,66615
 720,56; 7453,995;  244,328;57079,282;12,68527
 721,13; 7486,920;  243,867;57071,037;12,74576
 721,70; 7412,153;  235,405;56982,716;12,64685
 722,27; 7474,309;  254,867;57061,317;12,70884
 722,84; 7537,235;  280,867;57280,842;12,73048
 723,41; 7476,699;  234,251;57128,136;12,72975
 723,98; 7540,316;  241,328;57476,276;12,75268
 724,55; 7536,011;  262,328;57525,877;12,70212
 725,12; 7493,936;  207,636;57460,709;12,72648
 725,69; 7593,554;  237,020;57676,772;12,80739
 726,27; 7589,787;  233,020;57737,989;12,79327
 726,84; 7661,020;  240,636;58096,668;12,82560
 727,41; 7678,637;  251,251;57917,039;12,88006
 727,98; 7744,947;  263,020;58335,717;12,88373
 728,55; 7820,873;  283,020;58212,549;13,01211
 729,12; 7821,106;  230,328;58427,843;13,04313
 729,69; 7876,108;  268,559;58545,983;13,05402
 730,26; 7877,956;  275,251;58827,046;12,98458
 730,82; 7876,651;  245,712;58534,955;13,09150
 731,39; 7918,576;  244,097;58687,249;13,13153
 731,96; 7999,194;  238,866;58878,312;13,23397
 732,53; 8036,581;  269,251;59284,914;13,16147
 733,10; 8103,352;  270,558;59342,284;13,25980
 733,67; 8116,893;  277,097;59617,578;13,21155
 734,24; 8073,972;  258,020;59095,872;13,28388
 734,81; 8153,743;  285,097;59304,397;13,33233
 735,38; 8113,361;  263,097;59005,075;13,36398
 735,95; 8096,902;  264,789;58936,215;13,34911
 736,52; 8169,673;  280,096;59168,663;13,39747
 737,09; 8180,060;  276,635;58809,033;13,50265
 737,66; 8222,755;  316,712;59152,712;13,43742
 738,23; 8252,834;  248,866;59120,159;13,59571
 738,80; 8374,682;  294,635;59379,761;13,67526
 739,37; 8326,531;  293,866;59598,824;13,54468
 739,94; 8388,148;  277,865;59713,887;13,64540
 740,51; 8500,151;  326,250;59698,258;13,76726
 741,07; 8453,384;  267,865;59637,475;13,78739
 741,64; 8498,386;  288,404;59815,307;13,79205
 742,21; 8535,773;  274,096;59962,755;13,84128
 742,78; 8508,236;  246,327;59720,818;13,89152
 743,35; 8606,469;  261,634;60063,265;13,95419
 743,92; 8709,779;  301,942;60219,098;14,03244
 744,49; 8689,705;  279,250;60013,084;14,07988
 745,06; 8723,399;  268,250;60047,301;14,14400
 745,63; 8747,402;  252,865;60047,902;14,20609
 746,19; 8761,481;  258,942;59949,811;14,24429
 746,76; 8758,483;  272,557;60104,413;14,18296
 747,33; 8821,716;  253,865;60042,937;14,33013
 747,90; 8888,487;  273,173;60244,770;14,36566
 748,47; 8824,413;  286,096;60168,371;14,25850
 749,04; 8886,261;  282,942;60151,204;14,37042
 749,61; 8934,186;  291,480;60108,882;14,44848
 750,17; 8952,804;  278,634;60286,176;14,45513
 750,74; 8966,960;  284,557;60067,470;14,52322
 751,31; 8966,962;  257,634;59969,763;14,58553
 751,88; 8908,657;  244,788;59851,903;14,53496
 752,45; 9024,121;  272,480;59977,505;14,65813
 753,02; 9025,123;  267,557;59914,414;14,68236
 753,58; 9047,971;  256,403;59677,939;14,79526
 754,15; 9066,512;  268,326;59703,463;14,80300
 754,72; 9041,668;  247,172;59566,834;14,82560
 755,29; 8982,209;  243,634;59412,436;14,76889
 755,86; 9069,673;  261,480;59606,268;14,84240
 756,42; 9126,906;  268,710;59348,946;14,99350
 756,99; 9098,293;  222,864;59379,317;15,00331
 757,56; 9119,064;  245,787;59345,226;15,01415
 758,13; 9082,759;  201,480;59297,366;15,02859
 758,70; 9226,684;  227,326;59328,045;15,22716
 759,26; 9242,994;  219,787;59508,569;15,21908
 759,83; 9316,458;  217,249;59608,171;15,32088
 760,40; 9300,614;  215,556;59569,618;15,30655
 760,97; 9299,616;  191,941;59507,374;15,35465
 761,53; 9275,387;  167,787;59097,206;15,45510
 762,10; 9256,928;  188,864;59006,731;15,41719
 762,67; 9350,777;  215,556;58978,563;15,54587
 763,24; 9278,087;  171,864;58655,010;15,57068
 763,80; 9368,089;  215,941;58695,920;15,65005
 764,37; 9389,553;  221,633;58724,444;15,67090
 764,94; 9291,709;  202,479;58223,661;15,66536
 765,50; 9367,711;  200,941;58188,109;15,80827
 766,07; 9451,867;  250,941;58312,403;15,84687
 766,64; 9425,331;  222,402;57961,389;15,93885
 767,21; 9441,102;  218,479;57850,759;16,00253
 767,77; 9495,181;  245,017;57809,284;16,06928
 768,34; 9501,876;  254,633;57720,039;16,09184
 768,91; 9553,571;  249,171;57490,872;16,25458
 769,47; 9574,957;  242,094;57610,550;16,26828
 770,04; 9585,421;  264,094;57447,998;16,30061
 770,61; 9523,500;  238,556;57207,445;16,29827
 771,18; 9597,349;  229,017;57093,432;16,47486
 771,74; 9584,197;  251,786;57403,264;16,32926
 772,31; 9580,661;  254,632;57036,096;16,42442
 772,88; 9638,817;  219,555;56781,313;16,65306
 773,44; 9568,204;  231,325;56535,915;16,58280
 774,01; 9621,975;  242,017;56679,516;16,62008
 774,58; 9581,901;  224,786;56336,041;16,67600
 775,14; 9656,980;  214,171;56509,181;16,77379
 775,71; 9688,751;  233,863;56373,936;16,84160
 776,27; 9698,984;  273,632;56323,307;16,81607
 776,84; 9780,371;  278,171;56319,216;16,95579
 777,41; 9763,143;  255,324;56158,587;17,00763
 777,97; 9670,914;  248,324;55869,034;16,94079
 778,54; 9726,609;  248,632;55862,944;17,04233
 779,11; 9782,457;  258,170;55932,391;17,10718
 779,67; 9798,767;  230,093;55868,993;17,19781
 780,24; 9791,692;  253,863;55591,825;17,23560
 780,80; 9836,848;  263,401;55479,273;17,33822
 781,37; 9865,774;  252,939;55529,951;17,39029
 781,94; 9792,238;  254,862;55312,629;17,32249
 782,50; 9928,394;  256,170;55101,000;17,63562
 783,07; 9865,780;  272,401;55288,525;17,43740
 783,63; 9909,398;  230,247;55059,588;17,65323
 784,20; 9881,554;  255,478;55068,112;17,56178
 784,77; 9847,864;  249,401;54868,560;17,57344
 785,33; 9913,943;  226,170;54638,085;17,80451
 785,90; 9941,330;  246,554;54549,609;17,85309
 786,46; 9915,179;  265,939;54460,518;17,80481
 787,03; 9962,719;  237,016;54258,582;18,00337
 787,59; 9972,952;  245,708;54143,568;18,04755
 788,16; 9977,031;  241,785;54108,708;18,07277
 788,73;10055,572;  245,400;54001,078;18,24955
 789,29;10003,805;  241,631;53561,988;18,30853
 789,86;10056,115;  246,016;53556,281;18,40190
 790,42;10028,194;  255,093;53430,575;18,37896
 790,99; 9984,427;  254,246;53023,484;18,43912
 791,55;10001,430;  236,016;53114,009;18,46782
 792,12;10097,586;  259,092;53020,149;18,64726
 792,68;10089,973;  239,939;52791,366;18,74361
 793,25;10091,052;  247,015;52456,275;18,85496
 793,81;10082,823;  277,400;52162,646;18,89829
 794,38; 9966,441;  221,708;51920,940;18,84889
 794,94;10081,828;  227,323;51778,464;19,11598
 795,51;10029,445;  243,708;51502,220;19,09095
 796,07; 9986,524;  253,015;51154,283;19,12233
 796,64;10096,757;  272,477;51359,653;19,23042
 797,20;10014,990;  240,938;50841,024;19,31628
 797,77; 9979,839;  231,246;50515,472;19,38698
 798,33; 9943,918;  230,861;50318,612;19,39208
 798,90;10000,151;  267,554;50350,290;19,43304
 799,46; 9946,923;  243,092;49905,892;19,53944
 800,03; 9919,694;  251,246;49702,570;19,55144
 800,59; 9954,927;  264,246;49447,556;19,70319
 801,15; 9968,160;  256,169;49249,696;19,82301
 801,72; 9895,316;  253,246;48855,452;19,83875
 802,28; 9910,549;  285,707;48559,976;19,93783
 802,85; 9911,859;  252,861;48411,885;20,05647
 803,41; 9888,400;  252,553;48186,025;20,10254
 803,98; 9833,633;  238,861;47748,858;20,19527
 804,54; 9815,020;  241,938;47473,921;20,26822
 805,11; 9889,253;  251,168;47388,676;20,44674
 805,67; 9887,716;  264,322;47262,739;20,47600
 806,23; 9843,565;  257,015;46777,571;20,60713
 806,80; 9885,490;  271,091;46658,327;20,72639
 807,36; 9886,339;  276,399;46582,928;20,75288
 807,93; 9958,418;  277,322;46312,914;21,02959
 808,49; 9869,651;  234,784;45881,900;21,10729
 809,05; 9864,576;  223,399;45730,810;21,18595
 809,62; 9951,271;  256,707;45606,565;21,37728
 810,18; 9915,119;  257,399;45514,320;21,33976
 810,74; 9878,275;  234,322;45219,614;21,43801
 811,31; 9956,047;  232,553;44936,677;21,75078
 811,87; 9968,972;  234,860;44874,894;21,80579
 812,44; 9992,974;  272,783;44842,726;21,80885
 813,00; 9920,669;  212,168;44537,251;21,90295
 813,56;10030,594;  244,552;44600,699;22,06243
 814,13;10067,366;  239,937;44506,223;22,20071
 814,69;10043,752;  247,860;44407,440;22,18294
 815,25; 9933,447;  219,245;43855,965;22,26153
 815,82;10019,526;  256,783;43796,335;22,42270
 816,38;10094,221;  262,783;43605,706;22,68291
 816,94; 9974,069;  220,245;43263,154;22,66070
 817,51; 9982,764;  215,629;43108,832;22,77082
 818,07; 9949,612;  223,091;42865,588;22,80946
 818,63; 9937,383;  240,398;42571,497;22,90747
 819,20; 9998,847;  235,398;42559,791;23,06814
 819,76; 9920,234;  223,552;42053,854;23,18100
 820,32; 9993,006;  272,244;42024,378;23,28207
 820,89; 9984,239;  255,167;41769,980;23,43518
 821,45; 9928,087;  234,475;41470,120;23,50785
 822,01; 9921,551;  249,629;41212,490;23,61144
 822,57; 9987,938;  259,783;41085,092;23,82874
 823,14; 9908,555;  225,475;40882,693;23,81639
 823,70; 9972,788;  218,706;40583,218;24,16500
 824,26; 9896,714;  228,936;40340,127;24,10244
 824,82; 9977,639;  252,552;40181,883;24,35575
 825,39; 9942,257;  227,859;39873,023;24,50336
 825,95; 9992,413;  256,398;39937,778;24,53547
 826,51; 9922,800;  249,552;39501,918;24,64373
 827,08;10061,263;  270,244;39705,827;24,82788
 827,64; 9995,266;  260,936;39398,275;24,87223
 828,20; 9953,114;  233,859;39124,799;24,99105
 828,76;10038,270;  245,474;39040,478;25,24241
 829,32;10030,811;  254,321;38899,233;25,29826
 829,89; 9999,967;  212,321;38687,604;25,43879
 830,45;10002,354;  229,936;38682,359;25,41431
 831,01; 9945,894;  221,936;38457,576;25,43166
 831,57; 9953,512;  234,628;38340,178;25,50517
 832,14;10002,130;  231,167;38418,087;25,58720
 832,70;10035,055;  232,705;38101,304;25,88517
 833,26;10005,211;  220,320;37979,213;25,91414
 833,82;10062,983;  230,705;37849,122;26,13687
 834,38;10079,908;  225,320;37884,954;26,16751
 834,95;10067,756;  213,936;37765,633;26,24068
 835,51;10049,989;  192,166;37620,619;26,33778
 836,07;10105,761;  232,859;37709,990;26,34380
 836,63;10191,686;  244,320;37710,437;26,55030
 837,19;10156,688;  231,782;37494,116;26,63523
 837,75;10122,075;  204,012;37174,563;26,82693
 838,32;10153,462;  244,935;37201,473;26,81130
 838,88;10255,772;  252,320;37381,074;26,94260
 839,44;10267,697;  237,243;37208,445;27,13045
 840,00;10230,853;  233,551;37106,585;27,11278
 840,56;10133,933;  210,089;36842,340;27,09046
 841,12;10242,550;  211,474;36801,326;27,41491
 841,68;10157,168;  209,012;36654,851;27,29572
 842,25;10207,324;  217,320;36602,222;27,45646
 842,81;10163,557;  215,012;36276,054;27,58807
 843,37;10193,713;  205,704;36358,963;27,62686
 843,93;10239,946;  223,320;36140,565;27,88807
 844,49;10260,564;  230,396;36145,859;27,92716
 845,05;10216,951;  204,089;36008,460;27,96547
 845,61;10341,260;  240,858;36106,831;28,16152
 846,17;10281,263;  225,781;35977,586;28,12580
 846,73;10323,803;  228,396;35902,495;28,29898
 847,29;10263,729;  204,012;35749,866;28,30068
 847,86;10344,116;  213,242;35627,083;28,60710
 848,42;10277,195;  204,858;35443,531;28,58319
 848,98;10339,505;  219,704;35396,055;28,76876
 849,54;10387,430;  211,242;35299,195;29,00194
 850,10;10456,355;  226,627;35297,489;29,16874
 850,66;10429,127;  202,088;35152,090;29,26191
 851,22;10388,206;  196,627;35074,461;29,22079
 851,78;10519,747;  250,242;35120,447;29,45066
 852,34;10501,903;  227,011;34792,126;29,72619
 852,90;10558,136;  210,165;34638,420;30,05662
 853,46;10483,984;  207,703;34422,483;30,03463
 854,02;10514,910;  222,473;34570,776;29,96491
 854,58;10551,604;  206,550;34248,070;30,38952
 855,14;10553,914;  188,088;34113,672;30,55460
 855,70;10554,762;  181,088;34010,119;30,66501
 856,26;10634,611;  230,857;33985,413;30,82178
 856,82;10580,459;  211,011;33795,476;30,87573
 857,38;10668,308;  232,780;33755,001;31,13018
 857,94;10632,156;  223,318;33563,141;31,22043
 858,50;10646,235;  227,472;33468,435;31,34314
 859,06;10608,007;  212,857;33216,113;31,49735
 859,62;10634,470;  238,165;33200,638;31,53982
 860,18;10577,088;  211,703;32975,239;31,63695
 860,74;10559,706;  191,164;32877,995;31,72085
 861,30;10564,323;  198,703;32637,750;31,95415
 861,86;10639,018;  234,241;32729,967;32,01891
 862,42;10612,636;  211,241;32530,722;32,18305
 862,98;10616,407;  233,549;32460,324;32,21811
 863,54;10575,640;  232,703;32223,233;32,33125
 864,10;10666,181;  218,780;32280,296;32,58549
 864,66;10534,414;  197,164;32030,436;32,47310
 865,22;10533,801;  218,395;31993,114;32,46419
 865,78;10591,264;  226,164;31765,024;32,86454
 866,34;10583,190;  217,549;31711,471;32,91315
 866,90;10562,192;  224,010;31595,842;32,95371
 867,45;10536,579;  234,779;31383,982;33,07243
 868,01;10539,812;  225,010;31204,122;33,29599
 868,57;10536,429;  220,856;30995,954;33,51922
 869,13;10558,047;  209,933;30903,633;33,71413
 869,69;10494,203;  210,702;30762,849;33,65885
 870,25;10526,898;  195,010;30629,220;33,94827
 870,81;10525,515;  223,625;30592,745;33,92225
 871,37;10582,287;  225,087;30508,423;34,20099
 871,93;10575,443;  240,317;30317,409;34,36212
 872,49;10495,137;  224,779;30062,395;34,42084
 873,04;10488,217;  209,471;29764,382;34,77847
 873,60;10523,065;  195,702;29773,906;34,91545
 874,16;10537,683;  228,471;29725,815;34,94963
 874,72;10521,144;  209,394;29565,508;35,12641
 875,28;10456,760;  227,240;29508,892;34,93491
 875,84;10577,452;  215,625;29468,508;35,42156
 876,40;10574,375;  221,163;29483,277;35,38094
 876,95;10567,606;  228,779;29318,585;35,54107
 877,51;10607,144;  241,625;29324,046;35,64187
 878,07;10658,837;  256,240;29308,892;35,80601
 878,63;10655,606;  221,702;29386,123;35,77614
 879,19;10728,606;  236,317;29306,892;36,09247
 879,75;10783,529;  231,317;29315,585;36,28151
 880,30;10765,606;  218,010;29349,738;36,20656
 880,86;10842,606;  260,933;29409,200;36,30292
 881,42;10903,990;  217,240;29516,585;36,47437
 881,98;11001,375;  230,702;29638,585;36,62512
 882,54;11050,375;  214,394;29673,585;36,78302
 883,09;11116,144;  239,779;29802,200;36,79119
 883,65;11261,837;  208,317;29926,815;37,19407
 884,21;11388,606;  241,702;30083,892;37,35283
 884,77;11399,221;  218,471;30170,277;37,32913
 885,32;11523,529;  213,240;30367,662;37,50789
 885,88;11660,452;  256,702;30528,354;37,67138
 886,44;11710,913;  226,394;30561,277;37,85912
 887,00;11752,144;  239,856;30602,200;37,91634
 887,56;11846,375;  223,163;30764,969;38,05673
 888,11;11911,452;  210,317;30778,815;38,27841
 888,67;12027,683;  252,317;31034,662;38,25363
 889,23;12093,760;  237,471;31000,738;38,54041
 889,79;12055,067;  212,702;30827,354;38,68202
 890,34;12056,452;  218,702;30761,738;38,75761
 890,90;12192,452;  276,702;31002,738;38,78063
 891,46;12075,298;  214,625;30871,892;38,68797
 892,01;12151,913;  241,317;30809,123;38,96451
 892,57;12132,144;  249,317;30782,046;38,91833
 893,13;12025,375;  211,471;30613,508;38,85892
 893,69;12069,837;  211,548;30430,200;39,24162
 894,24;11985,606;  224,471;30329,738;39,06670
 894,80;12046,375;  227,702;30158,200;39,48706
 895,36;12048,452;  225,394;30082,200;39,59920
 895,91;11993,990;  223,856;29868,815;39,70366
 896,47;11957,144;  225,548;29737,815;39,75159
 897,03;11959,990;  215,394;29583,431;39,99108
 897,58;11932,452;  230,087;29458,969;40,03699
 898,14;11977,837;  234,163;29259,354;40,46028
 898,70;11891,683;  203,548;29083,277;40,47176
 899,25;12022,913;  218,240;29094,815;40,87975
 899,81;11975,452;  238,702;28850,123;41,02121
 900,37;11930,990;  202,471;28737,200;41,10261
 900,92;11971,990;  223,317;28698,892;41,25877
 901,48;11964,144;  218,087;28523,277;41,49789
 902,03;11896,837;  210,010;28373,277;41,49670
 902,59;11954,298;  215,394;28163,969;42,00180
 903,15;11880,683;  235,317;28146,277;41,72327
 903,70;11809,298;  234,163;27831,431;41,94305
 904,26;11846,529;  207,010;27701,046;42,33470
 904,82;11894,144;  216,856;27670,200;42,53503
 905,37;11847,144;  218,010;27592,354;42,48187
 905,93;11774,529;  218,625;27372,892;42,55649
 906,48;11792,067;  227,548;27292,123;42,72936
 907,04;11825,144;  232,317;27288,046;42,84796
 907,60;11725,221;  207,010;26962,738;43,04952
 908,15;11702,683;  206,087;26884,431;43,09336
 908,71;11741,683;  240,087;26822,508;43,26768
 909,26;11657,067;  211,471;26718,431;43,17959
 909,82;11632,144;  234,625;26520,431;43,35998
 910,37;11660,990;  255,010;26494,738;43,46836
 910,93;11564,913;  204,702;26271,815;43,58063
 911,48;11475,067;  205,933;26016,431;43,66105
 912,04;11499,913;  208,779;25987,969;43,79942
 912,60;11549,452;  217,779;25989,431;43,96953
 913,15;11518,298;  222,548;25880,969;44,02356
 913,71;11469,298;  204,702;25663,738;44,24596
 914,26;11378,452;  196,548;25538,354;44,12434
 914,82;11385,067;  218,317;25452,431;44,25259
 915,37;11386,375;  205,779;25397,431;44,38215
 915,93;11441,683;  239,010;25291,969;44,71597
 916,48;11408,221;  205,394;25086,431;45,02556
 917,04;11356,067;  228,702;25025,585;44,87405
 917,59;11385,067;  237,010;24963,046;45,08631
 918,15;11271,067;  187,548;24694,738;45,22558
 918,70;11274,990;  216,163;24653,738;45,25337
 919,26;11259,221;  216,702;24573,815;45,33591
 919,81;11164,837;  205,856;24446,277;45,20953
 920,37;11176,913;  212,625;24303,200;45,51277
 920,92;11200,990;  234,010;24199,200;45,76213
 921,48;11109,990;  203,317;23943,046;45,94270
 922,03;11119,760;  214,471;23948,123;45,94863
 922,59;11018,529;  201,779;23805,892;45,82570
 923,14;10932,452;  198,240;23665,046;45,74211
 923,69;11025,067;  228,625;23581,354;46,23204
 924,25;11007,221;  232,779;23595,508;46,11808
 924,80;10903,913;  216,087;23307,585;46,28468
 925,36;10887,221;  209,163;23299,892;46,24392
 925,91;10855,221;  211,856;23093,892;46,51407
 926,47;10821,606;  187,625;23053,046;46,50682
 927,02;10886,144;  232,010;22928,046;46,94271
 927,57;10828,144;  217,933;22757,200;47,07434
 928,13;10753,837;  203,625;22745,738;46,80223
 928,68;10777,760;  208,702;22598,431;47,20494
 929,24;10683,990;  185,163;22383,046;47,29652
 929,79;10632,452;  199,471;22287,200;47,23428
 930,34;10603,760;  209,163;22196,123;47,27619
 930,90;10610,913;  195,548;22095,815;47,55817
 931,45;10705,837;  212,394;22056,738;48,03734
 932,01;10663,606;  218,394;21929,354;48,11032
 932,56;10604,683;  227,779;21786,969;48,13216
 933,11;10625,452;  226,471;21769,662;48,27038
 933,67;10511,298;  203,240;21552,585;48,28278
 934,22;10558,683;  212,087;21467,354;48,67780
 934,77;10551,221;  226,163;21440,046;48,67123
 935,33;10466,298;  223,779;21228,431;48,76310
 935,88;10468,529;  215,317;21155,200;48,96499
 936,43;10369,913;  197,394;21104,200;48,65650
 936,99;10433,606;  212,394;20907,277;49,39004
 937,54;10337,067;  194,010;20763,431;49,31134
 938,09;10360,606;  214,394;20733,123;49,44854
 938,65;10283,529;  213,779;20592,354;49,41342
 939,20;10230,298;  194,163;20559,354;49,28083
 939,75;10225,529;  198,163;20358,200;49,73883
 940,31;10151,606;  182,087;20308,969;49,53335
 940,86;10182,837;  219,702;20218,046;49,81980
 941,41;10201,837;  256,394;20175,354;49,92953
 941,96;10135,837;  203,471;20056,662;50,02906
 942,52;10113,067;  214,394;20002,738;50,02275
 943,07;10050,606;  190,163;19846,431;50,16437
 943,62;10058,144;  202,240;19760,585;50,39232
 944,18;10048,298;  196,548;19663,969;50,60634
 944,73;10061,452;  207,087;19558,046;50,92443
 945,28; 9875,298;  181,702;19285,046;50,74293
 945,83; 9932,913;  199,240;19313,662;50,92319
 946,39; 9873,837;  202,856;19304,508;50,62903
 946,94; 9958,837;  230,548;19179,123;51,34048
 947,49; 9891,452;  200,163;19056,277;51,39600
 948,04; 9894,760;  219,010;19013,508;51,48182
 948,59; 9907,606;  227,317;18957,354;51,68323
 949,15; 9855,760;  188,394;18849,277;51,80551
 949,70; 9832,375;  194,933;18773,738;51,87331
 950,25; 9847,760;  226,779;18670,892;52,16288
 950,80; 9763,452;  171,625;18547,046;52,19922
 951,36; 9724,452;  177,010;18350,046;52,53631
 951,91; 9726,913;  223,087;18425,200;52,21277
 952,46; 9606,990;  183,933;18200,738;52,30149
 953,01; 9646,837;  222,856;18321,277;52,07073
 953,56; 9578,913;  177,702;18106,662;52,43590
 954,11; 9579,913;  216,087;18032,892;52,55615
 954,67; 9626,067;  198,779;17954,969;53,09297
 955,22; 9499,529;  180,779;17802,431;52,88239
 955,77; 9597,683;  221,625;17822,969;53,26899
 956,32; 9531,529;  243,010;17689,354;53,24049
 956,87; 9454,683;  188,702;17499,585;53,52691
 957,42; 9433,452;  204,471;17490,123;53,39099
 957,98; 9418,760;  195,240;17383,354;53,66220
 958,53; 9404,990;  222,471;17341,969;53,63778
 959,08; 9356,913;  194,163;17226,815;53,79520
 959,63; 9308,067;  192,087;17128,123;53,82594
 960,18; 9251,529;  215,163;17113,277;53,47559
 960,73; 9328,144;  205,010;17021,277;54,25184
 961,28; 9322,452;  186,933;16850,815;54,82227
 961,83; 9297,452;  213,087;16829,277;54,67177
 962,39; 9227,221;  189,856;16719,508;54,67366
 962,94; 9200,606;  223,317;16656,815;54,62798
 963,49; 9161,606;  203,087;16471,662;55,06640
 964,04; 9151,760;  215,317;16481,508;54,93875
 964,59; 9103,529;  180,087;16306,892;55,33298
 965,14; 9120,221;  213,471;16273,200;55,46015
 965,69; 9082,144;  204,702;16118,046;55,78615
 966,24; 9036,760;  208,548;16067,354;55,66757
 966,79; 8991,375;  213,856;15941,662;55,80892
 967,34; 8976,452;  178,087;15834,046;56,19819
 967,89; 8949,606;  189,317;15766,508;56,23792
 968,44; 8915,606;  211,394;15739,123;56,05592
 968,99; 8930,067;  212,163;15617,277;56,59097
 969,55; 8907,606;  209,856;15543,585;56,72299
 970,10; 8924,606;  210,625;15387,354;57,41673
 970,65; 8849,067;  214,933;15328,815;57,12718
 971,20; 8827,452;  203,471;15221,892;57,42269
 971,75; 8764,067;  189,548;15016,892;57,82910
 972,30; 8720,529;  202,779;14988,354;57,60851
 972,85; 8683,067;  203,548;14955,662;57,48003
 973,40; 8583,760;  195,702;14768,354;57,56027
 973,95; 8604,221;  206,779;14719,200;57,86383
 974,50; 8570,913;  223,394;14604,046;58,04688
 975,05; 8523,375;  220,779;14528,277;58,02969
 975,60; 8538,452;  225,779;14499,892;58,23600
 976,15; 8490,067;  215,394;14385,815;58,39398
 976,70; 8443,683;  213,163;14295,585;58,44534
 977,25; 8446,452;  208,779;14246,431;58,68270
 977,80; 8347,606;  199,933;14070,969;58,73875
 978,35; 8313,683;  215,163;13921,200;59,08724
 978,89; 8234,837;  196,010;13858,892;58,83698
 979,44; 8277,683;  205,317;13801,046;59,37427
 979,99; 8180,837;  193,625;13576,815;59,68092
 980,54; 8150,067;  235,779;13537,431;59,49854
 981,09; 8180,990;  218,779;13386,431;60,46797
 981,64; 8135,683;  216,471;13246,123;60,77838
 982,19; 8152,375;  248,240;13218,815;60,93897
 982,74; 8062,221;  226,702;13068,892;61,01388
 983,29; 7978,452;  195,240;12960,431;60,97215
 983,84; 7959,606;  212,856;12819,046;61,45195
 984,39; 7980,837;  247,471;12780,277;61,70498
 984,94; 7859,298;  190,471;12605,277;61,77162
 985,49; 7828,760;  229,010;12594,200;61,46084
 986,03; 7798,760;  240,856;12523,431;61,53355
 986,58; 7758,606;  246,240;12336,354;62,13643
 987,13; 7656,221;  218,240;12182,662;62,16749
 987,68; 7616,529;  230,163;12091,585;62,27218
 988,23; 7620,837;  229,933;12044,508;62,55751
 988,78; 7511,529;  214,317;11896,508;62,46441
 989,33; 7490,606;  228,471;11790,969;62,80766
 989,88; 7457,221;  235,394;11768,508;62,61819
 990,42; 7363,837;  219,625;11560,354;62,99605
 990,97; 7298,837;  216,856;11451,354;63,03780
 991,52; 7304,837;  239,779;11399,585;63,30807
 992,07; 7226,529;  244,394;11279,277;63,27330
 992,62; 7196,298;  230,163;11193,431;63,54068
 993,17; 7124,221;  230,471;11045,662;63,74137
 993,71; 7082,683;  222,471;10962,046;63,87787
 994,26; 6972,144;  199,471;10790,431;63,94768
 994,81; 7026,606;  232,779;10751,969;64,58507
 995,36; 6923,375;  218,702;10593,046;64,62744
 995,91; 6917,683;  223,317;10579,277;64,64264
 996,45; 6813,067;  228,548;10423,046;64,58895
 997,00; 6735,606;  199,471;10229,431;65,16611
 997,55; 6741,760;  216,702;10290,815;64,77054
 998,10; 6678,375;  247,317;10106,662;65,22805
 998,65; 6652,837;  218,779;10045,662;65,47405
 999,19; 6548,529;  237,317; 9846,277;65,68049
 999,74; 6527,452;  252,779; 9788,892;65,79906
1000,29; 6467,144;  227,933; 9701,815;65,85696
1000,84; 6379,452;  216,317; 9565,969;65,91833
1001,38; 6353,452;  220,702; 9439,508;66,52434
1001,93; 6331,760;  237,087; 9388,585;66,59755
1002,48; 6228,913;  203,087; 9251,662;66,59421
1003,03; 6213,298;  221,856; 9196,969;66,75617
1003,57; 6129,452;  231,087; 9100,738;66,50053
1004,12; 6061,298;  245,010; 8986,123;66,53945
1004,67; 5998,221;  214,779; 8895,277;66,62570
1005,22; 5903,529;  210,933; 8746,969;66,68899
1005,76; 5815,221;  205,548; 8598,431;66,83845
1006,31; 5767,683;  242,625; 8582,508;66,24863
1006,86; 5726,837;  211,010; 8482,738;66,68288
1007,40; 5616,067;  196,471; 8278,046;67,06114
1007,95; 5607,529;  215,163; 8231,277;67,26908
1008,50; 5500,298;  218,933; 8077,508;67,20513
1009,04; 5483,760;  225,625; 8005,123;67,58964
1009,59; 5379,760;  231,625; 7830,585;67,74789
1010,14; 5315,144;  211,471; 7737,277;67,81564
1010,68; 5236,606;  219,087; 7635,585;67,65348
1011,23; 5183,375;  200,548; 7480,662;68,44436
1011,78; 5154,913;  229,856; 7416,508;68,53063
1012,32; 5087,375;  217,240; 7308,738;68,67568
1012,87; 5051,990;  244,933; 7266,738;68,45900
1013,42; 4993,221;  209,240; 7137,046;69,05478
1013,96; 4989,837;  242,163; 7109,815;69,13095
1014,51; 4920,837;  195,779; 6996,431;69,47948
1015,06; 4937,683;  196,471; 7019,431;69,48908
1015,60; 5005,837;  260,702; 7074,738;69,63765
1016,15; 4999,760;  215,394; 7027,354;70,23479
1016,69; 5028,606;  210,702; 7032,892;70,62107
1017,24; 5035,913;  201,625; 7041,277;70,68033
1017,79; 5085,606;  236,625; 7133,046;70,31155
1018,33; 5087,606;  196,856; 7086,431;70,98769
1018,88; 5203,760;  217,856; 7119,123;72,24621
1019,42; 5185,298;  221,625; 7189,431;71,23725
1019,97; 5172,452;  212,010; 7144,431;71,55425
1020,51; 5269,452;  216,317; 7204,585;72,30883
1021,06; 5238,606;  211,240; 7194,277;71,99397
1021,61; 5216,375;  190,087; 7111,277;72,62173
1022,15; 5194,067;  171,856; 7116,969;72,31288
1022,70; 5230,067;  215,856; 7101,815;72,81791
1023,24; 5148,529;  204,548; 7089,123;71,81243
1023,79; 5150,683;  220,163; 7016,892;72,54253
1024,33; 5121,067;  218,087; 7014,508;72,14063
1024,88; 5071,221;  219,240; 6898,200;72,64576
1025,42; 4939,221;  201,779; 6767,585;72,15325
1025,97; 4918,606;  203,933; 6709,815;72,46785
1026,51; 4811,606;  173,087; 6576,123;72,44249
1027,06; 4814,760;  209,317; 6514,508;73,04208
1027,60; 4724,452;  207,702; 6401,508;72,92366
1028,15; 4707,529;  221,087; 6325,200;73,49867
1028,69; 4564,144;  174,317; 6191,277;72,95756
1029,24; 4547,606;  207,933; 6127,738;73,30769
1029,78; 4479,067;  205,779; 6030,892;73,35975
1030,33; 4378,683;  177,933; 5875,969;73,72276
1030,87; 4357,067;  206,471; 5843,354;73,63283
1031,42; 4266,606;  194,933; 5743,123;73,38741
1031,96; 4226,067;  212,317; 5674,431;73,48346
1032,51; 4159,837;  199,317; 5561,277;73,86328
1033,05; 4167,760;  208,163; 5559,431;73,99362
1033,60; 4090,529;  174,933; 5420,508;74,64570
1034,14; 4052,760;  199,933; 5322,815;75,20818
1034,69; 3994,375;  199,317; 5278,585;74,71664
1035,23; 3926,913;  204,702; 5203,662;74,45972
1035,77; 3903,990;  196,087; 5102,969;75,56537
1036,32; 3869,606;  180,779; 5061,277;75,58300
1036,86; 3833,298;  198,163; 5007,200;75,58967
1037,41; 3778,837;  204,625; 4916,046;75,86271
1037,95; 3708,452;  183,933; 4840,200;75,69409
1038,50; 3683,913;  196,240; 4790,200;75,91867
1039,04; 3645,067;  203,779; 4734,585;75,95312
1039,58; 3602,298;  192,010; 4634,892;76,75846
1040,13; 3575,606;  201,471; 4572,431;77,19437
1040,67; 3541,221;  223,394; 4554,431;76,60584
1041,21; 3488,529;  228,317; 4467,892;76,89949
1041,76; 3421,221;  176,471; 4386,431;77,07319
1042,30; 3416,375;  210,471; 4333,738;77,75154
1042,85; 3348,529;  207,856; 4276,046;77,20074
1043,39; 3302,913;  190,010; 4189,123;77,83985
1043,93; 3304,913;  217,394; 4146,431;78,58210
1044,48; 3231,375;  205,548; 4087,123;77,95359
1045,02; 3211,452;  202,856; 4031,046;78,59056
1045,56; 3190,452;  210,548; 3970,969;79,24389
1046,11; 3168,298;  210,394; 3918,277;79,77339
1046,65; 3083,375;  208,779; 3887,123;78,14919
1047,19; 3045,452;  198,779; 3772,354;79,65897
1047,74; 3024,606;  182,856; 3709,354;80,58277
1048,28; 3006,760;  210,779; 3699,123;80,15209
1048,82; 2992,529;  222,625; 3665,508;80,45304
1049,37; 2929,298;  205,240; 3596,738;80,32019
1049,91; 2916,221;  197,548; 3556,892;80,92868
1050,45; 2902,606;  228,317; 3497,738;81,79700
1050,99; 2850,683;  207,856; 3457,277;81,33224
1051,54; 2803,375;  196,933; 3406,969;81,19666
1052,08; 2778,913;  215,010; 3390,508;80,74021
1052,62; 2748,760;  221,548; 3324,277;81,45125
1053,16; 2716,067;  192,702; 3260,046;82,26548
1053,71; 2685,760;  215,856; 3214,123;82,37771
1054,25; 2676,990;  223,779; 3169,892;83,26942
1054,79; 2617,221;  211,933; 3115,354;82,84325
1055,33; 2542,913;  183,163; 3065,123;81,88005
1055,88; 2523,298;  227,317; 3055,123;81,19302
1056,42; 2536,067;  234,702; 3005,662;83,05301
1056,96; 2485,760;  221,240; 2946,508;83,09347
1057,50; 2466,760;  201,240; 2901,738;83,89264
1058,05; 2410,760;  212,625; 2862,354;82,95696
1058,59; 2386,529;  228,163; 2863,431;81,90309
1059,13; 2311,606;  196,163; 2778,892;81,90726
1059,67; 2335,375;  229,163; 2767,354;82,98083
1060,21; 2285,067;  218,240; 2707,815;83,01927
1060,76; 2247,067;  221,779; 2650,815;83,37826
1061,30; 2248,990;  232,010; 2631,815;84,04767
1061,84; 2197,298;  211,471; 2589,585;83,50430
1062,38; 2135,913;  205,317; 2537,738;82,77219
1062,92; 2165,067;  243,317; 2551,277;83,26619
1063,46; 2131,298;  229,933; 2483,585;84,36819
1064,01; 2085,990;  208,317; 2434,892;84,33011
1064,55; 2090,067;  217,163; 2405,431;85,58844
1065,09; 2019,913;  186,779; 2359,815;84,35820
1065,63; 2058,990;  232,471; 2386,508;84,79518
1066,17; 2043,760;  234,010; 2342,508;85,83124
1066,71; 1999,298;  230,087; 2316,969;84,77772
1067,25; 1972,221;  212,471; 2262,969;85,82061
1067,80; 1923,221;  233,163; 2246,123;83,95885
1068,34; 1944,375;  237,471; 2246,585;84,95806
1068,88; 1878,067;  213,087; 2162,431;85,41235
1069,42; 1912,990;  248,779; 2180,585;86,14797
1069,96; 1845,760;  218,625; 2115,738;85,76897
1070,50; 1882,298;  245,317; 2124,123;87,12879
1071,04; 1806,529;  212,394; 2064,354;86,07826
1071,58; 1804,298;  221,548; 2029,123;87,56207
1072,12; 1788,990;  212,625; 2019,892;87,22370
1072,66; 1764,990;  211,240; 1998,354;86,94188
1073,21; 1766,529;  230,163; 2000,738;86,77212
1073,75; 1699,760;  223,163; 1961,585;84,93892
1074,29; 1697,144;  230,087; 1930,277;86,28785
1074,83; 1687,144;  228,163; 1910,046;86,74688
1075,37; 1667,221;  226,856; 1907,508;85,70278
1075,91; 1679,452;  233,240; 1899,738;86,78147
1076,45; 1627,144;  229,317; 1849,662;86,26728
1076,99; 1606,760;  222,933; 1827,431;86,24672
1077,53; 1576,375;  207,625; 1766,200;87,82061
1078,07; 1585,990;  232,933; 1774,738;87,75799
1078,61; 1567,837;  223,087; 1751,123;88,00509
1079,15; 1544,760;  220,548; 1742,431;87,01141
1079,69; 1537,913;  234,933; 1710,200;88,32167
1080,23; 1547,990;  232,240; 1702,046;89,51863
1080,77; 1541,221;  252,240; 1702,354;88,88827
1081,31; 1458,067;  217,240; 1635,969;87,46047
1081,85; 1508,913;  233,240; 1652,508;89,88251
1082,39; 1453,452;  221,394; 1597,354;89,54170
1082,93; 1453,221;  216,010; 1611,892;88,63292
1083,47; 1415,913;  207,625; 1568,123;88,81221
1084,01; 1428,067;  236,625; 1576,046;88,95203
1084,55; 1391,683;  216,163; 1516,738;90,38458
1085,09; 1394,990;  227,317; 1543,277;88,73168
1085,63; 1369,990;  219,394; 1525,662;88,08275
1086,17; 1360,760;  213,394; 1487,892;90,02488
1086,71; 1325,990;  214,087; 1471,277;88,44355
1087,24; 1358,837;  237,625; 1468,662;91,07866
1087,78; 1337,683;  235,702; 1460,662;89,96058
1088,32; 1278,452;  221,548; 1420,662;88,14044
1088,86; 1296,452;  241,702; 1424,508;89,17356
1089,40; 1284,760;  226,779; 1386,431;91,23261
1089,94; 1247,760;  193,702; 1343,815;91,64815
1090,48; 1249,837;  233,779; 1347,969;91,19247
1091,02; 1241,606;  229,933; 1353,431;90,04671
1091,56; 1230,221;  238,702; 1347,277;89,44088
1092,10; 1168,760;  207,240; 1278,892;89,72309
1092,63; 1207,375;  235,317; 1306,662;90,73253
1093,17; 1188,606;  223,625; 1280,969;91,26458
1093,71; 1168,144;  211,548; 1279,815;89,54652
1094,25; 1172,683;  246,010; 1260,662;91,32916
1094,79; 1136,990;  223,163; 1235,123;90,30271
1095,33; 1132,067;  229,394; 1229,585;90,25013
1095,87; 1134,144;  223,471; 1204,508;92,82764
1096,40; 1084,606;  200,548; 1177,277;90,51209
1096,94; 1097,683;  220,087; 1190,508;90,43457
1097,48; 1090,221;  224,240; 1172,354;91,33725
1098,02; 1061,529;  222,087; 1139,277;91,52323
1098,56; 1024,683;  200,548; 1117,354;89,89195
1099,10; 1020,221;  202,933; 1101,892;90,91493
1099,63; 1032,913;  211,933; 1091,969;93,28940
1100,17; 1041,529;  228,471; 1098,431;93,45925
1100,71; 1030,375;  240,779; 1111,508;90,68221

