
Integration time [ms]: 115,000
Averaging Nr. [scans]: 13
Smoothing Nr. [pixels]: 0
Data measured with spectrometer [name]: 2009305U1
Wave   ;Sample   ;Dark     ;Reference;Reflectance
[nm]   ;[counts] ;[counts] ;[counts] ;[%]

 175,72;  203,186;  176,239;  216,377;67,13543
 176,32;  227,897;  211,934;  220,629;183,58269
 176,92;  253,486;  225,163;  254,806;95,54815
 177,52;  253,847;  252,086;  276,497; 7,21499
 178,12;  244,569;  223,549;  229,646;344,74070
 178,72;  261,829;  243,857;  246,426;699,60677
 179,32;  265,878;  236,780;  245,502;333,61963
 179,92;  251,537;  232,933;  243,184;181,47773
 180,52;  244,609;  234,084;  251,849;59,24285
 181,12;  265,765;  235,010;  258,040;133,54011
 181,73;  280,704;  253,163;  272,610;141,61720
 182,33;  354,125;  298,008;  354,611;99,14070
 182,93;  276,309;  245,240;  267,679;138,45924
 183,53;  228,854;  227,319;  231,255;39,00679
 184,13;  240,234;  231,011;  230,121; 0,00000
 184,73;  268,474;  249,935;  276,206;70,57014
 185,33;  286,965;  222,716;  348,805;50,95543
 185,93;  295,492;  214,717;  380,479;48,72953
 186,53;  307,978;  241,332;  381,727;47,47045
 187,13;  334,372;  264,099;  406,630;49,30338
 187,73;  295,200;  220,102;  379,098;47,23288
 188,33;  300,715;  227,718;  376,187;49,16662
 188,93;  316,610;  231,182;  389,757;53,87207
 189,53;  317,935;  240,799;  389,798;51,76959
 190,13;  355,745;  271,649;  443,566;48,91698
 190,73;  307,070;  217,185;  377,425;56,09390
 191,34;  328,277;  254,183;  413,712;46,44590
 191,94;  295,827;  227,565;  367,514;48,77669
 192,54;  315,581;  237,868;  406,065;46,20351
 193,14;  324,586;  248,715;  393,108;52,54491
 193,74;  319,687;  249,561;  386,677;51,14373
 194,34;  314,464;  235,099;  379,479;54,96955
 194,94;  279,279;  206,792;  347,521;51,50809
 195,54;  245,079;  196,177;  321,772;38,93643
 196,14;  289,227;  218,484;  355,903;51,48000
 196,74;  271,970;  211,331;  351,478;43,26842
 197,34;  259,517;  187,252;  345,540;45,65405
 197,94;  298,025;  225,715;  362,779;52,75632
 198,54;  293,208;  217,484;  389,006;44,14830
 199,14;  276,180;  197,636;  381,096;42,81246
 199,74;  262,025;  198,097;  381,375;34,88040
 200,34;  261,945;  186,097;  382,635;38,59181
 200,94;  300,790;  223,637;  421,823;38,92992
 201,54;  286,396;  202,328;  428,459;37,17672
 202,14;  324,533;  211,635;  474,923;42,88015
 202,74;  307,200;  204,328;  476,128;37,84843
 203,34;  307,540;  195,558;  479,311;39,46471
 203,94;  275,223;  163,635;  500,548;33,12068
 204,54;  346,580;  228,869;  592,022;32,41375
 205,14;  320,238;  199,405;  597,661;30,34041
 205,74;  391,311;  218,481;  690,215;36,63710
 206,34;  363,207;  197,405;  690,439;33,62896
 206,94;  380,519;  203,328;  773,362;31,08430
 207,54;  365,843;  180,251;  804,961;29,70855
 208,14;  410,590;  195,097;  861,786;32,32283
 208,74;  425,797;  194,559;  953,337;30,47504
 209,34;  440,140;  193,636; 1030,265;29,46392
 209,94;  471,352;  202,328; 1148,580;28,43051
 210,54;  494,604;  198,866; 1237,375;28,47722
 211,14;  521,353;  209,174; 1365,714;26,99250
 211,73;  535,149;  201,175; 1462,293;26,48236
 212,33;  575,252;  218,791; 1597,159;25,86114
 212,93;  583,259;  196,636; 1668,394;26,26949
 213,53;  577,642;  181,790; 1767,846;24,95829
 214,13;  639,165;  176,403; 1856,152;27,54948
 214,73;  593,226;  178,481; 1880,384;24,36944
 215,33;  600,968;  156,405; 1915,118;25,27772
 215,93;  634,735;  188,327; 2037,402;24,14222
 216,53;  621,318;  142,559; 2075,324;24,77068
 217,13;  683,123;  210,866; 2307,296;22,52674
 217,73;  709,503;  181,250; 2505,729;22,72565
 218,33;  719,816;  162,403; 2685,388;22,09338
 218,93;  810,556;  172,632; 2992,680;22,62104
 219,53;  906,661;  174,942; 3296,897;23,43786
 220,13;  923,155;  151,557; 3577,759;22,52052
 220,73; 1043,351;  167,405; 3938,368;23,22871
 221,32; 1160,412;  178,251; 4361,644;23,47761
 221,92; 1267,138;  192,249; 4765,641;23,50310
 222,52; 1365,790;  172,558; 5220,516;23,63792
 223,12; 1488,250;  167,481; 5680,122;23,95892
 223,72; 1674,634;  185,019; 6134,170;25,03912
 224,32; 1784,748;  176,865; 6553,184;25,21647
 224,92; 1901,017;  175,404; 6818,083;25,97767
 225,52; 2068,365;  188,020; 7246,795;26,63840
 226,12; 2180,028;  182,327; 7519,659;27,22653
 226,72; 2344,510;  155,174; 7864,594;28,39820
 227,31; 2460,011;  151,251; 8241,262;28,53841
 227,91; 2668,425;  174,405; 8608,273;29,57149
 228,51; 2872,326;  177,790; 9061,833;30,33006
 229,11; 3057,839;  166,020; 9428,961;31,21923
 229,71; 3232,222;  168,175; 9795,860;31,82538
 230,31; 3435,819;  163,326;10145,637;32,78291
 230,91; 3616,316;  163,483;10541,858;33,26949
 231,51; 3845,234;  147,173;10894,551;34,40896
 232,10; 4115,854;  152,172;11267,104;35,66087
 232,70; 4309,618;  167,484;11505,325;36,53371
 233,30; 4563,198;  192,789;11856,258;37,47092
 233,90; 4784,698;  163,789;12037,003;38,91878
 234,50; 4977,215;  175,558;12250,655;39,76496
 235,10; 5155,863;  157,404;12347,468;41,00437
 235,70; 5383,176;  192,020;12458,020;42,32150
 236,29; 5512,086;  182,251;12486,574;43,31677
 236,89; 5640,371;  165,022;12367,077;44,87236
 237,49; 5771,855;  177,173;12382,301;45,83878
 238,09; 5808,438;  176,789;12207,055;46,81234
 238,69; 5935,611;  193,099;12025,720;48,53119
 239,29; 5853,056;  168,328;11806,275;48,84648
 239,89; 5878,563;  178,791;11452,563;50,55781
 240,48; 5770,630;  173,635;11111,338;51,17158
 241,08; 5654,788;  163,097;10762,261;51,81250
 241,68; 5530,687;  198,558;10511,432;51,70361
 242,28; 5409,373;  162,404;10160,933;52,47740
 242,88; 5294,780;  190,480; 9825,661;52,97565
 243,48; 5181,932;  192,250; 9558,253;53,27440
 244,07; 5000,618;  186,482; 9286,172;52,90439
 244,67; 4906,435;  188,943; 9134,113;52,73787
 245,27; 4747,918;  182,329; 8936,369;52,15408
 245,87; 4694,552;  184,096; 8853,728;52,02592
 246,47; 4563,187;  172,329; 8804,009;50,86910
 247,06; 4464,344;  169,097; 8795,610;49,79124
 247,66; 4432,090;  170,943; 8817,762;49,27994
 248,26; 4417,550;  208,559; 8992,584;47,91642
 248,86; 4344,724;  189,559; 9141,797;46,41482
 249,46; 4279,927;  150,789; 9313,349;45,06533
 250,05; 4297,631;  191,405; 9693,550;43,21368
 250,65; 4267,228;  158,636;10006,744;41,71961
 251,25; 4311,962;  179,713;10412,907;40,38084
 251,85; 4348,198;  182,329;11056,103;38,31116
 252,44; 4325,912;  147,251;11624,928;36,40686
 253,04; 4409,428;  180,559;12334,676;34,79372
 253,64; 4425,827;  144,175;12999,837;33,30557
 254,24; 4531,093;  186,559;13928,194;31,61585
 254,84; 4565,542;  175,712;14774,119;30,07061
 255,43; 4635,238;  178,713;15718,690;28,67781
 256,03; 4649,825;  163,329;16666,213;27,18614
 256,63; 4693,948;  176,868;17718,668;25,75038
 257,23; 4670,813;  165,098;18500,507;24,57384
 257,82; 4703,422;  177,022;19474,686;23,45569
 258,42; 4605,371;  132,484;20270,264;22,21142
 259,02; 4620,487;  174,636;21174,808;21,17054
 259,62; 4515,798;  159,792;21804,596;20,12495
 260,21; 4454,701;  177,328;22295,978;19,33831
 260,81; 4339,875;  170,481;22823,178;18,40573
 261,41; 4212,385;  166,176;23209,931;17,55881
 262,01; 4169,630;  195,023;23642,910;16,95081
 262,60; 4015,890;  161,483;23968,584;16,19015
 263,20; 3926,284;  164,944;24178,655;15,66330
 263,80; 3817,073;  182,562;24384,042;15,01772
 264,40; 3723,166;  145,484;24473,227;14,70618
 264,99; 3668,921;  179,331;24635,359;14,26883
 265,59; 3612,823;  164,255;24795,929;14,00055
 266,19; 3596,765;  164,638;24886,859;13,88276
 266,78; 3644,602;  198,716;25019,817;13,88289
 267,38; 3565,243;  172,332;25091,828;13,61549
 267,98; 3632,062;  158,331;25004,990;13,98068
 268,58; 3645,051;  177,562;25077,419;13,92574
 269,17; 3648,238;  165,332;25112,785;13,96097
 269,77; 3718,068;  182,945;24923,644;14,28870
 270,37; 3714,133;  150,485;24758,337;14,48175
 270,96; 3805,710;  204,253;24703,174;14,70047
 271,56; 3808,910;  167,868;24397,106;15,02747
 272,16; 3874,406;  169,176;24154,837;15,44769
 272,75; 3966,270;  166,561;24041,291;15,91519
 273,35; 4111,958;  173,099;24093,138;16,46678
 273,95; 4170,962;  175,176;23998,878;16,77231
 274,54; 4272,151;  155,251;24001,451;17,26439
 275,14; 4485,861;  180,253;24296,492;17,85357
 275,74; 4571,310;  144,022;24387,065;18,26209
 276,33; 4837,396;  190,099;24762,723;18,91250
 276,93; 5056,724;  175,943;24987,120;19,67170
 277,53; 5324,163;  174,867;25496,469;20,33559
 278,12; 5515,753;  157,252;26003,751;20,73202
 278,72; 5905,453;  194,867;26636,274;21,59713
 279,32; 6166,897;  165,713;27171,463;22,22187
 279,91; 6518,093;  163,021;27905,256;22,90757
 280,51; 6834,604;  173,251;28428,361;23,57575
 281,11; 7235,517;  174,098;29118,155;24,39678
 281,70; 7517,980;  153,098;29568,424;25,03757
 282,30; 7877,910;  159,098;30230,644;25,66816
 282,90; 8230,238;  169,945;30561,185;26,52176
 283,49; 8659,189;  186,099;31199,186;27,32101
 284,09; 9059,251;  190,714;31628,304;28,20998
 284,69; 9456,071;  189,175;32037,341;29,09711
 285,28; 9815,174;  191,867;32500,794;29,78529
 285,88;10258,118;  199,022;32695,762;30,95417
 286,47;10527,315;  175,329;32693,137;31,83482
 287,07;10988,513;  203,944;32809,646;33,07571
 287,67;11483,009;  190,789;32982,022;34,43671
 288,26;11762,937;  169,559;32869,266;35,45407
 288,86;12257,462;  172,175;32963,147;36,85553
 289,46;12731,708;  170,636;33023,814;38,23396
 290,05;13157,732;  162,251;33047,628;39,51751
 290,65;13744,086;  175,252;33285,329;40,98098
 291,24;14388,242;  189,559;33411,430;42,73896
 291,84;14946,256;  182,406;33467,438;44,35582
 292,44;15453,238;  176,327;33666,984;45,61544
 293,03;16136,146;  230,636;33835,995;47,33028
 293,63;16632,430;  170,022;33925,161;48,77008
 294,22;17226,767;  194,175;34192,898;50,09774
 294,82;17689,761;  181,561;34111,735;51,60068
 295,41;17947,519;  153,944;33869,501;52,77556
 296,01;18391,582;  217,176;33826,800;54,07500
 296,61;18628,685;  179,559;33699,024;55,04004
 297,20;18717,061;  182,638;33244,688;56,05951
 297,80;19063,055;  187,635;33052,862;57,43280
 298,39;19096,814;  163,868;32744,796;58,11052
 298,99;19337,595;  175,638;32519,890;59,24378
 299,58;19352,589;  186,558;32371,911;59,54892
 300,18;19533,673;  207,097;32078,314;60,63959
 300,78;19499,430;  169,405;31723,868;61,25924
 301,37;19647,097;  186,639;31725,967;61,70220
 301,97;19808,054;  182,021;31752,405;62,16596
 302,56;19892,105;  166,099;31633,889;62,68634
 303,16;20059,667;  155,099;31597,477;63,30490
 303,75;20217,370;  174,405;31569,005;63,84208
 304,35;20482,078;  163,635;31819,100;64,18621
 304,94;20560,880;  180,098;31793,374;64,46906
 305,54;20705,797;  203,636;31684,952;65,12485
 306,13;20699,480;  149,173;31607,401;65,32570
 306,73;20727,950;  165,404;31473,524;65,67799
 307,33;20733,357;  185,020;31361,055;65,91068
 307,92;20769,953;  169,944;31395,096;65,97249
 308,52;21153,879;  165,099;31890,100;66,15849
 309,11;21539,161;  172,638;32427,632;66,24253
 309,71;21791,111;  155,177;32681,960;66,51729
 310,30;21943,320;  157,098;32836,795;66,66592
 310,90;22286,397;  179,329;33162,180;67,02595
 311,49;22369,110;  182,559;33344,317;66,90403
 312,09;22523,019;  142,636;33547,722;66,99693
 312,68;22749,181;  201,790;33927,769;66,85467
 313,28;22809,876;  152,559;33956,788;67,02510
 313,87;22894,629;  150,482;34176,314;66,84376
 314,47;22988,234;  167,253;34398,507;66,66709
 315,06;23117,049;  148,405;34567,733;66,73182
 315,66;23167,788;  158,943;34854,645;66,31612
 316,25;23052,723;  140,406;34689,418;66,31830
 316,85;22946,038;  139,559;34777,975;65,84158
 317,44;22982,044;  158,561;34947,829;65,60495
 318,04;22809,814;  148,945;34913,363;65,18409
 318,63;22780,969;  148,712;34929,575;65,07100
 319,22;22783,529;  174,253;35197,076;64,55584
 319,82;22673,598;  176,483;35096,106;64,42542
 320,41;22459,547;  161,945;35099,992;63,82040
 321,01;22391,963;  171,020;35141,349;63,54228
 321,60;22271,886;  166,714;35251,383;63,00522
 322,20;22131,625;  161,405;35121,065;62,84449
 322,79;22017,683;  191,790;35166,860;62,40414
 323,39;21859,926;  168,250;35279,984;61,77899
 323,98;21723,181;  153,251;35282,413;61,40178
 324,58;21584,668;  157,176;35187,689;61,16808
 325,17;21213,722;  167,637;35145,514;60,16970
 325,76;21025,437;  182,867;34943,934;59,95952
 326,36;20661,060;  147,174;34505,813;59,70518
 326,95;20359,750;  174,406;34216,453;59,29533
 327,55;19988,176;  161,560;33888,496;58,78570
 328,14;19554,534;  160,558;33455,672;58,24871
 328,74;19225,952;  193,637;33098,303;57,84078
 329,33;18785,176;  182,328;32807,741;57,01950
 329,92;18330,448;  159,869;32210,755;56,69291
 330,52;17790,264;  177,097;31505,485;56,22111
 331,11;17416,597;  174,790;31212,280;55,55155
 331,71;16917,324;  171,560;30432,102;55,33861
 332,30;16523,495;  186,406;30077,143;54,65603
 332,89;16080,581;  194,867;29511,339;54,18699
 333,49;15529,077;  191,483;28964,734;53,30504
 334,08;15177,157;  176,252;28472,291;53,01415
 334,68;14759,060;  178,944;28023,751;52,36207
 335,27;14486,799;  189,097;27739,620;51,89630
 335,86;14115,290;  198,252;27392,433;51,17653
 336,46;13741,240;  178,404;27143,820;50,29715
 337,05;13510,098;  173,175;26956,025;49,79650
 337,65;13251,849;  154,252;26747,263;49,25203
 338,24;13094,201;  213,636;26704,877;48,62198
 338,83;12819,085;  192,482;26645,103;47,73290
 339,43;12636,318;  167,791;26542,617;47,27435
 340,02;12542,166;  173,945;26436,655;47,09423
 340,61;12333,107;  160,482;26511,836;46,19354
 341,21;12209,413;  202,099;26614,149;45,46150
 341,80;12042,196;  167,483;26464,883;45,15546
 342,40;11917,071;  184,866;26529,250;44,53399
 342,99;11742,966;  176,482;26685,878;43,63164
 343,58;11642,407;  171,251;26786,510;43,09992
 344,18;11585,348;  187,789;26883,705;42,69401
 344,77;11474,725;  173,791;27228,350;41,77090
 345,36;11457,289;  152,944;27547,530;41,26489
 345,96;11418,291;  186,790;27898,073;40,53043
 346,55;11394,598;  159,250;28039,876;40,29805
 347,14;11271,820;  148,712;28352,017;39,43902
 347,74;11271,908;  134,941;28802,237;38,84903
 348,33;11374,353;  176,788;29445,868;38,25732
 348,92;11476,879;  182,864;30050,130;37,81403
 349,52;11440,616;  153,249;30534,317;37,15263
 350,11;11357,938;  164,330;30849,386;36,47902
 350,70;11305,126;  157,636;30870,762;36,29552
 351,29;10980,025;  151,793;30630,485;35,52722
 351,89;10742,988;  176,946;30644,581;34,67956
 352,48;10645,300;  148,098;30744,072;34,30910
 353,07;10418,606;  171,481;30661,308;33,60834
 353,67;10237,685;  187,941;30661,298;32,97879
 354,26;10006,455;  177,943;30285,990;32,64414
 354,85; 9802,480;  180,097;30287,588;31,96009
 355,45; 9570,217;  150,483;30048,817;31,50588
 356,04; 9381,316;  171,712;29992,195;30,88348
 356,63; 9182,345;  194,637;29722,345;30,43822
 357,22; 8944,537;  182,254;29642,724;29,74251
 357,82; 8736,723;  179,254;29568,586;29,11761
 358,41; 8602,361;  183,944;29398,069;28,81626
 359,00; 8353,107;  171,253;29186,052;28,19890
 359,60; 8259,951;  179,559;29089,288;27,95042
 360,19; 8011,102;  167,250;28900,900;27,29849
 360,78; 7872,349;  182,868;28752,546;26,91483
 361,37; 7696,964;  175,637;28566,902;26,49169
 361,97; 7534,594;  177,175;28530,155;25,94937
 362,56; 7340,458;  174,560;28176,133;25,59105
 363,15; 7211,023;  188,252;27971,246;25,27723
 363,74; 6974,329;  173,022;27662,683;24,74133
 364,34; 6836,626;  206,022;27333,877;24,44205
 364,93; 6609,479;  157,484;26881,684;24,14289
 365,52; 6364,443;  145,329;26525,510;23,57495
 366,11; 6277,664;  169,791;26163,872;23,49717
 366,71; 6075,991;  156,791;25776,076;23,10447
 367,30; 5931,789;  165,790;25473,044;22,78397
 367,89; 5828,923;  201,328;25232,258;22,48256
 368,48; 5683,482;  179,561;24906,241;22,25904
 369,07; 5510,742;  181,713;24451,608;21,95736
 369,67; 5377,057;  185,253;24105,611;21,70454
 370,26; 5243,279;  173,867;23873,858;21,38993
 370,85; 5141,578;  174,252;23550,537;21,24943
 371,44; 5045,710;  171,867;23370,237;21,00942
 372,03; 4929,492;  156,637;23193,697;20,71816
 372,63; 4842,769;  153,483;22877,551;20,63577
 373,22; 4737,685;  163,713;22601,975;20,38470
 373,81; 4664,021;  151,098;22258,948;20,41321
 374,40; 4593,861;  157,866;21988,723;20,31984
 374,99; 4503,235;  160,945;21684,224;20,17486
 375,59; 4427,767;  159,635;21418,913;20,07656
 376,18; 4401,869;  193,021;21403,678;19,84308
 376,77; 4349,016;  175,021;21085,997;19,96078
 377,36; 4327,675;  193,098;21072,078;19,80258
 377,95; 4258,374;  179,791;20770,557;19,80783
 378,55; 4220,502;  157,790;20539,965;19,93267
 379,14; 4223,809;  164,637;20564,566;19,89798
 379,73; 4171,758;  170,483;20364,577;19,81408
 380,32; 4205,843;  182,867;20445,975;19,85370
 380,91; 4126,077;  165,330;20277,027;19,69375
 381,50; 4197,073;  181,637;20290,182;19,96880
 382,10; 4153,228;  159,406;20190,898;19,93772
 382,69; 4144,137;  155,867;20114,568;19,98261
 383,28; 4214,801;  188,560;20055,244;20,26629
 383,87; 4184,147;  162,483;19910,528;20,36487
 384,46; 4189,818;  171,330;19836,502;20,43454
 385,05; 4271,361;  193,637;19833,439;20,76255
 385,64; 4254,279;  161,022;19814,872;20,82675
 386,24; 4279,127;  152,869;19756,098;21,04887
 386,83; 4347,610;  186,100;19744,215;21,27767
 387,42; 4432,817;  190,791;19875,815;21,54951
 388,01; 4499,356;  179,178;20018,150;21,77622
 388,60; 4578,027;  176,792;20248,923;21,92710
 389,19; 4663,472;  154,948;20518,679;22,13997
 389,78; 4772,852;  164,025;20750,651;22,38748
 390,37; 4993,385;  214,023;21186,993;22,78820
 390,96; 5040,455;  178,869;21368,206;22,94355
 391,56; 5155,113;  167,794;21459,411;23,42386
 392,15; 5216,310;  162,409;21772,680;23,38657
 392,74; 5335,332;  146,796;21948,826;23,79841
 393,33; 5506,712;  160,256;22265,505;24,18637
 393,92; 5693,211;  189,258;22553,240;24,61079
 394,51; 5799,117;  156,641;22829,766;24,88619
 395,10; 5927,077;  185,414;23114,549;25,04091
 395,69; 6052,033;  170,491;23248,411;25,48558
 396,28; 6226,015;  189,338;23335,047;26,08119
 396,87; 6287,224;  194,724;23425,208;26,22631
 397,46; 6431,728;  190,495;23585,477;26,67766
 398,06; 6559,277;  193,035;23669,499;27,11755
 398,65; 6651,077;  179,116;23892,754;27,29215
 399,24; 6831,801;  198,885;23988,985;27,88099
 399,83; 6877,867;  178,276;23940,630;28,19414
 400,42; 7092,536;  206,819;24092,641;28,82763
 401,01; 7205,739;  178,902;24273,148;29,16397
 401,60; 7315,287;  192,679;24311,313;29,53156
 402,19; 7418,960;  205,069;24262,482;29,98614
 402,78; 7502,829;  220,079;24386,919;30,13530
 403,37; 7559,863;  191,857;24237,918;30,64122
 403,96; 7587,386;  198,098;24082,316;30,93795
 404,55; 7729,028;  217,956;23963,646;31,63131
 405,14; 7721,458;  193,043;23849,033;31,82456
 405,73; 7851,672;  217,671;23709,315;32,49666
 406,32; 7929,271;  206,526;23650,839;32,94080
 406,91; 8014,356;  210,305;23438,841;33,59683
 407,50; 8054,757;  205,002;23254,443;34,05616
 408,09; 7992,380;  180,775;23033,321;34,18265
 408,68; 8093,465;  195,469;22862,291;34,84386
 409,27; 8134,271;  181,543;22610,369;35,45762
 409,86; 8249,534;  200,459;22544,737;36,02298
 410,45; 8342,472;  221,452;22443,953;36,54413
 411,04; 8379,447;  237,138;22448,357;36,65854
 411,63; 8428,922;  220,591;22151,746;37,42772
 412,22; 8442,317;  214,430;21951,430;37,85199
 412,81; 8490,902;  231,119;21704,362;38,46546
 413,40; 8460,336;  243,270;21441,770;38,76249
 413,99; 8417,972;  264,040;21081,094;39,16948
 414,58; 8365,324;  218,885;20678,324;39,81751
 415,17; 8323,824;  213,504;20453,641;40,07048
 415,76; 8365,322;  211,661;20265,794;40,65826
 416,35; 8392,371;  202,582;20074,317;41,21325
 416,94; 8526,041;  227,660;20097,464;41,76378
 417,53; 8648,608;  216,196;20200,077;42,19607
 418,12; 8817,114;  202,580;20275,076;42,91711
 418,71; 9090,681;  227,423;20627,785;43,44657
 419,30; 9215,244;  222,272;20746,353;43,81668
 419,89; 9415,829;  215,887;20936,746;44,39942
 420,48; 9644,930;  237,500;21154,960;44,97405
 421,07; 9783,150;  223,807;21303,048;45,34956
 421,66; 9859,062;  202,883;21350,228;45,66142
 422,25; 9986,371;  215,649;21401,329;46,11946
 422,84;10049,475;  237,110;21426,490;46,30794
 423,43;10044,980;  219,265;21156,431;46,92954
 424,02;10038,892;  235,495;20902,596;47,43479
 424,60; 9889,478;  202,184;20473,524;47,78813
 425,19; 9874,917;  225,647;20175,271;48,36818
 425,78; 9936,836;  240,186;20022,685;49,01631
 426,37; 9930,869;  231,338;19876,821;49,37283
 426,96;10001,561;  230,723;19783,638;49,97126
 427,55; 9986,984;  219,644;19652,922;50,26090
 428,14; 9969,678;  199,181;19444,821;50,76733
 428,73; 9911,807;  223,337;19263,012;50,88569
 429,32; 9952,161;  235,569;19202,049;51,23034
 429,91;10092,074;  249,875;19173,334;52,01057
 430,50;10090,035;  233,797;19094,344;52,25849
 431,08;10052,419;  250,181;18933,791;52,46437
 431,67;10122,939;  286,872;18905,631;52,82880
 432,26;10133,210;  296,102;18745,246;53,32013
 432,85;10025,331;  317,487;18395,740;53,69902
 433,44; 9894,517;  312,255;18133,559;53,76858
 434,03; 9742,885;  342,022;17695,758;54,17198
 434,62; 9576,188;  310,101;17215,162;54,81250
 435,21; 9504,328;  324,333;16992,491;55,07504
 435,79; 9430,898;  309,330;16909,247;54,94948
 436,38; 9507,133;  310,098;16758,093;55,91584
 436,97; 9420,532;  303,867;16607,577;55,91773
 437,56; 9410,595;  308,941;16465,781;56,33313
 438,15; 9375,186;  281,634;16353,092;56,58200
 438,74; 9555,796;  298,403;16405,496;57,47401
 439,33; 9561,937;  270,711;16356,282;57,76125
 439,91; 9634,164;  236,479;16410,297;58,10431
 440,50; 9738,816;  281,940;16444,821;58,50984
 441,09; 9861,902;  277,400;16525,340;58,98903
 441,68; 9893,237;  268,783;16548,389;59,11969
 442,27; 9886,999;  251,784;16509,568;59,26524
 442,86; 9952,281;  225,473;16522,899;59,68309
 443,44;10039,448;  238,474;16566,157;60,02673
 444,03;10174,702;  276,165;16663,942;60,40195
 444,62;10122,452;  243,934;16586,123;60,44795
 445,21;10099,691;  252,935;16352,093;61,16318
 445,80;10081,790;  274,241;16328,009;61,09188
 446,39; 9994,892;  267,549;16060,943;61,59122
 446,97; 9954,044;  231,777;15859,550;62,21147
 447,56; 9849,937;  244,006;15688,833;62,19514
 448,15; 9742,487;  247,008;15457,759;62,42611
 448,74; 9679,503;  263,008;15203,685;63,02589
 449,33; 9577,058;  248,776;15094,481;62,83489
 449,91; 9505,389;  254,928;14884,349;63,23190
 450,50; 9424,742;  236,390;14632,699;63,82436
 451,09; 9376,661;  256,313;14522,392;63,93031
 451,68; 9339,127;  277,004;14475,127;63,82621
 452,26; 9296,131;  263,157;14303,420;64,33622
 452,85; 9250,159;  255,004;14205,988;64,47685
 453,44; 9278,459;  259,540;14222,480;64,59183
 454,03; 9276,967;  235,926;14222,181;64,64233
 454,61; 9255,475;  233,540;14135,743;64,89572
 455,20; 9422,594;  268,000;14327,598;65,11277
 455,79; 9465,237;  265,310;14302,277;65,54071
 456,38; 9516,972;  270,768;14375,037;65,55607
 456,97; 9622,307;  247,461;14459,903;65,96224
 457,55; 9646,652;  258,460;14465,683;66,08042
 458,14; 9692,794;  278,461;14494,376;66,22390
 458,73; 9685,745;  266,075;14408,714;66,60475
 459,31; 9793,640;  297,766;14431,468;67,18603
 459,90; 9862,155;  292,844;14493,663;67,38563
 460,49; 9982,876;  307,613;14617,511;67,61238
 461,08; 9923,914;  260,227;14620,564;67,29429
 461,66;10098,372;  269,074;14741,348;67,91813
 462,25;10249,998;  274,765;14849,924;68,43996
 462,84;10316,853;  305,611;14869,211;68,74154
 463,43;10213,639;  225,532;14858,762;68,25634
 464,01;10301,241;  279,839;14872,707;68,67329
 464,60;10289,612;  298,840;14842,160;68,69664
 465,19;10155,983;  251,377;14583,580;69,10735
 465,77;10177,217;  260,222;14606,796;69,12448
 466,36;10184,043;  279,763;14574,813;69,28468
 466,95; 9981,962;  265,378;14237,227;69,54401
 467,53; 9796,969;  272,683;13933,693;69,71875
 468,12; 9606,446;  290,914;13652,744;69,71748
 468,71; 9488,268;  276,146;13430,328;70,03188
 469,29; 9312,711;  252,144;13139,336;70,30676
 469,88; 9132,160;  266,682;12926,338;70,02937
 470,47; 9221,653;  320,834;12918,849;70,65255
 471,06; 9172,709;  276,142;12893,327;70,51150
 471,64; 9299,370;  281,373;12979,937;71,01589
 472,23; 9242,414;  258,832;13007,110;70,46898
 472,81; 9404,246;  250,218;13114,976;71,15585
 473,40; 9474,720;  267,986;13240,975;70,96849
 473,99; 9662,297;  325,986;13445,692;71,16250
 474,57; 9701,818;  254,986;13513,881;71,24901
 475,16; 9856,587;  283,448;13680,790;71,45551
 475,75;10012,702;  295,985;13818,814;71,85417
 476,33;10083,142;  299,676;13907,279;71,89706
 476,92;10078,639;  296,909;13974,870;71,51453
 477,51;10194,152;  286,599;14099,874;71,72487
 478,09;10217,613;  291,061;14109,999;71,83296
 478,68;10242,508;  288,830;14023,796;72,46963
 479,27;10227,585;  315,215;14085,166;71,98552
 479,85;10204,394;  281,368;13996,598;72,35042
 480,44;10240,346;  273,522;14109,383;72,03616
 481,02;10852,366;  282,521;15040,352;71,62194
 481,61;12360,816;  309,060;16960,272;72,37765
 482,20;13491,923;  303,136;18418,989;72,80246
 482,78;14198,927;  327,291;19377,022;72,81801
 483,37;14690,837;  316,827;20002,822;73,01643
 483,95;14974,562;  356,750;20363,482;73,06447
 484,54;15155,493;  359,752;20595,702;73,11612
 485,13;15222,847;  329,671;20633,139;73,35287
 485,71;15042,567;  302,980;20348,881;73,52918
 486,30;14896,643;  341,672;20188,775;73,33550
 486,88;14716,310;  363,133;19891,302;73,49986
 487,47;14195,823;  358,133;19249,214;73,24986
 488,05;13720,024;  344,363;18461,434;73,82905
 488,64;12933,118;  339,054;17309,615;74,21124
 489,23;11691,999;  352,516;15703,760;73,86687
 489,81; 9814,243;  354,516;13150,773;73,92574
 490,40; 9096,277;  311,362;12205,489;73,85926
 490,98; 8885,152;  294,285;11953,332;73,68413
 491,57; 8811,804;  322,670;11732,563;74,40152
 492,15; 8704,072;  314,284;11727,361;73,51030
 492,74; 8691,388;  303,671;11646,115;73,94982
 493,32; 8652,885;  323,746;11543,241;74,23809
 493,91; 8569,849;  305,899;11490,144;73,88921
 494,50; 8546,235;  311,051;11441,741;73,98629
 495,08; 8454,891;  304,359;11304,957;74,09171
 495,67; 8491,987;  308,438;11340,728;74,17816
 496,25; 8429,101;  267,591;11205,805;74,61464
 496,84; 8368,508;  273,130;11166,841;74,31240
 497,42; 8342,958;  262,283;11075,222;74,73154
 498,01; 8315,292;  305,745;11128,401;74,00722
 498,59; 8232,282;  249,744;11004,100;74,22609
 499,18; 8240,578;  256,822;11018,053;74,18999
 499,76; 8211,119;  280,821;10932,366;74,45209
 500,35; 8036,937;  273,281;10723,427;74,29232
 500,93; 7996,133;  269,283;10654,821;74,40010
 501,52; 7959,187;  269,129;10614,694;74,33193
 502,10; 7968,229;  269,281;10616,285;74,40751
 502,69; 7820,601;  257,664;10453,796;74,17456
 503,27; 7685,445;  241,974;10276,758;74,17669
 503,86; 7631,087;  252,357;10235,548;73,91154
 504,44; 7566,305;  248,126;10108,781;74,21596
 505,03; 7394,478;  236,126; 9868,908;74,31241
 505,61; 7341,157;  234,587; 9763,068;74,58239
 506,19; 7208,152;  258,741; 9651,530;73,98666
 506,78; 7079,163;  232,201; 9479,953;74,03920
 507,36; 6975,634;  251,357; 9286,946;74,41991
 507,95; 6837,343;  249,200; 9146,084;74,05000
 508,53; 6805,433;  237,432; 9044,650;74,57521
 509,12; 6634,097;  251,893; 8852,802;74,20383
 509,70; 6560,590;  266,893; 8712,712;74,51850
 510,29; 6448,269;  269,046; 8581,502;74,33691
 510,87; 6253,318;  246,278; 8374,779;73,90095
 511,46; 6183,100;  238,893; 8224,590;74,43567
 512,04; 6095,989;  251,739; 8077,734;74,67741
 512,62; 5931,253;  261,201; 7960,177;73,64684
 513,21; 5810,479;  226,892; 7788,365;73,84258
 513,79; 5718,917;  247,505; 7638,547;74,02762
 514,38; 5587,239;  220,121; 7479,199;73,93665
 514,96; 5537,857;  269,198; 7369,881;74,19933
 515,54; 5395,598;  235,275; 7277,389;73,27804
 516,13; 5332,499;  245,890; 7174,012;73,41973
 516,71; 5224,616;  241,043; 7042,984;73,26693
 517,30; 5141,946;  229,503; 6925,173;73,36746
 517,88; 5068,851;  267,965; 6837,488;73,07816
 518,46; 4970,767;  242,042; 6709,210;73,11894
 519,05; 4914,639;  243,502; 6677,957;72,59568
 519,63; 4891,549;  246,657; 6593,944;73,17917
 520,22; 4844,754;  255,040; 6529,659;73,14728
 520,80; 4794,116;  248,117; 6459,927;73,18318
 521,38; 4779,521;  268,887; 6475,789;72,67126
 521,97; 4702,758;  242,808; 6411,135;72,30404
 522,55; 4691,316;  246,424; 6397,907;72,25725
 523,13; 4673,037;  245,115; 6349,413;72,53778
 523,72; 4623,210;  250,042; 6333,987;71,88047
 524,30; 4738,622;  267,038; 6475,268;72,02671
 524,89; 4729,198;  235,424; 6475,171;72,01852
 525,47; 4835,559;  260,884; 6593,415;72,24086
 526,05; 4865,555;  231,807; 6667,627;71,99935
 526,64; 4921,048;  261,729; 6744,633;71,87086
 527,22; 5043,155;  258,730; 6923,624;71,78547
 527,80; 5143,588;  288,268; 7049,642;71,80966
 528,39; 5175,809;  247,883; 7124,865;71,65826
 528,97; 5336,102;  246,498; 7290,410;72,25537
 529,55; 5423,921;  260,269; 7517,821;71,14867
 530,14; 5600,975;  273,113; 7733,311;71,41717
 530,72; 5636,179;  251,575; 7806,535;71,27243
 531,30; 5729,799;  240,036; 7949,347;71,20952
 531,89; 5804,146;  243,190; 8060,554;71,13595
 532,47; 5914,177;  285,882; 8193,540;71,17525
 533,05; 5940,973;  279,729; 8276,056;70,79806
 533,63; 5951,462;  283,036; 8348,519;70,28006
 534,22; 5923,673;  247,112; 8375,286;69,83809
 534,80; 5989,963;  282,496; 8404,433;70,27224
 535,38; 6077,065;  322,728; 8535,996;70,06148
 535,97; 5967,523;  267,574; 8477,382;69,42853
 536,55; 6041,191;  320,111; 8568,904;69,35657
 537,13; 5973,185;  322,421; 8487,202;69,20901
 537,71; 5994,207;  358,113; 8523,551;69,02378
 538,30; 6027,032;  391,112; 8644,246;68,28824
 538,88; 6066,369;  413,957; 8682,565;68,35990
 539,46; 6169,059;  468,419; 8886,589;67,71828
 540,05; 6263,452;  494,572; 9053,679;67,40049
 540,63; 6356,278;  539,957; 9234,648;66,89509
 541,21; 6472,613;  559,956; 9382,760;67,01562
 541,79; 6508,344;  613,880; 9523,505;66,15839
 542,38; 6620,859;  647,034; 9641,720;66,41505
 542,96; 6671,848;  650,879; 9843,390;65,49864
 543,54; 6819,654;  672,418;10010,159;65,83215
 544,12; 6887,764;  649,726;10193,280;65,36389
 544,70; 6925,847;  620,648;10278,150;65,28810
 545,29; 7065,108;  633,034;10494,357;65,22527
 545,87; 7069,421;  591,187;10505,428;65,34271
 546,45; 7049,225;  556,880;10536,496;65,05606
 547,03; 7088,466;  543,803;10577,875;65,22440
 547,62; 7145,573;  517,187;10757,852;64,72613
 548,20; 7263,505;  496,571;10926,865;64,87769
 548,78; 7323,717;  484,261;10996,873;65,05953
 549,36; 7420,182;  440,954;11236,228;64,65077
 549,94; 7483,914;  398,725;11380,386;64,51837
 550,53; 7612,131;  407,108;11622,701;64,24112
 551,11; 7701,306;  379,876;11786,112;64,18796
 551,69; 7894,337;  379,185;12101,132;64,11181
 552,27; 8062,158;  341,493;12354,289;64,27034
 552,85; 8221,768;  359,261;12791,756;63,24159
 553,44; 8455,165;  341,185;13065,187;63,76909
 554,02; 8673,755;  358,108;13463,714;63,45107
 554,60; 8836,111;  302,184;13792,329;63,26046
 555,18; 9089,606;  330,108;14250,743;62,92456
 555,76; 9254,928;  313,031;14592,996;62,61848
 556,34; 9524,616;  316,491;15034,886;62,56202
 556,93; 9752,258;  307,108;15418,478;62,50360
 557,51; 9908,116;  296,645;15808,650;61,96150
 558,09;10133,662;  319,185;16208,481;61,76786
 558,67;10340,950;  311,413;16605,017;61,55505
 559,25;10543,419;  326,029;16858,468;61,80207
 559,83;10674,537;  304,874;17220,141;61,30357
 560,41;10863,698;  295,184;17658,299;60,86762
 561,00;11107,604;  305,644;17964,349;61,17074
 561,58;11179,815;  305,184;18198,794;60,77382
 562,16;11367,132;  291,107;18535,033;60,71076
 562,74;11520,812;  274,415;18920,020;60,31661
 563,32;11722,230;  278,182;19425,170;59,76944
 563,90;11911,123;  298,721;19734,376;59,74793
 564,48;12119,549;  310,107;20128,558;59,58812
 565,06;12392,779;  290,644;20677,928;59,36119
 565,65;12717,885;  295,797;21411,651;58,82825
 566,23;13085,200;  353,644;22074,577;58,61422
 566,81;13397,342;  290,106;22813,189;58,19468
 567,39;13821,167;  312,413;23749,654;57,63799
 567,97;14173,050;  317,798;24445,760;57,42405
 568,55;14594,923;  312,721;25282,074;57,19893
 569,13;14974,853;  300,875;25985,573;57,13121
 569,71;15383,979;  298,800;26976,138;56,54679
 570,29;15968,240;  340,646;27965,534;56,57070
 570,87;16241,002;  332,800;28807,390;55,86806
 571,45;16509,720;  317,644;29504,075;55,47810
 572,03;16752,279;  271,182;29935,400;55,55885
 572,61;17122,135;  278,567;30658,437;55,44319
 573,20;17427,576;  313,876;31279,977;55,26592
 573,78;17741,095;  300,336;32070,451;54,89674
 574,36;17939,773;  303,490;32659,967;54,50619
 574,94;18061,467;  350,028;32969,530;54,29709
 575,52;18152,462;  322,257;33286,439;54,08963
 576,10;18361,703;  372,181;33829,419;53,76870
 576,68;18596,375;  356,028;34304,094;53,73015
 577,26;18868,760;  376,718;34970,970;53,45409
 577,84;19048,560;  374,259;35561,855;53,07069
 578,42;19148,634;  397,797;35907,543;52,80476
 579,00;19120,191;  367,336;36066,117;52,53080
 579,58;19207,639;  394,951;36358,705;52,31014
 580,16;19137,842;  386,258;36366,522;52,11630
 580,74;19236,494;  393,027;36608,613;52,03137
 581,32;19163,213;  385,489;36676,432;51,74218
 581,90;19030,131;  404,104;36700,500;51,31646
 582,48;19021,015;  394,796;36762,572;51,21627
 583,06;18945,696;  408,489;36882,136;50,82356
 583,64;19013,429;  407,412;37150,429;50,63824
 584,22;18788,977;  409,103;37069,976;50,13485
 584,80;18700,133;  424,950;36926,307;50,06713
 585,38;18403,137;  430,491;36498,816;49,82944
 585,96;18339,091;  400,028;36510,096;49,67884
 586,54;18243,212;  417,411;36434,899;49,49207
 587,12;18267,971;  384,873;36671,924;49,28231
 587,70;18309,513;  411,336;36772,495;49,22334
 588,28;18165,894;  398,335;36987,799;48,55922
 588,86;18139,524;  411,411;37134,744;48,27479
 589,44;18066,903;  381,487;37139,135;48,11357
 590,02;17975,736;  378,718;37355,737;47,58907
 590,59;18040,578;  354,488;37591,492;47,49601
 591,17;18016,743;  357,101;37811,448;47,14978
 591,75;17929,374;  359,025;37960,898;46,72732
 592,33;18042,131;  371,871;38254,145;46,64519
 592,91;18043,846;  326,101;38606,306;46,28435
 593,49;18047,026;  333,947;38912,389;45,91445
 594,07;18131,469;  341,716;39061,906;45,94439
 594,65;17937,229;  357,642;39133,911;45,33594
 595,23;18074,603;  347,718;39574,230;45,19108
 595,81;18025,020;  350,795;39762,091;44,84558
 596,39;18028,864;  349,871;39896,005;44,70473
 596,97;18036,423;  337,178;40114,666;44,49563
 597,55;17815,338;  327,026;39943,849;44,14365
 598,12;17727,751;  316,254;40022,096;43,85122
 598,70;17687,476;  316,870;40076,357;43,68921
 599,28;17616,764;  339,024;40361,354;43,17025
 599,86;17521,208;  330,793;40412,698;42,88822
 600,44;17452,240;  300,024;40495,453;42,67206
 601,02;17450,461;  350,099;40514,998;42,57539
 601,60;17295,623;  330,640;40527,074;42,20520
 602,18;17156,137;  303,946;40587,644;41,83377
 602,75;17122,444;  305,564;40724,692;41,60624
 603,33;16992,418;  325,947;40591,378;41,39151
 603,91;16840,202;  316,792;40690,319;40,92635
 604,49;16773,666;  325,639;40747,602;40,69082
 605,07;16641,375;  334,871;40763,081;40,33447
 605,65;16510,487;  344,485;40908,668;39,85290
 606,23;16432,004;  405,950;41020,458;39,45894
 606,80;16351,329;  452,256;41017,360;39,19397
 607,38;16260,033;  493,638;41115,470;38,81261
 607,96;16169,388;  546,795;41162,646;38,46428
 608,54;16061,603;  594,101;41212,721;38,07983
 609,12;15979,387;  616,641;41306,666;37,75556
 609,70;15856,286;  644,793;41349,678;37,37019
 610,27;15783,890;  652,641;41295,814;37,22950
 610,85;15639,941;  660,024;41419,558;36,75193
 611,43;15475,226;  677,178;41371,614;36,36381
 612,01;15260,993;  640,871;41203,148;36,04364
 612,59;15176,728;  630,947;41214,166;35,84186
 613,16;15013,477;  606,026;41170,539;35,51738
 613,74;14846,090;  579,024;40990,914;35,30413
 614,32;14714,679;  540,408;41042,971;34,99598
 614,90;14568,851;  490,178;40866,286;34,86882
 615,48;14349,434;  452,487;40559,746;34,64946
 616,05;14189,134;  410,180;40471,966;34,39426
 616,63;14033,987;  401,104;40363,494;34,11428
 617,21;13868,948;  399,718;40268,994;33,78348
 617,79;13736,710;  387,333;40142,361;33,57909
 618,36;13647,336;  397,486;40069,057;33,39885
 618,94;13383,374;  336,410;39771,528;33,08463
 619,52;13174,388;  365,642;39429,093;32,78959
 620,10;13083,021;  354,487;39491,226;32,52324
 620,67;12944,736;  361,873;39350,492;32,27317
 621,25;12825,989;  372,409;39161,485;32,10589
 621,83;12645,932;  354,641;39088,347;31,73280
 622,41;12552,433;  391,026;39125,842;31,39658
 622,98;12366,737;  364,642;38758,549;31,26042
 623,56;12227,298;  365,181;38884,157;30,79552
 624,14;12085,963;  355,409;38728,291;30,56991
 624,72;11934,933;  341,718;38649,914;30,26301
 625,29;11886,048;  316,104;38666,309;30,16918
 625,87;11790,517;  360,641;38532,616;29,94311
 626,45;11617,186;  314,873;38446,873;29,63997
 627,02;11451,458;  335,256;38280,118;29,29567
 627,60;11343,991;  309,331;38281,586;29,05979
 628,18;11293,233;  300,795;38338,973;28,89843
 628,76;11215,312;  310,488;38379,025;28,64524
 629,33;11179,303;  323,334;38358,690;28,54178
 629,91;11036,790;  314,718;38329,687;28,20487
 630,49;10959,346;  344,488;38449,637;27,85675
 631,06;10874,830;  329,411;38535,475;27,60143
 631,64;10872,454;  330,488;38571,503;27,56717
 632,22;10696,233;  289,335;38453,021;27,26911
 632,79;10742,136;  314,489;38673,557;27,18431
 633,37;10684,338;  297,563;38843,835;26,94625
 633,95;10625,130;  304,873;38879,750;26,75383
 634,52;10595,452;  282,103;38992,354;26,64242
 635,10;10443,215;  293,872;39015,394;26,21112
 635,68;10479,790;  298,643;39256,610;26,13367
 636,25;10396,670;  287,567;39194,822;25,98257
 636,83;10348,928;  278,027;39495,718;25,67948
 637,41;10280,063;  282,258;39440,479;25,53182
 637,98;10292,526;  311,182;39708,412;25,33514
 638,56;10225,213;  313,182;39881,850;25,05020
 639,13;10125,104;  288,334;39933,633;24,81194
 639,71;10126,156;  304,950;40086,266;24,68799
 640,29; 9881,477;  256,796;39748,763;24,37124
 640,86; 9882,973;  264,949;40035,288;24,18391
 641,44; 9812,699;  279,949;40050,505;23,96937
 642,02; 9744,579;  299,488;40076,798;23,74492
 642,59; 9728,383;  274,949;40148,861;23,70832
 643,17; 9643,879;  281,334;40262,617;23,41732
 643,74; 9573,220;  280,180;40240,603;23,25561
 644,32; 9528,562;  297,872;40196,974;23,13508
 644,89; 9446,597;  294,641;40164,421;22,95462
 645,47; 9384,323;  303,641;40245,177;22,73493
 646,05; 9339,665;  290,411;40090,932;22,73652
 646,62; 9260,699;  289,641;40109,995;22,52883
 647,20; 9183,118;  289,718;40289,058;22,23387
 647,77; 9032,537;  265,487;40197,967;21,95468
 648,35; 8980,725;  256,026;40034,107;21,93343
 648,92; 8948,221;  298,949;40081,786;21,74121
 649,50; 8814,562;  255,026;40013,310;21,52894
 650,08; 8746,904;  261,410;39907,450;21,40313
 650,65; 8689,400;  262,333;40059,590;21,17499
 651,23; 8670,742;  243,564;40483,499;20,94232
 651,80; 8898,161;  258,179;41612,870;20,89239
 652,38; 8878,887;  261,872;42032,164;20,62953
 652,95; 8987,691;  233,256;42436,227;20,74365
 653,53; 8913,802;  276,564;42747,752;20,33670
 654,10; 8884,221;  289,718;42884,815;20,17721
 654,68; 8823,716;  250,641;42776,185;20,15983
 655,25; 8761,058;  264,872;42974,018;19,89313
 655,83; 8696,631;  245,179;43005,004;19,76494
 656,40; 8696,357;  284,795;42952,990;19,71389
 656,98; 8605,699;  253,179;42933,591;19,56991
 657,55; 8544,195;  261,410;42895,270;19,42772
 658,13; 8394,845;  252,641;42493,410;19,27570
 658,70; 8337,264;  269,102;42348,011;19,17388
 659,28; 8098,528;  260,640;41591,459;18,96379
 659,85; 7869,178;  256,948;40543,599;18,89517
 660,43; 7811,828;  275,948;40407,508;18,77794
 661,00; 7788,785;  262,486;40634,879;18,64219
 661,58; 7793,819;  249,794;40897,480;18,55954
 662,15; 7710,546;  239,333;41179,928;18,24891
 662,73; 7801,118;  299,948;41449,453;18,22907
 663,30; 7750,229;  268,563;41664,977;18,07322
 663,88; 7734,725;  270,948;41892,886;17,93232
 664,45; 7704,375;  255,486;42090,257;17,80550
 665,03; 7754,101;  264,717;42455,705;17,75115
 665,60; 7823,366;  312,102;42942,152;17,61965
 666,17; 7721,093;  271,255;43090,446;17,39836
 666,75; 7757,204;  261,025;43340,663;17,40075
 667,32; 7754,777;  289,948;43719,188;17,18849
 667,90; 7719,041;  266,101;43996,712;17,04284
 668,47; 7761,537;  294,640;44317,698;16,96133
 669,05; 7759,879;  269,486;44670,762;16,86977
 669,62; 7742,298;  245,178;44863,671;16,80272
 670,19; 7700,871;  254,794;44851,888;16,69633
 670,77; 7662,212;  265,793;45132,643;16,48526
 671,34; 7625,247;  268,793;45023,860;16,43714
 671,92; 7636,435;  253,947;45300,846;16,38845
 672,49; 7665,315;  269,947;45421,294;16,37906
 673,06; 7556,888;  224,024;45433,818;16,21964
 673,64; 7596,230;  255,947;45416,958;16,25358
 674,21; 7521,495;  237,255;45450,021;16,11102
 674,79; 7550,606;  262,255;45639,007;16,06186
 675,36; 7507,409;  276,947;45766,840;15,89466
 675,93; 7446,828;  253,332;45623,903;15,85498
 676,51; 7464,247;  281,870;45858,427;15,75893
 677,08; 7445,589;  268,101;45891,952;15,73188
 677,65; 7394,161;  263,947;45995,707;15,59138
 678,23; 7456,119;  268,485;46231,924;15,63772
 678,80; 7373,384;  257,101;46384,987;15,42729
 679,38; 7391,879;  241,639;46510,358;15,45372
 679,95; 7394,914;  267,485;46653,959;15,36532
 680,52; 7398,948;  250,639;47027,638;15,28167
 681,10; 7427,905;  270,331;47363,778;15,19866
 681,67; 7457,555;  272,562;47716,918;15,14404
 682,24; 7435,050;  236,254;47830,289;15,12542
 682,82; 7477,546;  250,716;48266,736;15,05087
 683,39; 7561,734;  279,331;48759,338;15,02146
 683,96; 7533,845;  243,869;48931,478;14,97296
 684,54; 7542,418;  237,408;49218,233;14,91402
 685,11; 7570,529;  268,254;49710,835;14,76920
 685,68; 7657,640;  255,023;50123,975;14,84414
 686,25; 7578,213;  242,254;50130,576;14,70476
 686,83; 7674,401;  243,715;50379,947;14,82099
 687,40; 7638,820;  228,023;50759,471;14,66571
 687,97; 7693,469;  276,331;51175,073;14,57234
 688,55; 7624,503;  237,869;51281,367;14,47125
 689,12; 7633,538;  225,254;51495,045;14,44961
 689,69; 7658,495;  232,023;51621,339;14,45139
 690,26; 7648,683;  242,869;51610,787;14,41720
 690,84; 7631,333;  241,946;51917,080;14,29970
 691,41; 7655,059;  250,638;51948,759;14,32242
 691,98; 7705,247;  256,561;52306,822;14,31056
 692,56; 7629,051;  235,253;52441,270;14,16273
 693,13; 7688,546;  294,869;52495,871;14,16386
 693,70; 7628,965;  274,176;52639,396;14,04518
 694,27; 7633,999;  250,715;52769,689;14,05832
 694,84; 7619,110;  243,561;52835,829;14,02402
 695,42; 7663,837;  284,023;52996,892;14,00002
 695,99; 7685,102;  250,099;53277,263;14,02112
 696,56; 7648,290;  243,099;53121,557;14,00417
 697,13; 7652,170;  264,022;53431,082;13,89610
 697,71; 7657,743;  219,638;53449,529;13,97355
 698,28; 7691,931;  251,253;53810,515;13,89242
 698,85; 7674,042;  218,330;53892,809;13,89061
 699,42; 7680,999;  225,715;54085,718;13,84197
 699,99; 7745,495;  265,253;54175,781;13,87529
 700,57; 7723,529;  265,868;54237,845;13,81765
 701,14; 7717,717;  245,176;54338,754;13,81410
 701,71; 7740,290;  249,330;54598,124;13,78312
 702,28; 7784,555;  256,407;54509,418;13,87600
 702,85; 7817,512;  258,484;54701,327;13,88434
 703,43; 7849,085;  273,714;54993,775;13,84386
 704,00; 7879,350;  279,483;55230,223;13,83033
 704,57; 7847,769;  259,791;55148,209;13,82437
 705,14; 7948,880;  288,330;55447,580;13,88806
 705,71; 7957,683;  304,483;55488,950;13,86840
 706,28; 7897,256;  265,714;55340,706;13,85664
 706,86; 7956,290;  295,252;55697,307;13,82808
 707,43; 7923,401;  310,022;55571,909;13,77691
 708,00; 7968,589;  290,252;55628,818;13,87520
 708,57; 7965,239;  268,098;55526,881;13,92926
 709,14; 7978,504;  293,791;55719,329;13,86493
 709,71; 7929,923;  276,560;55778,853;13,78927
 710,28; 7998,342;  279,637;56054,301;13,83909
 710,86; 8023,607;  291,175;56245,287;13,81924
 711,43; 8099,179;  290,406;56174,812;13,97308
 712,00; 8056,060;  274,637;56266,490;13,89742
 712,57; 8089,094;  275,791;56451,861;13,90860
 713,14; 8151,743;  262,252;56564,847;14,01266
 713,71; 8143,701;  270,021;56355,602;14,03869
 714,28; 8183,273;  257,560;56496,742;14,09287
 714,85; 8094,538;  242,790;56285,498;14,01029
 715,42; 8192,342;  253,098;56570,330;14,09736
 716,00; 8276,684;  284,329;56620,008;14,18702
 716,57; 8266,795;  247,636;56825,918;14,17356
 717,14; 8203,752;  228,329;56662,134;14,13235
 717,71; 8262,940;  227,636;56615,659;14,25002
 718,28; 8360,359;  255,405;56809,337;14,33137
 718,85; 8300,855;  227,252;56777,554;14,27685
 719,42; 8381,966;  251,790;56956,925;14,33764
 719,99; 8326,077;  222,405;56871,680;14,30499
 720,56; 8457,649;  244,328;57079,282;14,45118
 721,13; 8409,838;  243,867;57071,037;14,36984
 721,70; 8384,564;  235,405;56982,716;14,36043
 722,27; 8467,983;  254,867;57061,317;14,45807
 722,84; 8558,632;  280,867;57280,842;14,52240
 723,41; 8509,205;  234,251;57128,136;14,54454
 723,98; 8519,009;  241,328;57476,276;14,46263
 724,55; 8650,812;  262,328;57525,877;14,64891
 725,12; 8577,308;  207,636;57460,709;14,61873
 725,69; 8660,496;  237,020;57676,772;14,66489
 726,27; 8725,684;  233,020;57737,989;14,76857
 726,84; 8764,333;  240,636;58096,668;14,73260
 727,41; 8847,521;  251,251;57917,039;14,90705
 727,98; 8880,863;  263,020;58335,717;14,83975
 728,55; 8929,128;  283,020;58212,549;14,92522
 729,12; 8947,470;  230,328;58427,843;14,97855
 729,69; 9001,351;  268,559;58545,983;14,98486
 730,26; 8994,308;  275,251;58827,046;14,89119
 730,82; 9031,573;  245,712;58534,955;15,07287
 731,39; 9087,684;  244,097;58687,249;15,13195
 731,96; 9125,410;  238,866;58878,312;15,15455
 732,53; 9220,060;  269,251;59284,914;15,16684
 733,10; 9244,479;  270,558;59342,284;15,19157
 733,67; 9297,359;  277,097;59617,578;15,20086
 734,24; 9279,316;  258,020;59095,872;15,33247
 734,81; 9374,966;  285,097;59304,397;15,40152
 735,38; 9404,000;  263,097;59005,075;15,56111
 735,95; 9387,957;  264,789;58936,215;15,54959
 736,52; 9472,453;  280,096;59168,663;15,60975
 737,09; 9468,026;  276,635;58809,033;15,70308
 737,66; 9600,522;  316,712;59152,712;15,77913
 738,23; 9647,556;  248,866;59120,159;15,96481
 738,80; 9745,513;  294,635;59379,761;15,99536
 739,37; 9793,624;  293,866;59598,824;16,01849
 739,94; 9862,351;  277,865;59713,887;16,12572
 740,51; 9962,154;  326,250;59698,258;16,22971
 741,07; 9948,035;  267,865;59637,475;16,30492
 741,64;10057,607;  288,404;59815,307;16,41141
 742,21;10053,180;  274,096;59962,755;16,38349
 742,78;10098,599;  246,327;59720,818;16,56554
 743,35;10158,094;  261,634;60063,265;16,54881
 743,92;10298,898;  301,942;60219,098;16,68463
 744,49;10332,701;  279,250;60013,084;16,83041
 745,06;10336,966;  268,250;60047,301;16,84322
 745,63;10321,077;  252,865;60047,902;16,83787
 746,19;10377,881;  258,942;59949,811;16,95224
 746,76;10418,684;  272,557;60104,413;16,95773
 747,33;10495,257;  253,865;60042,937;17,12920
 747,90;10588,445;  273,173;60244,770;17,20026
 748,47;10553,018;  286,096;60168,371;17,14518
 749,04;10587,052;  282,942;60151,204;17,21131
 749,61;10712,163;  291,480;60108,882;17,42082
 750,17;10761,889;  278,634;60286,176;17,46990
 750,74;10823,462;  284,557;60067,470;17,62862
 751,31;10841,342;  257,634;59969,763;17,72455
 751,88;10869,069;  244,788;59851,903;17,82385
 752,45;10983,795;  272,480;59977,505;17,94039
 753,02;11014,983;  267,557;59914,414;18,01843
 753,58;11030,710;  256,403;59677,939;18,13199
 754,15;11123,513;  268,326;59703,463;18,26392
 754,72;11169,086;  247,172;59566,834;18,41196
 755,29;11144,582;  243,634;59412,436;18,42347
 755,86;11230,770;  261,480;59606,268;18,48400
 756,42;11383,958;  268,710;59348,946;18,81382
 756,99;11322,146;  222,864;59379,317;18,76259
 757,56;11375,180;  245,787;59345,226;18,83164
 758,13;11414,445;  201,480;59297,366;18,97419
 758,70;11550,172;  227,326;59328,045;19,15856
 759,26;11568,975;  219,787;59508,569;19,14222
 759,83;11730,009;  217,249;59608,171;19,38471
 760,40;11718,043;  215,556;59569,618;19,37944
 760,97;11755,155;  191,941;59507,374;19,49444
 761,53;11744,727;  167,787;59097,206;19,64543
 762,10;11745,992;  188,864;59006,731;19,64901
 762,67;11896,180;  215,556;58978,563;19,87751
 763,24;11822,138;  171,864;58655,010;19,92074
 763,80;11913,018;  215,941;58695,920;20,00185
 764,37;11966,667;  221,633;58724,444;20,07602
 764,94;11939,779;  202,479;58223,661;20,22934
 765,50;12003,351;  200,941;58188,109;20,35349
 766,07;12082,693;  250,941;58312,403;20,37798
 766,64;12030,420;  222,402;57961,389;20,45068
 767,21;12035,531;  218,479;57850,759;20,50422
 767,77;12155,873;  245,017;57809,284;20,69140
 768,34;12179,830;  254,633;57720,039;20,75196
 768,91;12207,249;  249,171;57490,872;20,89050
 769,47;12303,437;  242,094;57610,550;21,02435
 770,04;12357,317;  264,094;57447,998;21,14795
 770,61;12321,351;  238,556;57207,445;21,20946
 771,18;12369,463;  229,017;57093,432;21,34981
 771,74;12519,035;  251,786;57403,264;21,46445
 772,31;12512,300;  254,632;57036,096;21,58745
 772,88;12443,027;  219,555;56781,313;21,61084
 773,44;12540,676;  231,325;56535,915;21,86207
 774,01;12542,710;  242,017;56679,516;21,79525
 774,58;12590,975;  224,786;56336,041;22,03870
 775,14;12698,163;  214,171;56509,181;22,17602
 775,71;12683,582;  233,863;56373,936;22,17617
 776,27;12835,155;  273,632;56323,307;22,41141
 776,84;12891,805;  278,171;56319,216;22,50785
 777,41;12848,454;  255,324;56158,587;22,52665
 777,97;12831,104;  248,324;55869,034;22,62247
 778,54;12881,369;  248,632;55862,944;22,71490
 779,11;12993,326;  258,170;55932,391;22,87442
 779,67;12963,591;  230,093;55868,993;22,88596
 780,24;12975,471;  253,863;55591,825;22,98894
 780,80;13061,044;  263,401;55479,273;23,17747
 781,37;13152,540;  252,939;55529,951;23,33628
 781,94;13142,189;  254,862;55312,629;23,40692
 782,50;13230,531;  256,170;55101,000;23,65649
 783,07;13241,104;  272,401;55288,525;23,57255
 783,63;13287,907;  230,247;55059,588;23,81510
 784,20;13316,788;  255,478;55068,112;23,82901
 784,77;13327,206;  249,401;54868,560;23,94362
 785,33;13319,318;  226,170;54638,085;24,06302
 785,90;13455,659;  246,554;54549,609;24,32479
 786,46;13506,232;  265,939;54460,518;24,43103
 787,03;13509,112;  237,016;54258,582;24,56814
 787,59;13511,531;  245,708;54143,568;24,61289
 788,16;13536,104;  241,785;54108,708;24,67993
 788,73;13585,369;  245,400;54001,078;24,81592
 789,29;13526,634;  241,631;53561,988;24,91544
 789,86;13601,207;  246,016;53556,281;25,05182
 790,42;13647,779;  255,093;53430,575;25,18583
 790,99;13531,660;  254,246;53023,484;25,16128
 791,55;13641,078;  236,016;53114,009;25,35093
 792,12;13662,189;  259,092;53020,149;25,40339
 792,68;13673,762;  239,939;52791,366;25,56319
 793,25;13665,796;  247,015;52456,275;25,70192
 793,81;13731,446;  277,400;52162,646;25,93039
 794,38;13600,865;  221,708;51920,940;25,87883
 794,94;13675,130;  227,323;51778,464;26,08634
 795,51;13706,010;  243,708;51502,220;26,26355
 796,07;13663,275;  253,015;51154,283;26,34563
 796,64;13793,463;  272,477;51359,653;26,46650
 797,20;13666,497;  240,938;50841,024;26,53268
 797,77;13677,916;  231,246;50515,472;26,74133
 798,33;13675,335;  230,861;50318,612;26,84184
 798,90;13755,292;  267,554;50350,290;26,93091
 799,46;13679,711;  243,092;49905,892;27,05570
 800,03;13745,130;  251,246;49702,570;27,28720
 800,59;13742,626;  264,246;49447,556;27,40438
 801,15;13759,429;  256,169;49249,696;27,56131
 801,72;13710,386;  253,246;48855,452;27,68833
 802,28;13687,267;  285,707;48559,976;27,76129
 802,85;13679,301;  252,861;48411,885;27,87939
 803,41;13755,873;  252,553;48186,025;28,17096
 803,98;13681,754;  238,861;47748,858;28,29487
 804,54;13692,403;  241,938;47473,921;28,47745
 805,11;13718,976;  251,168;47388,676;28,57132
 805,67;13745,087;  264,322;47262,739;28,68344
 806,23;13711,737;  257,015;46777,571;28,92210
 806,80;13743,233;  271,091;46658,327;29,04278
 807,36;13782,959;  276,399;46582,928;29,16772
 807,93;13791,224;  277,322;46312,914;29,35533
 808,49;13655,489;  234,784;45881,900;29,40099
 809,05;13667,369;  223,399;45730,810;29,54238
 809,62;13747,480;  256,707;45606,565;29,74822
 810,18;13719,438;  257,399;45514,320;29,74581
 810,74;13682,318;  234,322;45219,614;29,89421
 811,31;13730,891;  232,553;44936,677;30,19484
 811,87;13765,694;  234,860;44874,894;30,31098
 812,44;13882,728;  272,783;44842,726;30,53615
 813,00;13805,455;  212,168;44537,251;30,66726
 813,56;13958,258;  244,552;44600,699;30,91726
 814,13;14005,908;  239,937;44506,223;31,09809
 814,69;13977,404;  247,860;44407,440;31,09075
 815,25;13940,284;  219,245;43855,965;31,44379
 815,82;13996,164;  256,783;43796,335;31,55609
 816,38;14078,352;  262,783;43605,706;31,87503
 816,94;14024,463;  220,245;43263,154;32,07083
 817,51;13969,805;  215,629;43108,832;32,06610
 818,07;13949,378;  223,091;42865,588;32,18922
 818,63;14058,105;  240,398;42571,497;32,64197
 819,20;14037,754;  235,398;42559,791;32,61088
 819,76;13958,250;  223,552;42053,854;32,83433
 820,32;14034,284;  272,244;42024,378;32,96128
 820,89;14028,241;  255,167;41769,980;33,17629
 821,45;14001,583;  234,475;41470,120;33,38643
 822,01;13956,310;  249,629;41212,490;33,46124
 822,57;13887,652;  259,783;41085,092;33,38093
 823,14;13904,455;  225,475;40882,693;33,64465
 823,70;13904,874;  218,706;40583,218;33,90644
 824,26;13854,754;  228,936;40340,127;33,97012
 824,82;13836,865;  252,552;40181,883;34,02089
 825,39;13846,053;  227,859;39873,023;34,35020
 825,95;13832,934;  256,398;39937,778;34,21387
 826,51;13789,814;  249,552;39501,918;34,49540
 827,08;13912,233;  270,244;39705,827;34,59310
 827,64;13812,883;  260,936;39398,275;34,62664
 828,20;13739,224;  233,859;39124,799;34,72625
 828,76;13780,489;  245,474;39040,478;34,88855
 829,32;13826,139;  254,321;38899,233;35,11929
 829,89;13797,096;  212,321;38687,604;35,30780
 830,45;13922,130;  229,936;38682,359;35,60814
 831,01;13915,626;  221,936;38457,576;35,81394
 831,57;13914,353;  234,628;38340,178;35,89956
 832,14;13971,541;  231,167;38418,087;35,98189
 832,70;13989,267;  232,705;38101,304;36,32710
 833,26;13936,917;  220,320;37979,213;36,32680
 833,82;14033,874;  230,705;37849,122;36,69258
 834,38;14177,293;  225,320;37884,954;37,04755
 834,95;14166,481;  213,936;37765,633;37,15557
 835,51;14192,669;  192,166;37620,619;37,40604
 836,07;14320,472;  232,859;37709,990;37,58989
 836,63;14482,353;  244,320;37710,437;38,00242
 837,19;14431,464;  231,782;37494,116;38,10733
 837,75;14363,114;  204,012;37174,563;38,29832
 838,32;14482,994;  244,935;37201,473;38,52650
 838,88;14622,028;  252,320;37381,074;38,70237
 839,44;14596,908;  237,243;37208,445;38,84014
 840,00;14633,404;  233,551;37106,585;39,05253
 840,56;14558,361;  210,089;36842,340;39,16842
 841,12;14568,088;  211,474;36801,326;39,23660
 841,68;14561,045;  209,012;36654,851;39,37907
 842,25;14608,541;  217,320;36602,222;39,55273
 842,81;14528,114;  215,012;36276,054;39,69131
 843,37;14645,763;  205,704;36358,963;39,94124
 843,93;14656,105;  223,320;36140,565;40,18344
 844,49;14762,985;  230,396;36145,859;40,46332
 845,05;14754,712;  204,089;36008,460;40,63924
 845,61;14795,438;  240,858;36106,831;40,58047
 846,17;14747,627;  225,781;35977,586;40,61850
 846,73;14781,891;  228,396;35902,495;40,79569
 847,29;14769,849;  204,012;35749,866;40,97760
 847,86;14809,498;  213,242;35627,083;41,21625
 848,42;14785,533;  204,858;35443,531;41,37691
 848,98;14870,951;  219,704;35396,055;41,65085
 849,54;14880,755;  211,242;35299,195;41,80783
 850,10;14911,020;  226,627;35297,489;41,87064
 850,66;14805,746;  202,088;35152,090;41,78443
 851,22;14934,550;  196,627;35074,461;42,25584
 851,78;14999,276;  250,242;35120,447;42,29695
 852,34;14948,618;  227,011;34792,126;42,59094
 852,90;14958,652;  210,165;34638,420;42,83832
 853,46;14922,840;  207,703;34422,483;43,00813
 854,02;15004,028;  222,473;34570,776;43,03431
 854,58;14885,447;  206,550;34248,070;43,12057
 855,14;14899,866;  188,088;34113,672;43,36485
 855,70;14923,439;  181,088;34010,119;43,57899
 856,26;14941,319;  230,857;33985,413;43,58067
 856,82;14938,430;  211,011;33795,476;43,85188
 857,38;14942,772;  232,780;33755,001;43,88132
 857,94;14926,345;  223,318;33563,141;44,10049
 858,50;14940,533;  227,472;33468,435;44,26184
 859,06;14875,029;  212,857;33216,113;44,42644
 859,62;14938,217;  238,165;33200,638;44,59633
 860,18;14855,174;  211,703;32975,239;44,69442
 860,74;14867,362;  191,164;32877,995;44,89942
 861,30;14817,550;  198,703;32637,750;45,06559
 861,86;14962,584;  234,241;32729,967;45,32394
 862,42;14896,618;  211,241;32530,722;45,43816
 862,98;14971,422;  233,549;32460,324;45,73176
 863,54;14935,764;  232,703;32223,233;45,96067
 864,10;15026,490;  218,780;32280,296;46,18531
 864,66;14895,371;  197,164;32030,436;46,17247
 865,22;14885,020;  218,395;31993,114;46,15816
 865,78;14876,747;  226,164;31765,024;46,45248
 866,34;14915,935;  217,549;31711,471;46,67055
 866,90;14964,507;  224,010;31595,842;46,98641
 867,45;14876,388;  234,779;31383,982;47,00476
 868,01;14879,806;  225,010;31204,122;47,30541
 868,57;14860,225;  220,856;30995,954;47,56888
 869,13;14835,336;  209,933;30903,633;47,64953
 869,69;14814,217;  210,702;30762,849;47,79865
 870,25;14845,251;  195,010;30629,220;48,13741
 870,81;14833,977;  223,625;30592,745;48,10924
 871,37;14830,550;  225,087;30508,423;48,22937
 871,93;14860,584;  240,317;30317,409;48,60931
 872,49;14852,849;  224,779;30062,395;49,02560
 873,04;14696,191;  209,471;29764,382;49,01629
 873,60;14728,841;  195,702;29773,906;49,13462
 874,16;14747,183;  228,471;29725,815;49,22040
 874,72;14739,337;  209,394;29565,508;49,49546
 875,28;14791,644;  227,240;29508,892;49,73901
 875,84;14822,183;  215,625;29468,508;49,93203
 876,40;14844,413;  221,163;29483,277;49,97332
 876,95;14825,260;  228,779;29318,585;50,17731
 877,51;14939,644;  241,625;29324,046;50,53919
 878,07;14965,875;  256,240;29308,892;50,63095
 878,63;15033,721;  221,702;29386,123;50,78798
 879,19;15176,183;  236,317;29306,892;51,39171
 879,75;15215,721;  231,317;29315,585;51,52065
 880,30;15261,490;  218,010;29349,738;51,63951
 880,86;15402,260;  260,933;29409,200;51,94589
 881,42;15494,413;  217,240;29516,585;52,14169
 881,98;15565,567;  230,702;29638,585;52,14542
 882,54;15758,798;  214,394;29673,585;52,76589
 883,09;15849,337;  239,779;29802,200;52,80203
 883,65;15947,337;  208,317;29926,815;52,96035
 884,21;16118,644;  241,702;30083,892;53,20301
 884,77;16162,644;  218,471;30170,277;53,23276
 885,32;16338,183;  213,240;30367,662;53,47455
 885,88;16401,106;  256,702;30528,354;53,33176
 886,44;16596,567;  226,394;30561,277;53,96485
 887,00;16714,721;  239,856;30602,200;54,26085
 887,56;16782,490;  223,163;30764,969;54,21856
 888,11;16823,413;  210,317;30778,815;54,34711
 888,67;17028,567;  252,317;31034,662;54,49959
 889,23;17046,337;  237,471;31000,738;54,63940
 889,79;17024,644;  212,702;30827,354;54,91469
 890,34;17101,413;  218,702;30761,738;55,27516
 890,90;17169,644;  276,702;31002,738;54,97924
 891,46;17257,567;  214,625;30871,892;55,59185
 892,01;17302,260;  241,317;30809,123;55,81343
 892,57;17281,260;  249,317;30782,046;55,78257
 893,13;17221,721;  211,471;30613,508;55,95102
 893,69;17194,337;  211,548;30430,200;56,19969
 894,24;17197,567;  224,471;30329,738;56,37916
 894,80;17238,183;  227,702;30158,200;56,83327
 895,36;17235,798;  225,394;30082,200;56,97329
 895,91;17163,721;  223,856;29868,815;57,14248
 896,47;17176,260;  225,548;29737,815;57,43615
 897,03;17074,029;  215,394;29583,431;57,40470
 897,58;17116,337;  230,087;29458,969;57,77248
 898,14;17125,952;  234,163;29259,354;58,19699
 898,70;17124,644;  203,548;29083,277;58,59160
 899,25;17220,798;  218,240;29094,815;58,88011
 899,81;17177,029;  238,702;28850,123;59,20128
 900,37;17077,106;  202,471;28737,200;59,13718
 900,92;17133,644;  223,317;28698,892;59,38537
 901,48;17113,029;  218,087;28523,277;59,68850
 902,03;17081,029;  210,010;28373,277;59,90434
 902,59;17146,644;  215,394;28163,969;60,58001
 903,15;17149,875;  235,317;28146,277;60,60185
 903,70;17014,875;  234,163;27831,431;60,80570
 904,26;17053,875;  207,010;27701,046;61,27462
 904,82;17109,721;  216,856;27670,200;61,53300
 905,37;16971,337;  218,010;27592,354;61,20083
 905,93;16982,490;  218,625;27372,892;61,73566
 906,48;16980,413;  227,548;27292,123;61,89961
 907,04;16972,567;  232,317;27288,046;61,87322
 907,60;16843,260;  207,010;26962,738;62,17827
 908,15;16860,260;  206,087;26884,431;62,42581
 908,71;16956,183;  240,087;26822,508;62,88402
 909,26;16871,567;  211,471;26718,431;62,85178
 909,82;16890,260;  234,625;26520,431;63,36361
 910,37;16890,875;  255,010;26494,738;63,39953
 910,93;16794,260;  204,702;26271,815;63,64171
 911,48;16822,260;  205,933;26016,431;64,37817
 912,04;16715,952;  208,779;25987,969;64,03294
 912,60;16881,029;  217,779;25989,431;64,65728
 913,15;16788,183;  222,548;25880,969;64,56217
 913,71;16704,567;  204,702;25663,738;64,80947
 914,26;16758,644;  196,548;25538,354;65,35484
 914,82;16800,644;  218,317;25452,431;65,71393
 915,37;16744,337;  205,779;25397,431;65,65095
 915,93;16768,413;  239,010;25291,969;65,97785
 916,48;16620,567;  205,394;25086,431;65,97464
 917,04;16665,029;  228,702;25025,585;66,28384
 917,59;16682,413;  237,010;24963,046;66,51047
 918,15;16570,721;  187,548;24694,738;66,85047
 918,70;16551,413;  216,163;24653,738;66,84481
 919,26;16558,721;  216,702;24573,815;67,09342
 919,81;16531,490;  205,856;24446,277;67,34881
 920,37;16471,183;  212,625;24303,200;67,48929
 920,92;16482,644;  234,010;24199,200;67,80098
 921,48;16359,337;  203,317;23943,046;68,05478
 922,03;16326,567;  214,471;23948,123;67,88713
 922,59;16223,567;  201,779;23805,892;67,87710
 923,14;16209,875;  198,240;23665,046;68,23099
 923,69;16236,567;  228,625;23581,354;68,54849
 924,25;16124,106;  232,779;23595,508;68,01999
 924,80;16049,644;  216,087;23307,585;68,56878
 925,36;16125,106;  209,163;23299,892;68,92785
 925,91;16063,490;  211,856;23093,892;69,27545
 926,47;16035,875;  187,625;23053,046;69,31099
 927,02;16078,413;  232,010;22928,046;69,82014
 927,57;15909,721;  217,933;22757,200;69,61978
 928,13;15899,567;  203,625;22745,738;69,62942
 928,68;15900,644;  208,702;22598,431;70,08545
 929,24;15808,798;  185,163;22383,046;70,38345
 929,79;15789,183;  199,471;22287,200;70,58087
 930,34;15695,798;  209,163;22196,123;70,43554
 930,90;15719,567;  195,548;22095,815;70,88507
 931,45;15802,721;  212,394;22056,738;71,37008
 932,01;15701,029;  218,394;21929,354;71,31253
 932,56;15719,260;  227,779;21786,969;71,85558
 933,11;15712,183;  226,471;21769,662;71,88216
 933,67;15618,260;  203,240;21552,585;72,20371
 934,22;15579,490;  212,087;21467,354;72,29927
 934,77;15538,567;  226,163;21440,046;72,18105
 935,33;15488,644;  223,779;21228,431;72,67374
 935,88;15471,029;  215,317;21155,200;72,85481
 936,43;15428,644;  197,394;21104,200;72,85307
 936,99;15489,106;  212,394;20907,277;73,81879
 937,54;15319,106;  194,010;20763,431;73,53195
 938,09;15325,337;  214,394;20733,123;73,64463
 938,65;15273,875;  213,779;20592,354;73,90162
 939,20;15297,106;  194,163;20559,354;74,16058
 939,75;15223,875;  198,163;20358,200;74,53216
 940,31;15168,413;  182,087;20308,969;74,45926
 940,86;15195,567;  219,702;20218,046;74,88553
 941,41;15161,644;  256,394;20175,354;74,82946
 941,96;15089,260;  203,471;20056,662;74,97933
 942,52;15072,952;  214,394;20002,738;75,08742
 943,07;15006,106;  190,163;19846,431;75,37516
 943,62;15001,337;  202,240;19760,585;75,66641
 944,18;14999,029;  196,548;19663,969;76,03719
 944,73;15009,952;  207,087;19558,046;76,49680
 945,28;14844,029;  181,702;19285,046;76,75267
 945,83;14928,875;  199,240;19313,662;77,06032
 946,39;14827,260;  202,856;19304,508;76,56094
 946,94;14886,490;  230,548;19179,123;77,34588
 947,49;14812,798;  200,163;19056,277;77,49547
 948,04;14860,721;  219,010;19013,508;77,90424
 948,59;14805,413;  227,317;18957,354;77,83272
 949,15;14754,721;  188,394;18849,277;78,05808
 949,70;14769,260;  194,933;18773,738;78,44598
 950,25;14722,798;  226,779;18670,892;78,59429
 950,80;14644,875;  171,625;18547,046;78,76418
 951,36;14627,183;  177,010;18350,046;79,51436
 951,91;14718,490;  223,087;18425,200;79,63583
 952,46;14574,798;  183,933;18200,738;79,87468
 953,01;14643,952;  222,856;18321,277;79,68151
 953,56;14573,413;  177,702;18106,662;80,29307
 954,11;14593,260;  216,087;18032,892;80,69445
 954,67;14509,798;  198,779;17954,969;80,59735
 955,22;14458,106;  180,779;17802,431;81,02150
 955,77;14500,952;  221,625;17822,969;81,12634
 956,32;14480,952;  243,010;17689,354;81,60989
 956,87;14368,106;  188,702;17499,585;81,91035
 957,42;14404,029;  204,471;17490,123;82,14650
 957,98;14334,875;  195,240;17383,354;82,26403
 958,53;14339,106;  222,471;17341,969;82,45940
 959,08;14261,798;  194,163;17226,815;82,59216
 959,63;14269,721;  192,087;17128,123;83,12237
 960,18;14155,721;  215,163;17113,277;82,49772
 960,73;14154,721;  205,010;17021,277;82,95367
 961,28;14111,567;  186,933;16850,815;83,56177
 961,83;14142,798;  213,087;16829,277;83,83216
 962,39;14028,106;  189,856;16719,508;83,71773
 962,94;14020,106;  223,317;16656,815;83,95527
 963,49;13900,029;  203,087;16471,662;84,19264
 964,04;13946,413;  215,317;16481,508;84,41495
 964,59;13833,106;  180,087;16306,892;84,66041
 965,14;13864,106;  213,471;16273,200;84,99916
 965,69;13797,644;  204,702;16118,046;85,41851
 966,24;13800,721;  208,548;16067,354;85,70742
 966,79;13669,798;  213,856;15941,662;85,55511
 967,34;13616,952;  178,087;15834,046;85,83866
 967,89;13635,490;  189,317;15766,508;86,31963
 968,44;13623,413;  211,394;15739,123;86,37464
 968,99;13643,798;  212,163;15617,277;87,18946
 969,55;13573,952;  209,856;15543,585;87,15490
 970,10;13558,644;  210,625;15387,354;87,95057
 970,65;13487,106;  214,933;15328,815;87,81445
 971,20;13432,183;  203,471;15221,892;88,08324
 971,75;13404,337;  189,548;15016,892;89,12445
 972,30;13310,567;  202,779;14988,354;88,65254
 972,85;13281,644;  203,548;14955,662;88,65236
 973,40;13146,260;  195,702;14768,354;88,86892
 973,95;13193,183;  206,779;14719,200;89,48475
 974,50;13154,260;  223,394;14604,046;89,91849
 975,05;13079,875;  220,779;14528,277;89,87662
 975,60;13027,952;  225,779;14499,892;89,68804
 976,15;12960,106;  215,394;14385,815;89,93883
 976,70;12922,952;  213,163;14295,585;90,25286
 977,25;12903,413;  208,779;14246,431;90,43275
 977,80;12780,106;  199,933;14070,969;90,69382
 978,35;12686,644;  215,163;13921,200;90,99261
 978,89;12617,644;  196,010;13858,892;90,91518
 979,44;12549,413;  205,317;13801,046;90,79393
 979,99;12471,644;  193,625;13576,815;91,74209
 980,54;12451,875;  235,779;13537,431;91,83894
 981,09;12331,721;  218,779;13386,431;91,99015
 981,64;12316,567;  216,471;13246,123;92,86584
 982,19;12289,644;  248,240;13218,815;92,83631
 982,74;12193,260;  226,702;13068,892;93,18159
 983,29;12070,490;  195,240;12960,431;93,02838
 983,84;11979,029;  212,856;12819,046;93,33647
 984,39;12071,721;  247,471;12780,277;94,34639
 984,94;11832,490;  190,471;12605,277;93,77528
 985,49;11775,567;  229,010;12594,200;93,37954
 986,03;11735,029;  240,856;12523,431;93,58113
 986,58;11628,260;  246,240;12336,354;94,14320
 987,13;11558,490;  218,240;12182,662;94,78311
 987,68;11486,260;  230,163;12091,585;94,89669
 988,23;11460,260;  229,933;12044,508;95,05485
 988,78;11325,490;  214,317;11896,508;95,11207
 989,33;11283,106;  228,471;11790,969;95,60767
 989,88;11247,644;  235,394;11768,508;95,48376
 990,42;11157,798;  219,625;11560,354;96,45035
 990,97;11069,106;  216,856;11451,354;96,59755
 991,52;10938,644;  239,779;11399,585;95,86964
 992,07;10929,875;  244,394;11279,277;96,83366
 992,62;10818,029;  230,163;11193,431;96,57582
 993,17;10754,106;  230,471;11045,662;97,30420
 993,71;10675,490;  222,471;10962,046;97,33178
 994,26;10497,106;  199,471;10790,431;97,23042
 994,81;10547,337;  232,779;10751,969;98,05467
 995,36;10463,413;  218,702;10593,046;98,75045
 995,91;10414,567;  223,317;10579,277;98,40952
 996,45;10351,490;  228,548;10423,046;99,29809
 997,00;10150,260;  199,471;10229,431;99,21065
 997,55;10201,875;  216,702;10290,815;99,11714
 998,10;10107,875;  247,317;10106,662;100,01231
 998,65;10048,183;  218,779;10045,662;100,02566
 999,19; 9898,260;  237,317; 9846,277;100,54098
 999,74; 9891,952;  252,779; 9788,892;101,08073
1000,29; 9836,875;  227,933; 9701,815;101,42560
1000,84; 9713,413;  216,317; 9565,969;101,57700
1001,38; 9641,875;  220,702; 9439,508;102,19516
1001,93; 9572,106;  237,087; 9388,585;102,00537
1002,48; 9489,337;  203,087; 9251,662;102,62666
1003,03; 9419,029;  221,856; 9196,969;102,47417
1003,57; 9365,721;  231,087; 9100,738;102,98752
1004,12; 9266,952;  245,010; 8986,123;103,21274
1004,67; 9173,952;  214,779; 8895,277;103,21036
1005,22; 9012,337;  210,933; 8746,969;103,10879
1005,76; 8919,721;  205,548; 8598,431;103,82813
1006,31; 8844,875;  242,625; 8582,508;103,14594
1006,86; 8792,260;  211,010; 8482,738;103,74192
1007,40; 8610,183;  196,471; 8278,046;104,10980
1007,95; 8509,567;  215,163; 8231,277;103,47164
1008,50; 8379,029;  218,933; 8077,508;103,83684
1009,04; 8299,106;  225,625; 8005,123;103,77894
1009,59; 8135,106;  231,625; 7830,585;104,00741
1010,14; 8072,644;  211,471; 7737,277;104,45623
1010,68; 7955,567;  219,087; 7635,585;104,31447
1011,23; 7816,952;  200,548; 7480,662;104,61930
1011,78; 7767,106;  229,856; 7416,508;104,87846
1012,32; 7656,029;  217,240; 7308,738;104,89728
1012,87; 7652,337;  244,933; 7266,738;105,49144
1013,42; 7542,490;  209,240; 7137,046;105,85242
1013,96; 7540,413;  242,163; 7109,815;106,26995
1014,51; 7450,337;  195,779; 6996,431;106,67444
1015,06; 7449,567;  196,471; 7019,431;106,30425
1015,60; 7534,337;  260,702; 7074,738;106,74487
1016,15; 7473,875;  215,394; 7027,354;106,55496
1016,69; 7567,798;  210,702; 7032,892;107,84067
1017,24; 7525,337;  201,625; 7041,277;107,07726
1017,79; 7666,875;  236,625; 7133,046;107,74066
1018,33; 7663,183;  196,856; 7086,431;108,37137
1018,88; 7728,798;  217,856; 7119,123;108,83425
1019,42; 7733,798;  221,625; 7189,431;107,81261
1019,97; 7764,798;  212,010; 7144,431;108,94878
1020,51; 7896,260;  216,317; 7204,585;109,89766
1021,06; 7893,798;  211,240; 7194,277;110,01744
1021,61; 7853,952;  190,087; 7111,277;110,73045
1022,15; 7845,567;  171,856; 7116,969;110,49080
1022,70; 7855,337;  215,856; 7101,815;110,94286
1023,24; 7880,106;  204,548; 7089,123;111,48920
1023,79; 7841,029;  220,163; 7016,892;112,12549
1024,33; 7784,260;  218,087; 7014,508;111,32584
1024,88; 7689,183;  219,240; 6898,200;111,84290
1025,42; 7615,952;  201,779; 6767,585;112,92099
1025,97; 7545,260;  203,933; 6709,815;112,84137
1026,51; 7447,490;  173,087; 6576,123;113,60866
1027,06; 7337,337;  209,317; 6514,508;113,05002
1027,60; 7237,413;  207,702; 6401,508;113,49583
1028,15; 7192,567;  221,087; 6325,200;114,20955
1028,69; 7071,413;  174,317; 6191,277;114,62760
1029,24; 6986,337;  207,933; 6127,738;114,50382
1029,78; 6882,490;  205,779; 6030,892;114,61942
1030,33; 6740,721;  177,933; 5875,969;115,17631
1030,87; 6745,260;  206,471; 5843,354;116,00008
1031,42; 6614,413;  194,933; 5743,123;115,70405
1031,96; 6533,721;  212,317; 5674,431;115,73183
1032,51; 6441,106;  199,317; 5561,277;116,40872
1033,05; 6370,567;  208,163; 5559,431;115,15784
1033,60; 6213,413;  174,933; 5420,508;115,11571
1034,14; 6227,413;  199,933; 5322,815;117,65799
1034,69; 6147,337;  199,317; 5278,585;117,10388
1035,23; 6012,875;  204,702; 5203,662;116,18764
1035,77; 5980,798;  196,087; 5102,969;117,88975
1036,32; 5831,183;  180,779; 5061,277;115,77515
1036,86; 5857,644;  198,163; 5007,200;117,68430
1037,41; 5727,952;  204,625; 4916,046;117,23271
1037,95; 5654,644;  183,933; 4840,200;117,49135
1038,50; 5578,106;  196,240; 4790,200;117,15091
1039,04; 5491,644;  203,779; 4734,585;116,70916
1039,58; 5429,490;  192,010; 4634,892;117,88474
1040,13; 5345,490;  201,471; 4572,431;117,68627
1040,67; 5294,183;  223,394; 4554,431;117,08025
1041,21; 5210,567;  228,317; 4467,892;117,51768
1041,76; 5128,952;  176,471; 4386,431;117,63725
1042,30; 5108,337;  210,471; 4333,738;118,78603
1042,85; 4990,106;  207,856; 4276,046;117,55227
1043,39; 4930,183;  190,010; 4189,123;118,53060
1043,93; 4873,260;  217,394; 4146,431;118,49891
1044,48; 4825,798;  205,548; 4087,123;119,03029
1045,02; 4714,721;  202,856; 4031,046;117,85896
1045,56; 4698,106;  210,548; 3970,969;119,33657
1046,11; 4624,875;  210,394; 3918,277;119,05665
1046,65; 4551,337;  208,779; 3887,123;118,05740
1047,19; 4502,337;  198,779; 3772,354;120,42724
1047,74; 4429,798;  182,856; 3709,354;120,42945
1048,28; 4393,490;  210,779; 3699,123;119,90536
1048,82; 4343,644;  222,625; 3665,508;119,69677
1049,37; 4295,875;  205,240; 3596,738;120,61439
1049,91; 4231,413;  197,548; 3556,892;120,07895
1050,45; 4156,106;  228,317; 3497,738;120,13712
1050,99; 4121,337;  207,856; 3457,277;120,43624
1051,54; 4062,337;  196,933; 3406,969;120,41619
1052,08; 4024,260;  215,010; 3390,508;119,95756
1052,62; 3969,875;  221,548; 3324,277;120,80743
1053,16; 3888,106;  192,702; 3260,046;120,47568
1053,71; 3856,337;  215,856; 3214,123;121,41949
1054,25; 3818,721;  223,779; 3169,892;122,02321
1054,79; 3813,490;  211,933; 3115,354;124,04531
1055,33; 3730,567;  183,163; 3065,123;123,08999
1055,88; 3710,413;  227,317; 3055,123;123,17310
1056,42; 3681,490;  234,702; 3005,662;124,38970
1056,96; 3605,875;  221,240; 2946,508;124,19459
1057,50; 3586,490;  201,240; 2901,738;125,35650
1058,05; 3549,029;  212,625; 2862,354;125,91492
1058,59; 3501,183;  228,163; 2863,431;124,20065
1059,13; 3422,952;  196,163; 2778,892;124,93718
1059,67; 3403,644;  229,163; 2767,354;125,06866
1060,21; 3348,567;  218,240; 2707,815;125,73740
1060,76; 3343,106;  221,779; 2650,815;128,50062
1061,30; 3276,029;  232,010; 2631,815;126,84440
1061,84; 3224,183;  211,471; 2589,585;126,68494
1062,38; 3143,644;  205,317; 2537,738;125,97755
1062,92; 3185,567;  243,317; 2551,277;127,48273
1063,46; 3115,952;  229,933; 2483,585;128,05967
1064,01; 3085,798;  208,317; 2434,892;129,23350
1064,55; 3019,260;  217,163; 2405,431;128,05091
1065,09; 2956,490;  186,779; 2359,815;127,45812
1065,63; 2987,106;  232,471; 2386,508;127,88245
1066,17; 2921,721;  234,010; 2342,508;127,47043
1066,71; 2895,029;  230,087; 2316,969;127,69967
1067,25; 2848,644;  212,471; 2262,969;128,56257
1067,80; 2798,567;  233,163; 2246,123;127,44438
1068,34; 2785,337;  237,471; 2246,585;126,81541
1068,88; 2692,798;  213,087; 2162,431;127,20747
1069,42; 2719,413;  248,779; 2180,585;127,89250
1069,96; 2655,798;  218,625; 2115,738;128,46744
1070,50; 2669,567;  245,317; 2124,123;129,03143
1071,04; 2591,490;  212,394; 2064,354;128,46372
1071,58; 2553,337;  221,548; 2029,123;129,00092
1072,12; 2544,567;  212,625; 2019,892;129,03140
1072,66; 2513,798;  211,240; 1998,354;128,84228
1073,21; 2503,106;  230,163; 2000,738;128,37312
1073,75; 2461,106;  223,163; 1961,585;128,73419
1074,29; 2430,490;  230,087; 1930,277;129,42103
1074,83; 2407,337;  228,163; 1910,046;129,56748
1075,37; 2374,490;  226,856; 1907,508;127,78581
1075,91; 2353,029;  233,240; 1899,738;127,20017
1076,45; 2335,337;  229,317; 1849,662;129,97357
1076,99; 2323,875;  222,933; 1827,431;130,94078
1077,53; 2249,721;  207,625; 1766,200;131,02328
1078,07; 2251,183;  232,933; 1774,738;130,90170
1078,61; 2204,490;  223,087; 1751,123;129,66993
1079,15; 2155,644;  220,548; 1742,431;127,15147
1079,69; 2167,875;  234,933; 1710,200;131,02319
1080,23; 2161,798;  232,240; 1702,046;131,27977
1080,77; 2171,952;  252,240; 1702,354;132,38354
1081,31; 2070,183;  217,240; 1635,969;130,60581
1081,85; 2089,644;  233,240; 1652,508;130,80016
1082,39; 2053,029;  221,394; 1597,354;133,11689
1082,93; 2028,644;  216,010; 1611,892;129,85580
1083,47; 1995,490;  207,625; 1568,123;131,41256
1084,01; 1993,567;  236,625; 1576,046;131,17176
1084,55; 1964,106;  216,163; 1516,738;134,39766
1085,09; 1982,490;  227,317; 1543,277;133,37591
1085,63; 1930,183;  219,394; 1525,662;130,96772
1086,17; 1900,490;  213,394; 1487,892;132,37338
1086,71; 1853,721;  214,087; 1471,277;130,42055
1087,24; 1877,490;  237,625; 1468,662;133,21013
1087,78; 1863,106;  235,702; 1460,662;132,85367
1088,32; 1809,644;  221,548; 1420,662;132,43919
1088,86; 1825,337;  241,702; 1424,508;133,88797
1089,40; 1785,721;  226,779; 1386,431;134,43192
1089,94; 1743,490;  193,702; 1343,815;134,75092
1090,48; 1732,413;  233,779; 1347,969;134,50436
1091,02; 1731,875;  229,933; 1353,431;133,68446
1091,56; 1710,644;  238,702; 1347,277;132,77787
1092,10; 1671,721;  207,240; 1278,892;136,65638
1092,63; 1688,721;  235,317; 1306,662;135,66170
1093,17; 1667,337;  223,625; 1280,969;136,54130
1093,71; 1621,798;  211,548; 1279,815;132,01284
1094,25; 1665,183;  246,010; 1260,662;139,86797
1094,79; 1619,490;  223,163; 1235,123;137,98247
1095,33; 1592,721;  229,394; 1229,585;136,30674
1095,87; 1569,260;  223,471; 1204,508;137,18026
1096,40; 1541,106;  200,548; 1177,277;137,24973
1096,94; 1546,490;  220,087; 1190,508;136,68332
1097,48; 1539,029;  224,240; 1172,354;138,67417
1098,02; 1499,413;  222,087; 1139,277;139,26519
1098,56; 1456,721;  200,548; 1117,354;137,01627
1099,10; 1440,490;  202,933; 1101,892;137,66555
1099,63; 1442,721;  211,933; 1091,969;139,85652
1100,17; 1441,260;  228,471; 1098,431;139,40744
1100,71; 1436,875;  240,779; 1111,508;137,36724

