
Integration time [ms]: 115,000
Averaging Nr. [scans]: 13
Smoothing Nr. [pixels]: 0
Data measured with spectrometer [name]: 2009305U1
Wave   ;Sample   ;Dark     ;Reference;Reflectance
[nm]   ;[counts] ;[counts] ;[counts] ;[%]

 175,72;  202,738;  176,239;  216,377;66,01773
 176,32;  230,039;  211,934;  220,629;208,21437
 176,92;  249,414;  225,163;  254,806;81,81153
 177,52;  260,899;  252,086;  276,497;36,10477
 178,12;  228,442;  223,549;  229,646;80,25038
 178,72;  258,422;  243,857;  246,426;566,98221
 179,32;  256,555;  236,780;  245,502;226,72673
 179,92;  251,761;  232,933;  243,184;183,66552
 180,52;  252,234;  234,084;  251,849;102,16774
 181,12;  263,906;  235,010;  258,040;125,46979
 181,73;  275,472;  253,163;  272,610;114,71589
 182,33;  354,394;  298,008;  354,611;99,61702
 182,93;  271,116;  245,240;  267,679;115,31793
 183,53;  240,833;  227,319;  231,255;343,38289
 184,13;  235,508;  231,011;  230,121; 0,00000
 184,73;  276,480;  249,935;  276,206;101,04141
 185,33;  286,159;  222,716;  348,805;50,31627
 185,93;  295,725;  214,717;  380,479;48,86995
 186,53;  313,601;  241,332;  381,727;51,47549
 187,13;  344,782;  264,099;  406,630;56,60720
 187,73;  297,843;  220,102;  379,098;48,89538
 188,33;  294,031;  227,718;  376,187;44,66463
 188,93;  305,621;  231,182;  389,757;46,94216
 189,53;  328,257;  240,799;  389,798;58,69721
 190,13;  357,370;  271,649;  443,566;49,86189
 190,73;  315,489;  217,185;  377,425;61,34832
 191,34;  337,989;  254,183;  413,712;52,53375
 191,94;  299,476;  227,565;  367,514;51,38404
 192,54;  313,496;  237,868;  406,065;44,96380
 193,14;  314,922;  248,715;  393,108;45,85182
 193,74;  311,731;  249,561;  386,677;45,34096
 194,34;  309,362;  235,099;  379,479;51,43553
 194,94;  270,908;  206,792;  347,521;45,55991
 195,54;  258,001;  196,177;  321,772;49,22498
 196,14;  285,756;  218,484;  355,903;48,95442
 196,74;  256,561;  211,331;  351,478;32,27325
 197,34;  259,528;  187,252;  345,540;45,66142
 197,94;  286,841;  225,715;  362,779;44,59665
 198,54;  294,734;  217,484;  389,006;45,03787
 199,14;  269,842;  197,636;  381,096;39,35791
 199,74;  263,087;  198,097;  381,375;35,45934
 200,34;  263,490;  186,097;  382,635;39,37791
 200,94;  300,912;  223,637;  421,823;38,99142
 201,54;  282,389;  202,328;  428,459;35,40455
 202,14;  321,980;  211,635;  474,923;41,91031
 202,74;  306,991;  204,328;  476,128;37,77164
 203,34;  300,470;  195,558;  479,311;36,97318
 203,94;  275,663;  163,635;  500,548;33,25143
 204,54;  344,303;  228,869;  592,022;31,78660
 205,14;  319,281;  199,405;  597,661;30,10019
 205,74;  374,905;  218,481;  690,215;33,15931
 206,34;  342,482;  197,405;  690,439;29,42539
 206,94;  369,603;  203,328;  773,362;29,16942
 207,54;  365,310;  180,251;  804,961;29,62318
 208,14;  401,690;  195,097;  861,786;30,98801
 208,74;  417,493;  194,559;  953,337;29,38073
 209,34;  432,467;  193,636; 1030,265;28,54682
 209,94;  471,186;  202,328; 1148,580;28,41295
 210,54;  492,899;  198,866; 1237,375;28,31303
 211,14;  518,697;  209,174; 1365,714;26,76284
 211,73;  538,619;  201,175; 1462,293;26,75757
 212,33;  576,437;  218,791; 1597,159;25,94708
 212,93;  587,389;  196,636; 1668,394;26,55010
 213,53;  585,123;  181,790; 1767,846;25,42991
 214,13;  646,200;  176,403; 1856,152;27,96831
 214,73;  624,057;  178,481; 1880,384;26,18101
 215,33;  616,417;  156,405; 1915,118;26,15616
 215,93;  662,678;  188,327; 2037,402;25,65342
 216,53;  666,955;  142,559; 2075,324;27,13188
 217,13;  752,736;  210,866; 2307,296;25,84730
 217,73;  800,706;  181,250; 2505,729;26,64921
 218,33;  831,328;  162,403; 2685,388;26,51322
 218,93;  944,219;  172,632; 2992,680;27,36077
 219,53; 1020,495;  174,942; 3296,897;27,08410
 220,13; 1073,152;  151,557; 3577,759;26,89846
 220,73; 1227,367;  167,405; 3938,368;28,10853
 221,32; 1334,340;  178,251; 4361,644;27,63518
 221,92; 1493,781;  192,249; 4765,641;28,45879
 222,52; 1624,647;  172,558; 5220,516;28,76587
 223,12; 1770,842;  167,481; 5680,122;29,08517
 223,72; 1925,625;  185,019; 6134,170;29,25805
 224,32; 2091,249;  176,865; 6553,184;30,02334
 224,92; 2212,127;  175,404; 6818,083;30,66117
 225,52; 2337,309;  188,020; 7246,795;30,44848
 226,12; 2465,239;  182,327; 7519,659;31,11364
 226,72; 2577,899;  155,174; 7864,594;31,42552
 227,31; 2742,238;  151,251; 8241,262;32,02700
 227,91; 2909,834;  174,405; 8608,273;32,43386
 228,51; 3062,596;  177,790; 9061,833;32,47177
 229,11; 3217,034;  166,020; 9428,961;32,93786
 229,71; 3349,869;  168,175; 9795,860;33,04734
 230,31; 3539,553;  163,326;10145,637;33,82210
 230,91; 3691,047;  163,483;10541,858;33,98956
 231,51; 3842,199;  147,173;10894,551;34,38072
 232,10; 4049,988;  152,172;11267,104;35,06829
 232,70; 4209,746;  167,484;11505,325;35,65284
 233,30; 4375,483;  192,789;11856,258;35,86150
 233,90; 4528,130;  163,789;12037,003;36,75788
 234,50; 4636,099;  175,558;12250,655;36,94000
 235,10; 4729,512;  157,404;12347,468;37,50684
 235,70; 4839,259;  192,020;12458,020;37,88716
 236,29; 4885,674;  182,251;12486,574;38,22578
 236,89; 4920,079;  165,022;12367,077;38,96932
 237,49; 4942,831;  177,173;12382,301;39,04636
 238,09; 4918,482;  176,789;12207,055;39,41470
 238,69; 4948,924;  193,099;12025,720;40,19249
 239,29; 4812,952;  168,328;11806,275;39,90931
 239,89; 4769,201;  178,791;11452,563;40,71761
 240,48; 4580,052;  173,635;11111,338;40,28649
 241,08; 4461,712;  163,097;10762,261;40,55617
 241,68; 4324,378;  198,558;10511,432;40,00650
 242,28; 4215,850;  162,404;10160,933;40,54042
 242,88; 4070,214;  190,480; 9825,661;40,26633
 243,48; 3921,279;  192,250; 9558,253;39,81452
 244,07; 3763,404;  186,482; 9286,172;39,30818
 244,67; 3646,256;  188,943; 9134,113;38,65006
 245,27; 3526,389;  182,329; 8936,369;38,20019
 245,87; 3410,300;  184,096; 8853,728;37,21270
 246,47; 3305,818;  172,329; 8804,009;36,30220
 247,06; 3245,929;  169,097; 8795,610;35,66716
 247,66; 3181,876;  170,943; 8817,762;34,82128
 248,26; 3155,249;  208,559; 8992,584;33,54601
 248,86; 3132,000;  189,559; 9141,797;32,86821
 249,46; 3089,647;  150,789; 9313,349;32,07464
 250,05; 3082,486;  191,405; 9693,550;30,42557
 250,65; 3081,243;  158,636;10006,744;29,67684
 251,25; 3113,784;  179,713;10412,907;28,67210
 251,85; 3183,441;  182,329;11056,103;27,59954
 252,44; 3215,217;  147,251;11624,928;26,72985
 253,04; 3326,444;  180,559;12334,676;25,88329
 253,64; 3359,537;  144,175;12999,837;25,01125
 254,24; 3502,934;  186,559;13928,194;24,13378
 254,84; 3611,647;  175,712;14774,119;23,53637
 255,43; 3719,652;  178,713;15718,690;22,78600
 256,03; 3842,578;  163,329;16666,213;22,29458
 256,63; 3988,572;  176,868;17718,668;21,72927
 257,23; 4020,314;  165,098;18500,507;21,02607
 257,82; 4199,887;  177,022;19474,686;20,84638
 258,42; 4239,578;  132,484;20270,264;20,39497
 259,02; 4436,639;  174,636;21174,808;20,29509
 259,62; 4488,437;  159,792;21804,596;19,99854
 260,21; 4524,471;  177,328;22295,978;19,65374
 260,81; 4588,442;  170,481;22823,178;19,50302
 261,41; 4620,556;  166,176;23209,931;19,33010
 262,01; 4754,047;  195,023;23642,910;19,44322
 262,60; 4718,545;  161,483;23968,584;19,14161
 263,20; 4823,660;  164,944;24178,655;19,40023
 263,80; 4837,627;  182,562;24384,042;19,23463
 264,40; 4895,808;  145,484;24473,227;19,52636
 264,99; 4927,124;  179,331;24635,359;19,41359
 265,59; 4991,999;  164,255;24795,929;19,59974
 266,19; 5074,717;  164,638;24886,859;19,86099
 266,78; 5206,973;  198,716;25019,817;20,17742
 267,38; 5210,294;  172,332;25091,828;20,21695
 267,98; 5243,001;  158,331;25004,990;20,46420
 268,58; 5390,710;  177,562;25077,419;20,93646
 269,17; 5459,672;  165,332;25112,785;21,22196
 269,77; 5477,418;  182,945;24923,644;21,39985
 270,37; 5549,780;  150,485;24758,337;21,94135
 270,96; 5622,249;  204,253;24703,174;22,11524
 271,56; 5658,065;  167,868;24397,106;22,65939
 272,16; 5678,769;  169,176;24154,837;22,97036
 272,75; 5755,280;  166,561;24041,291;23,40851
 273,35; 5838,005;  173,099;24093,138;23,68268
 273,95; 5918,756;  175,176;23998,878;24,10868
 274,54; 5979,296;  155,251;24001,451;24,42337
 275,14; 6225,471;  180,253;24296,492;25,06700
 275,74; 6284,991;  144,022;24387,065;25,33085
 276,33; 6529,504;  190,099;24762,723;25,79865
 276,93; 6712,206;  175,943;24987,120;26,34403
 277,53; 6926,226;  174,867;25496,469;26,66245
 278,12; 7184,084;  157,252;26003,751;27,18678
 278,72; 7495,932;  194,867;26636,274;27,61224
 279,32; 7757,407;  165,713;27171,463;28,11140
 279,91; 8141,189;  163,021;27905,256;28,75820
 280,51; 8396,231;  173,251;28428,361;29,10263
 281,11; 8778,221;  174,098;29118,155;29,72673
 281,70; 9015,012;  153,098;29568,424;30,12686
 282,30; 9417,758;  159,098;30230,644;30,78877
 282,90; 9660,844;  169,945;30561,185;31,22906
 283,49;10033,788;  186,099;31199,186;31,75333
 284,09;10381,709;  190,714;31628,304;32,41659
 284,69;10645,941;  189,175;32037,341;32,83318
 285,28;10989,926;  191,867;32500,794;33,42129
 285,88;11327,624;  199,022;32695,762;34,24529
 286,47;11512,907;  175,329;32693,137;34,86575
 287,07;11858,547;  203,944;32809,646;35,74406
 287,67;12094,356;  190,789;32982,022;36,30107
 288,26;12350,488;  169,559;32869,266;37,25088
 288,86;12639,700;  172,175;32963,147;38,02121
 289,46;13013,370;  170,636;33023,814;39,09130
 290,05;13384,540;  162,251;33047,628;40,20720
 290,65;13800,621;  175,252;33285,329;41,15173
 291,24;14238,326;  189,559;33411,430;42,28770
 291,84;14611,418;  182,406;33467,438;43,34985
 292,44;15013,257;  176,327;33666,984;44,30170
 293,03;15470,380;  230,636;33835,995;45,34915
 293,63;15827,644;  170,022;33925,161;46,38589
 294,22;16248,089;  194,175;34192,898;47,21917
 294,82;16604,043;  181,561;34111,735;48,40082
 295,41;16659,012;  153,944;33869,501;48,95386
 296,01;16985,877;  217,176;33826,800;49,89256
 296,61;17011,674;  179,559;33699,024;50,21594
 297,20;17006,171;  182,638;33244,688;50,88473
 297,80;17083,966;  187,635;33052,862;51,41097
 298,39;16961,056;  163,868;32744,796;51,55528
 298,99;17037,525;  175,638;32519,890;52,13256
 299,58;17074,166;  186,558;32371,911;52,46985
 300,18;17124,051;  207,097;32078,314;53,07910
 300,78;16927,467;  169,405;31723,868;53,10837
 301,37;16959,834;  186,639;31725,967;53,18184
 301,97;17023,633;  182,021;31752,405;53,34624
 302,56;16967,965;  166,099;31633,889;53,39386
 303,16;16974,725;  155,099;31597,477;53,49349
 303,75;17022,634;  174,405;31569,005;53,66601
 304,35;17144,805;  163,635;31819,100;53,64373
 304,94;17191,868;  180,098;31793,374;53,81211
 305,54;17223,263;  203,636;31684,952;54,06263
 306,13;17163,317;  149,173;31607,401;54,08488
 306,73;16992,881;  165,404;31473,524;53,74796
 307,33;17025,130;  185,020;31361,055;54,01620
 307,92;17001,733;  169,944;31395,096;53,90459
 308,52;17227,752;  165,099;31890,100;53,78299
 309,11;17506,483;  172,638;32427,632;53,74004
 309,71;17595,916;  155,177;32681,960;53,61963
 310,30;17708,529;  157,098;32836,795;53,70745
 310,90;17805,221;  179,329;33162,180;53,43957
 311,49;17858,280;  182,559;33344,317;53,30152
 312,09;17876,097;  142,636;33547,722;53,08611
 312,68;18075,123;  201,790;33927,769;52,99574
 313,28;17964,964;  152,559;33956,788;52,69283
 313,87;18000,425;  150,482;34176,314;52,45997
 314,47;18016,579;  167,253;34398,507;52,14336
 315,06;17972,923;  148,405;34567,733;51,78636
 315,66;18003,943;  158,943;34854,645;51,43288
 316,25;17849,128;  140,406;34689,418;51,25681
 316,85;17726,748;  139,559;34777,975;50,77365
 317,44;17660,248;  158,561;34947,829;50,30772
 318,04;17565,120;  148,945;34913,363;50,09770
 318,63;17431,365;  148,712;34929,575;49,69012
 319,22;17379,739;  174,253;35197,076;49,12650
 319,82;17279,713;  176,483;35096,106;48,97885
 320,41;17031,943;  161,945;35099,992;48,28546
 321,01;16931,680;  171,020;35141,349;47,92823
 321,60;16722,641;  166,714;35251,383;47,18849
 322,20;16577,045;  161,405;35121,065;46,95595
 322,79;16461,484;  191,790;35166,860;46,51797
 323,39;16290,597;  168,250;35279,984;45,91726
 323,98;16074,724;  153,251;35282,413;45,32267
 324,58;15884,236;  157,176;35187,689;44,89532
 325,17;15711,001;  167,637;35145,514;44,43770
 325,76;15482,597;  182,867;34943,934;44,01398
 326,36;15077,689;  147,174;34505,813;43,45491
 326,95;14870,229;  174,406;34216,453;43,16962
 327,55;14508,808;  161,560;33888,496;42,53944
 328,14;14215,337;  160,558;33455,672;42,21274
 328,74;13837,567;  193,637;33098,303;41,46503
 329,33;13556,784;  182,328;32807,741;40,99398
 329,92;13153,565;  159,869;32210,755;40,54083
 330,52;12788,794;  177,097;31505,485;40,25645
 331,11;12482,740;  174,790;31212,280;39,65511
 331,71;12065,574;  171,560;30432,102;39,30536
 332,30;11784,791;  186,406;30077,143;38,80261
 332,89;11433,996;  194,867;29511,339;38,33725
 333,49;11058,483;  191,483;28964,734;37,76772
 334,08;10809,708;  176,252;28472,291;37,57931
 334,68;10439,776;  178,944;28023,751;36,85008
 335,27;10237,184;  189,097;27739,620;36,47149
 335,86; 9985,279;  198,252;27392,433;35,98942
 336,46; 9696,804;  178,404;27143,820;35,29855
 337,05; 9476,464;  173,175;26956,025;34,73599
 337,65; 9276,184;  154,252;26747,263;34,30199
 338,24; 9203,426;  213,636;26704,877;33,93495
 338,83; 9032,869;  192,482;26645,103;33,41970
 339,43; 8841,979;  167,791;26542,617;32,88813
 340,02; 8721,386;  173,945;26436,655;32,54592
 340,61; 8627,823;  160,482;26511,836;32,13247
 341,21; 8537,952;  202,099;26614,149;31,56080
 341,80; 8363,355;  167,483;26464,883;31,16609
 342,40; 8301,930;  184,866;26529,250;30,81136
 342,99; 8224,073;  176,482;26685,878;30,35751
 343,58; 8107,169;  171,251;26786,510;29,81717
 344,18; 8064,694;  187,789;26883,705;29,50603
 344,77; 7978,933;  173,791;27228,350;28,84964
 345,36; 8012,614;  152,944;27547,530;28,69060
 345,96; 8023,906;  186,790;27898,073;28,28132
 346,55; 7998,371;  159,250;28039,876;28,11673
 347,14; 7946,921;  148,712;28352,017;27,64998
 347,74; 7893,754;  134,941;28802,237;27,06503
 348,33; 8014,893;  176,788;29445,868;26,77947
 348,92; 8082,900;  182,864;30050,130;26,45048
 349,52; 8124,487;  153,249;30534,317;26,23752
 350,11; 8101,254;  164,330;30849,386;25,86576
 350,70; 7991,602;  157,636;30870,762;25,50690
 351,29; 7854,236;  151,793;30630,485;25,27157
 351,89; 7759,230;  176,946;30644,581;24,88636
 352,48; 7625,226;  148,098;30744,072;24,43828
 353,07; 7497,858;  171,481;30661,308;24,02892
 353,67; 7402,909;  187,941;30661,298;23,67632
 354,26; 7266,021;  177,943;30285,990;23,54214
 354,85; 7145,355;  180,097;30287,588;23,13463
 355,45; 7029,631;  150,483;30048,817;23,00847
 356,04; 6936,999;  171,712;29992,195;22,68671
 356,63; 6820,849;  194,637;29722,345;22,44066
 357,22; 6721,481;  182,254;29642,724;22,19662
 357,82; 6571,138;  179,254;29568,586;21,74900
 358,41; 6518,262;  183,944;29398,069;21,68238
 359,00; 6347,155;  171,253;29186,052;21,28535
 359,60; 6282,326;  179,559;29089,288;21,10973
 360,19; 6193,538;  167,250;28900,900;20,97293
 360,78; 6127,369;  182,868;28752,546;20,80703
 361,37; 6046,075;  175,637;28566,902;20,67692
 361,97; 5956,451;  177,175;28530,155;20,38331
 362,56; 5875,218;  174,560;28176,133;20,35835
 363,15; 5822,242;  188,252;27971,246;20,27856
 363,74; 5651,230;  173,022;27662,683;19,92825
 364,34; 5581,119;  206,022;27333,877;19,81394
 364,93; 5443,186;  157,484;26881,684;19,77871
 365,52; 5298,202;  145,329;26525,510;19,53312
 366,11; 5215,870;  169,791;26163,872;19,41242
 366,71; 5135,047;  156,791;25776,076;19,43167
 367,30; 5043,569;  165,790;25473,044;19,27423
 367,89; 5033,011;  201,328;25232,258;19,30285
 368,48; 4911,335;  179,561;24906,241;19,13631
 369,07; 4764,525;  181,713;24451,608;18,88270
 369,67; 4744,588;  185,253;24105,611;19,06048
 370,26; 4659,475;  173,867;23873,858;18,92662
 370,85; 4621,333;  174,252;23550,537;19,02390
 371,44; 4560,623;  171,867;23370,237;18,91838
 372,03; 4515,295;  156,637;23193,697;18,92020
 372,63; 4427,496;  153,483;22877,551;18,80831
 373,22; 4430,583;  163,713;22601,975;19,01605
 373,81; 4328,311;  151,098;22258,948;18,89470
 374,40; 4320,052;  157,866;21988,723;19,06561
 374,99; 4247,360;  160,945;21684,224;18,98603
 375,59; 4225,065;  159,635;21418,913;19,12309
 376,18; 4233,179;  193,021;21403,678;19,04777
 376,77; 4222,049;  175,021;21085,997;19,35361
 377,36; 4235,265;  193,098;21072,078;19,35998
 377,95; 4166,843;  179,791;20770,557;19,36330
 378,55; 4177,449;  157,790;20539,965;19,72145
 379,14; 4175,166;  164,637;20564,566;19,65952
 379,73; 4210,717;  170,483;20364,577;20,00701
 380,32; 4219,013;  182,867;20445,975;19,91869
 380,91; 4212,968;  165,330;20277,027;20,12579
 381,50; 4273,155;  181,637;20290,182;20,34716
 382,10; 4233,859;  159,406;20190,898;20,34024
 382,69; 4257,790;  155,867;20114,568;20,55205
 383,28; 4311,408;  188,560;20055,244;20,75257
 383,87; 4318,671;  162,483;19910,528;21,04607
 384,46; 4328,958;  171,330;19836,502;21,14208
 385,05; 4436,209;  193,637;19833,439;21,60191
 385,64; 4440,639;  161,022;19814,872;21,77496
 386,24; 4436,623;  152,869;19756,098;21,85229
 386,83; 4532,808;  186,100;19744,215;22,22457
 387,42; 4616,205;  190,791;19875,815;22,48112
 388,01; 4711,457;  179,178;20018,150;22,84533
 388,60; 4803,849;  176,792;20248,923;23,05215
 389,19; 4850,114;  154,948;20518,679;23,05651
 389,78; 4997,237;  164,025;20750,651;23,47744
 390,37; 5216,657;  214,023;21186,993;23,85277
 390,96; 5297,695;  178,869;21368,206;24,15756
 391,56; 5334,344;  167,794;21459,411;24,26565
 392,15; 5492,333;  162,409;21772,680;24,66385
 392,74; 5584,308;  146,796;21948,826;24,94039
 393,33; 5715,253;  160,256;22265,505;25,12977
 393,92; 5922,437;  189,258;22553,240;25,63577
 394,51; 6014,787;  156,641;22829,766;25,83740
 395,10; 6169,942;  185,414;23114,549;26,10010
 395,69; 6269,907;  170,491;23248,411;26,42966
 396,28; 6365,021;  189,338;23335,047;26,68176
 396,87; 6503,115;  194,724;23425,208;27,15566
 397,46; 6604,446;  190,495;23585,477;27,41593
 398,06; 6785,428;  193,035;23669,499;28,08086
 398,65; 6822,838;  179,116;23892,754;28,01646
 399,24; 6990,135;  198,885;23988,985;28,54653
 399,83; 7026,014;  178,276;23940,630;28,81759
 400,42; 7194,194;  206,819;24092,641;29,25323
 401,01; 7275,213;  178,902;24273,148;29,45231
 401,60; 7398,724;  192,679;24311,313;29,87750
 402,19; 7532,308;  205,069;24262,482;30,45730
 402,78; 7587,718;  220,079;24386,919;30,48657
 403,37; 7553,922;  191,857;24237,918;30,61651
 403,96; 7638,004;  198,098;24082,316;31,14988
 404,55; 7735,123;  217,956;23963,646;31,65698
 405,14; 7765,128;  193,043;23849,033;32,00916
 405,73; 7808,607;  217,671;23709,315;32,31334
 406,32; 7959,745;  206,526;23650,839;33,07079
 406,91; 7908,024;  210,305;23438,841;33,13906
 407,50; 7951,466;  205,002;23254,443;33,60803
 408,09; 7922,089;  180,775;23033,321;33,87506
 408,68; 7997,995;  195,469;22862,291;34,42267
 409,27; 8009,267;  181,543;22610,369;34,90029
 409,86; 8087,706;  200,459;22544,737;35,29873
 410,45; 8139,078;  221,452;22443,953;35,62887
 411,04; 8204,486;  237,138;22448,357;35,87083
 411,63; 8194,928;  220,591;22151,746;36,36077
 412,22; 8198,426;  214,430;21951,430;36,72998
 412,81; 8191,208;  231,119;21704,362;37,06980
 413,40; 8125,087;  243,270;21441,770;37,18101
 413,99; 8153,491;  264,040;21081,094;37,89898
 414,58; 8022,425;  218,885;20678,324;38,14151
 415,17; 8008,683;  213,504;20453,641;38,51347
 415,76; 8017,059;  211,661;20265,794;38,92164
 416,35; 7989,796;  202,582;20074,317;39,18739
 416,94; 8066,649;  227,660;20097,464;39,45177
 417,53; 8255,430;  216,196;20200,077;40,22859
 418,12; 8366,903;  202,580;20275,076;40,67418
 418,71; 8571,327;  227,423;20627,785;40,90076
 419,30; 8718,171;  222,272;20746,353;41,39478
 419,89; 8774,525;  215,887;20936,746;41,30446
 420,48; 9108,825;  237,500;21154,960;42,41110
 421,07; 9204,035;  223,807;21303,048;42,60223
 421,66; 9276,297;  202,883;21350,228;42,90569
 422,25; 9367,198;  215,649;21401,329;43,19686
 422,84; 9458,467;  237,110;21426,490;43,51877
 423,43; 9379,232;  219,265;21156,431;43,74979
 424,02; 9389,903;  235,495;20902,596;44,29459
 424,60; 9261,326;  202,184;20473,524;44,68941
 425,19; 9177,741;  225,647;20175,271;44,87350
 425,78; 9218,529;  240,186;20022,685;45,38528
 426,37; 9227,379;  231,338;19876,821;45,79191
 426,96; 9234,239;  230,723;19783,638;46,04692
 427,55; 9248,159;  219,644;19652,922;46,45904
 428,14; 9261,311;  199,181;19444,821;47,08666
 428,73; 9185,654;  223,337;19263,012;47,07180
 429,32; 9233,261;  235,569;19202,049;47,43997
 429,91; 9350,741;  249,875;19173,334;48,09303
 430,50; 9361,314;  233,797;19094,344;48,39476
 431,08; 9294,534;  250,181;18933,791;48,40795
 431,67; 9381,628;  286,872;18905,631;48,84727
 432,26; 9343,517;  296,102;18745,246;49,03976
 432,85; 9225,259;  317,487;18395,740;49,27341
 433,44; 9132,227;  312,255;18133,559;49,49117
 434,03; 9028,472;  342,022;17695,758;50,05521
 434,62; 8841,259;  310,101;17215,162;50,46511
 435,21; 8765,879;  324,333;16992,491;50,64475
 435,79; 8713,438;  309,330;16909,247;50,62741
 436,38; 8720,833;  310,098;16758,093;51,13532
 436,97; 8724,902;  303,867;16607,577;51,65103
 437,56; 8671,208;  308,941;16465,781;51,75682
 438,15; 8628,360;  281,634;16353,092;51,93509
 438,74; 8741,266;  298,403;16405,496;52,41705
 439,33; 8698,066;  270,711;16356,282;52,39077
 439,91; 8804,536;  236,479;16410,297;52,97486
 440,50; 8915,943;  281,940;16444,821;53,41871
 441,09; 9015,047;  277,400;16525,340;53,77695
 441,68; 9034,894;  268,783;16548,389;53,84719
 442,27; 9083,005;  251,784;16509,568;54,31995
 442,86; 9098,346;  225,473;16522,899;54,44340
 443,44; 9139,235;  238,474;16566,157;54,51331
 444,03; 9320,418;  276,165;16663,942;55,18902
 444,62; 9240,703;  243,934;16586,123;55,05241
 445,21; 9193,421;  252,935;16352,093;55,53388
 445,80; 9197,020;  274,241;16328,009;55,58059
 446,39; 9122,956;  267,549;16060,943;56,07032
 446,97; 8986,500;  231,777;15859,550;56,02029
 447,56; 8933,663;  244,006;15688,833;56,26258
 448,15; 8832,387;  247,008;15457,759;56,44284
 448,74; 8748,505;  263,008;15203,685;56,79460
 449,33; 8705,251;  248,776;15094,481;56,96243
 449,91; 8614,989;  254,928;14884,349;57,14554
 450,50; 8475,997;  236,390;14632,699;57,23417
 451,09; 8470,568;  256,313;14522,392;57,57893
 451,68; 8459,960;  277,004;14475,127;57,63407
 452,26; 8432,609;  263,157;14303,420;58,18589
 452,85; 8357,540;  255,004;14205,988;58,07860
 453,44; 8379,633;  259,540;14222,480;58,15461
 454,03; 8374,869;  235,926;14222,181;58,19244
 454,61; 8348,122;  233,540;14135,743;58,36904
 455,20; 8529,971;  268,000;14327,598;58,76392
 455,79; 8500,016;  265,310;14302,277;58,66443
 456,38; 8650,803;  270,768;14375,037;59,41488
 456,97; 8678,006;  247,461;14459,903;59,31806
 457,55; 8669,117;  258,460;14465,683;59,19987
 458,14; 8753,095;  278,461;14494,376;59,61371
 458,73; 8723,530;  266,075;14408,714;59,80110
 459,31; 8790,036;  297,766;14431,468;60,08525
 459,90; 8806,826;  292,844;14493,663;59,95416
 460,49; 8908,001;  307,613;14617,511;60,10097
 461,08; 8919,767;  260,227;14620,564;60,30179
 461,66; 8943,348;  269,074;14741,348;59,93719
 462,25; 9098,041;  274,765;14849,924;60,53640
 462,84; 9190,256;  305,611;14869,211;61,00583
 463,43; 9139,761;  225,532;14858,762;60,91771
 464,01; 9109,654;  279,839;14872,707;60,50775
 464,60; 9183,134;  298,840;14842,160;61,08849
 465,19; 9062,235;  251,377;14583,580;61,47595
 465,77; 9004,653;  260,222;14606,796;60,95135
 466,36; 8976,014;  279,763;14574,813;60,83400
 466,95; 8849,494;  265,378;14237,227;61,43866
 467,53; 8655,258;  272,683;13933,693;61,36131
 468,12; 8497,698;  290,914;13652,744;61,41961
 468,71; 8409,769;  276,146;13430,328;61,83298
 469,29; 8241,992;  252,144;13139,336;61,99836
 469,88; 8042,320;  266,682;12926,338;61,42061
 470,47; 8114,903;  320,834;12918,849;61,86744
 471,06; 8092,922;  276,142;12893,327;61,95344
 471,64; 8186,916;  281,373;12979,937;62,25541
 472,23; 8156,843;  258,832;13007,110;61,95355
 472,81; 8249,848;  250,218;13114,976;62,18251
 473,40; 8325,947;  267,986;13240,975;62,11337
 473,99; 8506,608;  325,986;13445,692;62,35370
 474,57; 8519,698;  254,986;13513,881;62,33334
 475,16; 8667,876;  283,448;13680,790;62,58277
 475,75; 8728,195;  295,985;13818,814;62,35536
 476,33; 8761,125;  299,676;13907,279;62,18178
 476,92; 8851,916;  296,909;13974,870;62,54593
 477,51; 8923,341;  286,599;14099,874;62,52494
 478,09; 8985,663;  291,061;14109,999;62,91802
 478,68; 8963,935;  288,830;14023,796;63,16074
 479,27; 8964,883;  315,215;14085,166;62,81553
 479,85; 8918,709;  281,368;13996,598;62,97627
 480,44; 9061,706;  273,522;14109,383;63,51743
 481,02; 9554,600;  282,521;15040,352;62,82820
 481,61;10754,219;  309,060;16960,272;62,72912
 482,20;11738,790;  303,136;18418,989;63,12512
 482,78;12348,565;  327,291;19377,022;63,10469
 483,37;12807,537;  316,827;20002,822;63,44973
 483,95;13068,180;  356,750;20363,482;63,53577
 484,54;13211,653;  359,752;20595,702;63,51024
 485,13;13191,474;  329,671;20633,139;63,34781
 485,71;13050,816;  302,980;20348,881;63,59323
 486,30;12860,291;  341,672;20188,775;63,07530
 486,88;12710,202;  363,133;19891,302;63,22697
 487,47;12379,959;  358,133;19249,214;63,63757
 488,05;11793,594;  344,363;18461,434;63,19581
 488,64;11123,185;  339,054;17309,615;63,54611
 489,23;10117,029;  352,516;15703,760;63,60731
 489,81; 8457,139;  354,516;13150,773;63,32026
 490,40; 7839,985;  311,362;12205,489;63,29698
 490,98; 7648,648;  294,285;11953,332;63,07859
 491,57; 7586,989;  322,670;11732,563;63,66684
 492,15; 7539,128;  314,284;11727,361;63,30320
 492,74; 7497,241;  303,671;11646,115;63,42170
 493,32; 7432,946;  323,746;11543,241;63,36471
 493,91; 7379,885;  305,899;11490,144;63,24956
 494,50; 7353,054;  311,051;11441,741;63,26655
 495,08; 7309,045;  304,359;11304,957;63,67550
 495,67; 7356,704;  308,438;11340,728;63,88760
 496,25; 7241,779;  267,591;11205,805;63,75985
 496,84; 7207,025;  273,130;11166,841;63,65044
 497,42; 7185,301;  262,283;11075,222;64,02531
 498,01; 7193,247;  305,745;11128,401;63,63966
 498,59; 7137,021;  249,744;11004,100;64,04174
 499,18; 7110,524;  256,822;11018,053;63,68882
 499,76; 7096,047;  280,821;10932,366;63,98345
 500,35; 6926,246;  273,281;10723,427;63,66384
 500,93; 6929,513;  269,283;10654,821;64,12986
 501,52; 6920,523;  269,129;10614,694;64,29223
 502,10; 6888,719;  269,281;10616,285;63,97444
 502,69; 6786,445;  257,664;10453,796;64,03193
 503,27; 6677,380;  241,974;10276,758;64,13099
 503,86; 6623,548;  252,357;10235,548;63,81918
 504,44; 6539,414;  248,126;10108,781;63,80193
 505,03; 6410,206;  236,126; 9868,908;64,09447
 505,61; 6323,508;  234,587; 9763,068;63,90233
 506,19; 6272,387;  258,741; 9651,530;64,02407
 506,78; 6108,387;  232,201; 9479,953;63,54178
 507,36; 5970,767;  251,357; 9286,946;63,29869
 507,95; 5930,900;  249,200; 9146,084;63,86168
 508,53; 5827,328;  237,432; 9044,650;63,46949
 509,12; 5734,922;  251,893; 8852,802;63,74941
 509,70; 5663,747;  266,893; 8712,712;63,89971
 510,29; 5594,102;  269,046; 8581,502;64,06116
 510,87; 5422,052;  246,278; 8374,779;63,67439
 511,46; 5315,994;  238,893; 8224,590;63,57743
 512,04; 5246,046;  251,739; 8077,734;63,81690
 512,62; 5131,315;  261,201; 7960,177;63,25665
 513,21; 5009,889;  226,892; 7788,365;63,25483
 513,79; 4943,326;  247,505; 7638,547;63,53395
 514,38; 4812,559;  220,121; 7479,199;63,26476
 514,96; 4742,183;  269,198; 7369,881;62,99373
 515,54; 4646,483;  235,275; 7277,389;62,64039
 516,13; 4589,927;  245,890; 7174,012;62,70150
 516,71; 4473,369;  241,043; 7042,984;62,22233
 517,30; 4451,810;  229,503; 6925,173;63,06026
 517,88; 4355,606;  267,965; 6837,488;62,22128
 518,46; 4279,119;  242,042; 6709,210;62,42418
 519,05; 4234,017;  243,502; 6677,957;62,01791
 519,63; 4184,061;  246,657; 6593,944;62,03286
 520,22; 4194,821;  255,040; 6529,659;62,78916
 520,80; 4093,789;  248,117; 6459,927;61,90906
 521,38; 4098,347;  268,887; 6475,789;61,69681
 521,97; 4041,534;  242,808; 6411,135;61,58437
 522,55; 4057,696;  246,424; 6397,907;61,95697
 523,13; 4052,218;  245,115; 6349,413;62,36759
 523,72; 4040,607;  250,042; 6333,987;62,30441
 524,30; 4104,035;  267,038; 6475,268;61,80500
 524,89; 4098,271;  235,424; 6475,171;61,90712
 525,47; 4165,040;  260,884; 6593,415;61,65238
 526,05; 4181,660;  231,807; 6667,627;61,37296
 526,64; 4257,974;  261,729; 6744,633;61,64282
 527,22; 4392,081;  258,730; 6923,624;62,01675
 527,80; 4428,702;  288,268; 7049,642;61,23658
 528,39; 4524,885;  247,883; 7124,865;62,19301
 528,97; 4617,418;  246,498; 7290,410;62,05245
 529,55; 4717,417;  260,269; 7517,821;61,41393
 530,14; 4845,239;  273,113; 7733,311;61,28692
 530,72; 4892,739;  251,575; 7806,535;61,43201
 531,30; 4973,284;  240,036; 7949,347;61,39652
 531,89; 5071,316;  243,190; 8060,554;61,76156
 532,47; 5106,987;  285,882; 8193,540;60,96754
 533,05; 5162,073;  279,729; 8276,056;61,05733
 533,63; 5195,137;  283,036; 8348,519;60,90275
 534,22; 5211,128;  247,112; 8375,286;61,07172
 534,80; 5245,836;  282,496; 8404,433;61,11031
 535,38; 5336,629;  322,728; 8535,996;61,04635
 535,97; 5233,276;  267,574; 8477,382;60,48500
 536,55; 5291,520;  320,111; 8568,904;60,26832
 537,13; 5229,474;  322,421; 8487,202;60,10024
 537,71; 5262,505;  358,113; 8523,551;60,06282
 538,30; 5258,667;  391,112; 8644,246;58,97826
 538,88; 5292,844;  413,957; 8682,565;59,00494
 539,46; 5361,230;  468,419; 8886,589;58,12203
 540,05; 5471,372;  494,572; 9053,679;58,14625
 540,63; 5555,300;  539,957; 9234,648;57,68282
 541,21; 5620,401;  559,956; 9382,760;57,35642
 541,79; 5700,202;  613,880; 9523,505;57,08795
 542,38; 5796,326;  647,034; 9641,720;57,24816
 542,96; 5894,652;  650,879; 9843,390;57,04397
 543,54; 5978,070;  672,418;10010,159;56,81944
 544,12; 6053,098;  649,726;10193,280;56,61803
 544,70; 6132,693;  620,648;10278,150;57,07527
 545,29; 6182,593;  633,034;10494,357;56,27601
 545,87; 6264,048;  591,187;10505,428;57,21931
 546,45; 6279,815;  556,880;10536,496;57,34624
 547,03; 6286,699;  543,803;10577,875;57,23395
 547,62; 6345,718;  517,187;10757,852;56,91555
 548,20; 6481,322;  496,571;10926,865;57,37854
 548,78; 6495,929;  484,261;10996,873;57,18530
 549,36; 6633,680;  440,954;11236,228;57,36516
 549,94; 6658,040;  398,725;11380,386;56,99789
 550,53; 6829,462;  407,108;11622,701;57,26272
 551,11; 6914,560;  379,876;11786,112;57,29045
 551,69; 7069,730;  379,185;12101,132;57,07708
 552,27; 7215,881;  341,493;12354,289;57,22555
 552,85; 7388,084;  359,261;12791,756;56,53590
 553,44; 7615,539;  341,185;13065,187;57,17033
 554,02; 7821,219;  358,108;13463,714;56,94594
 554,60; 7999,659;  302,184;13792,329;57,05999
 555,18; 8250,635;  330,108;14250,743;56,89774
 555,76; 8405,703;  313,031;14592,996;56,67152
 556,34; 8676,621;  316,491;15034,886;56,80056
 556,93; 8915,553;  307,108;15418,478;56,96668
 557,51; 9066,911;  296,645;15808,650;56,53857
 558,09; 9297,870;  319,185;16208,481;56,50776
 558,67; 9516,827;  311,413;16605,017;56,49710
 559,25; 9689,726;  326,029;16858,468;56,63833
 559,83; 9902,434;  304,874;17220,141;56,73904
 560,41;10031,960;  295,184;17658,299;56,07736
 561,00;10187,487;  305,644;17964,349;55,96018
 561,58;10353,656;  305,184;18198,794;56,15677
 562,16;10497,166;  291,107;18535,033;55,94223
 562,74;10677,595;  274,415;18920,020;55,79427
 563,32;10864,959;  278,182;19425,170;55,29213
 563,90;11104,465;  298,721;19734,376;55,59753
 564,48;11243,991;  310,107;20128,558;55,17022
 565,06;11571,211;  290,644;20677,928;55,33139
 565,65;11895,107;  295,797;21411,651;54,93176
 566,23;12305,478;  353,644;22074,577;55,02450
 566,81;12624,251;  290,106;22813,189;54,76224
 567,39;13102,259;  312,413;23749,654;54,57061
 567,97;13398,509;  317,798;24445,760;54,21391
 568,55;13882,316;  312,721;25282,074;54,34500
 569,13;14202,229;  300,875;25985,573;54,12310
 569,71;14668,537;  298,800;26976,138;53,86496
 570,29;15225,363;  340,646;27965,534;53,88155
 570,87;15585,079;  332,800;28807,390;53,56453
 571,45;15880,645;  317,644;29504,075;53,32273
 572,03;16103,246;  271,182;29935,400;53,37091
 572,61;16474,280;  278,567;30658,437;53,31067
 573,20;16707,246;  313,876;31279,977;52,93973
 573,78;17055,982;  300,336;32070,451;52,74027
 574,36;17328,144;  303,490;32659,967;52,61591
 574,94;17544,925;  350,028;32969,530;52,71355
 575,52;17499,101;  322,257;33286,439;52,10760
 576,10;17836,240;  372,181;33829,419;52,19815
 576,68;17992,947;  356,028;34304,094;51,95265
 577,26;18341,745;  376,718;34970,970;51,93067
 577,84;18549,515;  374,259;35561,855;51,65245
 578,42;18658,419;  397,797;35907,543;51,42426
 579,00;18699,389;  367,336;36066,117;51,35204
 579,58;18816,884;  394,951;36358,705;51,22361
 580,16;18773,569;  386,258;36366,522;51,10388
 580,74;18812,117;  393,027;36608,613;50,85957
 581,32;18836,613;  385,489;36676,432;50,84223
 581,90;18782,533;  404,104;36700,500;50,63431
 582,48;18728,899;  394,796;36762,572;50,41304
 583,06;18683,351;  408,489;36882,136;50,10429
 583,64;18746,880;  407,412;37150,429;49,91280
 584,22;18634,124;  409,103;37069,976;49,71246
 584,80;18513,247;  424,950;36926,307;49,55514
 585,38;18193,186;  430,491;36498,816;49,24735
 585,96;18175,077;  400,028;36510,096;49,22464
 586,54;18126,015;  417,411;36434,899;49,16668
 587,12;18149,004;  384,873;36671,924;48,95446
 587,70;18110,241;  411,336;36772,495;48,67530
 588,28;18121,222;  398,335;36987,799;48,43713
 588,86;18159,367;  411,411;37134,744;48,32883
 589,44;18053,801;  381,487;37139,135;48,07792
 590,02;18065,461;  378,718;37355,737;47,83172
 590,59;18180,132;  354,488;37591,492;47,87078
 591,17;18186,927;  357,101;37811,448;47,60416
 591,75;18229,839;  359,025;37960,898;47,52639
 592,33;18248,792;  371,871;38254,145;47,19073
 592,91;18440,017;  326,101;38606,306;47,31928
 593,49;18440,362;  333,947;38912,389;46,93402
 594,07;18542,172;  341,716;39061,906;47,00508
 594,65;18468,477;  357,642;39133,911;46,70598
 595,23;18624,687;  347,718;39574,230;46,59341
 595,81;18613,882;  350,795;39762,091;46,33973
 596,39;18582,462;  349,871;39896,005;46,10461
 596,97;18540,279;  337,178;40114,666;45,76232
 597,55;18450,595;  327,026;39943,849;45,74715
 598,12;18396,250;  316,254;40022,096;45,53485
 598,70;18319,610;  316,870;40076,357;45,27911
 599,28;18269,678;  339,024;40361,354;44,80162
 599,86;18229,230;  330,793;40412,698;44,65466
 600,44;18235,516;  300,024;40495,453;44,62072
 601,02;18156,136;  350,099;40514,998;44,33233
 601,60;18034,106;  330,640;40527,074;44,04238
 602,18;17946,132;  303,946;40587,644;43,79485
 602,75;17928,565;  305,564;40724,692;43,60065
 603,33;17835,416;  325,947;40591,378;43,48511
 603,91;17717,433;  316,792;40690,319;43,09913
 604,49;17685,850;  325,639;40747,602;42,94747
 605,07;17632,671;  334,871;40763,081;42,78646
 605,65;17577,761;  344,485;40908,668;42,48397
 606,23;17513,480;  405,950;41020,458;42,12172
 606,80;17484,366;  452,256;41017,360;41,98710
 607,38;17400,776;  493,638;41115,470;41,62082
 607,96;17310,714;  546,795;41162,646;41,27433
 608,54;17266,638;  594,101;41212,721;41,04654
 609,12;17110,357;  616,641;41306,666;40,53504
 609,70;17161,587;  644,793;41349,678;40,57693
 610,27;17064,691;  652,641;41295,814;40,38083
 610,85;16965,745;  660,024;41419,558;40,00468
 611,43;16869,818;  677,178;41371,614;39,79080
 612,01;16765,834;  640,871;41203,148;39,75359
 612,59;16688,103;  630,947;41214,166;39,56600
 613,16;16666,323;  606,026;41170,539;39,59199
 613,74;16469,945;  579,024;40990,914;39,32239
 614,32;16394,896;  540,408;41042,971;39,14441
 614,90;16347,880;  490,178;40866,286;39,27496
 615,48;16104,233;  452,487;40559,746;39,02472
 616,05;16059,364;  410,180;40471,966;39,06262
 616,63;15950,186;  401,104;40363,494;38,90929
 617,21;15786,669;  399,718;40268,994;38,59350
 617,79;15722,783;  387,333;40142,361;38,57487
 618,36;15581,087;  397,486;40069,057;38,27325
 618,94;15362,157;  336,410;39771,528;38,10245
 619,52;15172,123;  365,642;39429,093;37,90367
 620,10;15017,778;  354,487;39491,226;37,46682
 620,67;14911,023;  361,873;39350,492;37,31640
 621,25;14778,545;  372,409;39161,485;37,13967
 621,83;14623,103;  354,641;39088,347;36,83733
 622,41;14541,261;  391,026;39125,842;36,53105
 622,98;14336,457;  364,642;38758,549;36,39071
 623,56;14293,783;  365,181;38884,157;36,16036
 624,14;14156,700;  355,409;38728,291;35,96626
 624,72;14014,166;  341,718;38649,914;35,69066
 625,29;13927,543;  316,104;38666,309;35,49248
 625,87;13842,136;  360,641;38532,616;35,31778
 626,45;13707,103;  314,873;38446,873;35,12071
 627,02;13510,815;  335,256;38280,118;34,72291
 627,60;13480,403;  309,331;38281,586;34,68604
 628,18;13474,126;  300,795;38338,973;34,63187
 628,76;13403,390;  310,488;38379,025;34,39297
 629,33;13383,391;  323,334;38358,690;34,33662
 629,91;13232,393;  314,718;38329,687;33,98050
 630,49;13275,481;  344,488;38449,637;33,93503
 631,06;13206,191;  329,411;38535,475;33,70350
 631,64;13066,420;  330,488;38571,503;33,30438
 632,22;12986,328;  289,335;38453,021;33,26983
 632,79;13023,550;  314,489;38673,557;33,13183
 633,37;12927,816;  297,563;38843,835;32,76647
 633,95;13018,868;  304,873;38879,750;32,95926
 634,52;12990,668;  282,103;38992,354;32,82997
 635,10;12871,678;  293,872;39015,394;32,48273
 635,68;12863,274;  298,643;39256,610;32,25176
 636,25;12828,851;  287,567;39194,822;32,23379
 636,83;12839,851;  278,027;39495,718;32,03102
 637,41;12778,056;  282,258;39440,479;31,91105
 637,98;12808,400;  311,182;39708,412;31,72106
 638,56;12819,343;  313,182;39881,850;31,60622
 639,13;12769,792;  288,334;39933,633;31,48282
 639,71;12750,381;  304,950;40086,266;31,28461
 640,29;12555,551;  256,796;39748,763;31,14242
 640,86;12640,375;  264,949;40035,288;31,11722
 641,44;12506,814;  279,949;40050,505;30,74351
 642,02;12425,638;  299,488;40076,798;30,48509
 642,59;12467,462;  274,949;40148,861;30,57767
 643,17;12406,363;  281,334;40262,617;30,32676
 643,74;12270,649;  280,180;40240,603;30,00586
 644,32;12185,088;  297,872;40196,974;29,79319
 644,89;12163,759;  294,641;40164,421;29,76971
 645,47;12079,044;  303,641;40245,177;29,48160
 646,05;11951,715;  290,411;40090,932;29,29937
 646,62;11909,769;  289,641;40109,995;29,18138
 647,20;11907,286;  289,718;40289,058;29,04440
 647,77;11775,033;  265,487;40197,967;28,82252
 648,35;11655,703;  256,026;40034,107;28,65819
 648,92;11637,758;  298,949;40081,786;28,50176
 649,50;11520,967;  255,026;40013,310;28,33608
 650,08;11441,560;  261,410;39907,450;28,19991
 650,65;11428,769;  262,333;40059,590;28,05830
 651,23;11533,439;  243,564;40483,499;28,05639
 651,80;11744,340;  258,179;41612,870;27,77475
 652,38;11846,087;  261,872;42032,164;27,73314
 652,95;11899,988;  233,256;42436,227;27,64434
 653,53;11916,658;  276,564;42747,752;27,40704
 654,10;11986,713;  289,718;42884,815;27,46090
 654,68;11785,306;  250,641;42776,185;27,12409
 655,25;11784,284;  264,872;42974,018;26,97177
 655,83;11737,954;  245,179;43005,004;26,87751
 656,40;11714,932;  284,795;42952,990;26,78843
 656,98;11620,295;  253,179;42933,591;26,63310
 657,55;11537,273;  261,410;42895,270;26,44814
 658,13;11423,174;  252,641;42493,410;26,44491
 658,70;11325,690;  269,102;42348,011;26,27584
 659,28;11074,745;  260,640;41591,459;26,16475
 659,85;10741,723;  256,948;40543,599;26,02543
 660,43;10703,701;  275,948;40407,508;25,98392
 661,00;10617,525;  262,486;40634,879;25,64881
 661,58;10672,041;  249,794;40897,480;25,64044
 662,15;10576,250;  239,333;41179,928;25,24858
 662,73;10661,382;  299,948;41449,453;25,17997
 663,30;10624,821;  268,563;41664,977;25,01728
 663,88;10606,261;  270,948;41892,886;24,83141
 664,45;10585,315;  255,486;42090,257;24,69197
 665,03;10698,601;  264,717;42455,705;24,73012
 665,60;10766,271;  312,102;42942,152;24,52301
 666,17;10692,326;  271,255;43090,446;24,33738
 666,75;10706,919;  261,025;43340,663;24,24787
 667,32;10733,897;  289,948;43719,188;24,04820
 667,90;10725,721;  266,101;43996,712;23,91830
 668,47;10808,545;  294,640;44317,698;23,88272
 669,05;10777,216;  269,486;44670,762;23,66538
 669,62;10733,886;  245,178;44863,671;23,50753
 670,19;10692,402;  254,794;44851,888;23,40423
 670,77;10667,457;  265,793;45132,643;23,18341
 671,34;10667,050;  268,793;45023,860;23,23370
 671,92;10711,567;  253,947;45300,846;23,21496
 672,49;10639,391;  269,947;45421,294;22,96597
 673,06;10577,599;  224,024;45433,818;22,90118
 673,64;10540,654;  255,947;45416,958;22,77342
 674,21;10523,863;  237,255;45450,021;22,75156
 674,79;10505,149;  262,255;45639,007;22,57300
 675,36;10529,665;  276,947;45766,840;22,53845
 675,93;10380,720;  253,332;45623,903;22,32149
 676,51;10444,082;  281,870;45858,427;22,29702
 677,08;10375,983;  268,101;45891,952;22,15482
 677,65;10393,961;  263,947;45995,707;22,15094
 678,23;10387,247;  268,485;46231,924;22,01481
 678,80;10332,686;  257,101;46384,987;21,84272
 679,38;10357,203;  241,639;46510,358;21,86264
 679,95;10357,257;  267,485;46653,959;21,75154
 680,52;10428,543;  250,639;47027,638;21,75835
 681,10;10489,213;  270,331;47363,778;21,69916
 681,67;10497,499;  272,562;47716,918;21,55143
 682,24;10371,246;  236,254;47830,289;21,29467
 682,82;10505,685;  250,716;48266,736;21,35739
 683,39;10598,971;  279,331;48759,338;21,28638
 683,96;10610,334;  243,869;48931,478;21,29179
 684,54;10601,696;  237,408;49218,233;21,15989
 685,11;10615,828;  268,254;49710,835;20,92847
 685,68;10724,421;  255,023;50123,975;20,99382
 686,25;10702,937;  242,254;50130,576;20,96820
 686,83;10712,300;  243,715;50379,947;20,88028
 687,40;10745,047;  228,023;50759,471;20,81283
 687,97;10857,102;  276,331;51175,073;20,78788
 688,55;10863,388;  237,869;51281,367;20,81660
 689,12;10850,212;  225,254;51495,045;20,72362
 689,69;10868,959;  232,023;51621,339;20,69873
 690,26;10823,244;  242,869;51610,787;20,59724
 690,84;10821,761;  241,946;51917,080;20,47371
 691,41;10859,431;  250,638;51948,759;20,52065
 691,98;10922,717;  256,561;52306,822;20,49203
 692,56;10898,848;  235,253;52441,270;20,42599
 693,13;10920,672;  294,869;52495,871;20,35555
 693,70;10936,958;  274,176;52639,396;20,36234
 694,27;10890,244;  250,715;52769,689;20,25845
 694,84;10891,298;  243,561;52835,829;20,24582
 695,42;10937,661;  284,023;52996,892;20,21070
 695,99;10896,485;  250,099;53277,263;20,07723
 696,56;10883,155;  243,099;53121,557;20,12172
 697,13;10902,979;  264,022;53431,082;20,01043
 697,71;10918,111;  219,638;53449,529;20,09862
 698,28;10937,474;  251,253;53810,515;19,95214
 698,85;10938,605;  218,330;53892,809;19,97276
 699,42;10947,353;  225,715;54085,718;19,90649
 699,99;10941,330;  265,253;54175,781;19,80333
 700,57;10977,770;  265,868;54237,845;19,84715
 701,14;10947,748;  245,176;54338,754;19,78529
 701,71;10988,726;  249,330;54598,124;19,76014
 702,28;10916,627;  256,407;54509,418;19,64908
 702,85;10985,989;  258,484;54701,327;19,70416
 703,43;10986,429;  273,714;54993,775;19,57731
 704,00;11027,176;  279,483;55230,223;19,55878
 704,57;10971,077;  259,791;55148,209;19,51466
 705,14;11020,362;  288,330;55447,580;19,45645
 705,71;11001,571;  304,483;55488,950;19,38424
 706,28;10981,626;  265,714;55340,706;19,45695
 706,86;11096,912;  295,252;55697,307;19,49686
 707,43;11097,659;  310,022;55571,909;19,52093
 708,00;10996,944;  290,252;55628,818;19,34761
 708,57;10921,691;  268,098;55526,881;19,27946
 709,14;10996,823;  293,791;55719,329;19,31065
 709,71;11005,186;  276,560;55778,853;19,33006
 710,28;11033,010;  279,637;56054,301;19,28003
 710,86;11002,141;  291,175;56245,287;19,14241
 711,43;11098,812;  290,406;56174,812;19,34065
 712,00;11075,636;  274,637;56266,490;19,29030
 712,57;11137,768;  275,791;56451,861;19,33559
 713,14;11116,284;  262,252;56564,847;19,27803
 713,71;11091,800;  270,021;56355,602;19,29512
 714,28;11113,855;  257,560;56496,742;19,30379
 714,85;11054,371;  242,790;56285,498;19,29168
 715,42;11139,580;  253,098;56570,330;19,33064
 716,00;11222,558;  284,329;56620,008;19,41617
 716,57;11188,305;  247,636;56825,918;19,33722
 717,14;11204,822;  228,329;56662,134;19,45021
 717,71;11215,799;  227,636;56615,659;19,48670
 718,28;11299,931;  255,405;56809,337;19,52919
 718,85;11300,678;  227,252;56777,554;19,58155
 719,42;11391,426;  251,790;56956,925;19,64484
 719,99;11269,711;  222,405;56871,680;19,50123
 720,56;11378,151;  244,328;57079,282;19,58974
 721,13;11435,128;  243,867;57071,037;19,69351
 721,70;11403,183;  235,405;56982,716;19,67984
 722,27;11461,623;  254,867;57061,317;19,72796
 722,84;11533,139;  280,867;57280,842;19,74084
 723,41;11491,579;  234,251;57128,136;19,78653
 723,98;11522,633;  241,328;57476,276;19,71052
 724,55;11567,611;  262,328;57525,877;19,74255
 725,12;11510,589;  207,636;57460,709;19,74209
 725,69;11617,952;  237,020;57676,772;19,81368
 726,27;11564,007;  233,020;57737,989;19,70436
 726,84;11671,908;  240,636;58096,668;19,75813
 727,41;11676,809;  251,251;57917,039;19,81341
 727,98;11772,171;  263,020;58335,717;19,81852
 728,55;11754,918;  283,020;58212,549;19,80320
 729,12;11781,665;  230,328;58427,843;19,84851
 729,69;11801,105;  268,559;58545,983;19,78905
 730,26;11842,006;  275,251;58827,046;19,75474
 730,82;11829,907;  245,712;58534,955;19,87364
 731,39;11847,808;  244,097;58687,249;19,85470
 731,96;11994,940;  238,866;58878,312;20,04806
 732,53;12084,917;  269,251;59284,914;20,02124
 733,10;12134,895;  270,558;59342,284;20,08463
 733,67;12216,643;  277,097;59617,578;20,12041
 734,24;12177,620;  258,020;59095,872;20,25839
 734,81;12253,445;  285,097;59304,397;20,27870
 735,38;12251,345;  263,097;59005,075;20,40832
 735,95;12282,016;  264,789;58936,215;20,48225
 736,52;12315,686;  280,096;59168,663;20,43791
 737,09;12267,895;  276,635;58809,033;20,48653
 737,66;12422,257;  316,712;59152,712;20,57507
 738,23;12452,389;  248,866;59120,159;20,72916
 738,80;12619,444;  294,635;59379,761;20,85941
 739,37;12610,806;  293,866;59598,824;20,76882
 739,94;12651,092;  277,865;59713,887;20,81772
 740,51;12783,454;  326,250;59698,258;20,98161
 741,07;12756,740;  267,865;59637,475;21,03580
 741,64;12816,872;  288,404;59815,307;21,04673
 742,21;12867,696;  274,096;59962,755;21,09882
 742,78;12874,751;  246,327;59720,818;21,23334
 743,35;12925,729;  261,634;60063,265;21,17684
 743,92;13059,706;  301,942;60219,098;21,29234
 744,49;13080,223;  279,250;60013,084;21,43002
 745,06;13052,278;  268,250;60047,301;21,38546
 745,63;13063,409;  252,865;60047,902;21,42409
 746,19;13108,003;  258,942;59949,811;21,52601
 746,76;13101,596;  272,557;60104,413;21,44182
 747,33;13210,035;  253,865;60042,937;21,66980
 747,90;13293,860;  273,173;60244,770;21,71142
 748,47;13231,068;  286,096;60168,371;21,61737
 749,04;13295,969;  282,942;60151,204;21,73610
 749,61;13399,486;  291,480;60108,882;21,91336
 750,17;13433,617;  278,634;60286,176;21,92222
 750,74;13476,980;  284,557;60067,470;22,06721
 751,31;13457,035;  257,634;59969,763;22,10506
 751,88;13449,090;  244,788;59851,903;22,15222
 752,45;13553,221;  272,480;59977,505;22,24393
 753,02;13560,199;  267,557;59914,414;22,28557
 753,58;13577,792;  256,403;59677,939;22,41845
 754,15;13653,770;  268,326;59703,463;22,52110
 754,72;13568,979;  247,172;59566,834;22,45766
 755,29;13621,649;  243,634;59412,436;22,60991
 755,86;13763,704;  261,480;59606,268;22,75217
 756,42;13796,836;  268,710;59348,946;22,89789
 756,99;13823,968;  222,864;59379,317;22,99175
 757,56;13910,407;  245,787;59345,226;23,12140
 758,13;13880,770;  201,480;59297,366;23,14762
 758,70;14033,901;  227,326;59328,045;23,36110
 759,26;14085,418;  219,787;59508,569;23,38660
 759,83;14224,088;  217,249;59608,171;23,58414
 760,40;14272,681;  215,556;59569,618;23,68351
 760,97;14308,275;  191,941;59507,374;23,79875
 761,53;14320,099;  167,787;59097,206;24,01570
 762,10;14318,077;  188,864;59006,731;24,02197
 762,67;14464,054;  215,556;58978,563;24,24739
 763,24;14365,263;  171,864;58655,010;24,26921
 763,80;14476,703;  215,941;58695,920;24,38572
 764,37;14511,988;  221,633;58724,444;24,42678
 764,94;14471,197;  202,479;58223,661;24,59226
 765,50;14496,559;  200,941;58188,109;24,65307
 766,07;14633,768;  250,941;58312,403;24,77173
 766,64;14599,284;  222,402;57961,389;24,89978
 767,21;14589,493;  218,479;57850,759;24,93570
 767,77;14540,548;  245,017;57809,284;24,83404
 768,34;14650,910;  254,633;57720,039;25,05208
 768,91;14683,427;  249,171;57490,872;25,21633
 769,47;14719,251;  242,094;57610,550;25,23540
 770,04;14737,152;  264,094;57447,998;25,30967
 770,61;14652,668;  238,556;57207,445;25,30173
 771,18;14704,492;  229,017;57093,432;25,45612
 771,74;14825,086;  251,786;57403,264;25,49943
 772,31;14792,294;  254,632;57036,096;25,60283
 772,88;14781,888;  219,555;56781,313;25,74590
 773,44;14772,404;  231,325;56535,915;25,82574
 774,01;14940,305;  242,017;56679,516;26,04348
 774,58;14939,206;  224,786;56336,041;26,22365
 775,14;15026,184;  214,171;56509,181;26,31141
 775,71;15045,393;  233,863;56373,936;26,38317
 776,27;15186,217;  273,632;56323,307;26,60601
 776,84;15213,810;  278,171;56319,216;26,65125
 777,41;15248,557;  255,324;56158,587;26,81996
 777,97;15195,843;  248,324;55869,034;26,87402
 778,54;15271,128;  248,632;55862,944;27,01193
 779,11;15430,183;  258,170;55932,391;27,25141
 779,67;15472,546;  230,093;55868,993;27,39532
 780,24;15486,985;  253,863;55591,825;27,52744
 780,80;15596,117;  263,401;55479,273;27,76867
 781,37;15600,864;  252,939;55529,951;27,76547
 781,94;15644,226;  254,862;55312,629;27,95130
 782,50;15678,204;  256,170;55101,000;28,11939
 783,07;15818,567;  272,401;55288,525;28,25747
 783,63;15786,853;  230,247;55059,588;28,37278
 784,20;15842,600;  255,478;55068,112;28,43710
 784,77;15840,424;  249,401;54868,560;28,54497
 785,33;15887,094;  226,170;54638,085;28,78216
 785,90;15984,995;  246,554;54549,609;28,98261
 786,46;15975,204;  265,939;54460,518;28,98678
 787,03;16050,643;  237,016;54258,582;29,27280
 787,59;16064,775;  245,708;54143,568;29,35008
 788,16;16067,599;  241,785;54108,708;29,37947
 788,73;16143,961;  245,400;54001,078;29,57559
 789,29;16112,401;  241,631;53561,988;29,76494
 789,86;16255,763;  246,016;53556,281;30,03127
 790,42;16235,895;  255,093;53430,575;30,05295
 790,99;16141,565;  254,246;53023,484;30,10716
 791,55;16246,774;  236,016;53114,009;30,27868
 792,12;16312,137;  259,092;53020,149;30,42593
 792,68;16250,191;  239,939;52791,366;30,46588
 793,25;16313,015;  247,015;52456,275;30,77232
 793,81;16292,916;  277,400;52162,646;30,86719
 794,38;16194,279;  221,708;51920,940;30,89518
 794,94;16209,257;  227,323;51778,464;31,00210
 795,51;16260,389;  243,708;51502,220;31,24687
 796,07;16248,520;  253,015;51154,283;31,42457
 796,64;16313,960;  272,477;51359,653;31,40021
 797,20;16221,245;  240,938;50841,024;31,58158
 797,77;16206,070;  231,246;50515,472;31,76906
 798,33;16190,201;  230,861;50318,612;31,86276
 798,90;16287,025;  267,554;50350,290;31,98602
 799,46;16237,157;  243,092;49905,892;32,20532
 800,03;16241,212;  251,246;49702,570;32,33476
 800,59;16401,651;  264,246;49447,556;32,81073
 801,15;16406,245;  256,169;49249,696;32,96369
 801,72;16298,223;  253,246;48855,452;33,01286
 802,28;16319,970;  285,707;48559,976;33,21493
 802,85;16237,563;  252,861;48411,885;33,19150
 803,41;16246,156;  252,553;48186,025;33,36625
 803,98;16229,673;  238,861;47748,858;33,65778
 804,54;16230,112;  241,938;47473,921;33,85031
 805,11;16274,013;  251,168;47388,676;33,99171
 805,67;16304,530;  264,322;47262,739;34,12925
 806,23;16254,430;  257,015;46777,571;34,38784
 806,80;16305,870;  271,091;46658,327;34,56722
 807,36;16271,848;  276,399;46582,928;34,54253
 807,93;16262,441;  277,322;46312,914;34,72339
 808,49;16212,881;  234,784;45881,900;35,00352
 809,05;16182,859;  223,399;45730,810;35,07002
 809,62;16234,529;  256,707;45606,565;35,23235
 810,18;16361,660;  257,399;45514,320;35,58409
 810,74;16235,869;  234,322;45219,614;35,57062
 811,31;16225,693;  232,553;44936,677;35,77554
 811,87;16222,979;  234,860;44874,894;35,81565
 812,44;16354,264;  272,783;44842,726;36,08145
 813,00;16235,396;  212,168;44537,251;36,14935
 813,56;16389,989;  244,552;44600,699;36,39955
 814,13;16396,814;  239,937;44506,223;36,49928
 814,69;16308,868;  247,860;44407,440;36,37038
 815,25;16251,692;  219,245;43855,965;36,74073
 815,82;16263,055;  256,783;43796,335;36,76260
 816,38;16284,341;  262,783;43605,706;36,96464
 816,94;16116,703;  220,245;43263,154;36,93165
 817,51;16184,296;  215,629;43108,832;37,22890
 818,07;16088,505;  223,091;42865,588;37,20564
 818,63;16051,175;  240,398;42571,497;37,35026
 819,20;16132,846;  235,398;42559,791;37,56096
 819,76;16040,285;  223,552;42053,854;37,81166
 820,32;16033,571;  272,244;42024,378;37,74975
 820,89;15979,779;  255,167;41769,980;37,87711
 821,45;16014,834;  234,475;41470,120;38,26873
 822,01;15957,735;  249,629;41212,490;38,34719
 822,57;15923,790;  259,783;41085,092;38,36837
 823,14;15895,076;  225,475;40882,693;38,54076
 823,70;15888,130;  218,706;40583,218;38,81980
 824,26;15918,877;  228,936;40340,127;39,11612
 824,82;16012,548;  252,552;40181,883;39,46972
 825,39;15856,910;  227,859;39873,023;39,42234
 825,95;15968,504;  256,398;39937,778;39,59566
 826,51;15916,481;  249,552;39501,918;39,91334
 827,08;15976,613;  270,244;39705,827;39,82791
 827,64;15985,130;  260,936;39398,275;40,17696
 828,20;15946,415;  233,859;39124,799;40,40158
 828,76;16047,316;  245,474;39040,478;40,73164
 829,32;16041,756;  254,321;38899,233;40,85256
 829,89;16091,657;  212,321;38687,604;41,27152
 830,45;16140,096;  229,936;38682,359;41,37622
 831,01;16186,074;  221,936;38457,576;41,75198
 831,57;16208,744;  234,628;38340,178;41,92071
 832,14;16218,261;  231,167;38418,087;41,86537
 832,70;16153,777;  232,705;38101,304;42,04294
 833,26;16171,986;  220,320;37979,213;42,24612
 833,82;16274,194;  230,705;37849,122;42,64796
 834,38;16371,172;  225,320;37884,954;42,87310
 834,95;16313,304;  213,936;37765,633;42,87255
 835,51;16394,128;  192,166;37620,619;43,28782
 836,07;16481,337;  232,859;37709,990;43,35571
 836,63;16552,007;  244,320;37710,437;43,52649
 837,19;16564,062;  231,782;37494,116;43,83053
 837,75;16489,809;  204,012;37174,563;44,05073
 838,32;16680,171;  244,935;37201,473;44,47180
 838,88;16722,765;  252,320;37381,074;44,36035
 839,44;16783,896;  237,243;37208,445;44,75552
 840,00;16729,874;  233,551;37106,585;44,73818
 840,56;16712,237;  210,089;36842,340;45,04814
 841,12;16787,907;  211,474;36801,326;45,30336
 841,68;16688,270;  209,012;36654,851;45,21575
 842,25;16742,248;  217,320;36602,222;45,41699
 842,81;16717,149;  215,012;36276,054;45,76167
 843,37;16709,742;  205,704;36358,963;45,65021
 843,93;16788,797;  223,320;36140,565;46,12124
 844,49;16810,005;  230,396;36145,859;46,16287
 845,05;16744,445;  204,089;36008,460;46,19647
 845,61;16930,577;  240,858;36106,831;46,53357
 846,17;16854,170;  225,781;35977,586;46,51063
 846,73;16983,609;  228,396;35902,495;46,96745
 847,29;16921,203;  204,012;35749,866;47,02993
 847,86;16955,950;  213,242;35627,083;47,27730
 848,42;16997,081;  204,858;35443,531;47,65283
 848,98;16997,598;  219,704;35396,055;47,69652
 849,54;17086,037;  211,242;35299,195;48,09285
 850,10;17146,092;  226,627;35297,489;48,24365
 850,66;17085,455;  202,088;35152,090;48,30720
 851,22;17201,202;  196,627;35074,461;48,75468
 851,78;17268,410;  250,242;35120,447;48,80433
 852,34;17293,388;  227,011;34792,126;49,37457
 852,90;17270,674;  210,165;34638,420;49,55380
 853,46;17227,498;  207,703;34422,483;49,74399
 854,02;17300,322;  222,473;34570,776;49,71963
 854,58;17238,069;  206,550;34248,070;50,03161
 855,14;17243,586;  188,088;34113,672;50,27326
 855,70;17276,256;  181,088;34010,119;50,53402
 856,26;17362,234;  230,857;33985,413;50,75278
 856,82;17303,289;  211,011;33795,476;50,89340
 857,38;17302,190;  232,780;33755,001;50,91969
 857,94;17400,783;  223,318;33563,141;51,52236
 858,50;17340,992;  227,472;33468,435;51,48322
 859,06;17306,739;  212,857;33216,113;51,79453
 859,62;17325,101;  238,165;33200,638;51,83754
 860,18;17154,233;  211,703;32975,239;51,71154
 860,74;17263,442;  191,164;32877,995;52,22983
 861,30;17249,112;  198,703;32637,750;52,56137
 861,86;17366,936;  234,241;32729,967;52,72292
 862,42;17334,606;  211,241;32530,722;52,98156
 862,98;17413,430;  233,549;32460,324;53,30934
 863,54;17268,716;  232,703;32223,233;53,25330
 864,10;17424,309;  218,780;32280,296;53,66412
 864,66;17366,056;  197,164;32030,436;53,93380
 865,22;17370,957;  218,395;31993,114;53,98179
 865,78;17376,858;  226,164;31765,024;54,37956
 866,34;17446,990;  217,549;31711,471;54,70719
 866,90;17420,353;  224,010;31595,842;54,81459
 867,45;17345,023;  234,779;31383,982;54,92996
 868,01;17365,001;  225,010;31204,122;55,32757
 868,57;17309,825;  220,856;30995,954;55,52856
 869,13;17283,803;  209,933;30903,633;55,62663
 869,69;17336,011;  210,702;30762,849;56,05272
 870,25;17270,605;  195,010;30629,220;56,10658
 870,81;17326,813;  223,625;30592,745;56,31769
 871,37;17290,868;  225,087;30508,423;56,35370
 871,93;17309,538;  240,317;30317,409;56,75157
 872,49;17228,132;  224,779;30062,395;56,98630
 873,04;17136,956;  209,471;29764,382;57,27469
 873,60;17151,934;  195,702;29773,906;57,32678
 874,16;17148,912;  228,471;29725,815;57,36259
 874,72;17138,604;  209,394;29565,508;57,66843
 875,28;17141,604;  227,240;29508,892;57,76438
 875,84;17213,988;  215,625;29468,508;58,10834
 876,40;17182,681;  221,163;29483,277;57,96409
 876,95;17293,604;  228,779;29318,585;58,66256
 877,51;17377,527;  241,625;29324,046;58,92185
 878,07;17403,219;  256,240;29308,892;59,02036
 878,63;17419,912;  221,702;29386,123;58,96983
 879,19;17561,296;  236,317;29306,892;59,59627
 879,75;17635,604;  231,317;29315,585;59,84090
 880,30;17755,142;  218,010;29349,738;60,19942
 880,86;17903,527;  260,933;29409,200;60,52708
 881,42;17930,065;  217,240;29516,585;60,45468
 881,98;18022,142;  230,702;29638,585;60,49888
 882,54;18218,835;  214,394;29673,585;61,11655
 883,09;18355,681;  239,779;29802,200;61,28017
 883,65;18439,988;  208,317;29926,815;61,34789
 884,21;18580,373;  241,702;30083,892;61,45216
 884,77;18632,912;  218,471;30170,277;61,48023
 885,32;18847,219;  213,240;30367,662;61,79518
 885,88;18946,142;  256,702;30528,354;61,73908
 886,44;19066,681;  226,394;30561,277;62,10766
 887,00;19175,373;  239,856;30602,200;62,36514
 887,56;19374,450;  223,163;30764,969;62,70515
 888,11;19471,681;  210,317;30778,815;63,01050
 888,67;19551,912;  252,317;31034,662;62,69696
 889,23;19675,681;  237,471;31000,738;63,18643
 889,79;19647,065;  212,702;30827,354;63,48060
 890,34;19706,065;  218,702;30761,738;63,80297
 890,90;19911,065;  276,702;31002,738;63,90139
 891,46;19883,758;  214,625;30871,892;64,15814
 892,01;19939,758;  241,317;30809,123;64,44179
 892,57;20034,142;  249,317;30782,046;64,79874
 893,13;20062,219;  211,471;30613,508;65,29414
 893,69;20144,758;  211,548;30430,200;65,96327
 894,24;20143,912;  224,471;30329,738;66,16596
 894,80;20172,988;  227,702;30158,200;66,63867
 895,36;20168,065;  225,394;30082,200;66,79439
 895,91;20153,527;  223,856;29868,815;67,22786
 896,47;20175,065;  225,548;29737,815;67,59737
 897,03;20189,988;  215,394;29583,431;68,01474
 897,58;20137,988;  230,087;29458,969;68,11038
 898,14;20013,758;  234,163;29259,354;68,14630
 898,70;19934,373;  203,548;29083,277;68,32067
 899,25;20061,219;  218,240;29094,815;68,71652
 899,81;20010,142;  238,702;28850,123;69,10331
 900,37;19947,912;  202,471;28737,200;69,19793
 900,92;19991,296;  223,317;28698,892;69,42082
 901,48;19947,065;  218,087;28523,277;69,70092
 902,03;19821,835;  210,010;28373,277;69,63619
 902,59;19871,988;  215,394;28163,969;70,33129
 903,15;19852,450;  235,317;28146,277;70,28469
 903,70;19580,835;  234,163;27831,431;70,10358
 904,26;19604,296;  207,010;27701,046;70,55089
 904,82;19672,912;  216,856;27670,200;70,86953
 905,37;19645,065;  218,010;27592,354;70,96811
 905,93;19543,604;  218,625;27372,892;71,16737
 906,48;19617,142;  227,548;27292,123;71,64197
 907,04;19630,142;  232,317;27288,046;71,69581
 907,60;19550,065;  207,010;26962,738;72,29501
 908,15;19510,988;  206,087;26884,431;72,36169
 908,71;19537,450;  240,087;26822,508;72,59445
 909,26;19500,065;  211,471;26718,431;72,76804
 909,82;19537,373;  234,625;26520,431;73,43411
 910,37;19550,681;  255,010;26494,738;73,53609
 910,93;19466,219;  204,702;26271,815;73,89202
 911,48;19368,296;  205,933;26016,431;74,24252
 912,04;19325,142;  208,779;25987,969;74,15424
 912,60;19437,681;  217,779;25989,431;74,57769
 913,15;19393,758;  222,548;25880,969;74,71703
 913,71;19286,604;  204,702;25663,738;74,95139
 914,26;19291,296;  196,548;25538,354;75,34881
 914,82;19370,527;  218,317;25452,431;75,89809
 915,37;19370,450;  205,779;25397,431;76,07548
 915,93;19443,450;  239,010;25291,969;76,65538
 916,48;19336,142;  205,394;25086,431;76,88887
 917,04;19391,527;  228,702;25025,585;77,27917
 917,59;19332,065;  237,010;24963,046;77,22651
 918,15;19242,219;  187,548;24694,738;77,75135
 918,70;19276,527;  216,163;24653,738;77,99613
 919,26;19261,065;  216,702;24573,815;78,18810
 919,81;19145,835;  205,856;24446,277;78,13387
 920,37;19206,604;  212,625;24303,200;78,84402
 920,92;19149,912;  234,010;24199,200;78,93074
 921,48;19121,835;  203,317;23943,046;79,69138
 922,03;19086,988;  214,471;23948,123;79,51797
 922,59;19088,296;  201,779;23805,892;80,01367
 923,14;19102,758;  198,240;23665,046;80,55855
 923,69;19037,219;  228,625;23581,354;80,54131
 924,25;19186,450;  232,779;23595,508;81,12781
 924,80;18951,758;  216,087;23307,585;81,13666
 925,36;18965,450;  209,163;23299,892;81,22865
 925,91;18881,296;  211,856;23093,892;81,58994
 926,47;18853,296;  187,625;23053,046;81,63275
 927,02;18839,835;  232,010;22928,046;81,98711
 927,57;18800,450;  217,933;22757,200;82,44508
 928,13;18823,373;  203,625;22745,738;82,59983
 928,68;18812,527;  208,702;22598,431;83,09089
 929,24;18671,527;  185,163;22383,046;83,27985
 929,79;18586,450;  199,471;22287,200;83,24522
 930,34;18490,681;  209,163;22196,123;83,14709
 930,90;18504,835;  195,548;22095,815;83,60303
 931,45;18557,758;  212,394;22056,738;83,98221
 932,01;18472,988;  218,394;21929,354;84,08009
 932,56;18417,912;  227,779;21786,969;84,37299
 933,11;18449,604;  226,471;21769,662;84,58883
 933,67;18301,373;  203,240;21552,585;84,77138
 934,22;18318,527;  212,087;21467,354;85,18566
 934,77;18300,373;  226,163;21440,046;85,19991
 935,33;18170,604;  223,779;21228,431;85,44214
 935,88;18177,450;  215,317;21155,200;85,77953
 936,43;18174,912;  197,394;21104,200;85,98883
 936,99;18155,142;  212,394;20907,277;86,70138
 937,54;18002,527;  194,010;20763,431;86,57763
 938,09;17989,296;  214,394;20733,123;86,62770
 938,65;17985,681;  213,779;20592,354;87,20876
 939,20;17908,065;  194,163;20559,354;86,98127
 939,75;17937,296;  198,163;20358,200;87,99157
 940,31;17847,296;  182,087;20308,969;87,76923
 940,86;17916,988;  219,702;20218,046;88,49376
 941,41;17769,065;  256,394;20175,354;87,91961
 941,96;17719,219;  203,471;20056,662;88,22636
 942,52;17624,912;  214,394;20002,738;87,98370
 943,07;17546,373;  190,163;19846,431;88,29860
 943,62;17500,988;  202,240;19760,585;88,44689
 944,18;17437,219;  196,548;19663,969;88,56166
 944,73;17475,835;  207,087;19558,046;89,23975
 945,28;17256,296;  181,702;19285,046;89,38013
 945,83;17307,450;  199,240;19313,662;89,50420
 946,39;17434,450;  202,856;19304,508;90,20997
 946,94;17334,450;  230,548;19179,123;90,26485
 947,49;17330,912;  200,163;19056,277;90,84984
 948,04;17301,219;  219,010;19013,508;90,88942
 948,59;17220,219;  227,317;18957,354;90,72541
 949,15;17226,219;  188,394;18849,277;91,30235
 949,70;17187,065;  194,933;18773,738;91,45977
 950,25;17139,450;  226,779;18670,892;91,69685
 950,80;17166,373;  171,625;18547,046;92,48631
 951,36;17011,527;  177,010;18350,046;92,63459
 951,91;17092,912;  223,087;18425,200;92,68058
 952,46;16997,604;  183,933;18200,738;93,32215
 953,01;17088,604;  222,856;18321,277;93,18906
 953,56;16942,988;  177,702;18106,662;93,50953
 954,11;16995,758;  216,087;18032,892;94,17890
 954,67;16867,604;  198,779;17954,969;93,87613
 955,22;16771,142;  180,779;17802,431;94,14761
 955,77;16793,450;  221,625;17822,969;94,15091
 956,32;16810,758;  243,010;17689,354;94,96401
 956,87;16593,142;  188,702;17499,585;94,76374
 957,42;16633,450;  204,471;17490,123;95,04402
 957,98;16578,988;  195,240;17383,354;95,32022
 958,53;16577,527;  222,471;17341,969;95,53467
 959,08;16514,142;  194,163;17226,815;95,81584
 959,63;16443,142;  192,087;17128,123;95,95548
 960,18;16396,142;  215,163;17113,277;95,75613
 960,73;16400,988;  205,010;17021,277;96,31138
 961,28;16320,527;  186,933;16850,815;96,81774
 961,83;16297,835;  213,087;16829,277;96,80166
 962,39;16178,450;  189,856;16719,508;96,72674
 962,94;16073,835;  223,317;16656,815;96,45249
 963,49;16023,065;  203,087;16471,662;97,24256
 964,04;16014,527;  215,317;16481,508;97,12913
 964,59;15971,065;  180,087;16306,892;97,91759
 965,14;15971,681;  213,471;16273,200;98,12251
 965,69;15820,065;  204,702;16118,046;98,12748
 966,24;15775,219;  208,548;16067,354;98,15790
 966,79;15763,296;  213,856;15941,662;98,86592
 967,34;15621,835;  178,087;15834,046;98,64453
 967,89;15663,527;  189,317;15766,508;99,33890
 968,44;15555,912;  211,394;15739,123;98,82010
 968,99;15586,142;  212,163;15617,277;99,79789
 969,55;15545,219;  209,856;15543,585;100,01066
 970,10;15460,527;  210,625;15387,354;100,48214
 970,65;15453,604;  214,933;15328,815;100,82565
 971,20;15351,604;  203,471;15221,892;100,86368
 971,75;15297,835;  189,548;15016,892;101,89476
 972,30;15336,912;  202,779;14988,354;102,35742
 972,85;15304,988;  203,548;14955,662;102,36798
 973,40;15136,604;  195,702;14768,354;102,52699
 973,95;15156,604;  206,779;14719,200;103,01400
 974,50;15120,835;  223,394;14604,046;103,59364
 975,05;15066,527;  220,779;14528,277;103,76201
 975,60;15007,219;  225,779;14499,892;103,55417
 976,15;14950,988;  215,394;14385,815;103,98840
 976,70;14859,065;  213,163;14295,585;104,00131
 977,25;14892,758;  208,779;14246,431;104,60424
 977,80;14772,604;  199,933;14070,969;105,05827
 978,35;14540,450;  215,163;13921,200;104,51808
 978,89;14480,527;  196,010;13858,892;104,54981
 979,44;14464,835;  205,317;13801,046;104,88233
 979,99;14309,373;  193,625;13576,815;105,47371
 980,54;14226,604;  235,779;13537,431;105,18111
 981,09;14189,835;  218,779;13386,431;106,10134
 981,64;14065,835;  216,471;13246,123;106,29112
 982,19;13951,527;  248,240;13218,815;105,64903
 982,74;13921,912;  226,702;13068,892;106,64232
 983,29;13722,527;  195,240;12960,431;105,97011
 983,84;13664,527;  212,856;12819,046;106,70687
 984,39;13678,835;  247,471;12780,277;107,16965
 984,94;13554,296;  190,471;12605,277;107,64425
 985,49;13471,988;  229,010;12594,200;107,09887
 986,03;13404,296;  240,856;12523,431;107,17167
 986,58;13297,219;  246,240;12336,354;107,94753
 987,13;13214,373;  218,240;12182,662;108,62316
 987,68;13174,450;  230,163;12091,585;109,12931
 988,23;13132,758;  229,933;12044,508;109,21108
 988,78;12987,142;  214,317;11896,508;109,33587
 989,33;12910,912;  228,471;11790,969;109,68599
 989,88;12945,912;  235,394;11768,508;110,20890
 990,42;12800,912;  219,625;11560,354;110,93896
 990,97;12725,296;  216,856;11451,354;111,33956
 991,52;12663,604;  239,779;11399,585;111,32653
 992,07;12620,450;  244,394;11279,277;112,15394
 992,62;12558,527;  230,163;11193,431;112,45154
 993,17;12455,912;  230,471;11045,662;113,03953
 993,71;12387,527;  222,471;10962,046;113,27316
 994,26;12231,219;  199,471;10790,431;113,60395
 994,81;12270,373;  232,779;10751,969;114,43461
 995,36;12092,219;  218,702;10593,046;114,45077
 995,91;12022,527;  223,317;10579,277;113,93642
 996,45;11932,604;  228,548;10423,046;114,80757
 997,00;11858,835;  199,471;10229,431;116,24537
 997,55;11806,219;  216,702;10290,815;115,04255
 998,10;11719,142;  247,317;10106,662;116,35485
 998,65;11629,681;  218,779;10045,662;116,11924
 999,19;11480,681;  237,317; 9846,277;117,00917
 999,74;11391,219;  252,779; 9788,892;116,80273
1000,29;11336,604;  227,933; 9701,815;117,25574
1000,84;11143,065;  216,317; 9565,969;116,86797
1001,38;11106,604;  220,702; 9439,508;118,08365
1001,93;11052,835;  237,087; 9388,585;118,18555
1002,48;10918,835;  203,087; 9251,662;118,42470
1003,03;10811,758;  221,856; 9196,969;117,99184
1003,57;10721,373;  231,087; 9100,738;118,27168
1004,12;10611,988;  245,010; 8986,123;118,60021
1004,67;10483,835;  214,779; 8895,277;118,30031
1005,22;10258,604;  210,933; 8746,969;117,70886
1005,76;10146,296;  205,548; 8598,431;118,44260
1006,31;10079,450;  242,625; 8582,508;117,94920
1006,86; 9989,835;  211,010; 8482,738;118,21984
1007,40; 9860,065;  196,471; 8278,046;119,57563
1007,95; 9812,219;  215,163; 8231,277;119,72206
1008,50; 9634,988;  218,933; 8077,508;119,81887
1009,04; 9574,142;  225,625; 8005,123;120,16864
1009,59; 9400,450;  231,625; 7830,585;120,65895
1010,14; 9284,681;  211,471; 7737,277;120,56130
1010,68; 9225,758;  219,087; 7635,585;121,44102
1011,23; 9106,142;  200,548; 7480,662;122,32768
1011,78; 9003,450;  229,856; 7416,508;122,08180
1012,32; 8874,604;  217,240; 7308,738;122,08088
1012,87; 8846,988;  244,933; 7266,738;122,50489
1013,42; 8659,835;  209,240; 7137,046;121,98082
1013,96; 8661,142;  242,163; 7109,815;122,58890
1014,51; 8601,604;  195,779; 6996,431;123,60322
1015,06; 8623,296;  196,471; 7019,431;123,50689
1015,60; 8686,988;  260,702; 7074,738;123,66072
1016,15; 8637,912;  215,394; 7027,354;123,64309
1016,69; 8741,296;  210,702; 7032,892;125,04187
1017,24; 8756,604;  201,625; 7041,277;125,07916
1017,79; 8812,604;  236,625; 7133,046;124,35405
1018,33; 8765,758;  196,856; 7086,431;124,37490
1018,88; 8989,988;  217,856; 7119,123;127,10901
1019,42; 9022,373;  221,625; 7189,431;126,30588
1019,97; 8987,373;  212,010; 7144,431;126,58440
1020,51; 9134,988;  216,317; 7204,585;127,62350
1021,06; 9144,065;  211,240; 7194,277;127,92179
1021,61; 9104,681;  190,087; 7111,277;128,80146
1022,15; 9087,065;  171,856; 7116,969;128,36665
1022,70; 9152,681;  215,856; 7101,815;129,78329
1023,24; 9080,758;  204,548; 7089,123;128,92894
1023,79; 9082,758;  220,163; 7016,892;130,39499
1024,33; 9055,604;  218,087; 7014,508;130,03193
1024,88; 8945,758;  219,240; 6898,200;130,65684
1025,42; 8848,219;  201,779; 6767,585;131,68895
1025,97; 8687,758;  203,933; 6709,815;130,40237
1026,51; 8592,758;  173,087; 6576,123;131,49497
1027,06; 8512,373;  209,317; 6514,508;131,68604
1027,60; 8363,527;  207,702; 6401,508;131,67712
1028,15; 8299,219;  221,087; 6325,200;132,33916
1028,69; 8068,142;  174,317; 6191,277;131,19292
1029,24; 8024,681;  207,933; 6127,738;132,04400
1029,78; 7866,527;  205,779; 6030,892;131,51243
1030,33; 7706,912;  177,933; 5875,969;132,13286
1030,87; 7649,835;  206,471; 5843,354;132,04751
1031,42; 7553,450;  194,933; 5743,123;132,62914
1031,96; 7457,912;  212,317; 5674,431;132,65184
1032,51; 7353,912;  199,317; 5561,277;133,43245
1033,05; 7217,373;  208,163; 5559,431;130,98224
1033,60; 7059,296;  174,933; 5420,508;131,24135
1034,14; 7034,373;  199,933; 5322,815;133,41005
1034,69; 6977,835;  199,317; 5278,585;133,45463
1035,23; 6840,065;  204,702; 5203,662;132,73489
1035,77; 6741,373;  196,087; 5102,969;133,38991
1036,32; 6637,373;  180,779; 5061,277;132,29376
1036,86; 6547,912;  198,163; 5007,200;132,03784
1037,41; 6477,758;  204,625; 4916,046;133,14736
1037,95; 6413,681;  183,933; 4840,200;133,79275
1038,50; 6350,373;  196,240; 4790,200;133,96140
1039,04; 6317,681;  203,779; 4734,585;134,94072
1039,58; 6141,912;  192,010; 4634,892;133,91985
1040,13; 6098,912;  201,471; 4572,431;134,92324
1040,67; 6067,296;  223,394; 4554,431;134,93079
1041,21; 5985,450;  228,317; 4467,892;135,79504
1041,76; 5843,450;  176,471; 4386,431;134,60886
1042,30; 5828,912;  210,471; 4333,738;136,26185
1042,85; 5728,373;  207,856; 4276,046;135,69958
1043,39; 5671,065;  190,010; 4189,123;137,05677
1043,93; 5588,065;  217,394; 4146,431;136,69181
1044,48; 5500,065;  205,548; 4087,123;136,40126
1045,02; 5420,373;  202,856; 4031,046;136,29200
1045,56; 5374,604;  210,548; 3970,969;137,32653
1046,11; 5324,912;  210,394; 3918,277;137,93633
1046,65; 5228,296;  208,779; 3887,123;136,46133
1047,19; 5154,450;  198,779; 3772,354;138,67545
1047,74; 5078,835;  182,856; 3709,354;138,83401
1048,28; 5036,758;  210,779; 3699,123;138,34583
1048,82; 4972,758;  222,625; 3665,508;137,96964
1049,37; 4921,604;  205,240; 3596,738;139,06431
1049,91; 4841,065;  197,548; 3556,892;138,22690
1050,45; 4815,065;  228,317; 3497,738;140,29236
1050,99; 4724,373;  207,856; 3457,277;138,99452
1051,54; 4625,912;  196,933; 3406,969;137,97285
1052,08; 4596,373;  215,010; 3390,508;137,97405
1052,62; 4525,604;  221,548; 3324,277;138,71840
1053,16; 4461,988;  192,702; 3260,046;139,18511
1053,71; 4433,142;  215,856; 3214,123;140,65746
1054,25; 4333,758;  223,779; 3169,892;139,50511
1054,79; 4296,450;  211,933; 3115,354;140,67946
1055,33; 4208,681;  183,163; 3065,123;139,67987
1055,88; 4201,912;  227,317; 3055,123;140,55400
1056,42; 4159,681;  234,702; 3005,662;141,64692
1056,96; 4078,835;  221,240; 2946,508;141,54921
1057,50; 3997,450;  201,240; 2901,738;140,57442
1058,05; 3937,604;  212,625; 2862,354;140,57962
1058,59; 3889,912;  228,163; 2863,431;138,95168
1059,13; 3847,988;  196,163; 2778,892;141,39405
1059,67; 3786,681;  229,163; 2767,354;140,15959
1060,21; 3742,604;  218,240; 2707,815;141,56486
1060,76; 3703,219;  221,779; 2650,815;143,32598
1061,30; 3683,373;  232,010; 2631,815;143,81845
1061,84; 3609,835;  211,471; 2589,585;142,90165
1062,38; 3504,912;  205,317; 2537,738;141,46649
1062,92; 3530,604;  243,317; 2551,277;142,43258
1063,46; 3492,219;  229,933; 2483,585;144,75556
1064,01; 3408,219;  208,317; 2434,892;143,71409
1064,55; 3385,835;  217,163; 2405,431;144,80275
1065,09; 3306,681;  186,779; 2359,815;143,57338
1065,63; 3319,681;  232,471; 2386,508;143,32206
1066,17; 3288,142;  234,010; 2342,508;144,84873
1066,71; 3236,912;  230,087; 2316,969;144,08213
1067,25; 3195,373;  212,471; 2262,969;145,47207
1067,80; 3164,450;  233,163; 2246,123;145,62073
1068,34; 3132,604;  237,471; 2246,585;144,10001
1068,88; 3057,835;  213,087; 2162,431;145,93359
1069,42; 3057,219;  248,779; 2180,585;145,37902
1069,96; 2981,758;  218,625; 2115,738;145,64931
1070,50; 2996,912;  245,317; 2124,123;146,45443
1071,04; 2899,450;  212,394; 2064,354;145,09257
1071,58; 2891,219;  221,548; 2029,123;147,69352
1072,12; 2833,912;  212,625; 2019,892;145,04144
1072,66; 2851,681;  211,240; 1998,354;147,74889
1073,21; 2819,758;  230,163; 2000,738;146,25725
1073,75; 2791,988;  223,163; 1961,585;147,76770
1074,29; 2729,681;  230,087; 1930,277;147,01849
1074,83; 2718,758;  228,163; 1910,046;148,08371
1075,37; 2685,604;  226,856; 1907,508;146,29728
1075,91; 2648,219;  233,240; 1899,738;144,91339
1076,45; 2623,373;  229,317; 1849,662;147,74983
1076,99; 2549,681;  222,933; 1827,431;145,01408
1077,53; 2507,604;  207,625; 1766,200;147,56934
1078,07; 2538,450;  232,933; 1774,738;149,53358
1078,61; 2480,681;  223,087; 1751,123;147,74478
1079,15; 2441,373;  220,548; 1742,431;145,92616
1079,69; 2438,450;  234,933; 1710,200;149,36394
1080,23; 2427,988;  232,240; 1702,046;149,39036
1080,77; 2411,681;  252,240; 1702,354;148,91527
1081,31; 2340,142;  217,240; 1635,969;149,63408
1081,85; 2341,296;  233,240; 1652,508;148,53127
1082,39; 2275,835;  221,394; 1597,354;149,30964
1082,93; 2277,296;  216,010; 1611,892;147,66904
1083,47; 2229,296;  207,625; 1568,123;148,59787
1084,01; 2215,450;  236,625; 1576,046;147,73733
1084,55; 2182,373;  216,163; 1516,738;151,18003
1085,09; 2184,681;  227,317; 1543,277;148,74039
1085,63; 2143,450;  219,394; 1525,662;147,29418
1086,17; 2119,527;  213,394; 1487,892;149,55948
1086,71; 2070,065;  214,087; 1471,277;147,62910
1087,24; 2082,988;  237,625; 1468,662;149,90322
1087,78; 2055,450;  235,702; 1460,662;148,55576
1088,32; 2004,912;  221,548; 1420,662;148,72350
1088,86; 2002,219;  241,702; 1424,508;148,84247
1089,40; 1946,604;  226,779; 1386,431;148,30528
1089,94; 1937,835;  193,702; 1343,815;151,64875
1090,48; 1909,450;  233,779; 1347,969;150,39361
1091,02; 1901,450;  229,933; 1353,431;148,77794
1091,56; 1878,450;  238,702; 1347,277;147,91494
1092,10; 1823,758;  207,240; 1278,892;150,84350
1092,63; 1831,527;  235,317; 1306,662;148,99129
1093,17; 1822,296;  223,625; 1280,969;151,19685
1093,71; 1786,835;  211,548; 1279,815;147,46183
1094,25; 1781,835;  246,010; 1260,662;151,36472
1094,79; 1744,835;  223,163; 1235,123;150,36876
1095,33; 1717,065;  229,394; 1229,585;148,73880
1095,87; 1714,065;  223,471; 1204,508;151,94075
1096,40; 1656,912;  200,548; 1177,277;149,10622
1096,94; 1661,065;  220,087; 1190,508;148,49005
1097,48; 1640,912;  224,240; 1172,354;149,42000
1098,02; 1627,296;  222,087; 1139,277;153,20806
1098,56; 1562,296;  200,548; 1117,354;148,53180
1099,10; 1575,988;  202,933; 1101,892;152,73832
1099,63; 1560,988;  211,933; 1091,969;153,29543
1100,17; 1551,450;  228,471; 1098,431;152,07359
1100,71; 1555,681;  240,779; 1111,508;151,01164

