
Integration time [ms]: 115,000
Averaging Nr. [scans]: 13
Smoothing Nr. [pixels]: 0
Data measured with spectrometer [name]: 2009305U1
Wave   ;Sample   ;Dark     ;Reference;Reflectance
[nm]   ;[counts] ;[counts] ;[counts] ;[%]

 175,72;  196,938;  176,239;  216,377;51,56896
 176,32;  228,959;  211,934;  220,629;195,79334
 176,92;  255,316;  225,163;  254,806;101,72182
 177,52;  259,896;  252,086;  276,497;31,99564
 178,12;  233,016;  223,549;  229,646;155,26588
 178,72;  264,901;  243,857;  246,426;819,16631
 179,32;  256,178;  236,780;  245,502;222,40089
 179,92;  252,298;  232,933;  243,184;188,90374
 180,52;  245,314;  234,084;  251,849;63,21610
 181,12;  250,541;  235,010;  258,040;67,43913
 181,73;  279,153;  253,163;  272,610;133,64431
 182,33;  363,214;  298,008;  354,611;115,19912
 182,93;  264,386;  245,240;  267,679;85,32425
 183,53;  239,147;  227,319;  231,255;300,52596
 184,13;  242,710;  231,011;  230,121; 0,00000
 184,73;  277,631;  249,935;  276,206;105,42619
 185,33;  266,698;  222,716;  348,805;34,88184
 185,93;  269,499;  214,717;  380,479;33,04815
 186,53;  295,376;  241,332;  381,727;38,49432
 187,13;  314,693;  264,099;  406,630;35,49684
 187,73;  270,698;  220,102;  379,098;31,82219
 188,33;  272,618;  227,718;  376,187;30,24199
 188,93;  297,677;  231,182;  389,757;41,93301
 189,53;  291,719;  240,799;  389,798;34,17449
 190,13;  332,233;  271,649;  443,566;35,24069
 190,73;  265,942;  217,185;  377,425;30,42739
 191,34;  302,156;  254,183;  413,712;30,07204
 191,94;  283,505;  227,565;  367,514;39,97205
 192,54;  287,612;  237,868;  406,065;29,57517
 193,14;  295,668;  248,715;  393,108;32,51784
 193,74;  280,271;  249,561;  386,677;22,39662
 194,34;  287,738;  235,099;  379,479;36,45892
 194,94;  262,158;  206,792;  347,521;39,34240
 195,54;  242,127;  196,177;  321,772;36,58620
 196,14;  263,400;  218,484;  355,903;32,68544
 196,74;  242,442;  211,331;  351,478;22,19867
 197,34;  239,593;  187,252;  345,540;33,06727
 197,94;  257,305;  225,715;  362,779;23,04752
 198,54;  275,541;  217,484;  389,006;33,84846
 199,14;  250,968;  197,636;  381,096;29,06990
 199,74;  237,093;  198,097;  381,375;21,27691
 200,34;  230,357;  186,097;  382,635;22,51976
 200,94;  280,410;  223,637;  421,823;28,64661
 201,54;  256,210;  202,328;  428,459;23,82750
 202,14;  293,152;  211,635;  474,923;30,96120
 202,74;  264,190;  204,328;  476,128;22,02431
 203,34;  249,130;  195,558;  479,311;18,87996
 203,94;  229,549;  163,635;  500,548;19,56421
 204,54;  309,819;  228,869;  592,022;22,29106
 205,14;  269,879;  199,405;  597,661;17,69551
 205,74;  322,571;  218,481;  690,215;22,06550
 206,34;  298,091;  197,405;  690,439;20,42184
 206,94;  315,394;  203,328;  773,362;19,65959
 207,54;  292,034;  180,251;  804,961;17,89368
 208,14;  326,671;  195,097;  861,786;19,73543
 208,74;  340,052;  194,559;  953,337;19,17470
 209,34;  356,753;  193,636; 1030,265;19,49701
 209,94;  365,721;  202,328; 1148,580;17,26736
 210,54;  384,765;  198,866; 1237,375;17,90055
 211,14;  407,470;  209,174; 1365,714;17,14556
 211,73;  412,541;  201,175; 1462,293;16,76025
 212,33;  452,592;  218,791; 1597,159;16,96221
 212,93;  446,801;  196,636; 1668,394;16,99771
 213,53;  435,255;  181,790; 1767,846;15,98084
 214,13;  450,326;  176,403; 1856,152;16,30739
 214,73;  453,614;  178,481; 1880,384;16,16616
 215,33;  428,721;  156,405; 1915,118;15,48381
 215,93;  467,757;  188,327; 2037,402;15,11189
 216,53;  447,384;  142,559; 2075,324;15,77143
 217,13;  519,493;  210,866; 2307,296;14,72158
 217,73;  514,701;  181,250; 2505,729;14,34518
 218,33;  497,335;  162,403; 2685,388;13,27523
 218,93;  559,041;  172,632; 2992,680;13,70220
 219,53;  601,153;  174,942; 3296,897;13,65207
 220,13;  593,482;  151,557; 3577,759;12,89841
 220,73;  654,357;  167,405; 3938,368;12,91319
 221,32;  706,052;  178,251; 4361,644;12,61658
 221,92;  765,478;  192,249; 4765,641;12,53400
 222,52;  807,835;  172,558; 5220,516;12,58483
 223,12;  870,750;  167,481; 5680,122;12,75739
 223,72;  939,337;  185,019; 6134,170;12,67942
 224,32;  991,046;  176,865; 6553,184;12,76882
 224,92; 1036,868;  175,404; 6818,083;12,96862
 225,52; 1125,827;  188,020; 7246,795;13,28570
 226,12; 1160,356;  182,327; 7519,659;13,32948
 226,72; 1182,789;  155,174; 7864,594;13,32934
 227,31; 1255,072;  151,251; 8241,262;13,64425
 227,91; 1339,264;  174,405; 8608,273;13,81169
 228,51; 1408,654;  177,790; 9061,833;13,85477
 229,11; 1514,578;  166,020; 9428,961;14,55864
 229,71; 1560,113;  168,175; 9795,860;14,45766
 230,31; 1653,197;  163,326;10145,637;14,92511
 230,91; 1720,170;  163,483;10541,858;14,99933
 231,51; 1824,215;  147,173;10894,551;15,60419
 232,10; 1940,744;  152,172;11267,104;16,09161
 232,70; 2059,738;  167,484;11505,325;16,68973
 233,30; 2179,534;  192,789;11856,258;17,03392
 233,90; 2289,356;  163,789;12037,003;17,90221
 234,50; 2377,972;  175,558;12250,655;18,23931
 235,10; 2470,714;  157,404;12347,468;18,97701
 235,70; 2640,511;  192,020;12458,020;19,96161
 236,29; 2726,635;  182,251;12486,574;20,67878
 236,89; 2775,276;  165,022;12367,077;21,39192
 237,49; 2936,882;  177,173;12382,301;22,61106
 238,09; 2981,399;  176,789;12207,055;23,31295
 238,69; 3091,525;  193,099;12025,720;24,49522
 239,29; 3095,540;  168,328;11806,275;25,15231
 239,89; 3102,300;  178,791;11452,563;25,93196
 240,48; 3103,067;  173,635;11111,338;26,78288
 241,08; 3084,370;  163,097;10762,261;27,56135
 241,68; 3130,585;  198,558;10511,432;28,43075
 242,28; 3077,170;  162,404;10160,933;29,15194
 242,88; 3107,529;  190,480; 9825,661;30,27498
 243,48; 3073,833;  192,250; 9558,253;30,76641
 244,07; 3082,240;  186,482; 9286,172;31,82260
 244,67; 3089,307;  188,943; 9134,113;32,42380
 245,27; 3038,234;  182,329; 8936,369;32,62385
 245,87; 3086,978;  184,096; 8853,728;33,48334
 246,47; 3048,412;  172,329; 8804,009;33,32008
 247,06; 3064,374;  169,097; 8795,610;33,56255
 247,66; 3102,185;  170,943; 8817,762;33,89966
 248,26; 3149,566;  208,559; 8992,584;33,48131
 248,86; 3200,971;  189,559; 9141,797;33,63864
 249,46; 3178,397;  150,789; 9313,349;33,04326
 250,05; 3302,970;  191,405; 9693,550;32,74592
 250,65; 3334,221;  158,636;10006,744;32,24563
 251,25; 3467,977;  179,713;10412,907;32,13331
 251,85; 3551,802;  182,329;11056,103;30,98715
 252,44; 3638,951;  147,251;11624,928;30,42166
 253,04; 3801,741;  180,559;12334,676;29,79387
 253,64; 3900,350;  144,175;12999,837;29,21806
 254,24; 4120,921;  186,559;13928,194;28,63096
 254,84; 4203,782;  175,712;14774,119;27,59253
 255,43; 4331,138;  178,713;15718,690;26,72092
 256,03; 4453,111;  163,329;16666,213;25,99414
 256,63; 4565,098;  176,868;17718,668;25,01585
 257,23; 4656,438;  165,098;18500,507;24,49544
 257,82; 4749,411;  177,022;19474,686;23,69400
 258,42; 4773,021;  132,484;20270,264;23,04394
 259,02; 4818,450;  174,636;21174,808;22,11322
 259,62; 4847,118;  159,792;21804,596;21,65566
 260,21; 4771,579;  177,328;22295,978;20,77093
 260,81; 4686,720;  170,481;22823,178;19,93687
 261,41; 4598,654;  166,176;23209,931;19,23505
 262,01; 4552,542;  195,023;23642,910;18,58384
 262,60; 4349,900;  161,483;23968,584;17,59314
 263,20; 4259,942;  164,944;24178,655;17,05275
 263,80; 4155,866;  182,562;24384,042;16,41761
 264,40; 3999,170;  145,484;24473,227;15,84070
 264,99; 3839,412;  179,331;24635,359;14,96597
 265,59; 3742,424;  164,255;24795,929;14,52670
 266,19; 3619,991;  164,638;24886,859;13,97671
 266,78; 3537,823;  198,716;25019,817;13,45270
 267,38; 3410,943;  172,332;25091,828;12,99630
 267,98; 3290,382;  158,331;25004,990;12,60552
 268,58; 3209,073;  177,562;25077,419;12,17481
 269,17; 3105,540;  165,332;25112,785;11,78560
 269,77; 3028,299;  182,945;24923,644;11,50070
 270,37; 2882,889;  150,485;24758,337;11,10379
 270,96; 2870,168;  204,253;24703,174;10,88177
 271,56; 2762,458;  167,868;24397,106;10,70851
 272,16; 2688,828;  169,176;24154,837;10,50482
 272,75; 2641,476;  166,561;24041,291;10,36625
 273,35; 2608,173;  173,099;24093,138;10,18006
 273,95; 2604,140;  175,176;23998,878;10,19558
 274,54; 2574,370;  155,251;24001,451;10,14467
 275,14; 2619,873;  180,253;24296,492;10,11609
 275,74; 2568,249;  144,022;24387,065; 9,99968
 276,33; 2683,109;  190,099;24762,723;10,14548
 276,93; 2710,428;  175,943;24987,120;10,21509
 277,53; 2784,222;  174,867;25496,469;10,30486
 278,12; 2832,876;  157,252;26003,751;10,35198
 278,72; 2972,603;  194,867;26636,274;10,50525
 279,32; 3033,290;  165,713;27171,463;10,61840
 279,91; 3150,695;  163,021;27905,256;10,76940
 280,51; 3293,692;  173,251;28428,361;11,04381
 281,11; 3452,593;  174,098;29118,155;11,32701
 281,70; 3562,706;  153,098;29568,424;11,59126
 282,30; 3703,073;  159,098;30230,644;11,78514
 282,90; 3842,345;  169,945;30561,185;12,08374
 283,49; 4024,375;  186,099;31199,186;12,37631
 284,09; 4139,508;  190,714;31628,304;12,56074
 284,69; 4357,744;  189,175;32037,341;13,08888
 285,28; 4524,921;  191,867;32500,794;13,41132
 285,88; 4723,253;  199,022;32695,762;13,92210
 286,47; 4798,142;  175,329;32693,137;14,21625
 287,07; 5019,780;  203,944;32809,646;14,76992
 287,67; 5201,449;  190,789;32982,022;15,28049
 288,26; 5403,092;  169,559;32869,266;16,00483
 288,86; 5663,313;  172,175;32963,147;16,74588
 289,46; 5941,100;  170,636;33023,814;17,56440
 290,05; 6176,313;  162,251;33047,628;18,28795
 290,65; 6481,486;  175,252;33285,329;19,04627
 291,24; 6867,951;  189,559;33411,430;20,10239
 291,84; 7151,098;  182,406;33467,438;20,93641
 292,44; 7530,182;  176,327;33666,984;21,95793
 293,03; 7937,477;  230,636;33835,995;22,93337
 293,63; 8256,397;  170,022;33925,161;23,95598
 294,22; 8622,759;  194,175;34192,898;24,79089
 294,82; 8913,178;  181,561;34111,735;25,73408
 295,41; 9114,629;  153,944;33869,501;26,57730
 296,01; 9434,135;  217,176;33826,800;27,42357
 296,61; 9648,967;  179,559;33699,024;28,25047
 297,20; 9714,216;  182,638;33244,688;28,82936
 297,80; 9916,589;  187,635;33052,862;29,60258
 298,39;10067,341;  163,868;32744,796;30,39653
 298,99;10237,039;  175,638;32519,890;31,10723
 299,58;10346,719;  186,558;32371,911;31,56766
 300,18;10539,807;  207,097;32078,314;32,42019
 300,78;10517,547;  169,405;31723,868;32,79454
 301,37;10692,209;  186,639;31725,967;33,30943
 301,97;10878,691;  182,021;31752,405;33,88197
 302,56;10927,547;  166,099;31633,889;34,19830
 303,16;11056,631;  155,099;31597,477;34,67146
 303,75;11131,494;  174,405;31569,005;34,90119
 304,35;11450,458;  163,635;31819,100;35,65521
 304,94;11584,237;  180,098;31793,374;36,07389
 305,54;11688,591;  203,636;31684,952;36,48181
 306,13;11754,414;  149,173;31607,401;36,89096
 306,73;11780,761;  165,404;31473,524;37,10014
 307,33;11836,942;  185,020;31361,055;37,37461
 307,92;12018,655;  169,944;31395,096;37,94605
 308,52;12291,214;  165,099;31890,100;38,22258
 309,11;12606,887;  172,638;32427,632;38,54984
 309,71;12783,862;  155,177;32681,960;38,82550
 310,30;12942,084;  157,098;32836,795;39,12211
 310,90;13240,007;  179,329;33162,180;39,59839
 311,49;13341,719;  182,559;33344,317;39,68173
 312,09;13492,678;  142,636;33547,722;39,96410
 312,68;13764,024;  201,790;33927,769;40,21302
 313,28;13855,271;  152,559;33956,788;40,53549
 313,87;13932,679;  150,482;34176,314;40,50510
 314,47;14099,228;  167,253;34398,507;40,69958
 315,06;14234,716;  148,405;34567,733;40,92558
 315,66;14278,216;  158,943;34854,645;40,69459
 316,25;14289,765;  140,406;34689,418;40,95445
 316,85;14345,354;  139,559;34777,975;41,01168
 317,44;14448,240;  158,561;34947,829;41,07496
 318,04;14497,600;  148,945;34913,363;41,27397
 318,63;14458,234;  148,712;34929,575;41,14194
 319,22;14532,348;  174,253;35197,076;40,99640
 319,82;14540,540;  176,483;35096,106;41,13463
 320,41;14488,150;  161,945;35099,992;41,00460
 321,01;14529,341;  171,020;35141,349;41,05858
 321,60;14558,394;  166,714;35251,383;41,01986
 322,20;14438,433;  161,405;35121,065;40,83858
 322,79;14503,959;  191,790;35166,860;40,92106
 323,39;14489,187;  168,250;35279,984;40,78675
 323,98;14459,591;  153,251;35282,413;40,72497
 324,58;14383,149;  157,176;35187,689;40,61023
 325,17;14282,554;  167,637;35145,514;40,35384
 325,76;14222,144;  182,867;34943,934;40,38794
 326,36;13975,689;  147,174;34505,813;40,24756
 326,95;13858,042;  174,406;34216,453;40,19628
 327,55;13652,544;  161,560;33888,496;40,00062
 328,14;13447,439;  160,558;33455,672;39,90640
 328,74;13292,113;  193,637;33098,303;39,80735
 329,33;13088,308;  182,328;32807,741;39,55806
 329,92;12801,819;  159,869;32210,755;39,44337
 330,52;12548,253;  177,097;31505,485;39,48865
 331,11;12278,868;  174,790;31212,280;38,99825
 331,71;12011,848;  171,560;30432,102;39,12781
 332,30;11808,314;  186,406;30077,143;38,88130
 332,89;11554,252;  194,867;29511,339;38,74745
 333,49;11225,054;  191,483;28964,734;38,34663
 334,08;11046,224;  176,252;28472,291;38,41517
 334,68;10792,799;  178,944;28023,751;38,11790
 335,27;10607,392;  189,097;27739,620;37,81523
 335,86;10393,329;  198,252;27392,433;37,48992
 336,46;10238,246;  178,404;27143,820;37,30646
 337,05;10091,074;  173,175;26956,025;37,03078
 337,65; 9958,811;  154,252;26747,263;36,86893
 338,24; 9966,016;  213,636;26704,877;36,81360
 338,83; 9773,089;  192,482;26645,103;36,21799
 339,43; 9713,081;  167,791;26542,617;36,19091
 340,02; 9647,117;  173,945;26436,655;36,07081
 340,61; 9588,781;  160,482;26511,836;35,77918
 341,21; 9582,344;  202,099;26614,149;35,51502
 341,80; 9465,892;  167,483;26464,883;35,35866
 342,40; 9447,326;  184,866;26529,250;35,15915
 342,99; 9408,867;  176,482;26685,878;34,82684
 343,58; 9394,539;  171,251;26786,510;34,65414
 344,18; 9418,774;  187,789;26883,705;34,57827
 344,77; 9385,388;  173,791;27228,350;34,04822
 345,36; 9431,811;  152,944;27547,530;33,87117
 345,96; 9519,179;  186,790;27898,073;33,67722
 346,55; 9494,887;  159,250;28039,876;33,48432
 347,14; 9551,209;  148,712;28352,017;33,33828
 347,74; 9567,457;  134,941;28802,237;32,90340
 348,33; 9709,894;  176,788;29445,868;32,57057
 348,92; 9835,398;  182,864;30050,130;32,31811
 349,52; 9897,887;  153,249;30534,317;32,07471
 350,11; 9981,691;  164,330;30849,386;31,99395
 350,70; 9951,667;  157,636;30870,762;31,88875
 351,29; 9707,568;  151,793;30630,485;31,35231
 351,89; 9628,183;  176,946;30644,581;31,02058
 352,48; 9579,631;  148,098;30744,072;30,82606
 353,07; 9462,542;  171,481;30661,308;30,47266
 353,67; 9409,492;  187,941;30661,298;30,26103
 354,26; 9216,067;  177,943;30285,990;30,01897
 354,85; 9070,160;  180,097;30287,588;29,52774
 355,45; 8948,555;  150,483;30048,817;29,42663
 356,04; 8825,008;  171,712;29992,195;29,01796
 356,63; 8716,512;  194,637;29722,345;28,86061
 357,22; 8556,161;  182,254;29642,724;28,42421
 357,82; 8397,336;  179,254;29568,586;27,96281
 358,41; 8318,278;  183,944;29398,069;27,84384
 359,00; 8151,324;  171,253;29186,052;27,50345
 359,60; 8062,850;  179,559;29089,288;27,26864
 360,19; 7906,522;  167,250;28900,900;26,93452
 360,78; 7752,017;  182,868;28752,546;26,49365
 361,37; 7682,143;  175,637;28566,902;26,43949
 361,97; 7555,055;  177,175;28530,155;26,02153
 362,56; 7406,092;  174,560;28176,133;25,82545
 363,15; 7284,908;  188,252;27971,246;25,54316
 363,74; 7122,904;  173,022;27662,683;25,28180
 364,34; 6968,417;  206,022;27333,877;24,92786
 364,93; 6765,063;  157,484;26881,684;24,72508
 365,52; 6530,099;  145,329;26525,510;24,20290
 366,11; 6455,797;  169,791;26163,872;24,18245
 366,71; 6282,040;  156,791;25776,076;23,90874
 367,30; 6115,249;  165,790;25473,044;23,50890
 367,89; 6025,483;  201,328;25232,258;23,26783
 368,48; 5871,079;  179,561;24906,241;23,01772
 369,07; 5685,206;  181,713;24451,608;22,67621
 369,67; 5602,221;  185,253;24105,611;22,64585
 370,26; 5451,611;  173,867;23873,858;22,26897
 370,85; 5336,087;  174,252;23550,537;22,08150
 371,44; 5250,597;  171,867;23370,237;21,89262
 372,03; 5115,890;  156,637;23193,697;21,52728
 372,63; 5003,642;  153,483;22877,551;21,34371
 373,22; 4893,995;  163,713;22601,975;21,08132
 373,81; 4769,459;  151,098;22258,948;20,89014
 374,40; 4675,298;  157,866;21988,723;20,69287
 374,99; 4558,462;  160,945;21684,224;20,43145
 375,59; 4475,293;  159,635;21418,913;20,30012
 376,18; 4391,418;  193,021;21403,678;19,79381
 376,77; 4349,513;  175,021;21085,997;19,96316
 377,36; 4260,742;  193,098;21072,078;19,48201
 377,95; 4190,753;  179,791;20770,557;19,47942
 378,55; 4116,803;  157,790;20539,965;19,42390
 379,14; 4081,346;  164,637;20564,566;19,19962
 379,73; 3994,850;  170,483;20364,577;18,93805
 380,32; 3988,605;  182,867;20445,975;18,78161
 380,91; 3903,059;  165,330;20277,027;18,58485
 381,50; 3902,371;  181,637;20290,182;18,50325
 382,10; 3853,605;  159,406;20190,898;18,44196
 382,69; 3771,463;  155,867;20114,568;18,11538
 383,28; 3792,360;  188,560;20055,244;18,13991
 383,87; 3788,951;  162,483;19910,528;18,36368
 384,46; 3687,830;  171,330;19836,502;17,88187
 385,05; 3698,513;  193,637;19833,439;17,84578
 385,64; 3668,490;  161,022;19814,872;17,84621
 386,24; 3633,348;  152,869;19756,098;17,75462
 386,83; 3641,655;  186,100;19744,215;17,66814
 387,42; 3658,741;  190,791;19875,815;17,61720
 388,01; 3667,729;  179,178;20018,150;17,58434
 388,60; 3711,369;  176,792;20248,923;17,60938
 389,19; 3708,353;  154,948;20518,679;17,44968
 389,78; 3766,330;  164,025;20750,651;17,49828
 390,37; 3877,581;  214,023;21186,993;17,46800
 390,96; 3839,571;  178,869;21368,206;17,27615
 391,56; 3890,194;  167,794;21459,411;17,48293
 392,15; 3958,517;  162,409;21772,680;17,56622
 392,74; 3931,427;  146,796;21948,826;17,35908
 393,33; 4032,938;  160,256;22265,505;17,51929
 393,92; 4088,405;  189,258;22553,240;17,43494
 394,51; 4114,930;  156,641;22829,766;17,45807
 395,10; 4199,559;  185,414;23114,549;17,50674
 395,69; 4231,196;  170,491;23248,411;17,59563
 396,28; 4264,504;  189,338;23335,047;17,60657
 396,87; 4260,359;  194,724;23425,208;17,50129
 397,46; 4353,411;  190,495;23585,477;17,79406
 398,06; 4395,365;  193,035;23669,499;17,90018
 398,65; 4396,858;  179,116;23892,754;17,78615
 399,24; 4487,653;  198,885;23988,985;18,02753
 399,83; 4479,268;  178,276;23940,630;18,10003
 400,42; 4564,340;  206,819;24092,641;18,24313
 401,01; 4610,930;  178,902;24273,148;18,39455
 401,60; 4647,680;  192,679;24311,313;18,47120
 402,19; 4725,156;  205,069;24262,482;18,78875
 402,78; 4714,182;  220,079;24386,919;18,59616
 403,37; 4691,510;  191,857;24237,918;18,71264
 403,96; 4724,517;  198,098;24082,316;18,95151
 404,55; 4735,932;  217,956;23963,646;19,02651
 405,14; 4758,270;  193,043;23849,033;19,29840
 405,73; 4786,355;  217,671;23709,315;19,44812
 406,32; 4829,758;  206,526;23650,839;19,72006
 406,91; 4766,075;  210,305;23438,841;19,61282
 407,50; 4801,891;  205,002;23254,443;19,94360
 408,09; 4758,895;  180,775;23033,321;20,03330
 408,68; 4829,971;  195,469;22862,291;20,44619
 409,27; 4784,687;  181,543;22610,369;20,52334
 409,86; 4856,313;  200,459;22544,737;20,83690
 410,45; 4876,535;  221,452;22443,953;20,94761
 411,04; 4951,254;  237,138;22448,357;21,22403
 411,63; 4914,305;  220,591;22151,746;21,40204
 412,22; 4919,288;  214,430;21951,430;21,64447
 412,81; 4965,849;  231,119;21704,362;22,04944
 413,40; 4925,169;  243,270;21441,770;22,08599
 413,99; 4913,473;  264,040;21081,094;22,33473
 414,58; 4788,139;  218,885;20678,324;22,33323
 415,17; 4809,590;  213,504;20453,641;22,70778
 415,76; 4818,725;  211,661;20265,794;22,97314
 416,35; 4813,354;  202,582;20074,317;23,20266
 416,94; 4897,407;  227,660;20097,464;23,50173
 417,53; 4958,299;  216,196;20200,077;23,72964
 418,12; 5063,504;  202,580;20275,076;24,21684
 418,71; 5217,724;  227,423;20627,785;24,46182
 419,30; 5262,056;  222,272;20746,353;24,55547
 419,89; 5376,576;  215,887;20936,746;24,90577
 420,48; 5499,939;  237,500;21154,960;25,15811
 421,07; 5594,730;  223,807;21303,048;25,47968
 421,66; 5603,825;  202,883;21350,228;25,53958
 422,25; 5714,407;  215,649;21401,329;25,95507
 422,84; 5809,195;  237,110;21426,490;26,29659
 423,43; 5749,534;  219,265;21156,431;26,41365
 424,02; 5761,479;  235,495;20902,596;26,73807
 424,60; 5702,476;  202,184;20473,524;27,13334
 425,19; 5634,150;  225,647;20175,271;27,11080
 425,78; 5712,798;  240,186;20022,685;27,66391
 426,37; 5700,920;  231,338;19876,821;27,84142
 426,96; 5752,200;  230,723;19783,638;28,23864
 427,55; 5769,754;  219,644;19652,922;28,55982
 428,14; 5765,862;  199,181;19444,821;28,92437
 428,73; 5762,289;  223,337;19263,012;29,09163
 429,32; 5796,414;  235,569;19202,049;29,31933
 429,91; 5870,229;  249,875;19173,334;29,70046
 430,50; 5867,298;  233,797;19094,344;29,86923
 431,08; 5853,265;  250,181;18933,791;29,98930
 431,67; 5907,430;  286,872;18905,631;30,18761
 432,26; 5856,948;  296,102;18745,246;30,14149
 432,85; 5865,898;  317,487;18395,740;30,69108
 433,44; 5834,782;  312,255;18133,559;30,98834
 434,03; 5786,364;  342,022;17695,758;31,37273
 434,62; 5655,811;  310,101;17215,162;31,62195
 435,21; 5640,267;  324,333;16992,491;31,89275
 435,79; 5613,916;  309,330;16909,247;31,95549
 436,38; 5634,797;  310,098;16758,093;32,37294
 436,97; 5669,709;  303,867;16607,577;32,91178
 437,56; 5649,043;  308,941;16465,781;33,05165
 438,15; 5647,494;  281,634;16353,092;33,38751
 438,74; 5726,288;  298,403;16405,496;33,69872
 439,33; 5777,258;  270,711;16356,282;34,23284
 439,91; 5790,951;  236,479;16410,297;34,34237
 440,50; 5911,324;  281,940;16444,821;34,82909
 441,09; 5990,565;  277,400;16525,340;35,16239
 441,68; 6003,991;  268,783;16548,389;35,22940
 442,27; 6053,965;  251,784;16509,568;35,68863
 442,86; 6069,131;  225,473;16522,899;35,85633
 443,44; 6172,991;  238,474;16566,157;36,34635
 444,03; 6261,945;  276,165;16663,942;36,52588
 444,62; 6263,779;  243,934;16586,123;36,83622
 445,21; 6210,203;  252,935;16352,093;37,00360
 445,80; 6239,578;  274,241;16328,009;37,15849
 446,39; 6189,621;  267,549;16060,943;37,49715
 446,97; 6123,576;  231,777;15859,550;37,70083
 447,56; 6129,582;  244,006;15688,833;38,10710
 448,15; 6087,516;  247,008;15457,759;38,39723
 448,74; 6040,715;  263,008;15203,685;38,67098
 449,33; 6029,225;  248,776;15094,481;38,93684
 449,91; 5945,551;  254,928;14884,349;38,89849
 450,50; 5897,817;  236,390;14632,699;39,32555
 451,09; 5929,745;  256,313;14522,392;39,76869
 451,68; 5926,918;  277,004;14475,127;39,79339
 452,26; 5932,188;  263,157;14303,420;40,37696
 452,85; 5905,016;  255,004;14205,988;40,49902
 453,44; 5914,402;  259,540;14222,480;40,49908
 454,03; 5935,113;  235,926;14222,181;40,74849
 454,61; 5982,091;  233,540;14135,743;41,34993
 455,20; 6104,539;  268,000;14327,598;41,51284
 455,79; 6117,036;  265,310;14302,277;41,68797
 456,38; 6236,888;  270,768;14375,037;42,30010
 456,97; 6237,709;  247,461;14459,903;42,14791
 457,55; 6291,931;  258,460;14465,683;42,46763
 458,14; 6317,906;  278,461;14494,376;42,48368
 458,73; 6313,851;  266,075;14408,714;42,76271
 459,31; 6370,018;  297,766;14431,468;42,96293
 459,90; 6469,659;  292,844;14493,663;43,49619
 460,49; 6544,305;  307,613;14617,511;43,58306
 461,08; 6531,705;  260,227;14620,564;43,67222
 461,66; 6641,204;  269,074;14741,348;44,02992
 462,25; 6688,963;  274,765;14849,924;44,00774
 462,84; 6776,240;  305,611;14869,211;44,43015
 463,43; 6723,025;  225,532;14858,762;44,40232
 464,01; 6834,983;  279,839;14872,707;44,92019
 464,60; 6824,873;  298,840;14842,160;44,87306
 465,19; 6676,673;  251,377;14583,580;44,83118
 465,77; 6721,020;  260,222;14606,796;45,03373
 466,36; 6750,037;  279,763;14574,813;45,26234
 466,95; 6612,994;  265,378;14237,227;45,43147
 467,53; 6537,858;  272,683;13933,693;45,86172
 468,12; 6457,413;  290,914;13652,744;46,15011
 468,71; 6357,387;  276,146;13430,328;46,23047
 469,29; 6207,163;  252,144;13139,336;46,20882
 469,88; 6126,255;  266,682;12926,338;46,28540
 470,47; 6234,138;  320,834;12918,849;46,93838
 471,06; 6210,964;  276,142;12893,327;47,03761
 471,64; 6284,720;  281,373;12979,937;47,27579
 472,23; 6313,062;  258,832;13007,110;47,49057
 472,81; 6372,980;  250,218;13114,976;47,59329
 473,40; 6492,698;  267,986;13240,975;47,98209
 473,99; 6666,876;  325,986;13445,692;48,33104
 474,57; 6659,333;  254,986;13513,881;48,30227
 475,16; 6751,107;  283,448;13680,790;48,27569
 475,75; 6899,017;  295,985;13818,814;48,82878
 476,33; 6946,734;  299,676;13907,279;48,84812
 476,92; 7001,982;  296,909;13974,870;49,02100
 477,51; 7075,858;  286,599;14099,874;49,15024
 478,09; 7076,906;  291,061;14109,999;49,10540
 478,68; 7100,058;  288,830;14023,796;49,59042
 479,27; 7119,370;  315,215;14085,166;49,41306
 479,85; 7079,474;  281,368;13996,598;49,56611
 480,44; 7182,116;  273,522;14109,383;49,93252
 481,02; 7587,103;  282,521;15040,352;49,49631
 481,61; 8638,207;  309,060;16960,272;50,02127
 482,20; 9416,395;  303,136;18418,989;50,30544
 482,78; 9933,982;  327,291;19377,022;50,42953
 483,37;10293,987;  316,827;20002,822;50,68151
 483,95;10484,114;  356,750;20363,482;50,61978
 484,54;10616,134;  359,752;20595,702;50,68396
 485,13;10613,718;  329,671;20633,139;50,65167
 485,71;10555,412;  302,980;20348,881;51,14478
 486,30;10439,076;  341,672;20188,775;50,87596
 486,88;10385,879;  363,133;19891,302;51,32456
 487,47;10014,682;  358,133;19249,214;51,11698
 488,05; 9621,105;  344,363;18461,434;51,20442
 488,64; 9090,308;  339,054;17309,615;51,56726
 489,23; 8253,705;  352,516;15703,760;51,46938
 489,81; 6924,148;  354,516;13150,773;51,34026
 490,40; 6439,793;  311,362;12205,489;51,52484
 490,98; 6316,337;  294,285;11953,332;51,65132
 491,57; 6211,896;  322,670;11732,563;51,61509
 492,15; 6182,755;  314,284;11727,361;51,41883
 492,74; 6184,288;  303,671;11646,115;51,84612
 493,32; 6096,859;  323,746;11543,241;51,45608
 493,91; 6095,510;  305,899;11490,144;51,76577
 494,50; 6062,068;  311,051;11441,741;51,66811
 495,08; 6036,051;  304,359;11304,957;52,10346
 495,67; 6060,821;  308,438;11340,728;52,14133
 496,25; 6005,959;  267,591;11205,805;52,46165
 496,84; 6014,816;  273,130;11166,841;52,70643
 497,42; 5963,729;  262,283;11075,222;52,72800
 498,01; 5946,344;  305,745;11128,401;52,11843
 498,59; 5884,957;  249,744;11004,100;52,39935
 499,18; 5908,344;  256,822;11018,053;52,51743
 499,76; 5910,250;  280,821;10932,366;52,85082
 500,35; 5800,494;  273,281;10723,427;52,89125
 500,93; 5784,980;  269,283;10654,821;53,10940
 501,52; 5745,588;  269,129;10614,694;52,93533
 502,10; 5767,214;  269,281;10616,285;53,13551
 502,69; 5670,200;  257,664;10453,796;53,08421
 503,27; 5616,355;  241,974;10276,758;53,55752
 503,86; 5570,831;  252,357;10235,548;53,27429
 504,44; 5479,461;  248,126;10108,781;53,05261
 505,03; 5397,011;  236,126; 9868,908;53,57627
 505,61; 5360,436;  234,587; 9763,068;53,79502
 506,19; 5247,748;  258,741; 9651,530;53,11529
 506,78; 5159,199;  232,201; 9479,953;53,27779
 507,36; 5080,740;  251,357; 9286,946;53,44846
 507,95; 5006,651;  249,200; 9146,084;53,47322
 508,53; 4921,434;  237,432; 9044,650;53,18367
 509,12; 4851,711;  251,893; 8852,802;53,48060
 509,70; 4779,627;  266,893; 8712,712;53,43157
 510,29; 4711,046;  269,046; 8581,502;53,43788
 510,87; 4585,101;  246,278; 8374,779;53,37790
 511,46; 4539,495;  238,893; 8224,590;53,85381
 512,04; 4453,077;  251,739; 8077,734;53,68440
 512,62; 4365,467;  261,201; 7960,177;53,30925
 513,21; 4245,411;  226,892; 7788,365;53,14466
 513,79; 4223,521;  247,505; 7638,547;53,79506
 514,38; 4115,850;  220,121; 7479,199;53,66699
 514,96; 4107,529;  269,198; 7369,881;54,05580
 515,54; 3992,778;  235,275; 7277,389;53,35760
 516,13; 3940,366;  245,890; 7174,012;53,32579
 516,71; 3881,470;  241,043; 7042,984;53,52042
 517,30; 3821,983;  229,503; 6925,173;53,65378
 517,88; 3785,874;  267,965; 6837,488;53,54892
 518,46; 3703,066;  242,042; 6709,210;53,51684
 519,05; 3660,133;  243,502; 6677,957;53,09899
 519,63; 3634,998;  246,657; 6593,944;53,38251
 520,22; 3653,278;  255,040; 6529,659;54,15848
 520,80; 3554,510;  248,117; 6459,927;53,22753
 521,38; 3603,352;  268,887; 6475,789;53,72189
 521,97; 3524,038;  242,808; 6411,135;53,19482
 522,55; 3529,233;  246,424; 6397,907;53,36614
 523,13; 3529,826;  245,115; 6349,413;53,80980
 523,72; 3486,879;  250,042; 6333,987;53,20294
 524,30; 3589,192;  267,038; 6475,268;53,51210
 524,89; 3581,116;  235,424; 6475,171;53,61903
 525,47; 3635,460;  260,884; 6593,415;53,28954
 526,05; 3669,445;  231,807; 6667,627;53,41414
 526,64; 3766,843;  261,729; 6744,633;54,06704
 527,22; 3842,707;  258,730; 6923,624;53,77396
 527,80; 3932,466;  288,268; 7049,642;53,89730
 528,39; 3924,699;  247,883; 7124,865;53,46555
 528,97; 4013,815;  246,498; 7290,410;53,48331
 529,55; 4142,696;  260,269; 7517,821;53,49499
 530,14; 4254,883;  273,113; 7733,311;53,37351
 530,72; 4303,403;  251,575; 7806,535;53,63136
 531,30; 4373,421;  240,036; 7949,347;53,61550
 531,89; 4434,859;  243,190; 8060,554;53,61998
 532,47; 4514,775;  285,882; 8193,540;53,47845
 533,05; 4504,802;  279,729; 8276,056;52,83767
 533,63; 4580,027;  283,036; 8348,519;53,27630
 534,22; 4542,217;  247,112; 8375,286;52,84219
 534,80; 4627,613;  282,496; 8404,433;53,49854
 535,38; 4660,074;  322,728; 8535,996;52,80901
 535,97; 4595,309;  267,574; 8477,382;52,71421
 536,55; 4673,780;  320,111; 8568,904;52,77946
 537,13; 4585,275;  322,421; 8487,202;52,21027
 537,71; 4647,429;  358,113; 8523,551;52,53014
 538,30; 4647,145;  391,112; 8644,246;51,56869
 538,88; 4663,531;  413,957; 8682,565;51,39408
 539,46; 4744,423;  468,419; 8886,589;50,79493
 540,05; 4773,101;  494,572; 9053,679;49,98803
 540,63; 4875,879;  539,957; 9234,648;49,86861
 541,21; 4987,387;  559,956; 9382,760;50,18167
 541,79; 4999,439;  613,880; 9523,505;49,22272
 542,38; 5079,870;  647,034; 9641,720;49,28283
 542,96; 5155,070;  650,879; 9843,390;48,99849
 543,54; 5258,245;  672,418;10010,159;49,11066
 544,12; 5338,371;  649,726;10193,280;49,12893
 544,70; 5333,293;  620,648;10278,150;48,79776
 545,29; 5485,700;  633,034;10494,357;49,20908
 545,87; 5490,901;  591,187;10505,428;49,42097
 546,45; 5476,760;  556,880;10536,496;49,29929
 547,03; 5518,187;  543,803;10577,875;49,57493
 547,62; 5594,480;  517,187;10757,852;49,57972
 548,20; 5657,851;  496,571;10926,865;49,48355
 548,78; 5725,089;  484,261;10996,873;49,85276
 549,36; 5770,671;  440,954;11236,228;49,37084
 549,94; 5850,712;  398,725;11380,386;49,64629
 550,53; 5975,945;  407,108;11622,701;49,65263
 551,11; 6030,758;  379,876;11786,112;49,54204
 551,69; 6188,728;  379,185;12101,132;49,56124
 552,27; 6299,101;  341,493;12354,289;49,59385
 552,85; 6487,171;  359,261;12791,756;49,28946
 553,44; 6656,667;  341,185;13065,187;49,63440
 554,02; 6803,393;  358,108;13463,714;49,17960
 554,60; 6968,131;  302,184;13792,329;49,41346
 555,18; 7142,877;  330,108;14250,743;48,94008
 555,76; 7328,866;  313,031;14592,996;49,13062
 556,34; 7526,895;  316,491;15034,886;48,98906
 556,93; 7720,307;  307,108;15418,478;49,05709
 557,51; 7845,891;  296,645;15808,650;48,66712
 558,09; 8071,193;  319,185;16208,481;48,78762
 558,67; 8228,962;  311,413;16605,017;48,59299
 559,25; 8386,406;  326,029;16858,468;48,75492
 559,83; 8492,442;  304,874;17220,141;48,40342
 560,41; 8624,995;  295,184;17658,299;47,97418
 561,00; 8802,294;  305,644;17964,349;48,11593
 561,58; 8887,335;  305,184;18198,794;47,96210
 562,16; 9028,333;  291,107;18535,033;47,89115
 562,74; 9168,891;  274,415;18920,020;47,70280
 563,32; 9326,547;  278,182;19425,170;47,25738
 563,90; 9488,436;  298,721;19734,376;47,28276
 564,48; 9650,403;  310,107;20128,558;47,12930
 565,06; 9879,678;  290,644;20677,928;47,03439
 565,65;10207,546;  295,797;21411,651;46,93985
 566,23;10531,561;  353,644;22074,577;46,85764
 566,81;10796,281;  290,106;22813,189;46,64625
 567,39;11132,843;  312,413;23749,654;46,16768
 567,97;11463,969;  317,798;24445,760;46,19608
 568,55;11822,757;  312,721;25282,074;46,09665
 569,13;12120,173;  300,875;25985,573;46,01689
 569,71;12523,669;  298,800;26976,138;45,82492
 570,29;12985,631;  340,646;27965,534;45,77389
 570,87;13305,264;  332,800;28807,390;45,55803
 571,45;13547,096;  317,644;29504,075;45,32740
 572,03;13760,747;  271,182;29935,400;45,47420
 572,61;13979,235;  278,567;30658,437;45,09785
 573,20;14245,373;  313,876;31279,977;44,98951
 573,78;14526,636;  300,336;32070,451;44,77887
 574,36;14709,955;  303,490;32659,967;44,52421
 574,94;14914,804;  350,028;32969,530;44,65052
 575,52;14849,392;  322,257;33286,439;44,06945
 576,10;15096,900;  372,181;33829,419;44,01056
 576,68;15311,172;  356,028;34304,094;44,05301
 577,26;15493,086;  376,718;34970,970;43,69618
 577,84;15739,882;  374,259;35561,855;43,66773
 578,42;15849,324;  397,797;35907,543;43,51348
 579,00;15754,033;  367,336;36066,117;43,10146
 579,58;15882,481;  394,951;36358,705;43,06427
 580,16;15824,960;  386,258;36366,522;42,90881
 580,74;15888,977;  393,027;36608,613;42,78807
 581,32;15842,748;  385,489;36676,432;42,59261
 581,90;15834,515;  404,104;36700,500;42,51224
 582,48;15795,203;  394,796;36762,572;42,34630
 583,06;15867,489;  408,489;36882,136;42,38403
 583,64;15829,857;  407,412;37150,429;41,97381
 584,22;15706,664;  409,103;37069,976;41,72721
 584,80;15576,781;  424,950;36926,307;41,51032
 585,38;15324,709;  430,491;36498,816;41,29445
 585,96;15359,823;  400,028;36510,096;41,42832
 586,54;15290,736;  417,411;36434,899;41,29473
 587,12;15277,945;  384,873;36671,924;41,04239
 587,70;15309,147;  411,336;36772,495;40,97177
 588,28;15286,435;  398,335;36987,799;40,68958
 588,86;15254,424;  411,411;37134,744;40,41848
 589,44;15161,801;  381,487;37139,135;40,21017
 590,02;15194,128;  378,718;37355,737;40,06653
 590,59;15232,060;  354,488;37591,492;39,95373
 591,17;15301,409;  357,101;37811,448;39,90006
 591,75;15263,766;  359,025;37960,898;39,63830
 592,33;15305,890;  371,871;38254,145;39,42218
 592,91;15353,914;  326,101;38606,306;39,25740
 593,49;15472,855;  333,947;38912,389;39,24189
 594,07;15460,410;  341,716;39061,906;39,04602
 594,65;15441,558;  357,642;39133,911;38,89987
 595,23;15562,581;  347,718;39574,230;38,78719
 595,81;15502,910;  350,795;39762,091;38,44612
 596,39;15501,287;  349,871;39896,005;38,31327
 596,97;15459,274;  337,178;40114,666;38,01672
 597,55;15423,118;  327,026;39943,849;38,10526
 598,12;15299,569;  316,254;40022,096;37,73579
 598,70;15343,469;  316,870;40076,357;37,79375
 599,28;15321,429;  339,024;40361,354;37,43511
 599,86;15251,886;  330,793;40412,698;37,22651
 600,44;15189,725;  300,024;40495,453;37,04327
 601,02;15129,338;  350,099;40514,998;36,79641
 601,60;15113,443;  330,640;40527,074;36,77640
 602,18;15046,115;  303,946;40587,644;36,59587
 602,75;14917,047;  305,564;40724,692;36,14992
 603,33;14863,453;  325,947;40591,378;36,10419
 603,91;14786,494;  316,792;40690,319;35,83958
 604,49;14746,409;  325,639;40747,602;35,67558
 605,07;14615,179;  334,871;40763,081;35,32263
 605,65;14662,673;  344,485;40908,668;35,29761
 606,23;14682,254;  405,950;41020,458;35,15075
 606,80;14575,331;  452,256;41017,360;34,81582
 607,38;14504,833;  493,638;41115,470;34,49179
 607,96;14440,500;  546,795;41162,646;34,20759
 608,54;14411,880;  594,101;41212,721;34,01834
 609,12;14366,136;  616,641;41306,666;33,79083
 609,70;14300,481;  644,793;41349,678;33,54803
 610,27;14225,820;  652,641;41295,814;33,39596
 610,85;14232,975;  660,024;41419,558;33,30006
 611,43;14099,534;  677,178;41371,614;32,98327
 612,01;13881,243;  640,871;41203,148;32,64208
 612,59;13862,161;  630,947;41214,166;32,60267
 613,16;13765,919;  606,026;41170,539;32,44189
 613,74;13647,413;  579,024;40990,914;32,33798
 614,32;13586,439;  540,408;41042,971;32,21038
 614,90;13489,119;  490,178;40866,286;32,19464
 615,48;13189,361;  452,487;40559,746;31,75703
 616,05;13123,267;  410,180;40471,966;31,73370
 616,63;12988,249;  401,104;40363,494;31,49748
 617,21;12825,808;  399,718;40268,994;31,16708
 617,79;12732,182;  387,333;40142,361;31,05230
 618,36;12643,616;  397,486;40069,057;30,86878
 618,94;12409,876;  336,410;39771,528;30,61603
 619,52;12322,197;  365,642;39429,093;30,60804
 620,10;12192,043;  354,487;39491,226;30,24666
 620,67;12105,517;  361,873;39350,492;30,12070
 621,25;11957,507;  372,409;39161,485;29,86691
 621,83;11838,273;  354,641;39088,347;29,64764
 622,41;11809,689;  391,026;39125,842;29,47907
 622,98;11699,188;  364,642;38758,549;29,52173
 623,56;11644,139;  365,181;38884,157;29,28156
 624,14;11443,897;  355,409;38728,291;28,89668
 624,72;11384,301;  341,718;38649,914;28,82564
 625,29;11302,176;  316,104;38666,309;28,64671
 625,87;11295,744;  360,641;38532,616;28,64694
 626,45;11133,543;  314,873;38446,873;28,37163
 627,02;11029,903;  335,256;38280,118;28,18470
 627,60;10895,280;  309,331;38281,586;27,87811
 628,18;10879,752;  300,795;38338,973;27,81142
 628,76;10874,897;  310,488;38379,025;27,75102
 629,33;10820,186;  323,334;38358,690;27,59762
 629,91;10706,889;  314,718;38329,687;27,33705
 630,49;10707,821;  344,488;38449,637;27,19667
 631,06;10645,080;  329,411;38535,475;27,00008
 631,64;10553,406;  330,488;38571,503;26,73286
 632,22;10486,684;  289,335;38453,021;26,72003
 632,79;10519,336;  314,489;38673,557;26,60348
 633,37;10464,470;  297,563;38843,835;26,37585
 633,95;10430,535;  304,873;38879,750;26,24937
 634,52;10364,317;  282,103;38992,354;26,04533
 635,10;10332,670;  293,872;39015,394;25,92563
 635,68;10285,542;  298,643;39256,610;25,63506
 636,25;10167,317;  287,567;39194,822;25,39308
 636,83;10148,205;  278,027;39495,718;25,16767
 637,41;10134,484;  282,258;39440,479;25,16005
 637,98;10133,646;  311,182;39708,412;24,93187
 638,56;10081,263;  313,182;39881,850;24,68640
 639,13;10004,002;  288,334;39933,633;24,50648
 639,71;10011,141;  304,950;40086,266;24,39887
 640,29; 9840,072;  256,796;39748,763;24,26639
 640,86; 9836,297;  264,949;40035,288;24,06655
 641,44; 9779,752;  279,949;40050,505;23,88652
 642,02; 9755,208;  299,488;40076,798;23,77164
 642,59; 9697,125;  274,949;40148,861;23,62992
 643,17; 9617,196;  281,334;40262,617;23,35058
 643,74; 9622,651;  280,180;40240,603;23,37931
 644,32; 9529,645;  297,872;40196,974;23,13780
 644,89; 9467,639;  294,641;40164,421;23,00739
 645,47; 9417,094;  303,641;40245,177;22,81698
 646,05; 9373,780;  290,411;40090,932;22,82224
 646,62; 9273,313;  289,641;40109,995;22,56050
 647,20; 9274,537;  289,718;40289,058;22,46242
 647,77; 9218,916;  265,487;40197,967;22,42142
 648,35; 9158,679;  256,026;40034,107;22,38080
 648,92; 9123,135;  298,949;40081,786;22,18089
 649,50; 8972,436;  255,026;40013,310;21,92602
 650,08; 8905,968;  261,410;39907,450;21,80434
 650,65; 8893,655;  262,333;40059,590;21,68823
 651,23; 8868,649;  243,564;40483,499;21,43414
 651,80; 9096,642;  258,179;41612,870;21,37233
 652,38; 9116,482;  261,872;42032,164;21,19835
 652,95; 9134,476;  233,256;42436,227;21,09145
 653,53; 9152,316;  276,564;42747,752;20,89829
 654,10; 9175,003;  289,718;42884,815;20,85988
 654,68; 9097,381;  250,641;42776,185;20,80336
 655,25; 9044,221;  264,872;42974,018;20,55613
 655,83; 8987,523;  245,179;43005,004;20,44523
 656,40; 8995,132;  284,795;42952,990;20,41412
 656,98; 8847,357;  253,179;42933,591;20,13612
 657,55; 8849,351;  261,410;42895,270;20,14347
 658,13; 8657,421;  252,641;42493,410;19,89732
 658,70; 8565,185;  269,102;42348,011;19,71554
 659,28; 8366,332;  260,640;41591,459;19,61174
 659,85; 8180,788;  256,948;40543,599;19,66865
 660,43; 8073,166;  275,948;40407,508;19,42914
 661,00; 8018,545;  262,486;40634,879;19,21129
 661,58; 8064,308;  249,794;40897,480;19,22499
 662,15; 8021,917;  239,333;41179,928;19,00946
 662,73; 8086,988;  299,948;41449,453;18,92378
 663,30; 8012,751;  268,563;41664,977;18,70739
 663,88; 8029,591;  270,948;41892,886;18,64075
 664,45; 7979,354;  255,486;42090,257;18,46279
 665,03; 8021,425;  264,717;42455,705;18,38475
 665,60; 8128,034;  312,102;42942,152;18,33433
 666,17; 8050,259;  271,255;43090,446;18,16710
 666,75; 8083,637;  261,025;43340,663;18,15849
 667,32; 8114,862;  289,948;43719,188;18,01762
 667,90; 8081,471;  266,101;43996,712;17,87162
 668,47; 8117,081;  294,640;44317,698;17,76896
 669,05; 8101,613;  269,486;44670,762;17,63942
 669,62; 8087,992;  245,178;44863,671;17,57750
 670,19; 8055,678;  254,794;44851,888;17,49191
 670,77; 8057,902;  265,793;45132,643;17,36719
 671,34; 7994,435;  268,793;45023,860;17,26205
 671,92; 8004,736;  253,947;45300,846;17,20604
 672,49; 7953,192;  269,947;45421,294;17,01665
 673,06; 7896,340;  224,024;45433,818;16,97047
 673,64; 7893,256;  255,947;45416,958;16,91129
 674,21; 7818,481;  237,255;45450,021;16,76789
 674,79; 7842,860;  262,255;45639,007;16,70592
 675,36; 7814,930;  276,947;45766,840;16,57068
 675,93; 7677,924;  253,332;45623,903;16,36434
 676,51; 7725,687;  281,870;45858,427;16,33256
 677,08; 7679,681;  268,101;45891,952;16,24497
 677,65; 7645,445;  263,947;45995,707;16,14086
 678,23; 7612,208;  268,485;46231,924;15,97731
 678,80; 7641,355;  257,101;46384,987;16,00822
 679,38; 7565,349;  241,639;46510,358;15,82864
 679,95; 7583,420;  267,485;46653,959;15,77170
 680,52; 7568,952;  250,639;47027,638;15,64511
 681,10; 7628,177;  270,331;47363,778;15,62393
 681,67; 7634,786;  272,562;47716,918;15,51760
 682,24; 7618,011;  236,254;47830,289;15,50984
 682,82; 7656,005;  250,716;48266,736;15,42254
 683,39; 7722,383;  279,331;48759,338;15,35283
 683,96; 7681,223;  243,869;48931,478;15,27566
 684,54; 7697,602;  237,408;49218,233;15,23085
 685,11; 7790,365;  268,254;49710,835;15,21383
 685,68; 7801,667;  255,023;50123,975;15,13295
 686,25; 7748,045;  242,254;50130,576;15,04519
 686,83; 7766,424;  243,715;50379,947;15,00453
 687,40; 7788,341;  228,023;50759,471;14,96161
 687,97; 7851,104;  276,331;51175,073;14,88204
 688,55; 7812,175;  237,869;51281,367;14,83892
 689,12; 7813,322;  225,254;51495,045;14,80027
 689,69; 7825,316;  232,023;51621,339;14,77602
 690,26; 7757,233;  242,869;51610,787;14,62852
 690,84; 7768,766;  241,946;51917,080;14,56565
 691,41; 7762,913;  250,638;51948,759;14,53104
 691,98; 7828,753;  256,561;52306,822;14,54785
 692,56; 7772,901;  235,253;52441,270;14,43827
 693,13; 7804,433;  294,869;52495,871;14,38586
 693,70; 7790,658;  274,176;52639,396;14,35396
 694,27; 7797,114;  250,715;52769,689;14,36890
 694,84; 7797,800;  243,561;52835,829;14,36378
 695,42; 7780,640;  284,023;52996,892;14,22161
 695,99; 7772,788;  250,099;53277,263;14,18648
 696,56; 7698,166;  243,099;53121,557;14,09849
 697,13; 7768,160;  264,022;53431,082;14,11426
 697,71; 7715,538;  219,638;53449,529;14,08213
 698,28; 7701,609;  251,253;53810,515;13,91049
 698,85; 7683,526;  218,330;53892,809;13,90828
 699,42; 7685,520;  225,715;54085,718;13,85036
 699,99; 7674,206;  265,253;54175,781;13,74305
 700,57; 7709,431;  265,868;54237,845;13,79153
 701,14; 7673,733;  245,176;54338,754;13,73279
 701,71; 7661,188;  249,330;54598,124;13,63758
 702,28; 7622,336;  256,407;54509,418;13,57700
 702,85; 7619,560;  258,484;54701,327;13,52074
 703,43; 7646,631;  273,714;54993,775;13,47388
 704,00; 7620,856;  279,483;55230,223;13,35992
 704,57; 7606,850;  259,791;55148,209;13,38544
 705,14; 7633,074;  288,330;55447,580;13,31553
 705,71; 7611,914;  304,483;55488,950;13,24183
 706,28; 7588,524;  265,714;55340,706;13,29607
 706,86; 7582,133;  295,252;55697,307;13,15273
 707,43; 7594,127;  310,022;55571,909;13,18106
 708,00; 7533,736;  290,252;55628,818;13,08940
 708,57; 7502,422;  268,098;55526,881;13,09172
 709,14; 7506,724;  293,791;55719,329;13,01374
 709,71; 7525,333;  276,560;55778,853;13,06031
 710,28; 7524,481;  279,637;56054,301;12,98949
 710,86; 7530,936;  291,175;56245,287;12,93875
 711,43; 7521,853;  290,406;56174,812;12,94001
 712,00; 7456,693;  274,637;56266,490;12,82697
 712,57; 7465,995;  275,791;56451,861;12,79941
 713,14; 7459,835;  262,252;56564,847;12,78375
 713,71; 7396,521;  270,021;56355,602;12,70647
 714,28; 7432,131;  257,560;56496,742;12,75725
 714,85; 7377,509;  242,790;56285,498;12,73086
 715,42; 7341,734;  253,098;56570,330;12,58697
 716,00; 7409,112;  284,329;56620,008;12,64702
 716,57; 7375,029;  247,636;56825,918;12,59740
 717,14; 7365,562;  228,329;56662,134;12,64709
 717,71; 7334,940;  227,636;56615,659;12,60428
 718,28; 7391,934;  255,405;56809,337;12,61898
 718,85; 7327,389;  227,252;56777,554;12,55544
 719,42; 7370,845;  251,790;56956,925;12,55452
 719,99; 7286,993;  222,405;56871,680;12,47075
 720,56; 7348,679;  244,328;57079,282;12,49997
 721,13; 7327,673;  243,867;57071,037;12,46553
 721,70; 7275,282;  235,405;56982,716;12,40566
 722,27; 7347,891;  254,867;57061,317;12,48630
 722,84; 7355,500;  280,867;57280,842;12,41164
 723,41; 7310,187;  234,251;57128,136;12,43708
 723,98; 7282,411;  241,328;57476,276;12,30207
 724,55; 7344,021;  262,328;57525,877;12,36684
 725,12; 7295,091;  207,636;57460,709;12,37917
 725,69; 7341,008;  237,020;57676,772;12,36772
 726,27; 7294,925;  233,020;57737,989;12,28051
 726,84; 7356,227;  240,636;58096,668;12,29879
 727,41; 7355,528;  251,251;57917,039;12,31974
 727,98; 7400,984;  263,020;58335,717;12,29143
 728,55; 7419,286;  283,020;58212,549;12,31887
 729,12; 7382,356;  230,328;58427,843;12,28923
 729,69; 7445,196;  268,559;58545,983;12,31461
 730,26; 7449,267;  275,251;58827,046;12,25243
 730,82; 7457,492;  245,712;58534,955;12,37240
 731,39; 7421,409;  244,097;58687,249;12,28084
 731,96; 7456,018;  238,866;58878,312;12,30767
 732,53; 7486,935;  269,251;59284,914;12,23012
 733,10; 7534,467;  270,558;59342,284;12,29676
 733,67; 7536,538;  277,097;59617,578;12,23354
 734,24; 7519,763;  258,020;59095,872;12,34196
 734,81; 7535,834;  285,097;59304,397;12,28537
 735,38; 7511,289;  263,097;59005,075;12,33903
 735,95; 7495,821;  264,789;58936,215;12,32462
 736,52; 7496,431;  280,096;59168,663;12,25422
 737,09; 7510,655;  276,635;58809,033;12,35900
 737,66; 7531,111;  316,712;59152,712;12,26188
 738,23; 7535,643;  248,866;59120,159;12,37747
 738,80; 7611,560;  294,635;59379,761;12,38370
 739,37; 7572,785;  293,866;59598,824;12,27371
 739,94; 7602,548;  277,865;59713,887;12,32364
 740,51; 7667,234;  326,250;59698,258;12,36439
 741,07; 7584,920;  267,865;59637,475;12,32458
 741,64; 7639,068;  288,404;59815,307;12,34847
 742,21; 7597,293;  274,096;59962,755;12,26899
 742,78; 7592,979;  246,327;59720,818;12,35261
 743,35; 7646,819;  261,634;60063,265;12,34947
 743,92; 7704,582;  301,942;60219,098;12,35479
 744,49; 7709,653;  279,250;60013,084;12,43919
 745,06; 7655,647;  268,250;60047,301;12,35784
 745,63; 7633,179;  252,865;60047,902;12,34269
 746,19; 7705,481;  258,942;59949,811;12,47517
 746,76; 7721,244;  272,557;60104,413;12,44937
 747,33; 7709,853;  253,865;60042,937;12,47049
 747,90; 7752,232;  273,173;60244,770;12,47100
 748,47; 7767,764;  286,096;60168,371;12,49396
 749,04; 7797,143;  282,942;60151,204;12,55123
 749,61; 7866,598;  291,480;60108,882;12,66374
 750,17; 7834,438;  278,634;60286,176;12,59142
 750,74; 7846,432;  284,557;60067,470;12,64889
 751,31; 7826,195;  257,634;59969,763;12,67508
 751,88; 7781,189;  244,788;59851,903;12,64346
 752,45; 7815,875;  272,480;59977,505;12,63444
 753,02; 7775,177;  267,557;59914,414;12,58678
 753,58; 7875,709;  256,403;59677,939;12,82247
 754,15; 7847,857;  268,326;59703,463;12,75261
 754,72; 7819,774;  247,172;59566,834;12,76575
 755,29; 7795,998;  243,634;59412,436;12,76410
 755,86; 7842,377;  261,480;59606,268;12,77433
 756,42; 7894,448;  268,710;59348,946;12,90743
 756,99; 7815,288;  222,864;59379,317;12,83448
 757,56; 7906,897;  245,787;59345,226;12,96308
 758,13; 7891,045;  201,480;59297,366;13,01201
 758,70; 7966,808;  227,326;59328,045;13,09541
 759,26; 7992,494;  219,787;59508,569;13,10991
 759,83; 8007,334;  217,249;59608,171;13,11663
 760,40; 8012,559;  215,556;59569,618;13,13643
 760,97; 8005,322;  191,941;59507,374;13,17259
 761,53; 7930,931;  167,787;59097,206;13,17363
 762,10; 7983,310;  188,864;59006,731;13,25183
 762,67; 8052,304;  215,556;58978,563;13,33619
 763,24; 7989,913;  171,864;58655,010;13,36804
 763,80; 8014,138;  215,941;58695,920;13,33481
 764,37; 7997,055;  221,633;58724,444;13,29068
 764,94; 7983,356;  202,479;58223,661;13,41041
 765,50; 8001,119;  200,941;58188,109;13,45156
 766,07; 8048,882;  250,941;58312,403;13,43050
 766,64; 7996,569;  222,402;57961,389;13,46433
 767,21; 7980,178;  218,479;57850,759;13,46762
 767,77; 8023,941;  245,017;57809,284;13,51346
 768,34; 8050,704;  254,633;57720,039;13,56655
 768,91; 8030,467;  249,171;57490,872;13,59375
 769,47; 8102,692;  242,094;57610,550;13,70195
 770,04; 8081,840;  264,094;57447,998;13,67123
 770,61; 8053,218;  238,556;57207,445;13,71742
 771,18; 8098,520;  229,017;57093,432;13,83906
 771,74; 8133,129;  251,786;57403,264;13,79027
 772,31; 8165,277;  254,632;57036,096;13,93174
 772,88; 8148,963;  219,555;56781,313;14,01903
 773,44; 8151,188;  231,325;56535,915;14,06611
 774,01; 8199,412;  242,017;56679,516;14,09948
 774,58; 8181,868;  224,786;56336,041;14,18090
 775,14; 8246,323;  214,171;56509,181;14,26797
 775,71; 8245,779;  233,863;56373,936;14,27130
 776,27; 8335,234;  273,632;56323,307;14,38296
 776,84; 8403,997;  278,171;56319,216;14,49978
 777,41; 8328,914;  255,324;56158,587;14,44207
 777,97; 8280,523;  248,324;55869,034;14,44102
 778,54; 8362,979;  248,632;55862,944;14,59039
 779,11; 8426,126;  258,170;55932,391;14,67098
 779,67; 8380,043;  230,093;55868,993;14,64794
 780,24; 8404,576;  253,863;55591,825;14,72897
 780,80; 8438,185;  263,401;55479,273;14,80513
 781,37; 8433,025;  252,939;55529,951;14,79835
 781,94; 8406,019;  254,862;55312,629;14,80474
 782,50; 8498,321;  256,170;55101,000;15,02813
 783,07; 8470,776;  272,401;55288,525;14,90177
 783,63; 8522,231;  230,247;55059,588;15,12326
 784,20; 8547,918;  255,478;55068,112;15,12870
 784,77; 8477,373;  249,401;54868,560;15,06426
 785,33; 8467,675;  226,170;54638,085;15,14651
 785,90; 8512,438;  246,554;54549,609;15,22176
 786,46; 8544,739;  265,939;54460,518;15,27607
 787,03; 8527,272;  237,016;54258,582;15,34620
 787,59; 8550,496;  245,708;54143,568;15,40838
 788,16; 8545,183;  241,785;54108,708;15,41465
 788,73; 8568,561;  245,400;54001,078;15,48331
 789,29; 8528,478;  241,631;53561,988;15,54162
 789,86; 8602,472;  246,016;53556,281;15,67514
 790,42; 8566,850;  255,093;53430,575;15,63081
 790,99; 8571,537;  254,246;53023,484;15,76163
 791,55; 8557,223;  236,016;53114,009;15,73662
 792,12; 8588,524;  259,092;53020,149;15,78708
 792,68; 8574,057;  239,939;52791,366;15,85898
 793,25; 8583,512;  247,015;52456,275;15,96747
 793,81; 8662,660;  277,400;52162,646;16,16116
 794,38; 8532,731;  221,708;51920,940;16,07572
 794,94; 8612,725;  227,323;51778,464;16,26618
 795,51; 8576,872;  243,708;51502,220;16,25713
 796,07; 8572,943;  253,015;51154,283;16,34523
 796,64; 8655,476;  272,477;51359,653;16,40920
 797,20; 8586,085;  240,938;50841,024;16,49236
 797,77; 8539,156;  231,246;50515,472;16,52190
 798,33; 8529,842;  230,861;50318,612;16,56888
 798,90; 8608,143;  267,554;50350,290;16,65362
 799,46; 8550,599;  243,092;49905,892;16,72783
 800,03; 8578,670;  251,246;49702,570;16,83964
 800,59; 8585,279;  264,246;49447,556;16,91841
 801,15; 8592,504;  256,169;49249,696;17,01518
 801,72; 8580,805;  253,246;48855,452;17,13412
 802,28; 8546,338;  285,707;48559,976;17,11187
 802,85; 8569,255;  252,861;48411,885;17,26861
 803,41; 8558,556;  252,553;48186,025;17,32819
 803,98; 8508,165;  238,861;47748,858;17,40540
 804,54; 8526,852;  241,938;47473,921;17,54090
 805,11; 8533,615;  251,168;47388,676;17,57082
 805,67; 8505,916;  264,322;47262,739;17,53590
 806,23; 8471,218;  257,015;46777,571;17,65715
 806,80; 8522,750;  271,091;46658,327;17,78864
 807,36; 8511,513;  276,399;46582,928;17,78392
 807,93; 8560,123;  277,322;46312,914;17,99217
 808,49; 8492,040;  234,784;45881,900;18,08933
 809,05; 8453,572;  223,399;45730,810;18,08535
 809,62; 8534,720;  256,707;45606,565;18,25367
 810,18; 8544,252;  257,399;45514,320;18,31069
 810,74; 8512,015;  234,322;45219,614;18,40089
 811,31; 8478,548;  232,553;44936,677;18,44571
 811,87; 8528,772;  234,860;44874,894;18,57954
 812,44; 8537,920;  272,783;44842,726;18,54419
 813,00; 8497,837;  212,168;44537,251;18,69296
 813,56; 8541,139;  244,552;44600,699;18,70448
 814,13; 8513,748;  239,937;44506,223;18,69100
 814,69; 8506,126;  247,860;44407,440;18,70096
 815,25; 8466,659;  219,245;43855,965;18,90017
 815,82; 8505,114;  256,783;43796,335;18,94446
 816,38; 8558,185;  262,783;43605,706;19,13900
 816,94; 8428,486;  220,245;43263,154;19,06991
 817,51; 8445,096;  215,629;43108,832;19,18595
 818,07; 8429,090;  223,091;42865,588;19,24371
 818,63; 8408,545;  240,398;42571,497;19,29585
 819,20; 8431,847;  235,398;42559,791;19,36578
 819,76; 8431,302;  223,552;42053,854;19,62154
 820,32; 8430,373;  272,244;42024,378;19,53943
 820,89; 8451,598;  255,167;41769,980;19,74339
 821,45; 8399,976;  234,475;41470,120;19,80205
 822,01; 8385,662;  249,629;41212,490;19,86198
 822,57; 8420,579;  259,783;41085,092;19,98955
 823,14; 8384,881;  225,475;40882,693;20,06878
 823,70; 8391,875;  218,706;40583,218;20,24840
 824,26; 8362,176;  228,936;40340,127;20,27674
 824,82; 8391,170;  252,552;40181,883;20,38256
 825,39; 8328,933;  227,859;39873,023;20,43395
 825,95; 8392,235;  256,398;39937,778;20,50291
 826,51; 8321,767;  249,552;39501,918;20,56491
 827,08; 8431,377;  270,244;39705,827;20,69484
 827,64; 8375,909;  260,936;39398,275;20,73461
 828,20; 8367,672;  233,859;39124,799;20,91442
 828,76; 8385,666;  245,474;39040,478;20,98258
 829,32; 8398,583;  254,321;38899,233;21,07460
 829,89; 8363,577;  212,321;38687,604;21,18570
 830,45; 8366,263;  229,936;38682,359;21,15947
 831,01; 8349,949;  221,936;38457,576;21,25769
 831,57; 8364,251;  234,628;38340,178;21,33448
 832,14; 8383,168;  231,167;38418,087;21,34763
 832,70; 8379,315;  232,705;38101,304;21,51284
 833,26; 8337,463;  220,320;37979,213;21,49730
 833,82; 8385,226;  230,705;37849,122;21,67694
 834,38; 8427,297;  225,320;37884,954;21,77923
 834,95; 8386,445;  213,936;37765,633;21,76336
 835,51; 8365,823;  192,166;37620,619;21,83808
 836,07; 8492,740;  232,859;37709,990;22,03979
 836,63; 8530,196;  244,320;37710,437;22,11565
 837,19; 8523,113;  231,782;37494,116;22,25124
 837,75; 8453,491;  204,012;37174,563;22,31365
 838,32; 8570,562;  244,935;37201,473;22,52816
 838,88; 8583,633;  252,320;37381,074;22,43898
 839,44; 8581,396;  237,243;37208,445;22,56933
 840,00; 8621,621;  233,551;37106,585;22,74852
 840,56; 8575,615;  210,089;36842,340;22,83650
 841,12; 8618,224;  211,474;36801,326;22,97563
 841,68; 8582,833;  209,012;36654,851;22,97607
 842,25; 8636,904;  217,320;36602,222;23,14032
 842,81; 8599,052;  215,012;36276,054;23,24958
 843,37; 8668,353;  205,704;36358,963;23,40771
 843,93; 8648,501;  223,320;36140,565;23,45720
 844,49; 8721,110;  230,396;36145,859;23,64083
 845,05; 8704,566;  204,089;36008,460;23,74145
 845,61; 8823,252;  240,858;36106,831;23,92907
 846,17; 8762,477;  225,781;35977,586;23,87766
 846,73; 8838,009;  228,396;35902,495;24,13407
 847,29; 8806,003;  204,012;35749,866;24,19970
 847,86; 8790,458;  213,242;35627,083;24,21995
 848,42; 8812,144;  204,858;35443,531;24,42568
 848,98; 8843,600;  219,704;35396,055;24,51618
 849,54; 8850,594;  211,242;35299,195;24,62199
 850,10; 8876,126;  226,627;35297,489;24,66292
 850,66; 8847,658;  202,088;35152,090;24,73697
 851,22; 8846,191;  196,627;35074,461;24,79960
 851,78; 8936,108;  250,242;35120,447;24,90913
 852,34; 8929,794;  227,011;34792,126;25,17794
 852,90; 8902,634;  210,165;34638,420;25,24807
 853,46; 8854,782;  207,703;34422,483;25,27293
 854,02; 8930,622;  222,473;34570,776;25,35249
 854,58; 8883,693;  206,550;34248,070;25,48988
 855,14; 8903,148;  188,088;34113,672;25,68876
 855,70; 8842,527;  181,088;34010,119;25,60357
 856,26; 8951,444;  230,857;33985,413;25,83529
 856,82; 8951,207;  211,011;33795,476;26,02452
 857,38; 8987,124;  232,780;33755,001;26,11505
 857,94; 8938,194;  223,318;33563,141;26,13954
 858,50; 8978,265;  227,472;33468,435;26,32533
 859,06; 8941,182;  212,857;33216,113;26,44686
 859,62; 8981,176;  238,165;33200,638;26,52414
 860,18; 8973,708;  211,703;32975,239;26,74316
 860,74; 8950,241;  191,164;32877,995;26,79696
 861,30; 8945,773;  198,703;32637,750;26,96463
 861,86; 9036,998;  234,241;32729,967;27,08897
 862,42; 8949,376;  211,241;32530,722;27,03674
 862,98; 9006,601;  233,549;32460,324;27,22287
 863,54; 8986,826;  232,703;32223,233;27,36473
 864,10; 9023,743;  218,780;32280,296;27,46272
 864,66; 8943,967;  197,164;32030,436;27,47692
 865,22; 8976,038;  218,395;31993,114;27,56167
 865,78; 8933,878;  226,164;31765,024;27,60948
 866,34; 8985,487;  217,549;31711,471;27,84010
 866,90; 8982,866;  224,010;31595,842;27,91949
 867,45; 8897,014;  234,779;31383,982;27,80885
 868,01; 8924,931;  225,010;31204,122;28,08318
 868,57; 8891,001;  220,856;30995,954;28,17260
 869,13; 8859,226;  209,933;30903,633;28,17938
 869,69; 8879,835;  210,702;30762,849;28,37487
 870,25; 8836,983;  195,010;30629,220;28,39559
 870,81; 8900,900;  223,625;30592,745;28,57269
 871,37; 8899,663;  225,087;30508,423;28,64472
 871,93; 8881,426;  240,317;30317,409;28,72987
 872,49; 8910,574;  224,779;30062,395;29,11022
 873,04; 8802,876;  209,471;29764,382;29,07606
 873,60; 8859,254;  195,702;29773,906;29,29033
 874,16; 8841,710;  228,471;29725,815;29,20005
 874,72; 8862,479;  209,394;29565,508;29,47626
 875,28; 8880,940;  227,240;29508,892;29,55332
 875,84; 8924,402;  215,625;29468,508;29,77066
 876,40; 8900,325;  221,163;29483,277;29,66006
 876,95; 8966,094;  228,779;29318,585;30,03566
 877,51; 9025,940;  241,625;29324,046;30,20490
 878,07; 9086,556;  256,240;29308,892;30,39418
 878,63; 9063,633;  221,702;29386,123;30,31753
 879,19; 9164,479;  236,317;29306,892;30,71202
 879,75; 9182,017;  231,317;29315,585;30,77506
 880,30; 9197,094;  218,010;29349,738;30,82235
 880,86; 9320,094;  260,933;29409,200;31,07959
 881,42; 9397,094;  217,240;29516,585;31,33126
 881,98; 9447,633;  230,702;29638,585;31,34170
 882,54; 9506,556;  214,394;29673,585;31,54249
 883,09; 9605,017;  239,779;29802,200;31,67954
 883,65; 9686,863;  208,317;29926,815;31,89443
 884,21; 9839,171;  241,702;30083,892;32,16074
 884,77; 9836,094;  218,471;30170,277;32,11033
 885,32; 9896,710;  213,240;30367,662;32,11293
 885,88;10057,787;  256,702;30528,354;32,37711
 886,44;10095,556;  226,394;30561,277;32,53404
 887,00;10197,633;  239,856;30602,200;32,79647
 887,56;10265,787;  223,163;30764,969;32,88156
 888,11;10266,556;  210,317;30778,815;32,89739
 888,67;10384,325;  252,317;31034,662;32,91500
 889,23;10360,402;  237,471;31000,738;32,90590
 889,79;10400,940;  212,702;30827,354;33,27896
 890,34;10402,094;  218,702;30761,738;33,34113
 890,90;10566,479;  276,702;31002,738;33,48879
 891,46;10470,710;  214,625;30871,892;33,45401
 892,01;10515,479;  241,317;30809,123;33,61105
 892,57;10520,710;  249,317;30782,046;33,64060
 893,13;10443,017;  211,471;30613,508;33,65415
 893,69;10463,863;  211,548;30430,200;33,92711
 894,24;10509,479;  224,471;30329,738;34,16348
 894,80;10490,325;  227,702;30158,200;34,28818
 895,36;10470,863;  225,394;30082,200;34,31536
 895,91;10431,248;  223,856;29868,815;34,43213
 896,47;10426,171;  225,548;29737,815;34,56401
 897,03;10387,248;  215,394;29583,431;34,63580
 897,58;10392,325;  230,087;29458,969;34,76780
 898,14;10369,094;  234,163;29259,354;34,91771
 898,70;10263,633;  203,548;29083,277;34,83442
 899,25;10360,787;  218,240;29094,815;35,12379
 899,81;10281,710;  238,702;28850,123;35,10139
 900,37;10250,863;  202,471;28737,200;35,21461
 900,92;10285,940;  223,317;28698,892;35,33773
 901,48;10285,402;  218,087;28523,277;35,56703
 902,03;10248,402;  210,010;28373,277;35,64356
 902,59;10232,863;  215,394;28163,969;35,84250
 903,15;10291,633;  235,317;28146,277;36,02999
 903,70;10189,787;  234,163;27831,431;36,07467
 904,26;10164,171;  207,010;27701,046;36,21571
 904,82;10181,171;  216,856;27670,200;36,29545
 905,37;10162,017;  218,010;27592,354;36,32601
 905,93;10179,479;  218,625;27372,892;36,68246
 906,48;10162,787;  227,548;27292,123;36,70938
 907,04;10180,248;  232,317;27288,046;36,76830
 907,60;10173,940;  207,010;26962,738;37,25158
 908,15;10107,325;  206,087;26884,431;37,11339
 908,71;10186,171;  240,087;26822,508;37,41602
 909,26;10104,402;  211,471;26718,431;37,32201
 909,82;10176,325;  234,625;26520,431;37,82155
 910,37;10194,017;  255,010;26494,738;37,87771
 910,93;10135,940;  204,702;26271,815;38,09873
 911,48;10151,402;  205,933;26016,431;38,53265
 912,04;10113,248;  208,779;25987,969;38,42040
 912,60;10178,633;  217,779;25989,431;38,65043
 913,15;10160,248;  222,548;25880,969;38,73075
 913,71;10093,556;  204,702;25663,738;38,84222
 914,26;10137,094;  196,548;25538,354;39,22588
 914,82;10168,633;  218,317;25452,431;39,43200
 915,37;10123,171;  205,779;25397,431;39,36777
 915,93;10222,171;  239,010;25291,969;39,84823
 916,48;10168,094;  205,394;25086,431;40,04134
 917,04;10144,479;  228,702;25025,585;39,98800
 917,59;10182,402;  237,010;24963,046;40,22235
 918,15;10059,325;  187,548;24694,738;40,28115
 918,70;10091,787;  216,163;24653,738;40,41163
 919,26;10144,094;  216,702;24573,815;40,75767
 919,81;10020,325;  205,856;24446,277;40,48803
 920,37;10018,710;  212,625;24303,200;40,70507
 920,92;10049,787;  234,010;24199,200;40,95848
 921,48; 9879,556;  203,317;23943,046;40,75968
 922,03; 9961,171;  214,471;23948,123;41,06700
 922,59; 9917,402;  201,779;23805,892;41,16072
 923,14; 9895,094;  198,240;23665,046;41,32158
 923,69; 9910,787;  228,625;23581,354;41,46051
 924,25; 9895,863;  232,779;23595,508;41,36111
 924,80; 9849,787;  216,087;23307,585;41,71968
 925,36; 9831,171;  209,163;23299,892;41,67044
 925,91; 9837,402;  211,856;23093,892;42,06595
 926,47; 9853,863;  187,625;23053,046;42,27448
 927,02; 9845,017;  232,010;22928,046;42,35545
 927,57; 9785,325;  217,933;22757,200;42,44766
 928,13; 9811,094;  203,625;22745,738;42,62009
 928,68; 9843,017;  208,702;22598,431;43,03007
 929,24; 9747,479;  185,163;22383,046;43,07760
 929,79; 9731,479;  199,471;22287,200;43,15522
 930,34; 9697,094;  209,163;22196,123;43,15254
 930,90; 9699,633;  195,548;22095,815;43,39712
 931,45; 9752,017;  212,394;22056,738;43,67091
 932,01; 9757,325;  218,394;21929,354;43,93602
 932,56; 9674,940;  227,779;21786,969;43,81965
 933,11; 9733,402;  226,471;21769,662;44,12963
 933,67; 9677,402;  203,240;21552,585;44,37683
 934,22; 9693,556;  212,087;21467,354;44,60762
 934,77; 9619,017;  226,163;21440,046;44,27692
 935,33; 9626,479;  223,779;21228,431;44,76485
 935,88; 9638,402;  215,317;21155,200;45,00066
 936,43; 9593,248;  197,394;21104,200;44,94160
 936,99; 9622,094;  212,394;20907,277;45,46873
 937,54; 9519,171;  194,010;20763,431;45,33507
 938,09; 9556,787;  214,394;20733,123;45,53105
 938,65; 9506,094;  213,779;20592,354;45,59846
 939,20; 9502,633;  194,163;20559,354;45,70774
 939,75; 9484,402;  198,163;20358,200;46,06261
 940,31; 9458,479;  182,087;20308,969;46,08956
 940,86; 9491,556;  219,702;20218,046;46,36311
 941,41; 9554,017;  256,394;20175,354;46,67725
 941,96; 9451,017;  203,471;20056,662;46,57965
 942,52; 9455,325;  214,394;20002,738;46,69886
 943,07; 9353,094;  190,163;19846,431;46,61582
 943,62; 9347,017;  202,240;19760,585;46,75640
 944,18; 9343,633;  196,548;19663,969;46,98663
 944,73; 9347,940;  207,087;19558,046;47,23721
 945,28; 9255,248;  181,702;19285,046;47,49716
 945,83; 9287,325;  199,240;19313,662;47,54570
 946,39; 9301,556;  202,856;19304,508;47,63305
 946,94; 9291,325;  230,548;19179,123;47,81772
 947,49; 9240,787;  200,163;19056,277;47,94532
 948,04; 9254,863;  219,010;19013,508;48,07712
 948,59; 9300,248;  227,317;18957,354;48,44054
 949,15; 9244,556;  188,394;18849,277;48,53019
 949,70; 9192,479;  194,933;18773,738;48,42909
 950,25; 9174,787;  226,779;18670,892;48,51417
 950,80; 9151,248;  171,625;18547,046;48,86758
 951,36; 9085,017;  177,010;18350,046;49,01772
 951,91; 9157,633;  223,087;18425,200;49,08521
 952,46; 9054,863;  183,933;18200,738;49,23698
 953,01; 9106,787;  222,856;18321,277;49,08677
 953,56; 9056,094;  177,702;18106,662;49,51984
 954,11; 9090,556;  216,087;18032,892;49,80954
 954,67; 9057,479;  198,779;17954,969;49,89077
 955,22; 9018,325;  180,779;17802,431;50,15163
 955,77; 9023,094;  221,625;17822,969;50,00453
 956,32; 9030,940;  243,010;17689,354;50,37119
 956,87; 8917,940;  188,702;17499,585;50,42630
 957,42; 8915,479;  204,471;17490,123;50,39444
 957,98; 8924,479;  195,240;17383,354;50,78648
 958,53; 8950,556;  222,471;17341,969;50,98330
 959,08; 8916,710;  194,163;17226,815;51,21073
 959,63; 8865,171;  192,087;17128,123;51,21083
 960,18; 8891,633;  215,163;17113,277;51,34579
 960,73; 8869,710;  205,010;17021,277;51,52570
 961,28; 8847,787;  186,933;16850,815;51,97380
 961,83; 8848,710;  213,087;16829,277;51,97114
 962,39; 8778,556;  189,856;16719,508;51,95935
 962,94; 8806,402;  223,317;16656,815;52,22920
 963,49; 8770,094;  203,087;16471,662;52,65985
 964,04; 8777,940;  215,317;16481,508;52,64062
 964,59; 8684,248;  180,087;16306,892;52,73308
 965,14; 8736,710;  213,471;16273,200;53,07212
 965,69; 8683,863;  204,702;16118,046;53,28334
 966,24; 8718,940;  208,548;16067,354;53,66351
 966,79; 8694,402;  213,856;15941,662;53,92072
 967,34; 8617,787;  178,087;15834,046;53,90727
 967,89; 8616,556;  189,317;15766,508;54,09986
 968,44; 8624,248;  211,394;15739,123;54,17955
 968,99; 8632,248;  212,163;15617,277;54,65773
 969,55; 8609,787;  209,856;15543,585;54,78074
 970,10; 8568,017;  210,625;15387,354;55,06715
 970,65; 8527,094;  214,933;15328,815;54,99686
 971,20; 8474,787;  203,471;15221,892;55,07447
 971,75; 8421,479;  189,548;15016,892;55,51858
 972,30; 8364,787;  202,779;14988,354;55,20250
 972,85; 8303,171;  203,548;14955,662;54,90483
 973,40; 8264,479;  195,702;14768,354;55,36931
 973,95; 8276,017;  206,779;14719,200;55,60229
 974,50; 8285,940;  223,394;14604,046;56,06523
 975,05; 8203,863;  220,779;14528,277;55,79651
 975,60; 8216,479;  225,779;14499,892;55,98036
 976,15; 8157,863;  215,394;14385,815;56,04963
 976,70; 8149,556;  213,163;14295,585;56,35673
 977,25; 8111,402;  208,779;14246,431;56,29590
 977,80; 8022,402;  199,933;14070,969;56,39427
 978,35; 7992,556;  215,163;13921,200;56,74428
 978,89; 7973,556;  196,010;13858,892;56,92464
 979,44; 7941,171;  205,317;13801,046;56,89915
 979,99; 7825,325;  193,625;13576,815;57,02452
 980,54; 7825,556;  235,779;13537,431;57,05890
 981,09; 7840,633;  218,779;13386,431;57,88317
 981,64; 7789,556;  216,471;13246,123;58,12193
 982,19; 7758,094;  248,240;13218,815;57,89916
 982,74; 7703,940;  226,702;13068,892;58,22401
 983,29; 7634,556;  195,240;12960,431;58,27814
 983,84; 7548,556;  212,856;12819,046;58,19125
 984,39; 7640,633;  247,471;12780,277;58,99047
 984,94; 7440,710;  190,471;12605,277;58,39993
 985,49; 7469,171;  229,010;12594,200;58,55277
 986,03; 7407,863;  240,856;12523,431;58,35102
 986,58; 7387,556;  246,240;12336,354;59,06740
 987,13; 7277,863;  218,240;12182,662;59,00514
 987,68; 7242,479;  230,163;12091,585;59,11868
 988,23; 7223,787;  229,933;12044,508;59,19683
 988,78; 7143,556;  214,317;11896,508;59,31455
 989,33; 7072,017;  228,471;11790,969;59,18744
 989,88; 7095,633;  235,394;11768,508;59,48297
 990,42; 7053,017;  219,625;11560,354;60,25532
 990,97; 6913,094;  216,856;11451,354;59,60425
 991,52; 6885,710;  239,779;11399,585;59,55239
 992,07; 6852,017;  244,394;11279,277;59,87941
 992,62; 6766,017;  230,163;11193,431;59,61593
 993,17; 6701,017;  230,471;11045,662;59,82831
 993,71; 6660,094;  222,471;10962,046;59,94300
 994,26; 6581,171;  199,471;10790,431;60,25611
 994,81; 6618,248;  232,779;10751,969;60,70305
 995,36; 6499,787;  218,702;10593,046;60,54440
 995,91; 6475,863;  223,317;10579,277;60,37631
 996,45; 6401,479;  228,548;10423,046;60,55159
 997,00; 6361,556;  199,471;10229,431;61,43678
 997,55; 6374,633;  216,702;10290,815;61,12628
 998,10; 6257,402;  247,317;10106,662;60,95826
 998,65; 6259,787;  218,779;10045,662;61,47430
 999,19; 6209,787;  237,317; 9846,277;62,15521
 999,74; 6153,402;  252,779; 9788,892;61,87660
1000,29; 6113,479;  227,933; 9701,815;62,12391
1000,84; 6031,094;  216,317; 9565,969;62,19244
1001,38; 6010,017;  220,702; 9439,508;62,79897
1001,93; 5977,556;  237,087; 9388,585;62,72710
1002,48; 5874,248;  203,087; 9251,662;62,67464
1003,03; 5883,710;  221,856; 9196,969;63,08393
1003,57; 5799,017;  231,087; 9100,738;62,77508
1004,12; 5800,248;  245,010; 8986,123;63,55298
1004,67; 5693,556;  214,779; 8895,277;63,11593
1005,22; 5571,940;  210,933; 8746,969;62,80441
1005,76; 5579,017;  205,548; 8598,431;64,02412
1006,31; 5496,094;  242,625; 8582,508;62,99212
1006,86; 5457,710;  211,010; 8482,738;63,42930
1007,40; 5358,787;  196,471; 8278,046;63,87759
1007,95; 5300,402;  215,163; 8231,277;63,43771
1008,50; 5227,402;  218,933; 8077,508;63,73254
1009,04; 5171,171;  225,625; 8005,123;63,57153
1009,59; 5097,402;  231,625; 7830,585;64,03215
1010,14; 5049,017;  211,471; 7737,277;64,27944
1010,68; 4960,248;  219,087; 7635,585;63,92723
1011,23; 4910,710;  200,548; 7480,662;64,69901
1011,78; 4863,402;  229,856; 7416,508;64,47434
1012,32; 4809,710;  217,240; 7308,738;64,76021
1012,87; 4797,787;  244,933; 7266,738;64,83879
1013,42; 4706,787;  209,240; 7137,046;64,92021
1013,96; 4718,863;  242,163; 7109,815;65,18531
1014,51; 4624,863;  195,779; 6996,431;65,12735
1015,06; 4676,325;  196,471; 7019,431;65,65851
1015,60; 4735,940;  260,702; 7074,738;65,67676
1016,15; 4696,940;  215,394; 7027,354;65,78938
1016,69; 4705,402;  210,702; 7032,892;65,88353
1017,24; 4718,633;  201,625; 7041,277;66,04148
1017,79; 4839,248;  236,625; 7133,046;66,73930
1018,33; 4815,325;  196,856; 7086,431;67,03562
1018,88; 4864,248;  217,856; 7119,123;67,32665
1019,42; 4876,402;  221,625; 7189,431;66,80406
1019,97; 4891,710;  212,010; 7144,431;67,50455
1020,51; 4921,248;  216,317; 7204,585;67,32614
1021,06; 4926,556;  211,240; 7194,277;67,52529
1021,61; 4895,787;  190,087; 7111,277;67,98975
1022,15; 4877,479;  171,856; 7116,969;67,75444
1022,70; 4938,633;  215,856; 7101,815;68,58560
1023,24; 4907,017;  204,548; 7089,123;68,30442
1023,79; 4871,787;  220,163; 7016,892;68,43914
1024,33; 4888,556;  218,087; 7014,508;68,71954
1024,88; 4820,171;  219,240; 6898,200;68,88694
1025,42; 4714,940;  201,779; 6767,585;68,73736
1025,97; 4694,863;  203,933; 6709,815;69,02877
1026,51; 4610,479;  173,087; 6576,123;69,30137
1027,06; 4563,710;  209,317; 6514,508;69,06044
1027,60; 4476,017;  207,702; 6401,508;68,91265
1028,15; 4442,556;  221,087; 6325,200;69,15778
1028,69; 4341,556;  174,317; 6191,277;69,25821
1029,24; 4338,556;  207,933; 6127,738;69,77633
1029,78; 4252,787;  205,779; 6030,892;69,47517
1030,33; 4147,633;  177,933; 5875,969;69,66786
1030,87; 4123,171;  206,471; 5843,354;69,48344
1031,42; 4039,940;  194,933; 5743,123;69,30201
1031,96; 4041,325;  212,317; 5674,431;70,10121
1032,51; 3945,633;  199,317; 5561,277;69,86840
1033,05; 3917,556;  208,163; 5559,431;69,31802
1033,60; 3817,633;  174,933; 5420,508;69,44329
1034,14; 3768,556;  199,933; 5322,815;69,66045
1034,69; 3730,863;  199,317; 5278,585;69,52865
1035,23; 3671,710;  204,702; 5203,662;69,35458
1035,77; 3625,710;  196,087; 5102,969;69,89413
1036,32; 3571,479;  180,779; 5061,277;69,47447
1036,86; 3543,017;  198,163; 5007,200;69,55351
1037,41; 3479,017;  204,625; 4916,046;69,49904
1037,95; 3429,863;  183,933; 4840,200;69,71101
1038,50; 3401,710;  196,240; 4790,200;69,77574
1039,04; 3390,325;  203,779; 4734,585;70,33067
1039,58; 3319,017;  192,010; 4634,892;70,38241
1040,13; 3276,248;  201,471; 4572,431;70,34558
1040,67; 3295,863;  223,394; 4554,431;70,94074
1041,21; 3230,556;  228,317; 4467,892;70,81461
1041,76; 3158,094;  176,471; 4386,431;70,82308
1042,30; 3139,633;  210,471; 4333,738;71,03982
1042,85; 3084,787;  207,856; 4276,046;70,71770
1043,39; 3048,710;  190,010; 4189,123;71,48334
1043,93; 3019,710;  217,394; 4146,431;71,32322
1044,48; 3000,171;  205,548; 4087,123;71,99714
1045,02; 2929,940;  202,856; 4031,046;71,23691
1045,56; 2930,017;  210,548; 3970,969;72,31821
1046,11; 2910,171;  210,394; 3918,277;72,81182
1046,65; 2863,017;  208,779; 3887,123;72,15851
1047,19; 2837,479;  198,779; 3772,354;73,83922
1047,74; 2784,094;  182,856; 3709,354;73,76265
1048,28; 2748,017;  210,779; 3699,123;72,73475
1048,82; 2744,863;  222,625; 3665,508;73,25949
1049,37; 2706,094;  205,240; 3596,738;73,73891
1049,91; 2690,863;  197,548; 3556,892;74,22030
1050,45; 2637,017;  228,317; 3497,738;73,67359
1050,99; 2606,248;  207,856; 3457,277;73,80983
1051,54; 2553,325;  196,933; 3406,969;73,40702
1052,08; 2561,787;  215,010; 3390,508;73,90264
1052,62; 2515,402;  221,548; 3324,277;73,93021
1053,16; 2452,479;  192,702; 3260,046;73,67210
1053,71; 2450,017;  215,856; 3214,123;74,51509
1054,25; 2407,017;  223,779; 3169,892;74,10572
1054,79; 2386,710;  211,933; 3115,354;74,90394
1055,33; 2312,633;  183,163; 3065,123;73,88963
1055,88; 2320,402;  227,317; 3055,123;74,01798
1056,42; 2292,633;  234,702; 3005,662;74,26780
1056,96; 2261,248;  221,240; 2946,508;74,85532
1057,50; 2220,787;  201,240; 2901,738;74,78421
1058,05; 2187,248;  212,625; 2862,354;74,52170
1058,59; 2175,402;  228,163; 2863,431;73,89150
1059,13; 2090,710;  196,163; 2778,892;73,35444
1059,67; 2097,479;  229,163; 2767,354;73,60817
1060,21; 2084,402;  218,240; 2707,815;74,95904
1060,76; 2060,787;  221,779; 2650,815;75,70935
1061,30; 2053,402;  232,010; 2631,815;75,89749
1061,84; 2001,787;  211,471; 2589,585;75,28301
1062,38; 1943,402;  205,317; 2537,738;74,51847
1062,92; 1994,479;  243,317; 2551,277;75,87488
1063,46; 1914,017;  229,933; 2483,585;74,72692
1064,01; 1898,633;  208,317; 2434,892;75,91549
1064,55; 1878,863;  217,163; 2405,431;75,93679
1065,09; 1822,248;  186,779; 2359,815;75,26193
1065,63; 1858,248;  232,471; 2386,508;75,47583
1066,17; 1856,863;  234,010; 2342,508;76,96729
1066,71; 1830,556;  230,087; 2316,969;76,69186
1067,25; 1772,787;  212,471; 2262,969;76,09446
1067,80; 1778,017;  233,163; 2246,123;76,74540
1068,34; 1775,479;  237,471; 2246,585;76,55156
1068,88; 1725,710;  213,087; 2162,431;77,59651
1069,42; 1727,171;  248,779; 2180,585;76,52903
1069,96; 1680,017;  218,625; 2115,738;77,03241
1070,50; 1729,556;  245,317; 2124,123;78,99904
1071,04; 1650,248;  212,394; 2064,354;77,63959
1071,58; 1629,479;  221,548; 2029,123;77,89059
1072,12; 1611,787;  212,625; 2019,892;77,41863
1072,66; 1620,094;  211,240; 1998,354;78,83405
1073,21; 1613,940;  230,163; 2000,738;78,15410
1073,75; 1570,633;  223,163; 1961,585;77,51109
1074,29; 1550,017;  230,087; 1930,277;77,63429
1074,83; 1579,094;  228,163; 1910,046;80,32253
1075,37; 1538,556;  226,856; 1907,508;78,04709
1075,91; 1532,633;  233,240; 1899,738;77,97143
1076,45; 1525,633;  229,317; 1849,662;80,00247
1076,99; 1473,325;  222,933; 1827,431;77,93043
1077,53; 1462,402;  207,625; 1766,200;80,50796
1078,07; 1437,402;  232,933; 1774,738;78,12069
1078,61; 1449,248;  223,087; 1751,123;80,24426
1079,15; 1418,094;  220,548; 1742,431;78,68847
1079,69; 1415,017;  234,933; 1710,200;79,99124
1080,23; 1418,940;  232,240; 1702,046;80,73856
1080,77; 1411,094;  252,240; 1702,354;79,91470
1081,31; 1364,710;  217,240; 1635,969;80,88009
1081,85; 1371,017;  233,240; 1652,508;80,16650
1082,39; 1330,171;  221,394; 1597,354;80,58208
1082,93; 1334,171;  216,010; 1611,892;80,10426
1083,47; 1291,171;  207,625; 1568,123;79,64334
1084,01; 1301,633;  236,625; 1576,046;79,51253
1084,55; 1273,094;  216,163; 1516,738;81,26642
1085,09; 1282,017;  227,317; 1543,277;80,14684
1085,63; 1250,710;  219,394; 1525,662;78,95133
1086,17; 1236,710;  213,394; 1487,892;80,29164
1086,71; 1222,402;  214,087; 1471,277;80,20387
1087,24; 1227,017;  237,625; 1468,662;80,37067
1087,78; 1232,940;  235,702; 1460,662;81,40991
1088,32; 1203,171;  221,548; 1420,662;81,86240
1088,86; 1203,094;  241,702; 1424,508;81,28066
1089,40; 1182,863;  226,779; 1386,431;82,44583
1089,94; 1141,787;  193,702; 1343,815;82,43401
1090,48; 1138,248;  233,779; 1347,969;81,17726
1091,02; 1138,479;  229,933; 1353,431;80,86762
1091,56; 1127,787;  238,702; 1347,277;80,20067
1092,10; 1086,633;  207,240; 1278,892;82,05951
1092,63; 1134,248;  235,317; 1306,662;83,90681
1093,17; 1096,940;  223,625; 1280,969;82,59518
1093,71; 1075,171;  211,548; 1279,815;80,84335
1094,25; 1055,710;  246,010; 1260,662;79,80077
1094,79; 1038,248;  223,163; 1235,123;80,54517
1095,33; 1043,556;  229,394; 1229,585;81,40066
1095,87; 1033,017;  223,471; 1204,508;82,51947
1096,40; 1006,787;  200,548; 1177,277;82,54476
1096,94; 1009,325;  220,087; 1190,508;81,32948
1097,48; 1004,325;  224,240; 1172,354;82,27756
1098,02;  981,017;  222,087; 1139,277;82,74517
1098,56;  953,017;  200,548; 1117,354;82,07510
1099,10;  944,017;  202,933; 1101,892;82,43803
1099,63;  926,402;  211,933; 1091,969;81,18631
1100,17;  940,787;  228,471; 1098,431;81,87913
1100,71;  958,863;  240,779; 1111,508;82,46937

