
Integration time [ms]: 115,000
Averaging Nr. [scans]: 13
Smoothing Nr. [pixels]: 0
Data measured with spectrometer [name]: 2009305U1
Wave   ;Sample   ;Dark     ;Reference;Reflectance
[nm]   ;[counts] ;[counts] ;[counts] ;[%]

 175,72;  202,444;  176,239;  216,377;65,28635
 176,32;  226,777;  211,934;  220,629;170,69725
 176,92;  259,740;  225,163;  254,806;116,64563
 177,52;  247,611;  252,086;  276,497;-18,33263
 178,12;  218,209;  223,549;  229,646;-87,58490
 178,72;  264,842;  243,857;  246,426;816,86561
 179,32;  259,528;  236,780;  245,502;260,81059
 179,92;  249,634;  232,933;  243,184;162,91395
 180,52;  244,589;  234,084;  251,849;59,13078
 181,12;  243,461;  235,010;  258,040;36,69486
 181,73;  263,379;  253,163;  272,610;52,53165
 182,33;  352,743;  298,008;  354,611;96,70026
 182,93;  266,153;  245,240;  267,679;93,19895
 183,53;  231,902;  227,319;  231,255;116,44173
 184,13;  250,710;  231,011;  230,121; 0,00000
 184,73;  277,167;  249,935;  276,206;103,65745
 185,33;  269,499;  222,716;  348,805;37,10328
 185,93;  275,964;  214,717;  380,479;36,94888
 186,53;  290,744;  241,332;  381,727;35,19543
 187,13;  317,879;  264,099;  406,630;37,73211
 187,73;  281,033;  220,102;  379,098;38,32258
 188,33;  275,026;  227,718;  376,187;31,86410
 188,93;  289,915;  231,182;  389,757;37,03799
 189,53;  297,933;  240,799;  389,798;38,34488
 190,13;  340,579;  271,649;  443,566;40,09522
 190,73;  283,725;  217,185;  377,425;41,52553
 191,34;  309,593;  254,183;  413,712;34,73355
 191,94;  280,162;  227,565;  367,514;37,58341
 192,54;  301,108;  237,868;  406,065;37,59861
 193,14;  299,572;  248,715;  393,108;35,22145
 193,74;  285,244;  249,561;  386,677;26,02374
 194,34;  291,178;  235,099;  379,479;38,84151
 194,94;  267,114;  206,792;  347,521;42,86428
 195,54;  239,990;  196,177;  321,772;34,88396
 196,14;  256,902;  218,484;  355,903;27,95710
 196,74;  256,229;  211,331;  351,478;32,03660
 197,34;  245,311;  187,252;  345,540;36,67942
 197,94;  275,912;  225,715;  362,779;36,62308
 198,54;  276,114;  217,484;  389,006;34,18263
 199,14;  255,682;  197,636;  381,096;31,63946
 199,74;  250,678;  198,097;  381,375;28,68899
 200,34;  249,498;  186,097;  382,635;32,25850
 200,94;  288,920;  223,637;  421,823;32,94052
 201,54;  268,467;  202,328;  428,459;29,24800
 202,14;  303,499;  211,635;  474,923;34,89106
 202,74;  277,554;  204,328;  476,128;26,94106
 203,34;  261,353;  195,558;  479,311;23,18740
 203,94;  251,711;  163,635;  500,548;26,14196
 204,54;  318,761;  228,869;  592,022;24,75332
 205,14;  290,279;  199,405;  597,661;22,81792
 205,74;  355,207;  218,481;  690,215;28,98364
 206,34;  311,869;  197,405;  690,439;23,21634
 206,94;  339,053;  203,328;  773,362;23,81010
 207,54;  312,899;  180,251;  804,961;21,23355
 208,14;  344,315;  195,097;  861,786;22,38206
 208,74;  366,078;  194,559;  953,337;22,60462
 209,34;  384,092;  193,636; 1030,265;22,76466
 209,94;  401,235;  202,328; 1148,580;21,02047
 210,54;  425,073;  198,866; 1237,375;21,78187
 211,14;  441,242;  209,174; 1365,714;20,06571
 211,73;  459,464;  201,175; 1462,293;20,48098
 212,33;  474,078;  218,791; 1597,159;18,52097
 212,93;  505,393;  196,636; 1668,394;20,97879
 213,53;  479,151;  181,790; 1767,846;18,74846
 214,13;  525,226;  176,403; 1856,152;20,76634
 214,73;  529,191;  178,481; 1880,384;20,60693
 215,33;  506,466;  156,405; 1915,118;19,90435
 215,93;  559,716;  188,327; 2037,402;20,08512
 216,53;  558,690;  142,559; 2075,324;21,53035
 217,13;  633,050;  210,866; 2307,296;20,13827
 217,73;  661,785;  181,250; 2505,729;20,67281
 218,33;  671,855;  162,403; 2685,388;20,19242
 218,93;  770,572;  172,632; 2992,680;21,20318
 219,53;  827,235;  174,942; 3296,897;20,89376
 220,13;  875,769;  151,557; 3577,759;21,13746
 220,73;  984,919;  167,405; 3938,368;21,67919
 221,32; 1100,155;  178,251; 4361,644;22,03722
 221,92; 1220,762;  192,249; 4765,641;22,48906
 222,52; 1296,371;  172,558; 5220,516;22,26273
 223,12; 1430,360;  167,481; 5680,122;22,90878
 223,72; 1545,125;  185,019; 6134,170;22,86219
 224,32; 1653,766;  176,865; 6553,184;23,16227
 224,92; 1733,729;  175,404; 6818,083;23,45929
 225,52; 1880,511;  188,020; 7246,795;23,97712
 226,12; 1951,267;  182,327; 7519,659;24,10876
 226,72; 2040,146;  155,174; 7864,594;24,45025
 227,31; 2133,956;  151,251; 8241,262;24,50807
 227,91; 2277,127;  174,405; 8608,273;24,93189
 228,51; 2408,440;  177,790; 9061,833;25,10849
 229,11; 2498,791;  166,020; 9428,961;25,18392
 229,71; 2624,207;  168,175; 9795,860;25,51010
 230,31; 2756,339;  163,326;10145,637;25,97608
 230,91; 2877,944;  163,483;10541,858;26,15497
 231,51; 2983,133;  147,173;10894,551;26,38746
 232,10; 3103,737;  152,172;11267,104;26,55495
 232,70; 3226,255;  167,484;11505,325;26,97843
 233,30; 3361,881;  192,789;11856,258;27,17110
 233,90; 3445,152;  163,789;12037,003;27,63669
 234,50; 3530,192;  175,558;12250,655;27,78143
 235,10; 3583,037;  157,404;12347,468;28,10185
 235,70; 3655,882;  192,020;12458,020;28,23954
 236,29; 3665,298;  182,251;12486,574;28,30750
 236,89; 3706,372;  165,022;12367,077;29,02257
 237,49; 3758,710;  177,173;12382,301;29,34452
 238,09; 3709,331;  176,789;12207,055;29,36379
 238,69; 3678,283;  193,099;12025,720;29,45403
 239,29; 3638,427;  168,328;11806,275;29,81710
 239,89; 3533,255;  178,791;11452,563;29,75458
 240,48; 3412,602;  173,635;11111,338;29,61286
 241,08; 3303,248;  163,097;10762,261;29,62640
 241,68; 3238,495;  198,558;10511,432;29,47711
 242,28; 3078,603;  162,404;10160,933;29,16628
 242,88; 3006,914;  190,480; 9825,661;29,23073
 243,48; 2909,175;  192,250; 9558,253;29,00837
 244,07; 2769,091;  186,482; 9286,172;28,38129
 244,67; 2689,539;  188,943; 9134,113;27,95470
 245,27; 2574,772;  182,329; 8936,369;27,32959
 245,87; 2515,933;  184,096; 8853,728;26,89661
 246,47; 2452,039;  172,329; 8804,009;26,41097
 247,06; 2378,485;  169,097; 8795,610;25,61160
 247,66; 2342,125;  170,943; 8817,762;25,10961
 248,26; 2344,156;  208,559; 8992,584;24,31228
 248,86; 2302,801;  189,559; 9141,797;23,60573
 249,46; 2265,906;  150,789; 9313,349;23,08435
 250,05; 2293,071;  191,405; 9693,550;22,11781
 250,65; 2270,945;  158,636;10006,744;21,44887
 251,25; 2333,120;  179,713;10412,907;21,04335
 251,85; 2369,123;  182,329;11056,103;20,11071
 252,44; 2418,887;  147,251;11624,928;19,79178
 253,04; 2505,073;  180,559;12334,676;19,12532
 253,64; 2534,868;  144,175;12999,837;18,59642
 254,24; 2670,152;  186,559;13928,194;18,07349
 254,84; 2783,522;  175,712;14774,119;17,86366
 255,43; 2896,437;  178,713;15718,690;17,48860
 256,03; 3016,549;  163,329;16666,213;17,28922
 256,63; 3127,412;  176,868;17718,668;16,82008
 257,23; 3239,808;  165,098;18500,507;16,76924
 257,82; 3344,342;  177,022;19474,686;16,41297
 258,42; 3399,102;  132,484;20270,264;16,22134
 259,02; 3584,213;  174,636;21174,808;16,23595
 259,62; 3630,015;  159,792;21804,596;16,03259
 260,21; 3743,060;  177,328;22295,978;16,12093
 260,81; 3792,967;  170,481;22823,178;15,99141
 261,41; 3860,859;  166,176;23209,931;16,03334
 262,01; 3975,497;  195,023;23642,910;16,12288
 262,60; 4006,500;  161,483;23968,584;16,15071
 263,20; 4072,680;  164,944;24178,655;16,27294
 263,80; 4142,252;  182,562;24384,042;16,36135
 264,40; 4227,939;  145,484;24473,227;16,78107
 264,99; 4250,417;  179,331;24635,359;16,64655
 265,59; 4311,971;  164,255;24795,929;16,83895
 266,19; 4425,709;  164,638;24886,859;17,23579
 266,78; 4529,456;  198,716;25019,817;17,44782
 267,38; 4556,289;  172,332;25091,828;17,59248
 267,98; 4636,910;  158,331;25004,990;18,02487
 268,58; 4719,406;  177,562;25077,419;18,24044
 269,17; 4756,912;  165,332;25112,785;18,40500
 269,77; 4784,560;  182,945;24923,644;18,59937
 270,37; 4830,479;  150,485;24758,337;19,01830
 270,96; 4921,709;  204,253;24703,174;19,25577
 271,56; 4904,145;  167,868;24397,106;19,54778
 272,16; 4920,889;  169,176;24154,837;19,81064
 272,75; 4988,515;  166,561;24041,291;20,19690
 273,35; 5055,023;  173,099;24093,138;20,40935
 273,95; 5111,742;  175,176;23998,878;20,72124
 274,54; 5186,441;  155,251;24001,451;21,09850
 275,14; 5347,305;  180,253;24296,492;21,42561
 275,74; 5397,175;  144,022;24387,065;21,66870
 276,33; 5597,967;  190,099;24762,723;22,00769
 276,93; 5710,143;  175,943;24987,120;22,30527
 277,53; 5887,448;  174,867;25496,469;22,56011
 278,12; 6067,195;  157,252;26003,751;22,86555
 278,72; 6349,980;  194,867;26636,274;23,27831
 279,32; 6531,280;  165,713;27171,463;23,57116
 279,91; 6773,040;  163,021;27905,256;23,82655
 280,51; 7026,576;  173,251;28428,361;24,25517
 281,11; 7271,465;  174,098;29118,155;24,52098
 281,70; 7500,788;  153,098;29568,424;24,97912
 282,30; 7739,914;  159,098;30230,644;25,20926
 282,90; 8034,859;  169,945;30561,185;25,87889
 283,49; 8267,019;  186,099;31199,186;26,05648
 284,09; 8584,990;  190,714;31628,304;26,70140
 284,69; 8847,999;  189,175;32037,341;27,18783
 285,28; 9026,147;  191,867;32500,794;27,34315
 285,88; 9267,834;  199,022;32695,762;27,90684
 286,47; 9456,325;  175,329;32693,137;28,54127
 287,07; 9692,284;  203,944;32809,646;29,10025
 287,67; 9952,021;  190,789;32982,022;29,76781
 288,26;10084,328;  169,559;32869,266;30,32067
 288,86;10403,275;  172,175;32963,147;31,20097
 289,46;10668,032;  170,636;33023,814;31,95245
 290,05;10913,354;  162,251;33047,628;32,69266
 290,65;11239,263;  175,252;33285,329;33,41584
 291,24;11548,002;  189,559;33411,430;34,18965
 291,84;11844,028;  182,406;33467,438;35,03563
 292,44;12210,699;  176,327;33666,984;35,93352
 293,03;12572,522;  230,636;33835,995;36,72595
 293,63;12810,977;  170,022;33925,161;37,44898
 294,22;13154,714;  194,175;34192,898;38,12066
 294,82;13426,221;  181,561;34111,735;39,03505
 295,41;13469,557;  153,944;33869,501;39,49397
 296,01;13653,388;  217,176;33826,800;39,97727
 296,61;13748,449;  179,559;33699,024;40,48063
 297,20;13750,164;  182,638;33244,688;41,03655
 297,80;13823,038;  187,635;33052,862;41,48884
 298,39;13662,815;  163,868;32744,796;41,43205
 298,99;13774,899;  175,638;32519,890;42,04537
 299,58;13734,927;  186,558;32371,911;42,09483
 300,18;13722,365;  207,097;32078,314;42,40587
 300,78;13663,704;  169,405;31723,868;42,76510
 301,37;13705,766;  186,639;31725,967;42,86435
 301,97;13701,688;  182,021;31752,405;42,82389
 302,56;13650,970;  166,099;31633,889;42,85293
 303,16;13609,095;  155,099;31597,477;42,78937
 303,75;13628,395;  174,405;31569,005;42,85447
 304,35;13730,191;  163,635;31819,100;42,85692
 304,94;13774,047;  180,098;31793,374;43,00076
 305,54;13719,770;  203,636;31684,952;42,93383
 306,13;13678,125;  149,173;31607,401;43,00608
 306,73;13633,259;  165,404;31473,524;43,01713
 307,33;13541,454;  185,020;31361,055;42,84199
 307,92;13524,174;  169,944;31395,096;42,76754
 308,52;13702,546;  165,099;31890,100;42,67123
 309,11;13885,132;  172,638;32427,632;42,51278
 309,71;13976,515;  155,177;32681,960;42,49218
 310,30;14079,394;  157,098;32836,795;42,60228
 310,90;14172,163;  179,329;33162,180;42,42458
 311,49;14199,039;  182,559;33344,317;42,26700
 312,09;14223,094;  142,636;33547,722;42,15064
 312,68;14365,766;  201,790;33927,769;41,99723
 313,28;14340,174;  152,559;33956,788;41,96994
 313,87;14281,555;  150,482;34176,314;41,53043
 314,47;14348,105;  167,253;34398,507;41,42662
 315,06;14347,034;  148,405;34567,733;41,25191
 315,66;14269,325;  158,943;34854,645;40,66896
 316,25;14167,373;  140,406;34689,418;40,60020
 316,85;14058,262;  139,559;34777,975;40,18285
 317,44;14049,546;  158,561;34947,829;39,92894
 318,04;13939,665;  148,945;34913,363;39,66907
 318,63;13839,354;  148,712;34929,575;39,36257
 319,22;13728,710;  174,253;35197,076;38,70178
 319,82;13625,268;  176,483;35096,106;38,51355
 320,41;13472,413;  161,945;35099,992;38,09734
 321,01;13397,974;  171,020;35141,349;37,82336
 321,60;13286,012;  166,714;35251,383;37,39325
 322,20;13115,533;  161,405;35121,065;37,05450
 322,79;13020,360;  191,790;35166,860;36,67918
 323,39;12867,668;  168,250;35279,984;36,16859
 323,98;12701,078;  153,251;35282,413;35,71912
 324,58;12525,795;  157,176;35187,689;35,30813
 325,17;12344,443;  167,637;35145,514;34,81288
 325,76;12175,138;  182,867;34943,934;34,49914
 326,36;11900,380;  147,174;34505,813;34,20743
 326,95;11682,330;  174,406;34216,453;33,80503
 327,55;11412,928;  161,560;33888,496;33,36018
 328,14;11140,507;  160,558;33455,672;32,97766
 328,74;10900,666;  193,637;33098,303;32,53955
 329,33;10684,194;  182,328;32807,741;32,18922
 329,92;10319,491;  159,869;32210,755;31,69841
 330,52;10014,689;  177,097;31505,485;31,40153
 331,11; 9734,722;  174,790;31212,280;30,80124
 331,71; 9479,501;  171,560;30432,102;30,75934
 332,30; 9201,970;  186,406;30077,143;30,16173
 332,89; 8991,069;  194,867;29511,339;30,00430
 333,49; 8658,041;  191,483;28964,734;29,42510
 334,08; 8403,833;  176,252;28472,291;29,07679
 334,68; 8186,580;  178,944;28023,751;28,75809
 335,27; 7928,513;  189,097;27739,620;28,09172
 335,86; 7775,261;  198,252;27392,433;27,86261
 336,46; 7576,871;  178,404;27143,820;27,43687
 337,05; 7401,609;  173,175;26956,025;26,98904
 337,65; 7212,906;  154,252;26747,263;26,54327
 338,24; 7203,869;  213,636;26704,877;26,38696
 338,83; 7063,979;  192,482;26645,103;25,97662
 339,43; 6883,809;  167,791;26542,617;25,46374
 340,02; 6826,593;  173,945;26436,655;25,33116
 340,61; 6728,785;  160,482;26511,836;24,92587
 341,21; 6665,050;  202,099;26614,149;24,46971
 341,80; 6527,796;  167,483;26464,883;24,18609
 342,40; 6467,107;  184,866;26529,250;23,84660
 342,99; 6424,685;  176,482;26685,878;23,56977
 343,58; 6360,347;  171,251;26786,510;23,25394
 344,18; 6274,200;  187,789;26883,705;22,79903
 344,77; 6277,616;  173,791;27228,350;22,56117
 345,36; 6226,561;  152,944;27547,530;22,17086
 345,96; 6265,999;  186,790;27898,073;21,93767
 346,55; 6215,258;  159,250;28039,876;21,72120
 347,14; 6206,392;  148,712;28352,017;21,47862
 347,74; 6180,154;  134,941;28802,237;21,08749
 348,33; 6271,693;  176,788;29445,868;20,82370
 348,92; 6325,606;  182,864;30050,130;20,56680
 349,52; 6338,069;  153,249;30534,317;20,35748
 350,11; 6337,763;  164,330;30849,386;20,11870
 350,70; 6261,807;  157,636;30870,762;19,87480
 351,29; 6129,881;  151,793;30630,485;19,61399
 351,89; 6088,575;  176,946;30644,581;19,40298
 352,48; 5992,830;  148,098;30744,072;19,10294
 353,07; 5972,084;  171,481;30661,308;19,02472
 353,67; 5902,169;  187,941;30661,298;18,75155
 354,26; 5757,795;  177,943;30285,990;18,53276
 354,85; 5682,779;  180,097;30287,588;18,27679
 355,45; 5602,983;  150,483;30048,817;18,23680
 356,04; 5516,245;  171,712;29992,195;17,92235
 356,63; 5519,227;  194,637;29722,345;18,03252
 357,22; 5409,501;  182,254;29642,724;17,74326
 357,82; 5335,573;  179,254;29568,586;17,54487
 358,41; 5286,915;  183,944;29398,069;17,46748
 359,00; 5207,981;  171,253;29186,052;17,35917
 359,60; 5176,389;  179,559;29089,288;17,28425
 360,19; 5148,017;  167,250;28900,900;17,33426
 360,78; 5069,100;  182,868;28752,546;17,10286
 361,37; 4952,327;  175,637;28566,902;16,82451
 361,97; 4988,926;  177,175;28530,155;16,97088
 362,56; 4841,133;  174,560;28176,133;16,66539
 363,15; 4899,243;  188,252;27971,246;16,95638
 363,74; 4766,043;  173,022;27662,683;16,70817
 364,34; 4715,505;  206,022;27333,877;16,62307
 364,93; 4606,782;  157,484;26881,684;16,64895
 365,52; 4523,415;  145,329;26525,510;16,59612
 366,11; 4487,461;  169,791;26163,872;16,61020
 366,71; 4421,172;  156,791;25776,076;16,64520
 367,30; 4390,447;  165,790;25473,044;16,69346
 367,89; 4352,764;  201,328;25232,258;16,58523
 368,48; 4327,728;  179,561;24906,241;16,77608
 369,07; 4255,654;  181,713;24451,608;16,78598
 369,67; 4211,595;  185,253;24105,611;16,83228
 370,26; 4130,569;  173,867;23873,858;16,69495
 370,85; 4152,781;  174,252;23550,537;17,01951
 371,44; 4101,201;  171,867;23370,237;16,93797
 372,03; 4090,370;  156,637;23193,697;17,07567
 372,63; 4096,729;  153,483;22877,551;17,35273
 373,22; 4014,914;  163,713;22601,975;17,16354
 373,81; 3991,763;  151,098;22258,948;17,37240
 374,40; 3967,756;  157,866;21988,723;17,45186
 374,99; 3924,306;  160,945;21684,224;17,48507
 375,59; 3886,826;  159,635;21418,913;17,53207
 376,18; 3940,393;  193,021;21403,678;17,66740
 376,77; 3929,267;  175,021;21085,997;17,95347
 377,36; 3934,957;  193,098;21072,078;17,92165
 377,95; 3908,779;  179,791;20770,557;18,11000
 378,55; 3906,204;  157,790;20539,965;18,39065
 379,14; 3934,862;  164,637;20564,566;18,48156
 379,73; 3926,310;  170,483;20364,577;18,59864
 380,32; 3989,637;  182,867;20445,975;18,78670
 380,91; 3996,082;  165,330;20277,027;19,04739
 381,50; 4017,206;  181,637;20290,182;19,07432
 382,10; 4028,252;  159,406;20190,898;19,31382
 382,69; 4070,576;  155,867;20114,568;19,61405
 383,28; 4115,304;  188,560;20055,244;19,76547
 383,87; 4092,883;  162,483;19910,528;19,90273
 384,46; 4150,276;  171,330;19836,502;20,23346
 385,05; 4234,572;  193,637;19833,439;20,57523
 385,64; 4229,846;  161,022;19814,872;20,70243
 386,24; 4244,284;  152,869;19756,098;20,87113
 386,83; 4342,552;  186,100;19744,215;21,25180
 387,42; 4381,069;  190,791;19875,815;21,28663
 388,01; 4462,776;  179,178;20018,150;21,59183
 388,60; 4582,854;  176,792;20248,923;21,95114
 389,19; 4644,939;  154,948;20518,679;22,04896
 389,78; 4764,750;  164,025;20750,651;22,34813
 390,37; 4977,670;  214,023;21186,993;22,71327
 390,96; 4997,694;  178,869;21368,206;22,74175
 391,56; 5098,776;  167,794;21459,411;23,15926
 392,15; 5227,031;  162,409;21772,680;23,43618
 392,74; 5285,314;  146,796;21948,826;23,56899
 393,33; 5437,007;  160,256;22265,505;23,87103
 393,92; 5586,431;  189,258;22553,240;24,13333
 394,51; 5683,418;  156,641;22829,766;24,37589
 395,10; 5852,618;  185,414;23114,549;24,71617
 395,69; 5919,767;  170,491;23248,411;24,91245
 396,28; 6074,494;  189,338;23335,047;25,42655
 396,87; 6104,694;  194,724;23425,208;25,44058
 397,46; 6221,115;  190,495;23585,477;25,77741
 398,06; 6360,463;  193,035;23669,499;26,27069
 398,65; 6401,768;  179,116;23892,754;26,24082
 399,24; 6510,728;  198,885;23988,985;26,53138
 399,83; 6576,518;  178,276;23940,630;26,92596
 400,42; 6693,148;  206,819;24092,641;27,15556
 401,01; 6760,786;  178,902;24273,148;27,31725
 401,60; 6827,002;  192,679;24311,313;27,50704
 402,19; 6933,081;  205,069;24262,482;27,96648
 402,78; 7041,591;  220,079;24386,919;28,22675
 403,37; 7029,286;  191,857;24237,918;28,43472
 403,96; 7042,648;  198,098;24082,316;28,65721
 404,55; 7103,657;  217,956;23963,646;28,99769
 405,14; 7120,863;  193,043;23849,033;29,28569
 405,73; 7155,912;  217,671;23709,315;29,53493
 406,32; 7250,490;  206,526;23650,839;30,04552
 406,91; 7258,859;  210,305;23438,841;30,34438
 407,50; 7280,760;  205,002;23254,443;30,69818
 408,09; 7198,178;  180,775;23033,321;30,70731
 408,68; 7261,553;  195,469;22862,291;31,17369
 409,27; 7247,753;  181,543;22610,369;31,50504
 409,86; 7286,908;  200,459;22544,737;31,71483
 410,45; 7363,106;  221,452;22443,953;32,13704
 411,04; 7446,937;  237,138;22448,357;32,46017
 411,63; 7382,501;  220,591;22151,746;32,65633
 412,22; 7424,923;  214,430;21951,430;33,17152
 412,81; 7438,502;  231,119;21704,362;33,56448
 413,40; 7381,070;  243,270;21441,770;33,67125
 413,99; 7311,061;  264,040;21081,094;33,85215
 414,58; 7203,794;  218,885;20678,324;34,14027
 415,17; 7219,114;  213,504;20453,641;34,61246
 415,76; 7174,422;  211,661;20265,794;34,71983
 416,35; 7207,294;  202,582;20074,317;35,24962
 416,94; 7255,833;  227,660;20097,464;35,37112
 417,53; 7378,871;  216,196;20200,077;35,84226
 418,12; 7461,680;  202,580;20275,076;36,16441
 418,71; 7678,019;  227,423;20627,785;36,52188
 419,30; 7787,470;  222,272;20746,353;36,86011
 419,89; 7869,676;  215,887;20936,746;36,93760
 420,48; 8090,264;  237,500;21154,960;37,54167
 421,07; 8175,492;  223,807;21303,048;37,72282
 421,66; 8257,677;  202,883;21350,228;38,08892
 422,25; 8313,636;  215,649;21401,329;38,22387
 422,84; 8413,435;  237,110;21426,490;38,58690
 423,43; 8306,632;  219,265;21156,431;38,62685
 424,02; 8327,860;  235,495;20902,596;39,15578
 424,60; 8222,790;  202,184;20473,524;39,56624
 425,19; 8169,294;  225,647;20175,271;39,81853
 425,78; 8122,114;  240,186;20022,685;39,84293
 426,37; 8201,686;  231,338;19876,821;40,57089
 426,96; 8187,605;  230,723;19783,638;40,69410
 427,55; 8186,173;  219,644;19652,922;40,99426
 428,14; 8149,992;  199,181;19444,821;41,31227
 428,73; 8129,858;  223,337;19263,012;41,52656
 429,32; 8153,694;  235,569;19202,049;41,74799
 429,91; 8224,961;  249,875;19173,334;42,14391
 430,50; 8220,721;  233,797;19094,344;42,34725
 431,08; 8149,983;  250,181;18933,791;42,28199
 431,67; 8197,003;  286,872;18905,631;42,48474
 432,26; 8196,551;  296,102;18745,246;42,82285
 432,85; 8098,938;  317,487;18395,740;43,04316
 433,44; 8041,344;  312,255;18133,559;43,36994
 434,03; 7891,338;  342,022;17695,758;43,50254
 434,62; 7731,926;  310,101;17215,162;43,90298
 435,21; 7629,222;  324,333;16992,491;43,82542
 435,79; 7597,972;  309,330;16909,247;43,90770
 436,38; 7624,299;  310,098;16758,093;44,46865
 436,97; 7629,283;  303,867;16607,577;44,93098
 437,56; 7591,947;  308,941;16465,781;45,07692
 438,15; 7565,621;  281,634;16353,092;45,32250
 438,74; 7633,583;  298,403;16405,496;45,54006
 439,33; 7682,537;  270,711;16356,282;46,07748
 439,91; 7760,080;  236,479;16410,297;46,51716
 440,50; 7817,640;  281,940;16444,821;46,62349
 441,09; 7864,082;  277,400;16525,340;46,69319
 441,68; 7865,381;  268,783;16548,389;46,66328
 442,27; 7933,916;  251,784;16509,568;47,25202
 442,86; 7956,330;  225,473;16522,899;47,43606
 443,44; 8048,426;  238,474;16566,157;47,83258
 444,03; 8120,513;  276,165;16663,942;47,86706
 444,62; 8097,495;  243,934;16586,123;48,05697
 445,21; 8030,398;  252,935;16352,093;48,30975
 445,80; 8075,352;  274,241;16328,009;48,59364
 446,39; 7995,877;  267,549;16060,943;48,93393
 446,97; 7896,932;  231,777;15859,550;49,04829
 447,56; 7815,946;  244,006;15688,833;49,02573
 448,15; 7758,456;  247,008;15457,759;49,38249
 448,74; 7704,525;  263,008;15203,685;49,80709
 449,33; 7640,255;  248,776;15094,481;49,78867
 449,91; 7606,366;  254,928;14884,349;50,25105
 450,50; 7466,533;  236,390;14632,699;50,22220
 451,09; 7420,656;  256,313;14522,392;50,21943
 451,68; 7414,649;  277,004;14475,127;50,27175
 452,26; 7369,864;  263,157;14303,420;50,61662
 452,85; 7365,951;  255,004;14205,988;50,97093
 453,44; 7409,960;  259,540;14222,480;51,20999
 454,03; 7318,638;  235,926;14222,181;50,64052
 454,61; 7332,879;  233,540;14135,743;51,06629
 455,20; 7455,977;  268,000;14327,598;51,12505
 455,79; 7476,948;  265,310;14302,277;51,37604
 456,38; 7515,812;  270,768;14375,037;51,36774
 456,97; 7579,734;  247,461;14459,903;51,59052
 457,55; 7612,263;  258,460;14465,683;51,76102
 458,14; 7679,798;  278,461;14494,376;52,06374
 458,73; 7633,028;  266,075;14408,714;52,09037
 459,31; 7675,822;  297,766;14431,468;52,20186
 459,90; 7737,281;  292,844;14493,663;52,42259
 460,49; 7840,594;  307,613;14617,511;52,64175
 461,08; 7809,624;  260,227;14620,564;52,57117
 461,66; 7854,024;  269,074;14741,348;52,41022
 462,25; 7968,628;  274,765;14849,924;52,78751
 462,84; 7990,081;  305,611;14869,211;52,76491
 463,43; 7999,689;  225,532;14858,762;53,12673
 464,01; 8001,128;  279,839;14872,707;52,91139
 464,60; 8058,036;  298,840;14842,160;53,35230
 465,19; 7894,818;  251,377;14583,580;53,33054
 465,77; 7914,188;  260,222;14606,796;53,35047
 466,36; 7897,322;  279,763;14574,813;53,28809
 466,95; 7749,680;  265,378;14237,227;53,56702
 467,53; 7546,293;  272,683;13933,693;53,24357
 468,12; 7469,050;  290,914;13652,744;53,72120
 468,71; 7363,850;  276,146;13430,328;53,88175
 469,29; 7234,675;  252,144;13139,336;54,18194
 469,88; 7093,891;  266,682;12926,338;53,92887
 470,47; 7171,375;  320,834;12918,849;54,37794
 471,06; 7101,422;  276,142;12893,327;54,09511
 471,64; 7170,670;  281,373;12979,937;54,25257
 472,23; 7131,999;  258,832;13007,110;53,91448
 472,81; 7186,680;  250,218;13114,976;53,91833
 473,40; 7285,992;  267,986;13240,975;54,09706
 473,99; 7434,413;  325,986;13445,692;54,18130
 474,57; 7478,175;  254,986;13513,881;54,47806
 475,16; 7565,986;  283,448;13680,790;54,35808
 475,75; 7615,243;  295,985;13818,814;54,12520
 476,33; 7722,168;  299,676;13907,279;54,54665
 476,92; 7747,265;  296,909;13974,870;54,46979
 477,51; 7780,467;  286,599;14099,874;54,25120
 478,09; 7815,002;  291,061;14109,999;54,44659
 478,68; 7765,692;  288,830;14023,796;54,43670
 479,27; 7789,349;  315,215;14085,166;54,27858
 479,85; 7733,278;  281,368;13996,598;54,33310
 480,44; 7779,627;  273,522;14109,383;54,25109
 481,02; 8288,919;  282,521;15040,352;54,25186
 481,61; 9397,727;  309,060;16960,272;54,58262
 482,20;10129,625;  303,136;18418,989;54,24249
 482,78;10703,617;  327,291;19377,022;54,46967
 483,37;10963,826;  316,827;20002,822;54,08413
 483,95;11193,286;  356,750;20363,482;54,16445
 484,54;11284,116;  359,752;20595,702;53,98493
 485,13;11241,965;  329,671;20633,139;53,74596
 485,71;11172,967;  302,980;20348,881;54,22549
 486,30;11069,502;  341,672;20188,775;54,05237
 486,88;10891,823;  363,133;19891,302;53,91539
 487,47;10559,605;  358,133;19249,214;54,00152
 488,05;10117,972;  344,363;18461,434;53,94696
 488,64; 9481,779;  339,054;17309,615;53,87403
 489,23; 8644,835;  352,516;15703,760;54,01724
 489,81; 7232,730;  354,516;13150,773;53,75177
 490,40; 6667,044;  311,362;12205,489;53,43546
 490,98; 6547,093;  294,285;11953,332;53,63052
 491,57; 6415,083;  322,670;11732,563;53,39588
 492,15; 6420,143;  314,284;11727,361;53,49880
 492,74; 6313,938;  303,671;11646,115;52,98918
 493,32; 6317,299;  323,746;11543,241;53,42088
 493,91; 6217,701;  305,899;11490,144;52,85830
 494,50; 6221,236;  311,051;11441,741;53,09810
 495,08; 6140,903;  304,359;11304,957;53,05661
 495,67; 6119,859;  308,438;11340,728;52,67647
 496,25; 6052,223;  267,591;11205,805;52,88461
 496,84; 6020,237;  273,130;11166,841;52,75619
 497,42; 5998,650;  262,283;11075,222;53,05095
 498,01; 5982,067;  305,745;11128,401;52,44851
 498,59; 5905,876;  249,744;11004,100;52,59387
 499,18; 5872,414;  256,822;11018,053;52,18355
 499,76; 5880,161;  280,821;10932,366;52,56833
 500,35; 5776,724;  273,281;10723,427;52,66379
 500,93; 5678,602;  269,283;10654,821;52,08512
 501,52; 5658,861;  269,129;10614,694;52,09704
 502,10; 5654,383;  269,281;10616,285;52,04504
 502,69; 5536,903;  257,664;10453,796;51,77688
 503,27; 5474,668;  241,974;10276,758;52,14556
 503,86; 5414,348;  252,357;10235,548;51,70682
 504,44; 5338,872;  248,126;10108,781;51,62686
 505,03; 5213,198;  236,126; 9868,908;51,66807
 505,61; 5129,295;  234,587; 9763,068;51,36923
 506,19; 5067,341;  258,741; 9651,530;51,19459
 506,78; 4955,407;  232,201; 9479,953;51,07410
 507,36; 4848,982;  251,357; 9286,946;50,88352
 507,95; 4763,279;  249,200; 9146,084;50,73775
 508,53; 4671,682;  237,432; 9044,650;50,34791
 509,12; 4613,983;  251,893; 8852,802;50,71662
 509,70; 4513,128;  266,893; 8712,712;50,27618
 510,29; 4468,644;  269,046; 8581,502;50,52175
 510,87; 4351,414;  246,278; 8374,779;50,50299
 511,46; 4245,698;  238,893; 8224,590;50,17477
 512,04; 4136,266;  251,739; 8077,734;49,63620
 512,62; 4063,233;  261,201; 7960,177;49,38361
 513,21; 4004,999;  226,892; 7788,365;49,96522
 513,79; 3905,478;  247,505; 7638,547;49,49198
 514,38; 3825,816;  220,121; 7479,199;49,67152
 514,96; 3776,527;  269,198; 7369,881;49,39425
 515,54; 3660,978;  235,275; 7277,389;48,64595
 516,13; 3615,168;  245,890; 7174,012;48,63191
 516,71; 3549,020;  241,043; 7042,984;48,63285
 517,30; 3461,100;  229,503; 6925,173;48,26398
 517,88; 3443,013;  267,965; 6837,488;48,32996
 518,46; 3357,263;  242,042; 6709,210;48,16979
 519,05; 3311,828;  243,502; 6677,957;47,68586
 519,63; 3276,163;  246,657; 6593,944;47,72915
 520,22; 3254,742;  255,040; 6529,659;47,80691
 520,80; 3179,089;  248,117; 6459,927;47,18387
 521,38; 3160,849;  268,887; 6475,789;46,59268
 521,97; 3137,576;  242,808; 6411,135;46,92955
 522,55; 3102,445;  246,424; 6397,907;46,42817
 523,13; 3094,566;  245,115; 6349,413;46,67943
 523,72; 3077,714;  250,042; 6333,987;46,47762
 524,30; 3139,003;  267,038; 6475,268;46,26061
 524,89; 3090,924;  235,424; 6475,171;45,76307
 525,47; 3143,521;  260,884; 6593,415;45,52110
 526,05; 3147,499;  231,807; 6667,627;45,30412
 526,64; 3211,943;  261,729; 6744,633;45,50760
 527,22; 3282,584;  258,730; 6923,624;45,36987
 527,80; 3364,955;  288,268; 7049,642;45,50387
 528,39; 3348,036;  247,883; 7124,865;45,08014
 528,97; 3379,902;  246,498; 7290,410;44,48386
 529,55; 3483,680;  260,269; 7517,821;44,41457
 530,14; 3586,082;  273,113; 7733,311;44,40859
 530,72; 3594,283;  251,575; 7806,535;44,24521
 531,30; 3635,737;  240,036; 7949,347;44,04675
 531,89; 3708,777;  243,190; 8060,554;44,33192
 532,47; 3743,460;  285,882; 8193,540;43,72443
 533,05; 3736,035;  279,729; 8276,056;43,22367
 533,63; 3752,569;  283,036; 8348,519;43,01706
 534,22; 3747,624;  247,112; 8375,286;43,06640
 534,80; 3779,029;  282,496; 8404,433;43,05049
 535,38; 3845,139;  322,728; 8535,996;42,88684
 535,97; 3729,186;  267,574; 8477,382;42,16434
 536,55; 3805,164;  320,111; 8568,904;42,24925
 537,13; 3761,364;  322,421; 8487,202;42,11923
 537,71; 3728,555;  358,113; 8523,551;41,27693
 538,30; 3763,326;  391,112; 8644,246;40,85979
 538,88; 3772,486;  413,957; 8682,565;40,61784
 539,46; 3843,205;  468,419; 8886,589;40,08931
 540,05; 3875,147;  494,572; 9053,679;39,49682
 540,63; 3931,814;  539,957; 9234,648;39,01066
 541,21; 3999,847;  559,956; 9382,760;38,98864
 541,79; 4046,195;  613,880; 9523,505;38,52368
 542,38; 4103,954;  647,034; 9641,720;38,43291
 542,96; 4156,374;  650,879; 9843,390;38,13426
 543,54; 4225,826;  672,418;10010,159;38,05426
 544,12; 4258,671;  649,726;10193,280;37,81552
 544,70; 4251,286;  620,648;10278,150;37,59397
 545,29; 4324,353;  633,034;10494,357;37,43229
 545,87; 4328,272;  591,187;10505,428;37,69411
 546,45; 4318,636;  556,880;10536,496;37,69439
 547,03; 4313,662;  543,803;10577,875;37,57058
 547,62; 4337,257;  517,187;10757,852;37,30295
 548,20; 4415,891;  496,571;10926,865;37,57632
 548,78; 4401,716;  484,261;10996,873;37,26434
 549,36; 4449,589;  440,954;11236,228;37,13324
 549,94; 4490,259;  398,725;11380,386;37,25788
 550,53; 4567,730;  407,108;11622,701;37,09676
 551,11; 4572,568;  379,876;11786,112;36,75789
 551,69; 4724,135;  379,185;12101,132;37,06680
 552,27; 4754,271;  341,493;12354,289;36,73398
 552,85; 4894,802;  359,261;12791,756;36,48134
 553,44; 5000,121;  341,185;13065,187;36,61533
 554,02; 5114,057;  358,108;13463,714;36,28942
 554,60; 5159,512;  302,184;13792,329;36,00649
 555,18; 5360,245;  330,108;14250,743;36,13439
 555,76; 5437,383;  313,031;14592,996;35,88491
 556,34; 5574,622;  316,491;15034,886;35,72489
 556,93; 5644,812;  307,108;15418,478;35,32244
 557,51; 5769,347;  296,645;15808,650;35,28043
 558,09; 5882,219;  319,185;16208,481;35,01121
 558,67; 6016,955;  311,413;16605,017;35,01707
 559,25; 6106,082;  326,029;16858,468;34,96189
 559,83; 6200,407;  304,874;17220,141;34,85332
 560,41; 6273,810;  295,184;17658,299;34,43291
 561,00; 6370,684;  305,644;17964,349;34,34589
 561,58; 6443,319;  305,184;18198,794;34,30351
 562,16; 6540,315;  291,107;18535,033;34,25364
 562,74; 6579,188;  274,415;18920,020;33,81372
 563,32; 6701,795;  278,182;19425,170;33,54895
 563,90; 6780,358;  298,721;19734,376;33,34921
 564,48; 6895,921;  310,107;20128,558;33,23072
 565,06; 7046,722;  290,644;20677,928;33,13868
 565,65; 7201,259;  295,797;21411,651;32,70274
 566,23; 7433,201;  353,644;22074,577;32,59324
 566,81; 7586,393;  290,106;22813,189;32,39471
 567,39; 7822,779;  312,413;23749,654;32,04459
 567,97; 7967,773;  317,798;24445,760;31,70585
 568,55; 8226,495;  312,721;25282,074;31,69395
 569,13; 8400,233;  300,875;25985,573;31,53379
 569,71; 8611,396;  298,800;26976,138;31,15976
 570,29; 8914,875;  340,646;27965,534;31,03806
 570,87; 9157,210;  332,800;28807,390;30,99047
 571,45; 9310,117;  317,644;29504,075;30,81046
 572,03; 9393,712;  271,182;29935,400;30,75264
 572,61; 9546,712;  278,567;30658,437;30,50752
 573,20; 9680,032;  313,876;31279,977;30,24648
 573,78; 9869,121;  300,336;32070,451;30,11882
 574,36; 9988,368;  303,490;32659,967;29,93181
 574,94;10059,799;  350,028;32969,530;29,76677
 575,52;10045,492;  322,257;33286,439;29,49636
 576,10;10145,022;  372,181;33829,419;29,20995
 576,68;10239,350;  356,028;34304,094;29,11306
 577,26;10343,497;  376,718;34970,970;28,81051
 577,84;10478,452;  374,259;35561,855;28,71521
 578,42;10542,387;  397,797;35907,543;28,56847
 579,00;10511,832;  367,336;36066,117;28,41693
 579,58;10508,814;  394,951;36358,705;28,12238
 580,16;10489,419;  386,258;36366,522;28,07973
 580,74;10490,752;  393,027;36608,613;27,88226
 581,32;10428,985;  385,489;36676,432;27,67494
 581,90;10299,559;  404,104;36700,500;27,26291
 582,48;10368,668;  394,796;36762,572;27,42503
 583,06;10304,557;  408,489;36882,136;27,13210
 583,64;10306,147;  407,412;37150,429;26,94045
 584,22;10159,594;  409,103;37069,976;26,59645
 584,80;10086,881;  424,950;36926,307;26,47006
 585,38; 9934,688;  430,491;36498,816;26,35054
 585,96; 9807,864;  400,028;36510,096;26,05322
 586,54; 9817,239;  417,411;36434,899;26,09796
 587,12; 9756,590;  384,873;36671,924;25,82661
 587,70; 9778,966;  411,336;36772,495;25,76274
 588,28; 9717,132;  398,335;36987,799;25,46853
 588,86; 9687,039;  411,411;37134,744;25,25813
 589,44; 9626,571;  381,487;37139,135;25,15146
 590,02; 9607,521;  378,718;37355,737;24,95821
 590,59; 9649,686;  354,488;37591,492;24,96226
 591,17; 9630,487;  357,101;37811,448;24,75917
 591,75; 9667,136;  359,025;37960,898;24,75438
 592,33; 9645,782;  371,871;38254,145;24,48087
 592,91; 9641,089;  326,101;38606,306;24,33369
 593,49; 9660,965;  333,947;38912,389;24,17676
 594,07; 9759,105;  341,716;39061,906;24,32165
 594,65; 9696,550;  357,642;39133,911;24,08408
 595,23; 9775,855;  347,718;39574,230;24,03511
 595,81; 9791,311;  350,795;39762,091;23,95383
 596,39; 9781,607;  349,871;39896,005;23,84996
 596,97; 9701,976;  337,178;40114,666;23,54296
 597,55; 9637,468;  327,026;39943,849;23,50123
 598,12; 9581,960;  316,254;40022,096;23,33588
 598,70; 9603,539;  316,870;40076,357;23,35711
 599,28; 9558,132;  339,024;40361,354;23,03491
 599,86; 9498,894;  330,793;40412,698;22,87342
 600,44; 9434,116;  300,024;40495,453;22,72421
 601,02; 9416,925;  350,099;40514,998;22,57400
 601,60; 9292,612;  330,640;40527,074;22,29544
 602,18; 9239,510;  303,946;40587,644;22,18159
 602,75; 9134,978;  305,564;40724,692;21,84464
 603,33; 9094,938;  325,947;40591,378;21,77796
 603,91; 9058,272;  316,792;40690,319;21,65151
 604,49; 8999,872;  325,639;40747,602;21,45921
 605,07; 8931,986;  334,871;40763,081;21,26514
 605,65; 8917,731;  344,485;40908,668;21,13501
 606,23; 8870,284;  405,950;41020,458;20,84067
 606,80; 8816,865;  452,256;41017,360;20,62021
 607,38; 8776,665;  493,638;41115,470;20,39058
 607,96; 8738,619;  546,795;41162,646;20,16903
 608,54; 8721,694;  594,101;41212,721;20,00953
 609,12; 8698,920;  616,641;41306,666;19,86305
 609,70; 8639,825;  644,793;41349,678;19,64146
 610,27; 8505,829;  652,641;41295,814;19,32228
 610,85; 8585,181;  660,024;41419,558;19,44369
 611,43; 8485,290;  677,178;41371,614;19,18717
 612,01; 8402,543;  640,871;41203,148;19,13520
 612,59; 8356,422;  630,947;41214,166;19,03613
 613,16; 8263,092;  606,026;41170,539;18,87627
 613,74; 8232,454;  579,024;40990,914;18,93856
 614,32; 8127,533;  540,408;41042,971;18,73246
 614,90; 8068,127;  490,178;40866,286;18,76840
 615,48; 7978,102;  452,487;40559,746;18,76372
 616,05; 7903,613;  410,180;40471,966;18,70469
 616,63; 7781,201;  401,104;40363,494;18,46761
 617,21; 7758,503;  399,718;40268,994;18,45728
 617,79; 7702,219;  387,333;40142,361;18,39990
 618,36; 7594,180;  397,486;40069,057;18,14068
 618,94; 7458,258;  336,410;39771,528;18,05966
 619,52; 7404,277;  365,642;39429,093;18,01847
 620,10; 7325,549;  354,487;39491,226;17,81207
 620,67; 7254,871;  361,873;39350,492;17,67951
 621,25; 7183,747;  372,409;39161,485;17,55994
 621,83; 7109,354;  354,641;39088,347;17,43885
 622,41; 7131,402;  391,026;39125,842;17,40134
 622,98; 7003,571;  364,642;38758,549;17,29162
 623,56; 6954,996;  365,181;38884,157;17,10797
 624,14; 6929,757;  355,409;38728,291;17,13280
 624,72; 6903,434;  341,718;38649,914;17,12875
 625,29; 6824,051;  316,104;38666,309;16,96979
 625,87; 6809,332;  360,641;38532,616;16,89379
 626,45; 6690,756;  314,873;38446,873;16,72056
 627,02; 6649,570;  335,256;38280,118;16,64076
 627,60; 6544,409;  309,331;38281,586;16,42009
 628,18; 6535,766;  300,795;38338,973;16,39135
 628,76; 6527,673;  310,488;38379,025;16,33156
 629,33; 6479,223;  323,334;38358,690;16,18465
 629,91; 6451,088;  314,718;38329,687;16,14198
 630,49; 6417,521;  344,488;38449,637;15,93757
 631,06; 6416,793;  329,411;38535,475;15,93303
 631,64; 6363,627;  330,488;38571,503;15,77662
 632,22; 6247,465;  289,335;38453,021;15,61204
 632,79; 6291,366;  314,489;38673,557;15,58139
 633,37; 6267,114;  297,563;38843,835;15,48671
 633,95; 6252,474;  304,873;38879,750;15,41833
 634,52; 6243,574;  282,103;38992,354;15,40024
 635,10; 6186,913;  293,872;39015,394;15,21903
 635,68; 6225,791;  298,643;39256,610;15,21421
 636,25; 6138,527;  287,567;39194,822;15,03823
 636,83; 6110,827;  278,027;39495,718;14,87288
 637,41; 6109,166;  282,258;39440,479;14,88042
 637,98; 6107,254;  311,182;39708,412;14,71188
 638,56; 6091,562;  313,182;39881,850;14,60342
 639,13; 5979,868;  288,334;39933,633;14,35614
 639,71; 6084,269;  304,950;40086,266;14,52772
 640,29; 5972,743;  256,796;39748,763;14,47370
 640,86; 5989,157;  264,949;40035,288;14,39316
 641,44; 5915,341;  279,949;40050,505;14,16976
 642,02; 5949,601;  299,488;40076,798;14,20436
 642,59; 5912,553;  274,949;40148,861;14,13858
 643,17; 5894,891;  281,334;40262,617;14,04046
 643,74; 5865,151;  280,180;40240,603;13,97626
 644,32; 5841,488;  297,872;40196,974;13,89409
 644,89; 5856,210;  294,641;40164,421;13,94933
 645,47; 5816,162;  303,641;40245,177;13,80147
 646,05; 5751,576;  290,411;40090,932;13,72134
 646,62; 5746,606;  289,641;40109,995;13,70396
 647,20; 5717,943;  289,718;40289,058;13,57079
 647,77; 5671,280;  265,487;40197,967;13,53733
 648,35; 5654,617;  256,026;40034,107;13,57177
 648,92; 5648,493;  298,949;40081,786;13,44686
 649,50; 5572,214;  255,026;40013,310;13,37379
 650,08; 5525,705;  261,410;39907,450;13,27824
 650,65; 5554,042;  262,333;40059,590;13,29667
 651,23; 5544,379;  243,564;40483,499;13,17302
 651,80; 5660,101;  258,179;41612,870;13,06242
 652,38; 5752,438;  261,872;42032,164;13,14467
 652,95; 5781,160;  233,256;42436,227;13,14577
 653,53; 5806,036;  276,564;42747,752;13,01935
 654,10; 5800,757;  289,718;42884,815;12,93820
 654,68; 5771,018;  250,641;42776,185;12,98132
 655,25; 5737,047;  264,872;42974,018;12,81265
 655,83; 5747,923;  245,179;43005,004;12,86896
 656,40; 5748,798;  284,795;42952,990;12,80580
 656,98; 5702,751;  253,179;42933,591;12,76832
 657,55; 5662,472;  261,410;42895,270;12,66848
 658,13; 5640,579;  252,641;42493,410;12,75530
 658,70; 5579,147;  269,102;42348,011;12,61925
 659,28; 5473,868;  260,640;41591,459;12,61342
 659,85; 5328,282;  256,948;40543,599;12,58813
 660,43; 5328,927;  275,948;40407,508;12,59104
 661,00; 5252,572;  262,486;40634,879;12,36014
 661,58; 5326,140;  249,794;40897,480;12,48865
 662,15; 5312,785;  239,333;41179,928;12,39223
 662,73; 5372,891;  299,948;41449,453;12,32808
 663,30; 5345,767;  268,563;41664,977;12,26484
 663,88; 5347,411;  270,948;41892,886;12,19661
 664,45; 5381,902;  255,486;42090,257;12,25396
 665,03; 5413,701;  264,717;42455,705;12,20399
 665,60; 5529,884;  312,102;42942,152;12,23968
 666,17; 5456,375;  271,255;43090,446;12,10934
 666,75; 5488,251;  261,025;43340,663;12,13387
 667,32; 5551,896;  289,948;43719,188;12,11614
 667,90; 5569,925;  266,101;43996,712;12,12840
 668,47; 5620,031;  294,640;44317,698;12,09682
 669,05; 5630,446;  269,486;44670,762;12,07389
 669,62; 5586,629;  245,178;44863,671;11,97138
 670,19; 5624,966;  254,794;44851,888;12,04153
 670,77; 5630,765;  265,793;45132,643;11,95754
 671,34; 5625,948;  268,793;45023,860;11,96994
 671,92; 5618,439;  253,947;45300,846;11,90868
 672,49; 5664,391;  269,947;45421,294;11,94747
 673,06; 5625,805;  224,024;45433,818;11,94825
 673,64; 5658,373;  255,947;45416,958;11,96259
 674,21; 5600,403;  237,255;45450,021;11,86202
 674,79; 5658,971;  262,255;45639,007;11,89313
 675,36; 5667,692;  276,947;45766,840;11,85042
 675,93; 5607,260;  253,332;45623,903;11,80044
 676,51; 5628,059;  281,870;45858,427;11,73013
 677,08; 5655,011;  268,101;45891,952;11,80722
 677,65; 5655,425;  263,947;45995,707;11,78935
 678,23; 5678,070;  268,485;46231,924;11,76932
 678,80; 5666,638;  257,101;46384,987;11,72726
 679,38; 5670,821;  241,639;46510,358;11,73402
 679,95; 5727,158;  267,485;46653,959;11,76997
 680,52; 5704,803;  250,639;47027,638;11,65993
 681,10; 5799,294;  270,331;47363,778;11,74041
 681,67; 5840,478;  272,562;47716,918;11,73568
 682,24; 5828,122;  236,254;47830,289;11,74909
 682,82; 5885,229;  250,716;48266,736;11,73465
 683,39; 5951,489;  279,331;48759,338;11,69999
 683,96; 6017,364;  243,869;48931,478;11,85824
 684,54; 6046,548;  237,408;49218,233;11,86003
 685,11; 6092,039;  268,254;49710,835;11,77889
 685,68; 6129,453;  255,023;50123,975;11,77973
 686,25; 6138,405;  242,254;50130,576;11,81870
 686,83; 6195,050;  243,715;50379,947;11,87033
 687,40; 6266,310;  228,023;50759,471;11,94956
 687,97; 6335,032;  276,331;51175,073;11,90344
 688,55; 6290,061;  237,869;51281,367;11,85693
 689,12; 6310,706;  225,254;51495,045;11,86947
 689,69; 6348,120;  232,023;51621,339;11,90150
 690,26; 6373,842;  242,869;51610,787;11,93541
 690,84; 6397,487;  241,946;51917,080;11,91200
 691,41; 6453,978;  250,638;51948,759;11,99916
 691,98; 6517,700;  256,561;52306,822;12,02902
 692,56; 6465,652;  235,253;52441,270;11,93425
 693,13; 6519,605;  294,869;52495,871;11,92455
 693,70; 6530,172;  274,176;52639,396;11,94685
 694,27; 6510,356;  250,715;52769,689;11,91882
 694,84; 6590,770;  243,561;52835,829;12,06871
 695,42; 6609,491;  284,023;52996,892;11,99986
 695,99; 6624,521;  250,099;53277,263;12,02105
 696,56; 6611,166;  243,099;53121,557;12,04284
 697,13; 6692,734;  264,022;53431,082;12,09153
 697,71; 6667,301;  219,638;53449,529;12,11286
 698,28; 6734,485;  251,253;53810,515;12,10478
 698,85; 6741,130;  218,330;53892,809;12,15252
 699,42; 6752,697;  225,715;54085,718;12,11842
 699,99; 6827,112;  265,253;54175,781;12,17176
 700,57; 6864,833;  265,868;54237,845;12,22665
 701,14; 6921,017;  245,176;54338,754;12,34128
 701,71; 6971,892;  249,330;54598,124;12,36929
 702,28; 6968,845;  256,407;54509,418;12,37247
 702,85; 7012,720;  258,484;54701,327;12,40611
 703,43; 7077,057;  273,714;54993,775;12,43300
 704,00; 7107,625;  279,483;55230,223;12,42593
 704,57; 7094,039;  259,791;55148,209;12,45117
 705,14; 7189,684;  288,330;55447,580;12,51169
 705,71; 7211,867;  304,483;55488,950;12,51690
 706,28; 7194,204;  265,714;55340,706;12,58010
 706,86; 7259,772;  295,252;55697,307;12,57087
 707,43; 7311,879;  310,022;55571,909;12,67032
 708,00; 7339,370;  290,252;55628,818;12,73816
 708,57; 7274,938;  268,098;55526,881;12,68005
 709,14; 7341,582;  293,791;55719,329;12,71578
 709,71; 7419,766;  276,560;55778,853;12,87011
 710,28; 7413,564;  279,637;56054,301;12,79062
 710,86; 7470,824;  291,175;56245,287;12,83132
 711,43; 7538,931;  290,406;56174,812;12,97057
 712,00; 7526,499;  274,637;56266,490;12,95164
 712,57; 7599,836;  275,791;56451,861;13,03766
 713,14; 7610,865;  262,252;56564,847;13,05200
 713,71; 7638,664;  270,021;56355,602;13,13821
 714,28; 7708,309;  257,560;56496,742;13,24832
 714,85; 7694,723;  242,790;56285,498;13,29688
 715,42; 7759,906;  253,098;56570,330;13,32950
 716,00; 7843,782;  284,329;56620,008;13,41859
 716,57; 7814,119;  247,636;56825,918;13,37348
 717,14; 7814,456;  228,329;56662,134;13,44252
 717,71; 7865,870;  227,636;56615,659;13,54584
 718,28; 7958,976;  255,405;56809,337;13,62164
 718,85; 7936,236;  227,252;56777,554;13,63208
 719,42; 8024,727;  251,790;56956,925;13,70764
 719,99; 8012,911;  222,405;56871,680;13,75217
 720,56; 8084,632;  244,328;57079,282;13,79486
 721,13; 8090,739;  243,867;57071,037;13,80831
 721,70; 8170,614;  235,405;56982,716;13,98341
 722,27; 8179,875;  254,867;57061,317;13,95089
 722,84; 8312,673;  280,867;57280,842;14,09089
 723,41; 8255,856;  234,251;57128,136;14,09924
 723,98; 8384,040;  241,328;57476,276;14,22682
 724,55; 8430,531;  262,328;57525,877;14,26423
 725,12; 8445,329;  207,636;57460,709;14,38821
 725,69; 8490,205;  237,020;57676,772;14,36842
 726,27; 8532,542;  233,020;57737,989;14,43270
 726,84; 8679,264;  240,636;58096,668;14,58556
 727,41; 8754,601;  251,251;57917,039;14,74592
 727,98; 8785,015;  263,020;58335,717;14,67470
 728,55; 8863,352;  283,020;58212,549;14,81167
 729,12; 8867,382;  230,328;58427,843;14,84093
 729,69; 8924,949;  268,559;58545,983;14,85376
 730,26; 8995,056;  275,251;58827,046;14,89246
 730,82; 8937,624;  245,712;58534,955;14,91169
 731,39; 9044,961;  244,097;58687,249;15,05885
 731,96; 9118,759;  238,866;58878,312;15,14321
 732,53; 9207,327;  269,251;59284,914;15,14526
 733,10; 9294,357;  270,558;59342,284;15,27600
 733,67; 9330,848;  277,097;59617,578;15,25729
 734,24; 9324,954;  258,020;59095,872;15,41004
 734,81; 9337,522;  285,097;59304,397;15,33808
 735,38; 9395,244;  263,097;59005,075;15,54620
 735,95; 9423,119;  264,789;58936,215;15,60952
 736,52; 9458,149;  280,096;59168,663;15,58546
 737,09; 9494,563;  276,635;58809,033;15,74842
 737,66; 9594,438;  316,712;59152,712;15,76879
 738,23; 9612,006;  248,866;59120,159;15,90442
 738,80; 9707,651;  294,635;59379,761;15,93128
 739,37; 9745,680;  293,866;59598,824;15,93765
 739,94; 9813,941;  277,865;59713,887;16,04427
 740,51; 9949,355;  326,250;59698,258;16,20815
 741,07; 9899,999;  267,865;59637,475;16,22401
 741,64;10031,721;  288,404;59815,307;16,36792
 742,21;10080,520;  274,096;59962,755;16,42929
 742,78;10092,549;  246,327;59720,818;16,55537
 743,35;10174,271;  261,634;60063,265;16,57586
 743,92;10284,454;  301,942;60219,098;16,66052
 744,49;10332,868;  279,250;60013,084;16,83069
 745,06;10316,821;  268,250;60047,301;16,80952
 745,63;10333,081;  252,865;60047,902;16,85795
 746,19;10395,264;  258,942;59949,811;16,98136
 746,76;10476,294;  272,557;60104,413;17,05402
 747,33;10462,708;  253,865;60042,937;17,07476
 747,90;10517,583;  273,173;60244,770;17,08210
 748,47;10623,613;  286,096;60168,371;17,26307
 749,04;10647,258;  282,942;60151,204;17,31187
 749,61;10728,518;  291,480;60108,882;17,44816
 750,17;10767,855;  278,634;60286,176;17,47984
 750,74;10814,961;  284,557;60067,470;17,61440
 751,31;10858,914;  257,634;59969,763;17,75398
 751,88;10814,866;  244,788;59851,903;17,73291
 752,45;10951,357;  272,480;59977,505;17,88606
 753,02;10940,002;  267,557;59914,414;17,89272
 753,58;11023,647;  256,403;59677,939;18,12010
 754,15;11127,369;  268,326;59703,463;18,27041
 754,72;11136,090;  247,172;59566,834;18,35634
 755,29;11130,504;  243,634;59412,436;18,39968
 755,86;11240,918;  261,480;59606,268;18,50110
 756,42;11329,948;  268,710;59348,946;18,72240
 756,99;11374,900;  222,864;59379,317;18,85177
 757,56;11428,314;  245,787;59345,226;18,92155
 758,13;11399,575;  201,480;59297,366;18,94903
 758,70;11583,450;  227,326;59328,045;19,21487
 759,26;11632,633;  219,787;59508,569;19,24959
 759,83;11709,201;  217,249;59608,171;19,34968
 760,40;11729,692;  215,556;59569,618;19,39907
 760,97;11798,953;  191,941;59507,374;19,56828
 761,53;11825,367;  167,787;59097,206;19,78227
 762,10;11855,242;  188,864;59006,731;19,83475
 762,67;11925,272;  215,556;58978,563;19,92702
 763,24;11918,070;  171,864;58655,010;20,08477
 763,80;11978,407;  215,941;58695,920;20,11366
 764,37;12030,052;  221,633;58724,444;20,18436
 764,94;11986,158;  202,479;58223,661;20,30927
 765,50;12097,111;  200,941;58188,109;20,51518
 766,07;12171,525;  250,941;58312,403;20,53098
 766,64;12111,016;  222,402;57961,389;20,59027
 767,21;12071,199;  218,479;57850,759;20,56611
 767,77;12163,459;  245,017;57809,284;20,70458
 768,34;12221,489;  254,633;57720,039;20,82445
 768,91;12247,749;  249,171;57490,872;20,96125
 769,47;12343,163;  242,094;57610,550;21,09359
 770,04;12322,577;  264,094;57447,998;21,08720
 770,61;12332,760;  238,556;57207,445;21,22949
 771,18;12411,790;  229,017;57093,432;21,42425
 771,74;12505,358;  251,786;57403,264;21,44052
 772,31;12504,464;  254,632;57036,096;21,57365
 772,88;12456,570;  219,555;56781,313;21,63479
 773,44;12468,138;  231,325;56535,915;21,73324
 774,01;12603,322;  242,017;56679,516;21,90264
 774,58;12562,966;  224,786;56336,041;21,98878
 775,14;12705,073;  214,171;56509,181;22,18829
 775,71;12670,333;  233,863;56373,936;22,15257
 776,27;12765,055;  273,632;56323,307;22,28634
 776,84;12835,853;  278,171;56319,216;22,40801
 777,41;12804,190;  255,324;56158,587;22,44747
 777,97;12760,143;  248,324;55869,034;22,49489
 778,54;12874,865;  248,632;55862,944;22,70321
 779,11;12910,356;  258,170;55932,391;22,72539
 779,67;12956,462;  230,093;55868,993;22,87315
 780,24;12941,645;  253,863;55591,825;22,92781
 780,80;13074,136;  263,401;55479,273;23,20118
 781,37;13056,627;  252,939;55529,951;23,16277
 781,94;13065,580;  254,862;55312,629;23,26777
 782,50;13183,532;  256,170;55101,000;23,57079
 783,07;13257,254;  272,401;55288,525;23,60190
 783,63;13244,668;  230,247;55059,588;23,73623
 784,20;13330,005;  255,478;55068,112;23,85313
 784,77;13313,804;  249,401;54868,560;23,91908
 785,33;13294,987;  226,170;54638,085;24,01830
 785,90;13447,401;  246,554;54549,609;24,30958
 786,46;13427,431;  265,939;54460,518;24,28562
 787,03;13482,152;  237,016;54258,582;24,51824
 787,59;13544,951;  245,708;54143,568;24,67490
 788,16;13582,980;  241,785;54108,708;24,76695
 788,73;13578,471;  245,400;54001,078;24,80309
 789,29;13512,347;  241,631;53561,988;24,88865
 789,86;13591,992;  246,016;53556,281;25,03453
 790,42;13593,790;  255,093;53430,575;25,08430
 790,99;13564,897;  254,246;53023,484;25,22426
 791,55;13595,849;  236,016;53114,009;25,26539
 792,12;13655,648;  259,092;53020,149;25,39099
 792,68;13622,523;  239,939;52791,366;25,46569
 793,25;13661,322;  247,015;52456,275;25,69335
 793,81;13645,813;  277,400;52162,646;25,76535
 794,38;13546,919;  221,708;51920,940;25,77449
 794,94;13543,410;  227,323;51778,464;25,83083
 795,51;13615,209;  243,708;51502,220;26,08640
 796,07;13565,469;  253,015;51154,283;26,15348
 796,64;13677,114;  272,477;51359,653;26,23875
 797,20;13579,297;  240,938;50841,024;26,36035
 797,77;13566,096;  231,246;50515,472;26,51895
 798,33;13650,049;  230,861;50318,612;26,79136
 798,90;13630,847;  267,554;50350,290;26,68243
 799,46;13657,877;  243,092;49905,892;27,01174
 800,03;13695,752;  251,246;49702,570;27,18735
 800,59;13696,628;  264,246;49447,556;27,31085
 801,15;13704,273;  256,169;49249,696;27,44874
 801,72;13703,610;  253,246;48855,452;27,67439
 802,28;13690,255;  285,707;48559,976;27,76748
 802,85;13650,822;  252,861;48411,885;27,82025
 803,41;13655,852;  252,553;48186,025;27,96229
 803,98;13604,189;  238,861;47748,858;28,13161
 804,54;13572,603;  241,938;47473,921;28,22381
 805,11;13573,709;  251,168;47388,676;28,26314
 805,67;13609,508;  264,322;47262,739;28,39497
 806,23;13535,691;  257,015;46777,571;28,54368
 806,80;13625,105;  271,091;46658,327;28,78812
 807,36;13647,366;  276,399;46582,928;28,87491
 807,93;13634,318;  277,322;46312,914;29,01450
 808,49;13588,347;  234,784;45881,900;29,25390
 809,05;13590,069;  223,399;45730,810;29,37251
 809,62;13655,791;  256,707;45606,565;29,54603
 810,18;13667,820;  257,399;45514,320;29,63176
 810,74;13589,773;  234,322;45219,614;29,68848
 811,31;13652,495;  232,553;44936,677;30,01947
 811,87;13662,062;  234,860;44874,894;30,07884
 812,44;13784,246;  272,783;44842,726;30,31519
 813,00;13711,198;  212,168;44537,251;30,45461
 813,56;13842,228;  244,552;44600,699;30,65567
 814,13;13786,872;  239,937;44506,223;30,60328
 814,69;13811,210;  247,860;44407,440;30,71440
 815,25;13791,316;  219,245;43855,965;31,10241
 815,82;13855,884;  256,783;43796,335;31,23390
 816,38;13903,067;  262,783;43605,706;31,47061
 816,94;13771,789;  220,245;43263,154;31,48380
 817,51;13845,049;  215,629;43108,832;31,77524
 818,07;13833,694;  223,091;42865,588;31,91793
 818,63;13798,800;  240,398;42571,497;32,02941
 819,20;13889,368;  235,398;42559,791;32,26029
 819,76;13750,705;  223,552;42053,854;32,33817
 820,32;13769,427;  272,244;42024,378;32,32693
 820,89;13777,841;  255,167;41769,980;32,57313
 821,45;13748,332;  234,475;41470,120;32,77227
 822,01;13770,438;  249,629;41212,490;33,00748
 822,57;13744,237;  259,783;41085,092;33,02964
 823,14;13717,959;  225,475;40882,693;33,18595
 823,70;13716,604;  218,706;40583,218;33,44001
 824,26;13664,864;  228,936;40340,127;33,49671
 824,82;13751,662;  252,552;40181,883;33,80751
 825,39;13582,615;  227,859;39873,023;33,68571
 825,95;13738,952;  256,398;39937,778;33,97703
 826,51;13660,135;  249,552;39501,918;34,16503
 827,08;13712,242;  270,244;39705,827;34,08596
 827,64;13718,040;  260,936;39398,275;34,38431
 828,20;13597,608;  233,859;39124,799;34,36211
 828,76;13625,945;  245,474;39040,478;34,49019
 829,32;13579,590;  254,321;38899,233;34,48130
 829,89;13587,927;  212,321;38687,604;34,76415
 830,45;13663,341;  229,936;38682,359;34,93513
 831,01;13712,448;  221,936;38457,576;35,28256
 831,57;13712,785;  234,628;38340,178;35,37059
 832,14;13774,045;  231,167;38418,087;35,46470
 832,70;13723,920;  232,705;38101,304;35,62639
 833,26;13806,181;  220,320;37979,213;35,98056
 833,82;13821,902;  230,705;37849,122;36,12911
 834,38;13930,470;  225,320;37884,954;36,39215
 834,95;13903,038;  213,936;37765,633;36,45402
 835,51;13877,145;  192,166;37620,619;36,56304
 836,07;14009,636;  232,859;37709,990;36,76049
 836,63;14064,511;  244,320;37710,437;36,88717
 837,19;14076,310;  231,782;37494,116;37,15422
 837,75;14015,493;  204,012;37174,563;37,35806
 838,32;14173,984;  244,935;37201,473;37,69035
 838,88;14230,629;  252,320;37381,074;37,64820
 839,44;14221,120;  237,243;37208,445;37,82370
 840,00;14312,072;  233,551;37106,585;38,18108
 840,56;14215,025;  210,089;36842,340;38,23116
 841,12;14364,747;  211,474;36801,326;38,68087
 841,68;14270,391;  209,012;36654,851;38,58158
 842,25;14407,575;  217,320;36602,222;39,00039
 842,81;14401,835;  215,012;36276,054;39,34113
 843,37;14390,633;  205,704;36358,963;39,23555
 843,93;14460,586;  223,320;36140,565;39,63908
 844,49;14581,462;  230,396;36145,859;39,95790
 845,05;14497,722;  204,089;36008,460;39,92147
 845,61;14616,520;  240,858;36106,831;40,08162
 846,17;14560,934;  225,781;35977,586;40,09631
 846,73;14676,041;  228,396;35902,495;40,49898
 847,29;14604,916;  204,012;35749,866;40,51360
 847,86;14660,177;  213,242;35627,083;40,79460
 848,42;14620,052;  204,858;35443,531;40,90731
 848,98;14630,158;  219,704;35396,055;40,96631
 849,54;14714,880;  211,242;35299,195;41,33509
 850,10;14669,679;  226,627;35297,489;41,18248
 850,66;14678,324;  202,088;35152,090;41,41984
 851,22;14640,353;  196,627;35074,461;41,41234
 851,78;14755,306;  250,242;35120,447;41,59730
 852,34;14664,335;  227,011;34792,126;41,76848
 852,90;14802,288;  210,165;34638,420;42,38415
 853,46;14673,163;  207,703;34422,483;42,27840
 854,02;14759,193;  222,473;34570,776;42,32151
 854,58;14714,453;  206,550;34248,070;42,61826
 855,14;14722,636;  188,088;34113,672;42,84244
 855,70;14663,589;  181,088;34010,119;42,81086
 856,26;14752,926;  230,857;33985,413;43,02254
 856,82;14753,801;  211,011;33795,476;43,30213
 857,38;14799,369;  232,780;33755,001;43,45353
 857,94;14804,014;  223,318;33563,141;43,73357
 858,50;14751,659;  227,472;33468,435;43,69364
 859,06;14836,765;  212,857;33216,113;44,31050
 859,62;14841,410;  238,165;33200,638;44,30264
 860,18;14857,285;  211,703;32975,239;44,70086
 860,74;14842,469;  191,164;32877,995;44,82326
 861,30;14857,037;  198,703;32637,750;45,18731
 861,86;14956,758;  234,241;32729,967;45,30601
 862,42;14920,865;  211,241;32530,722;45,51318
 862,98;15070,894;  233,549;32460,324;46,04043
 863,54;14952,770;  232,703;32223,233;46,01383
 864,10;15097,338;  218,780;32280,296;46,40628
 864,66;14965,059;  197,164;32030,436;46,39138
 865,22;14926,935;  218,395;31993,114;46,29007
 865,78;14972,195;  226,164;31765,024;46,75512
 866,34;15009,301;  217,549;31711,471;46,96701
 866,90;15008,408;  224,010;31595,842;47,12635
 867,45;14956,283;  234,779;31383,982;47,26126
 868,01;14921,159;  225,010;31204,122;47,43890
 868,57;14927,188;  220,856;30995,954;47,78647
 869,13;14945,987;  209,933;30903,633;48,01003
 869,69;14963,324;  210,702;30762,849;48,28669
 870,25;14870,431;  195,010;30629,220;48,22015
 870,81;14941,306;  223,625;30592,745;48,46265
 871,37;15011,259;  225,087;30508,423;48,82610
 871,93;14990,596;  240,317;30317,409;49,04157
 872,49;14878,625;  224,779;30062,395;49,11199
 873,04;14797,270;  209,471;29764,382;49,35829
 873,60;14795,761;  195,702;29773,906;49,36087
 874,16;14827,560;  228,471;29725,815;49,49289
 874,72;14761,560;  209,394;29565,508;49,57116
 875,28;14854,252;  227,240;29508,892;49,95282
 875,84;14790,098;  215,625;29468,508;49,82235
 876,40;14831,637;  221,163;29483,277;49,92966
 876,95;14867,329;  228,779;29318,585;50,32192
 877,51;14885,637;  241,625;29324,046;50,35348
 878,07;14952,790;  256,240;29308,892;50,58592
 878,63;14992,944;  221,702;29386,123;50,64816
 879,19;15030,637;  236,317;29306,892;50,89104
 879,75;15107,406;  231,317;29315,585;51,14823
 880,30;15155,175;  218,010;29349,738;51,27456
 880,86;15314,713;  260,933;29409,200;51,64554
 881,42;15351,021;  217,240;29516,585;51,65228
 881,98;15408,713;  230,702;29638,585;51,61205
 882,54;15544,867;  214,394;29673,585;52,03970
 883,09;15632,790;  239,779;29802,200;52,06952
 883,65;15759,098;  208,317;29926,815;52,32694
 884,21;15849,637;  241,702;30083,892;52,30157
 884,77;16018,483;  218,471;30170,277;52,75145
 885,32;16123,021;  213,240;30367,662;52,76102
 885,88;16270,021;  256,702;30528,354;52,89873
 886,44;16394,713;  226,394;30561,277;53,29943
 887,00;16441,867;  239,856;30602,200;53,36219
 887,56;16576,790;  223,163;30764,969;53,54506
 888,11;16659,406;  210,317;30778,815;53,81059
 888,67;16819,560;  252,317;31034,662;53,82060
 889,23;16929,021;  237,471;31000,738;54,25805
 889,79;16879,637;  212,702;30827,354;54,44104
 890,34;16960,637;  218,702;30761,738;54,81424
 890,90;17089,560;  276,702;31002,738;54,71860
 891,46;17049,560;  214,625;30871,892;54,91336
 892,01;17140,867;  241,317;30809,123;55,28545
 892,57;17203,713;  249,317;30782,046;55,52860
 893,13;17102,175;  211,471;30613,508;55,55780
 893,69;17103,098;  211,548;30430,200;55,89776
 894,24;17054,713;  224,471;30329,738;55,90464
 894,80;17059,637;  227,702;30158,200;56,23673
 895,36;16994,637;  225,394;30082,200;56,16556
 895,91;16942,483;  223,856;29868,815;56,39619
 896,47;16953,790;  225,548;29737,815;56,68234
 897,03;16872,713;  215,394;29583,431;56,71921
 897,58;16810,021;  230,087;29458,969;56,72449
 898,14;16830,329;  234,163;29259,354;57,17849
 898,70;16740,944;  203,548;29083,277;57,26299
 899,25;16755,713;  218,240;29094,815;57,26951
 899,81;16715,329;  238,702;28850,123;57,58759
 900,37;16601,713;  202,471;28737,200;57,47117
 900,92;16731,637;  223,317;28698,892;57,97361
 901,48;16611,098;  218,087;28523,277;57,91521
 902,03;16570,021;  210,010;28373,277;58,08989
 902,59;16575,483;  215,394;28163,969;58,53640
 903,15;16518,637;  235,317;28146,277;58,34023
 903,70;16464,483;  234,163;27831,431;58,81133
 904,26;16422,483;  207,010;27701,046;58,97815
 904,82;16461,021;  216,856;27670,200;59,17008
 905,37;16519,637;  218,010;27592,354;59,55075
 905,93;16446,021;  218,625;27372,892;59,76002
 906,48;16447,713;  227,548;27292,123;59,93135
 907,04;16483,252;  232,317;27288,046;60,06467
 907,60;16317,483;  207,010;26962,738;60,21317
 908,15;16267,252;  206,087;26884,431;60,20301
 908,71;16361,483;  240,087;26822,508;60,64683
 909,26;16288,021;  211,471;26718,431;60,65030
 909,82;16264,098;  234,625;26520,431;60,98148
 910,37;16319,713;  255,010;26494,738;61,22283
 910,93;16178,944;  204,702;26271,815;61,28121
 911,48;16118,098;  205,933;26016,431;61,64997
 912,04;16081,252;  208,779;25987,969;61,57087
 912,60;16088,867;  217,779;25989,431;61,58351
 913,15;16067,406;  222,548;25880,969;61,75305
 913,71;16031,406;  204,702;25663,738;62,16537
 914,26;15960,713;  196,548;25538,354;62,20616
 914,82;16005,790;  218,317;25452,431;62,56401
 915,37;15927,790;  205,779;25397,431;62,40961
 915,93;15947,329;  239,010;25291,969;62,70045
 916,48;15921,098;  205,394;25086,431;63,16338
 917,04;15893,098;  228,702;25025,585;63,17083
 917,59;15912,483;  237,010;24963,046;63,39663
 918,15;15891,944;  187,548;24694,738;64,08077
 918,70;15831,867;  216,163;24653,738;63,90038
 919,26;15732,944;  216,702;24573,815;63,70312
 919,81;15675,406;  205,856;24446,277;63,81717
 920,37;15666,098;  212,625;24303,200;64,14738
 920,92;15630,483;  234,010;24199,200;64,24515
 921,48;15487,406;  203,317;23943,046;64,38190
 922,03;15592,637;  214,471;23948,123;64,79477
 922,59;15478,637;  201,779;23805,892;64,72117
 923,14;15484,406;  198,240;23665,046;65,13952
 923,69;15468,713;  228,625;23581,354;65,26042
 924,25;15435,329;  232,779;23595,508;65,07181
 924,80;15385,560;  216,087;23307,585;65,69289
 925,36;15269,406;  209,163;23299,892;65,22203
 925,91;15262,252;  211,856;23093,892;65,77385
 926,47;15177,021;  187,625;23053,046;65,55487
 927,02;15252,175;  232,010;22928,046;66,17968
 927,57;15101,406;  217,933;22757,200;66,03353
 928,13;15110,252;  203,625;22745,738;66,12790
 928,68;15114,790;  208,702;22598,431;66,57556
 929,24;15002,021;  185,163;22383,046;66,74897
 929,79;14933,867;  199,471;22287,200;66,70852
 930,34;14894,175;  209,163;22196,123;66,78964
 930,90;14885,329;  195,548;22095,815;67,07581
 931,45;14891,483;  212,394;22056,738;67,19858
 932,01;14897,252;  218,394;21929,354;67,61036
 932,56;14796,175;  227,779;21786,969;67,57395
 933,11;14760,252;  226,471;21769,662;67,46346
 933,67;14673,790;  203,240;21552,585;67,77983
 934,22;14766,175;  212,087;21467,354;68,47286
 934,77;14693,790;  226,163;21440,046;68,19886
 935,33;14621,560;  223,779;21228,431;68,54568
 935,88;14563,867;  215,317;21155,200;68,52259
 936,43;14608,790;  197,394;21104,200;68,93160
 936,99;14555,867;  212,394;20907,277;69,30927
 937,54;14523,406;  194,010;20763,431;69,66358
 938,09;14470,560;  214,394;20733,123;69,47879
 938,65;14440,175;  213,779;20592,354;69,81055
 939,20;14397,175;  194,163;20559,354;69,74161
 939,75;14370,021;  198,163;20358,200;70,29679
 940,31;14312,406;  182,087;20308,969;70,20620
 940,86;14379,021;  219,702;20218,046;70,80246
 941,41;14277,021;  256,394;20175,354;70,38835
 941,96;14240,021;  203,471;20056,662;70,70173
 942,52;14216,560;  214,394;20002,738;70,75966
 943,07;14187,098;  190,163;19846,431;71,20851
 943,62;14148,790;  202,240;19760,585;71,30742
 944,18;14094,252;  196,548;19663,969;71,38955
 944,73;14162,021;  207,087;19558,046;72,11495
 945,28;14038,560;  181,702;19285,046;72,53629
 945,83;13972,483;  199,240;19313,662;72,05681
 946,39;14009,790;  202,856;19304,508;72,28136
 946,94;13922,098;  230,548;19179,123;72,25636
 947,49;13893,560;  200,163;19056,277;72,62046
 948,04;13948,713;  219,010;19013,508;73,05172
 948,59;13834,790;  227,317;18957,354;72,65054
 949,15;13783,329;  188,394;18849,277;72,85258
 949,70;13761,175;  194,933;18773,738;73,01999
 950,25;13702,637;  226,779;18670,892;73,06319
 950,80;13614,560;  171,625;18547,046;73,15715
 951,36;13585,406;  177,010;18350,046;73,78181
 951,91;13630,944;  223,087;18425,200;73,66099
 952,46;13558,175;  183,933;18200,738;74,23204
 953,01;13533,329;  222,856;18321,277;73,54494
 953,56;13456,483;  177,702;18106,662;74,06331
 954,11;13377,713;  216,087;18032,892;73,87198
 954,67;13416,252;  198,779;17954,969;74,43868
 955,22;13346,175;  180,779;17802,431;74,71148
 955,77;13368,713;  221,625;17822,969;74,69366
 956,32;13362,406;  243,010;17689,354;75,19854
 956,87;13210,406;  188,702;17499,585;75,22265
 957,42;13257,252;  204,471;17490,123;75,51223
 957,98;13204,175;  195,240;17383,354;75,68565
 958,53;13182,637;  222,471;17341,969;75,70412
 959,08;13094,252;  194,163;17226,815;75,73740
 959,63;13075,329;  192,087;17128,123;76,07000
 960,18;13137,021;  215,163;17113,277;76,46923
 960,73;13098,329;  205,010;17021,277;76,67171
 961,28;12981,406;  186,933;16850,815;76,77966
 961,83;13024,406;  213,087;16829,277;77,10142
 962,39;12893,329;  189,856;16719,508;76,85264
 962,94;12890,252;  223,317;16656,815;77,07997
 963,49;12772,483;  203,087;16471,662;77,26181
 964,04;12835,021;  215,317;16481,508;77,58242
 964,59;12762,637;  180,087;16306,892;78,02258
 965,14;12718,329;  213,471;16273,200;77,86469
 965,69;12606,560;  204,702;16118,046;77,93370
 966,24;12584,252;  208,548;16067,354;78,03680
 966,79;12530,867;  213,856;15941,662;78,31360
 967,34;12440,867;  178,087;15834,046;78,32660
 967,89;12411,867;  189,317;15766,508;78,46441
 968,44;12397,329;  211,394;15739,123;78,47854
 968,99;12404,944;  212,163;15617,277;79,14762
 969,55;12368,175;  209,856;15543,585;79,29134
 970,10;12266,021;  210,625;15387,354;79,43343
 970,65;12247,406;  214,933;15328,815;79,61206
 971,20;12205,713;  203,471;15221,892;79,91680
 971,75;12112,175;  189,548;15016,892;80,40973
 972,30;12110,329;  202,779;14988,354;80,53491
 972,85;12035,406;  203,548;14955,662;80,20449
 973,40;12002,944;  195,702;14768,354;81,02329
 973,95;11988,867;  206,779;14719,200;81,18624
 974,50;11988,175;  223,394;14604,046;81,80979
 975,05;11890,329;  220,779;14528,277;81,56248
 975,60;11906,329;  225,779;14499,892;81,83030
 976,15;11813,021;  215,394;14385,815;81,84391
 976,70;11805,560;  213,163;14295,585;82,31820
 977,25;11811,021;  208,779;14246,431;82,65088
 977,80;11690,713;  199,933;14070,969;82,84010
 978,35;11593,560;  215,163;13921,200;83,01741
 978,89;11568,637;  196,010;13858,892;83,23739
 979,44;11543,790;  205,317;13801,046;83,39732
 979,99;11415,560;  193,625;13576,815;83,85097
 980,54;11374,406;  235,779;13537,431;83,73867
 981,09;11340,021;  218,779;13386,431;84,45881
 981,64;11209,483;  216,471;13246,123;84,36919
 982,19;11175,252;  248,240;13218,815;84,24462
 982,74;11051,021;  226,702;13068,892;84,28717
 983,29;10911,175;  195,240;12960,431;83,94653
 983,84;10899,790;  212,856;12819,046;84,77529
 984,39;10875,175;  247,471;12780,277;84,79908
 984,94;10722,713;  190,471;12605,277;84,83614
 985,49;10642,867;  229,010;12594,200;84,21915
 986,03;10587,098;  240,856;12523,431;84,23512
 986,58;10466,098;  246,240;12336,354;84,53070
 987,13;10393,329;  218,240;12182,662;85,04455
 987,68;10389,867;  230,163;12091,585;85,65334
 988,23;10350,021;  229,933;12044,508;85,65766
 988,78;10208,098;  214,317;11896,508;85,54715
 989,33;10144,637;  228,471;11790,969;85,76144
 989,88;10115,329;  235,394;11768,508;85,66581
 990,42;10050,406;  219,625;11560,354;86,68562
 990,97; 9949,713;  216,856;11451,354;86,63367
 991,52; 9882,252;  239,779;11399,585;86,40359
 992,07; 9834,713;  244,394;11279,277;86,90912
 992,62; 9728,944;  230,163;11193,431;86,64188
 993,17; 9618,637;  230,471;11045,662;86,80536
 993,71; 9586,175;  222,471;10962,046;87,18877
 994,26; 9503,252;  199,471;10790,431;87,84644
 994,81; 9455,098;  232,779;10751,969;87,67138
 995,36; 9333,944;  218,702;10593,046;87,86331
 995,91; 9314,944;  223,317;10579,277;87,79126
 996,45; 9222,098;  228,548;10423,046;88,21964
 997,00; 9084,713;  199,471;10229,431;88,58702
 997,55; 9089,944;  216,702;10290,815;88,07963
 998,10; 8986,329;  247,317;10106,662;88,63684
 998,65; 8969,790;  218,779;10045,662;89,05176
 999,19; 8860,713;  237,317; 9846,277;89,74329
 999,74; 8791,175;  252,779; 9788,892;89,53748
1000,29; 8707,560;  227,933; 9701,815;89,50530
1000,84; 8631,637;  216,317; 9565,969;90,00676
1001,38; 8573,637;  220,702; 9439,508;90,60756
1001,93; 8497,252;  237,087; 9388,585;90,26025
1002,48; 8358,252;  203,087; 9251,662;90,12652
1003,03; 8402,560;  221,856; 9196,969;91,14875
1003,57; 8273,329;  231,087; 9100,738;90,67145
1004,12; 8252,867;  245,010; 8986,123;91,61141
1004,67; 8114,098;  214,779; 8895,277;91,00076
1005,22; 8003,406;  210,933; 8746,969;91,28913
1005,76; 7869,406;  205,548; 8598,431;91,31377
1006,31; 7931,944;  242,625; 8582,508;92,19937
1006,86; 7818,098;  211,010; 8482,738;91,96492
1007,40; 7673,560;  196,471; 8278,046;92,52019
1007,95; 7575,944;  215,163; 8231,277;91,82481
1008,50; 7525,098;  218,933; 8077,508;92,97061
1009,04; 7442,252;  225,625; 8005,123;92,76469
1009,59; 7340,175;  231,625; 7830,585;93,54636
1010,14; 7247,406;  211,471; 7737,277;93,49078
1010,68; 7099,329;  219,087; 7635,585;92,76942
1011,23; 7042,867;  200,548; 7480,662;93,98644
1011,78; 6995,098;  229,856; 7416,508;94,13622
1012,32; 6861,252;  217,240; 7308,738;93,68982
1012,87; 6828,713;  244,933; 7266,738;93,76193
1013,42; 6712,560;  209,240; 7137,046;93,87271
1013,96; 6750,560;  242,163; 7109,815;94,76887
1014,51; 6578,252;  195,779; 6996,431;93,85090
1015,06; 6608,713;  196,471; 7019,431;93,98036
1015,60; 6689,867;  260,702; 7074,738;94,35179
1016,15; 6646,713;  215,394; 7027,354;94,41217
1016,69; 6703,175;  210,702; 7032,892;95,16699
1017,24; 6676,637;  201,625; 7041,277;94,66873
1017,79; 6731,560;  236,625; 7133,046;94,17833
1018,33; 6745,021;  196,856; 7086,431;95,04455
1018,88; 6823,713;  217,856; 7119,123;95,71949
1019,42; 6848,713;  221,625; 7189,431;95,11012
1019,97; 6832,713;  212,010; 7144,431;95,50349
1020,51; 6892,021;  216,317; 7204,585;95,52731
1021,06; 6888,944;  211,240; 7194,277;95,62751
1021,61; 6854,175;  190,087; 7111,277;96,28529
1022,15; 6830,867;  171,856; 7116,969;95,88053
1022,70; 6896,560;  215,856; 7101,815;97,01921
1023,24; 6837,406;  204,548; 7089,123;96,34375
1023,79; 6815,175;  220,163; 7016,892;97,03214
1024,33; 6755,406;  218,087; 7014,508;96,18767
1024,88; 6674,406;  219,240; 6898,200;96,64927
1025,42; 6596,944;  201,779; 6767,585;97,40107
1025,97; 6507,867;  203,933; 6709,815;96,89592
1026,51; 6340,406;  173,087; 6576,123;96,31866
1027,06; 6342,098;  209,317; 6514,508;97,26559
1027,60; 6228,790;  207,702; 6401,508;97,21145
1028,15; 6178,406;  221,087; 6325,200;97,59516
1028,69; 6051,637;  174,317; 6191,277;97,67922
1029,24; 6005,790;  207,933; 6127,738;97,94000
1029,78; 5886,329;  205,779; 6030,892;97,51827
1030,33; 5777,329;  177,933; 5875,969;98,26887
1030,87; 5753,637;  206,471; 5843,354;98,40839
1031,42; 5650,483;  194,933; 5743,123;98,33026
1031,96; 5576,406;  212,317; 5674,431;98,20536
1032,51; 5547,944;  199,317; 5561,277;99,75135
1033,05; 5510,021;  208,163; 5559,431;99,07667
1033,60; 5374,790;  174,933; 5420,508;99,12846
1034,14; 5332,329;  199,933; 5322,815;100,18571
1034,69; 5286,021;  199,317; 5278,585;100,14641
1035,23; 5241,329;  204,702; 5203,662;100,75350
1035,77; 5157,944;  196,087; 5102,969;101,12037
1036,32; 5052,329;  180,779; 5061,277;99,81666
1036,86; 5104,021;  198,163; 5007,200;102,01332
1037,41; 4960,637;  204,625; 4916,046;100,94643
1037,95; 4895,175;  183,933; 4840,200;101,18067
1038,50; 4832,252;  196,240; 4790,200;100,91537
1039,04; 4796,637;  203,779; 4734,585;101,36956
1039,58; 4732,098;  192,010; 4634,892;102,18790
1040,13; 4675,021;  201,471; 4572,431;102,34709
1040,67; 4692,098;  223,394; 4554,431;103,17862
1041,21; 4561,867;  228,317; 4467,892;102,21661
1041,76; 4472,637;  176,471; 4386,431;102,04766
1042,30; 4455,790;  210,471; 4333,738;102,96008
1042,85; 4392,560;  207,856; 4276,046;102,86401
1043,39; 4337,637;  190,010; 4189,123;103,71366
1043,93; 4304,867;  217,394; 4146,431;104,03245
1044,48; 4217,790;  205,548; 4087,123;103,36635
1045,02; 4137,329;  202,856; 4031,046;102,77632
1045,56; 4127,713;  210,548; 3970,969;104,16826
1046,11; 4061,406;  210,394; 3918,277;103,86012
1046,65; 4014,867;  208,779; 3887,123;103,47287
1047,19; 3952,483;  198,779; 3772,354;105,04058
1047,74; 3886,021;  182,856; 3709,354;105,00971
1048,28; 3848,406;  210,779; 3699,123;104,27947
1048,82; 3842,944;  222,625; 3665,508;105,15372
1049,37; 3762,175;  205,240; 3596,738;104,87798
1049,91; 3711,252;  197,548; 3556,892;104,59493
1050,45; 3658,329;  228,317; 3497,738;104,91189
1050,99; 3636,560;  207,856; 3457,277;105,51737
1051,54; 3565,637;  196,933; 3406,969;104,94285
1052,08; 3557,790;  215,010; 3390,508;105,26792
1052,62; 3526,483;  221,548; 3324,277;106,51703
1053,16; 3441,867;  192,702; 3260,046;105,92764
1053,71; 3429,252;  215,856; 3214,123;107,17511
1054,25; 3351,944;  223,779; 3169,892;106,17939
1054,79; 3301,560;  211,933; 3115,354;106,41332
1055,33; 3254,637;  183,163; 3065,123;106,57585
1055,88; 3222,406;  227,317; 3055,123;105,91564
1056,42; 3226,713;  234,702; 3005,662;107,97745
1056,96; 3160,252;  221,240; 2946,508;107,84306
1057,50; 3137,560;  201,240; 2901,738;108,73251
1058,05; 3096,175;  212,625; 2862,354;108,82434
1058,59; 3045,637;  228,163; 2863,431;106,91413
1059,13; 2976,252;  196,163; 2778,892;107,64152
1059,67; 2976,560;  229,163; 2767,354;108,24232
1060,21; 2907,790;  218,240; 2707,815;108,03250
1060,76; 2871,175;  221,779; 2650,815;109,07189
1061,30; 2864,867;  232,010; 2631,815;109,71128
1061,84; 2784,329;  211,471; 2589,585;108,18902
1062,38; 2732,252;  205,317; 2537,738;108,33955
1062,92; 2750,175;  243,317; 2551,277;108,61792
1063,46; 2697,867;  229,933; 2483,585;109,50824
1064,01; 2629,867;  208,317; 2434,892;108,75672
1064,55; 2609,252;  217,163; 2405,431;109,31427
1065,09; 2536,944;  186,779; 2359,815;108,15121
1065,63; 2544,790;  232,471; 2386,508;107,34819
1066,17; 2534,483;  234,010; 2342,508;109,10482
1066,71; 2491,483;  230,087; 2316,969;108,36240
1067,25; 2425,944;  212,471; 2262,969;107,94807
1067,80; 2402,252;  233,163; 2246,123;107,75618
1068,34; 2381,406;  237,471; 2246,585;106,71048
1068,88; 2334,483;  213,087; 2162,431;108,82614
1069,42; 2320,329;  248,779; 2180,585;107,23387
1069,96; 2256,329;  218,625; 2115,738;107,41075
1070,50; 2291,790;  245,317; 2124,123;108,92414
1071,04; 2219,867;  212,394; 2064,354;108,39724
1071,58; 2218,175;  221,548; 2029,123;110,45887
1072,12; 2195,944;  212,625; 2019,892;109,74133
1072,66; 2158,406;  211,240; 1998,354;108,95589
1073,21; 2157,944;  230,163; 2000,738;108,87880
1073,75; 2122,021;  223,163; 1961,585;109,22886
1074,29; 2090,713;  230,087; 1930,277;109,43639
1074,83; 2071,252;  228,163; 1910,046;109,58484
1075,37; 2055,637;  226,856; 1907,508;108,81377
1075,91; 2022,637;  233,240; 1899,738;107,37463
1076,45; 2015,021;  229,317; 1849,662;110,20522
1076,99; 1983,790;  222,933; 1827,431;109,74508
1077,53; 1935,944;  207,625; 1766,200;110,89099
1078,07; 1926,560;  232,933; 1774,738;109,84697
1078,61; 1911,713;  223,087; 1751,123;110,50959
1079,15; 1868,944;  220,548; 1742,431;108,31296
1079,69; 1873,560;  234,933; 1710,200;111,07322
1080,23; 1850,790;  232,240; 1702,046;110,11999
1080,77; 1872,637;  252,240; 1702,354;111,74272
1081,31; 1780,329;  217,240; 1635,969;110,17528
1081,85; 1794,406;  233,240; 1652,508;109,99798
1082,39; 1735,713;  221,394; 1597,354;110,05550
1082,93; 1749,790;  216,010; 1611,892;109,87892
1083,47; 1703,175;  207,625; 1568,123;109,92665
1084,01; 1700,560;  236,625; 1576,046;109,29607
1084,55; 1671,713;  216,163; 1516,738;111,91588
1085,09; 1688,175;  227,317; 1543,277;111,01083
1085,63; 1652,790;  219,394; 1525,662;109,73222
1086,17; 1610,406;  213,394; 1487,892;109,61268
1086,71; 1594,944;  214,087; 1471,277;109,83680
1087,24; 1614,021;  237,625; 1468,662;111,80790
1087,78; 1586,175;  235,702; 1460,662;110,24633
1088,32; 1534,790;  221,548; 1420,662;109,51777
1088,86; 1555,021;  241,702; 1424,508;111,03423
1089,40; 1538,790;  226,779; 1386,431;113,13839
1089,94; 1474,252;  193,702; 1343,815;111,34119
1090,48; 1476,329;  233,779; 1347,969;111,52044
1091,02; 1473,406;  229,933; 1353,431;110,67870
1091,56; 1469,867;  238,702; 1347,277;111,05838
1092,10; 1410,867;  207,240; 1278,892;112,31510
1092,63; 1449,329;  235,317; 1306,662;113,31666
1093,17; 1417,790;  223,625; 1280,969;112,94008
1093,71; 1386,637;  211,548; 1279,815;109,99948
1094,25; 1411,637;  246,010; 1260,662;114,87949
1094,79; 1376,637;  223,163; 1235,123;113,98410
1095,33; 1351,790;  229,394; 1229,585;112,21825
1095,87; 1340,021;  223,471; 1204,508;113,81329
1096,40; 1305,098;  200,548; 1177,277;113,08666
1096,94; 1302,021;  220,087; 1190,508;111,49124
1097,48; 1318,021;  224,240; 1172,354;115,36391
1098,02; 1291,406;  222,087; 1139,277;116,58640
1098,56; 1249,021;  200,548; 1117,354;114,36153
1099,10; 1246,713;  202,933; 1101,892;116,10986
1099,63; 1211,713;  211,933; 1091,969;113,60673
1100,17; 1238,252;  228,471; 1098,431;116,07214
1100,71; 1234,637;  240,779; 1111,508;114,14089

