
Integration time [ms]: 115,000
Averaging Nr. [scans]: 13
Smoothing Nr. [pixels]: 0
Data measured with spectrometer [name]: 2009305U1
Wave   ;Sample   ;Dark     ;Reference;Reflectance
[nm]   ;[counts] ;[counts] ;[counts] ;[%]

 175,72;  204,510;  176,239;  216,377;70,43418
 176,32;  217,684;  211,934;  220,629;66,13094
 176,92;  255,905;  225,163;  254,806;103,70839
 177,52;  264,811;  252,086;  276,497;52,13048
 178,12;  225,844;  223,549;  229,646;37,63361
 178,72;  256,300;  243,857;  246,426;484,35489
 179,32;  241,355;  236,780;  245,502;52,45504
 179,92;  254,587;  232,933;  243,184;211,22912
 180,52;  244,601;  234,084;  251,849;59,20232
 181,12;  256,093;  235,010;  258,040;91,54590
 181,73;  269,554;  253,163;  272,610;84,28112
 182,33;  352,210;  298,008;  354,611;95,75871
 182,93;  270,571;  245,240;  267,679;112,88944
 183,53;  242,914;  227,319;  231,255;396,25732
 184,13;  242,005;  231,011;  230,121; 0,00000
 184,73;  275,525;  249,935;  276,206;97,40848
 185,33;  280,840;  222,716;  348,805;46,09783
 185,93;  292,336;  214,717;  380,479;46,82562
 186,53;  307,470;  241,332;  381,727;47,10839
 187,13;  330,471;  264,099;  406,630;46,56672
 187,73;  293,267;  220,102;  379,098;46,01728
 188,33;  302,971;  227,718;  376,187;50,68625
 188,93;  308,601;  231,182;  389,757;48,82188
 189,53;  313,101;  240,799;  389,798;48,52519
 190,13;  355,357;  271,649;  443,566;48,69108
 190,73;  307,502;  217,185;  377,425;56,36361
 191,34;  328,554;  254,183;  413,712;46,61932
 191,94;  306,789;  227,565;  367,514;56,60959
 192,54;  322,765;  237,868;  406,065;50,47461
 193,14;  322,558;  248,715;  393,108;51,14061
 193,74;  306,797;  249,561;  386,677;41,74274
 194,34;  306,940;  235,099;  379,479;49,75860
 194,94;  269,395;  206,792;  347,521;44,48507
 195,54;  258,594;  196,177;  321,772;49,69675
 196,14;  282,664;  218,484;  355,903;46,70438
 196,74;  264,827;  211,331;  351,478;38,17114
 197,34;  256,202;  187,252;  345,540;43,56018
 197,94;  287,446;  225,715;  362,779;45,03836
 198,54;  296,412;  217,484;  389,006;46,01641
 199,14;  290,199;  197,636;  381,096;50,45381
 199,74;  262,823;  198,097;  381,375;35,31561
 200,34;  257,271;  186,097;  382,635;36,21371
 200,94;  300,395;  223,637;  421,823;38,73030
 201,54;  290,404;  202,328;  428,459;38,94884
 202,14;  324,770;  211,635;  474,923;42,96995
 202,74;  311,279;  204,328;  476,128;39,34918
 203,34;  279,922;  195,558;  479,311;29,73158
 203,94;  276,892;  163,635;  500,548;33,61602
 204,54;  357,658;  228,869;  592,022;35,46412
 205,14;  323,485;  199,405;  597,661;31,15577
 205,74;  383,904;  218,481;  690,215;35,06704
 206,34;  371,278;  197,405;  690,439;35,26589
 206,94;  370,205;  203,328;  773,362;29,27501
 207,54;  371,734;  180,251;  804,961;30,65147
 208,14;  397,391;  195,097;  861,786;30,34308
 208,74;  429,479;  194,559;  953,337;30,96036
 209,34;  441,576;  193,636; 1030,265;29,63567
 209,94;  467,306;  202,328; 1148,580;28,00291
 210,54;  496,484;  198,866; 1237,375;28,65826
 211,14;  525,288;  209,174; 1365,714;27,33271
 211,73;  558,731;  201,175; 1462,293;28,35229
 212,33;  573,616;  218,791; 1597,159;25,74245
 212,93;  597,077;  196,636; 1668,394;27,20831
 213,53;  590,488;  181,790; 1767,846;25,76822
 214,13;  627,722;  176,403; 1856,152;26,86821
 214,73;  615,154;  178,481; 1880,384;25,65792
 215,33;  599,537;  156,405; 1915,118;25,19637
 215,93;  652,228;  188,327; 2037,402;25,08825
 216,53;  647,652;  142,559; 2075,324;26,13319
 217,13;  716,934;  210,866; 2307,296;24,13950
 217,73;  748,400;  181,250; 2505,729;24,39899
 218,33;  747,896;  162,403; 2685,388;23,20635
 218,93;  861,538;  172,632; 2992,680;24,42885
 219,53;  952,059;  174,942; 3296,897;24,89200
 220,13;  981,893;  151,557; 3577,759;24,23490
 220,73; 1108,401;  167,405; 3938,368;24,95373
 221,32; 1180,249;  178,251; 4361,644;23,95178
 221,92; 1336,614;  192,249; 4765,641;25,02224
 222,52; 1423,251;  172,558; 5220,516;24,77623
 223,12; 1574,971;  167,481; 5680,122;25,53205
 223,72; 1690,287;  185,019; 6134,170;25,30224
 224,32; 1795,281;  176,865; 6553,184;25,38166
 224,92; 1898,776;  175,404; 6818,083;25,94393
 225,52; 2039,984;  188,020; 7246,795;26,23633
 226,12; 2145,595;  182,327; 7519,659;26,75725
 226,72; 2234,504;  155,174; 7864,594;26,97129
 227,31; 2371,076;  151,251; 8241,262;27,43909
 227,91; 2533,840;  174,405; 8608,273;27,97572
 228,51; 2636,363;  177,790; 9061,833;27,67403
 229,11; 2830,575;  166,020; 9428,961;28,76576
 229,71; 2949,717;  168,175; 9795,860;28,89108
 230,31; 3111,765;  163,326;10145,637;29,53663
 230,91; 3262,505;  163,483;10541,858;29,86037
 231,51; 3387,049;  147,173;10894,551;30,14573
 232,10; 3600,785;  152,172;11267,104;31,02684
 232,70; 3738,556;  167,484;11505,325;31,49693
 233,30; 3889,739;  192,789;11856,258;31,69683
 233,90; 4020,696;  163,789;12037,003;32,48410
 234,50; 4168,566;  175,558;12250,655;33,06812
 235,10; 4293,699;  157,404;12347,468;33,93170
 235,70; 4403,656;  192,020;12458,020;34,33585
 236,29; 4491,132;  182,251;12486,574;35,01924
 236,89; 4601,058;  165,022;12367,077;36,35483
 237,49; 4695,728;  177,173;12382,301;37,02177
 238,09; 4713,893;  176,789;12207,055;37,71408
 238,69; 4717,519;  193,099;12025,720;38,23684
 239,29; 4650,079;  168,328;11806,275;38,50980
 239,89; 4621,101;  178,791;11452,563;39,40394
 240,48; 4526,696;  173,635;11111,338;39,79867
 241,08; 4445,855;  163,097;10762,261;40,40656
 241,68; 4387,394;  198,558;10511,432;40,61754
 242,28; 4257,041;  162,404;10160,933;40,95239
 242,88; 4186,038;  190,480; 9825,661;41,46843
 243,48; 4089,873;  192,250; 9558,253;41,61458
 244,07; 3979,643;  186,482; 9286,172;41,68451
 244,67; 3942,486;  188,943; 9134,113;41,96167
 245,27; 3837,884;  182,329; 8936,369;41,75850
 245,87; 3806,224;  184,096; 8853,728;41,77949
 246,47; 3749,927;  172,329; 8804,009;41,44730
 247,06; 3690,134;  169,097; 8795,610;40,81646
 247,66; 3653,040;  170,943; 8817,762;40,27027
 248,26; 3639,643;  208,559; 8992,584;39,06050
 248,86; 3628,715;  189,559; 9141,797;38,41671
 249,46; 3579,040;  150,789; 9313,349;37,41586
 250,05; 3677,293;  191,405; 9693,550;36,68528
 250,65; 3701,224;  158,636;10006,744;35,97227
 251,25; 3782,473;  179,713;10412,907;35,20661
 251,85; 3879,190;  182,329;11056,103;33,99795
 252,44; 3914,667;  147,251;11624,928;32,82385
 253,04; 4057,170;  180,559;12334,676;31,89546
 253,64; 4110,234;  144,175;12999,837;30,85068
 254,24; 4263,438;  186,559;13928,194;29,66808
 254,84; 4374,271;  175,712;14774,119;28,76039
 255,43; 4532,476;  178,713;15718,690;28,01653
 256,03; 4608,492;  163,329;16666,213;26,93567
 256,63; 4759,322;  176,868;17718,668;26,12306
 257,23; 4780,670;  165,098;18500,507;25,17299
 257,82; 4922,739;  177,022;19474,686;24,59218
 258,42; 4925,258;  132,484;20270,264;23,79991
 259,02; 5032,755;  174,636;21174,808;23,13371
 259,62; 5026,537;  159,792;21804,596;22,48459
 260,21; 4992,919;  177,328;22295,978;21,77163
 260,81; 4976,039;  170,481;22823,178;21,21406
 261,41; 4957,352;  166,176;23209,931;20,79165
 262,01; 4956,886;  195,023;23642,910;20,30828
 262,60; 4839,977;  161,483;23968,584;19,65168
 263,20; 4865,238;  164,944;24178,655;19,57338
 263,80; 4782,087;  182,562;24384,042;19,00514
 264,40; 4677,547;  145,484;24473,227;18,62919
 264,99; 4703,213;  179,331;24635,359;18,49803
 265,59; 4615,863;  164,255;24795,929;18,07270
 266,19; 4594,557;  164,638;24886,859;17,91877
 266,78; 4642,364;  198,716;25019,817;17,90270
 267,38; 4608,662;  172,332;25091,828;17,80265
 267,98; 4584,690;  158,331;25004,990;17,81470
 268,58; 4579,234;  177,562;25077,419;17,67750
 269,17; 4567,935;  165,332;25112,785;17,64750
 269,77; 4569,130;  182,945;24923,644;17,72862
 270,37; 4566,106;  150,485;24758,337;17,94395
 270,96; 4618,410;  204,253;24703,174;18,01776
 271,56; 4569,356;  167,868;24397,106;18,16602
 272,16; 4582,885;  169,176;24154,837;18,40145
 272,75; 4614,617;  166,561;24041,291;18,63081
 273,35; 4666,612;  173,099;24093,138;18,78556
 273,95; 4700,241;  175,176;23998,878;18,99396
 274,54; 4763,725;  155,251;24001,451;19,32582
 275,14; 4915,763;  180,253;24296,492;19,63619
 275,74; 4976,411;  144,022;24387,065;19,93309
 276,33; 5175,220;  190,099;24762,723;20,28730
 276,93; 5293,446;  175,943;24987,120;20,62580
 277,53; 5468,987;  174,867;25496,469;20,90753
 278,12; 5664,573;  157,252;26003,751;21,30780
 278,72; 5972,785;  194,867;26636,274;21,85178
 279,32; 6188,198;  165,713;27171,463;22,30075
 279,91; 6434,707;  163,021;27905,256;22,60700
 280,51; 6710,522;  173,251;28428,361;23,13660
 281,11; 7012,587;  174,098;29118,155;23,62657
 281,70; 7203,782;  153,098;29568,424;23,96942
 282,30; 7494,972;  159,098;30230,644;24,39473
 282,90; 7758,753;  169,945;30561,185;24,97038
 283,49; 8106,467;  186,099;31199,186;25,53879
 284,09; 8382,490;  190,714;31628,304;26,05727
 284,69; 8638,586;  189,175;32037,341;26,53029
 285,28; 8957,865;  191,867;32500,794;27,13181
 285,88; 9256,821;  199,022;32695,762;27,87294
 286,47; 9501,283;  175,329;32693,137;28,67953
 287,07; 9753,419;  203,944;32809,646;29,28775
 287,67;10026,949;  190,789;32982,022;29,99631
 288,26;10294,444;  169,559;32869,266;30,96323
 288,86;10611,016;  172,175;32963,147;31,83450
 289,46;11072,648;  170,636;33023,814;33,18404
 290,05;11386,926;  162,251;33047,628;34,13272
 290,65;11834,016;  175,252;33285,329;35,21213
 291,24;12264,797;  189,559;33411,430;36,34725
 291,84;12724,784;  182,406;33467,438;37,68174
 292,44;13195,755;  176,327;33666,984;38,87481
 293,03;13658,314;  230,636;33835,995;39,95696
 293,63;13974,864;  170,022;33925,161;40,89701
 294,22;14476,839;  194,175;34192,898;42,00941
 294,82;14906,928;  181,561;34111,735;43,39903
 295,41;15075,935;  153,944;33869,501;44,25847
 296,01;15398,015;  217,176;33826,800;45,16813
 296,61;15586,613;  179,559;33699,024;45,96450
 297,20;15604,602;  182,638;33244,688;46,64552
 297,80;15860,626;  187,635;33052,862;47,68867
 298,39;15867,729;  163,868;32744,796;48,19955
 298,99;16017,607;  175,638;32519,890;48,97924
 299,58;16123,861;  186,558;32371,911;49,51725
 300,18;16251,504;  207,097;32078,314;50,34137
 300,78;16189,519;  169,405;31723,868;50,76972
 301,37;16198,027;  186,639;31725,967;50,76642
 301,97;16403,836;  182,021;31752,405;51,38301
 302,56;16430,970;  166,099;31633,889;51,68736
 303,16;16533,073;  155,099;31597,477;52,08885
 303,75;16598,509;  174,405;31569,005;52,31506
 304,35;16847,402;  163,635;31819,100;52,70422
 304,94;16929,525;  180,098;31793,374;52,98226
 305,54;16946,172;  203,636;31684,952;53,18245
 306,13;16925,211;  149,173;31607,401;53,32798
 306,73;16876,306;  165,404;31473,524;53,37561
 307,33;16966,888;  185,020;31361,055;53,82939
 307,92;16971,665;  169,944;31395,096;53,80829
 308,52;17347,495;  165,099;31890,100;54,16043
 309,11;17647,868;  172,638;32427,632;54,17837
 309,71;17815,523;  155,177;32681,960;54,29478
 310,30;18036,241;  157,098;32836,795;54,71025
 310,90;18265,933;  179,329;33162,180;54,83639
 311,49;18338,774;  182,559;33344,317;54,75046
 312,09;18376,547;  142,636;33547,722;54,58424
 312,68;18753,181;  201,790;33927,769;55,00623
 313,28;18714,973;  152,559;33956,788;54,91151
 313,87;18778,607;  150,482;34176,314;54,74701
 314,47;18908,547;  167,253;34398,507;54,74907
 315,06;18961,003;  148,405;34567,733;54,65708
 315,66;18981,009;  158,943;34854,645;54,24898
 316,25;18984,847;  140,406;34689,418;54,54408
 316,85;18966,962;  139,559;34777,975;54,35411
 317,44;18986,622;  158,561;34947,829;54,12031
 318,04;18790,643;  148,945;34913,363;53,62292
 318,63;18778,558;  148,712;34929,575;53,56350
 319,22;18803,755;  174,253;35197,076;53,19246
 319,82;18675,275;  176,483;35096,106;52,97535
 320,41;18492,102;  161,945;35099,992;52,46474
 321,01;18435,302;  171,020;35141,349;52,22794
 321,60;18372,887;  166,714;35251,383;51,89210
 322,20;18171,815;  161,405;35121,065;51,51769
 322,79;18084,102;  191,790;35166,860;51,15733
 323,39;18010,596;  168,250;35279,984;50,81591
 323,98;17825,325;  153,251;35282,413;50,30599
 324,58;17704,055;  157,176;35187,689;50,09027
 325,17;17520,712;  167,637;35145,514;49,61157
 325,76;17330,248;  182,867;34943,934;49,32927
 326,36;16961,237;  147,174;34505,813;48,93693
 326,95;16746,003;  174,406;34216,453;48,67979
 327,55;16432,146;  161,560;33888,496;48,24211
 328,14;16096,290;  160,558;33455,672;47,86207
 328,74;15817,576;  193,637;33098,303;47,48244
 329,33;15561,570;  182,328;32807,741;47,13884
 329,92;15111,711;  159,869;32210,755;46,65032
 330,52;14680,736;  177,097;31505,485;46,29552
 331,11;14370,293;  174,790;31212,280;45,73663
 331,71;13978,015;  171,560;30432,102;45,62527
 332,30;13669,448;  186,406;30077,143;45,10776
 332,89;13285,333;  194,867;29511,339;44,65226
 333,49;12958,794;  191,483;28964,734;44,37215
 334,08;12623,586;  176,252;28472,291;43,98967
 334,68;12284,035;  178,944;28023,751;43,47342
 335,27;11968,175;  189,097;27739,620;42,75446
 335,86;11842,216;  198,252;27392,433;42,81785
 336,46;11552,017;  178,404;27143,820;42,17852
 337,05;11276,327;  173,175;26956,025;41,45620
 337,65;11084,595;  154,252;26747,263;41,10231
 338,24;10993,415;  213,636;26704,877;40,69186
 338,83;10830,544;  192,482;26645,103;40,21553
 339,43;10664,536;  167,791;26542,617;39,79835
 340,02;10559,808;  173,945;26436,655;39,54604
 340,61;10429,982;  160,482;26511,836;38,97143
 341,21;10304,576;  202,099;26614,149;38,24950
 341,80;10247,543;  167,483;26464,883;38,33101
 342,40;10130,865;  184,866;26529,250;37,75377
 342,99;10032,103;  176,482;26685,878;37,17784
 343,58; 9988,954;  171,251;26786,510;36,88750
 344,18; 9925,311;  187,789;26883,705;36,47570
 344,77; 9908,359;  173,791;27228,350;35,98125
 345,36; 9901,157;  152,944;27547,530;35,58445
 345,96; 9911,228;  186,790;27898,073;35,09198
 346,55; 9880,516;  159,250;28039,876;34,86746
 347,14; 9870,314;  148,712;28352,017;34,46973
 347,74; 9967,750;  134,941;28802,237;34,29974
 348,33;10052,606;  176,788;29445,868;33,74147
 348,92;10077,891;  182,864;30050,130;33,13001
 349,52;10119,527;  153,249;30534,317;32,80424
 350,11;10154,003;  164,330;30849,386;32,55550
 350,70;10131,456;  157,636;30870,762;32,47413
 351,29; 9900,167;  151,793;30630,485;31,98423
 351,89; 9781,077;  176,946;30644,581;31,52241
 352,48; 9702,776;  148,098;30744,072;31,22855
 353,07; 9565,688;  171,481;30661,308;30,81096
 353,67; 9444,346;  187,941;30661,298;30,37540
 354,26; 9300,797;  177,943;30285,990;30,30038
 354,85; 9139,027;  180,097;30287,588;29,75648
 355,45; 8981,682;  150,483;30048,817;29,53743
 356,04; 8831,121;  171,712;29992,195;29,03846
 356,63; 8718,769;  194,637;29722,345;28,86825
 357,22; 8549,272;  182,254;29642,724;28,40083
 357,82; 8422,876;  179,254;29568,586;28,04971
 358,41; 8298,999;  183,944;29398,069;27,77785
 359,00; 8127,789;  171,253;29186,052;27,42234
 359,60; 8076,470;  179,559;29089,288;27,31576
 360,19; 7949,564;  167,250;28900,900;27,08432
 360,78; 7830,398;  182,868;28752,546;26,76800
 361,37; 7655,484;  175,637;28566,902;26,34559
 361,97; 7602,972;  177,175;28530,155;26,19053
 362,56; 7429,818;  174,560;28176,133;25,91018
 363,15; 7330,897;  188,252;27971,246;25,70869
 363,74; 7129,962;  173,022;27662,683;25,30748
 364,34; 7035,989;  206,022;27333,877;25,17695
 364,93; 6874,188;  157,484;26881,684;25,13342
 365,52; 6695,447;  145,329;26525,510;24,82969
 366,11; 6586,502;  169,791;26163,872;24,68528
 366,71; 6433,985;  156,791;25776,076;24,50183
 367,30; 6350,653;  165,790;25473,044;24,43909
 367,89; 6235,381;  201,328;25232,258;24,10639
 368,48; 6105,980;  179,561;24906,241;23,96771
 369,07; 5930,917;  181,713;24451,608;23,68862
 369,67; 5892,521;  185,253;24105,611;23,85946
 370,26; 5774,704;  173,867;23873,858;23,63223
 370,85; 5714,271;  174,252;23550,537;23,69932
 371,44; 5625,458;  171,867;23370,237;23,50851
 372,03; 5520,318;  156,637;23193,697;23,28284
 372,63; 5454,726;  153,483;22877,551;23,32876
 373,22; 5388,527;  163,713;22601,975;23,28529
 373,81; 5219,096;  151,098;22258,948;22,92397
 374,40; 5214,696;  157,866;21988,723;23,16368
 374,99; 5103,636;  160,945;21684,224;22,96440
 375,59; 5041,725;  159,635;21418,913;22,96451
 376,18; 5032,291;  193,021;21403,678;22,81527
 376,77; 4966,177;  175,021;21085,997;22,91216
 377,36; 4942,822;  193,098;21072,078;22,74883
 377,95; 4906,388;  179,791;20770,557;22,95494
 378,55; 4807,686;  157,790;20539,965;22,81354
 379,14; 4825,262;  164,637;20564,566;22,84628
 379,73; 4793,406;  170,483;20364,577;22,89245
 380,32; 4828,839;  182,867;20445,975;22,92823
 380,91; 4789,909;  165,330;20277,027;22,99447
 381,50; 4800,596;  181,637;20290,182;22,97013
 382,10; 4771,532;  159,406;20190,898;23,02437
 382,69; 4758,429;  155,867;20114,568;23,06043
 383,28; 4787,445;  188,560;20055,244;23,14873
 383,87; 4768,017;  162,483;19910,528;23,32147
 384,46; 4766,916;  171,330;19836,502;23,36916
 385,05; 4818,421;  193,637;19833,439;23,54802
 385,64; 4801,502;  161,022;19814,872;23,61105
 386,24; 4821,436;  152,869;19756,098;23,81530
 386,83; 4859,105;  186,100;19744,215;23,89292
 387,42; 4918,213;  190,791;19875,815;24,01532
 388,01; 4982,886;  179,178;20018,150;24,21349
 388,60; 5047,555;  176,792;20248,923;24,26630
 389,19; 5113,718;  154,948;20518,679;24,35099
 389,78; 5237,260;  164,025;20750,651;24,64336
 390,37; 5395,082;  214,023;21186,993;24,70351
 390,96; 5456,363;  178,869;21368,206;24,90637
 391,56; 5533,083;  167,794;21459,411;25,19907
 392,15; 5619,708;  162,409;21772,680;25,25327
 392,74; 5667,588;  146,796;21948,826;25,32238
 393,33; 5863,401;  160,256;22265,505;25,79996
 393,92; 5986,298;  189,258;22553,240;25,92132
 394,51; 6067,404;  156,641;22829,766;26,06947
 395,10; 6200,069;  185,414;23114,549;26,23150
 395,69; 6281,673;  170,491;23248,411;26,48065
 396,28; 6352,970;  189,338;23335,047;26,62970
 396,87; 6446,146;  194,724;23425,208;26,91042
 397,46; 6522,607;  190,495;23585,477;27,06611
 398,06; 6662,003;  193,035;23669,499;27,55512
 398,65; 6681,554;  179,116;23892,754;27,42067
 399,24; 6849,349;  198,885;23988,985;27,95475
 399,83; 6801,834;  178,276;23940,630;27,87417
 400,42; 6992,825;  206,819;24092,641;28,41018
 401,01; 7047,627;  178,902;24273,148;28,50774
 401,60; 7180,018;  192,679;24311,313;28,97071
 402,19; 7223,454;  205,069;24262,482;29,17348
 402,78; 7301,802;  220,079;24386,919;29,30347
 403,37; 7295,941;  191,857;24237,918;29,54365
 403,96; 7292,207;  198,098;24082,316;29,70208
 404,55; 7381,866;  217,956;23963,646;30,16930
 405,14; 7391,766;  193,043;23849,033;30,43087
 405,73; 7407,289;  217,671;23709,315;30,60500
 406,32; 7484,574;  206,526;23650,839;31,04398
 406,91; 7444,905;  210,305;23438,841;31,14531
 407,50; 7493,468;  205,002;23254,443;31,62101
 408,09; 7409,206;  180,775;23033,321;31,63075
 408,68; 7512,906;  195,469;22862,291;32,28259
 409,27; 7526,420;  181,543;22610,369;32,74749
 409,86; 7527,393;  200,459;22544,737;32,79110
 410,45; 7676,337;  221,452;22443,953;33,54656
 411,04; 7654,831;  237,138;22448,357;33,39615
 411,63; 7600,342;  220,591;22151,746;33,64962
 412,22; 7653,116;  214,430;21951,430;34,22131
 412,81; 7634,535;  231,119;21704,362;34,47740
 413,40; 7628,766;  243,270;21441,770;34,83971
 413,99; 7558,577;  264,040;21081,094;35,04116
 414,58; 7482,243;  218,885;20678,324;35,50125
 415,17; 7460,313;  213,504;20453,641;35,80415
 415,76; 7418,949;  211,661;20265,794;35,93917
 416,35; 7411,668;  202,582;20074,317;36,27809
 416,94; 7544,277;  227,660;20097,464;36,82279
 417,53; 7668,176;  216,196;20200,077;37,28996
 418,12; 7780,919;  202,580;20275,076;37,75484
 418,71; 7943,837;  227,423;20627,785;37,82488
 419,30; 8095,527;  222,272;20746,353;38,36106
 419,89; 8220,550;  215,887;20936,746;38,63094
 420,48; 8419,329;  237,500;21154,960;39,11483
 421,07; 8506,980;  223,807;21303,048;39,29540
 421,66; 8594,209;  202,883;21350,228;39,68028
 422,25; 8664,308;  215,649;21401,329;39,87910
 422,84; 8768,242;  237,110;21426,490;40,26136
 423,43; 8726,147;  219,265;21156,431;40,63053
 424,02; 8691,183;  235,495;20902,596;40,91376
 424,60; 8576,545;  202,184;20473,524;41,31134
 425,19; 8499,346;  225,647;20175,271;41,47296
 425,78; 8506,871;  240,186;20022,685;41,78787
 426,37; 8566,120;  231,338;19876,821;42,42595
 426,96; 8578,437;  230,723;19783,638;42,69294
 427,55; 8585,481;  219,644;19652,922;43,04903
 428,14; 8564,869;  199,181;19444,821;43,46796
 428,73; 8557,262;  223,337;19263,012;43,77136
 429,32; 8642,343;  235,569;19202,049;44,32438
 429,91; 8694,332;  249,875;19173,334;44,62428
 430,50; 8707,270;  233,797;19094,344;44,92697
 431,08; 8696,087;  250,181;18933,791;45,20489
 431,67; 8735,403;  286,872;18905,631;45,37645
 432,26; 8694,526;  296,102;18745,246;45,52203
 432,85; 8627,854;  317,487;18395,740;45,96886
 433,44; 8517,516;  312,255;18133,559;46,04187
 434,03; 8393,373;  342,022;17695,758;46,39549
 434,62; 8195,684;  310,101;17215,162;46,64629
 435,21; 8174,832;  324,333;16992,491;47,09878
 435,79; 8160,071;  309,330;16909,247;47,29385
 436,38; 8103,162;  310,098;16758,093;47,38003
 436,97; 8110,111;  303,867;16607,577;47,88017
 437,56; 8077,732;  308,941;16465,781;48,08361
 438,15; 8083,694;  281,634;16353,092;48,54606
 438,74; 8113,323;  298,403;16405,496;48,51850
 439,33; 8196,261;  270,711;16356,282;49,27118
 439,91; 8275,603;  236,479;16410,297;49,70456
 440,50; 8362,144;  281,940;16444,821;49,99235
 441,09; 8485,069;  277,400;16525,340;50,51513
 441,68; 8494,340;  268,783;16548,389;50,52676
 442,27; 8568,794;  251,784;16509,568;51,15710
 442,86; 8622,718;  225,473;16522,899;51,52498
 443,44; 8726,800;  238,474;16566,157;51,98733
 444,03; 8791,779;  276,165;16663,942;51,96320
 444,62; 8797,065;  243,934;16586,123;52,33773
 445,21; 8759,161;  252,935;16352,093;52,83646
 445,80; 8743,908;  274,241;16328,009;52,75812
 446,39; 8660,744;  267,549;16060,943;53,14371
 446,97; 8589,397;  231,777;15859,550;53,47928
 447,56; 8500,758;  244,006;15688,833;53,45966
 448,15; 8457,905;  247,008;15457,759;53,98088
 448,74; 8389,528;  263,008;15203,685;54,39191
 449,33; 8297,163;  248,776;15094,481;54,21357
 449,91; 8267,362;  254,928;14884,349;54,76932
 450,50; 8162,279;  236,390;14632,699;55,05501
 451,09; 8193,043;  256,313;14522,392;55,63358
 451,68; 8127,386;  277,004;14475,127;55,29169
 452,26; 8106,208;  263,157;14303,420;55,86114
 452,85; 8119,451;  255,004;14205,988;56,37199
 453,44; 8125,982;  259,540;14222,480;56,33801
 454,03; 8098,995;  235,926;14222,181;56,21998
 454,61; 8131,212;  233,540;14135,743;56,80878
 455,20; 8254,615;  268,000;14327,598;56,80543
 455,79; 8326,598;  265,310;14302,277;57,42899
 456,38; 8379,686;  270,768;14375,037;57,49265
 456,97; 8486,033;  247,461;14459,903;57,96732
 457,55; 8512,817;  258,460;14465,683;58,09972
 458,14; 8541,562;  278,461;14494,376;58,12570
 458,73; 8551,738;  266,075;14408,714;58,58640
 459,31; 8606,150;  297,766;14431,468;58,78420
 459,90; 8645,537;  292,844;14493,663;58,81839
 460,49; 8785,635;  307,613;14617,511;59,24586
 461,08; 8742,988;  260,227;14620,564;59,07076
 461,66; 8922,165;  269,074;14741,348;59,79082
 462,25; 8996,149;  274,765;14849,924;59,83732
 462,84; 9050,294;  305,611;14869,211;60,04479
 463,43; 9047,747;  225,532;14858,762;60,28891
 464,01; 9116,828;  279,839;14872,707;60,55690
 464,60; 9141,446;  298,840;14842,160;60,80184
 465,19; 9034,874;  251,377;14583,580;61,28504
 465,77; 9020,388;  260,222;14606,796;61,06103
 466,36; 9057,230;  279,763;14574,813;61,40214
 466,95; 8864,524;  265,378;14237,227;61,54623
 467,53; 8726,533;  272,683;13933,693;61,88305
 468,12; 8590,857;  290,914;13652,744;62,11682
 468,71; 8445,531;  276,146;13430,328;62,10485
 469,29; 8315,117;  252,144;13139,336;62,56579
 469,88; 8152,257;  266,682;12926,338;62,28902
 470,47; 8234,303;  320,834;12918,849;62,81521
 471,06; 8229,001;  276,142;12893,327;63,03196
 471,64; 8276,755;  281,373;12979,937;62,96288
 472,23; 8291,911;  258,832;13007,110;63,01305
 472,81; 8393,366;  250,218;13114,976;63,29810
 473,40; 8495,775;  267,986;13240,975;63,42246
 473,99; 8656,356;  325,986;13445,692;63,49510
 474,57; 8729,231;  254,986;13513,881;63,91366
 475,16; 8802,422;  283,448;13680,790;63,58705
 475,75; 8968,322;  295,985;13818,814;64,13108
 476,33; 9037,299;  299,676;13907,279;64,21133
 476,92; 9077,087;  296,909;13974,870;64,19216
 477,51; 9141,521;  286,599;14099,874;64,10443
 478,09; 9180,914;  291,061;14109,999;64,33095
 478,68; 9188,730;  288,830;14023,796;64,79739
 479,27; 9213,768;  315,215;14085,166;64,62298
 479,85; 9199,592;  281,368;13996,598;65,02424
 480,44; 9276,576;  273,522;14109,383;65,07043
 481,02; 9849,003;  282,521;15040,352;64,82309
 481,61;11260,230;  309,060;16960,272;65,76801
 482,20;12231,726;  303,136;18418,989;65,84614
 482,78;12892,854;  327,291;19377,022;65,96189
 483,37;13341,380;  316,827;20002,822;66,16152
 483,95;13622,975;  356,750;20363,482;66,30881
 484,54;13770,078;  359,752;20595,702;66,26981
 485,13;13756,065;  329,671;20633,139;66,12857
 485,71;13681,019;  302,980;20348,881;66,73703
 486,30;13549,028;  341,672;20188,775;66,54551
 486,88;13391,422;  363,133;19891,302;66,71537
 487,47;12926,202;  358,133;19249,214;66,52911
 488,05;12427,130;  344,363;18461,434;66,69272
 488,64;11625,612;  339,054;17309,615;66,50668
 489,23;10593,131;  352,516;15703,760;66,70870
 489,81; 8847,184;  354,516;13150,773;66,36838
 490,40; 8234,838;  311,362;12205,489;66,61671
 490,98; 8068,419;  294,285;11953,332;66,67899
 491,57; 7971,835;  322,670;11732,563;67,03976
 492,15; 7945,713;  314,284;11727,361;66,86566
 492,74; 7886,683;  303,671;11646,115;66,85519
 493,32; 7837,426;  323,746;11543,241;66,96986
 493,91; 7763,531;  305,899;11490,144;66,67980
 494,50; 7756,369;  311,051;11441,741;66,89000
 495,08; 7705,453;  304,359;11304,957;67,27902
 495,67; 7773,840;  308,438;11340,728;67,66865
 496,25; 7650,266;  267,591;11205,805;67,49433
 496,84; 7623,407;  273,130;11166,841;67,47266
 497,42; 7641,337;  262,283;11075,222;68,24281
 498,01; 7580,586;  305,745;11128,401;67,21863
 498,59; 7489,720;  249,744;11004,100;67,32134
 499,18; 7548,610;  256,822;11018,053;67,75979
 499,76; 7513,450;  280,821;10932,366;67,90216
 500,35; 7363,246;  273,281;10723,427;67,84560
 500,93; 7299,254;  269,283;10654,821;67,69001
 501,52; 7286,767;  269,129;10614,694;67,83233
 502,10; 7306,662;  269,281;10616,285;68,01371
 502,69; 7179,965;  257,664;10453,796;67,89143
 503,27; 7061,144;  241,974;10276,758;67,95533
 503,86; 7015,887;  252,357;10235,548;67,74918
 504,44; 6911,796;  248,126;10108,781;67,57837
 505,03; 6780,279;  236,126; 9868,908;67,93627
 505,61; 6727,244;  234,587; 9763,068;68,13947
 506,19; 6647,624;  258,741; 9651,530;68,01902
 506,78; 6516,761;  232,201; 9479,953;67,95771
 507,36; 6391,397;  251,357; 9286,946;67,95395
 507,95; 6300,551;  249,200; 9146,084;68,01651
 508,53; 6225,709;  237,432; 9044,650;67,99284
 509,12; 6125,534;  251,893; 8852,802;68,29093
 509,70; 6015,685;  266,893; 8712,712;68,06673
 510,29; 5924,228;  269,046; 8581,502;68,03262
 510,87; 5833,820;  246,278; 8374,779;68,74013
 511,46; 5663,941;  238,893; 8224,590;67,93456
 512,04; 5615,096;  251,739; 8077,734;68,53259
 512,62; 5481,335;  261,201; 7960,177;67,80296
 513,21; 5369,618;  226,892; 7788,365;68,01222
 513,79; 5294,218;  247,505; 7638,547;68,28148
 514,38; 5130,965;  220,121; 7479,199;67,65107
 514,96; 5127,843;  269,198; 7369,881;68,42503
 515,54; 4986,445;  235,275; 7277,389;67,46795
 516,13; 4939,555;  245,890; 7174,012;67,74801
 516,71; 4863,841;  241,043; 7042,984;67,96293
 517,30; 4760,146;  229,503; 6925,173;67,66526
 517,88; 4711,106;  267,965; 6837,488;67,63263
 518,46; 4629,165;  242,042; 6709,210;67,83685
 519,05; 4587,647;  243,502; 6677,957;67,51379
 519,63; 4542,517;  246,657; 6593,944;67,68025
 520,22; 4528,815;  255,040; 6529,659;68,11209
 520,80; 4405,454;  248,117; 6459,927;66,92634
 521,38; 4428,187;  268,887; 6475,789;67,01089
 521,97; 4376,781;  242,808; 6411,135;67,01936
 522,55; 4368,332;  246,424; 6397,907;67,00675
 523,13; 4329,538;  245,115; 6349,413;66,91061
 523,72; 4353,356;  250,042; 6333,987;67,44496
 524,30; 4421,485;  267,038; 6475,268;66,91838
 524,89; 4411,728;  235,424; 6475,171;66,93066
 525,47; 4465,904;  260,884; 6593,415;66,40347
 526,05; 4522,035;  231,807; 6667,627;66,66172
 526,64; 4607,974;  261,729; 6744,633;67,04164
 527,22; 4724,566;  258,730; 6923,624;67,00535
 527,80; 4814,562;  288,268; 7049,642;66,94341
 528,39; 4844,272;  247,883; 7124,865;66,83731
 528,97; 4986,238;  246,498; 7290,410;67,28846
 529,55; 5103,658;  260,269; 7517,821;66,73584
 530,14; 5239,181;  273,113; 7733,311;66,56751
 530,72; 5320,400;  251,575; 7806,535;67,09268
 531,30; 5417,358;  240,036; 7949,347;67,15674
 531,89; 5462,161;  243,190; 8060,554;66,76127
 532,47; 5565,697;  285,882; 8193,540;66,76838
 533,05; 5612,476;  279,729; 8276,056;66,68996
 533,63; 5658,816;  283,036; 8348,519;66,65168
 534,22; 5667,265;  247,112; 8375,286;66,68353
 534,80; 5725,735;  282,496; 8404,433;67,01898
 535,38; 5801,062;  322,728; 8535,996;66,70102
 535,97; 5713,057;  267,574; 8477,382;66,32900
 536,55; 5770,165;  320,111; 8568,904;66,07093
 537,13; 5682,177;  322,421; 8487,202;65,64482
 537,71; 5727,846;  358,113; 8523,551;65,76173
 538,30; 5759,900;  391,112; 8644,246;65,05150
 538,88; 5793,443;  413,957; 8682,565;65,05915
 539,46; 5886,286;  468,419; 8886,589;64,35921
 540,05; 5936,181;  494,572; 9053,679;63,57683
 540,63; 6061,716;  539,957; 9234,648;63,50725
 541,21; 6131,872;  559,956; 9382,760;63,15357
 541,79; 6206,367;  613,880; 9523,505;62,76905
 542,38; 6297,696;  647,034; 9641,720;62,82222
 542,96; 6390,992;  650,879; 9843,390;62,44337
 543,54; 6451,562;  672,418;10010,159;61,89017
 544,12; 6539,464;  649,726;10193,280;61,71431
 544,70; 6571,943;  620,648;10278,150;61,62354
 545,29; 6670,572;  633,034;10494,357;61,22443
 545,87; 6706,213;  591,187;10505,428;61,67921
 546,45; 6720,118;  556,880;10536,496;61,75826
 547,03; 6762,686;  543,803;10577,875;61,97767
 547,62; 6843,634;  517,187;10757,852;61,77770
 548,20; 6932,990;  496,571;10926,865;61,70889
 548,78; 6967,884;  484,261;10996,873;61,67471
 549,36; 7056,667;  440,954;11236,228;61,28342
 549,94; 7151,605;  398,725;11380,386;61,49233
 550,53; 7274,272;  407,108;11622,701;61,22872
 551,11; 7395,605;  379,876;11786,112;61,50783
 551,69; 7591,034;  379,185;12101,132;61,52432
 552,27; 7703,765;  341,493;12354,289;61,28691
 552,85; 7945,057;  359,261;12791,756;61,01588
 553,44; 8110,618;  341,185;13065,187;61,06124
 554,02; 8337,398;  358,108;13463,714;60,88455
 554,60; 8526,453;  302,184;13792,329;60,96502
 555,18; 8776,701;  330,108;14250,743;60,67678
 555,76; 8969,035;  313,031;14592,996;60,61642
 556,34; 9240,675;  316,491;15034,886;60,63287
 556,93; 9444,916;  307,108;15418,478;60,46975
 557,51; 9648,420;  296,645;15808,650;60,28734
 558,09; 9853,544;  319,185;16208,481;60,00492
 558,67;10066,003;  311,413;16605,017;59,86760
 559,25;10278,270;  326,029;16858,468;60,19826
 559,83;10429,991;  304,874;17220,141;59,85786
 560,41;10612,363;  295,184;17658,299;59,42010
 561,00;10786,662;  305,644;17964,349;59,35326
 561,58;10910,456;  305,184;18198,794;59,26849
 562,16;11073,977;  291,107;18535,033;59,10389
 562,74;11293,154;  274,415;18920,020;59,09564
 563,32;11517,674;  278,182;19425,170;58,70110
 563,90;11637,717;  298,721;19734,376;58,34121
 564,48;11842,897;  310,107;20128,558;58,19219
 565,06;12103,330;  290,644;20677,928;57,94144
 565,65;12457,584;  295,797;21411,651;57,59553
 566,23;12843,111;  353,644;22074,577;57,49968
 566,81;13185,723;  290,106;22813,189;57,25511
 567,39;13730,161;  312,413;23749,654;57,24969
 567,97;14025,414;  317,798;24445,760;56,81216
 568,55;14453,425;  312,721;25282,074;56,63224
 569,13;14847,163;  300,875;25985,573;56,63406
 569,71;15282,275;  298,800;26976,138;56,16556
 570,29;15877,347;  340,646;27965,534;56,24168
 570,87;16290,926;  332,800;28807,390;56,04339
 571,45;16556,677;  317,644;29504,075;55,63898
 572,03;16756,806;  271,182;29935,400;55,57411
 572,61;17156,548;  278,567;30658,437;55,55646
 573,20;17385,053;  313,876;31279,977;55,12860
 573,78;17696,926;  300,336;32070,451;54,75772
 574,36;17950,977;  303,490;32659,967;54,54082
 574,94;18099,681;  350,028;32969,530;54,41424
 575,52;18191,571;  322,257;33286,439;54,20827
 576,10;18477,485;  372,181;33829,419;54,11476
 576,68;18658,126;  356,028;34304,094;53,91205
 577,26;19008,435;  376,718;34970,970;53,85784
 577,84;19178,333;  374,259;35561,855;53,43950
 578,42;19377,350;  397,797;35907,543;53,44886
 579,00;19435,178;  367,336;36066,117;53,41315
 579,58;19443,712;  394,951;36358,705;52,96655
 580,16;19431,699;  386,258;36366,522;52,93302
 580,74;19416,462;  393,027;36608,613;52,52831
 581,32;19448,492;  385,489;36676,432;52,52827
 581,90;19398,746;  404,104;36700,500;52,33203
 582,48;19270,182;  394,796;36762,572;51,90140
 583,06;19348,862;  408,489;36882,136;51,92893
 583,64;19367,638;  407,412;37150,429;51,60226
 584,22;19267,477;  409,103;37069,976;51,44006
 584,80;19104,633;  424,950;36926,307;51,17531
 585,38;18785,482;  430,491;36498,816;50,88950
 585,96;18697,297;  400,028;36510,096;50,67082
 586,54;18658,943;  417,411;36434,899;50,64632
 587,12;18626,316;  384,873;36671,924;50,26984
 587,70;18699,983;  411,336;36772,495;50,29720
 588,28;18655,230;  398,335;36987,799;49,89659
 588,86;18643,871;  411,411;37134,744;49,64816
 589,44;18558,394;  381,487;37139,135;49,45068
 590,02;18525,880;  378,718;37355,737;49,07686
 590,59;18628,297;  354,488;37591,492;49,07433
 591,17;18588,148;  357,101;37811,448;48,67538
 591,75;18552,809;  359,025;37960,898;48,38531
 592,33;18586,978;  371,871;38254,145;48,08346
 592,91;18622,830;  326,101;38606,306;47,79684
 593,49;18756,918;  333,947;38912,389;47,75458
 594,07;18786,426;  341,716;39061,906;47,63590
 594,65;18597,232;  357,642;39133,911;47,03802
 595,23;18733,883;  347,718;39574,230;46,87178
 595,81;18727,256;  350,795;39762,091;46,62740
 596,39;18692,360;  349,871;39896,005;46,38251
 596,97;18671,480;  337,178;40114,666;46,09216
 597,55;18519,143;  327,026;39943,849;45,92018
 598,12;18422,445;  316,254;40022,096;45,60082
 598,70;18343,386;  316,870;40076,357;45,33890
 599,28;18399,989;  339,024;40361,354;45,12722
 599,86;18309,632;  330,793;40412,698;44,85525
 600,44;18237,015;  300,024;40495,453;44,62445
 601,02;18142,533;  350,099;40514,998;44,29847
 601,60;18046,224;  330,640;40527,074;44,07253
 602,18;17943,341;  303,946;40587,644;43,78792
 602,75;17814,648;  305,564;40724,692;43,31881
 603,33;17771,570;  325,947;40591,378;43,32655
 603,91;17590,386;  316,792;40690,319;42,78446
 604,49;17561,764;  325,639;40747,602;42,64049
 605,07;17511,031;  334,871;40763,081;42,48558
 605,65;17429,235;  344,485;40908,668;42,11782
 606,23;17453,055;  405,950;41020,458;41,97295
 606,80;17355,374;  452,256;41017,360;41,66911
 607,38;17283,302;  493,638;41115,470;41,33163
 607,96;17325,728;  546,795;41162,646;41,31129
 608,54;17160,192;  594,101;41212,721;40,78448
 609,12;17101,438;  616,641;41306,666;40,51312
 609,70;17012,614;  644,793;41349,678;40,21095
 610,27;16987,726;  652,641;41295,814;40,19146
 610,85;16954,246;  660,024;41419,558;39,97647
 611,43;16767,672;  677,178;41371,614;39,53979
 612,01;16619,293;  640,871;41203,148;39,39232
 612,59;16465,131;  630,947;41214,166;39,01658
 613,16;16367,059;  606,026;41170,539;38,85424
 613,74;16241,250;  579,024;40990,914;38,75648
 614,32;16149,056;  540,408;41042,971;38,53743
 614,90;15977,279;  490,178;40866,286;38,35709
 615,48;15737,396;  452,487;40559,746;38,11008
 616,05;15599,894;  410,180;40471,966;37,91572
 616,63;15449,391;  401,104;40363,494;37,65613
 617,21;15348,550;  399,718;40268,994;37,49462
 617,79;15199,985;  387,333;40142,361;37,25982
 618,36;15101,911;  397,486;40069,057;37,06540
 618,94;14842,607;  336,410;39771,528;36,78497
 619,52;14691,073;  365,642;39429,093;36,67221
 620,10;14589,315;  354,487;39491,226;36,37203
 620,67;14366,610;  361,873;39350,492;35,92006
 621,25;14234,280;  372,409;39161,485;35,73653
 621,83;14169,090;  354,641;39088,347;35,66519
 622,41;14031,491;  391,026;39125,842;35,21500
 622,98;13866,361;  364,642;38758,549;35,16631
 623,56;13787,251;  365,181;38884,157;34,84535
 624,14;13606,991;  355,409;38728,291;34,53372
 624,72;13490,235;  341,718;38649,914;34,32299
 625,29;13413,470;  316,104;38666,309;34,15201
 625,87;13346,566;  360,641;38532,616;34,01953
 626,45;13104,683;  314,873;38446,873;33,54089
 627,02;12997,307;  335,256;38280,118;33,36961
 627,60;12914,830;  309,331;38281,586;33,19660
 628,18;12857,900;  300,795;38338,973;33,01185
 628,76;12778,662;  310,488;38379,025;32,75191
 629,33;12730,431;  323,334;38358,690;32,61990
 629,91;12589,084;  314,718;38329,687;32,28825
 630,49;12584,709;  344,488;38449,637;32,12222
 631,06;12476,676;  329,411;38535,475;31,79408
 631,64;12370,677;  330,488;38571,503;31,48501
 632,22;12247,975;  289,335;38453,021;31,33513
 632,79;12270,886;  314,489;38673,557;31,16968
 633,37;12186,192;  297,563;38843,835;30,84249
 633,95;12103,533;  304,873;38879,750;30,58638
 634,52;12080,281;  282,103;38992,354;30,47818
 635,10;11996,851;  293,872;39015,394;30,22345
 635,68;12000,459;  298,643;39256,610;30,03703
 636,25;11930,851;  287,567;39194,822;29,92574
 636,83;11868,585;  278,027;39495,718;29,55441
 637,41;11794,352;  282,258;39440,479;29,39892
 637,98;11826,864;  311,182;39708,412;29,22967
 638,56;11750,539;  313,182;39881,850;28,90508
 639,13;11726,783;  288,334;39933,633;28,85197
 639,71;11682,092;  304,950;40086,266;28,59921
 640,29;11502,030;  256,796;39748,763;28,47474
 640,86;11549,847;  264,949;40035,288;28,37516
 641,44;11435,434;  279,949;40050,505;28,04961
 642,02;11353,020;  299,488;40076,798;27,78854
 642,59;11339,684;  274,949;40148,861;27,74931
 643,17;11235,809;  281,334;40262,617;27,39901
 643,74;11216,703;  280,180;40240,603;27,36839
 644,32;11092,905;  297,872;40196,974;27,05583
 644,89;11049,568;  294,641;40164,421;26,97513
 645,47;11004,078;  303,641;40245,177;26,79025
 646,05;10863,126;  290,411;40090,932;26,56426
 646,62;10787,328;  289,641;40109,995;26,36262
 647,20;10770,145;  289,718;40289,058;26,20150
 647,77;10694,501;  265,487;40197,967;26,11662
 648,35;10595,088;  256,026;40034,107;25,99186
 648,92;10523,751;  298,949;40081,786;25,70154
 649,50;10429,107;  255,026;40013,310;25,58984
 650,08;10348,309;  261,410;39907,450;25,44239
 650,65;10387,280;  262,333;40059,590;25,44132
 651,23;10344,482;  243,564;40483,499;25,10173
 651,80;10547,146;  258,179;41612,870;24,87980
 652,38;10663,809;  261,872;42032,164;24,90272
 652,95;10644,165;  233,256;42436,227;24,66866
 653,53;10687,136;  276,564;42747,752;24,51208
 654,10;10690,184;  289,718;42884,815;24,41705
 654,68;10564,771;  250,641;42776,185;24,25396
 655,25;10458,050;  264,872;42974,018;23,86650
 655,83;10438,559;  245,179;43005,004;23,83869
 656,40;10434,300;  284,795;42952,990;23,78705
 656,98;10343,502;  253,179;42933,591;23,64158
 657,55;10248,011;  261,410;42895,270;23,42411
 658,13;10103,598;  252,641;42493,410;23,32097
 658,70;10018,569;  269,102;42348,011;23,16949
 659,28; 9764,540;  260,640;41591,459;22,99471
 659,85; 9454,512;  256,948;40543,599;22,83030
 660,43; 9353,329;  275,948;40407,508;22,61906
 661,00; 9291,685;  262,486;40634,879;22,36478
 661,58; 9281,810;  249,794;40897,480;22,22025
 662,15; 9266,166;  239,333;41179,928;22,04861
 662,73; 9341,829;  299,948;41449,453;21,97324
 663,30; 9210,108;  268,563;41664,977;21,59981
 663,88; 9289,002;  270,948;41892,886;21,66659
 664,45; 9215,050;  255,486;42090,257;21,41655
 665,03; 9270,560;  264,717;42455,705;21,34542
 665,60; 9360,762;  312,102;42942,152;21,22601
 666,17; 9318,887;  271,255;43090,446;21,12985
 666,75; 9301,397;  261,025;43340,663;20,98526
 667,32; 9373,906;  289,948;43719,188;20,91669
 667,90; 9385,724;  266,101;43996,712;20,85409
 668,47; 9369,464;  294,640;44317,698;20,61380
 669,05; 9429,820;  269,486;44670,762;20,63079
 669,62; 9361,560;  245,178;44863,671;20,43185
 670,19; 9297,839;  254,794;44851,888;20,27721
 670,77; 9350,426;  265,793;45132,643;20,24798
 671,34; 9246,935;  268,793;45023,860;20,06062
 671,92; 9338,830;  253,947;45300,846;20,16761
 672,49; 9293,955;  269,947;45421,294;19,98613
 673,06; 9202,387;  224,024;45433,818;19,85933
 673,64; 9177,205;  255,947;45416,958;19,75434
 674,21; 9129,791;  237,255;45450,021;19,66820
 674,79; 9152,070;  262,255;45639,007;19,59112
 675,36; 9117,811;  276,947;45766,840;19,43479
 675,93; 9020,243;  253,332;45623,903;19,32290
 676,51; 8987,984;  281,870;45858,427;19,10218
 677,08; 8984,955;  268,101;45891,952;19,10592
 677,65; 8941,388;  263,947;45995,707;18,97465
 678,23; 8987,282;  268,485;46231,924;18,96898
 678,80; 8901,176;  257,101;46384,987;18,73937
 679,38; 8928,609;  241,639;46510,358;18,77504
 679,95; 8974,272;  267,485;46653,959;18,77010
 680,52; 8956,705;  250,639;47027,638;18,61185
 681,10; 9026,061;  270,331;47363,778;18,59225
 681,67; 9037,571;  272,562;47716,918;18,47429
 682,24; 9032,850;  236,254;47830,289;18,48256
 682,82; 9085,667;  250,716;48266,736;18,40001
 683,39; 9114,330;  279,331;48759,338;18,22401
 683,96; 9165,378;  243,869;48931,478;18,32398
 684,54; 9186,504;  237,408;49218,233;18,27061
 685,11; 9269,782;  268,254;49710,835;18,20602
 685,68; 9322,446;  255,023;50123,975;18,18250
 686,25; 9258,571;  242,254;50130,576;18,07300
 686,83; 9316,927;  243,715;50379,947;18,09711
 687,40; 9361,667;  228,023;50759,471;18,07517
 687,97; 9424,869;  276,331;51175,073;17,97400
 688,55; 9387,763;  237,869;51281,367;17,92568
 689,12; 9382,888;  225,254;51495,045;17,86166
 689,69; 9405,937;  232,023;51621,339;17,85179
 690,26; 9385,908;  242,869;51610,787;17,79912
 690,84; 9382,033;  241,946;51917,080;17,68759
 691,41; 9392,773;  250,638;51948,759;17,68369
 691,98; 9467,744;  256,561;52306,822;17,69671
 692,56; 9426,716;  235,253;52441,270;17,60614
 693,13; 9471,533;  294,869;52495,871;17,57948
 693,70; 9430,196;  274,176;52639,396;17,48493
 694,27; 9423,091;  250,715;52769,689;17,46488
 694,84; 9398,677;  243,561;52835,829;17,40772
 695,42; 9506,264;  284,023;52996,892;17,49524
 695,99; 9459,235;  250,099;53277,263;17,36683
 696,56; 9398,822;  243,099;53121,557;17,31465
 697,13; 9508,639;  264,022;53431,082;17,38787
 697,71; 9434,456;  219,638;53449,529;17,31136
 698,28; 9478,197;  251,253;53810,515;17,22754
 698,85; 9425,629;  218,330;53892,809;17,15396
 699,42; 9480,831;  225,715;54085,718;17,18365
 699,99; 9497,803;  265,253;54175,781;17,12569
 700,57; 9510,543;  265,868;54237,845;17,12866
 701,14; 9555,976;  245,176;54338,754;17,21239
 701,71; 9569,562;  249,330;54598,124;17,14892
 702,28; 9597,380;  256,407;54509,418;17,21743
 702,85; 9589,658;  258,484;54701,327;17,13940
 703,43; 9637,245;  273,714;54993,775;17,11170
 704,00; 9693,832;  279,483;55230,223;17,13234
 704,57; 9645,264;  259,791;55148,209;17,09919
 705,14; 9653,928;  288,330;55447,580;16,97920
 705,71; 9660,130;  304,483;55488,950;16,95341
 706,28; 9654,255;  265,714;55340,706;17,04683
 706,86; 9708,918;  295,252;55697,307;16,99155
 707,43; 9772,890;  310,022;55571,909;17,12368
 708,00; 9752,399;  290,252;55628,818;17,09865
 708,57; 9696,140;  268,098;55526,881;17,06162
 709,14; 9723,342;  293,791;55719,329;17,01301
 709,71; 9709,544;  276,560;55778,853;16,99566
 710,28; 9739,745;  279,637;56054,301;16,96130
 710,86; 9823,871;  291,175;56245,287;17,03663
 711,43; 9843,765;  290,406;56174,812;17,09486
 712,00; 9827,121;  274,637;56266,490;17,06049
 712,57; 9881,092;  275,791;56451,861;17,09856
 713,14; 9930,986;  262,252;56564,847;17,17280
 713,71; 9862,726;  270,021;56355,602;17,10369
 714,28; 9977,313;  257,560;56496,742;17,28289
 714,85; 9830,823;  242,790;56285,498;17,10844
 715,42; 9917,179;  253,098;56570,330;17,16008
 716,00; 9983,611;  284,329;56620,008;17,21694
 716,57; 9977,890;  247,636;56825,918;17,19786
 717,14; 9968,092;  228,329;56662,134;17,25874
 717,71;10014,679;  227,636;56615,659;17,35660
 718,28;10071,496;  255,405;56809,337;17,35704
 718,85;10024,621;  227,252;56777,554;17,32505
 719,42;10096,746;  251,790;56956,925;17,36167
 719,99;10043,256;  222,405;56871,680;17,33623
 720,56;10137,688;  244,328;57079,282;17,40718
 721,13;10136,583;  243,867;57071,037;17,40843
 721,70;10167,631;  235,405;56982,716;17,50255
 722,27;10159,217;  254,867;57061,317;17,43526
 722,84;10282,573;  280,867;57280,842;17,54686
 723,41;10220,237;  234,251;57128,136;17,55195
 723,98;10230,362;  241,328;57476,276;17,45268
 724,55;10317,487;  262,328;57525,877;17,55944
 725,12;10296,227;  207,636;57460,709;17,62105
 725,69;10366,198;  237,020;57676,772;17,63444
 726,27;10389,016;  233,020;57737,989;17,66107
 726,84;10481,756;  240,636;58096,668;17,70104
 727,41;10543,189;  251,251;57917,039;17,84756
 727,98;10638,237;  263,020;58335,717;17,86591
 728,55;10677,131;  283,020;58212,549;17,94268
 729,12;10617,102;  230,328;58427,843;17,84745
 729,69;10740,766;  268,559;58545,983;17,96958
 730,26;10758,122;  275,251;58827,046;17,90359
 730,82;10751,862;  245,712;58534,955;18,02417
 731,39;10792,449;  244,097;58687,249;18,04891
 731,96;10870,574;  238,866;58878,312;18,13064
 732,53;11015,314;  269,251;59284,914;18,20883
 733,10;11046,132;  270,558;59342,284;18,24151
 733,67;11089,641;  277,097;59617,578;18,22119
 734,24;11062,612;  258,020;59095,872;18,36334
 734,81;11110,660;  285,097;59304,397;18,34241
 735,38;11155,862;  263,097;59005,075;18,54341
 735,95;11173,987;  264,789;58936,215;18,59372
 736,52;11214,189;  280,096;59168,663;18,56743
 737,09;11192,545;  276,635;58809,033;18,64935
 737,66;11383,440;  316,712;59152,712;18,80945
 738,23;11418,795;  248,866;59120,159;18,97347
 738,80;11522,151;  294,635;59379,761;19,00227
 739,37;11543,968;  293,866;59598,824;18,96992
 739,94;11626,478;  277,865;59713,887;19,09383
 740,51;11808,834;  326,250;59698,258;19,34006
 741,07;11726,344;  267,865;59637,475;19,30024
 741,64;11804,238;  288,404;59815,307;19,34560
 742,21;11864,055;  274,096;59962,755;19,41736
 742,78;11880,796;  246,327;59720,818;19,56212
 743,35;11979,613;  261,634;60063,265;19,59475
 743,92;12079,738;  301,942;60219,098;19,65680
 744,49;12121,555;  279,250;60013,084;19,82512
 745,06;12144,065;  268,250;60047,301;19,86618
 745,63;12213,190;  252,865;60047,902;20,00220
 746,19;12230,238;  258,942;59949,811;20,05549
 746,76;12268,132;  272,557;60104,413;20,04881
 747,33;12286,257;  253,865;60042,937;20,12474
 747,90;12426,536;  273,173;60244,770;20,26520
 748,47;12459,969;  286,096;60168,371;20,32968
 749,04;12514,709;  282,942;60151,204;20,43114
 749,61;12520,142;  291,480;60108,882;20,44332
 750,17;12582,883;  278,634;60286,176;20,50450
 750,74;12595,546;  284,557;60067,470;20,59282
 751,31;12609,748;  257,634;59969,763;20,68611
 751,88;12613,873;  244,788;59851,903;20,75102
 752,45;12669,767;  272,480;59977,505;20,76423
 753,02;12744,892;  267,557;59914,414;20,91868
 753,58;12780,248;  256,403;59677,939;21,07627
 754,15;12858,527;  268,326;59703,463;21,18309
 754,72;12762,575;  247,172;59566,834;21,09824
 755,29;12785,623;  243,634;59412,436;21,19696
 755,86;12869,287;  261,480;59606,268;21,24501
 756,42;12948,643;  268,710;59348,946;21,46222
 756,99;12970,306;  222,864;59379,317;21,54869
 757,56;12977,354;  245,787;59345,226;21,54262
 758,13;13016,941;  201,480;59297,366;21,68588
 758,70;13123,066;  227,326;59328,045;21,81994
 759,26;13235,652;  219,787;59508,569;21,95334
 759,83;13288,777;  217,249;59608,171;22,00930
 760,40;13283,056;  215,556;59569,618;22,01618
 760,97;13299,489;  191,941;59507,374;22,09804
 761,53;13359,460;  167,787;59097,206;22,38555
 762,10;13353,047;  188,864;59006,731;22,38127
 762,67;13472,941;  215,556;58978,563;22,56077
 763,24;13390,989;  171,864;58655,010;22,60331
 763,80;13510,499;  215,941;58695,920;22,73352
 764,37;13472,624;  221,633;58724,444;22,65018
 764,94;13477,364;  202,479;58223,661;22,87938
 765,50;13548,105;  200,941;58188,109;23,01744
 766,07;13676,691;  250,941;58312,403;23,12334
 766,64;13680,586;  222,402;57961,389;23,30866
 767,21;13706,711;  218,479;57850,759;23,40395
 767,77;13751,759;  245,017;57809,284;23,46376
 768,34;13832,191;  254,633;57720,039;23,62736
 768,91;13883,932;  249,171;57490,872;23,81963
 769,47;13999,134;  242,094;57610,550;23,98015
 770,04;14011,567;  264,094;57447,998;24,04081
 770,61;14028,538;  238,556;57207,445;24,20616
 771,18;14040,970;  229,017;57093,432;24,28927
 771,74;14224,019;  251,786;57403,264;24,44772
 772,31;14205,067;  254,632;57036,096;24,56864
 772,88;14160,730;  219,555;56781,313;24,64770
 773,44;14232,548;  231,325;56535,915;24,86693
 774,01;14378,903;  242,017;56679,516;25,04875
 774,58;14324,336;  224,786;56336,041;25,12785
 775,14;14462,076;  214,171;56509,181;25,30936
 775,71;14464,586;  233,863;56373,936;25,34860
 776,27;14559,250;  273,632;56323,307;25,48742
 776,84;14686,682;  278,171;56319,216;25,71064
 777,41;14675,192;  255,324;56158,587;25,79432
 777,97;14651,932;  248,324;55869,034;25,89612
 778,54;14752,057;  248,632;55862,944;26,07858
 779,11;14801,798;  258,170;55932,391;26,12273
 779,67;14864,384;  230,093;55868,993;26,30227
 780,24;14911,279;  253,863;55591,825;26,48709
 780,80;14909,635;  263,401;55479,273;26,52540
 781,37;14974,606;  252,939;55529,951;26,63253
 781,94;14985,500;  254,862;55312,629;26,75488
 782,50;15042,240;  256,170;55101,000;26,95983
 783,07;15147,288;  272,401;55288,525;27,03732
 783,63;15156,029;  230,247;55059,588;27,22225
 784,20;15149,846;  255,478;55068,112;27,17324
 784,77;15138,817;  249,401;54868,560;27,26043
 785,33;15198,481;  226,170;54638,085;27,51660
 785,90;15214,452;  246,554;54549,609;27,56364
 786,46;15330,346;  265,939;54460,518;27,79689
 787,03;15369,010;  237,016;54258,582;28,01102
 787,59;15333,520;  245,708;54143,568;27,99334
 788,16;15410,875;  241,785;54108,708;28,16031
 788,73;15432,231;  245,400;54001,078;28,25158
 789,29;15358,664;  241,631;53561,988;28,35133
 789,86;15489,866;  246,016;53556,281;28,59459
 790,42;15532,837;  255,093;53430,575;28,73081
 790,99;15484,116;  254,246;53023,484;28,86126
 791,55;15593,010;  236,016;53114,009;29,04232
 792,12;15565,904;  259,092;53020,149;29,01157
 792,68;15642,645;  239,939;52791,366;29,30978
 793,25;15622,155;  247,015;52456,275;29,44907
 793,81;15639,433;  277,400;52162,646;29,60771
 794,38;15543,251;  221,708;51920,940;29,63592
 794,94;15592,068;  227,323;51778,464;29,80486
 795,51;15639,039;  243,708;51502,220;30,03468
 796,07;15618,549;  253,015;51154,283;30,18694
 796,64;15719,751;  272,477;51359,653;30,23709
 797,20;15576,568;  240,938;50841,024;30,30752
 797,77;15602,232;  231,246;50515,472;30,56821
 798,33;15589,588;  230,861;50318,612;30,66364
 798,90;15615,713;  267,554;50350,290;30,64561
 799,46;15558,068;  243,092;49905,892;30,83792
 800,03;15532,886;  251,246;49702,570;30,90239
 800,59;15576,780;  264,246;49447,556;31,13360
 801,15;15602,828;  256,169;49249,696;31,32385
 801,72;15426,261;  253,246;48855,452;31,21878
 802,28;15478,386;  285,707;48559,976;31,47159
 802,85;15439,357;  252,861;48411,885;31,53406
 803,41;15402,482;  252,553;48186,025;31,60616
 803,98;15313,069;  238,861;47748,858;31,72850
 804,54;15327,886;  241,938;47473,921;31,94011
 805,11;15361,626;  251,168;47388,676;32,05612
 805,67;15371,444;  264,322;47262,739;32,14389
 806,23;15329,800;  257,015;46777,571;32,40027
 806,80;15347,771;  271,091;46658,327;32,50178
 807,36;15325,665;  276,399;46582,928;32,49923
 807,93;15353,790;  277,322;46312,914;32,74959
 808,49;15298,838;  234,784;45881,900;33,00111
 809,05;15288,886;  223,399;45730,810;33,10557
 809,62;15419,011;  256,707;45606,565;33,43407
 810,18;15417,906;  257,399;45514,320;33,49876
 810,74;15399,415;  234,322;45219,614;33,71123
 811,31;15387,925;  232,553;44936,677;33,90151
 811,87;15433,050;  234,860;44874,894;34,04610
 812,44;15417,406;  272,783;44842,726;33,97945
 813,00;15411,300;  212,168;44537,251;34,29014
 813,56;15486,963;  244,552;44600,699;34,36370
 814,13;15572,781;  239,937;44506,223;34,63775
 814,69;15567,137;  247,860;44407,440;34,69072
 815,25;15497,569;  219,245;43855,965;35,01254
 815,82;15582,925;  256,783;43796,335;35,20050
 816,38;15609,666;  262,783;43605,706;35,40805
 816,94;15483,483;  220,245;43263,154;35,46052
 817,51;15539,146;  215,629;43108,832;35,72481
 818,07;15489,733;  223,091;42865,588;35,80147
 818,63;15535,704;  240,398;42571,497;36,13255
 819,20;15526,368;  235,398;42559,791;36,12803
 819,76;15425,339;  223,552;42053,854;36,34157
 820,32;15504,002;  272,244;42024,378;36,48139
 820,89;15441,666;  255,167;41769,980;36,58092
 821,45;15457,022;  234,475;41470,120;36,91599
 822,01;15373,147;  249,629;41212,490;36,92007
 822,57;15427,579;  259,783;41085,092;37,15293
 823,14;15332,704;  225,475;40882,693;37,15756
 823,70;15344,291;  218,706;40583,218;37,47248
 824,26;15352,647;  228,936;40340,127;37,70447
 824,82;15379,156;  252,552;40181,883;37,88344
 825,39;15300,974;  227,859;39873,023;38,02006
 825,95;15386,253;  256,398;39937,778;38,12835
 826,51;15283,685;  249,552;39501,918;38,30122
 827,08;15362,734;  270,244;39705,827;38,27125
 827,64;15397,166;  260,936;39398,275;38,67465
 828,20;15270,984;  233,859;39124,799;38,66485
 828,76;15419,493;  245,474;39040,478;39,11333
 829,32;15443,003;  254,321;38899,233;39,30319
 829,89;15374,820;  212,321;38687,604;39,40842
 830,45;15446,176;  229,936;38682,359;39,57160
 831,01;15452,917;  221,936;38457,576;39,83451
 831,57;15432,042;  234,628;38340,178;39,88242
 832,14;15509,167;  231,167;38418,087;40,00846
 832,70;15443,369;  232,705;38101,304;40,16696
 833,26;15467,263;  220,320;37979,213;40,37974
 833,82;15489,619;  230,705;37849,122;40,56235
 834,38;15554,128;  225,320;37884,954;40,70355
 834,95;15557,176;  213,936;37765,633;40,85898
 835,51;15550,917;  192,166;37620,619;41,03496
 836,07;15677,273;  232,859;37709,990;41,21024
 836,63;15755,013;  244,320;37710,437;41,39925
 837,19;15780,984;  231,782;37494,116;41,72901
 837,75;15683,186;  204,012;37174,563;41,86893
 838,32;15805,311;  244,935;37201,473;42,10453
 838,88;15876,667;  252,320;37381,074;42,08153
 839,44;15946,792;  237,243;37208,445;42,49131
 840,00;15963,148;  233,551;37106,585;42,65881
 840,56;15899,196;  210,089;36842,340;42,82867
 841,12;15930,321;  211,474;36801,326;42,95958
 841,68;15942,908;  209,012;36654,851;43,17062
 842,25;16009,648;  217,320;36602,222;43,40352
 842,81;15940,158;  215,012;36276,054;43,60702
 843,37;15954,744;  205,704;36358,963;43,56188
 843,93;15993,869;  223,320;36140,565;43,90802
 844,49;16137,917;  230,396;36145,859;44,29157
 845,05;16121,965;  204,089;36008,460;44,45791
 845,61;16205,783;  240,858;36106,831;44,51273
 846,17;16156,831;  225,781;35977,586;44,56013
 846,73;16242,648;  228,396;35902,495;44,89042
 847,29;16214,081;  204,012;35749,866;45,04061
 847,86;16184,975;  213,242;35627,083;45,10026
 848,42;16216,331;  204,858;35443,531;45,43722
 848,98;16220,841;  219,704;35396,055;45,48834
 849,54;16297,812;  211,242;35299,195;45,84642
 850,10;16304,091;  226,627;35297,489;45,84280
 850,66;16323,062;  202,088;35152,090;46,12582
 851,22;16399,341;  196,627;35074,461;46,45562
 851,78;16426,774;  250,242;35120,447;46,39070
 852,34;16448,668;  227,011;34792,126;46,93072
 852,90;16437,178;  210,165;34638,420;47,13284
 853,46;16391,379;  207,703;34422,483;47,30025
 854,02;16509,581;  222,473;34570,776;47,41751
 854,58;16452,706;  206,550;34248,070;47,72453
 855,14;16500,985;  188,088;34113,672;48,08435
 855,70;16460,033;  181,088;34010,119;48,12123
 856,26;16549,620;  230,857;33985,413;48,34536
 856,82;16504,514;  211,011;33795,476;48,51500
 857,38;16486,562;  232,780;33755,001;48,48659
 857,94;16516,918;  223,318;33563,141;48,87129
 858,50;16520,197;  227,472;33468,435;49,01400
 859,06;16475,014;  212,857;33216,113;49,27440
 859,62;16532,755;  238,165;33200,638;49,43376
 860,18;16565,495;  211,703;32975,239;49,91461
 860,74;16521,005;  191,164;32877,995;49,95847
 861,30;16518,515;  198,703;32637,750;50,30916
 861,86;16658,563;  234,241;32729,967;50,54302
 862,42;16580,380;  211,241;32530,722;50,64790
 862,98;16685,274;  233,549;32460,324;51,04987
 863,54;16548,245;  232,703;32223,233;51,00116
 864,10;16636,294;  218,780;32280,296;51,20629
 864,66;16653,188;  197,164;32030,436;51,69442
 865,22;16616,005;  218,395;31993,114;51,60584
 865,78;16631,207;  226,164;31765,024;52,01533
 866,34;16673,332;  217,549;31711,471;52,25066
 866,90;16628,073;  224,010;31595,842;52,28914
 867,45;16629,351;  234,779;31383,982;52,63240
 868,01;16616,630;  225,010;31204,122;52,91185
 868,57;16577,063;  220,856;30995,954;53,14754
 869,13;16531,496;  209,933;30903,633;53,17561
 869,69;16529,698;  210,702;30762,849;53,41358
 870,25;16542,131;  195,010;30629,220;53,71298
 870,81;16601,102;  223,625;30592,745;53,92806
 871,37;16610,304;  225,087;30508,423;54,10638
 871,93;16571,813;  240,317;30317,409;54,29879
 872,49;16565,708;  224,779;30062,395;54,76620
 873,04;16474,525;  209,471;29764,382;55,03334
 873,60;16432,419;  195,702;29773,906;54,89420
 874,16;16613,237;  228,471;29725,815;55,54658
 874,72;16586,929;  209,394;29565,508;55,78918
 875,28;16606,775;  227,240;29508,892;55,93788
 875,84;16657,698;  215,625;29468,508;56,20668
 876,40;16735,313;  221,163;29483,277;56,43526
 876,95;16775,160;  228,779;29318,585;56,88034
 877,51;16867,929;  241,625;29324,046;57,16960
 878,07;16931,698;  256,240;29308,892;57,39737
 878,63;17060,775;  221,702;29386,123;57,73841
 879,19;17086,237;  236,317;29306,892;57,96211
 879,75;17187,237;  231,317;29315,585;58,29928
 880,30;17267,006;  218,010;29349,738;58,52380
 880,86;17490,237;  260,933;29409,200;59,10919
 881,42;17533,083;  217,240;29516,585;59,09976
 881,98;17696,775;  230,702;29638,585;59,39249
 882,54;17779,390;  214,394;29673,585;59,62484
 883,09;17961,621;  239,779;29802,200;59,94720
 883,65;18016,313;  208,317;29926,815;59,92226
 884,21;18229,390;  241,702;30083,892;60,27603
 884,77;18290,467;  218,471;30170,277;60,33692
 885,32;18468,083;  213,240;30367,662;60,53786
 885,88;18638,160;  256,702;30528,354;60,72169
 886,44;18755,852;  226,394;30561,277;61,08300
 887,00;18781,929;  239,856;30602,200;61,06931
 887,56;18955,698;  223,163;30764,969;61,33408
 888,11;18981,621;  210,317;30778,815;61,40735
 888,67;19203,544;  252,317;31034,662;61,56525
 889,23;19232,160;  237,471;31000,738;61,74470
 889,79;19290,313;  212,702;30827,354;62,31530
 890,34;19384,621;  218,702;30761,738;62,75054
 890,90;19393,237;  276,702;31002,738;62,21608
 891,46;19442,544;  214,625;30871,892;62,71896
 892,01;19492,237;  241,317;30809,123;62,97776
 892,57;19581,544;  249,317;30782,046;63,31641
 893,13;19492,544;  211,471;30613,508;63,42033
 893,69;19508,698;  211,548;30430,200;63,85841
 894,24;19465,083;  224,471;30329,738;63,91111
 894,80;19412,775;  227,702;30158,200;64,09874
 895,36;19415,852;  225,394;30082,200;64,27499
 895,91;19292,698;  223,856;29868,815;64,32406
 896,47;19331,775;  225,548;29737,815;64,73995
 897,03;19262,621;  215,394;29583,431;64,85700
 897,58;19260,929;  230,087;29458,969;65,10972
 898,14;19200,390;  234,163;29259,354;65,34402
 898,70;19122,083;  203,548;29083,277;65,50801
 899,25;19197,775;  218,240;29094,815;65,72640
 899,81;19201,467;  238,702;28850,123;66,27691
 900,37;19050,467;  202,471;28737,200;66,05283
 900,92;19109,237;  223,317;28698,892;66,32322
 901,48;19065,775;  218,087;28523,277;66,58739
 902,03;19086,006;  210,010;28373,277;67,02346
 902,59;19006,544;  215,394;28163,969;67,23473
 903,15;19037,467;  235,317;28146,277;67,36476
 903,70;18911,083;  234,163;27831,431;67,67670
 904,26;18835,390;  207,010;27701,046;67,75426
 904,82;18875,467;  216,856;27670,200;67,96480
 905,37;18803,160;  218,010;27592,354;67,89259
 905,93;18789,313;  218,625;27372,892;68,38958
 906,48;18775,775;  227,548;27292,123;68,53323
 907,04;18785,852;  232,317;27288,046;68,57525
 907,60;18646,621;  207,010;26962,738;68,91837
 908,15;18608,467;  206,087;26884,431;68,97872
 908,71;18719,083;  240,087;26822,508;69,51585
 909,26;18562,698;  211,471;26718,431;69,23173
 909,82;18569,698;  234,625;26520,431;69,75275
 910,37;18604,390;  255,010;26494,738;69,92977
 910,93;18492,313;  204,702;26271,815;70,15588
 911,48;18520,160;  205,933;26016,431;70,95650
 912,04;18476,237;  208,779;25987,969;70,86125
 912,60;18622,467;  217,779;25989,431;71,41447
 913,15;18533,698;  222,548;25880,969;71,36507
 913,71;18463,160;  204,702;25663,738;71,71700
 914,26;18434,698;  196,548;25538,354;71,96863
 914,82;18471,237;  218,317;25452,431;72,33430
 915,37;18455,006;  205,779;25397,431;72,44157
 915,93;18452,083;  239,010;25291,969;72,69829
 916,48;18360,006;  205,394;25086,431;72,96566
 917,04;18399,621;  228,702;25025,585;73,27905
 917,59;18431,852;  237,010;24963,046;73,58576
 918,15;18337,237;  187,548;24694,738;74,05863
 918,70;18281,775;  216,163;24653,738;73,92555
 919,26;18208,313;  216,702;24573,815;73,86594
 919,81;18188,621;  205,856;24446,277;74,18504
 920,37;18196,775;  212,625;24303,200;74,65222
 920,92;18201,775;  234,010;24199,200;74,97443
 921,48;18004,160;  203,317;23943,046;74,98334
 922,03;18082,852;  214,471;23948,123;75,28711
 922,59;18033,698;  201,779;23805,892;75,54581
 923,14;17962,006;  198,240;23665,046;75,69742
 923,69;17980,237;  228,625;23581,354;76,01515
 924,25;17984,698;  232,779;23595,508;75,98393
 924,80;17853,621;  216,087;23307,585;76,38108
 925,36;17888,390;  209,163;23299,892;76,56418
 925,91;17792,544;  211,856;23093,892;76,83183
 926,47;17819,698;  187,625;23053,046;77,11239
 927,02;17807,621;  232,010;22928,046;77,43912
 927,57;17757,621;  217,933;22757,200;77,81836
 928,13;17694,083;  203,625;22745,738;77,59014
 928,68;17655,160;  208,702;22598,431;77,92170
 929,24;17511,160;  185,163;22383,046;78,05247
 929,79;17490,006;  199,471;22287,200;78,28118
 930,34;17479,313;  209,163;22196,123;78,54724
 930,90;17383,621;  195,548;22095,815;78,48339
 931,45;17421,160;  212,394;22056,738;78,77904
 932,01;17425,006;  218,394;21929,354;79,25311
 932,56;17305,390;  227,779;21786,969;79,21268
 933,11;17275,852;  226,471;21769,662;79,14046
 933,67;17115,775;  203,240;21552,585;79,21805
 934,22;17186,621;  212,087;21467,354;79,86037
 934,77;17181,083;  226,163;21440,046;79,92370
 935,33;17101,467;  223,779;21228,431;80,35215
 935,88;17101,160;  215,317;21155,200;80,63962
 936,43;17085,698;  197,394;21104,200;80,77898
 936,99;16998,006;  212,394;20907,277;81,10996
 937,54;16864,698;  194,010;20763,431;81,04598
 938,09;16947,313;  214,394;20733,123;81,54949
 938,65;16903,237;  213,779;20592,354;81,89708
 939,20;16831,775;  194,163;20559,354;81,69632
 939,75;16818,083;  198,163;20358,200;82,43993
 940,31;16776,775;  182,087;20308,969;82,45037
 940,86;16776,852;  219,702;20218,046;82,79260
 941,41;16763,775;  256,394;20175,354;82,87271
 941,96;16720,467;  203,471;20056,662;83,19568
 942,52;16700,083;  214,394;20002,738;83,31010
 943,07;16674,390;  190,163;19846,431;83,86245
 943,62;16628,313;  202,240;19760,585;83,98499
 944,18;16582,083;  196,548;19663,969;84,16900
 944,73;16569,544;  207,087;19558,046;84,55631
 945,28;16407,237;  181,702;19285,046;84,93557
 945,83;16506,852;  199,240;19313,662;85,31575
 946,39;16401,313;  202,856;19304,508;84,80134
 946,94;16367,006;  230,548;19179,123;85,15921
 947,49;16333,621;  200,163;19056,277;85,56089
 948,04;16348,160;  219,010;19013,508;85,81847
 948,59;16339,775;  227,317;18957,354;86,02470
 949,15;16322,621;  188,394;18849,277;86,46015
 949,70;16267,467;  194,933;18773,738;86,51005
 950,25;16227,083;  226,779;18670,892;86,75019
 950,80;16178,390;  171,625;18547,046;87,10965
 951,36;16143,313;  177,010;18350,046;87,85711
 951,91;16142,698;  223,087;18425,200;87,46024
 952,46;16027,775;  183,933;18200,738;87,93924
 953,01;16182,083;  222,856;18321,277;88,18022
 953,56;16089,929;  177,702;18106,662;88,75154
 954,11;16090,852;  216,087;18032,892;89,09995
 954,67;16035,775;  198,779;17954,969;89,19141
 955,22;15945,621;  180,779;17802,431;89,46291
 955,77;15969,006;  221,625;17822,969;89,46692
 956,32;15945,006;  243,010;17689,354;90,00164
 956,87;15912,006;  188,702;17499,585;90,82901
 957,42;15868,544;  204,471;17490,123;90,61893
 957,98;15856,237;  195,240;17383,354;91,11527
 958,53;15864,775;  222,471;17341,969;91,37128
 959,08;15728,621;  194,163;17226,815;91,20399
 959,63;15668,083;  192,087;17128,123;91,37909
 960,18;15638,929;  215,163;17113,277;91,27507
 960,73;15607,929;  205,010;17021,277;91,59535
 961,28;15528,929;  186,933;16850,815;92,06736
 961,83;15556,160;  213,087;16829,277;92,33809
 962,39;15480,006;  189,856;16719,508;92,50134
 962,94;15441,237;  223,317;16656,815;92,60304
 963,49;15320,237;  203,087;16471,662;92,92240
 964,04;15301,544;  215,317;16481,508;92,74591
 964,59;15253,929;  180,087;16306,892;93,47073
 965,14;15234,390;  213,471;16273,200;93,53159
 965,69;15087,006;  204,702;16118,046;93,52091
 966,24;15084,390;  208,548;16067,354;93,80178
 966,79;15054,852;  213,856;15941,662;94,36152
 967,34;14973,467;  178,087;15834,046;94,50319
 967,89;15066,698;  189,317;15766,508;95,50747
 968,44;14974,083;  211,394;15739,123;95,07307
 968,99;14949,083;  212,163;15617,277;95,66252
 969,55;14942,852;  209,856;15543,585;96,08228
 970,10;14883,775;  210,625;15387,354;96,68190
 970,65;14800,083;  214,933;15328,815;96,50168
 971,20;14793,237;  203,471;15221,892;97,14580
 971,75;14686,083;  189,548;15016,892;97,76892
 972,30;14727,775;  202,779;14988,354;98,23761
 972,85;14634,313;  203,548;14955,662;97,82168
 973,40;14550,313;  195,702;14768,354;98,50377
 973,95;14498,237;  206,779;14719,200;98,47742
 974,50;14492,160;  223,394;14604,046;99,22196
 975,05;14395,313;  220,779;14528,277;99,07067
 975,60;14446,621;  225,779;14499,892;99,62680
 976,15;14372,852;  215,394;14385,815;99,90852
 976,70;14289,698;  213,163;14295,585;99,95820
 977,25;14313,621;  208,779;14246,431;100,47864
 977,80;14207,698;  199,933;14070,969;100,98571
 978,35;14064,544;  215,163;13921,200;101,04585
 978,89;14077,313;  196,010;13858,892;101,59865
 979,44;14080,852;  205,317;13801,046;102,05804
 979,99;13893,006;  193,625;13576,815;102,36259
 980,54;13797,160;  235,779;13537,431;101,95261
 981,09;13702,929;  218,779;13386,431;102,40360
 981,64;13656,852;  216,471;13246,123;103,15226
 982,19;13620,544;  248,240;13218,815;103,09723
 982,74;13518,313;  226,702;13068,892;103,49957
 983,29;13429,083;  195,240;12960,431;103,67133
 983,84;13352,083;  212,856;12819,046;104,22837
 984,39;13340,390;  247,471;12780,277;104,46918
 984,94;13221,006;  190,471;12605,277;104,95963
 985,49;13134,621;  229,010;12594,200;104,37050
 986,03;13113,775;  240,856;12523,431;104,80636
 986,58;12969,006;  246,240;12336,354;105,23280
 987,13;12836,929;  218,240;12182,662;105,46844
 987,68;12744,929;  230,163;12091,585;105,50814
 988,23;12772,775;  229,933;12044,508;106,16414
 988,78;12550,775;  214,317;11896,508;105,60055
 989,33;12512,621;  228,471;11790,969;106,24131
 989,88;12442,160;  235,394;11768,508;105,84102
 990,42;12355,083;  219,625;11560,354;107,00774
 990,97;12232,852;  216,856;11451,354;106,95623
 991,52;12256,621;  239,779;11399,585;107,67967
 992,07;12113,313;  244,394;11279,277;107,55818
 992,62;12072,698;  230,163;11193,431;108,02012
 993,17;11917,083;  230,471;11045,662;108,05738
 993,71;11823,775;  222,471;10962,046;108,02386
 994,26;11674,544;  199,471;10790,431;108,34781
 994,81;11652,237;  232,779;10751,969;108,55833
 995,36;11458,775;  218,702;10593,046;108,34490
 995,91;11451,313;  223,317;10579,277;108,42063
 996,45;11321,390;  228,548;10423,046;108,81205
 997,00;11271,698;  199,471;10229,431;110,39154
 997,55;11233,083;  216,702;10290,815;109,35335
 998,10;11174,083;  247,317;10106,662;110,82649
 998,65;11104,390;  218,779;10045,662;110,77380
 999,19;10969,467;  237,317; 9846,277;111,68899
 999,74;10876,929;  252,779; 9788,892;111,40964
1000,29;10857,237;  227,933; 9701,815;112,19586
1000,84;10631,929;  216,317; 9565,969;111,40106
1001,38;10578,237;  220,702; 9439,508;112,35224
1001,93;10531,929;  237,087; 9388,585;112,49352
1002,48;10395,006;  203,087; 9251,662;112,63563
1003,03;10396,621;  221,856; 9196,969;113,36643
1003,57;10310,237;  231,087; 9100,738;113,63636
1004,12;10260,160;  245,010; 8986,123;114,57522
1004,67;10099,006;  214,779; 8895,277;113,86705
1005,22; 9998,852;  210,933; 8746,969;114,66585
1005,76; 9864,544;  205,548; 8598,431;115,08556
1006,31; 9820,390;  242,625; 8582,508;114,84293
1006,86; 9696,313;  211,010; 8482,738;114,67136
1007,40; 9550,160;  196,471; 8278,046;115,74091
1007,95; 9456,852;  215,163; 8231,277;115,28889
1008,50; 9365,237;  218,933; 8077,508;116,38629
1009,04; 9219,929;  225,625; 8005,123;115,61548
1009,59; 9093,852;  231,625; 7830,585;116,62421
1010,14; 9041,390;  211,471; 7737,277;117,32856
1010,68; 8920,467;  219,087; 7635,585;117,32465
1011,23; 8764,621;  200,548; 7480,662;117,63653
1011,78; 8710,467;  229,856; 7416,508;118,00504
1012,32; 8547,698;  217,240; 7308,738;117,47106
1012,87; 8554,544;  244,933; 7266,738;118,34009
1013,42; 8362,313;  209,240; 7137,046;117,68622
1013,96; 8392,160;  242,163; 7109,815;118,67224
1014,51; 8264,544;  195,779; 6996,431;118,64694
1015,06; 8292,621;  196,471; 7019,431;118,66038
1015,60; 8361,313;  260,702; 7074,738;118,88125
1016,15; 8267,852;  215,394; 7027,354;118,21059
1016,69; 8338,929;  210,702; 7032,892;119,14395
1017,24; 8365,775;  201,625; 7041,277;119,36499
1017,79; 8449,390;  236,625; 7133,046;119,08735
1018,33; 8459,467;  196,856; 7086,431;119,92919
1018,88; 8544,313;  217,856; 7119,123;120,65114
1019,42; 8579,237;  221,625; 7189,431;119,94610
1019,97; 8528,390;  212,010; 7144,431;119,96358
1020,51; 8631,775;  216,317; 7204,585;120,42266
1021,06; 8654,160;  211,240; 7194,277;120,90613
1021,61; 8633,544;  190,087; 7111,277;121,99430
1022,15; 8633,313;  171,856; 7116,969;121,83325
1022,70; 8663,083;  215,856; 7101,815;122,67320
1023,24; 8655,006;  204,548; 7089,123;122,74480
1023,79; 8561,313;  220,163; 7016,892;122,72301
1024,33; 8504,083;  218,087; 7014,508;121,91705
1024,88; 8438,775;  219,240; 6898,200;123,06609
1025,42; 8275,775;  201,779; 6767,585;122,97038
1025,97; 8221,621;  203,933; 6709,815;123,23752
1026,51; 8142,698;  173,087; 6576,123;124,46613
1027,06; 8060,390;  209,317; 6514,508;124,51762
1027,60; 7890,313;  207,702; 6401,508;124,03701
1028,15; 7835,544;  221,087; 6325,200;124,74306
1028,69; 7690,544;  174,317; 6191,277;124,91736
1029,24; 7649,006;  207,933; 6127,738;125,69793
1029,78; 7504,852;  205,779; 6030,892;125,30353
1030,33; 7374,313;  177,933; 5875,969;126,29580
1030,87; 7303,083;  206,471; 5843,354;125,89603
1031,42; 7196,852;  194,933; 5743,123;126,20186
1031,96; 7119,929;  212,317; 5674,431;126,46408
1032,51; 6988,929;  199,317; 5561,277;126,62556
1033,05; 6949,929;  208,163; 5559,431;125,98446
1033,60; 6790,775;  174,933; 5420,508;126,12235
1034,14; 6752,698;  199,933; 5322,815;127,91168
1034,69; 6672,390;  199,317; 5278,585;127,44108
1035,23; 6590,160;  204,702; 5203,662;127,73573
1035,77; 6535,929;  196,087; 5102,969;129,20305
1036,32; 6440,467;  180,779; 5061,277;128,25921
1036,86; 6379,390;  198,163; 5007,200;128,53358
1037,41; 6283,160;  204,625; 4916,046;129,01701
1037,95; 6206,083;  183,933; 4840,200;129,33428
1038,50; 6137,083;  196,240; 4790,200;129,31856
1039,04; 6061,621;  203,779; 4734,585;129,28920
1039,58; 5966,467;  192,010; 4634,892;129,97097
1040,13; 5906,313;  201,471; 4572,431;130,51693
1040,67; 5884,237;  223,394; 4554,431;130,70410
1041,21; 5737,544;  228,317; 4467,892;129,94762
1041,76; 5651,698;  176,471; 4386,431;130,05414
1042,30; 5586,621;  210,471; 4333,738;130,38568
1042,85; 5480,006;  207,856; 4276,046;129,59448
1043,39; 5404,544;  190,010; 4189,123;130,39226
1043,93; 5384,929;  217,394; 4146,431;131,52167
1044,48; 5284,083;  205,548; 4087,123;130,83696
1045,02; 5217,929;  202,856; 4031,046;131,00375
1045,56; 5173,237;  210,548; 3970,969;131,97161
1046,11; 5093,544;  210,394; 3918,277;131,69645
1046,65; 5054,390;  208,779; 3887,123;131,73350
1047,19; 4980,544;  198,779; 3772,354;133,80901
1047,74; 4912,083;  182,856; 3709,354;134,10547
1048,28; 4876,006;  210,779; 3699,123;133,73757
1048,82; 4799,313;  222,625; 3665,508;132,93187
1049,37; 4773,313;  205,240; 3596,738;134,69190
1049,91; 4674,775;  197,548; 3556,892;133,27681
1050,45; 4640,852;  228,317; 3497,738;134,96379
1050,99; 4582,698;  207,856; 3457,277;134,63451
1051,54; 4496,775;  196,933; 3406,969;133,94995
1052,08; 4467,929;  215,010; 3390,508;133,92920
1052,62; 4435,775;  221,548; 3324,277;135,82324
1053,16; 4347,006;  192,702; 3260,046;135,43651
1053,71; 4307,467;  215,856; 3214,123;136,46587
1054,25; 4254,467;  223,779; 3169,892;136,81376
1054,79; 4217,621;  211,933; 3115,354;137,96443
1055,33; 4129,237;  183,163; 3065,123;136,92326
1055,88; 4120,083;  227,317; 3055,123;137,66028
1056,42; 4063,852;  234,702; 3005,662;138,18859
1056,96; 3989,621;  221,240; 2946,508;138,27564
1057,50; 3958,237;  201,240; 2901,738;139,12234
1058,05; 3894,621;  212,625; 2862,354;138,95747
1058,59; 3857,775;  228,163; 2863,431;137,73220
1059,13; 3747,852;  196,163; 2778,892;137,51689
1059,67; 3746,006;  229,163; 2767,354;138,55707
1060,21; 3677,237;  218,240; 2707,815;138,93922
1060,76; 3652,544;  221,779; 2650,815;141,23976
1061,30; 3613,467;  232,010; 2631,815;140,90547
1061,84; 3535,621;  211,471; 2589,585;139,78097
1062,38; 3473,160;  205,317; 2537,738;140,10516
1062,92; 3477,929;  243,317; 2551,277;140,15027
1063,46; 3399,160;  229,933; 2483,585;140,62628
1064,01; 3338,390;  208,317; 2434,892;140,57793
1064,55; 3323,467;  217,163; 2405,431;141,95267
1065,09; 3243,237;  186,779; 2359,815;140,65376
1065,63; 3244,852;  232,471; 2386,508;139,84817
1066,17; 3218,313;  234,010; 2342,508;141,53695
1066,71; 3198,083;  230,087; 2316,969;142,22151
1067,25; 3126,929;  212,471; 2262,969;142,13413
1067,80; 3128,929;  233,163; 2246,123;143,85611
1068,34; 3093,083;  237,471; 2246,585;142,13292
1068,88; 2995,390;  213,087; 2162,431;142,73025
1069,42; 3025,160;  248,779; 2180,585;143,71946
1069,96; 2946,083;  218,625; 2115,738;143,76882
1070,50; 2963,467;  245,317; 2124,123;144,67435
1071,04; 2881,083;  212,394; 2064,354;144,10079
1071,58; 2861,313;  221,548; 2029,123;146,03905
1072,12; 2838,006;  212,625; 2019,892;145,26798
1072,66; 2801,698;  211,240; 1998,354;144,95206
1073,21; 2824,313;  230,163; 2000,738;146,51455
1073,75; 2751,698;  223,163; 1961,585;145,45006
1074,29; 2713,775;  230,087; 1930,277;146,08296
1074,83; 2690,390;  228,163; 1910,046;146,39707
1075,37; 2669,467;  226,856; 1907,508;145,33715
1075,91; 2639,775;  233,240; 1899,738;144,40668
1076,45; 2588,852;  229,317; 1849,662;145,61934
1076,99; 2539,544;  222,933; 1827,431;144,38232
1077,53; 2526,852;  207,625; 1766,200;148,80432
1078,07; 2533,390;  232,933; 1774,738;149,20541
1078,61; 2478,775;  223,087; 1751,123;147,62006
1079,15; 2425,852;  220,548; 1742,431;144,90630
1079,69; 2414,390;  234,933; 1710,200;147,73307
1080,23; 2393,390;  232,240; 1702,046;147,03643
1080,77; 2386,698;  252,240; 1702,354;147,19246
1081,31; 2315,237;  217,240; 1635,969;147,87859
1081,85; 2299,390;  233,240; 1652,508;145,57864
1082,39; 2272,775;  221,394; 1597,354;149,08728
1082,93; 2274,775;  216,010; 1611,892;147,48842
1083,47; 2228,390;  207,625; 1568,123;148,53129
1084,01; 2224,006;  236,625; 1576,046;148,37609
1084,55; 2159,160;  216,163; 1516,738;149,39516
1085,09; 2168,929;  227,317; 1543,277;147,54340
1085,63; 2109,775;  219,394; 1525,662;144,71623
1086,17; 2094,006;  213,394; 1487,892;147,55703
1086,71; 2062,313;  214,087; 1471,277;147,01249
1087,24; 2071,698;  237,625; 1468,662;148,98608
1087,78; 2053,467;  235,702; 1460,662;148,39390
1088,32; 1981,006;  221,548; 1420,662;146,72988
1088,86; 1995,544;  241,702; 1424,508;148,27813
1089,40; 1966,698;  226,779; 1386,431;150,03806
1089,94; 1916,467;  193,702; 1343,815;149,79091
1090,48; 1927,775;  233,779; 1347,969;152,03830
1091,02; 1891,852;  229,933; 1353,431;147,92364
1091,56; 1864,929;  238,702; 1347,277;146,69525
1092,10; 1816,083;  207,240; 1278,892;150,12732
1092,63; 1843,852;  235,317; 1306,662;150,14172
1093,17; 1804,929;  223,625; 1280,969;149,55431
1093,71; 1771,160;  211,548; 1279,815;145,99450
1094,25; 1786,775;  246,010; 1260,662;151,85162
1094,79; 1714,698;  223,163; 1235,123;147,39073
1095,33; 1728,313;  229,394; 1229,585;149,86339
1095,87; 1704,237;  223,471; 1204,508;150,93886
1096,40; 1647,852;  200,548; 1177,277;148,17867
1096,94; 1658,006;  220,087; 1190,508;148,17476
1097,48; 1662,775;  224,240; 1172,354;151,72600
1098,02; 1613,698;  222,087; 1139,277;151,72548
1098,56; 1573,160;  200,548; 1117,354;149,71672
1099,10; 1548,775;  202,933; 1101,892;149,71110
1099,63; 1546,313;  211,933; 1091,969;151,62788
1100,17; 1542,929;  228,471; 1098,431;151,09410
1100,71; 1545,621;  240,779; 1111,508;149,85633

