
Integration time [ms]: 160,000
Averaging Nr. [scans]: 13
Smoothing Nr. [pixels]: 0
Data measured with spectrometer [name]: 2009305U1
Wave   ;Sample   ;Dark     ;Reference;Reflectance
[nm]   ;[counts] ;[counts] ;[counts] ;[%]

 175,72;  219,948;  192,833;  205,653;211,50325
 176,32;  239,913;  215,986;  216,813; 0,00000
 176,92;  277,304;  247,602;  254,971;403,05312
 177,52;  274,664;  255,679;  265,678;189,87976
 178,12;  254,386;  239,756;  224,864; 0,00000
 178,72;  273,130;  257,525;  250,340; 0,00000
 179,32;  282,597;  248,909;  241,998; 0,00000
 179,92;  257,343;  247,063;  242,319; 0,00000
 180,52;  271,327;  235,064;  254,068;190,81447
 181,12;  269,736;  243,833;  252,404;302,19407
 181,73;  290,169;  258,371;  266,338;399,15405
 182,33;  407,645;  327,141;  336,927;822,65881
 182,93;  292,401;  265,064;  266,645;1728,43884
 183,53;  254,474;  233,755;  224,030; 0,00000
 184,13;  258,029;  236,909;  229,431; 0,00000
 184,73;  314,567;  266,448;  273,739;659,97840
 185,33;  276,003;  232,445;  341,197;40,05325
 185,93;  270,564;  226,213;  348,375;36,30450
 186,53;  290,456;  244,675;  370,650;36,34088
 187,13;  309,025;  273,291;  414,063;25,38443
 187,73;  278,260;  243,598;  361,495;29,40058
 188,33;  273,874;  237,983;  370,649;27,05428
 188,93;  283,659;  250,059;  374,130;27,08153
 189,53;  272,150;  248,981;  393,125;16,07319
 190,13;  329,598;  274,058;  409,924;40,87834
 190,73;  256,427;  218,289;  365,019;25,99222
 191,34;  295,184;  256,905;  385,888;29,67802
 191,94;  271,492;  235,829;  359,614;28,81093
 192,54;  288,432;  240,984;  391,391;31,54664
 193,14;  284,624;  258,291;  390,009;19,99217
 193,74;  298,539;  260,214;  377,424;32,69757
 194,34;  293,107;  241,445;  388,106;35,22526
 194,94;  256,592;  209,983;  342,899;35,06610
 195,54;  234,546;  190,137;  332,970;31,09159
 196,14;  260,188;  225,291;  354,341;27,04158
 196,74;  256,064;  223,445;  343,719;27,12054
 197,34;  233,906;  197,522;  345,903;24,52081
 197,94;  261,151;  232,368;  373,573;20,38370
 198,54;  274,565;  228,599;  383,909;29,59606
 199,14;  248,976;  215,368;  380,241;20,38402
 199,74;  235,009;  190,292;  370,197;24,85591
 200,34;  236,159;  195,061;  379,885;22,23623
 200,94;  257,246;  233,599;  425,936;12,29462
 201,54;  247,215;  216,753;  432,596;14,11287
 202,14;  294,868;  230,061;  474,093;26,55673
 202,74;  257,766;  213,907;  473,146;16,91822
 203,34;  235,468;  180,907;  480,577;18,20705
 203,94;  204,569;  170,753;  486,255;10,71795
 204,54;  284,289;  238,445;  563,211;14,11594
 205,14;  241,968;  203,984;  571,733;10,32884
 205,74;  281,865;  236,907;  659,589;10,63630
 206,34;  245,135;  200,215;  679,015; 9,38187
 206,94;  263,645;  210,138;  728,140;10,32950
 207,54;  224,277;  191,907;  773,579; 5,56493
 208,14;  251,957;  194,522;  845,836; 8,81828
 208,74;  257,187;  198,907;  918,683; 8,09692
 209,34;  251,782;  202,215;  992,970; 6,26836
 209,94;  275,171;  202,753; 1089,013; 8,17114
 210,54;  262,763;  195,292; 1187,450; 6,80048
 211,14;  274,490;  194,368; 1267,179; 7,46841
 211,73;  276,615;  197,830; 1399,958; 6,55382
 212,33;  286,060;  214,830; 1495,442; 5,56219
 212,93;  278,352;  201,830; 1569,925; 5,59336
 213,53;  262,988;  168,522; 1613,023; 6,53970
 214,13;  298,522;  193,369; 1705,053; 6,95601
 214,73;  262,868;  179,907; 1721,786; 5,38051
 215,33;  256,786;  163,830; 1742,628; 5,88777
 215,93;  305,861;  194,523; 1862,662; 6,67439
 216,53;  254,433;  157,753; 1944,199; 5,41188
 217,13;  307,941;  209,061; 2159,512; 5,06962
 217,73;  294,849;  196,599; 2334,342; 4,59593
 218,33;  276,348;  149,754; 2512,186; 5,35865
 218,93;  330,407;  177,292; 2802,474; 5,83255
 219,53;  350,534;  179,830; 3052,680; 5,94197
 220,13;  316,600;  166,677; 3342,899; 4,72017
 220,73;  369,543;  178,292; 3659,770; 5,49340
 221,32;  384,802;  192,215; 4073,836; 4,96152
 221,92;  417,802;  184,984; 4477,909; 5,42329
 222,52;  419,707;  163,446; 4867,162; 5,44806
 223,12;  452,266;  187,984; 5286,413; 5,18359
 223,72;  472,529;  189,369; 5644,061; 5,19113
 224,32;  491,412;  186,830; 5997,482; 5,24178
 224,92;  496,011;  168,830; 6323,312; 5,31614
 225,52;  548,446;  197,753; 6670,557; 5,41795
 226,12;  541,747;  180,753; 6972,357; 5,31529
 226,72;  546,087;  160,753; 7292,274; 5,40325
 227,31;  550,917;  151,984; 7646,565; 5,32295
 227,91;  624,892;  194,138; 8071,656; 5,46814
 228,51;  637,485;  165,984; 8435,636; 5,70159
 229,11;  664,844;  184,907; 8840,069; 5,54509
 229,71;  681,611;  170,830; 9126,800; 5,70325
 230,31;  687,615;  168,369; 9555,531; 5,53145
 230,91;  721,881;  158,599; 9813,841; 5,83395
 231,51;  745,602;  163,753;10061,634; 5,87851
 232,10;  767,133;  164,907;10384,972; 5,89259
 232,70;  814,414;  181,445;10581,029; 6,08649
 233,30;  851,763;  195,753;10813,411; 6,17848
 233,90;  825,747;  167,984;10937,933; 6,10739
 234,50;  855,055;  169,984;11059,818; 6,29092
 235,10;  875,242;  171,292;10974,158; 6,51633
 235,70;  932,620;  182,907;11013,347; 6,92228
 236,29;  916,729;  178,907;10902,340; 6,88046
 236,89;  895,849;  160,907;10792,462; 6,91284
 237,49;  941,508;  183,907;10632,310; 7,25088
 238,09;  936,827;  172,753;10341,707; 7,51379
 238,69;  974,682;  207,676;10098,604; 7,75465
 239,29;  920,204;  164,138; 9734,699; 7,89991
 239,89;  904,096;  172,907; 9401,017; 7,92350
 240,48;  885,042;  167,215; 8971,537; 8,15312
 241,08;  886,244;  164,522; 8611,278; 8,54437
 241,68;  887,131;  188,215; 8278,664; 8,63878
 242,28;  837,367;  156,215; 7940,130; 8,75076
 242,88;  884,939;  197,061; 7665,624; 9,21031
 243,48;  869,322;  202,138; 7348,585; 9,33588
 244,07;  857,029;  196,215; 7158,640; 9,49115
 244,67;  842,868;  189,599; 6950,593; 9,66232
 245,27;  841,538;  189,214; 6813,419; 9,84758
 245,87;  871,238;  193,677; 6751,769;10,33169
 246,47;  858,247;  180,522; 6743,128;10,32707
 247,06;  841,349;  173,599; 6743,421;10,16390
 247,66;  839,249;  171,676; 6819,743;10,04160
 248,26;  892,170;  200,830; 7000,936;10,16661
 248,86;  912,312;  197,445; 7154,654;10,27519
 249,46;  893,108;  145,599; 7378,217;10,33524
 250,05;  963,669;  199,830; 7771,472;10,08816
 250,65;  980,761;  152,599; 8058,257;10,47555
 251,25; 1040,418;  170,984; 8552,490;10,37324
 251,85; 1085,225;  170,830; 9127,877;10,20867
 252,44; 1134,093;  137,061; 9680,974;10,44679
 253,04; 1212,774;  188,215;10445,847; 9,98826
 253,64; 1243,437;  136,830;11140,049;10,05712
 254,24; 1366,945;  193,061;12050,132; 9,90028
 254,84; 1439,492;  169,830;13024,525; 9,87703
 255,43; 1514,166;  179,676;13965,778; 9,67997
 256,03; 1606,380;  176,907;14933,069; 9,68730
 256,63; 1697,448;  184,599;15959,061; 9,59050
 257,23; 1771,829;  171,753;16835,711; 9,60202
 257,82; 1876,888;  182,599;17818,426; 9,60709
 258,42; 1901,782;  143,753;18720,590; 9,46356
 259,02; 2037,272;  189,522;19585,306; 9,52655
 259,62; 2056,078;  171,445;20283,193; 9,37081
 260,21; 2123,255;  174,291;20811,251; 9,44405
 260,81; 2163,451;  185,907;21379,753; 9,33075
 261,41; 2152,127;  151,137;21814,664; 9,23668
 262,01; 2199,514;  198,214;22356,130; 9,03199
 262,60; 2212,906;  159,060;22637,173; 9,13709
 263,20; 2224,344;  176,445;23055,648; 8,95092
 263,80; 2222,166;  194,906;23123,820; 8,84150
 264,40; 2206,753;  149,752;23365,215; 8,86048
 264,99; 2242,376;  181,983;23636,262; 8,78472
 265,59; 2215,257;  166,214;23828,529; 8,65952
 266,19; 2227,352;  157,752;24024,776; 8,67138
 266,78; 2271,190;  197,445;24085,499; 8,68110
 267,38; 2206,501;  186,368;24190,233; 8,41587
 267,98; 2193,639;  170,906;24143,256; 8,43777
 268,58; 2208,638;  186,137;24183,756; 8,42793
 269,17; 2187,232;  173,752;24133,851; 8,40347
 269,77; 2162,326;  192,522;23966,940; 8,28539
 270,37; 2120,336;  161,368;23855,106; 8,26787
 270,96; 2125,726;  214,830;23796,071; 8,10346
 271,56; 2088,355;  179,676;23480,276; 8,19154
 272,16; 2053,345;  169,060;23368,768; 8,12202
 272,75; 2025,726;  169,522;23244,494; 8,04423
 273,35; 2026,678;  186,753;23207,061; 7,99262
 273,95; 2024,066;  180,291;23273,296; 7,98413
 274,54; 2003,090;  158,061;23319,855; 7,96583
 275,14; 2065,658;  185,830;23690,387; 7,99772
 275,74; 2010,293;  157,830;23677,369; 7,87627
 276,33; 2063,763;  197,983;24100,569; 7,80577
 276,93; 2062,795;  184,138;24473,251; 7,73457
 277,53; 2103,992;  181,984;25015,911; 7,73945
 278,12; 2121,044;  152,830;25597,349; 7,73532
 278,72; 2234,579;  215,676;26084,768; 7,80431
 279,32; 2245,704;  184,830;26655,470; 7,78551
 279,91; 2291,384;  151,984;27296,689; 7,88147
 280,51; 2354,357;  164,061;27885,853; 7,90099
 281,11; 2433,214;  165,368;28515,442; 7,99944
 281,70; 2435,623;  153,676;28993,081; 7,91260
 282,30; 2555,740;  163,599;29674,353; 8,10600
 282,90; 2604,331;  168,753;30003,444; 8,16358
 283,49; 2683,941;  190,983;30517,786; 8,22031
 284,09; 2759,465;  200,214;30896,231; 8,33740
 284,69; 2822,494;  194,907;31311,375; 8,44436
 285,28; 2864,971;  181,907;31608,199; 8,53764
 285,88; 3026,090;  231,060;31904,705; 8,82447
 286,47; 2991,452;  181,137;31901,565; 8,85964
 287,07; 3091,057;  202,984;31975,438; 9,08986
 287,67; 3191,399;  185,830;32122,739; 9,41096
 288,26; 3261,008;  169,599;32037,774; 9,70061
 288,86; 3333,412;  168,676;32056,294; 9,92466
 289,46; 3458,834;  193,984;32185,292;10,20543
 290,05; 3581,616;  172,368;32376,766;10,58628
 290,65; 3737,553;  173,907;32494,359;11,02598
 291,24; 3905,170;  178,138;32665,551;11,47224
 291,84; 4082,525;  184,830;32740,907;11,97225
 292,44; 4182,221;  179,061;33002,715;12,19596
 293,03; 4406,700;  246,907;32988,735;12,70483
 293,63; 4470,007;  176,599;33084,504;13,04674
 294,22; 4636,915;  190,753;33347,104;13,40968
 294,82; 4713,964;  182,060;33256,310;13,70221
 295,41; 4790,238;  155,291;33060,774;14,08564
 296,01; 4906,884;  208,214;33008,575;14,32505
 296,61; 5001,514;  182,753;32641,087;14,84599
 297,20; 4979,143;  186,522;32323,950;14,91290
 297,80; 5009,390;  194,984;32156,885;15,06295
 298,39; 5002,456;  164,060;31774,877;15,30614
 298,99; 5022,589;  189,214;31656,241;15,36012
 299,58; 5046,836;  192,292;31571,638;15,47051
 300,18; 5046,074;  209,445;31366,877;15,52319
 300,78; 4986,183;  177,599;30948,409;15,62709
 301,37; 5028,267;  193,291;30891,191;15,75019
 301,97; 5088,279;  188,061;30939,660;15,93484
 302,56; 5022,978;  187,137;30906,361;15,74207
 303,16; 5006,035;  173,753;30840,917;15,75718
 303,75; 5004,430;  174,368;30857,002;15,74200
 304,35; 5095,225;  166,830;31103,257;15,93072
 304,94; 5099,797;  179,138;31040,448;15,94443
 305,54; 5130,417;  201,215;31020,913;15,99368
 306,13; 5050,145;  164,984;31012,753;15,83635
 306,73; 5010,427;  168,138;30770,960;15,82302
 307,33; 5031,318;  192,369;30714,351;15,85398
 307,92; 5049,563;  185,061;30785,136;15,89703
 308,52; 5073,731;  165,830;31199,806;15,81461
 309,11; 5174,539;  172,137;31705,231;15,86398
 309,71; 5148,599;  168,599;31935,792;15,67655
 310,30; 5227,105;  160,061;32195,179;15,81716
 310,90; 5314,951;  198,061;32541,025;15,82072
 311,49; 5272,170;  179,214;32617,051;15,70066
 312,09; 5281,629;  152,599;32789,355;15,71550
 312,68; 5440,988;  218,291;33185,330;15,84218
 313,28; 5323,409;  159,907;33317,674;15,57253
 313,87; 5335,271;  153,830;33457,421;15,55821
 314,47; 5373,843;  169,214;33719,073;15,51312
 315,06; 5364,373;  155,291;33846,369;15,46131
 315,66; 5403,475;  156,061;33991,278;15,50873
 316,25; 5346,739;  145,291;34000,199;15,36394
 316,85; 5301,515;  140,215;34012,972;15,23732
 317,44; 5304,082;  163,445;34187,697;15,10874
 318,04; 5320,962;  154,368;34156,383;15,19496
 318,63; 5259,282;  146,292;34237,622;14,99792
 319,22; 5303,359;  171,445;34452,357;14,97018
 319,82; 5297,691;  162,137;34418,304;14,99162
 320,41; 5256,739;  181,214;34371,699;14,84485
 321,01; 5238,430;  184,907;34386,656;14,77563
 321,60; 5238,825;  176,214;34477,630;14,75919
 322,20; 5191,158;  164,599;34382,000;14,69007
 322,79; 5194,842;  198,368;34501,800;14,56552
 323,39; 5128,480;  170,907;34565,974;14,41362
 323,98; 5114,187;  149,522;34508,529;14,44938
 324,58; 5063,739;  154,368;34408,391;14,33225
 325,17; 5034,266;  176,599;34190,879;14,28126
 325,76; 4971,684;  187,830;34036,681;14,13299
 326,36; 4919,406;  143,368;33626,517;14,26400
 326,95; 4875,898;  193,753;33357,126;14,11842
 327,55; 4744,181;  148,676;32972,948;14,00033
 328,14; 4698,265;  161,292;32580,644;13,99464
 328,74; 4653,946;  189,830;32167,636;13,96004
 329,33; 4547,896;  178,907;31731,391;13,84673
 329,92; 4443,288;  156,214;31253,788;13,78588
 330,52; 4380,576;  173,753;30573,956;13,83814
 331,11; 4292,833;  171,445;30177,215;13,73532
 331,71; 4181,615;  165,522;29557,766;13,66378
 332,30; 4159,797;  177,445;29149,371;13,74556
 332,89; 4095,422;  213,984;28628,725;13,65994
 333,49; 3922,752;  187,907;28086,942;13,38701
 334,08; 3888,173;  175,368;27697,286;13,49036
 334,68; 3782,967;  180,907;27293,964;13,28533
 335,27; 3721,848;  186,215;26952,612;13,20922
 335,86; 3747,679;  224,753;26641,446;13,33599
 336,46; 3632,443;  181,061;26461,399;13,13294
 337,05; 3569,971;  171,599;26265,353;13,02370
 337,65; 3525,282;  153,291;26054,626;13,01860
 338,24; 3553,624;  213,907;26069,851;12,91663
 338,83; 3522,749;  192,984;25957,438;12,92387
 339,43; 3495,642;  167,984;25897,909;12,93303
 340,02; 3448,282;  162,291;25866,857;12,78368
 340,61; 3481,134;  170,138;25836,938;12,89992
 341,21; 3461,330;  208,137;25858,636;12,68277
 341,80; 3442,465;  175,368;25826,808;12,73650
 342,40; 3429,548;  170,292;25890,158;12,67214
 342,99; 3420,652;  165,445;25947,187;12,62602
 343,58; 3434,819;  177,368;26189,622;12,52275
 344,18; 3447,155;  195,522;26373,073;12,42145
 344,77; 3499,411;  164,599;26529,948;12,64847
 345,36; 3470,821;  148,676;26879,818;12,42800
 345,96; 3541,758;  201,984;27219,638;12,36145
 346,55; 3593,922;  151,369;27427,300;12,62121
 347,14; 3583,419;  152,907;27772,144;12,42073
 347,74; 3659,506;  143,292;28192,844;12,53572
 348,33; 3724,721;  164,677;28854,944;12,40854
 348,92; 3791,005;  178,061;29402,688;12,36267
 349,52; 3810,972;  140,215;29849,887;12,35543
 350,11; 3829,383;  175,907;30115,958;12,20264
 350,70; 3866,879;  167,061;30103,798;12,35879
 351,29; 3812,712;  160,291;29828,098;12,31106
 351,89; 3859,377;  176,983;29840,031;12,41408
 352,48; 3820,777;  155,215;29908,351;12,31992
 353,07; 3829,281;  174,599;29796,583;12,33774
 353,67; 3834,580;  189,215;29796,109;12,31255
 354,26; 3785,734;  164,676;29465,729;12,35812
 354,85; 3780,770;  173,907;29381,496;12,34906
 355,45; 3740,343;  158,830;29187,341;12,33792
 356,04; 3734,848;  168,753;29179,958;12,29213
 356,63; 3730,647;  200,676;28979,836;12,26572
 357,22; 3684,619;  176,675;28835,197;12,24049
 357,82; 3685,377;  173,829;28527,954;12,38461
 358,41; 3703,158;  190,291;28522,847;12,39869
 359,00; 3601,958;  155,907;28267,802;12,25834
 359,60; 3636,616;  174,676;28241,266;12,33474
 360,19; 3628,140;  174,292;28045,826;12,39203
 360,78; 3625,497;  177,984;27864,379;12,45201
 361,37; 3582,914;  169,061;27730,181;12,38648
 361,97; 3574,906;  169,676;27624,442;12,40306
 362,56; 3529,573;  167,753;27299,264;12,39083
 363,15; 3575,886;  202,830;27001,114;12,58684
 363,74; 3468,269;  174,291;26660,845;12,43641
 364,34; 3448,148;  194,291;26339,415;12,44537
 364,93; 3365,990;  163,291;25935,873;12,42677
 365,52; 3314,679;  141,445;25588,830;12,46978
 366,11; 3312,735;  173,599;25238,079;12,52424
 366,71; 3264,128;  160,907;24896,203;12,54572
 367,30; 3261,574;  173,522;24575,417;12,65497
 367,89; 3272,653;  207,215;24348,725;12,69779
 368,48; 3222,872;  182,291;24090,525;12,71771
 369,07; 3159,571;  178,138;23657,413;12,69815
 369,67; 3154,479;  203,291;23383,363;12,73158
 370,26; 3080,097;  163,445;23103,863;12,71403
 370,85; 3070,440;  177,137;22920,245;12,72167
 371,44; 3065,089;  163,214;22611,778;12,92677
 372,03; 3030,618;  151,907;22418,770;12,92823
 372,63; 2985,400;  141,984;22051,743;12,97785
 373,22; 2990,943;  162,368;21824,363;13,05778
 373,81; 2936,740;  140,907;21614,122;13,02010
 374,40; 2936,427;  153,522;21310,691;13,15348
 374,99; 2926,691;  157,753;21122,573;13,20755
 375,59; 2893,321;  163,061;20765,855;13,25189
 376,18; 2915,380;  191,522;20688,377;13,28915
 376,77; 2908,186;  184,368;20538,952;13,38184
 377,36; 2918,724;  194,599;20427,029;13,46415
 377,95; 2883,347;  181,291;20167,268;13,51976
 378,55; 2852,584;  164,907;19976,041;13,56650
 379,14; 2881,100;  177,522;19901,675;13,70694
 379,73; 2868,950;  165,676;19853,332;13,73081
 380,32; 2889,838;  183,984;19873,181;13,74284
 380,91; 2875,884;  159,676;19667,575;13,92363
 381,50; 2886,221;  181,137;19730,834;13,83696
 382,10; 2919,838;  165,599;19588,104;14,18066
 382,69; 2900,691;  153,061;19536,843;14,17490
 383,28; 2969,905;  185,214;19485,519;14,42822
 383,87; 2934,735;  170,599;19354,118;14,40891
 384,46; 2916,988;  156,599;19303,219;14,41711
 385,05; 2952,289;  194,368;19336,249;14,40779
 385,64; 2958,427;  173,984;19253,926;14,59357
 386,24; 2977,693;  151,214;19260,693;14,79098
 386,83; 3030,769;  185,676;19307,347;14,87890
 387,42; 3052,031;  185,907;19437,221;14,88794
 388,01; 3093,537;  175,906;19692,501;14,94949
 388,60; 3154,912;  180,060;19935,642;15,05828
 389,19; 3189,082;  162,521;20071,470;15,20201
 389,78; 3240,528;  163,137;20300,531;15,28197
 390,37; 3397,720;  226,829;20795,837;15,41587
 390,96; 3370,098;  171,983;20851,213;15,46535
 391,56; 3435,745;  182,136;20980,634;15,64348
 392,15; 3476,447;  156,367;21348,835;15,66632
 392,74; 3536,876;  147,059;21537,383;15,84743
 393,33; 3618,960;  167,290;21800,272;15,95559
 393,92; 3675,272;  173,905;22148,280;15,93386
 394,51; 3721,518;  169,367;22328,946;16,02987
 395,10; 3839,479;  191,212;22592,145;16,28623
 395,69; 3885,313;  172,828;22659,440;16,50976
 396,28; 3923,801;  187,828;22780,161;16,53647
 396,87; 3953,604;  175,366;22794,544;16,70369
 397,46; 3994,614;  191,750;22963,056;16,70024
 398,06; 4079,943;  198,596;23203,119;16,87210
 398,65; 4079,171;  184,672;23227,508;16,90113
 399,24; 4149,753;  204,056;23470,283;16,95890
 399,83; 4152,039;  175,516;23419,733;17,10758
 400,42; 4236,423;  203,053;23563,588;17,26574
 401,01; 4262,154;  185,975;23697,214;17,33715
 401,60; 4282,890;  194,281;23692,232;17,39985
 402,19; 4349,365;  220,049;23599,757;17,66197
 402,78; 4354,773;  222,354;23670,337;17,62377
 403,37; 4334,511;  208,967;23485,360;17,72415
 403,96; 4355,189;  200,734;23392,403;17,91357
 404,55; 4346,525;  220,577;23298,760;17,87813
 405,14; 4315,450;  199,113;23194,704;17,90055
 405,73; 4359,566;  215,417;23072,266;18,13088
 406,32; 4375,583;  222,569;22959,260;18,26569
 406,91; 4347,724;  202,028;22680,458;18,44300
 407,50; 4370,861;  215,873;22530,604;18,61994
 408,09; 4294,815;  186,103;22248,987;18,62273
 408,68; 4317,406;  196,641;22130,582;18,78716
 409,27; 4312,727;  186,488;21935,551;18,97203
 409,86; 4279,858;  200,644;21860,399;18,83315
 410,45; 4363,257;  232,645;21774,441;19,17487
 411,04; 4344,143;  236,801;21640,738;19,18966
 411,63; 4338,300;  213,187;21399,610;19,47055
 412,22; 4283,001;  217,574;21270,990;19,31006
 412,81; 4253,322;  222,959;20933,498;19,46044
 413,40; 4232,866;  249,652;20594,959;19,57805
 413,99; 4268,249;  267,960;20389,882;19,88025
 414,58; 4101,359;  208,498;19983,338;19,68593
 415,17; 4096,508;  208,267;19843,761;19,80211
 415,76; 4076,446;  205,343;19646,204;19,91220
 416,35; 4061,582;  194,882;19356,030;20,17990
 416,94; 4089,362;  229,805;19554,581;19,97207
 417,53; 4148,391;  215,190;19687,836;20,19860
 418,12; 4180,117;  206,036;19787,445;20,29517
 418,71; 4275,134;  232,114;20191,765;20,25596
 419,30; 4290,356;  216,652;20276,876;20,30737
 419,89; 4319,523;  203,267;20467,311;20,31310
 420,48; 4455,943;  235,114;20775,844;20,54859
 421,07; 4472,471;  229,729;20800,062;20,62554
 421,66; 4480,482;  200,037;20766,724;20,81251
 422,25; 4541,175;  203,115;20757,681;21,10509
 422,84; 4546,520;  231,500;20748,871;21,03106
 423,43; 4474,696;  220,500;20404,088;21,07750
 424,02; 4468,070;  234,961;20179,384;21,22452
 424,60; 4384,347;  206,578;19787,501;21,33592
 425,19; 4348,874;  222,654;19548,224;21,35109
 425,78; 4332,178;  240,654;19501,989;21,24216
 426,37; 4338,233;  236,039;19304,849;21,51259
 426,96; 4305,958;  219,193;19247,266;21,47756
 427,55; 4307,711;  211,116;19035,553;21,76211
 428,14; 4262,526;  206,501;18860,636;21,74330
 428,73; 4231,171;  228,501;18686,169;21,68567
 429,32; 4256,383;  231,962;18637,883;21,86482
 429,91; 4307,669;  247,116;18703,205;22,00115
 430,50; 4249,432;  239,732;18496,159;21,96322
 431,08; 4210,794;  252,117;18415,557;21,79475
 431,67; 4201,314;  296,502;18284,691;21,70765
 432,26; 4204,530;  305,502;18077,559;21,93909
 432,85; 4179,882;  340,656;17763,604;22,03546
 433,44; 4070,649;  336,118;17385,023;21,90482
 434,03; 3997,831;  348,349;17082,008;21,80923
 434,62; 3923,002;  307,425;16701,952;22,05356
 435,21; 3920,000;  328,040;16469,644;22,25280
 435,79; 3893,251;  331,041;16336,814;22,25578
 436,38; 3862,452;  313,734;16279,858;22,22655
 436,97; 3819,137;  312,041;16185,273;22,09440
 437,56; 3776,717;  311,273;15964,310;22,13911
 438,15; 3775,043;  279,273;15853,253;22,44622
 438,74; 3827,599;  296,965;15926,346;22,58972
 439,33; 3791,323;  265,965;15886,494;22,56875
 439,91; 3771,143;  228,581;15945,350;22,54001
 440,50; 3863,904;  284,196;16038,265;22,72243
 441,09; 3887,089;  278,197;16137,216;22,75609
 441,68; 3851,885;  268,735;16097,048;22,63760
 442,27; 3846,175;  249,658;16117,378;22,66562
 442,86; 3833,105;  232,505;16092,763;22,70202
 443,44; 3851,755;  240,351;16162,261;22,68198
 444,03; 3955,570;  298,198;16223,997;22,96508
 444,62; 3874,716;  244,351;16069,566;22,94038
 445,21; 3848,922;  251,659;15914,696;22,96657
 445,80; 3881,889;  284,890;15782,390;23,21019
 446,39; 3884,815;  290,429;15504,817;23,62492
 446,97; 3738,758;  245,814;15352,756;23,12145
 447,56; 3696,915;  247,583;15120,833;23,19151
 448,15; 3642,564;  243,660;14991,139;23,04736
 448,74; 3621,337;  266,429;14672,104;23,28880
 449,33; 3561,113;  235,276;14587,031;23,17373
 449,91; 3529,124;  246,815;14400,616;23,19030
 450,50; 3473,840;  242,430;14179,487;23,18574
 451,09; 3459,715;  255,276;14091,361;23,16001
 451,68; 3435,830;  268,969;13991,513;23,07780
 452,26; 3454,086;  267,507;13882,268;23,40532
 452,85; 3394,587;  251,199;13837,578;23,13632
 453,44; 3428,920;  267,277;13788,136;23,38344
 454,03; 3344,472;  239,354;13776,037;22,93854
 454,61; 3354,430;  236,662;13755,146;23,06300
 455,20; 3458,626;  273,816;13940,687;23,30314
 455,79; 3423,676;  268,662;13927,663;23,09843
 456,38; 3468,422;  268,739;14007,442;23,28955
 456,97; 3469,636;  252,124;14070,310;23,28462
 457,55; 3476,168;  250,047;14089,802;23,31053
 458,14; 3499,485;  276,585;14042,968;23,41138
 458,73; 3451,447;  255,355;14008,120;23,23964
 459,31; 3499,353;  288,278;14014,715;23,39336
 459,90; 3527,934;  290,509;14131,760;23,38969
 460,49; 3628,006;  334,432;14244,717;23,67726
 461,08; 3518,605;  264,971;14325,004;23,14102
 461,66; 3574,733;  267,586;14367,019;23,45589
 462,25; 3578,930;  270,971;14422,905;23,37461
 462,84; 3602,500;  297,202;14494,938;23,28046
 463,43; 3534,868;  226,971;14407,032;23,32781
 464,01; 3565,173;  261,125;14470,259;23,25299
 464,60; 3592,434;  299,894;14402,292;23,34738
 465,19; 3471,684;  242,972;14172,423;23,17904
 465,77; 3511,018;  269,972;14117,024;23,40603
 466,36; 3514,338;  281,433;13996,694;23,57159
 466,95; 3431,257;  256,356;13737,152;23,55129
 467,53; 3355,088;  275,203;13416,862;23,43605
 468,12; 3309,279;  284,434;13175,399;23,46485
 468,71; 3249,365;  266,895;12915,296;23,57982
 469,29; 3176,753;  249,511;12695,642;23,51929
 469,88; 3128,147;  266,357;12500,496;23,39184
 470,47; 3164,914;  329,280;12548,915;23,20556
 471,06; 3142,311;  272,819;12534,273;23,40255
 471,64; 3151,226;  281,280;12691,803;23,12510
 472,23; 3150,247;  242,896;12681,781;23,37308
 472,81; 3123,167;  253,050;12749,243;22,96794
 473,40; 3170,927;  261,127;13004,846;22,83321
 473,99; 3334,405;  346,281;13160,323;23,31913
 474,57; 3266,299;  259,742;13250,487;23,14384
 475,16; 3323,739;  274,742;13372,506;23,27876
 475,75; 3352,370;  290,281;13477,287;23,22050
 476,33; 3359,975;  292,666;13553,813;23,13004
 476,92; 3361,603;  300,973;13603,829;23,00732
 477,51; 3403,930;  285,666;13671,153;23,29585
 478,09; 3397,193;  272,974;13702,109;23,26449
 478,68; 3370,781;  289,666;13595,350;23,15638
 479,27; 3401,374;  311,435;13701,522;23,07632
 479,85; 3363,777;  287,281;13703,038;22,93195
 480,44; 3393,178;  276,974;13868,131;22,92818
 481,02; 3662,759;  281,051;15608,402;22,06322
 481,61; 4147,880;  310,897;17388,639;22,46774
 482,20; 4445,876;  305,436;18436,789;22,83581
 482,78; 4636,550;  331,512;19187,657;22,83096
 483,37; 4811,758;  327,205;19643,013;23,21701
 483,95; 4882,175;  357,975;20013,353;23,01762
 484,54; 4905,215;  370,974;20144,321;22,93108
 485,13; 4836,064;  337,667;20034,163;22,83856
 485,71; 4795,630;  317,975;19790,230;22,99505
 486,30; 4731,508;  351,898;19542,570;22,82156
 486,88; 4736,659;  393,436;19107,604;23,20820
 487,47; 4529,348;  376,898;18360,869;23,08973
 488,05; 4345,065;  358,129;17495,548;23,26451
 488,64; 4021,302;  349,283;16059,475;23,37348
 489,23; 3614,645;  355,591;14183,165;23,56924
 489,81; 3083,734;  354,283;12316,831;22,81664
 490,40; 2924,856;  320,822;11823,952;22,63762
 490,98; 2853,885;  299,745;11561,827;22,67912
 491,57; 2836,746;  322,129;11500,035;22,49632
 492,15; 2803,651;  309,822;11427,977;22,43024
 492,74; 2822,648;  312,667;11319,477;22,80389
 493,32; 2780,003;  325,514;11206,867;22,55683
 493,91; 2751,692;  296,591;11161,517;22,59658
 494,50; 2712,627;  317,207;11123,602;22,16669
 495,08; 2732,591;  292,822;11050,719;22,67886
 495,67; 2723,028;  317,283;11013,507;22,49154
 496,25; 2643,119;  255,130;10847,096;22,54529
 496,84; 2650,461;  280,283;10870,055;22,38177
 497,42; 2644,735;  264,899;10808,134;22,57216
 498,01; 2652,454;  278,206;10786,547;22,59393
 498,59; 2587,323;  246,668;10711,606;22,36663
 499,18; 2597,685;  249,899;10642,047;22,59192
 499,76; 2609,621;  282,437;10534,406;22,69987
 500,35; 2567,296;  272,361;10382,539;22,69926
 500,93; 2539,877;  245,361;10380,776;22,63860
 501,52; 2501,359;  261,284;10274,065;22,37216
 502,10; 2522,852;  270,438;10250,171;22,56988
 502,69; 2458,663;  255,900;10120,749;22,32942
 503,27; 2399,409;  234,207; 9897,576;22,40628
 503,86; 2410,545;  250,669; 9860,824;22,47494
 504,44; 2373,939;  227,438; 9778,525;22,47389
 505,03; 2312,563;  219,361; 9540,802;22,45577
 505,61; 2303,538;  238,515; 9417,662;22,49689
 506,19; 2276,643;  256,054; 9241,075;22,48842
 506,78; 2190,687;  230,362; 9085,577;22,13752
 507,36; 2173,433;  229,361; 8926,057;22,35414
 507,95; 2131,910;  234,900; 8738,415;22,30854
 508,53; 2114,330;  237,516; 8704,375;22,16660
 509,12; 2089,181;  247,054; 8504,879;22,30765
 509,70; 2066,433;  262,439; 8391,822;22,19103
 510,29; 2054,661;  257,670; 8187,741;22,66046
 510,87; 1948,929;  233,131; 8085,205;21,85153
 511,46; 1915,448;  226,131; 7883,685;22,06079
 512,04; 1899,964;  242,285; 7748,083;22,08531
 512,62; 1843,173;  245,054; 7648,102;21,58731
 513,21; 1820,288;  224,208; 7429,407;22,15179
 513,79; 1767,847;  227,824; 7325,385;21,69792
 514,38; 1751,247;  210,747; 7153,170;22,18965
 514,96; 1764,546;  253,824; 7072,624;22,15525
 515,54; 1691,506;  221,670; 6956,391;21,82475
 516,13; 1690,693;  246,824; 6858,308;21,83880
 516,71; 1637,326;  240,901; 6759,824;21,42110
 517,30; 1603,129;  215,132; 6655,856;21,55032
 517,88; 1616,825;  245,978; 6549,899;21,74594
 518,46; 1568,927;  216,825; 6445,769;21,70677
 519,05; 1553,767;  222,517; 6391,915;21,57827
 519,63; 1550,138;  237,056; 6323,787;21,57287
 520,22; 1534,529;  249,979; 6288,022;21,27429
 520,80; 1500,991;  242,287; 6198,368;21,13310
 521,38; 1539,451;  262,748; 6200,291;21,50221
 521,97; 1477,369;  221,595; 6142,052;21,21076
 522,55; 1503,191;  241,133; 6160,067;21,32238
 523,13; 1473,637;  231,441; 6158,127;20,95937
 523,72; 1466,470;  233,517; 6114,658;20,96452
 524,30; 1516,343;  254,210; 6244,255;21,07050
 524,89; 1487,908;  228,672; 6275,014;20,82641
 525,47; 1538,598;  241,826; 6379,471;21,12817
 526,05; 1504,716;  217,210; 6445,512;20,67186
 526,64; 1566,032;  246,672; 6579,212;20,83461
 527,22; 1600,481;  241,133; 6699,623;21,04745
 527,80; 1659,243;  272,749; 6847,730;21,08742
 528,39; 1612,551;  234,364; 6929,961;20,58348
 528,97; 1655,219;  245,057; 7088,668;20,60553
 529,55; 1687,884;  251,749; 7287,682;20,41144
 530,14; 1732,673;  262,288; 7408,121;20,57683
 530,72; 1750,251;  245,518; 7543,700;20,61792
 531,30; 1759,827;  228,134; 7703,083;20,49103
 531,89; 1824,888;  237,903; 7794,836;21,00039
 532,47; 1853,371;  267,442; 7893,471;20,79626
 533,05; 1842,287;  268,595; 7934,621;20,52813
 533,63; 1852,051;  278,595; 7979,036;20,43332
 534,22; 1834,998;  250,365; 7972,022;20,52194
 534,80; 1854,211;  262,442; 8099,771;20,31009
 535,38; 1962,006;  341,672; 8203,953;20,60895
 535,97; 1841,496;  266,903; 8173,981;19,91372
 536,55; 1881,911;  305,211; 8254,394;19,83475
 537,13; 1870,576;  323,441; 8215,447;19,60382
 537,71; 1908,807;  373,903; 8254,101;19,47799
 538,30; 1923,874;  386,826; 8350,242;19,30136
 538,88; 1948,233;  432,134; 8478,329;18,84242
 539,46; 2002,109;  498,826; 8667,939;18,40204
 540,05; 2028,382;  527,519; 8820,864;18,09720
 540,63; 2058,054;  572,519; 8990,574;17,64701
 541,21; 2136,290;  614,673; 9193,347;17,73720
 541,79; 2150,274;  671,058; 9311,562;17,11956
 542,38; 2197,151;  689,519; 9445,133;17,21903
 542,96; 2217,514;  693,058; 9619,609;17,07777
 543,54; 2267,605;  719,596; 9836,509;16,97953
 544,12; 2251,177;  681,058; 9928,388;16,97916
 544,70; 2290,611;  661,365;10039,321;17,37314
 545,29; 2318,499;  673,673;10246,750;17,18179
 545,87; 2321,504;  633,596;10184,716;17,67236
 546,45; 2287,693;  591,365;10217,022;17,62299
 547,03; 2287,900;  572,981;10300,497;17,62958
 547,62; 2295,634;  518,211;10439,230;17,91573
 548,20; 2337,137;  521,442;10550,924;18,10357
 548,78; 2316,833;  485,058;10661,424;18,00028
 549,36; 2333,760;  440,827;10878,890;18,13490
 549,94; 2350,942;  396,904;10967,230;18,48607
 550,53; 2408,455;  394,597;11243,548;18,56271
 551,11; 2397,587;  366,597;11426,754;18,36312
 551,69; 2463,541;  372,443;11750,056;18,37906
 552,27; 2484,329;  335,750;11965,538;18,47479
 552,85; 2536,785;  339,828;12399,722;18,21705
 553,44; 2610,577;  327,827;12632,746;18,55152
 554,02; 2670,805;  348,520;12991,011;18,36889
 554,60; 2692,656;  283,751;13303,900;18,50136
 555,18; 2776,897;  337,674;13660,566;18,30851
 555,76; 2819,428;  296,751;14025,058;18,37574
 556,34; 2920,908;  319,982;14440,574;18,41939
 556,93; 2995,209;  292,827;14817,570;18,60537
 557,51; 3005,726;  272,828;15124,930;18,40075
 558,09; 3073,416;  311,674;15550,738;18,12278
 558,67; 3152,286;  301,982;15980,181;18,18005
 559,25; 3193,787;  313,905;16151,376;18,18398
 559,83; 3235,708;  293,366;16481,564;18,17584
 560,41; 3300,231;  286,058;16862,821;18,18312
 561,00; 3342,840;  297,982;17133,505;18,08592
 561,58; 3388,843;  280,597;17395,894;18,16063
 562,16; 3422,303;  271,904;17779,125;17,99485
 562,74; 3458,829;  263,827;18061,689;17,95160
 563,32; 3499,752;  258,366;18555,839;17,71494
 563,90; 3595,524;  285,982;18895,612;17,78403
 564,48; 3680,016;  285,751;19333,837;17,81946
 565,06; 3742,917;  280,289;19947,851;17,60578
 565,65; 3870,187;  292,059;20622,618;17,59975
 566,23; 4003,942;  322,520;21339,029;17,51681
 566,81; 4042,447;  278,059;22097,728;17,25227
 567,39; 4204,129;  294,136;22907,408;17,29070
 567,97; 4308,188;  308,982;23588,507;17,17907
 568,55; 4463,918;  321,982;24428,159;17,18205
 569,13; 4524,913;  289,366;25136,232;17,04660
 569,71; 4654,040;  276,135;26086,631;16,96172
 570,29; 4844,784;  326,443;27122,260;16,86211
 570,87; 4944,513;  312,058;27695,989;16,91669
 571,45; 4997,913;  314,443;28347,347;16,70704
 572,03; 5050,603;  282,828;28732,112;16,75886
 572,61; 5122,108;  274,520;29528,849;16,57050
 573,20; 5216,560;  299,828;30153,456;16,46946
 573,78; 5305,837;  293,828;30820,809;16,41829
 574,36; 5408,999;  312,213;31253,624;16,47238
 574,94; 5499,539;  364,213;31533,971;16,47535
 575,52; 5461,622;  308,213;31827,474;16,35003
 576,10; 5597,346;  363,367;32450,122;16,31196
 576,68; 5611,502;  358,290;33028,049;16,07974
 577,26; 5710,315;  367,521;33736,551;16,01124
 577,84; 5822,104;  385,059;34142,922;16,10601
 578,42; 5915,859;  422,905;34469,867;16,13346
 579,00; 5848,999;  361,905;34548,932;16,05022
 579,58; 5892,041;  415,982;34727,896;15,95964
 580,16; 5822,155;  384,905;34758,278;15,81820
 580,74; 5883,730;  384,213;34964,545;15,90360
 581,32; 5846,911;  389,059;35108,920;15,71968
 581,90; 5838,884;  427,444;35079,815;15,61636
 582,48; 5826,317;  405,982;35241,094;15,55998
 583,06; 5803,867;  412,982;35258,837;15,47066
 583,64; 5780,445;  409,520;35402,877;15,34841
 584,22; 5769,752;  424,675;35244,258;15,35078
 584,80; 5707,985;  423,982;34992,377;15,28565
 585,38; 5652,989;  435,443;34555,309;15,29181
 585,96; 5594,987;  392,059;34740,574;15,14746
 586,54; 5593,415;  421,829;34710,153;15,08265
 587,12; 5596,965;  387,290;34850,896;15,11645
 587,70; 5576,716;  416,751;35114,610;14,87113
 588,28; 5564,471;  390,290;35095,402;14,90899
 588,86; 5549,925;  391,059;35225,047;14,80986
 589,44; 5517,919;  386,290;35307,462;14,69489
 590,02; 5529,214;  375,059;35498,642;14,67434
 590,59; 5546,375;  368,367;35700,997;14,65503
 591,17; 5569,683;  359,291;35892,185;14,66357
 591,75; 5530,588;  353,983;35999,092;14,52262
 592,33; 5609,235;  364,675;36339,778;14,57831
 592,91; 5550,302;  315,906;36533,304;14,45271
 593,49; 5654,185;  327,598;36828,725;14,59294
 594,07; 5646,222;  342,521;37042,569;14,45148
 594,65; 5621,938;  354,598;37044,483;14,35638
 595,23; 5665,311;  339,367;37404,855;14,36901
 595,81; 5643,146;  345,060;37547,997;14,24104
 596,39; 5616,166;  324,598;37683,478;14,16415
 596,97; 5616,055;  328,598;37855,211;14,08988
 597,55; 5582,849;  325,213;37711,778;14,06290
 598,12; 5532,481;  314,291;37800,790;13,92019
 598,70; 5518,185;  310,214;38006,764;13,81551
 599,28; 5563,671;  331,137;38069,134;13,86542
 599,86; 5557,565;  315,598;38174,991;13,84588
 600,44; 5498,278;  282,906;38262,318;13,73210
 601,02; 5557,763;  340,368;38274,454;13,75384
 601,60; 5485,167;  310,598;38211,478;13,65290
 602,18; 5449,384;  296,983;38197,924;13,59439
 602,75; 5427,571;  294,983;38376,806;13,47779
 603,33; 5402,917;  306,598;38291,535;13,41668
 603,91; 5405,098;  300,445;38330,559;13,42266
 604,49; 5403,914;  326,521;38431,723;13,32467
 605,07; 5345,171;  334,060;38389,059;13,16808
 605,65; 5372,602;  364,983;38516,296;13,12568
 606,23; 5370,196;  413,675;38688,742;12,94974
 606,80; 5415,093;  480,983;38775,483;12,88465
 607,38; 5349,324;  527,522;38761,132;12,61142
 607,96; 5369,822;  578,444;38960,250;12,48346
 608,54; 5387,663;  643,829;38955,049;12,38236
 609,12; 5374,117;  664,521;39056,084;12,26727
 609,70; 5349,500;  711,598;39105,464;12,07980
 610,27; 5341,060;  707,752;39194,796;12,03862
 610,85; 5342,804;  728,060;39233,460;11,98467
 611,43; 5293,869;  725,060;39176,948;11,88188
 612,01; 5235,932;  691,367;38928,974;11,88507
 612,59; 5192,338;  683,675;38959,187;11,77950
 613,16; 5120,768;  643,213;38847,966;11,71989
 613,74; 5083,326;  613,137;38764,905;11,71686
 614,32; 5082,266;  549,214;38724,268;11,87438
 614,90; 5033,054;  499,829;38549,519;11,91396
 615,48; 4916,781;  453,290;38134,209;11,84549
 616,05; 4906,820;  407,290;38243,788;11,89204
 616,63; 4861,091;  421,982;37956,906;11,82661
 617,21; 4842,206;  411,290;37898,211;11,81990
 617,79; 4775,660;  385,213;37770,203;11,74388
 618,36; 4765,463;  404,137;37711,889;11,69013
 618,94; 4633,149;  337,213;37384,847;11,59571
 619,52; 4646,800;  370,367;37017,883;11,66909
 620,10; 4624,158;  356,290;37089,547;11,61854
 620,67; 4591,269;  358,982;36973,199;11,55914
 621,25; 4521,851;  374,137;36797,816;11,38741
 621,83; 4527,003;  358,444;36743,509;11,45679
 622,41; 4505,922;  398,136;36802,043;11,28392
 622,98; 4409,743;  365,675;36487,673;11,19558
 623,56; 4424,556;  363,444;36488,987;11,24166
 624,14; 4391,419;  337,675;36356,652;11,25447
 624,72; 4325,125;  335,675;36237,323;11,11216
 625,29; 4325,350;  327,521;36403,126;11,08181
 625,87; 4318,600;  367,752;36321,989;10,98855
 626,45; 4250,236;  319,674;36112,744;10,98135
 627,02; 4265,243;  316,983;36082,363;11,03934
 627,60; 4193,238;  314,829;36020,701;10,86210
 628,18; 4185,194;  303,752;36171,391;10,82157
 628,76; 4153,395;  305,675;36192,786;10,72173
 629,33; 4193,177;  340,059;36113,721;10,77082
 629,91; 4152,927;  325,598;36022,547;10,72173
 630,49; 4172,088;  328,444;36232,402;10,70535
 631,06; 4139,132;  326,675;36390,638;10,57138
 631,64; 4136,580;  319,059;36324,626;10,60259
 632,22; 4062,381;  274,597;36382,197;10,49027
 632,79; 4108,098;  322,059;36485,337;10,46929
 633,37; 4068,750;  297,675;36621,177;10,38191
 633,95; 4093,641;  288,136;36675,495;10,45832
 634,52; 4083,854;  276,675;36730,705;10,44378
 635,10; 4069,166;  289,367;36741,786;10,36913
 635,68; 4091,928;  286,828;36947,244;10,37931
 636,25; 4043,214;  276,905;36915,262;10,27969
 636,83; 4051,779;  262,213;37121,017;10,28131
 637,41; 4030,223;  274,674;37206,001;10,16901
 637,98; 4076,510;  306,444;37369,365;10,17207
 638,56; 4046,922;  293,213;37423,894;10,10945
 639,13; 4040,054;  268,982;37536,408;10,11895
 639,71; 4091,942;  313,367;37616,102;10,12948
 640,29; 3999,178;  249,290;37483,827;10,07099
 640,86; 3994,225;  263,829;37608,175; 9,98919
 641,44; 3942,734;  257,059;37643,369; 9,85835
 642,02; 4021,396;  290,675;37552,947;10,01206
 642,59; 3974,674;  267,752;37784,833; 9,88063
 643,17; 3962,029;  268,213;37738,797; 9,85791
 643,74; 3948,846;  268,521;37719,375; 9,82708
 644,32; 3964,739;  289,675;37727,185; 9,81653
 644,89; 3944,786;  287,444;37749,917; 9,76268
 645,47; 3934,218;  293,136;37742,649; 9,72264
 646,05; 3914,419;  283,444;37635,997; 9,72082
 646,62; 3868,005;  279,444;37705,499; 9,58840
 647,20; 3877,898;  280,829;37790,001; 9,58984
 647,77; 3840,714;  255,598;37644,271; 9,58878
 648,35; 3830,454;  250,906;37527,465; 9,60268
 648,92; 3830,347;  279,367;37684,429; 9,49331
 649,50; 3800,164;  250,906;37519,623; 9,52342
 650,08; 3782,442;  245,444;37436,201; 9,51042
 650,65; 3797,027;  250,059;37720,164; 9,46613
 651,23; 3819,151;  235,367;38578,204; 9,34669
 651,80; 3914,660;  252,213;39453,014; 9,34279
 652,38; 3971,861;  268,521;39722,439; 9,38650
 652,95; 3968,370;  226,752;40098,709; 9,38408
 653,53; 3982,263;  258,290;40364,211; 9,28534
 654,10; 4059,080;  281,444;40538,482; 9,38379
 654,68; 3999,434;  244,675;40444,676; 9,34020
 655,25; 3984,636;  239,213;40461,716; 9,31176
 655,83; 3970,144;  228,136;40508,141; 9,28999
 656,40; 4022,807;  271,598;40445,104; 9,33752
 656,98; 3983,931;  254,136;40318,683; 9,30946
 657,55; 3953,286;  246,829;40238,184; 9,26815
 658,13; 3921,948;  248,060;39854,147; 9,27607
 658,70; 3908,303;  253,521;39571,803; 9,29538
 659,28; 3812,197;  246,060;38705,305; 9,27251
 659,85; 3779,167;  262,675;37995,652; 9,31941
 660,43; 3766,599;  272,213;38124,539; 9,23163
 661,00; 3745,569;  257,675;38183,887; 9,19653
 661,58; 3744,693;  241,060;38596,927; 9,13454
 662,15; 3755,740;  242,598;38731,659; 9,12764
 662,73; 3861,557;  301,983;39005,930; 9,19693
 663,30; 3829,681;  253,367;39203,816; 9,18170
 663,88; 3814,189;  256,060;39421,702; 9,08482
 664,45; 3834,698;  244,367;39620,666; 9,11800
 665,03; 3843,361;  254,521;39985,937; 9,03275
 665,60; 3982,254;  316,214;40520,746; 9,11848
 666,17; 3925,917;  254,598;40428,017; 9,13868
 666,75; 3931,887;  242,214;40843,288; 9,08762
 667,32; 3973,165;  267,829;41217,482; 9,04852
 667,90; 3961,750;  245,598;41383,445; 9,03341
 668,47; 4019,259;  271,367;41710,177; 9,04440
 669,05; 4011,614;  246,675;41959,987; 9,02575
 669,62; 3973,123;  232,675;42068,334; 8,94081
 670,19; 3997,939;  233,983;42169,990; 8,97548
 670,77; 4047,063;  254,214;42304,492; 9,01980
 671,34; 4035,880;  242,829;42208,070; 9,03855
 671,92; 4056,927;  232,214;42635,572; 9,01984
 672,49; 4049,743;  258,368;42667,920; 8,93991
 673,06; 4045,329;  202,444;42635,114; 9,05643
 673,64; 4037,068;  231,368;42700,461; 8,96111
 674,21; 4031,423;  228,137;42609,886; 8,97388
 674,79; 4127,086;  249,060;42890,311; 9,09454
 675,36; 4115,672;  255,906;42975,966; 9,03502
 675,93; 4050,257;  214,368;42917,237; 8,98274
 676,51; 4096,997;  257,060;43025,124; 8,97851
 677,08; 4093,736;  251,983;43040,702; 8,97843
 677,65; 4155,245;  256,752;43272,204; 9,06301
 678,23; 4163,984;  252,675;43462,936; 9,05181
 678,80; 4169,185;  246,137;43560,438; 9,05717
 679,38; 4206,233;  238,214;43675,940; 9,13496
 679,95; 4200,664;  255,983;43972,518; 9,02332
 680,52; 4214,712;  243,522;44151,789; 9,04429
 681,10; 4269,066;  266,445;44679,675; 9,01223
 681,67; 4294,806;  258,752;44925,254; 9,03597
 682,24; 4295,468;  222,214;44956,371; 9,10547
 682,82; 4368,362;  236,829;45528,796; 9,12200
 683,39; 4432,101;  280,214;45801,605; 9,12074
 683,96; 4439,764;  252,060;46075,414; 9,13880
 684,54; 4439,273;  225,060;46441,070; 9,11851
 685,11; 4545,781;  270,675;46745,956; 9,19867
 685,68; 4512,444;  238,906;47180,458; 9,10395
 686,25; 4520,260;  222,445;47207,498; 9,14720
 686,83; 4544,307;  225,829;47329,000; 9,16813
 687,40; 4575,509;  224,522;47665,886; 9,17129
 687,97; 4699,479;  266,599;48162,003; 9,25534
 688,55; 4618,526;  221,214;48141,505; 9,17630
 689,12; 4639,650;  205,291;48464,929; 9,18855
 689,69; 4693,390;  221,676;48479,431; 9,26631
 690,26; 4691,129;  241,676;48570,240; 9,20667
 690,84; 4715,022;  231,368;48818,896; 9,22799
 691,41; 4744,300;  239,599;48830,320; 9,27070
 691,98; 4777,271;  240,752;49118,591; 9,28134
 692,56; 4771,779;  229,214;49195,785; 9,27687
 693,13; 4805,288;  281,137;49234,749; 9,24171
 693,70; 4772,797;  247,522;49411,558; 9,20444
 694,27; 4795,229;  224,676;49584,367; 9,25969
 694,84; 4830,507;  226,599;49660,792; 9,31321
 695,42; 4889,554;  276,291;49738,524; 9,32684
 695,99; 4836,370;  240,599;50041,565; 9,22828
 696,56; 4853,571;  230,983;49822,989; 9,32124
 697,13; 4899,618;  251,522;50241,106; 9,29813
 697,71; 4908,589;  224,214;50276,993; 9,35887
 698,28; 4902,405;  233,368;50717,956; 9,24844
 698,85; 4955,068;  210,676;50624,227; 9,41095
 699,42; 4945,884;  210,137;50795,728; 9,36185
 699,99; 4992,008;  266,753;50976,999; 9,31815
 700,57; 4988,671;  247,906;50926,347; 9,35460
 701,14; 5010,333;  226,060;51028,464; 9,41741
 701,71; 5046,765;  245,445;51214,043; 9,42015
 702,28; 5045,197;  243,445;51274,390; 9,40949
 702,85; 5087,936;  254,676;51489,815; 9,43349
 703,43; 5149,060;  256,291;51675,163; 9,51551
 704,00; 5159,877;  276,907;51821,280; 9,47333
 704,57; 5170,232;  255,599;51809,012; 9,53309
 705,14; 5171,048;  290,830;52136,437; 9,41298
 705,71; 5223,018;  281,599;52095,785; 9,53681
 706,28; 5199,142;  260,676;52033,056; 9,53881
 706,86; 5275,267;  285,368;52219,096; 9,60820
 707,43; 5288,775;  317,060;52161,136; 9,58975
 708,00; 5279,284;  284,368;52207,869; 9,61976
 708,57; 5262,024;  261,984;52063,293; 9,65234
 709,14; 5286,917;  291,830;52260,256; 9,61177
 709,71; 5333,041;  259,137;52303,527; 9,74918
 710,28; 5326,627;  265,676;52506,952; 9,68765
 710,86; 5345,135;  276,137;52649,685; 9,67855
 711,43; 5403,952;  282,445;52711,955; 9,76837
 712,00; 5396,922;  261,984;52665,534; 9,79884
 712,57; 5465,892;  282,214;52900,113; 9,85155
 713,14; 5468,401;  260,061;52861,153; 9,90158
 713,71; 5463,602;  263,522;52892,808; 9,88058
 714,28; 5493,188;  250,599;52935,079; 9,95092
 714,85; 5454,081;  243,907;52642,965; 9,94326
 715,42; 5493,974;  241,753;52961,775; 9,96248
 716,00; 5583,483;  301,061;53003,353;10,02314
 716,57; 5584,376;  241,061;53124,316;10,10398
 717,14; 5570,500;  236,368;53061,972;10,09763
 717,71; 5572,394;  220,138;53154,935;10,11104
 718,28; 5653,441;  271,522;53179,821;10,17216
 718,85; 5587,104;  234,830;53209,631;10,10343
 719,42; 5656,766;  237,522;53375,440;10,19845
 719,99; 5613,736;  220,907;53217,326;10,17584
 720,56; 5674,476;  245,753;53485,367;10,19677
 721,13; 5634,831;  226,830;53548,253;10,14227
 721,70; 5709,647;  214,522;53383,601;10,33519
 722,27; 5722,694;  254,984;53449,179;10,27877
 722,84; 5822,511;  290,368;53625,296;10,37246
 723,41; 5734,789;  219,292;53601,952;10,33200
 723,98; 5744,913;  237,984;53809,223;10,27964
 724,55; 5809,883;  271,753;53838,109;10,33882
 725,12; 5795,161;  194,138;53899,611;10,42915
 725,69; 5871,516;  222,599;53996,343;10,50497
 726,27; 5888,717;  238,676;54020,691;10,50545
 726,84; 5944,918;  237,215;54352,962;10,54721
 727,41; 5994,734;  247,599;54325,310;10,62755
 727,98; 6016,397;  253,522;54627,042;10,59868
 728,55; 6069,444;  270,369;54566,774;10,68040
 729,12; 6042,876;  219,830;54591,199;10,70977
 729,69; 6085,615;  273,292;54819,855;10,65571
 730,26; 6124,355;  249,599;54991,972;10,73164
 730,82; 6116,864;  246,676;54801,858;10,76009
 731,39; 6147,372;  243,445;54894,283;10,80299
 731,96; 6207,189;  232,984;55116,169;10,88531
 732,53; 6254,544;  244,215;55468,824;10,88342
 733,10; 6322,129;  258,984;55492,711;10,97725
 733,67; 6335,792;  244,599;55699,751;10,98400
 734,24; 6322,454;  243,676;55432,099;11,01459
 734,81; 6313,425;  270,369;55555,754;10,93066
 735,38; 6316,626;  249,599;55315,256;11,01780
 735,95; 6335,673;  240,676;55056,219;11,11910
 736,52; 6376,335;  263,676;55354,336;11,09564
 737,09; 6372,921;  261,599;54997,838;11,16504
 737,66; 6435,814;  299,369;55233,109;11,17063
 738,23; 6415,785;  250,215;55200,072;11,22036
 738,80; 6519,601;  305,599;55528,573;11,25257
 739,37; 6526,264;  286,523;55690,383;11,26229
 739,94; 6536,080;  251,830;55706,423;11,33224
 740,51; 6641,050;  352,753;55704,078;11,36070
 741,07; 6564,713;  256,292;55709,349;11,37615
 741,64; 6595,760;  285,215;55927,697;11,34124
 742,21; 6610,884;  260,753;55903,353;11,41235
 742,78; 6616,624;  224,523;55704,931;11,52137
 743,35; 6649,286;  256,446;56020,510;11,46409
 743,92; 6722,026;  292,984;56187,781;11,50204
 744,49; 6778,227;  282,984;56069,821;11,64297
 745,06; 6715,274;  246,984;56056,707;11,58990
 745,63; 6740,552;  240,984;56037,055;11,64879
 746,19; 6777,061;  236,753;56016,326;11,72527
 746,76; 6777,800;  263,677;56017,520;11,68372
 747,33; 6800,001;  245,907;56044,021;11,74608
 747,90; 6875,433;  276,446;56258,908;11,78760
 748,47; 6927,403;  260,292;56098,563;11,94004
 749,04; 6876,835;  267,369;56140,065;11,82951
 749,61; 6995,651;  277,446;56087,874;12,03755
 750,17; 6959,237;  273,677;56126,453;11,96997
 750,74; 6989,515;  266,754;56050,339;12,05150
 751,31; 6972,178;  242,677;56038,379;12,06097
 751,88; 6975,532;  237,215;55875,804;12,11087
 752,45; 7043,426;  254,292;55955,306;12,18853
 753,02; 7019,088;  267,523;55796,423;12,15865
 753,58; 7017,520;  245,523;55712,924;12,20897
 754,15; 7090,952;  249,600;55850,580;12,30437
 754,72; 7057,153;  253,907;55587,620;12,29494
 755,29; 7036,354;  225,215;55477,429;12,32736
 755,86; 7088,017;  243,600;55599,392;12,36441
 756,42; 7112,756;  254,446;55484,202;12,41778
 756,99; 7096,803;  215,600;55437,396;12,46103
 757,56; 7136,774;  226,908;55457,897;12,51085
 758,13; 7127,821;  191,446;55448,784;12,55286
 758,70; 7172,637;  208,754;55384,285;12,62133
 759,26; 7202,684;  206,600;55497,633;12,65320
 759,83; 7261,655;  215,138;55651,904;12,71091
 760,40; 7245,394;  207,292;55360,559;12,76099
 760,97; 7226,057;  192,677;55437,446;12,73130
 761,53; 7224,412;  189,677;54953,794;12,84552
 762,10; 7232,151;  179,523;55044,218;12,85458
 762,67; 7287,352;  222,215;55154,181;12,86161
 763,24; 7216,399;  166,523;54675,760;12,93336
 763,80; 7287,369;  201,754;54842,877;12,96755
 764,37; 7274,724;  204,061;54755,379;12,96149
 764,94; 7254,079;  199,600;54295,573;13,04067
 765,50; 7267,280;  197,369;54383,382;13,04748
 766,07; 7319,635;  246,215;54367,653;13,06953
 766,64; 7293,682;  210,138;54001,770;13,16849
 767,21; 7309,806;  223,831;53891,656;13,20340
 767,77; 7302,007;  239,754;53840,927;13,17556
 768,34; 7283,978;  242,215;53776,737;13,15369
 768,91; 7345,794;  242,292;53575,084;13,31920
 769,47; 7349,457;  247,215;53579,817;13,31689
 770,04; 7337,042;  232,600;53440,011;13,35235
 770,61; 7327,090;  225,215;53255,435;13,39213
 771,18; 7348,214;  208,446;53085,091;13,50269
 771,74; 7384,799;  235,292;53323,285;13,46728
 772,31; 7383,231;  230,215;53058,940;13,54001
 772,88; 7367,124;  214,446;52707,750;13,62589
 773,44; 7352,249;  218,446;52618,482;13,61412
 774,01; 7446,296;  234,446;52727,599;13,73865
 774,58; 7384,497;  223,216;52399,947;13,72505
 775,14; 7424,467;  211,600;52576,064;13,77435
 775,71; 7431,822;  215,985;52494,797;13,80260
 776,27; 7512,484;  268,600;52398,067;13,89595
 776,84; 7558,378;  295,139;52499,492;13,91309
 777,41; 7463,810;  235,139;52180,071;13,91603
 777,97; 7437,011;  231,985;51969,342;13,92616
 778,54; 7458,519;  238,369;51924,766;13,96915
 779,11; 7507,566;  260,293;51930,191;14,02610
 779,67; 7503,921;  214,677;51953,308;14,08859
 780,24; 7502,738;  238,523;51668,887;14,12437
 780,80; 7503,016;  249,523;51699,773;14,09807
 781,37; 7517,832;  243,293;51610,659;14,16179
 781,94; 7490,725;  234,908;51420,238;14,17558
 782,50; 7546,080;  240,293;51404,739;14,27903
 783,07; 7603,589;  254,677;51467,472;14,34976
 783,63; 7522,175;  221,908;51216,358;14,31581
 784,20; 7606,299;  253,523;51172,475;14,44015
 784,77; 7550,423;  231,062;50910,054;14,44259
 785,33; 7540,624;  212,985;50735,940;14,50358
 785,90; 7587,056;  234,600;50656,749;14,58180
 786,46; 7547,180;  250,446;50620,020;14,48639
 787,03; 7582,458;  221,446;50350,599;14,68409
 787,59; 7537,967;  236,600;50371,947;14,56331
 788,16; 7619,629;  240,985;50292,141;14,74221
 788,73; 7552,753;  244,062;50144,565;14,64653
 789,29; 7550,108;  228,677;49801,529;14,76903
 789,86; 7583,617;  253,677;49716,876;14,81898
 790,42; 7570,510;  235,908;49448,378;14,90395
 790,99; 7504,634;  250,831;49178,649;14,82552
 791,55; 7539,528;  224,447;49200,535;14,93603
 792,12; 7551,652;  259,216;49231,883;14,89083
 792,68; 7493,007;  242,216;48849,846;14,91698
 793,25; 7499,208;  241,293;48615,886;15,00357
 793,81; 7594,486;  295,600;48344,542;15,19052
 794,38; 7401,687;  207,370;48147,736;15,00680
 794,94; 7467,888;  218,985;47935,007;15,19176
 795,51; 7450,166;  247,447;47653,431;15,19369
 796,07; 7396,828;  240,139;47466,087;15,15415
 796,64; 7462,568;  244,216;47469,204;15,28503
 797,20; 7382,307;  241,677;47105,552;15,23696
 797,77; 7377,816;  215,908;46680,823;15,41358
 798,33; 7356,171;  226,370;46547,632;15,39207
 798,90; 7394,064;  256,524;46521,903;15,42739
 799,46; 7355,188;  225,601;45897,789;15,61035
 800,03; 7269,851;  238,831;45879,368;15,40521
 800,59; 7320,513;  250,601;45703,177;15,55448
 801,15; 7324,560;  252,985;45521,910;15,62126
 801,72; 7294,300;  240,293;45155,334;15,70522
 802,28; 7246,347;  265,370;44877,221;15,64826
 802,85; 7276,625;  236,524;44621,338;15,86151
 803,41; 7221,442;  237,447;44556,762;15,75835
 803,98; 7193,335;  235,293;44047,418;15,88154
 804,54; 7173,997;  233,524;43920,766;15,88673
 805,11; 7173,583;  241,139;43638,113;15,97449
 805,67; 7137,092;  261,216;43593,461;15,86780
 806,23; 7113,370;  241,216;43168,732;16,00874
 806,80; 7079,571;  247,985;43040,695;15,96437
 807,36; 7103,464;  257,447;43046,812;15,99934
 807,93; 7085,127;  278,985;42722,237;16,03586
 808,49; 7060,328;  222,216;42402,585;16,21160
 809,05; 6996,221;  207,601;42154,087;16,18400
 809,62; 7031,114;  251,524;42141,511;16,18427
 810,18; 7016,469;  246,755;42042,551;16,19712
 810,74; 6964,363;  216,985;41760,822;16,24158
 811,31; 6982,102;  210,601;41524,709;16,39029
 811,87; 6948,380;  234,524;41277,903;16,35795
 812,44; 6992,889;  254,524;41479,250;16,34544
 813,00; 6896,936;  192,293;41034,598;16,41593
 813,56; 6994,214;  243,139;41162,484;16,49849
 814,13; 6975,338;  233,985;41008,448;16,53327
 814,69; 6943,231;  236,062;40900,949;16,49376
 815,25; 6897,971;  207,139;40381,066;16,65466
 815,82; 6914,941;  240,755;40351,491;16,63940
 816,38; 6966,988;  268,601;40127,762;16,80514
 816,94; 6847,420;  215,062;39958,802;16,68780
 817,51; 6802,083;  212,524;39646,535;16,71034
 818,07; 6769,745;  218,909;39392,882;16,72242
 818,63; 6779,562;  231,755;39210,307;16,79849
 819,20; 6757,455;  227,524;39112,270;16,79304
 819,76; 6739,117;  214,909;38788,849;16,91351
 820,32; 6742,242;  256,139;38646,966;16,89493
 820,89; 6669,135;  247,370;38460,391;16,80517
 821,45; 6644,259;  214,986;38189,431;16,93053
 822,01; 6652,306;  233,216;37871,086;17,05487
 822,57; 6616,815;  241,063;37855,280;16,95038
 823,14; 6549,016;  211,293;37486,167;17,00267
 823,70; 6540,371;  219,293;37306,745;17,04371
 824,26; 6514,572;  214,139;37121,939;17,07073
 824,82; 6537,850;  236,524;37027,441;17,12740
 825,39; 6474,974;  214,370;36749,481;17,13586
 825,95; 6520,329;  244,063;36730,752;17,20152
 826,51; 6424,684;  232,755;36361,330;17,13859
 827,08; 6498,885;  261,986;36483,217;17,21890
 827,64; 6437,624;  243,140;36268,334;17,19487
 828,20; 6391,825;  212,370;35898,143;17,31630
 828,76; 6406,334;  253,986;35886,029;17,26634
 829,32; 6406,073;  257,370;35756,454;17,32074
 829,89; 6354,582;  214,293;35706,186;17,30054
 830,45; 6420,706;  239,140;35627,303;17,46789
 831,01; 6368,292;  225,370;35479,190;17,42484
 831,57; 6411,570;  229,986;35345,230;17,60371
 832,14; 6393,156;  211,140;35348,655;17,59378
 832,70; 6349,895;  210,447;35060,695;17,61665
 833,26; 6325,250;  206,678;34902,889;17,63470
 833,82; 6362,451;  235,063;34895,467;17,67835
 834,38; 6397,421;  209,909;34862,200;17,85600
 834,95; 6343,084;  208,063;34716,471;17,77834
 835,51; 6296,669;  186,217;34589,818;17,76108
 836,07; 6364,640;  221,370;34684,397;17,82568
 836,63; 6396,225;  247,909;34621,206;17,88690
 837,19; 6368,272;  234,524;34434,862;17,93476
 837,75; 6331,935;  190,217;34086,287;18,11926
 838,32; 6408,982;  249,371;34296,327;18,09152
 838,88; 6387,491;  242,447;34342,905;18,02041
 839,44; 6441,077;  229,217;34228,561;18,27053
 840,00; 6400,662;  220,217;34125,293;18,22867
 840,56; 6328,556;  212,294;33756,487;18,23344
 841,12; 6329,218;  207,601;33786,296;18,23066
 841,68; 6289,650;  198,140;33638,490;18,21605
 842,25; 6333,697;  209,371;33518,838;18,38614
 842,81; 6254,590;  211,678;33322,032;18,25082
 843,37; 6301,407;  207,601;33416,226;18,35007
 843,93; 6315,608;  215,140;33342,497;18,41520
 844,49; 6339,424;  230,678;33339,999;18,45023
 845,05; 6296,625;  189,140;33131,347;18,54000
 845,61; 6363,365;  237,524;33205,002;18,58147
 846,17; 6340,874;  208,294;33015,658;18,69269
 846,73; 6336,228;  217,217;33016,775;18,65577
 847,29; 6295,660;  200,525;32860,661;18,66231
 847,86; 6319,015;  207,217;32722,009;18,79698
 848,42; 6298,985;  196,140;32543,203;18,86677
 848,98; 6288,033;  216,678;32561,858;18,77051
 849,54; 6310,541;  199,755;32552,283;18,88813
 850,10; 6314,435;  224,755;32341,708;18,96095
 850,66; 6281,943;  201,063;32299,517;18,94446
 851,22; 6253,837;  193,832;32128,403;18,97631
 851,78; 6332,576;  247,832;32229,674;19,02562
 852,34; 6251,162;  222,755;31870,637;19,04837
 852,90; 6267,978;  213,602;31847,831;19,13869
 853,46; 6203,718;  204,294;31624,410;19,09421
 854,02; 6244,919;  213,678;31638,450;19,19263
 854,58; 6214,043;  204,678;31429,105;19,24572
 855,14; 6195,705;  201,986;31338,761;19,24965
 855,70; 6158,291;  176,755;31218,416;19,26938
 856,26; 6186,031;  235,371;31233,534;19,19681
 856,82; 6162,078;  203,371;30950,574;19,37967
 857,38; 6226,971;  242,217;30908,614;19,51567
 857,94; 6188,326;  209,986;30828,577;19,52520
 858,50; 6192,219;  226,294;30618,617;19,62971
 859,06; 6125,190;  202,448;30493,426;19,55282
 859,62; 6190,391;  218,602;30468,390;19,74159
 860,18; 6142,745;  212,986;30324,584;19,69261
 860,74; 6110,177;  181,909;30105,547;19,81132
 861,30; 6099,071;  194,217;29888,125;19,88574
 861,86; 6170,579;  241,679;30023,935;19,90749
 862,42; 6117,934;  212,679;29767,821;19,98047
 862,98; 6173,981;  233,679;29734,476;20,13607
 863,54; 6093,413;  222,756;29541,209;20,02376
 864,10; 6120,768;  220,525;29542,249;20,12243
 864,66; 6066,354;  201,140;29320,905;20,14169
 865,22; 6085,478;  212,602;29224,714;20,24284
 865,78; 6084,525;  228,217;29105,677;20,27986
 866,34; 6067,034;  205,140;29035,333;20,33248
 866,90; 6043,081;  218,679;28876,911;20,32366
 867,45; 6053,513;  216,525;28690,105;20,49966
 868,01; 6014,791;  223,756;28554,145;20,44107
 868,57; 5988,684;  204,910;28341,955;20,55573
 869,13; 5981,885;  194,525;28286,995;20,60111
 869,69; 5971,471;  204,294;28199,343;20,60070
 870,25; 5956,056;  197,602;28030,152;20,68964
 870,81; 5981,488;  210,525;27974,346;20,78591
 871,37; 6019,766;  215,679;27896,617;20,96781
 871,93; 5985,352;  229,910;27765,580;20,90177
 872,49; 5980,630;  239,987;27545,697;21,02360
 873,04; 5898,369;  197,833;27359,506;20,98743
 873,60; 5909,647;  200,602;27265,546;21,09387
 874,16; 5892,079;  224,910;27204,048;21,00575
 874,72; 5880,925;  203,910;27066,048;21,13389
 875,28; 5895,617;  218,910;27009,971;21,18881
 875,84; 5897,540;  216,833;26925,510;21,26915
 876,40; 5864,156;  209,756;26853,587;21,22217
 876,95; 5867,848;  219,833;26916,356;21,15637
 877,51; 5929,694;  234,833;26936,817;21,32748
 878,07; 5925,540;  242,833;26841,817;21,36438
 878,63; 5944,771;  211,910;26853,587;21,51840
 879,19; 5956,156;  230,448;26860,279;21,50110
 879,75; 5951,233;  209,910;26893,740;21,51611
 880,30; 5984,617;  209,756;26889,971;21,64473
 880,86; 6066,925;  243,833;27000,202;21,76339
 881,42; 5992,925;  192,525;27050,202;21,59680
 881,98; 6065,079;  226,756;27168,048;21,67054
 882,54; 6064,233;  211,525;27217,663;21,67177
 883,09; 6133,387;  227,756;27339,279;21,78273
 883,65; 6128,079;  197,602;27335,202;21,85336
 884,21; 6257,079;  238,987;27546,587;22,03816
 884,77; 6232,925;  211,217;27684,202;21,91865
 885,32; 6249,771;  213,756;27806,202;21,87561
 885,88; 6314,694;  241,679;27903,587;21,95443
 886,44; 6320,925;  225,140;27971,202;21,96991
 887,00; 6354,848;  228,140;27985,048;22,07273
 887,56; 6367,233;  213,910;28107,048;22,06035
 888,11; 6426,463;  212,602;28153,740;22,23911
 888,67; 6475,617;  250,371;28319,202;22,17850
 889,23; 6481,540;  220,987;28304,202;22,29287
 889,79; 6432,694;  195,294;28167,279;22,29874
 890,34; 6482,233;  221,448;28126,510;22,43602
 890,90; 6613,310;  274,448;28239,510;22,66708
 891,46; 6476,540;  206,756;28133,894;22,45051
 892,01; 6558,694;  235,910;28142,202;22,65720
 892,57; 6554,079;  242,525;28027,433;22,71576
 893,13; 6534,387;  214,371;27874,510;22,84882
 893,69; 6517,617;  206,679;27834,433;22,84275
 894,24; 6483,310;  209,833;27745,433;22,78315
 894,80; 6514,463;  209,756;27656,048;22,97107
 895,36; 6447,617;  214,679;27516,279;22,82994
 895,91; 6420,771;  217,833;27286,202;22,91582
 896,47; 6453,848;  232,140;27175,510;23,09180
 897,03; 6380,694;  213,679;26974,740;23,04473
 897,58; 6403,925;  228,679;26837,587;23,20744
 898,14; 6360,310;  227,679;26705,740;23,16118
 898,70; 6325,617;  196,140;26521,433;23,28360
 899,25; 6351,925;  210,294;26541,740;23,32432
 899,81; 6332,463;  217,371;26378,202;23,37499
 900,37; 6293,002;  187,525;26079,894;23,58022
 900,92; 6290,540;  213,525;26093,048;23,48195
 901,48; 6281,156;  209,602;26053,279;23,49338
 902,03; 6223,540;  210,140;25818,740;23,48196
 902,59; 6279,310;  213,602;25710,510;23,78997
 903,15; 6280,925;  228,140;25576,202;23,87869
 903,70; 6142,540;  220,602;25382,587;23,53526
 904,26; 6192,848;  197,756;25265,356;23,91570
 904,82; 6207,617;  209,371;25302,202;23,90422
 905,37; 6205,925;  222,140;25079,510;24,07248
 905,93; 6133,771;  211,448;24944,971;23,94452
 906,48; 6132,694;  218,140;24824,279;24,03690
 907,04; 6134,771;  226,833;24824,740;24,01805
 907,60; 6098,694;  205,448;24573,356;24,18446
 908,15; 6118,002;  193,294;24495,202;24,37960
 908,71; 6113,156;  234,140;24481,587;24,24592
 909,26; 6050,694;  212,602;24315,048;24,22199
 909,82; 6044,463;  227,217;24178,433;24,28790
 910,37; 6073,002;  248,217;24143,433;24,37636
 910,93; 5998,233;  211,140;23932,356;24,39627
 911,48; 5939,310;  195,987;23748,740;24,38493
 912,04; 5977,310;  204,371;23688,894;24,58189
 912,60; 5963,002;  218,063;23709,663;24,45529
 913,15; 5915,002;  212,217;23494,202;24,49441
 913,71; 5885,694;  200,602;23282,587;24,63000
 914,26; 5879,848;  192,525;23220,817;24,69711
 914,82; 5903,771;  218,602;23132,510;24,81100
 915,37; 5849,848;  197,217;23068,587;24,71488
 915,93; 5926,463;  254,371;23015,663;24,91990
 916,48; 5847,771;  202,217;22835,894;24,94316
 917,04; 5872,617;  227,910;22721,510;25,09473
 917,59; 5823,463;  232,525;22648,433;24,94183
 918,15; 5737,617;  183,910;22479,740;24,90918
 918,70; 5742,387;  201,294;22344,510;25,02388
 919,26; 5733,079;  216,756;22277,663;25,00497
 919,81; 5740,233;  195,448;22119,125;25,29131
 920,37; 5710,002;  191,063;21986,587;25,32143
 920,92; 5716,463;  227,987;22000,202;25,20863
 921,48; 5637,617;  192,294;21781,971;25,22188
 922,03; 5671,617;  203,063;21755,202;25,37360
 922,59; 5677,771;  198,910;21551,356;25,65918
 923,14; 5646,848;  200,294;21536,971;25,52672
 923,69; 5693,387;  228,987;21373,510;25,84310
 924,25; 5652,079;  231,294;21373,279;25,63990
 924,80; 5608,848;  210,833;21137,125;25,79537
 925,36; 5554,694;  205,371;21097,433;25,60457
 925,91; 5524,925;  207,987;20935,202;25,65197
 926,47; 5547,233;  187,910;20840,663;25,94968
 927,02; 5638,848;  253,063;20835,817;26,16649
 927,57; 5549,617;  199,602;20660,740;26,14720
 928,13; 5498,848;  186,371;20612,663;26,00803
 928,68; 5493,925;  202,448;20522,587;26,04056
 929,24; 5430,233;  168,448;20419,663;25,98256
 929,79; 5453,387;  192,987;20219,971;26,26656
 930,34; 5441,771;  203,910;20070,894;26,36465
 930,90; 5385,694;  199,140;20103,587;26,05726
 931,45; 5463,694;  208,448;20063,971;26,46743
 932,01; 5386,848;  207,294;19824,894;26,40259
 932,56; 5436,156;  221,987;19795,894;26,63837
 933,11; 5427,156;  226,833;19744,663;26,64396
 933,67; 5398,540;  195,833;19569,740;26,85420
 934,22; 5393,694;  203,294;19479,663;26,92623
 934,77; 5367,387;  232,217;19436,202;26,74012
 935,33; 5310,694;  214,525;19295,279;26,70843
 935,88; 5302,617;  217,063;19181,510;26,81625
 936,43; 5294,387;  193,371;19164,663;26,88808
 936,99; 5270,387;  211,063;19027,510;26,88777
 937,54; 5259,079;  184,140;18841,894;27,20016
 938,09; 5287,694;  208,602;18791,740;27,33173
 938,65; 5257,540;  209,294;18645,817;27,38177
 939,20; 5215,002;  183,294;18601,740;27,31885
 939,75; 5206,771;  189,525;18505,356;27,39295
 940,31; 5163,233;  185,448;18393,971;27,33766
 940,86; 5232,387;  209,756;18389,048;27,62831
 941,41; 5291,617;  261,063;18269,817;27,93394
 941,96; 5185,079;  201,910;18149,433;27,76522
 942,52; 5155,310;  202,294;18048,125;27,75447
 943,07; 5150,002;  182,910;17949,125;27,95808
 943,62; 5134,387;  199,525;17862,740;27,93864
 944,18; 5127,463;  198,987;17755,663;28,07181
 944,73; 5149,925;  209,371;17721,510;28,21217
 945,28; 5063,079;  172,910;17468,510;28,27407
 945,83; 5123,925;  192,910;17503,740;28,48515
 946,39; 5105,925;  190,910;17489,740;28,41241
 946,94; 5121,848;  218,063;17365,510;28,59775
 947,49; 5039,463;  202,756;17228,740;28,40780
 948,04; 5093,310;  222,756;17257,663;28,59161
 948,59; 5036,310;  224,448;17127,510;28,46740
 949,15; 4994,233;  181,987;17016,356;28,58584
 949,70; 5000,848;  203,602;16957,587;28,63346
 950,25; 4969,233;  216,063;16872,894;28,53586
 950,80; 4963,079;  170,140;16704,125;28,98841
 951,36; 4930,925;  166,602;16642,279;28,91731
 951,91; 4966,233;  215,756;16653,279;28,90020
 952,46; 4900,540;  188,217;16474,125;28,93497
 953,01; 4933,156;  211,756;16479,279;29,02347
 953,56; 4848,002;  182,217;16339,663;28,87699
 954,11; 4894,387;  208,217;16342,971;29,04395
 954,67; 4816,387;  186,602;16240,433;28,83913
 955,22; 4800,310;  165,140;16065,125;29,15204
 955,77; 4825,694;  227,371;16076,510;29,01308
 956,32; 4858,233;  233,525;15970,125;29,38823
 956,87; 4795,079;  188,217;15816,356;29,47799
 957,42; 4769,233;  199,448;15744,202;29,39760
 957,98; 4762,540;  195,525;15677,125;29,49963
 958,53; 4792,079;  216,679;15685,894;29,57745
 959,08; 4696,848;  190,756;15538,048;29,36083
 959,63; 4694,848;  185,140;15422,356;29,59667
 960,18; 4654,848;  204,063;15400,817;29,28773
 960,73; 4702,848;  202,756;15353,048;29,70301
 961,28; 4675,617;  188,371;15228,510;29,83514
 961,83; 4699,156;  205,525;15224,510;29,91967
 962,39; 4619,156;  184,602;15026,894;29,87782
 962,94; 4614,310;  217,756;14998,510;29,74513
 963,49; 4559,387;  202,756;14846,048;29,75172
 964,04; 4599,387;  212,063;14804,971;30,06476
 964,59; 4555,848;  170,140;14735,356;30,11083
 965,14; 4586,463;  214,140;14637,740;30,31367
 965,69; 4520,463;  204,525;14532,356;30,12276
 966,24; 4520,848;  189,910;14443,894;30,38405
 966,79; 4557,925;  215,217;14397,125;30,62146
 967,34; 4457,463;  169,448;14195,587;30,57160
 967,89; 4467,233;  195,679;14179,048;30,54739
 968,44; 4440,233;  205,294;14128,740;30,41588
 968,99; 4447,156;  210,679;14066,740;30,57490
 969,55; 4421,463;  202,910;13953,817;30,67837
 970,10; 4396,079;  205,756;13867,587;30,67175
 970,65; 4401,233;  216,217;13742,587;30,93968
 971,20; 4336,617;  194,140;13683,510;30,70920
 971,75; 4314,848;  175,833;13469,356;31,13558
 972,30; 4319,771;  200,525;13451,663;31,08598
 972,85; 4317,002;  191,756;13365,125;31,31504
 973,40; 4220,540;  191,756;13249,663;30,85322
 973,95; 4269,463;  202,140;13220,740;31,24240
 974,50; 4260,079;  223,448;13146,894;31,23494
 975,05; 4245,079;  201,756;13000,279;31,59211
 975,60; 4215,233;  215,140;12978,894;31,33947
 976,15; 4166,617;  191,833;12840,663;31,42413
 976,70; 4155,463;  203,063;12794,356;31,38995
 977,25; 4166,387;  212,833;12717,817;31,61582
 977,80; 4128,540;  194,679;12616,433;31,66913
 978,35; 4066,925;  218,448;12468,048;31,41716
 978,89; 4038,310;  186,679;12345,510;31,67764
 979,44; 4039,233;  197,756;12355,971;31,59573
 979,99; 3997,540;  186,910;12160,510;31,82527
 980,54; 4035,002;  227,987;12152,356;31,92635
 981,09; 3989,771;  219,140;12073,433;31,80815
 981,64; 3951,079;  206,833;11907,663;31,99983
 982,19; 3992,233;  235,910;11902,510;32,19724
 982,74; 3896,002;  214,987;11733,971;31,95608
 983,29; 3851,540;  191,756;11599,356;32,08199
 983,84; 3848,540;  209,525;11474,202;32,30466
 984,39; 3969,540;  262,833;11432,587;33,18522
 984,94; 3793,233;  178,294;11322,971;32,43646
 985,49; 3847,002;  231,679;11240,587;32,83998
 986,03; 3847,310;  225,217;11184,587;33,05019
 986,58; 3806,233;  245,448;11041,740;32,98155
 987,13; 3711,694;  207,910;10894,587;32,78647
 987,68; 3692,925;  222,140;10822,125;32,74330
 988,23; 3666,925;  221,063;10802,048;32,56655
 988,78; 3633,233;  193,063;10655,433;32,88136
 989,33; 3648,002;  216,833;10548,125;33,21142
 989,88; 3640,771;  224,756;10489,740;33,27833
 990,42; 3537,694;  210,679;10372,433;32,74056
 990,97; 3511,540;  210,833;10237,356;32,91976
 991,52; 3515,233;  229,140;10154,125;33,10929
 992,07; 3521,617;  237,910;10121,663;33,22328
 992,62; 3446,156;  222,448; 9972,356;33,06398
 993,17; 3419,540;  221,448; 9894,663;33,06132
 993,71; 3372,694;  222,756; 9765,433;33,00896
 994,26; 3370,387;  201,371; 9678,125;33,43988
 994,81; 3386,771;  221,140; 9602,510;33,74380
 995,36; 3283,617;  204,371; 9478,894;33,20113
 995,91; 3259,617;  217,679; 9431,356;33,01547
 996,45; 3286,848;  205,140; 9270,279;33,99515
 997,00; 3241,463;  189,987; 9123,740;34,15672
 997,55; 3256,233;  216,987; 9109,587;34,17725
 998,10; 3206,771;  242,756; 8988,433;33,89121
 998,65; 3150,925;  204,140; 8947,356;33,70367
 999,19; 3155,694;  221,371; 8811,663;34,15859
 999,74; 3092,156;  236,987; 8739,510;33,58026
1000,29; 3107,540;  226,294; 8655,202;34,18291
1000,84; 3043,156;  201,679; 8495,894;34,25854
1001,38; 3050,233;  213,217; 8413,971;34,59457
1001,93; 3068,079;  229,910; 8355,356;34,92940
1002,48; 2972,694;  204,448; 8209,125;34,58286
1003,03; 2973,002;  223,910; 8186,894;34,52339
1003,57; 2942,540;  227,833; 8108,663;34,44697
1004,12; 2948,463;  256,371; 7949,048;34,99552
1004,67; 2875,310;  210,602; 7886,356;34,71591
1005,22; 2848,233;  205,448; 7729,125;35,12624
1005,76; 2786,387;  197,833; 7624,356;34,85553
1006,31; 2802,002;  228,217; 7583,894;34,99045
1006,86; 2738,233;  215,140; 7489,663;34,68395
1007,40; 2739,156;  202,602; 7323,587;35,62083
1007,95; 2745,925;  223,910; 7254,587;35,87159
1008,50; 2683,387;  215,910; 7108,048;35,80133
1009,04; 2641,617;  211,987; 7077,894;35,38688
1009,59; 2610,387;  215,525; 6945,279;35,58617
1010,14; 2562,771;  191,063; 6864,587;35,53906
1010,68; 2571,848;  202,217; 6776,971;36,04136
1011,23; 2512,771;  211,987; 6622,356;35,89161
1011,78; 2503,310;  223,525; 6594,279;35,78516
1012,32; 2518,079;  225,910; 6476,740;36,66983
1012,87; 2498,310;  240,063; 6461,279;36,29912
1013,42; 2411,079;  198,602; 6310,740;36,19808
1013,96; 2449,387;  235,063; 6342,587;36,25566
1014,51; 2358,848;  176,679; 6239,510;35,99258
1015,06; 2367,771;  194,294; 6241,663;35,94087
1015,60; 2454,079;  250,756; 6316,817;36,32214
1016,15; 2412,771;  204,140; 6243,894;36,56822
1016,69; 2420,233;  205,371; 6311,587;36,27225
1017,24; 2427,463;  193,371; 6283,202;36,68562
1017,79; 2450,771;  236,756; 6368,663;36,10647
1018,33; 2449,540;  201,063; 6299,663;36,86874
1018,88; 2520,233;  222,679; 6390,048;37,25339
1019,42; 2462,694;  206,987; 6383,202;36,52249
1019,97; 2469,079;  202,525; 6343,279;36,91003
1020,51; 2528,463;  224,679; 6435,125;37,09532
1021,06; 2459,310;  196,679; 6409,048;36,42138
1021,61; 2436,233;  177,525; 6367,587;36,48926
1022,15; 2415,617;  168,140; 6285,279;36,74066
1022,70; 2466,002;  201,987; 6293,663;37,16572
1023,24; 2435,694;  194,217; 6266,125;36,91553
1023,79; 2429,233;  207,602; 6194,279;37,10958
1024,33; 2415,387;  189,140; 6167,740;37,23691
1024,88; 2390,079;  221,371; 6046,740;37,22867
1025,42; 2343,848;  211,140; 5985,356;36,93502
1025,97; 2317,387;  199,833; 5905,663;37,11210
1026,51; 2259,848;  176,063; 5792,817;37,09945
1027,06; 2276,463;  192,217; 5716,433;37,72927
1027,60; 2251,387;  216,217; 5660,356;37,38276
1028,15; 2225,233;  214,910; 5538,048;37,76575
1028,69; 2134,694;  173,602; 5427,894;37,32362
1029,24; 2139,617;  187,294; 5382,663;37,57814
1029,78; 2091,002;  189,910; 5295,048;37,23880
1030,33; 2068,310;  178,679; 5186,817;37,73120
1030,87; 2047,771;  195,679; 5110,356;37,68492
1031,42; 2008,925;  175,833; 5040,510;37,68169
1031,96; 2012,848;  207,525; 4971,587;37,89462
1032,51; 1969,233;  184,833; 4889,202;37,93070
1033,05; 1964,387;  204,679; 4859,971;37,80015
1033,60; 1903,387;  165,525; 4725,971;38,10727
1034,14; 1901,540;  191,679; 4665,971;38,21524
1034,69; 1895,848;  202,140; 4596,433;38,54336
1035,23; 1866,617;  195,987; 4562,356;38,26133
1035,77; 1845,540;  190,448; 4520,048;38,22737
1036,32; 1787,156;  169,525; 4409,433;38,15250
1036,86; 1811,079;  201,679; 4379,817;38,51955
1037,41; 1785,002;  205,756; 4278,279;38,77808
1037,95; 1735,002;  181,679; 4218,971;38,47438
1038,50; 1725,387;  187,217; 4162,510;38,69324
1039,04; 1739,156;  213,910; 4120,587;39,04203
1039,58; 1690,079;  186,140; 4047,740;38,94599
1040,13; 1689,310;  197,525; 3989,048;39,34526
1040,67; 1703,848;  229,448; 3970,817;39,40803
1041,21; 1674,002;  213,140; 3912,740;39,48701
1041,76; 1610,310;  179,679; 3816,356;39,33896
1042,30; 1603,079;  204,063; 3788,125;39,03436
1042,85; 1588,233;  200,448; 3725,971;39,36394
1043,39; 1555,694;  166,910; 3647,125;39,90513
1043,93; 1572,463;  211,217; 3640,894;39,69022
1044,48; 1549,694;  215,679; 3562,663;39,85723
1045,02; 1521,540;  197,525; 3481,279;40,32018
1045,56; 1530,617;  215,294; 3502,971;40,00767
1046,11; 1477,156;  206,756; 3442,894;39,25666
1046,65; 1472,310;  208,448; 3371,663;39,95496
1047,19; 1456,233;  188,063; 3327,279;40,39765
1047,74; 1412,387;  184,833; 3238,510;40,19920
1048,28; 1414,617;  201,910; 3227,279;40,08462
1048,82; 1434,848;  212,833; 3210,510;40,76541
1049,37; 1401,079;  214,602; 3148,048;40,44652
1049,91; 1381,310;  197,756; 3114,433;40,57885
1050,45; 1383,925;  219,140; 3066,971;40,90077
1050,99; 1361,310;  201,294; 3028,587;41,02920
1051,54; 1311,002;  197,756; 2964,587;40,23543
1052,08; 1338,463;  220,217; 2919,125;41,43329
1052,62; 1315,233;  211,756; 2906,356;40,95142
1053,16; 1304,617;  191,525; 2845,894;41,93434
1053,71; 1302,002;  203,756; 2818,202;42,00684
1054,25; 1268,233;  216,371; 2767,125;41,23728
1054,79; 1262,925;  212,910; 2723,048;41,83097
1055,33; 1191,463;  177,602; 2670,279;40,67360
1055,88; 1241,156;  215,371; 2668,587;41,81388
1056,42; 1229,540;  222,987; 2646,817;41,52740
1056,96; 1208,848;  217,140; 2583,048;41,91658
1057,50; 1217,002;  211,371; 2545,433;43,08502
1058,05; 1169,540;  200,987; 2502,356;42,08598
1058,59; 1188,387;  229,294; 2489,279;42,43800
1059,13; 1132,463;  186,525; 2424,894;42,26016
1059,67; 1138,233;  224,448; 2421,433;41,59267
1060,21; 1110,233;  213,063; 2344,817;42,08597
1060,76; 1120,540;  221,602; 2316,433;42,91222
1061,30; 1122,771;  226,910; 2312,279;42,95937
1061,84; 1075,079;  213,448; 2244,202;42,42911
1062,38; 1039,310;  192,063; 2193,048;42,34146
1062,92; 1086,156;  240,910; 2237,279;42,33917
1063,46; 1048,387;  224,679; 2158,433;42,59631
1064,01; 1044,925;  204,217; 2134,894;43,54471
1064,55; 1037,848;  213,140; 2102,048;43,66056
1065,09;  984,771;  185,063; 2060,048;42,65143
1065,63; 1035,617;  239,140; 2071,202;43,47435
1066,17; 1035,694;  242,217; 2045,971;43,99031
1066,71;  995,617;  226,217; 2023,587;42,80701
1067,25;  973,848;  211,294; 1967,433;43,42219
1067,80;  964,848;  219,679; 1961,433;42,78269
1068,34;  994,387;  242,756; 1928,971;44,57502
1068,88;  945,617;  201,448; 1891,510;44,03208
1069,42;  960,540;  241,294; 1921,433;42,80874
1069,96;  915,771;  200,217; 1850,279;43,36528
1070,50;  965,925;  241,910; 1861,433;44,70547
1071,04;  901,387;  192,756; 1814,817;43,68705
1071,58;  891,848;  210,602; 1809,510;42,60697
1072,12;  882,540;  207,987; 1767,971;43,24106
1072,66;  873,387;  205,602; 1757,356;43,03418
1073,21;  896,310;  228,371; 1752,202;43,83285
1073,75;  875,694;  226,602; 1707,202;43,83982
1074,29;  865,771;  218,371; 1684,433;44,15913
1074,83;  878,079;  233,140; 1701,125;43,93360
1075,37;  864,771;  230,525; 1658,202;44,42505
1075,91;  852,925;  224,987; 1647,663;44,13781
1076,45;  831,310;  217,063; 1628,894;43,50707
1076,99;  834,925;  236,756; 1589,125;44,23121
1077,53;  805,387;  206,525; 1573,971;43,79416
1078,07;  815,310;  222,525; 1573,433;43,88047
1078,61;  794,310;  217,833; 1538,894;43,63740
1079,15;  780,771;  212,525; 1524,663;43,30687
1079,69;  792,617;  216,140; 1491,433;45,20351
1080,23;  804,540;  233,833; 1482,587;45,70218
1080,77;  846,463;  267,910; 1506,048;46,72772
1081,31;  765,925;  213,679; 1440,894;44,99994
1081,85;  784,387;  224,602; 1452,048;45,60564
1082,39;  752,233;  209,294; 1414,663;45,04333
1082,93;  768,617;  221,063; 1410,894;46,01947
1083,47;  722,002;  196,140; 1361,971;45,10616
1084,01;  756,387;  236,140; 1391,587;45,02556
1084,55;  721,925;  209,987; 1330,510;45,68745
1085,09;  747,463;  230,448; 1354,202;46,00789
1085,63;  731,233;  214,371; 1322,894;46,62614
1086,17;  723,848;  212,679; 1282,433;47,78382
1086,71;  699,079;  213,910; 1289,356;45,11330
1087,24;  729,310;  232,140; 1300,663;46,52864
1087,78;  722,156;  224,833; 1273,817;47,40995
1088,32;  672,694;  215,217; 1228,202;45,16129
1088,86;  693,925;  241,987; 1251,202;44,78117
1089,40;  685,463;  217,602; 1222,433;46,56123
1089,94;  651,771;  195,833; 1181,433;46,25999
1090,48;  662,233;  226,833; 1185,279;45,42770
1091,02;  686,387;  232,833; 1181,587;47,80522
1091,56;  668,463;  218,756; 1171,971;47,17797
1092,10;  633,540;  200,217; 1147,971;45,72106
1092,63;  667,617;  234,987; 1154,740;47,03767
1093,17;  650,925;  233,294; 1125,587;46,80426
1093,71;  626,694;  209,294; 1113,279;46,17335
1094,25;  650,925;  235,448; 1131,817;46,35109
1094,79;  617,694;  218,371; 1087,048;45,96911
1095,33;  642,002;  220,679; 1067,279;49,76649
1095,87;  620,848;  228,448; 1063,817;46,97324
1096,40;  590,463;  198,679; 1024,663;47,43243
1096,94;  624,310;  216,987; 1045,894;49,13974
1097,48;  621,233;  219,833; 1024,048;49,91200
1098,02;  592,617;  211,371; 1015,894;47,38785
1098,56;  558,156;  189,679;  980,048;46,62086
1099,10;  561,848;  185,833;  971,894;47,83536
1099,63;  563,310;  200,987;  948,587;48,46483
1100,17;  592,925;  222,602;  979,433;48,93076
1100,71;  600,079;  243,140;  987,433;47,95676

