
Integration time [ms]: 160,000
Averaging Nr. [scans]: 13
Smoothing Nr. [pixels]: 0
Data measured with spectrometer [name]: 2009305U1
Wave   ;Sample   ;Dark     ;Reference;Reflectance
[nm]   ;[counts] ;[counts] ;[counts] ;[%]

 175,72;  211,742;  192,833;  205,653;147,49209
 176,32;  242,343;  215,986;  216,813; 0,00000
 176,92;  273,932;  247,602;  254,971;357,30318
 177,52;  279,251;  255,679;  265,678;235,74903
 178,12;  258,367;  239,756;  224,864; 0,00000
 178,72;  280,494;  257,525;  250,340; 0,00000
 179,32;  272,257;  248,909;  241,998; 0,00000
 179,92;  264,036;  247,063;  242,319; 0,00000
 180,52;  252,039;  235,064;  254,068;89,32160
 181,12;  272,449;  243,833;  252,404;333,84755
 181,73;  290,138;  258,371;  266,338;398,76167
 182,33;  405,621;  327,141;  336,927;801,97650
 182,93;  303,599;  265,064;  266,645;2436,42418
 183,53;  260,949;  233,755;  224,030; 0,00000
 184,13;  252,159;  236,909;  229,431; 0,00000
 184,73;  306,698;  266,448;  273,739;552,06029
 185,33;  274,934;  232,445;  341,197;39,06958
 185,93;  274,444;  226,213;  348,375;39,48096
 186,53;  293,368;  244,675;  370,650;38,65264
 187,13;  307,234;  273,291;  414,063;24,11193
 187,73;  272,939;  243,598;  361,495;24,88672
 188,33;  276,902;  237,983;  370,649;29,33606
 188,93;  290,630;  250,059;  374,130;32,70006
 189,53;  288,843;  248,981;  393,125;27,65416
 190,13;  320,301;  274,058;  409,924;34,03553
 190,73;  265,207;  218,289;  365,019;31,97571
 191,34;  297,435;  256,905;  385,888;31,42307
 191,94;  284,321;  235,829;  359,614;39,17450
 192,54;  289,188;  240,984;  391,391;32,04889
 193,14;  299,274;  258,291;  390,009;31,11402
 193,74;  308,765;  260,214;  377,424;41,42233
 194,34;  306,729;  241,445;  388,106;44,51332
 194,94;  258,622;  209,983;  342,899;36,59346
 195,54;  238,794;  190,137;  332,970;34,06557
 196,14;  254,088;  225,291;  354,341;22,31484
 196,74;  263,954;  223,445;  343,719;33,68110
 197,34;  230,403;  197,522;  345,903;22,15945
 197,94;  261,750;  232,368;  373,573;20,80805
 198,54;  282,541;  228,599;  383,909;34,73165
 199,14;  246,546;  215,368;  380,241;18,91036
 199,74;  233,275;  190,292;  370,197;23,89240
 200,34;  230,607;  195,061;  379,885;19,23236
 200,94;  271,478;  233,599;  425,936;19,69404
 201,54;  255,671;  216,753;  432,596;18,03092
 202,14;  286,682;  230,061;  474,093;23,20232
 202,74;  251,329;  213,907;  473,146;14,43534
 203,34;  226,144;  180,907;  480,577;15,09540
 203,94;  207,556;  170,753;  486,255;11,66494
 204,54;  289,135;  238,445;  563,211;15,60834
 205,14;  236,845;  203,984;  571,733; 8,93578
 205,74;  289,917;  236,907;  659,589;12,54129
 206,34;  248,944;  200,215;  679,015;10,17744
 206,94;  246,653;  210,138;  728,140; 7,04928
 207,54;  233,229;  191,907;  773,579; 7,10397
 208,14;  256,705;  194,522;  845,836; 9,54729
 208,74;  246,822;  198,907;  918,683; 6,65694
 209,34;  265,443;  202,215;  992,970; 7,99596
 209,94;  281,053;  202,753; 1089,013; 8,83494
 210,54;  269,005;  195,292; 1187,450; 7,42964
 211,14;  275,596;  194,368; 1267,179; 7,57149
 211,73;  288,132;  197,830; 1399,958; 7,51186
 212,33;  295,903;  214,830; 1495,442; 6,33082
 212,93;  284,980;  201,830; 1569,925; 6,07779
 213,53;  264,474;  168,522; 1613,023; 6,64253
 214,13;  302,500;  193,369; 1705,053; 7,21918
 214,73;  260,451;  179,907; 1721,786; 5,22378
 215,33;  255,515;  163,830; 1742,628; 5,80727
 215,93;  301,288;  194,523; 1862,662; 6,40024
 216,53;  244,129;  157,753; 1944,199; 4,83506
 217,13;  316,956;  209,061; 2159,512; 5,53179
 217,73;  295,360;  196,599; 2334,342; 4,61986
 218,33;  265,198;  149,754; 2512,186; 4,88668
 218,93;  312,856;  177,292; 2802,474; 5,16396
 219,53;  331,773;  179,830; 3052,680; 5,28891
 220,13;  305,038;  166,677; 3342,899; 4,35615
 220,73;  352,588;  178,292; 3659,770; 5,00639
 221,32;  354,668;  192,215; 4073,836; 4,18520
 221,92;  387,150;  184,984; 4477,909; 4,70928
 222,52;  396,230;  163,446; 4867,162; 4,94894
 223,12;  418,493;  187,984; 5286,413; 4,52117
 223,72;  440,914;  189,369; 5644,061; 4,61153
 224,32;  476,964;  186,830; 5997,482; 4,99314
 224,92;  469,023;  168,830; 6323,312; 4,87762
 225,52;  523,305;  197,753; 6670,557; 5,02953
 226,12;  532,218;  180,753; 6972,357; 5,17499
 226,72;  510,005;  160,753; 7292,274; 4,89729
 227,31;  531,140;  151,984; 7646,565; 5,05907
 227,91;  591,191;  194,138; 8071,656; 5,04033
 228,51;  598,660;  165,984; 8435,636; 5,23210
 229,11;  648,520;  184,907; 8840,069; 5,35649
 229,71;  652,002;  170,830; 9126,800; 5,37264
 230,31;  687,441;  168,369; 9555,531; 5,52960
 230,91;  702,992;  158,599; 9813,841; 5,63831
 231,51;  732,804;  163,753;10061,634; 5,74921
 232,10;  768,678;  164,907;10384,972; 5,90770
 232,70;  803,113;  181,445;10581,029; 5,97782
 233,30;  871,486;  195,753;10813,411; 6,36424
 233,90;  880,083;  167,984;10937,933; 6,61191
 234,50;  899,256;  169,984;11059,818; 6,69681
 235,10;  911,638;  171,292;10974,158; 6,85324
 235,70;  967,068;  182,907;11013,347; 7,24035
 236,29;  966,278;  178,907;10902,340; 7,34253
 236,89;  976,590;  160,907;10792,462; 7,67228
 237,49; 1017,901;  183,907;10632,310; 7,98203
 238,09; 1013,714;  172,753;10341,707; 8,26988
 238,69; 1053,740;  207,676;10098,604; 8,55394
 239,29; 1016,224;  164,138; 9734,699; 8,90320
 239,89; 1029,146;  172,907; 9401,017; 9,27860
 240,48; 1022,003;  167,215; 8971,537; 9,70874
 241,08;  984,404;  164,522; 8611,278; 9,70647
 241,68; 1038,103;  188,215; 8278,664;10,50483
 242,28; 1001,155;  156,215; 7940,130;10,85495
 242,88; 1046,460;  197,061; 7665,624;11,37298
 243,48; 1025,480;  202,138; 7348,585;11,52100
 244,07; 1008,173;  196,215; 7158,640;11,66200
 244,67; 1039,163;  189,599; 6950,593;12,56566
 245,27; 1043,209;  189,214; 6813,419;12,89203
 245,87; 1065,201;  193,677; 6751,769;13,28929
 246,47; 1040,458;  180,522; 6743,128;13,10357
 247,06; 1063,138;  173,599; 6743,421;13,53977
 247,66; 1069,533;  171,676; 6819,743;13,50553
 248,26; 1132,939;  200,830; 7000,936;13,70727
 248,86; 1160,223;  197,445; 7154,654;13,83856
 249,46; 1132,075;  145,599; 7378,217;13,63926
 250,05; 1228,469;  199,830; 7771,472;13,58541
 250,65; 1265,950;  152,599; 8058,257;14,08296
 251,25; 1340,494;  170,984; 8552,490;13,95346
 251,85; 1400,734;  170,830; 9127,877;13,73114
 252,44; 1474,573;  137,061; 9680,974;14,01430
 253,04; 1587,049;  188,215;10445,847;13,63701
 253,64; 1616,067;  136,830;11140,049;13,44367
 254,24; 1728,432;  193,061;12050,132;12,94899
 254,84; 1847,229;  169,830;13024,525;13,04892
 255,43; 1926,039;  179,676;13965,778;12,66756
 256,03; 2058,714;  176,907;14933,069;12,75269
 256,63; 2169,110;  184,599;15959,061;12,58053
 257,23; 2225,192;  171,753;16835,711;12,32264
 257,82; 2361,463;  182,599;17818,426;12,35476
 258,42; 2416,153;  143,753;18720,590;12,23244
 259,02; 2509,927;  189,522;19585,306;11,96345
 259,62; 2562,649;  171,445;20283,193;11,88959
 260,21; 2615,428;  174,291;20811,251;11,82896
 260,81; 2622,376;  185,907;21379,753;11,49612
 261,41; 2634,915;  151,137;21814,664;11,46525
 262,01; 2691,891;  198,214;22356,130;11,25412
 262,60; 2649,115;  159,060;22637,173;11,07768
 263,20; 2675,164;  176,445;23055,648;10,92135
 263,80; 2663,308;  194,906;23123,820;10,76545
 264,40; 2623,689;  149,752;23365,215;10,65642
 264,99; 2629,275;  181,983;23636,262;10,43431
 265,59; 2606,481;  166,214;23828,529;10,31289
 266,19; 2570,652;  157,752;24024,776;10,10976
 266,78; 2606,797;  197,445;24085,499;10,08601
 267,38; 2537,139;  186,368;24190,233; 9,79330
 267,98; 2513,178;  170,906;24143,256; 9,77072
 268,58; 2487,198;  186,137;24183,756; 9,58870
 269,17; 2458,301;  173,752;24133,851; 9,53481
 269,77; 2461,493;  192,522;23966,940; 9,54375
 270,37; 2354,076;  161,368;23855,106; 9,25438
 270,96; 2378,377;  214,830;23796,071; 9,17487
 271,56; 2316,938;  179,676;23480,276; 9,17256
 272,16; 2289,661;  169,060;23368,768; 9,14063
 272,75; 2268,512;  169,522;23244,494; 9,09639
 273,35; 2207,572;  186,753;23207,061; 8,77842
 273,95; 2216,779;  180,291;23273,296; 8,81864
 274,54; 2195,039;  158,061;23319,855; 8,79456
 275,14; 2247,097;  185,830;23690,387; 8,76965
 275,74; 2197,611;  157,830;23677,369; 8,67271
 276,33; 2255,158;  197,983;24100,569; 8,60649
 276,93; 2292,158;  184,138;24473,251; 8,67887
 277,53; 2303,392;  181,984;25015,911; 8,54238
 278,12; 2336,269;  152,830;25597,349; 8,58118
 278,72; 2474,966;  215,676;26084,768; 8,73355
 279,32; 2470,540;  184,830;26655,470; 8,63489
 279,91; 2533,959;  151,984;27296,689; 8,77510
 280,51; 2620,379;  164,061;27885,853; 8,86060
 281,11; 2701,326;  165,368;28515,442; 8,94515
 281,70; 2734,872;  153,676;28993,081; 8,95024
 282,30; 2850,015;  163,599;29674,353; 9,10318
 282,90; 2906,680;  168,753;30003,444; 9,17699
 283,49; 3036,685;  190,983;30517,786; 9,38346
 284,09; 3113,243;  200,214;30896,231; 9,48992
 284,69; 3222,630;  194,907;31311,375; 9,73029
 285,28; 3302,591;  181,907;31608,199; 9,93017
 285,88; 3464,941;  231,060;31904,705;10,21001
 286,47; 3480,336;  181,137;31901,565;10,40086
 287,07; 3638,965;  202,984;31975,438;10,81434
 287,67; 3744,249;  185,830;32122,739;11,14203
 288,26; 3862,603;  169,599;32037,774;11,58838
 288,86; 4029,347;  168,676;32056,294;12,10712
 289,46; 4178,801;  193,984;32185,292;12,45594
 290,05; 4376,843;  172,368;32376,766;13,05559
 290,65; 4602,959;  173,907;32494,359;13,70356
 291,24; 4853,246;  178,138;32665,551;14,39052
 291,84; 5088,648;  184,830;32740,907;15,06268
 292,44; 5317,549;  179,061;33002,715;15,65483
 293,03; 5636,929;  246,907;32988,735;16,46219
 293,63; 5758,738;  176,599;33084,504;16,96291
 294,22; 6014,335;  190,753;33347,104;17,56400
 294,82; 6224,368;  182,060;33256,310;18,26892
 295,41; 6325,795;  155,291;33060,774;18,75221
 296,01; 6484,334;  208,214;33008,575;19,13430
 296,61; 6595,739;  182,753;32641,087;19,75759
 297,20; 6638,375;  186,522;32323,950;20,07582
 297,80; 6729,799;  194,984;32156,885;20,44564
 298,39; 6735,119;  164,060;31774,877;20,78737
 298,99; 6824,549;  189,214;31656,241;21,08663
 299,58; 6871,972;  192,292;31571,638;21,28687
 300,18; 6952,078;  209,445;31366,877;21,64053
 300,78; 6889,827;  177,599;30948,409;21,81362
 301,37; 6956,989;  193,291;30891,191;22,03310
 301,97; 7018,629;  188,061;30939,660;22,21208
 302,56; 6981,236;  187,137;30906,361;22,11676
 303,16; 7029,415;  173,753;30840,917;22,35506
 303,75; 7029,249;  174,368;30857,002;22,34124
 304,35; 7175,678;  166,830;31103,257;22,65565
 304,94; 7209,770;  179,138;31040,448;22,78138
 305,54; 7246,668;  201,215;31020,913;22,86023
 306,13; 7184,683;  164,984;31012,753;22,75594
 306,73; 7136,752;  168,138;30770,960;22,77115
 307,33; 7220,389;  192,369;30714,351;23,02610
 307,92; 7241,409;  185,061;30785,136;23,05991
 308,52; 7325,564;  165,830;31199,806;23,07063
 309,11; 7424,053;  172,137;31705,231;22,99779
 309,71; 7507,362;  168,599;31935,792;23,10171
 310,30; 7574,020;  160,061;32195,179;23,14322
 310,90; 7710,789;  198,061;32541,025;23,22832
 311,49; 7747,612;  179,214;32617,051;23,33200
 312,09; 7732,404;  152,599;32789,355;23,22475
 312,68; 7902,166;  218,291;33185,330;23,30775
 313,28; 7852,563;  159,907;33317,674;23,20016
 313,87; 7867,947;  153,830;33457,421;23,16302
 314,47; 7953,846;  169,214;33719,073;23,20317
 315,06; 7963,455;  155,291;33846,369;23,17576
 315,66; 8021,404;  156,061;33991,278;23,24603
 316,25; 7954,130;  145,291;34000,199;23,06561
 316,85; 7947,373;  140,215;34012,972;23,04849
 317,44; 7981,221;  163,445;34187,697;22,97707
 318,04; 7991,006;  154,368;34156,383;23,04757
 318,63; 7935,992;  146,292;34237,622;22,84951
 319,22; 7964,068;  171,445;34452,357;22,73167
 319,82; 7982,075;  162,137;34418,304;22,82782
 320,41; 7941,611;  181,214;34371,699;22,69753
 321,01; 7887,575;  184,907;34386,656;22,52127
 321,60; 7959,062;  176,214;34477,630;22,68958
 322,20; 7837,550;  164,599;34382,000;22,42412
 322,79; 7922,387;  198,368;34501,800;22,51675
 323,39; 7901,148;  170,907;34565,974;22,47485
 323,98; 7808,283;  149,522;34508,529;22,29040
 324,58; 7774,573;  154,368;34408,391;22,24616
 325,17; 7734,665;  176,599;34190,879;22,22027
 325,76; 7692,661;  187,830;34036,681;22,17160
 326,36; 7540,394;  143,368;33626,517;22,09179
 326,95; 7543,836;  193,753;33357,126;22,16326
 327,55; 7415,020;  148,676;32972,948;22,13711
 328,14; 7277,071;  161,292;32580,644;21,94917
 328,74; 7167,738;  189,830;32167,636;21,82110
 329,33; 7084,801;  178,907;31731,391;21,88701
 329,92; 6939,578;  156,214;31253,788;21,81316
 330,52; 6754,546;  173,753;30573,956;21,64720
 331,11; 6697,225;  171,445;30177,215;21,74842
 331,71; 6543,882;  165,522;29557,766;21,70083
 332,30; 6431,693;  177,445;29149,371;21,58727
 332,89; 6304,240;  213,984;28628,725;21,43344
 333,49; 6152,845;  187,907;28086,942;21,38045
 334,08; 6034,934;  175,368;27697,286;21,29054
 334,68; 5933,962;  180,907;27293,964;21,21876
 335,27; 5837,996;  186,215;26952,612;21,11521
 335,86; 5820,379;  224,753;26641,446;21,18216
 336,46; 5653,521;  181,061;26461,399;20,82340
 337,05; 5582,976;  171,599;26265,353;20,73821
 337,65; 5528,971;  153,291;26054,626;20,75445
 338,24; 5595,718;  213,907;26069,851;20,81460
 338,83; 5501,849;  192,984;25957,438;20,60539
 339,43; 5453,579;  167,984;25897,909;20,54260
 340,02; 5415,126;  162,291;25866,857;20,43541
 340,61; 5455,830;  170,138;25836,938;20,59350
 341,21; 5428,199;  208,137;25858,636;20,35072
 341,80; 5413,839;  175,368;25826,808;20,42174
 342,40; 5398,216;  170,292;25890,158;20,32641
 342,99; 5398,855;  165,445;25947,187;20,29890
 343,58; 5421,878;  177,368;26189,622;20,16169
 344,18; 5426,073;  195,522;26373,073;19,98106
 344,77; 5467,483;  164,599;26529,948;20,11308
 345,36; 5520,990;  148,676;26879,818;20,09758
 345,96; 5576,127;  201,984;27219,638;19,89123
 346,55; 5612,596;  151,369;27427,300;20,02215
 347,14; 5653,705;  152,907;27772,144;19,91655
 347,74; 5687,077;  143,292;28192,844;19,76426
 348,33; 5802,732;  164,677;28854,944;19,65146
 348,92; 5920,877;  178,061;29402,688;19,65060
 349,52; 5965,957;  140,215;29849,887;19,60891
 350,11; 6050,441;  175,907;30115,958;19,62099
 350,70; 6039,726;  167,061;30103,798;19,61692
 351,29; 5946,548;  160,291;29828,098;19,50349
 351,89; 5968,044;  176,983;29840,031;19,52281
 352,48; 5921,545;  155,215;29908,351;19,38058
 353,07; 5954,204;  174,599;29796,583;19,51120
 353,67; 5919,851;  189,215;29796,109;19,35575
 354,26; 5841,868;  164,676;29465,729;19,37539
 354,85; 5839,015;  173,907;29381,496;19,39602
 355,45; 5753,626;  158,830;29187,341;19,27345
 356,04; 5733,245;  168,753;29179,958;19,18049
 356,63; 5745,669;  200,676;28979,836;19,26739
 357,22; 5665,972;  176,675;28835,197;19,15415
 357,82; 5584,236;  173,829;28527,954;19,08155
 358,41; 5599,589;  190,291;28522,847;19,09216
 359,00; 5554,203;  155,907;28267,802;19,20289
 359,60; 5567,939;  174,676;28241,266;19,21596
 360,19; 5507,323;  174,292;28045,826;19,13433
 360,78; 5495,414;  177,984;27864,379;19,20593
 361,37; 5424,681;  169,061;27730,181;19,06897
 361,97; 5390,018;  169,676;27624,442;19,01434
 362,56; 5301,704;  167,753;27299,264;18,92247
 363,15; 5383,640;  202,830;27001,114;19,33262
 363,74; 5248,661;  174,291;26660,845;19,15829
 364,34; 5199,312;  194,291;26339,415;19,14323
 364,93; 5079,029;  163,291;25935,873;19,07352
 365,52; 4987,456;  141,445;25588,830;19,04325
 366,11; 4977,289;  173,599;25238,079;19,16533
 366,71; 4907,760;  160,907;24896,203;19,19061
 367,30; 4827,510;  173,522;24575,417;19,07224
 367,89; 4831,508;  207,215;24348,725;19,15495
 368,48; 4756,426;  182,291;24090,525;19,13205
 369,07; 4683,803;  178,138;23657,413;19,18997
 369,67; 4656,897;  203,291;23383,363;19,21308
 370,26; 4547,799;  163,445;23103,863;19,11192
 370,85; 4542,369;  177,137;22920,245;19,19365
 371,44; 4501,040;  163,214;22611,778;19,32340
 372,03; 4445,936;  151,907;22418,770;19,28439
 372,63; 4368,881;  141,984;22051,743;19,29231
 373,22; 4365,626;  162,368;21824,363;19,40383
 373,81; 4298,283;  140,907;21614,122;19,36076
 374,40; 4283,695;  153,522;21310,691;19,52139
 374,99; 4252,748;  157,753;21122,573;19,53270
 375,59; 4209,577;  163,061;20765,855;19,64062
 376,18; 4213,446;  191,522;20688,377;19,62215
 376,77; 4203,149;  184,368;20538,952;19,74386
 377,36; 4153,342;  194,599;20427,029;19,56633
 377,95; 4149,679;  181,291;20167,268;19,85586
 378,55; 4077,498;  164,907;19976,041;19,74946
 379,14; 4137,487;  177,522;19901,675;20,07673
 379,73; 4090,905;  165,676;19853,332;19,93752
 380,32; 4111,258;  183,984;19873,181;19,94634
 380,91; 4086,526;  159,676;19667,575;20,12954
 381,50; 4121,432;  181,137;19730,834;20,15527
 382,10; 4101,412;  165,599;19588,104;20,26419
 382,69; 4083,998;  153,061;19536,843;20,27952
 383,28; 4147,212;  185,214;19485,519;20,52816
 383,87; 4096,501;  170,599;19354,118;20,46497
 384,46; 4086,395;  156,599;19303,219;20,52475
 385,05; 4125,269;  194,368;19336,249;20,53561
 385,64; 4138,443;  173,984;19253,926;20,77815
 386,24; 4124,245;  151,214;19260,693;20,79089
 386,83; 4223,996;  185,676;19307,347;21,11908
 387,42; 4218,593;  185,907;19437,221;20,94759
 388,01; 4280,574;  175,906;19692,501;21,03168
 388,60; 4368,568;  180,060;19935,642;21,20164
 389,19; 4418,739;  162,521;20071,470;21,37841
 389,78; 4479,297;  163,137;20300,531;21,43356
 390,37; 4667,442;  226,829;20795,837;21,58885
 390,96; 4652,874;  171,983;20851,213;21,66856
 391,56; 4698,505;  182,136;20980,634;21,71488
 392,15; 4793,552;  156,367;21348,835;21,88128
 392,74; 4804,437;  147,059;21537,383;21,77329
 393,33; 4918,622;  167,290;21800,272;21,96337
 393,92; 5081,500;  173,905;22148,280;22,33326
 394,51; 5128,789;  169,367;22328,946;22,38049
 395,10; 5216,105;  191,212;22592,145;22,43162
 395,69; 5248,062;  172,828;22659,440;22,57003
 396,28; 5306,394;  187,828;22780,161;22,65621
 396,87; 5352,313;  175,366;22794,544;22,88742
 397,46; 5411,761;  191,750;22963,056;22,92364
 398,06; 5487,022;  198,596;23203,119;22,98864
 398,65; 5480,427;  184,672;23227,508;22,98222
 399,24; 5594,757;  204,056;23470,283;23,16964
 399,83; 5592,261;  175,516;23419,733;23,30363
 400,42; 5702,413;  203,053;23563,588;23,54124
 401,01; 5741,727;  185,975;23697,214;23,63020
 401,60; 5750,072;  194,281;23692,232;23,64373
 402,19; 5806,840;  220,049;23599,757;23,89590
 402,78; 5831,535;  222,354;23670,337;23,92181
 403,37; 5799,396;  208,967;23485,360;24,01759
 403,96; 5816,831;  200,734;23392,403;24,21601
 404,55; 5802,520;  220,577;23298,760;24,18710
 405,14; 5756,800;  199,113;23194,704;24,16849
 405,73; 5790,475;  215,417;23072,266;24,39119
 406,32; 5836,928;  222,569;22959,260;24,69295
 406,91; 5773,400;  202,028;22680,458;24,78541
 407,50; 5775,995;  215,873;22530,604;24,91682
 408,09; 5725,917;  186,103;22248,987;25,10920
 408,68; 5706,619;  196,641;22130,582;25,12078
 409,27; 5727,007;  186,488;21935,551;25,47475
 409,86; 5659,964;  200,644;21860,399;25,20490
 410,45; 5752,334;  232,645;21774,441;25,62316
 411,04; 5759,519;  236,801;21640,738;25,80235
 411,63; 5685,174;  213,187;21399,610;25,82780
 412,22; 5689,417;  217,574;21270,990;25,99029
 412,81; 5615,806;  222,959;20933,498;26,03915
 413,40; 5577,762;  249,652;20594,959;26,18840
 413,99; 5582,918;  267,960;20389,882;26,41377
 414,58; 5428,511;  208,498;19983,338;26,39724
 415,17; 5424,381;  208,267;19843,761;26,56472
 415,76; 5378,284;  205,343;19646,204;26,60860
 416,35; 5318,941;  194,882;19356,030;26,74192
 416,94; 5392,601;  229,805;19554,581;26,71594
 417,53; 5448,912;  215,190;19687,836;26,87730
 418,12; 5478,044;  206,036;19787,445;26,92354
 418,71; 5629,582;  232,114;20191,765;27,04190
 419,30; 5661,168;  216,652;20276,876;27,14085
 419,89; 5736,036;  203,267;20467,311;27,30338
 420,48; 5836,474;  235,114;20775,844;27,26953
 421,07; 5859,315;  229,729;20800,062;27,36750
 421,66; 5919,860;  200,037;20766,724;27,81110
 422,25; 5902,053;  203,115;20757,681;27,72589
 422,84; 5927,487;  231,500;20748,871;27,76178
 423,43; 5886,939;  220,500;20404,088;28,07449
 424,02; 5860,703;  234,961;20179,384;28,20710
 424,60; 5728,416;  206,578;19787,501;28,20009
 425,19; 5728,910;  222,654;19548,224;28,49208
 425,78; 5691,165;  240,654;19501,989;28,29768
 426,37; 5652,251;  236,039;19304,849;28,40351
 426,96; 5650,672;  219,193;19247,266;28,54456
 427,55; 5600,329;  211,116;19035,553;28,62881
 428,14; 5559,579;  206,501;18860,636;28,69647
 428,73; 5575,984;  228,501;18686,169;28,97161
 429,32; 5588,526;  231,962;18637,883;29,10239
 429,91; 5610,726;  247,116;18703,205;29,06147
 430,50; 5545,177;  239,732;18496,159;29,06070
 431,08; 5539,610;  252,117;18415,557;29,11064
 431,67; 5547,345;  296,502;18284,691;29,19051
 432,26; 5535,691;  305,502;18077,559;29,42928
 432,85; 5461,924;  340,656;17763,604;29,39381
 433,44; 5376,658;  336,118;17385,023;29,56518
 434,03; 5286,105;  348,349;17082,008;29,50793
 434,62; 5145,409;  307,425;16701,952;29,50975
 435,21; 5073,065;  328,040;16469,644;29,39624
 435,79; 5112,272;  331,041;16336,814;29,87192
 436,38; 5055,040;  313,734;16279,858;29,69604
 436,97; 5039,915;  312,041;16185,273;29,78520
 437,56; 4987,577;  311,273;15964,310;29,87474
 438,15; 4966,726;  279,273;15853,253;30,09798
 438,74; 5005,167;  296,965;15926,346;30,12404
 439,33; 5011,223;  265,965;15886,494;30,37834
 439,91; 5015,680;  228,581;15945,350;30,45854
 440,50; 5110,228;  284,196;16038,265;30,63356
 441,09; 5118,940;  278,197;16137,216;30,52360
 441,68; 5121,580;  268,735;16097,048;30,65927
 442,27; 5127,390;  249,658;16117,378;30,73997
 442,86; 5111,808;  232,505;16092,763;30,76433
 443,44; 5149,821;  240,351;16162,261;30,83468
 444,03; 5239,591;  298,198;16223,997;31,02760
 444,62; 5128,505;  244,351;16069,566;30,86311
 445,21; 5112,036;  251,659;15914,696;31,03087
 445,80; 5144,655;  284,890;15782,390;31,35838
 446,39; 5076,228;  290,429;15504,817;31,45574
 446,97; 4930,858;  245,814;15352,756;31,01252
 447,56; 4899,471;  247,583;15120,833;31,27687
 448,15; 4873,966;  243,660;14991,139;31,39727
 448,74; 4777,615;  266,429;14672,104;31,31533
 449,33; 4768,781;  235,276;14587,031;31,58851
 449,91; 4694,210;  246,815;14400,616;31,42191
 450,50; 4632,026;  242,430;14179,487;31,49586
 451,09; 4607,395;  255,276;14091,361;31,45484
 451,68; 4609,771;  268,969;13991,513;31,63263
 452,26; 4583,605;  267,507;13882,268;31,70160
 452,85; 4541,574;  251,199;13837,578;31,57850
 453,44; 4577,410;  267,277;13788,136;31,87766
 454,03; 4540,911;  239,354;13776,037;31,77704
 454,61; 4512,561;  236,662;13755,146;31,63002
 455,20; 4631,182;  273,816;13940,687;31,88269
 455,79; 4634,638;  268,662;13927,663;31,96409
 456,38; 4657,476;  268,739;14007,442;31,94433
 456,97; 4691,632;  252,124;14070,310;32,12801
 457,55; 4662,621;  250,047;14089,802;31,88332
 458,14; 4709,973;  276,585;14042,968;32,20445
 458,73; 4674,771;  255,355;14008,120;32,13475
 459,31; 4719,967;  288,278;14014,715;32,28579
 459,90; 4766,201;  290,509;14131,760;32,33590
 460,49; 4845,053;  334,432;14244,717;32,42652
 461,08; 4776,941;  264,971;14325,004;32,09075
 461,66; 4809,261;  267,586;14367,019;32,21176
 462,25; 4848,823;  270,971;14422,905;32,34789
 462,84; 4870,245;  297,202;14494,938;32,20967
 463,43; 4828,306;  226,971;14407,032;32,44933
 464,01; 4852,944;  261,125;14470,259;32,31596
 464,60; 4901,790;  299,894;14402,292;32,63201
 465,19; 4759,440;  242,972;14172,423;32,42388
 465,77; 4752,351;  269,972;14117,024;32,37064
 466,36; 4728,853;  281,433;13996,694;32,42680
 466,95; 4652,646;  256,356;13737,152;32,61150
 467,53; 4554,013;  275,203;13416,862;32,55913
 468,12; 4490,314;  284,434;13175,399;32,62657
 468,71; 4381,532;  266,895;12915,296;32,53089
 469,29; 4290,971;  249,511;12695,642;32,47162
 469,88; 4251,460;  266,357;12500,496;32,57363
 470,47; 4324,424;  329,280;12548,915;32,69446
 471,06; 4279,601;  272,819;12534,273;32,67787
 471,64; 4298,997;  281,280;12691,803;32,37347
 472,23; 4280,260;  242,896;12681,781;32,45761
 472,81; 4331,301;  253,050;12749,243;32,63595
 473,40; 4379,179;  261,127;13004,846;32,31437
 473,99; 4563,659;  346,281;13160,323;32,91216
 474,57; 4486,695;  259,742;13250,487;32,53818
 475,16; 4538,606;  274,742;13372,506;32,55414
 475,75; 4618,145;  290,281;13477,287;32,81916
 476,33; 4671,601;  292,666;13553,813;33,02079
 476,92; 4666,815;  300,973;13603,829;32,81883
 477,51; 4658,254;  285,666;13671,153;32,66663
 478,09; 4661,983;  272,974;13702,109;32,68274
 478,68; 4682,248;  289,666;13595,350;33,01282
 479,27; 4679,467;  311,435;13701,522;32,62139
 479,85; 4679,619;  287,281;13703,038;32,74014
 480,44; 4695,713;  276,974;13868,131;32,51187
 481,02; 5101,276;  281,051;15608,402;31,44852
 481,61; 5802,260;  310,897;17388,639;32,15509
 482,20; 6152,937;  305,436;18436,789;32,25077
 482,78; 6496,055;  331,512;19187,657;32,69249
 483,37; 6692,259;  327,205;19643,013;32,95256
 483,95; 6763,026;  357,975;20013,353;32,58676
 484,54; 6861,724;  370,974;20144,321;32,82575
 485,13; 6764,166;  337,667;20034,163;32,62762
 485,71; 6725,285;  317,975;19790,230;32,90482
 486,30; 6644,706;  351,898;19542,570;32,79097
 486,88; 6560,134;  393,436;19107,604;32,95202
 487,47; 6346,946;  376,898;18360,869;33,19649
 488,05; 6033,895;  358,129;17495,548;33,11914
 488,64; 5637,446;  349,283;16059,475;33,66072
 489,23; 5089,671;  355,591;14183,165;34,23652
 489,81; 4345,425;  354,283;12316,831;33,36364
 490,40; 4099,349;  320,822;11823,952;32,84782
 490,98; 3963,371;  299,745;11561,827;32,53063
 491,57; 3957,794;  322,129;11500,035;32,52546
 492,15; 3933,318;  309,822;11427,977;32,59081
 492,74; 3917,570;  312,667;11319,477;32,75157
 493,32; 3914,013;  325,514;11206,867;32,97842
 493,91; 3846,286;  296,591;11161,517;32,67114
 494,50; 3818,734;  317,207;11123,602;32,40236
 495,08; 3800,222;  292,822;11050,719;32,60302
 495,67; 3803,135;  317,283;11013,507;32,58956
 496,25; 3757,157;  255,130;10847,096;33,06305
 496,84; 3708,940;  280,283;10870,055;32,37706
 497,42; 3701,444;  264,899;10808,134;32,59479
 498,01; 3709,277;  278,206;10786,547;32,65092
 498,59; 3683,672;  246,668;10711,606;32,84304
 499,18; 3665,219;  249,899;10642,047;32,86443
 499,76; 3665,510;  282,437;10534,406;32,99925
 500,35; 3570,937;  272,361;10382,539;32,62629
 500,93; 3567,421;  245,361;10380,776;32,77676
 501,52; 3537,857;  261,284;10274,065;32,72391
 502,10; 3530,838;  270,438;10250,171;32,67021
 502,69; 3480,671;  255,900;10120,749;32,68951
 503,27; 3409,834;  234,207; 9897,576;32,86253
 503,86; 3397,280;  250,669; 9860,824;32,74256
 504,44; 3357,076;  227,438; 9778,525;32,76735
 505,03; 3276,624;  219,361; 9540,802;32,79817
 505,61; 3220,097;  238,515; 9417,662;32,48212
 506,19; 3220,619;  256,054; 9241,075;32,99452
 506,78; 3109,335;  230,362; 9085,577;32,51161
 507,36; 3076,863;  229,361; 8926,057;32,74234
 507,95; 2999,036;  234,900; 8738,415;32,50581
 508,53; 2966,742;  237,516; 8704,375;32,23422
 509,12; 2945,275;  247,054; 8504,879;32,67471
 509,70; 2900,730;  262,439; 8391,822;32,45376
 510,29; 2876,291;  257,670; 8187,741;33,02141
 510,87; 2738,416;  233,131; 8085,205;31,90603
 511,46; 2703,056;  226,131; 7883,685;32,34617
 512,04; 2684,297;  242,285; 7748,083;32,53501
 512,62; 2630,554;  245,054; 7648,102;32,22322
 513,21; 2539,468;  224,208; 7429,407;32,13319
 513,79; 2520,810;  227,824; 7325,385;32,30667
 514,38; 2464,175;  210,747; 7153,170;32,45881
 514,96; 2444,378;  253,824; 7072,624;32,12521
 515,54; 2367,409;  221,670; 6956,391;31,86084
 516,13; 2380,079;  246,824; 6858,308;32,26591
 516,71; 2311,846;  240,901; 6759,824;31,76821
 517,30; 2273,073;  215,132; 6655,856;31,95202
 517,88; 2232,684;  245,978; 6549,899;31,51540
 518,46; 2203,461;  216,825; 6445,769;31,89362
 519,05; 2192,393;  222,517; 6391,915;31,92979
 519,63; 2166,716;  237,056; 6323,787;31,70274
 520,22; 2148,997;  249,979; 6288,022;31,45089
 520,80; 2112,093;  242,287; 6198,368;31,39323
 521,38; 2159,326;  262,748; 6200,291;31,94213
 521,97; 2089,333;  221,595; 6142,052;31,54720
 522,55; 2103,306;  241,133; 6160,067;31,46129
 523,13; 2089,517;  231,441; 6158,127;31,35102
 523,72; 2073,609;  233,517; 6114,658;31,28802
 524,30; 2146,232;  254,210; 6244,255;31,58611
 524,89; 2103,506;  228,672; 6275,014;31,00774
 525,47; 2168,682;  241,826; 6379,471;31,39406
 526,05; 2156,977;  217,210; 6445,512;31,14440
 526,64; 2227,813;  246,672; 6579,212;31,28509
 527,22; 2254,329;  241,133; 6699,623;31,17130
 527,80; 2314,319;  272,749; 6847,730;31,05058
 528,39; 2306,241;  234,364; 6929,961;30,94387
 528,97; 2340,099;  245,057; 7088,668;30,61311
 529,55; 2418,613;  251,749; 7287,682;30,79711
 530,14; 2476,569;  262,288; 7408,121;30,98704
 530,72; 2473,905;  245,518; 7543,700;30,53345
 531,30; 2519,204;  228,134; 7703,083;30,64998
 531,89; 2571,570;  237,903; 7794,836;30,88115
 532,47; 2624,179;  267,442; 7893,471;30,90386
 533,05; 2606,436;  268,595; 7934,621;30,49613
 533,63; 2635,809;  278,595; 7979,036;30,61142
 534,22; 2606,298;  250,365; 7972,022;30,51072
 534,80; 2674,880;  262,442; 8099,771;30,78138
 535,38; 2766,943;  341,672; 8203,953;30,84691
 535,97; 2633,234;  266,903; 8173,981;29,92674
 536,55; 2700,446;  305,211; 8254,394;30,13184
 537,13; 2661,095;  323,441; 8215,447;29,62052
 537,71; 2708,691;  373,903; 8254,101;29,62855
 538,30; 2704,224;  386,826; 8350,242;29,10054
 538,88; 2737,641;  432,134; 8478,329;28,65338
 539,46; 2831,160;  498,826; 8667,939;28,55064
 540,05; 2858,128;  527,519; 8820,864;28,10216
 540,63; 2923,422;  572,519; 8990,574;27,92692
 541,21; 2990,666;  614,673; 9193,347;27,69651
 541,79; 3017,879;  671,058; 9311,562;27,16070
 542,38; 3094,186;  689,519; 9445,133;27,46428
 542,96; 3128,156;  693,058; 9619,609;27,27927
 543,54; 3199,195;  719,596; 9836,509;27,19779
 544,12; 3183,115;  681,058; 9928,388;27,05708
 544,70; 3219,726;  661,365;10039,321;27,28058
 545,29; 3274,231;  673,673;10246,750;27,16533
 545,87; 3259,725;  633,596;10184,716;27,49551
 546,45; 3226,488;  591,365;10217,022;27,37604
 547,03; 3247,768;  572,981;10300,497;27,49712
 547,62; 3241,409;  518,211;10439,230;27,44877
 548,20; 3310,530;  521,442;10550,924;27,80890
 548,78; 3349,739;  485,058;10661,424;28,15033
 549,36; 3352,946;  440,827;10878,890;27,89903
 549,94; 3355,293;  396,904;10967,230;27,98768
 550,53; 3421,210;  394,597;11243,548;27,89775
 551,11; 3472,316;  366,597;11426,754;28,08025
 551,69; 3562,950;  372,443;11750,056;28,04197
 552,27; 3594,791;  335,750;11965,538;28,02322
 552,85; 3713,280;  339,828;12399,722;27,97249
 553,44; 3756,366;  327,827;12632,746;27,86315
 554,02; 3870,101;  348,520;12991,011;27,85512
 554,60; 3952,634;  283,751;13303,900;28,17850
 555,18; 4055,004;  337,674;13660,566;27,90183
 555,76; 4121,726;  296,751;14025,058;27,86196
 556,34; 4213,992;  319,982;14440,574;27,57682
 556,93; 4332,095;  292,827;14817,570;27,80957
 557,51; 4414,816;  272,828;15124,930;27,88823
 558,09; 4540,683;  311,674;15550,738;27,75111
 558,67; 4615,001;  301,982;15980,181;27,50966
 559,25; 4679,143;  313,905;16151,376;27,56272
 559,83; 4755,647;  293,366;16481,564;27,56502
 560,41; 4799,895;  286,058;16862,821;27,22990
 561,00; 4909,788;  297,982;17133,505;27,39331
 561,58; 4944,496;  280,597;17395,894;27,24989
 562,16; 4996,805;  271,904;17779,125;26,98830
 562,74; 5087,821;  263,827;18061,689;27,10434
 563,32; 5184,457;  258,366;18555,839;26,92224
 563,90; 5279,241;  285,982;18895,612;26,83159
 564,48; 5346,260;  285,751;19333,837;26,56702
 565,06; 5510,923;  280,289;19947,851;26,59523
 565,65; 5630,106;  292,059;20622,618;26,25627
 566,23; 5820,277;  322,520;21339,029;26,15923
 566,81; 5981,953;  278,059;22097,728;26,14107
 567,39; 6181,947;  294,136;22907,408;26,03697
 567,97; 6342,104;  308,982;23588,507;25,91600
 568,55; 6592,307;  321,982;24428,159;26,01128
 569,13; 6692,178;  289,366;25136,232;25,76909
 569,71; 6870,230;  276,135;26086,631;25,54811
 570,29; 7172,896;  326,443;27122,260;25,55045
 570,87; 7315,984;  312,058;27695,989;25,57677
 571,45; 7410,313;  314,443;28347,347;25,31265
 572,03; 7481,374;  282,828;28732,112;25,30308
 572,61; 7653,800;  274,520;29528,849;25,22457
 573,20; 7817,504;  299,828;30153,456;25,18178
 573,78; 7955,081;  293,828;30820,809;25,09666
 574,36; 8044,591;  312,213;31253,624;24,99039
 574,94; 8171,955;  364,213;31533,971;25,04909
 575,52; 8079,294;  308,213;31827,474;24,65502
 576,10; 8281,946;  363,367;32450,122;24,67865
 576,68; 8300,116;  358,290;33028,049;24,30941
 577,26; 8490,600;  367,521;33736,551;24,34317
 577,84; 8584,863;  385,059;34142,922;24,29006
 578,42; 8666,016;  422,905;34469,867;24,21100
 579,00; 8633,398;  361,905;34548,932;24,19483
 579,58; 8633,692;  415,982;34727,896;23,95002
 580,16; 8594,338;  384,905;34758,278;23,88312
 580,74; 8629,389;  384,213;34964,545;23,84354
 581,32; 8607,662;  389,059;35108,920;23,67119
 581,90; 8622,601;  427,444;35079,815;23,64963
 582,48; 8580,347;  405,982;35241,094;23,46588
 583,06; 8562,218;  412,982;35258,837;23,38653
 583,64; 8559,936;  409,520;35402,877;23,29132
 584,22; 8554,227;  424,675;35244,258;23,34765
 584,80; 8462,378;  423,982;34992,377;23,25360
 585,38; 8350,756;  435,443;34555,309;23,19855
 585,96; 8292,259;  392,059;34740,574;23,00012
 586,54; 8286,244;  421,829;34710,153;22,93613
 587,12; 8267,730;  387,290;34850,896;22,86598
 587,70; 8322,156;  416,751;35114,610;22,78355
 588,28; 8265,001;  390,290;35095,402;22,69035
 588,86; 8256,645;  391,059;35225,047;22,58021
 589,44; 8252,903;  386,290;35307,462;22,52677
 590,02; 8336,150;  375,059;35498,642;22,66594
 590,59; 8260,429;  368,367;35700,997;22,33647
 591,17; 8335,007;  359,291;35892,185;22,44601
 591,75; 8284,644;  353,983;35999,092;22,24895
 592,33; 8360,008;  364,675;36339,778;22,22463
 592,91; 8312,887;  315,906;36533,304;22,08050
 593,49; 8405,168;  327,598;36828,725;22,12964
 594,07; 8374,738;  342,521;37042,569;21,88612
 594,65; 8337,629;  354,598;37044,483;21,75813
 595,23; 8434,086;  339,367;37404,855;21,83896
 595,81; 8415,966;  345,060;37547,997;21,69427
 596,39; 8426,460;  324,598;37683,478;21,68658
 596,97; 8457,869;  328,598;37855,211;21,66268
 597,55; 8360,740;  325,213;37711,778;21,49309
 598,12; 8316,048;  314,291;37800,790;21,34570
 598,70; 8298,341;  310,214;38006,764;21,19061
 599,28; 8361,676;  331,137;38069,134;21,27972
 599,86; 8315,097;  315,598;38174,991;21,12949
 600,44; 8209,859;  282,906;38262,318;20,87171
 601,02; 8283,331;  340,368;38274,454;20,93886
 601,60; 8276,844;  310,598;38211,478;21,01863
 602,18; 8198,323;  296,983;38197,924;20,84735
 602,75; 8135,916;  294,983;38376,806;20,58970
 603,33; 8138,541;  306,598;38291,535;20,61855
 603,91; 8041,739;  300,445;38330,559;20,35570
 604,49; 8097,238;  326,521;38431,723;20,39280
 605,07; 8038,685;  334,060;38389,059;20,24603
 605,65; 7981,820;  364,983;38516,296;19,96481
 606,23; 7970,921;  413,675;38688,742;19,74457
 606,80; 8024,590;  480,983;38775,483;19,69893
 607,38; 7890,706;  527,522;38761,132;19,25841
 607,96; 7953,237;  578,444;38960,250;19,21429
 608,54; 7924,878;  643,829;38955,049;19,00500
 609,12; 7912,386;  664,521;39056,084;18,87880
 609,70; 7883,409;  711,598;39105,464;18,67957
 610,27; 7856,611;  707,752;39194,796;18,57472
 610,85; 7854,394;  728,060;39233,460;18,50736
 611,43; 7818,179;  725,060;39176,948;18,44674
 612,01; 7730,580;  691,367;38928,974;18,40913
 612,59; 7729,784;  683,675;38959,187;18,40892
 613,16; 7612,169;  643,213;38847,966;18,24107
 613,74; 7604,645;  613,137;38764,905;18,32552
 614,32; 7592,105;  549,214;38724,268;18,44894
 614,90; 7446,600;  499,829;38549,519;18,25710
 615,48; 7365,288;  453,290;38134,209;18,34350
 616,05; 7361,122;  407,290;38243,788;18,37864
 616,63; 7310,034;  421,982;37956,906;18,35105
 617,21; 7270,448;  411,290;37898,211;18,29747
 617,79; 7182,112;  385,213;37770,203;18,18082
 618,36; 7180,051;  404,137;37711,889;18,16222
 618,94; 7004,673;  337,213;37384,847;17,99699
 619,52; 6953,148;  370,367;37017,883;17,96242
 620,10; 6906,509;  356,290;37089,547;17,83185
 620,67; 6834,523;  358,982;36973,199;17,68586
 621,25; 6825,219;  374,137;36797,816;17,71123
 621,83; 6766,913;  358,444;36743,509;17,61291
 622,41; 6781,822;  398,136;36802,043;17,53572
 622,98; 6651,219;  365,675;36487,673;17,40088
 623,56; 6629,010;  363,444;36488,987;17,34387
 624,14; 6583,145;  337,675;36356,652;17,33939
 624,72; 6492,646;  335,675;36237,323;17,14955
 625,29; 6491,114;  327,521;36403,126;17,08521
 625,87; 6494,437;  367,752;36321,989;17,04023
 626,45; 6391,891;  319,674;36112,744;16,96478
 627,02; 6351,094;  316,983;36082,363;16,87138
 627,60; 6262,737;  314,829;36020,701;16,65807
 628,18; 6278,155;  303,752;36171,391;16,65681
 628,76; 6234,039;  305,675;36192,786;16,51948
 629,33; 6250,273;  340,059;36113,721;16,52113
 629,91; 6168,278;  325,598;36022,547;16,36745
 630,49; 6223,308;  328,444;36232,402;16,41842
 631,06; 6159,098;  326,675;36390,638;16,17244
 631,64; 6146,249;  319,059;36324,626;16,18414
 632,22; 6089,825;  274,597;36382,197;16,10527
 632,79; 6127,929;  322,059;36485,337;16,05460
 633,37; 6088,173;  297,675;36621,177;15,94146
 633,95; 6070,904;  288,136;36675,495;15,89224
 634,52; 6066,293;  276,675;36730,705;15,88197
 635,10; 6050,729;  289,367;36741,786;15,80516
 635,68; 6031,834;  286,828;36947,244;15,67087
 636,25; 6025,630;  276,905;36915,262;15,69045
 636,83; 6044,116;  262,213;37121,017;15,68663
 637,41; 6011,638;  274,674;37206,001;15,53414
 637,98; 6050,067;  306,444;37369,365;15,49695
 638,56; 6002,840;  293,213;37423,894;15,37712
 639,13; 5992,445;  268,982;37536,408;15,35782
 639,71; 6064,682;  313,367;37616,102;15,41795
 640,29; 5916,766;  249,290;37483,827;15,22102
 640,86; 5952,665;  263,829;37608,175;15,23346
 641,44; 5893,102;  257,059;37643,369;15,07515
 642,02; 5942,232;  290,675;37552,947;15,16697
 642,59; 5890,900;  267,752;37784,833;14,98824
 643,17; 5867,646;  268,213;37738,797;14,94354
 643,74; 5839,314;  268,521;37719,375;14,87494
 644,32; 5812,213;  289,675;37727,185;14,75135
 644,89; 5808,266;  287,444;37749,917;14,73694
 645,47; 5803,934;  293,136;37742,649;14,71527
 646,05; 5773,141;  283,444;37635,997;14,69698
 646,62; 5676,733;  279,444;37705,499;14,42121
 647,20; 5712,016;  280,829;37790,001;14,47963
 647,77; 5617,762;  255,598;37644,271;14,34168
 648,35; 5581,661;  250,906;37527,465;14,30056
 648,92; 5621,944;  279,367;37684,429;14,28303
 649,50; 5541,613;  250,906;37519,623;14,19611
 650,08; 5500,512;  245,444;37436,201;14,13004
 650,65; 5526,026;  250,059;37720,164;14,08047
 651,23; 5594,925;  235,367;38578,204;13,97799
 651,80; 5709,286;  252,213;39453,014;13,92082
 652,38; 5744,185;  268,521;39722,439;13,87863
 652,95; 5768,930;  226,752;40098,709;13,89994
 653,53; 5794,060;  258,290;40364,211;13,80287
 654,10; 5833,575;  281,444;40538,482;13,79170
 654,68; 5793,704;  244,675;40444,676;13,80356
 655,25; 5747,604;  239,213;40461,716;13,69480
 655,83; 5699,964;  228,136;40508,141;13,58448
 656,40; 5775,940;  271,598;40445,104;13,70142
 656,98; 5730,224;  254,136;40318,683;13,66816
 657,55; 5672,815;  246,829;40238,184;13,56790
 658,13; 5585,022;  248,060;39854,147;13,47511
 658,70; 5559,537;  253,521;39571,803;13,49503
 659,28; 5404,359;  246,060;38705,305;13,41238
 659,85; 5309,719;  262,675;37995,652;13,37569
 660,43; 5261,080;  272,213;38124,539;13,17982
 661,00; 5242,517;  257,675;38183,887;13,14353
 661,58; 5182,032;  241,060;38596,927;12,88192
 662,15; 5199,085;  242,598;38731,659;12,87765
 662,73; 5313,369;  301,983;39005,930;12,94800
 663,30; 5273,575;  253,367;39203,816;12,88870
 663,88; 5216,244;  256,060;39421,702;12,66463
 664,45; 5236,220;  244,367;39620,666;12,67730
 665,03; 5281,503;  254,521;39985,937;12,65241
 665,60; 5445,403;  316,214;40520,746;12,75774
 666,17; 5337,609;  254,598;40428,017;12,65267
 666,75; 5373,508;  242,214;40843,288;12,63832
 667,32; 5409,407;  267,829;41217,482;12,55585
 667,90; 5406,383;  245,598;41383,445;12,54510
 668,47; 5469,129;  271,367;41710,177;12,54322
 669,05; 5476,259;  246,675;41959,987;12,53697
 669,62; 5432,542;  232,675;42068,334;12,42927
 670,19; 5466,826;  233,983;42169,990;12,47816
 670,77; 5439,417;  254,214;42304,492;12,33096
 671,34; 5451,240;  242,829;42208,070;12,41125
 671,92; 5509,216;  232,214;42635,572;12,44477
 672,49; 5510,576;  258,368;42667,920;12,38449
 673,06; 5434,860;  202,444;42635,114;12,33110
 673,64; 5434,913;  231,368;42700,461;12,25255
 674,21; 5430,658;  228,137;42609,886;12,27538
 674,79; 5483,634;  249,060;42890,311;12,27585
 675,36; 5438,995;  255,906;42975,966;12,13268
 675,93; 5402,355;  214,368;42917,237;12,14904
 676,51; 5429,254;  257,060;43025,124;12,09359
 677,08; 5456,538;  251,983;43040,702;12,16338
 677,65; 5426,283;  256,752;43272,204;12,01785
 678,23; 5464,029;  252,675;43462,936;12,06045
 678,80; 5433,851;  246,137;43560,438;11,97691
 679,38; 5459,134;  238,214;43675,940;12,01932
 679,95; 5489,495;  255,983;43972,518;11,97147
 680,52; 5475,548;  243,522;44151,789;11,91581
 681,10; 5541,216;  266,445;44679,675;11,87658
 681,67; 5561,423;  258,752;44925,254;11,87170
 682,24; 5515,553;  222,214;44956,371;11,83288
 682,82; 5599,606;  236,829;45528,796;11,84046
 683,39; 5676,505;  280,214;45801,605;11,85441
 683,96; 5686,250;  252,060;46075,414;11,85900
 684,54; 5677,688;  225,060;46441,070;11,79814
 685,11; 5745,587;  270,675;46745,956;11,78027
 685,68; 5732,717;  238,906;47180,458;11,70351
 686,25; 5716,693;  222,445;47207,498;11,69361
 686,83; 5818,823;  225,829;47329,000;11,87392
 687,40; 5820,645;  224,522;47665,886;11,79587
 687,97; 5932,005;  266,599;48162,003;11,82871
 688,55; 5822,443;  221,214;48141,505;11,68864
 689,12; 5850,265;  205,291;48464,929;11,69709
 689,69; 5877,318;  221,676;48479,431;11,71966
 690,26; 5882,063;  241,676;48570,240;11,67092
 690,84; 5901,578;  231,368;48818,896;11,67009
 691,41; 5933,400;  239,599;48830,320;11,71788
 691,98; 5898,684;  240,752;49118,591;11,57566
 692,56; 5934,737;  229,214;49195,785;11,65187
 693,13; 5967,943;  281,137;49234,749;11,61672
 693,70; 5936,381;  247,522;49411,558;11,57118
 694,27; 5923,972;  224,676;49584,367;11,54646
 694,84; 5929,179;  226,599;49660,792;11,53570
 695,42; 5982,078;  276,291;49738,524;11,53564
 695,99; 6000,516;  240,599;50041,565;11,56587
 696,56; 5964,799;  230,983;49822,989;11,56198
 697,13; 6037,622;  251,522;50241,106;11,57461
 697,71; 5977,751;  224,214;50276,993;11,49494
 698,28; 6070,728;  233,368;50717,956;11,56266
 698,85; 5992,396;  210,676;50624,227;11,46858
 699,42; 6046,526;  210,137;50795,728;11,53765
 699,99; 6082,040;  266,753;50976,999;11,46768
 700,57; 6148,247;  247,906;50926,347;11,64270
 701,14; 6120,146;  226,060;51028,464;11,60198
 701,71; 6134,507;  245,445;51214,043;11,55429
 702,28; 6157,021;  243,445;51274,390;11,58822
 702,85; 6163,997;  254,676;51489,815;11,53373
 703,43; 6202,973;  256,291;51675,163;11,56517
 704,00; 6269,795;  276,907;51821,280;11,62666
 704,57; 6255,156;  255,599;51809,012;11,63756
 705,14; 6263,901;  290,830;52136,437;11,52088
 705,71; 6230,570;  281,599;52095,785;11,48135
 706,28; 6250,699;  260,676;52033,056;11,56992
 706,86; 6320,906;  285,368;52219,096;11,62162
 707,43; 6316,959;  317,060;52161,136;11,57297
 708,00; 6284,243;  284,368;52207,869;11,55522
 708,57; 6256,834;  261,984;52063,293;11,57278
 709,14; 6285,964;  291,830;52260,256;11,53418
 709,71; 6303,940;  259,137;52303,527;11,61471
 710,28; 6317,839;  265,676;52506,952;11,58502
 710,86; 6336,123;  276,137;52649,685;11,57070
 711,43; 6391,945;  282,445;52711,955;11,65279
 712,00; 6367,690;  261,984;52665,534;11,65132
 712,57; 6386,436;  282,214;52900,113;11,60104
 713,14; 6379,335;  260,061;52861,153;11,63336
 713,71; 6345,003;  263,522;52892,808;11,55532
 714,28; 6363,287;  250,599;52935,079;11,60244
 714,85; 6324,109;  243,907;52642,965;11,60365
 715,42; 6386,777;  241,753;52961,775;11,65596
 716,00; 6512,984;  301,061;53003,353;11,78682
 716,57; 6475,652;  241,061;53124,316;11,78935
 717,14; 6446,397;  236,368;53061,972;11,75572
 717,71; 6461,143;  220,138;53154,935;11,78999
 718,28; 6524,426;  271,522;53179,821;11,81838
 718,85; 6482,018;  234,830;53209,631;11,79275
 719,42; 6527,686;  237,522;53375,440;11,83743
 719,99; 6504,816;  220,907;53217,326;11,85723
 720,56; 6559,407;  245,753;53485,367;11,85894
 721,13; 6529,230;  226,830;53548,253;11,81964
 721,70; 6534,052;  214,522;53383,601;11,88572
 722,27; 6592,335;  254,984;53449,179;11,91361
 722,84; 6660,927;  290,368;53625,296;11,94444
 723,41; 6571,518;  219,292;53601,952;11,89942
 723,98; 6642,033;  237,984;53809,223;11,95427
 724,55; 6654,086;  271,753;53838,109;11,91482
 725,12; 6609,369;  194,138;53899,611;11,94521
 725,69; 6685,730;  222,599;53996,343;12,01912
 726,27; 6719,860;  238,676;54020,691;12,05084
 726,84; 6716,990;  237,215;54352,962;11,97392
 727,41; 6770,196;  247,599;54325,310;12,06153
 727,98; 6809,557;  253,522;54627,042;12,05740
 728,55; 6833,841;  270,369;54566,774;12,08823
 729,12; 6845,278;  219,830;54591,199;12,18555
 729,69; 6878,639;  273,292;54819,855;12,10956
 730,26; 6924,307;  249,599;54991,972;12,19295
 730,82; 6875,437;  246,676;54801,858;12,15056
 731,39; 6921,875;  243,445;54894,283;12,22018
 731,96; 6966,081;  232,984;55116,169;12,26805
 732,53; 6992,750;  244,215;55468,824;12,22016
 733,10; 7048,572;  258,984;55492,711;12,29247
 733,67; 7115,394;  244,599;55699,751;12,38982
 734,24; 7036,832;  243,676;55432,099;12,30902
 734,81; 7120,269;  270,369;55555,754;12,39007
 735,38; 7093,399;  249,599;55315,256;12,42844
 735,95; 7087,529;  240,676;55056,219;12,49071
 736,52; 7101,659;  263,676;55354,336;12,41224
 737,09; 7101,789;  261,599;54997,838;12,49664
 737,66; 7176,226;  299,369;55233,109;12,51846
 738,23; 7193,202;  250,215;55200,072;12,63513
 738,80; 7282,717;  305,599;55528,573;12,63445
 739,37; 7284,000;  286,523;55690,383;12,62995
 739,94; 7282,130;  251,830;55706,423;12,67758
 740,51; 7382,799;  352,753;55704,078;12,70077
 741,07; 7298,313;  256,292;55709,349;12,69907
 741,64; 7368,443;  285,215;55927,697;12,72989
 742,21; 7389,111;  260,753;55903,353;12,81097
 742,78; 7332,395;  224,523;55704,931;12,81150
 743,35; 7377,371;  256,446;56020,510;12,76974
 743,92; 7436,655;  292,984;56187,781;12,78056
 744,49; 7479,708;  282,984;56069,821;12,90040
 745,06; 7422,068;  246,984;56056,707;12,85633
 745,63; 7433,352;  240,984;56037,055;12,89046
 746,19; 7461,559;  236,753;56016,326;12,95242
 746,76; 7469,612;  263,677;56017,520;12,92455
 747,33; 7527,741;  245,907;56044,021;13,05032
 747,90; 7611,333;  276,446;56258,908;13,10212
 748,47; 7613,463;  260,292;56098,563;13,16869
 749,04; 7599,285;  267,369;56140,065;13,12254
 749,61; 7637,569;  277,446;56087,874;13,18772
 750,17; 7666,545;  273,677;56126,453;13,23635
 750,74; 7703,905;  266,754;56050,339;13,33215
 751,31; 7657,343;  242,677;56038,379;13,28896
 751,88; 7665,627;  237,215;55875,804;13,35119
 752,45; 7722,064;  254,292;55955,306;13,40689
 753,02; 7744,963;  267,523;55796,423;13,46585
 753,58; 7701,555;  245,523;55712,924;13,44219
 754,15; 7761,607;  249,600;55850,580;13,51057
 754,72; 7759,045;  253,907;55587,620;13,56341
 755,29; 7776,559;  225,215;55477,429;13,66704
 755,86; 7799,612;  243,600;55599,392;13,64990
 756,42; 7833,204;  254,446;55484,202;13,72224
 756,99; 7818,872;  215,600;55437,396;13,76861
 757,56; 7816,156;  226,908;55457,897;13,74092
 758,13; 7811,132;  191,446;55448,784;13,78946
 758,70; 7893,416;  208,754;55384,285;13,92766
 759,26; 7881,776;  206,600;55497,633;13,88141
 759,83; 7934,983;  215,138;55651,904;13,92550
 760,40; 7960,113;  207,292;55360,559;14,05687
 760,97; 7937,166;  192,677;55437,446;14,01850
 761,53; 7979,834;  189,677;54953,794;14,22493
 762,10; 7991,041;  179,523;55044,218;14,23779
 762,67; 8024,402;  222,215;55154,181;14,20336
 763,24; 7932,608;  166,523;54675,760;14,24728
 763,80; 8017,815;  201,754;54842,877;14,30436
 764,37; 7986,099;  204,061;54755,379;14,26554
 764,94; 7961,998;  199,600;54295,573;14,34931
 765,50; 7944,435;  197,369;54383,382;14,29717
 766,07; 8023,719;  246,215;54367,653;14,37047
 766,64; 8006,618;  210,138;54001,770;14,49385
 767,21; 7972,748;  223,831;53891,656;14,43866
 767,77; 7997,416;  239,754;53840,927;14,47293
 768,34; 8019,239;  242,215;53776,737;14,52712
 768,91; 8065,599;  242,292;53575,084;14,66885
 769,47; 8031,806;  247,215;53579,817;14,59631
 770,04; 8072,397;  232,600;53440,011;14,73441
 770,61; 8005,066;  225,215;53255,435;14,67060
 771,18; 7995,734;  208,446;53085,091;14,72727
 771,74; 8087,172;  235,292;53323,285;14,79031
 772,31; 8044,686;  230,215;53058,940;14,79209
 772,88; 8000,816;  214,446;52707,750;14,83307
 773,44; 7983,407;  218,446;52618,482;14,81862
 774,01; 8084,768;  234,446;52727,599;14,95494
 774,58; 8059,821;  223,216;52399,947;15,01935
 775,14; 8074,951;  211,600;52576,064;15,01658
 775,71; 8085,773;  215,985;52494,797;15,05349
 776,27; 8126,595;  268,600;52398,067;15,07400
 776,84; 8237,879;  295,139;52499,492;15,21471
 777,41; 8143,316;  235,139;52180,071;15,22416
 777,97; 8130,138;  231,985;51969,342;15,26586
 778,54; 8171,653;  238,369;51924,766;15,34888
 779,11; 8239,167;  260,293;51930,191;15,44202
 779,67; 8168,143;  214,677;51953,308;15,37239
 780,24; 8174,196;  238,523;51668,887;15,42994
 780,80; 8231,634;  249,523;51699,773;15,51423
 781,37; 8222,533;  243,293;51610,659;15,53368
 781,94; 8192,124;  234,908;51420,238;15,54589
 782,50; 8227,562;  240,293;51404,739;15,61098
 783,07; 8260,692;  254,677;51467,472;15,63284
 783,63; 8223,822;  221,908;51216,358;15,69173
 784,20; 8293,798;  253,523;51172,475;15,79034
 784,77; 8217,004;  231,062;50910,054;15,75790
 785,33; 8180,365;  212,985;50735,940;15,76982
 785,90; 8238,495;  234,600;50656,749;15,87377
 786,46; 8216,856;  250,446;50620,020;15,81592
 787,03; 8228,447;  221,446;50350,599;15,97274
 787,59; 8259,808;  236,600;50371,947;16,00310
 788,16; 8219,784;  240,985;50292,141;15,94129
 788,73; 8253,452;  244,062;50144,565;16,05072
 789,29; 8230,274;  228,677;49801,529;16,14109
 789,86; 8283,865;  253,677;49716,876;16,23467
 790,42; 8238,688;  235,908;49448,378;16,26169
 790,99; 8212,664;  250,831;49178,649;16,27261
 791,55; 8206,178;  224,447;49200,535;16,29720
 792,12; 8268,539;  259,216;49231,883;16,35468
 792,68; 8197,592;  242,216;48849,846;16,36652
 793,25; 8233,106;  241,293;48615,886;16,52068
 793,81; 8261,851;  295,600;48344,542;16,57945
 794,38; 8104,212;  207,370;48147,736;16,47222
 794,94; 8169,650;  218,985;47935,007;16,66246
 795,51; 8172,549;  247,447;47653,431;16,71751
 796,07; 8193,217;  240,139;47466,087;16,84048
 796,64; 8223,962;  244,216;47469,204;16,89730
 797,20; 8162,861;  241,677;47105,552;16,90254
 797,77; 8073,607;  215,908;46680,823;16,91104
 798,33; 8092,121;  226,370;46547,632;16,98087
 798,90; 8156,866;  256,524;46521,903;17,07614
 799,46; 8041,304;  225,601;45897,789;17,11261
 800,03; 8042,126;  238,831;45879,368;17,09729
 800,59; 8054,871;  250,601;45703,177;17,17014
 801,15; 8079,924;  252,985;45521,910;17,28987
 801,72; 7992,823;  240,293;45155,334;17,26043
 802,28; 8022,645;  265,370;44877,221;17,38837
 802,85; 7962,621;  236,524;44621,338;17,40707
 803,41; 7999,521;  237,447;44556,762;17,51397
 803,98; 7896,881;  235,293;44047,418;17,48737
 804,54; 7930,165;  233,524;43920,766;17,61759
 805,11; 7963,141;  241,139;43638,113;17,79387
 805,67; 7934,271;  261,216;43593,461;17,70749
 806,23; 7885,631;  241,216;43168,732;17,80773
 806,80; 7887,761;  247,985;43040,695;17,85298
 807,36; 7892,814;  257,447;43046,812;17,84408
 807,93; 7868,867;  278,985;42722,237;17,88242
 808,49; 7871,228;  222,216;42402,585;18,13406
 809,05; 7821,511;  207,601;42154,087;18,15149
 809,62; 7858,026;  251,524;42141,511;18,15828
 810,18; 7814,925;  246,755;42042,551;18,10749
 810,74; 7749,824;  216,985;41760,822;18,13227
 811,31; 7789,415;  210,601;41524,709;18,34437
 811,87; 7813,622;  234,524;41277,903;18,46607
 812,44; 7783,521;  254,524;41479,250;18,26330
 813,00; 7736,036;  192,293;41034,598;18,47041
 813,56; 7823,320;  243,139;41162,484;18,52469
 814,13; 7789,296;  233,985;41008,448;18,52951
 814,69; 7777,195;  236,062;40900,949;18,54458
 815,25; 7668,171;  207,139;40381,066;18,57182
 815,82; 7719,916;  240,755;40351,491;18,64628
 816,38; 7727,969;  268,601;40127,762;18,71431
 816,94; 7601,022;  215,062;39958,802;18,58396
 817,51; 7572,844;  212,524;39646,535;18,66490
 818,07; 7543,897;  218,909;39392,882;18,69861
 818,63; 7593,257;  231,755;39210,307;18,88603
 819,20; 7624,310;  227,524;39112,270;19,02233
 819,76; 7548,286;  214,909;38788,849;19,01122
 820,32; 7584,109;  256,139;38646,966;19,08781
 820,89; 7514,546;  247,370;38460,391;19,01754
 821,45; 7486,445;  214,986;38189,431;19,14830
 822,01; 7499,729;  233,216;37871,086;19,30639
 822,57; 7482,474;  241,063;37855,280;19,25179
 823,14; 7413,143;  211,293;37486,167;19,32092
 823,70; 7400,734;  219,293;37306,745;19,36353
 824,26; 7395,787;  214,139;37121,939;19,45835
 824,82; 7357,301;  236,524;37027,441;19,35472
 825,39; 7337,816;  214,370;36749,481;19,49753
 825,95; 7379,407;  244,063;36730,752;19,55602
 826,51; 7302,152;  232,755;36361,330;19,56733
 827,08; 7381,282;  261,986;36483,217;19,65504
 827,64; 7357,335;  243,140;36268,334;19,74783
 828,20; 7303,004;  212,370;35898,143;19,86964
 828,76; 7347,980;  253,986;35886,029;19,90903
 829,32; 7366,571;  257,370;35756,454;20,02643
 829,89; 7277,624;  214,293;35706,186;19,90125
 830,45; 7349,292;  239,140;35627,303;20,09189
 831,01; 7333,807;  225,370;35479,190;20,16359
 831,57; 7307,398;  229,986;35345,230;20,15481
 832,14; 7313,143;  211,140;35348,655;20,21203
 832,70; 7268,119;  210,447;35060,695;20,25143
 833,26; 7281,095;  206,678;34902,889;20,38960
 833,82; 7300,610;  235,063;34895,467;20,38507
 834,38; 7334,740;  209,909;34862,200;20,56092
 834,95; 7279,408;  208,063;34716,471;20,49166
 835,51; 7254,384;  186,217;34589,818;20,54485
 836,07; 7303,668;  221,370;34684,397;20,55042
 836,63; 7288,951;  247,909;34621,206;20,48405
 837,19; 7318,004;  234,524;34434,862;20,71173
 837,75; 7262,211;  190,217;34086,287;20,86376
 838,32; 7274,033;  249,371;34296,327;20,63228
 838,88; 7323,625;  242,447;34342,905;20,76564
 839,44; 7309,678;  229,217;34228,561;20,82529
 840,00; 7322,346;  220,217;34125,293;20,94710
 840,56; 7274,860;  212,294;33756,487;21,05451
 841,12; 7294,760;  207,601;33786,296;21,10612
 841,68; 7264,889;  198,140;33638,490;21,13240
 842,25; 7291,250;  209,371;33518,838;21,26086
 842,81; 7312,918;  211,678;33322,032;21,44719
 843,37; 7289,356;  207,601;33416,226;21,32505
 843,93; 7307,178;  215,140;33342,497;21,40840
 844,49; 7364,385;  230,678;33339,999;21,54592
 845,05; 7195,669;  189,140;33131,347;21,26915
 845,61; 7343,721;  237,524;33205,002;21,55517
 846,17; 7334,159;  208,294;33015,658;21,72032
 846,73; 7291,212;  217,217;33016,775;21,56735
 847,29; 7326,803;  200,525;32860,661;21,81950
 847,86; 7299,549;  207,217;32722,009;21,81263
 848,42; 7312,755;  196,140;32543,203;22,00081
 848,98; 7331,731;  216,678;32561,858;21,99726
 849,54; 7279,861;  199,755;32552,283;21,88424
 850,10; 7289,299;  224,755;32341,708;21,99631
 850,66; 7310,967;  201,063;32299,517;22,15030
 851,22; 7255,712;  193,832;32128,403;22,11359
 851,78; 7317,304;  247,832;32229,674;22,10464
 852,34; 7272,511;  222,755;31870,637;22,27560
 852,90; 7223,487;  213,602;31847,831;22,15918
 853,46; 7177,847;  204,294;31624,410;22,19455
 854,02; 7233,977;  213,678;31638,450;22,34001
 854,58; 7204,799;  204,678;31429,105;22,41873
 855,14; 7192,775;  201,986;31338,761;22,45187
 855,70; 7162,367;  176,755;31218,416;22,50399
 856,26; 7227,266;  235,371;31233,534;22,55584
 856,82; 7177,319;  203,371;30950,574;22,68157
 857,38; 7215,448;  242,217;30908,614;22,73900
 857,94; 7162,809;  209,986;30828,577;22,70785
 858,50; 7132,247;  226,294;30618,617;22,72269
 859,06; 7118,992;  202,448;30493,426;22,83368
 859,62; 7106,891;  218,602;30468,390;22,77136
 860,18; 7086,482;  212,986;30324,584;22,82674
 860,74; 7074,228;  181,909;30105,547;23,03302
 861,30; 7022,588;  194,217;29888,125;22,99587
 861,86; 7167,257;  241,679;30023,935;23,25404
 862,42; 7008,310;  212,679;29767,821;22,99306
 862,98; 7113,516;  233,679;29734,476;23,32085
 863,54; 7050,954;  222,756;29541,209;23,28976
 864,10; 7104,545;  220,525;29542,249;23,47754
 864,66; 7048,444;  201,140;29320,905;23,51428
 865,22; 7041,805;  212,602;29224,714;23,53915
 865,78; 7004,935;  228,217;29105,677;23,46715
 866,34; 7032,834;  205,140;29035,333;23,68244
 866,90; 7034,425;  218,679;28876,911;23,78286
 867,45; 6999,786;  216,525;28690,105;23,82300
 868,01; 6983,147;  223,756;28554,145;23,85915
 868,57; 6956,046;  204,910;28341,955;23,99376
 869,13; 6946,176;  194,525;28286,995;24,03367
 869,69; 6961,075;  204,294;28199,343;24,13563
 870,25; 6935,435;  197,602;28030,152;24,20847
 870,81; 6983,488;  210,525;27974,346;24,39492
 871,37; 6979,387;  215,679;27896,617;24,43453
 871,93; 6921,517;  229,910;27765,580;24,30160
 872,49; 6896,032;  239,987;27545,697;24,37602
 873,04; 6840,161;  197,833;27359,506;24,45478
 873,60; 6832,214;  200,602;27265,546;24,50259
 874,16; 6810,883;  224,910;27204,048;24,41135
 874,72; 6817,729;  203,910;27066,048;24,62134
 875,28; 6790,421;  218,910;27009,971;24,52875
 875,84; 6749,806;  216,833;26925,510;24,46011
 876,40; 6773,575;  209,756;26853,587;24,63542
 876,95; 6787,498;  219,833;26916,356;24,60120
 877,51; 6817,267;  234,833;26936,817;24,65148
 878,07; 6828,960;  242,833;26841,817;24,76082
 878,63; 6802,344;  211,910;26853,587;24,73731
 879,19; 6841,960;  230,448;26860,279;24,82746
 879,75; 6828,652;  209,910;26893,740;24,80432
 880,30; 6860,729;  209,756;26889,971;24,92848
 880,86; 6986,652;  243,833;27000,202;25,20080
 881,42; 6928,344;  192,525;27050,202;25,07968
 881,98; 6987,421;  226,756;27168,048;25,09406
 882,54; 6989,806;  211,525;27217,663;25,09904
 883,09; 7062,652;  227,756;27339,279;25,21030
 883,65; 7042,267;  197,602;27335,202;25,22207
 884,21; 7148,037;  238,987;27546,587;25,30083
 884,77; 7148,344;  211,217;27684,202;25,25072
 885,32; 7193,960;  213,756;27806,202;25,29752
 885,88; 7307,575;  241,679;27903,587;25,54378
 886,44; 7319,575;  225,140;27971,202;25,56916
 887,00; 7345,421;  228,140;27985,048;25,64148
 887,56; 7356,267;  213,910;28107,048;25,60615
 888,11; 7399,960;  212,602;28153,740;25,72321
 888,67; 7416,113;  250,371;28319,202;25,52918
 889,23; 7487,190;  220,987;28304,202;25,87383
 889,79; 7447,421;  195,294;28167,279;25,92639
 890,34; 7425,652;  221,448;28126,510;25,81684
 890,90; 7525,267;  274,448;28239,510;25,92814
 891,46; 7452,652;  206,756;28133,894;25,94572
 892,01; 7474,421;  235,910;28142,202;25,93864
 892,57; 7491,113;  242,525;28027,433;26,08822
 893,13; 7364,806;  214,371;27874,510;25,85104
 893,69; 7419,960;  206,679;27834,433;26,10882
 894,24; 7434,652;  209,833;27745,433;26,23810
 894,80; 7394,190;  209,756;27656,048;26,17634
 895,36; 7344,883;  214,679;27516,279;26,11643
 895,91; 7332,037;  217,833;27286,202;26,28235
 896,47; 7322,344;  232,140;27175,510;26,31521
 897,03; 7241,190;  213,679;26974,740;26,26021
 897,58; 7232,267;  228,679;26837,587;26,32047
 898,14; 7235,498;  227,679;26705,740;26,46651
 898,70; 7197,498;  196,140;26521,433;26,59556
 899,25; 7249,575;  210,294;26541,740;26,73336
 899,81; 7183,883;  217,371;26378,202;26,62955
 900,37; 7074,652;  187,525;26079,894;26,59906
 900,92; 7159,113;  213,525;26093,048;26,83816
 901,48; 7135,960;  209,602;26053,279;26,80098
 902,03; 7117,421;  210,140;25818,740;26,97250
 902,59; 7085,190;  213,602;25710,510;26,95067
 903,15; 7113,883;  228,140;25576,202;27,16477
 903,70; 6977,652;  220,602;25382,587;26,85420
 904,26; 6945,190;  197,756;25265,356;26,91696
 904,82; 6997,806;  209,371;25302,202;27,05328
 905,37; 6962,729;  222,140;25079,510;27,11706
 905,93; 6894,883;  211,448;24944,971;27,02177
 906,48; 6922,729;  218,140;24824,279;27,24763
 907,04; 6892,267;  226,833;24824,740;27,09757
 907,60; 6839,037;  205,448;24573,356;27,22264
 908,15; 6828,575;  193,294;24495,202;27,30354
 908,71; 6825,498;  234,140;24481,587;27,18372
 909,26; 6804,113;  212,602;24315,048;27,34789
 909,82; 6766,037;  227,217;24178,433;27,30057
 910,37; 6794,037;  248,217;24143,433;27,39385
 910,93; 6698,575;  211,140;23932,356;27,34866
 911,48; 6701,267;  195,987;23748,740;27,62004
 912,04; 6658,037;  204,371;23688,894;27,48050
 912,60; 6690,806;  218,063;23709,663;27,55343
 913,15; 6641,190;  212,217;23494,202;27,61351
 913,71; 6555,267;  200,602;23282,587;27,53084
 914,26; 6549,344;  192,525;23220,817;27,60439
 914,82; 6543,883;  218,602;23132,510;27,60455
 915,37; 6576,190;  197,217;23068,587;27,89065
 915,93; 6588,344;  254,371;23015,663;27,82783
 916,48; 6539,190;  202,217;22835,894;27,99798
 917,04; 6519,267;  227,910;22721,510;27,96955
 917,59; 6568,575;  232,525;22648,433;28,26586
 918,15; 6442,729;  183,910;22479,740;28,07170
 918,70; 6485,190;  201,294;22344,510;28,37843
 919,26; 6450,729;  216,756;22277,663;28,25801
 919,81; 6407,190;  195,448;22119,125;28,33349
 920,37; 6423,498;  191,063;21986,587;28,59502
 920,92; 6409,190;  227,987;22000,202;28,39033
 921,48; 6323,037;  192,294;21781,971;28,39664
 922,03; 6388,344;  203,063;21755,202;28,69915
 922,59; 6298,344;  198,910;21551,356;28,56551
 923,14; 6326,421;  200,294;21536,971;28,71172
 923,69; 6319,190;  228,987;21373,510;28,80275
 924,25; 6333,344;  231,294;21373,279;28,86224
 924,80; 6259,729;  210,833;21137,125;28,90572
 925,36; 6231,575;  205,371;21097,433;28,84447
 925,91; 6174,883;  207,987;20935,202;28,78774
 926,47; 6165,113;  187,910;20840,663;28,94144
 927,02; 6223,729;  253,063;20835,817;29,00810
 927,57; 6083,806;  199,602;20660,740;28,75795
 928,13; 6122,344;  186,371;20612,663;29,06045
 928,68; 6098,344;  202,448;20522,587;29,01504
 929,24; 6076,575;  168,448;20419,663;29,17418
 929,79; 6052,037;  192,987;20219,971;29,25578
 930,34; 6048,421;  203,910;20070,894;29,41821
 930,90; 6066,037;  199,140;20103,587;29,47530
 931,45; 6067,960;  208,448;20063,971;29,51074
 932,01; 6045,960;  207,294;19824,894;29,76238
 932,56; 6032,113;  221,987;19795,894;29,68302
 933,11; 6011,344;  226,833;19744,663;29,63706
 933,67; 5970,421;  195,833;19569,740;29,80601
 934,22; 6015,729;  203,294;19479,663;30,15316
 934,77; 5953,113;  232,217;19436,202;29,79015
 935,33; 5916,267;  214,525;19295,279;29,88216
 935,88; 5903,267;  217,063;19181,510;29,98350
 936,43; 5871,575;  193,371;19164,663;29,93051
 936,99; 5874,652;  211,063;19027,510;30,09914
 937,54; 5794,806;  184,140;18841,894;30,07149
 938,09; 5843,190;  208,602;18791,740;30,32097
 938,65; 5861,344;  209,294;18645,817;30,65681
 939,20; 5751,498;  183,294;18601,740;30,23167
 939,75; 5715,806;  189,525;18505,356;30,17215
 940,31; 5714,575;  185,448;18393,971;30,36560
 940,86; 5735,037;  209,756;18389,048;30,39327
 941,41; 5754,729;  261,063;18269,817;30,50553
 941,96; 5653,344;  201,910;18149,433;30,37430
 942,52; 5639,421;  202,294;18048,125;30,46721
 943,07; 5635,267;  182,910;17949,125;30,68947
 943,62; 5582,037;  199,525;17862,740;30,47300
 944,18; 5553,037;  198,987;17755,663;30,49581
 944,73; 5564,806;  209,371;17721,510;30,58127
 945,28; 5503,960;  172,910;17468,510;30,82316
 945,83; 5544,883;  192,910;17503,740;30,91690
 946,39; 5496,960;  190,910;17489,740;30,67288
 946,94; 5544,190;  218,063;17365,510;31,06076
 947,49; 5488,575;  202,756;17228,740;31,04560
 948,04; 5553,960;  222,756;17257,663;31,29576
 948,59; 5482,421;  224,448;17127,510;31,10663
 949,15; 5450,498;  181,987;17016,356;31,29616
 949,70; 5424,729;  203,602;16957,587;31,16349
 950,25; 5401,883;  216,063;16872,894;31,13329
 950,80; 5358,344;  170,140;16704,125;31,37903
 951,36; 5354,190;  166,602;16642,279;31,48634
 951,91; 5403,190;  215,756;16653,279;31,55849
 952,46; 5300,883;  188,217;16474,125;31,39319
 953,01; 5337,190;  211,756;16479,279;31,50716
 953,56; 5257,037;  182,217;16339,663;31,40855
 954,11; 5311,190;  208,217;16342,971;31,62721
 954,67; 5280,960;  186,602;16240,433;31,73297
 955,22; 5188,344;  165,140;16065,125;31,59251
 955,77; 5235,267;  227,371;16076,510;31,59728
 956,32; 5227,421;  233,525;15970,125;31,73428
 956,87; 5160,113;  188,217;15816,356;31,81375
 957,42; 5166,190;  199,448;15744,202;31,95124
 957,98; 5145,806;  195,525;15677,125;31,97525
 958,53; 5138,421;  216,679;15685,894;31,81637
 959,08; 5065,267;  190,756;15538,048;31,76138
 959,63; 5046,883;  185,140;15422,356;31,90703
 960,18; 5066,806;  204,063;15400,817;31,99856
 960,73; 5018,498;  202,756;15353,048;31,78646
 961,28; 5017,575;  188,371;15228,510;32,10877
 961,83; 5009,037;  205,525;15224,510;31,98293
 962,39; 4980,652;  184,602;15026,894;32,31340
 962,94; 4998,729;  217,756;14998,510;32,34594
 963,49; 4948,498;  202,756;14846,048;32,40898
 964,04; 4956,037;  212,063;14804,971;32,50876
 964,59; 4856,498;  170,140;14735,356;32,17500
 965,14; 4933,421;  214,140;14637,740;32,71916
 965,69; 4892,267;  204,525;14532,356;32,71774
 966,24; 4825,498;  189,910;14443,894;32,52135
 966,79; 4837,113;  215,217;14397,125;32,59009
 967,34; 4799,421;  169,448;14195,587;33,00961
 967,89; 4836,190;  195,679;14179,048;33,18593
 968,44; 4799,344;  205,294;14128,740;32,99506
 968,99; 4831,883;  210,679;14066,740;33,35150
 969,55; 4801,806;  202,910;13953,817;33,44431
 970,10; 4767,113;  205,756;13867,587;33,38760
 970,65; 4747,806;  216,217;13742,587;33,50188
 971,20; 4729,344;  194,140;13683,510;33,62058
 971,75; 4642,113;  175,833;13469,356;33,59742
 972,30; 4670,498;  200,525;13451,663;33,73275
 972,85; 4651,037;  191,756;13365,125;33,85072
 973,40; 4544,037;  191,756;13249,663;33,33061
 973,95; 4600,960;  202,140;13220,740;33,78873
 974,50; 4612,883;  223,448;13146,894;33,96489
 975,05; 4554,960;  201,756;13000,279;34,01333
 975,60; 4556,498;  215,140;12978,894;34,01317
 976,15; 4514,575;  191,833;12840,663;34,17503
 976,70; 4512,806;  203,063;12794,356;34,22796
 977,25; 4532,729;  212,833;12717,817;34,54539
 977,80; 4475,113;  194,679;12616,433;34,45918
 978,35; 4428,652;  218,448;12468,048;34,37013
 978,89; 4454,267;  186,679;12345,510;35,09867
 979,44; 4364,806;  197,756;12355,971;34,27353
 979,99; 4338,037;  186,910;12160,510;34,66900
 980,54; 4347,113;  227,987;12152,356;34,54377
 981,09; 4347,190;  219,140;12073,433;34,82325
 981,64; 4284,037;  206,833;11907,663;34,84542
 982,19; 4292,037;  235,910;11902,510;34,76700
 982,74; 4196,652;  214,987;11733,971;34,56611
 983,29; 4202,729;  191,756;11599,356;35,16053
 983,84; 4166,344;  209,525;11474,202;35,12590
 984,39; 4271,421;  262,833;11432,587;35,88789
 984,94; 4053,806;  178,294;11322,971;34,77455
 985,49; 4103,575;  231,679;11240,587;35,17058
 986,03; 4072,421;  225,217;11184,587;35,10425
 986,58; 4072,113;  245,448;11041,740;35,44426
 987,13; 3993,190;  207,910;10894,587;35,42056
 987,68; 3946,267;  222,140;10822,125;35,13332
 988,23; 3969,806;  221,063;10802,048;35,42905
 988,78; 3909,960;  193,063;10655,433;35,52633
 989,33; 3910,037;  216,833;10548,125;35,74774
 989,88; 3881,113;  224,756;10489,740;35,61971
 990,42; 3821,652;  210,679;10372,433;35,53494
 990,97; 3788,267;  210,833;10237,356;35,67971
 991,52; 3810,575;  229,140;10154,125;36,08504
 992,07; 3785,344;  237,910;10121,663;35,89157
 992,62; 3720,960;  222,448; 9972,356;35,88251
 993,17; 3695,575;  221,448; 9894,663;35,91491
 993,71; 3674,113;  222,756; 9765,433;36,16760
 994,26; 3587,652;  201,371; 9678,125;35,73250
 994,81; 3575,883;  221,140; 9602,510;35,75962
 995,36; 3534,190;  204,371; 9478,894;35,90286
 995,91; 3551,498;  217,679; 9431,356;36,18337
 996,45; 3500,883;  205,140; 9270,279;36,35623
 997,00; 3480,883;  189,987; 9123,740;36,83666
 997,55; 3470,729;  216,987; 9109,587;36,58932
 998,10; 3442,806;  242,756; 8988,433;36,59008
 998,65; 3413,960;  204,140; 8947,356;36,71211
 999,19; 3389,729;  221,371; 8811,663;36,88300
 999,74; 3349,498;  236,987; 8739,510;36,60692
1000,29; 3333,652;  226,294; 8655,202;36,86548
1000,84; 3261,652;  201,679; 8495,894;36,89286
1001,38; 3235,113;  213,217; 8413,971;36,84900
1001,93; 3230,037;  229,910; 8355,356;36,92261
1002,48; 3154,575;  204,448; 8209,125;36,85504
1003,03; 3214,190;  223,910; 8186,894;37,55226
1003,57; 3136,806;  227,833; 8108,663;36,91201
1004,12; 3144,267;  256,371; 7949,048;37,54085
1004,67; 3052,190;  210,602; 7886,356;37,02032
1005,22; 3007,575;  205,448; 7729,125;37,24412
1005,76; 2981,190;  197,833; 7624,356;37,47861
1006,31; 2988,037;  228,217; 7583,894;37,51958
1006,86; 2927,806;  215,140; 7489,663;37,28994
1007,40; 2882,960;  202,602; 7323,587;37,64027
1007,95; 2873,190;  223,910; 7254,587;37,68173
1008,50; 2841,729;  215,910; 7108,048;38,09876
1009,04; 2819,575;  211,987; 7077,894;37,97879
1009,59; 2766,421;  215,525; 6945,279;37,90475
1010,14; 2708,498;  191,063; 6864,587;37,72272
1010,68; 2673,498;  202,217; 6776,971;37,58743
1011,23; 2654,960;  211,987; 6622,356;38,10971
1011,78; 2655,575;  223,525; 6594,279;38,17523
1012,32; 2628,113;  225,910; 6476,740;38,43015
1012,87; 2613,421;  240,063; 6461,279;38,14942
1013,42; 2526,498;  198,602; 6310,740;38,08644
1013,96; 2577,575;  235,063; 6342,587;38,35453
1014,51; 2500,267;  176,679; 6239,510;38,32514
1015,06; 2510,575;  194,294; 6241,663;38,30229
1015,60; 2575,037;  250,756; 6316,817;38,31614
1016,15; 2558,729;  204,140; 6243,894;38,98484
1016,69; 2578,267;  205,371; 6311,587;38,86034
1017,24; 2548,575;  193,371; 6283,202;38,67437
1017,79; 2601,190;  236,756; 6368,663;38,55953
1018,33; 2595,037;  201,063; 6299,663;39,25447
1018,88; 2610,190;  222,679; 6390,048;38,71199
1019,42; 2594,652;  206,987; 6383,202;38,65904
1019,97; 2598,960;  202,525; 6343,279;39,02509
1020,51; 2676,652;  224,679; 6435,125;39,48143
1021,06; 2620,113;  196,679; 6409,048;39,00983
1021,61; 2623,652;  177,525; 6367,587;39,51700
1022,15; 2579,344;  168,140; 6285,279;39,41719
1022,70; 2580,652;  201,987; 6293,663;39,04779
1023,24; 2559,421;  194,217; 6266,125;38,95322
1023,79; 2563,037;  207,602; 6194,279;39,34461
1024,33; 2545,190;  189,140; 6167,740;39,40806
1024,88; 2523,344;  221,371; 6046,740;39,51635
1025,42; 2510,267;  211,140; 5985,356;39,81713
1025,97; 2458,498;  199,833; 5905,663;39,58522
1026,51; 2382,498;  176,063; 5792,817;39,28309
1027,06; 2397,421;  192,217; 5716,433;39,91886
1027,60; 2373,575;  216,217; 5660,356;39,62716
1028,15; 2369,190;  214,910; 5538,048;40,47012
1028,69; 2288,113;  173,602; 5427,894;40,24351
1029,24; 2279,344;  187,294; 5382,663;40,26759
1029,78; 2233,344;  189,910; 5295,048;40,02702
1030,33; 2193,037;  178,679; 5186,817;40,22169
1030,87; 2198,806;  195,679; 5110,356;40,75806
1031,42; 2139,421;  175,833; 5040,510;40,36421
1031,96; 2175,421;  207,525; 4971,587;41,30711
1032,51; 2100,267;  184,833; 4889,202;40,71608
1033,05; 2108,498;  204,679; 4859,971;40,89580
1033,60; 2036,344;  165,525; 4725,971;41,02272
1034,14; 2041,883;  191,679; 4665,971;41,35188
1034,69; 2020,960;  202,140; 4596,433;41,39049
1035,23; 2002,652;  195,987; 4562,356;41,37683
1035,77; 1969,960;  190,448; 4520,048;41,10106
1036,32; 1945,575;  169,525; 4409,433;41,88888
1036,86; 1928,498;  201,679; 4379,817;41,32987
1037,41; 1909,498;  205,756; 4278,279;41,83506
1037,95; 1856,652;  181,679; 4218,971;41,48754
1038,50; 1854,344;  187,217; 4162,510;41,93722
1039,04; 1870,037;  213,910; 4120,587;42,39222
1039,58; 1782,575;  186,140; 4047,740;41,34127
1040,13; 1784,344;  197,525; 3989,048;41,85176
1040,67; 1804,344;  229,448; 3970,817;42,09411
1041,21; 1775,267;  213,140; 3912,740;42,22421
1041,76; 1697,190;  179,679; 3816,356;41,72797
1042,30; 1718,113;  204,063; 3788,125;42,24397
1042,85; 1692,190;  200,448; 3725,971;42,31265
1043,39; 1663,421;  166,910; 3647,125;43,00054
1043,93; 1661,883;  211,217; 3640,894;42,29744
1044,48; 1628,960;  215,679; 3562,663;42,22549
1045,02; 1600,729;  197,525; 3481,279;42,73170
1045,56; 1604,575;  215,294; 3502,971;42,25722
1046,11; 1587,729;  206,756; 3442,894;42,67349
1046,65; 1545,037;  208,448; 3371,663;42,25411
1047,19; 1516,267;  188,063; 3327,279;42,31006
1047,74; 1499,883;  184,833; 3238,510;43,06448
1048,28; 1505,498;  201,910; 3227,279;43,08857
1048,82; 1522,729;  212,833; 3210,510;43,69704
1049,37; 1492,113;  214,602; 3148,048;43,54985
1049,91; 1467,960;  197,756; 3114,433;43,54969
1050,45; 1451,806;  219,140; 3066,971;43,28436
1050,99; 1437,575;  201,294; 3028,587;43,72667
1051,54; 1394,190;  197,756; 2964,587;43,24206
1052,08; 1428,729;  220,217; 2919,125;44,77780
1052,62; 1399,806;  211,756; 2906,356;44,09003
1053,16; 1360,498;  191,525; 2845,894;44,03958
1053,71; 1351,421;  203,756; 2818,202;43,89707
1054,25; 1333,421;  216,371; 2767,125;43,79294
1054,79; 1298,267;  212,910; 2723,048;43,23896
1055,33; 1280,652;  177,602; 2670,279;44,25162
1055,88; 1290,960;  215,371; 2668,587;43,84403
1056,42; 1287,960;  222,987; 2646,817;43,93760
1056,96; 1268,037;  217,140; 2583,048;44,41831
1057,50; 1244,652;  211,371; 2545,433;44,26965
1058,05; 1210,883;  200,987; 2502,356;43,88240
1058,59; 1221,344;  229,294; 2489,279;43,89632
1059,13; 1162,267;  186,525; 2424,894;43,59166
1059,67; 1181,037;  224,448; 2421,433;43,54097
1060,21; 1158,113;  213,063; 2344,817;44,33204
1060,76; 1145,190;  221,602; 2316,433;44,08893
1061,30; 1160,498;  226,910; 2312,279;44,76850
1061,84; 1125,806;  213,448; 2244,202;44,92704
1062,38; 1090,421;  192,063; 2193,048;44,89578
1062,92; 1142,806;  240,910; 2237,279;45,17682
1063,46; 1086,498;  224,679; 2158,433;44,56716
1064,01; 1064,883;  204,217; 2134,894;44,57843
1064,55; 1061,729;  213,140; 2102,048;44,92482
1065,09; 1029,652;  185,063; 2060,048;45,04509
1065,63; 1073,729;  239,140; 2071,202;45,55461
1066,17; 1058,960;  242,217; 2045,971;45,28014
1066,71; 1049,113;  226,217; 2023,587;45,78337
1067,25; 1012,113;  211,294; 1967,433;45,60114
1067,80; 1012,575;  219,679; 1961,433;45,52286
1068,34; 1023,344;  242,756; 1928,971;46,29233
1068,88;  960,267;  201,448; 1891,510;44,89891
1069,42;  996,113;  241,294; 1921,433;44,92601
1069,96;  959,037;  200,217; 1850,279;45,98733
1070,50; 1002,037;  241,910; 1861,433;46,93523
1071,04;  917,421;  192,756; 1814,817;44,67558
1071,58;  924,421;  210,602; 1809,510;44,64418
1072,12;  924,575;  207,987; 1767,971;45,93561
1072,66;  918,267;  205,602; 1757,356;45,92645
1073,21;  923,575;  228,371; 1752,202;45,62212
1073,75;  905,344;  226,602; 1707,202;45,84238
1074,29;  877,037;  218,371; 1684,433;44,92754
1074,83;  896,729;  233,140; 1701,125;45,20405
1075,37;  907,267;  230,525; 1658,202;47,40164
1075,91;  893,344;  224,987; 1647,663;46,97888
1076,45;  875,652;  217,063; 1628,894;46,64783
1076,99;  875,421;  236,756; 1589,125;47,22567
1077,53;  842,037;  206,525; 1573,971;46,47434
1078,07;  837,037;  222,525; 1573,433;45,48879
1078,61;  838,344;  217,833; 1538,894;46,97068
1079,15;  827,729;  212,525; 1524,663;46,88559
1079,69;  822,344;  216,140; 1491,433;47,53450
1080,23;  842,190;  233,833; 1482,587;48,71718
1080,77;  869,806;  267,910; 1506,048;48,61299
1081,31;  794,729;  213,679; 1440,894;47,34703
1081,85;  801,960;  224,602; 1452,048;47,03731
1082,39;  782,498;  209,294; 1414,663;47,55421
1082,93;  799,421;  221,063; 1410,894;48,60840
1083,47;  740,883;  196,140; 1361,971;46,72568
1084,01;  772,344;  236,140; 1391,587;46,40665
1084,55;  737,113;  209,987; 1330,510;47,04293
1085,09;  767,883;  230,448; 1354,202;47,82494
1085,63;  745,344;  214,371; 1322,894;47,89915
1086,17;  738,729;  212,679; 1282,433;49,17486
1086,71;  717,421;  213,910; 1289,356;46,81885
1087,24;  748,190;  232,140; 1300,663;48,29563
1087,78;  730,421;  224,833; 1273,817;48,19789
1088,32;  703,960;  215,217; 1228,202;48,24775
1088,86;  720,729;  241,987; 1251,202;47,43708
1089,40;  706,037;  217,602; 1222,433;48,60864
1089,94;  655,190;  195,833; 1181,433;46,60691
1090,48;  677,190;  226,833; 1185,279;46,98831
1091,02;  708,267;  232,833; 1181,587;50,11148
1091,56;  660,960;  218,756; 1171,971;46,39076
1092,10;  645,498;  200,217; 1147,971;46,98274
1092,63;  691,421;  234,987; 1154,740;49,62574
1093,17;  657,267;  233,294; 1125,587;47,51504
1093,71;  649,729;  209,294; 1113,279;48,72147
1094,25;  673,421;  235,448; 1131,817;48,86079
1094,79;  642,498;  218,371; 1087,048;48,82447
1095,33;  640,729;  220,679; 1067,279;49,61611
1095,87;  624,267;  228,448; 1063,817;47,38255
1096,40;  614,113;  198,679; 1024,663;50,29568
1096,94;  642,806;  216,987; 1045,894;51,37113
1097,48;  642,806;  219,833; 1024,048;52,59450
1098,02;  600,344;  211,371; 1015,894;48,34828
1098,56;  572,729;  189,679;  980,048;48,46469
1099,10;  586,806;  185,833;  971,894;51,01039
1099,63;  583,960;  200,987;  948,587;51,22700
1100,17;  592,344;  222,602;  979,433;48,85403
1100,71;  616,037;  243,140;  987,433;50,10077

