
Integration time [ms]: 160,000
Averaging Nr. [scans]: 13
Smoothing Nr. [pixels]: 0
Data measured with spectrometer [name]: 2009305U1
Wave   ;Sample   ;Dark     ;Reference;Reflectance
[nm]   ;[counts] ;[counts] ;[counts] ;[%]

 175,72;  209,313;  192,833;  205,653;128,54333
 176,32;  232,819;  215,986;  216,813; 0,00000
 176,92;  266,036;  247,602;  254,971;250,14766
 177,52;  273,126;  255,679;  265,678;174,49047
 178,12;  237,997;  239,756;  224,864; 0,00000
 178,72;  268,427;  257,525;  250,340; 0,00000
 179,32;  257,733;  248,909;  241,998; 0,00000
 179,92;  261,519;  247,063;  242,319; 0,00000
 180,52;  250,619;  235,064;  254,068;81,85079
 181,12;  263,010;  243,833;  252,404;223,72601
 181,73;  284,624;  258,371;  266,338;329,53762
 182,33;  382,655;  327,141;  336,927;567,29229
 182,93;  277,320;  265,064;  266,645;774,90614
 183,53;  243,571;  233,755;  224,030; 0,00000
 184,13;  239,553;  236,909;  229,431; 0,00000
 184,73;  295,626;  266,448;  273,739;400,19905
 185,33;  262,294;  232,445;  341,197;27,44695
 185,93;  265,791;  226,213;  348,375;32,39782
 186,53;  281,568;  244,675;  370,650;29,28589
 187,13;  306,987;  273,291;  414,063;23,93624
 187,73;  269,595;  243,598;  361,495;22,05087
 188,33;  268,243;  237,983;  370,649;22,80970
 188,93;  271,410;  250,059;  374,130;17,20906
 189,53;  265,759;  248,981;  393,125;11,63964
 190,13;  309,034;  274,058;  409,924;25,74321
 190,73;  242,575;  218,289;  365,019;16,55185
 191,34;  284,593;  256,905;  385,888;21,46670
 191,94;  255,732;  235,829;  359,614;16,07886
 192,54;  279,489;  240,984;  391,391;25,60074
 193,14;  284,102;  258,291;  390,009;19,59565
 193,74;  282,668;  260,214;  377,424;19,15688
 194,34;  278,483;  241,445;  388,106;25,25427
 194,94;  243,373;  209,983;  342,899;25,12088
 195,54;  218,232;  190,137;  332,970;19,66953
 196,14;  254,538;  225,291;  354,341;22,66343
 196,74;  251,081;  223,445;  343,719;22,97795
 197,34;  217,630;  197,522;  345,903;13,55166
 197,94;  244,272;  232,368;  373,573; 8,43055
 198,54;  258,683;  228,599;  383,909;19,37023
 199,14;  239,010;  215,368;  380,241;14,33906
 199,74;  222,585;  190,292;  370,197;17,95014
 200,34;  224,610;  195,061;  379,885;15,98801
 200,94;  254,703;  233,599;  425,936;10,97262
 201,54;  244,594;  216,753;  432,596;12,89865
 202,14;  273,843;  230,061;  474,093;17,94122
 202,74;  240,946;  213,907;  473,146;10,42999
 203,34;  219,541;  180,907;  480,577;12,89227
 203,94;  197,796;  170,753;  486,255; 8,57127
 204,54;  272,505;  238,445;  563,211;10,48758
 205,14;  230,616;  203,984;  571,733; 7,24190
 205,74;  270,853;  236,907;  659,589; 8,03100
 206,34;  245,874;  200,215;  679,015; 9,53628
 206,94;  257,812;  210,138;  728,140; 9,20349
 207,54;  229,081;  191,907;  773,579; 6,39094
 208,14;  235,790;  194,522;  845,836; 6,33608
 208,74;  237,669;  198,907;  918,683; 5,38530
 209,34;  249,599;  202,215;  992,970; 5,99235
 209,94;  265,517;  202,753; 1089,013; 7,08189
 210,54;  256,862;  195,292; 1187,450; 6,20567
 211,14;  266,521;  194,368; 1267,179; 6,72553
 211,73;  271,515;  197,830; 1399,958; 6,12955
 212,33;  291,051;  214,830; 1495,442; 5,95197
 212,93;  281,673;  201,830; 1569,925; 5,83604
 213,53;  253,167;  168,522; 1613,023; 5,85980
 214,13;  287,672;  193,369; 1705,053; 6,23827
 214,73;  258,151;  179,907; 1721,786; 5,07459
 215,33;  249,671;  163,830; 1742,628; 5,43710
 215,93;  283,146;  194,523; 1862,662; 5,31270
 216,53;  252,667;  157,753; 1944,199; 5,31301
 217,13;  313,812;  209,061; 2159,512; 5,37062
 217,73;  302,604;  196,599; 2334,342; 4,95870
 218,33;  270,141;  149,754; 2512,186; 5,09590
 218,93;  321,196;  177,292; 2802,474; 5,48168
 219,53;  339,870;  179,830; 3052,680; 5,57075
 220,13;  317,291;  166,677; 3342,899; 4,74193
 220,73;  362,667;  178,292; 3659,770; 5,29590
 221,32;  383,207;  192,215; 4073,836; 4,92044
 221,92;  417,557;  184,984; 4477,909; 5,41757
 222,52;  402,781;  163,446; 4867,162; 5,08823
 223,12;  438,737;  187,984; 5286,413; 4,91825
 223,72;  472,620;  189,369; 5644,061; 5,19280
 224,32;  487,518;  186,830; 5997,482; 5,17476
 224,92;  480,499;  168,830; 6323,312; 5,06410
 225,52;  526,695;  197,753; 6670,557; 5,08190
 226,12;  552,228;  180,753; 6972,357; 5,46962
 226,72;  535,091;  160,753; 7292,274; 5,24905
 227,31;  567,380;  151,984; 7646,565; 5,54262
 227,91;  620,733;  194,138; 8071,656; 5,41535
 228,51;  632,348;  165,984; 8435,636; 5,63947
 229,11;  647,605;  184,907; 8840,069; 5,34592
 229,71;  681,387;  170,830; 9126,800; 5,70074
 230,31;  685,459;  168,369; 9555,531; 5,50849
 230,91;  695,368;  158,599; 9813,841; 5,55935
 231,51;  728,201;  163,753;10061,634; 5,70271
 232,10;  763,313;  164,907;10384,972; 5,85520
 232,70;  794,791;  181,445;10581,029; 5,89779
 233,30;  830,728;  195,753;10813,411; 5,98037
 233,90;  830,248;  167,984;10937,933; 6,14919
 234,50;  863,807;  169,984;11059,818; 6,37129
 235,10;  882,192;  171,292;10974,158; 6,58066
 235,70;  918,687;  182,907;11013,347; 6,79363
 236,29;  938,202;  178,907;10902,340; 7,08071
 236,89;  909,659;  160,907;10792,462; 7,04274
 237,49;  946,142;  183,907;10632,310; 7,29523
 238,09;  935,644;  172,753;10341,707; 7,50215
 238,69;  975,959;  207,676;10098,604; 7,76756
 239,29;  940,384;  164,138; 9734,699; 8,11077
 239,89;  936,524;  172,907; 9401,017; 8,27490
 240,48;  931,548;  167,215; 8971,537; 8,68135
 241,08;  931,255;  164,522; 8611,278; 9,07725
 241,68;  937,111;  188,215; 8278,664; 9,25654
 242,28;  894,858;  156,215; 7940,130; 9,48935
 242,88;  930,247;  197,061; 7665,624; 9,81696
 243,48;  951,413;  202,138; 7348,585;10,48458
 244,07;  899,715;  196,215; 7158,640;10,10424
 244,67;  923,556;  189,599; 6950,593;10,85575
 245,27;  912,053;  189,214; 6813,419;10,91209
 245,87;  931,987;  193,677; 6751,769;11,25800
 246,47;  933,149;  180,522; 6743,128;11,46841
 247,06;  934,451;  173,599; 6743,421;11,58101
 247,66;  971,387;  171,676; 6819,743;12,02923
 248,26; 1002,015;  200,830; 7000,936;11,78195
 248,86; 1043,760;  197,445; 7154,654;12,16458
 249,46; 1028,318;  145,599; 7378,217;12,20469
 250,05; 1102,014;  199,830; 7771,472;11,91530
 250,65; 1132,178;  152,599; 8058,257;12,39086
 251,25; 1174,730;  170,984; 8552,490;11,97572
 251,85; 1267,496;  170,830; 9127,877;12,24362
 252,44; 1297,651;  137,061; 9680,974;12,16052
 253,04; 1443,052;  188,215;10445,847;12,23321
 253,64; 1445,909;  136,830;11140,049;11,89723
 254,24; 1635,362;  193,061;12050,132;12,16406
 254,84; 1704,779;  169,830;13024,525;11,94077
 255,43; 1804,272;  179,676;13965,778;11,78430
 256,03; 1918,480;  176,907;14933,069;11,80235
 256,63; 2026,410;  184,599;15959,061;11,67591
 257,23; 2079,877;  171,753;16835,711;11,45061
 257,82; 2233,989;  182,599;17818,426;11,63195
 258,42; 2277,752;  143,753;18720,590;11,48742
 259,02; 2443,391;  189,522;19585,306;11,62040
 259,62; 2447,785;  171,445;20283,193;11,31846
 260,21; 2506,583;  174,291;20811,251;11,30153
 260,81; 2519,693;  185,907;21379,753;11,01162
 261,41; 2583,208;  151,137;21814,664;11,22657
 262,01; 2606,025;  198,214;22356,130;10,86659
 262,60; 2602,800;  159,060;22637,173;10,87164
 263,20; 2644,777;  176,445;23055,648;10,78854
 263,80; 2667,133;  194,906;23123,820;10,78214
 264,40; 2631,439;  149,752;23365,215;10,68980
 264,99; 2626,408;  181,983;23636,262;10,42208
 265,59; 2611,066;  166,214;23828,529;10,33226
 266,19; 2585,862;  157,752;24024,776;10,17349
 266,78; 2602,849;  197,445;24085,499;10,06949
 267,38; 2577,034;  186,368;24190,233; 9,95950
 267,98; 2537,999;  170,906;24143,256; 9,87426
 268,58; 2532,246;  186,137;24183,756; 9,77642
 269,17; 2482,266;  173,752;24133,851; 9,63483
 269,77; 2494,099;  192,522;23966,940; 9,68090
 270,37; 2420,285;  161,368;23855,106; 9,53381
 270,96; 2445,672;  214,830;23796,071; 9,46024
 271,56; 2368,084;  179,676;23480,276; 9,39207
 272,16; 2329,723;  169,060;23368,768; 9,31332
 272,75; 2321,036;  169,522;23244,494; 9,32402
 273,35; 2299,175;  186,753;23207,061; 9,17634
 273,95; 2249,150;  180,291;23273,296; 8,95881
 274,54; 2241,660;  158,061;23319,855; 8,99585
 275,14; 2288,317;  185,830;23690,387; 8,94502
 275,74; 2224,366;  157,830;23677,369; 8,78647
 276,33; 2310,071;  197,983;24100,569; 8,83623
 276,93; 2307,166;  184,138;24473,251; 8,74066
 277,53; 2350,008;  181,984;25015,911; 8,73009
 278,12; 2378,187;  152,830;25597,349; 8,74592
 278,72; 2473,350;  215,676;26084,768; 8,72730
 279,32; 2494,693;  184,830;26655,470; 8,72613
 279,91; 2563,725;  151,984;27296,689; 8,88476
 280,51; 2660,687;  164,061;27885,853; 9,00601
 281,11; 2717,169;  165,368;28515,442; 9,00104
 281,70; 2749,791;  153,676;28993,081; 9,00197
 282,30; 2839,084;  163,599;29674,353; 9,06614
 282,90; 2900,364;  168,753;30003,444; 9,15582
 283,49; 2992,212;  190,983;30517,786; 9,23681
 284,09; 3099,546;  200,214;30896,231; 9,44530
 284,69; 3133,244;  194,907;31311,375; 9,44303
 285,28; 3237,125;  181,907;31608,199; 9,72185
 285,88; 3367,619;  231,060;31904,705; 9,90274
 286,47; 3406,712;  181,137;31901,565;10,16876
 287,07; 3483,964;  202,984;31975,438;10,32649
 287,67; 3589,490;  185,830;32122,739;10,65745
 288,26; 3687,832;  169,599;32037,774;11,03996
 288,86; 3803,804;  168,676;32056,294;11,39981
 289,46; 3989,030;  193,984;32185,292;11,86274
 290,05; 4145,462;  172,368;32376,766;12,33712
 290,65; 4325,797;  173,907;32494,359;12,84601
 291,24; 4515,246;  178,138;32665,551;13,35012
 291,84; 4740,103;  184,830;32740,907;13,99208
 292,44; 4904,406;  179,061;33002,715;14,39616
 293,03; 5171,775;  246,907;32988,735;15,04152
 293,63; 5277,808;  176,599;33084,504;15,50147
 294,22; 5495,024;  190,753;33347,104;15,99775
 294,82; 5615,426;  182,060;33256,310;16,42778
 295,41; 5699,253;  155,291;33060,774;16,84814
 296,01; 5859,626;  208,214;33008,575;17,22972
 296,61; 5857,815;  182,753;32641,087;17,48415
 297,20; 5913,976;  186,522;32323,950;17,82176
 297,80; 6014,497;  194,984;32156,885;18,20766
 298,39; 5948,804;  164,060;31774,877;18,29989
 298,99; 6055,152;  189,214;31656,241;18,64154
 299,58; 6005,058;  192,292;31571,638;18,52418
 300,18; 6036,314;  209,445;31366,877;18,70138
 300,78; 5981,982;  177,599;30948,409;18,86328
 301,37; 6075,274;  193,291;30891,191;19,16086
 301,97; 6120,011;  188,061;30939,660;19,28989
 302,56; 6087,535;  187,137;30906,361;19,20751
 303,16; 6077,174;  173,753;30840,917;19,24997
 303,75; 6070,482;  174,368;30857,002;19,21645
 304,35; 6129,384;  166,830;31103,257;19,27357
 304,94; 6162,998;  179,138;31040,448;19,38952
 305,54; 6171,054;  201,215;31020,913;19,37021
 306,13; 6077,466;  164,984;31012,753;19,16664
 306,73; 6096,301;  168,138;30770,960;19,37130
 307,33; 6104,321;  192,369;30714,351;19,36949
 307,92; 6105,409;  185,061;30785,136;19,34750
 308,52; 6130,476;  165,830;31199,806;19,21973
 309,11; 6262,574;  172,137;31705,231;19,31443
 309,71; 6307,803;  168,599;31935,792;19,32561
 310,30; 6323,326;  160,061;32195,179;19,23909
 310,90; 6433,172;  198,061;32541,025;19,27811
 311,49; 6428,995;  179,214;32617,051;19,26695
 312,09; 6402,101;  152,599;32789,355;19,14866
 312,68; 6566,629;  218,291;33185,330;19,25662
 313,28; 6504,255;  159,907;33317,674;19,13382
 313,87; 6525,253;  153,830;33457,421;19,13134
 314,47; 6556,677;  169,214;33719,073;19,03872
 315,06; 6579,608;  155,291;33846,369;19,06830
 315,66; 6622,717;  156,061;33991,278;19,11220
 316,25; 6571,351;  145,291;34000,199;18,98118
 316,85; 6509,301;  140,215;34012,972;18,80298
 317,44; 6571,589;  163,445;34187,697;18,83405
 318,04; 6512,690;  154,368;34156,383;18,69984
 318,63; 6476,003;  146,292;34237,622;18,56692
 319,22; 6509,366;  171,445;34452,357;18,48819
 319,82; 6476,762;  162,137;34418,304;18,43354
 320,41; 6431,218;  181,214;34371,699;18,27995
 321,01; 6427,656;  184,907;34386,656;18,25272
 321,60; 6447,134;  176,214;34477,630;18,28181
 322,20; 6363,781;  164,599;34382,000;18,11704
 322,79; 6400,002;  198,368;34501,800;18,07876
 323,39; 6337,468;  170,907;34565,974;17,92862
 323,98; 6319,284;  149,522;34508,529;17,95675
 324,58; 6253,716;  154,368;34408,391;17,80622
 325,17; 6215,271;  176,599;34190,879;17,75334
 325,76; 6187,583;  187,830;34036,681;17,72513
 326,36; 6064,629;  143,368;33626,517;17,68430
 326,95; 6046,447;  193,753;33357,126;17,64807
 327,55; 5926,553;  148,676;32972,948;17,60245
 328,14; 5820,078;  161,292;32580,644;17,45496
 328,74; 5802,113;  189,830;32167,636;17,55056
 329,33; 5690,343;  178,907;31731,391;17,46752
 329,92; 5555,254;  156,214;31253,788;17,36161
 330,52; 5423,092;  173,753;30573,956;17,26745
 331,11; 5374,835;  171,445;30177,215;17,34130
 331,71; 5238,802;  165,522;29557,766;17,26061
 332,30; 5139,152;  177,445;29149,371;17,12591
 332,89; 5094,088;  213,984;28628,725;17,17455
 333,49; 4954,072;  187,907;28086,942;17,08362
 334,08; 4827,621;  175,368;27697,286;16,90381
 334,68; 4770,802;  180,907;27293,964;16,92873
 335,27; 4670,235;  186,215;26952,612;16,75243
 335,86; 4673,835;  224,753;26641,446;16,84194
 336,46; 4561,530;  181,061;26461,399;16,66824
 337,05; 4490,432;  171,599;26265,353;16,55122
 337,65; 4464,273;  153,291;26054,626;16,64386
 338,24; 4501,334;  213,907;26069,851;16,58198
 338,83; 4453,081;  192,984;25957,438;16,53479
 339,43; 4423,031;  167,984;25897,909;16,53735
 340,02; 4395,038;  162,291;25866,857;16,46691
 340,61; 4395,138;  170,138;25836,938;16,46095
 341,21; 4426,883;  208,137;25858,636;16,44703
 341,80; 4394,141;  175,368;25826,808;16,44653
 342,40; 4392,609;  170,292;25890,158;16,41656
 342,99; 4387,165;  165,445;25947,187;16,37484
 343,58; 4431,497;  177,368;26189,622;16,35432
 344,18; 4437,616;  195,522;26373,073;16,20508
 344,77; 4466,780;  164,599;26529,948;16,31756
 345,36; 4488,601;  148,676;26879,818;16,23546
 345,96; 4566,284;  201,984;27219,638;16,15351
 346,55; 4573,455;  151,369;27427,300;16,21241
 347,14; 4647,483;  152,907;27772,144;16,27335
 347,74; 4643,868;  143,292;28192,844;16,04509
 348,33; 4737,368;  164,677;28854,944;15,93813
 348,92; 4812,057;  178,061;29402,688;15,85647
 349,52; 4887,057;  140,215;29849,887;15,97743
 350,11; 4922,507;  175,907;30115,958;15,85368
 350,70; 4975,803;  167,061;30103,798;16,06301
 351,29; 4913,600;  160,291;29828,098;16,02177
 351,89; 4874,950;  176,983;29840,031;15,83777
 352,48; 4888,852;  155,215;29908,351;15,90971
 353,07; 4886,598;  174,599;29796,583;15,90710
 353,67; 4914,800;  189,215;29796,109;15,96110
 354,26; 4836,722;  164,676;29465,729;15,94498
 354,85; 4847,636;  173,907;29381,496;16,00176
 355,45; 4761,081;  158,830;29187,341;15,85424
 356,04; 4768,025;  168,753;29179,958;15,85343
 356,63; 4753,203;  200,676;28979,836;15,81883
 357,22; 4726,565;  176,675;28835,197;15,87622
 357,82; 4726,679;  173,829;28527,954;16,05710
 358,41; 4725,048;  190,291;28522,847;16,00546
 359,00; 4607,040;  155,907;28267,802;15,83363
 359,60; 4625,555;  174,676;28241,266;15,85828
 360,19; 4650,950;  174,292;28045,826;16,06176
 360,78; 4610,562;  177,984;27864,379;16,00995
 361,37; 4591,907;  169,061;27730,181;16,04741
 361,97; 4603,476;  169,676;27624,442;16,14947
 362,56; 4533,461;  167,753;27299,264;16,09092
 363,15; 4532,864;  202,830;27001,114;16,15788
 363,74; 4477,492;  174,291;26660,845;16,24674
 364,34; 4409,225;  194,291;26339,415;16,12130
 364,93; 4301,016;  163,291;25935,873;16,05476
 365,52; 4262,297;  141,445;25588,830;16,19362
 366,11; 4272,357;  173,599;25238,079;16,35285
 366,71; 4188,905;  160,907;24896,203;16,28441
 367,30; 4155,429;  173,522;24575,417;16,31802
 367,89; 4182,437;  207,215;24348,725;16,46633
 368,48; 4115,335;  182,291;24090,525;16,45058
 369,07; 4049,956;  178,138;23657,413;16,49037
 369,67; 4051,115;  203,291;23383,363;16,59971
 370,26; 3991,491;  163,445;23103,863;16,68691
 370,85; 3958,749;  177,137;22920,245;16,62751
 371,44; 3945,037;  163,214;22611,778;16,84661
 372,03; 3893,003;  151,907;22418,770;16,80119
 372,63; 3834,877;  141,984;22051,743;16,85502
 373,22; 3844,625;  162,368;21824,363;16,99870
 373,81; 3800,202;  140,907;21614,122;17,04121
 374,40; 3778,625;  153,522;21310,691;17,13416
 374,99; 3739,588;  157,753;21122,573;17,08498
 375,59; 3693,045;  163,061;20765,855;17,13352
 376,18; 3745,670;  191,522;20688,377;17,33997
 376,77; 3727,070;  184,368;20538,952;17,40493
 377,36; 3726,183;  194,599;20427,029;17,45507
 377,95; 3705,132;  181,291;20167,268;17,63157
 378,55; 3678,964;  164,907;19976,041;17,73779
 379,14; 3701,174;  177,522;19901,675;17,86466
 379,73; 3680,128;  165,676;19853,332;17,85104
 380,32; 3726,255;  183,984;19873,181;17,99094
 380,91; 3682,282;  159,676;19667,575;18,05733
 381,50; 3708,190;  181,137;19730,834;18,04147
 382,10; 3708,332;  165,599;19588,104;18,24035
 382,69; 3734,916;  153,061;19536,843;18,47862
 383,28; 3788,970;  185,214;19485,519;18,67202
 383,87; 3764,798;  170,599;19354,118;18,73587
 384,46; 3763,453;  156,599;19303,219;18,83808
 385,05; 3800,566;  194,368;19336,249;18,83931
 385,64; 3824,588;  173,984;19253,926;19,13320
 386,24; 3806,226;  151,214;19260,693;19,12670
 386,83; 3909,052;  185,676;19307,347;19,47203
 387,42; 3913,584;  185,907;19437,221;19,36324
 388,01; 3964,469;  175,906;19692,501;19,41201
 388,60; 4035,704;  180,060;19935,642;19,51673
 389,19; 4107,317;  162,521;20071,470;19,81418
 389,78; 4176,416;  163,137;20300,531;19,92949
 390,37; 4326,572;  226,829;20795,837;19,93165
 390,96; 4335,855;  171,983;20851,213;20,13552
 391,56; 4389,004;  182,136;20980,634;20,22678
 392,15; 4479,211;  156,367;21348,835;20,39802
 392,74; 4501,614;  147,059;21537,383;20,35759
 393,33; 4633,119;  167,290;21800,272;20,64361
 393,92; 4746,671;  173,905;22148,280;20,80954
 394,51; 4796,055;  169,367;22328,946;20,87895
 395,10; 4890,488;  191,212;22592,145;20,97804
 395,69; 4939,679;  172,828;22659,440;21,19862
 396,28; 4987,693;  187,828;22780,161;21,24555
 396,87; 5042,595;  175,366;22794,544;21,51815
 397,46; 5079,878;  191,750;22963,056;21,46618
 398,06; 5179,586;  198,596;23203,119;21,65222
 398,65; 5213,727;  184,672;23227,508;21,82481
 399,24; 5305,897;  204,056;23470,283;21,92810
 399,83; 5315,121;  175,516;23419,733;22,11133
 400,42; 5416,459;  203,053;23563,588;22,31715
 401,01; 5465,876;  185,975;23697,214;22,45692
 401,60; 5461,075;  194,281;23692,232;22,41384
 402,19; 5486,865;  220,049;23599,757;22,52730
 402,78; 5523,706;  222,354;23670,337;22,60899
 403,37; 5499,025;  208,967;23485,360;22,72714
 403,96; 5520,443;  200,734;23392,403;22,93802
 404,55; 5513,180;  220,577;23298,760;22,93336
 405,14; 5489,904;  199,113;23194,704;23,00785
 405,73; 5511,005;  215,417;23072,266;23,16849
 406,32; 5510,383;  222,569;22959,260;23,25675
 406,91; 5510,615;  202,028;22680,458;23,61636
 407,50; 5517,088;  215,873;22530,604;23,75657
 408,09; 5449,132;  186,103;22248,987;23,85467
 408,68; 5469,735;  196,641;22130,582;24,04080
 409,27; 5432,230;  186,488;21935,551;24,11939
 409,86; 5422,023;  200,644;21860,399;24,10636
 410,45; 5505,219;  232,645;21774,441;24,47602
 411,04; 5443,077;  236,801;21640,738;24,32392
 411,63; 5442,424;  213,187;21399,610;24,68202
 412,22; 5403,351;  217,574;21270,990;24,63153
 412,81; 5378,457;  222,959;20933,498;24,89311
 413,40; 5318,291;  249,652;20594,959;24,91306
 413,99; 5342,513;  267,960;20389,882;25,21903
 414,58; 5156,190;  208,498;19983,338;25,02013
 415,17; 5125,263;  208,267;19843,761;25,04137
 415,76; 5113,677;  205,343;19646,204;25,24751
 416,35; 5106,656;  194,882;19356,030;25,63403
 416,94; 5134,846;  229,805;19554,581;25,38214
 417,53; 5185,027;  215,190;19687,836;25,52215
 418,12; 5230,088;  206,036;19787,445;25,65725
 418,71; 5370,342;  232,114;20191,765;25,74308
 419,30; 5450,676;  216,652;20276,876;26,09155
 419,89; 5472,242;  203,267;20467,311;26,00160
 420,48; 5591,234;  235,114;20775,844;26,07561
 421,07; 5622,157;  229,729;20800,062;26,21459
 421,66; 5658,794;  200,037;20766,724;26,54174
 422,25; 5655,629;  203,115;20757,681;26,52702
 422,84; 5700,299;  231,500;20748,871;26,65448
 423,43; 5602,586;  220,500;20404,088;26,66566
 424,02; 5596,433;  234,961;20179,384;26,88206
 424,60; 5427,947;  206,578;19787,501;26,66560
 425,19; 5405,194;  222,654;19548,224;26,81701
 425,78; 5426,296;  240,654;19501,989;26,92255
 426,37; 5429,471;  236,039;19304,849;27,23522
 426,96; 5400,200;  219,193;19247,266;27,22823
 427,55; 5372,952;  211,116;19035,553;27,42093
 428,14; 5260,518;  206,501;18860,636;27,09328
 428,73; 5280,369;  228,501;18686,169;27,37002
 429,32; 5300,359;  231,962;18637,883;27,53677
 429,91; 5346,959;  247,116;18703,205;27,63230
 430,50; 5285,650;  239,732;18496,159;27,63913
 431,08; 5228,015;  252,117;18415,557;27,39513
 431,67; 5252,067;  296,502;18284,691;27,54899
 432,26; 5239,805;  305,502;18077,559;27,76439
 432,85; 5145,267;  340,656;17763,604;27,57634
 433,44; 5048,474;  336,118;17385,023;27,64023
 434,03; 4961,862;  348,349;17082,008;27,57026
 434,62; 4864,996;  307,425;16701,952;27,79935
 435,21; 4828,871;  328,040;16469,644;27,88342
 435,79; 4758,946;  331,041;16336,814;27,66442
 436,38; 4766,961;  313,734;16279,858;27,89173
 436,97; 4745,146;  312,041;16185,273;27,92818
 437,56; 4698,448;  311,273;15964,310;28,02763
 438,15; 4668,129;  279,273;15853,253;28,18070
 438,74; 4709,496;  296,965;15926,346;28,23228
 439,33; 4689,549;  265,965;15886,494;28,31904
 439,91; 4687,401;  228,581;15945,350;28,36983
 440,50; 4771,566;  284,196;16038,265;28,48388
 441,09; 4778,523;  278,197;16137,216;28,37708
 441,68; 4777,870;  268,735;16097,048;28,48778
 442,27; 4774,212;  249,658;16117,378;28,51420
 442,86; 4762,891;  232,505;16092,763;28,56439
 443,44; 4797,206;  240,351;16162,261;28,62003
 444,03; 4876,983;  298,198;16223,997;28,75074
 444,62; 4771,204;  244,351;16069,566;28,60532
 445,21; 4735,578;  251,659;15914,696;28,62739
 445,80; 4785,830;  284,890;15782,390;29,04300
 446,39; 4714,322;  290,429;15504,817;29,07704
 446,97; 4593,664;  245,814;15352,756;28,78048
 447,56; 4566,599;  247,583;15120,833;29,03882
 448,15; 4502,849;  243,660;14991,139;28,88079
 448,74; 4451,884;  266,429;14672,104;29,05421
 449,33; 4440,137;  235,276;14587,031;29,29859
 449,91; 4340,353;  246,815;14400,616;28,92183
 450,50; 4255,396;  242,430;14179,487;28,79350
 451,09; 4295,305;  255,276;14091,361;29,19922
 451,68; 4259,765;  268,969;13991,513;29,08204
 452,26; 4225,068;  267,507;13882,268;29,06816
 452,85; 4187,725;  251,199;13837,578;28,97406
 453,44; 4194,276;  267,277;13788,136;29,04400
 454,03; 4188,149;  239,354;13776,037;29,17107
 454,61; 4168,351;  236,662;13755,146;29,08380
 455,20; 4261,903;  273,816;13940,687;29,18069
 455,79; 4251,653;  268,662;13927,663;29,16019
 456,38; 4315,978;  268,739;14007,442;29,45867
 456,97; 4304,207;  252,124;14070,310;29,32428
 457,55; 4280,898;  250,047;14089,802;29,12516
 458,14; 4309,392;  276,585;14042,968;29,29460
 458,73; 4275,358;  255,355;14008,120;29,23051
 459,31; 4309,414;  288,278;14014,715;29,29482
 459,90; 4367,640;  290,509;14131,760;29,45638
 460,49; 4445,950;  334,432;14244,717;29,55739
 461,08; 4386,086;  264,971;14325,004;29,31085
 461,66; 4394,476;  267,586;14367,019;29,26990
 462,25; 4475,436;  270,971;14422,905;29,70948
 462,84; 4472,315;  297,202;14494,938;29,40690
 463,43; 4426,241;  226,971;14407,032;29,61391
 464,01; 4425,117;  261,125;14470,259;29,30504
 464,60; 4459,413;  299,894;14402,292;29,49512
 465,19; 4366,079;  242,972;14172,423;29,59993
 465,77; 4374,382;  269,972;14117,024;29,64104
 466,36; 4341,327;  281,433;13996,694;29,60129
 466,95; 4267,276;  256,356;13737,152;29,75284
 467,53; 4153,283;  275,203;13416,862;29,50982
 468,12; 4082,432;  284,434;13175,399;29,46248
 468,71; 3957,249;  266,895;12915,296;29,17645
 469,29; 3904,091;  249,511;12695,642;29,36319
 469,88; 3884,355;  266,357;12500,496;29,57297
 470,47; 3967,948;  329,280;12548,915;29,77722
 471,06; 3889,279;  272,819;12534,273;29,49455
 471,64; 3894,978;  281,280;12691,803;29,11802
 472,23; 3896,652;  242,896;12681,781;29,37366
 472,81; 3960,219;  253,050;12749,243;29,66639
 473,40; 3990,418;  261,127;13004,846;29,26376
 473,99; 4146,282;  346,281;13160,323;29,65498
 474,57; 4084,317;  259,742;13250,487;29,44076
 475,16; 4144,142;  274,742;13372,506;29,54245
 475,75; 4196,008;  290,281;13477,287;29,61800
 476,33; 4197,397;  292,666;13553,813;29,44489
 476,92; 4197,901;  300,973;13603,829;29,29392
 477,51; 4207,199;  285,666;13671,153;29,29690
 478,09; 4220,082;  272,974;13702,109;29,39212
 478,68; 4188,274;  289,666;13595,350;29,30032
 479,27; 4243,100;  311,435;13701,522;29,36250
 479,85; 4190,721;  287,281;13703,038;29,09593
 480,44; 4206,512;  276,974;13868,131;28,91247
 481,02; 4641,238;  281,051;15608,402;28,44710
 481,61; 5191,679;  310,897;17388,639;28,57979
 482,20; 5574,976;  305,436;18436,789;29,06314
 482,78; 5813,776;  331,512;19187,657;29,07415
 483,37; 5953,620;  327,205;19643,013;29,12855
 483,95; 6097,774;  357,975;20013,353;29,20218
 484,54; 6102,373;  370,974;20144,321;28,98548
 485,13; 6060,617;  337,667;20034,163;29,05568
 485,71; 5963,194;  317,975;19790,230;28,99109
 486,30; 5897,846;  351,898;19542,570;28,89919
 486,88; 5824,892;  393,436;19107,604;29,02323
 487,47; 5611,399;  376,898;18360,869;29,10648
 488,05; 5317,046;  358,129;17495,548;28,93620
 488,64; 4958,607;  349,283;16059,475;29,33971
 489,23; 4419,286;  355,591;14183,165;29,38835
 489,81; 3798,889;  354,283;12316,831;28,79492
 490,40; 3567,893;  320,822;11823,952;28,22772
 490,98; 3506,226;  299,745;11561,827;28,47148
 491,57; 3474,180;  322,129;11500,035;28,19894
 492,15; 3457,791;  309,822;11427,977;28,31377
 492,74; 3419,414;  312,667;11319,477;28,22568
 493,32; 3404,714;  325,514;11206,867;28,29795
 493,91; 3357,763;  296,591;11161,517;28,17481
 494,50; 3369,768;  317,207;11123,602;28,24773
 495,08; 3299,871;  292,822;11050,719;27,95201
 495,67; 3334,534;  317,283;11013,507;28,20856
 496,25; 3242,105;  255,130;10847,096;28,20038
 496,84; 3254,492;  280,283;10870,055;28,08567
 497,42; 3258,011;  264,899;10808,134;28,38894
 498,01; 3237,370;  278,206;10786,547;28,16014
 498,59; 3167,548;  246,668;10711,606;27,91111
 499,18; 3174,236;  249,899;10642,047;28,13987
 499,76; 3192,689;  282,437;10534,406;28,38725
 500,35; 3131,437;  272,361;10382,539;28,27919
 500,93; 3124,141;  245,361;10380,776;28,40319
 501,52; 3085,425;  261,284;10274,065;28,20537
 502,10; 3101,192;  270,438;10250,171;28,36503
 502,69; 3004,954;  255,900;10120,749;27,86717
 503,27; 2948,561;  234,207; 9897,576;28,08911
 503,86; 2942,637;  250,669; 9860,824;28,01170
 504,44; 2894,901;  227,438; 9778,525;27,92837
 505,03; 2808,834;  219,361; 9540,802;27,77974
 505,61; 2799,535;  238,515; 9417,662;27,90041
 506,19; 2744,751;  256,054; 9241,075;27,69829
 506,78; 2660,789;  230,362; 9085,577;27,44627
 507,36; 2649,379;  229,361; 8926,057;27,82687
 507,95; 2593,650;  234,900; 8738,415;27,73852
 508,53; 2569,887;  237,516; 8704,375;27,54707
 509,12; 2507,193;  247,054; 8504,879;27,36967
 509,70; 2476,498;  262,439; 8391,822;27,23526
 510,29; 2452,374;  257,670; 8187,741;27,67571
 510,87; 2374,484;  233,131; 8085,205;27,27118
 511,46; 2327,358;  226,131; 7883,685;27,43993
 512,04; 2278,914;  242,285; 7748,083;27,13407
 512,62; 2221,318;  245,054; 7648,102;26,69527
 513,21; 2189,474;  224,208; 7429,407;27,27567
 513,79; 2131,298;  227,824; 7325,385;26,81870
 514,38; 2078,733;  210,747; 7153,170;26,90683
 514,96; 2093,781;  253,824; 7072,624;26,98359
 515,54; 2031,124;  221,670; 6956,391;26,86753
 516,13; 2022,181;  246,824; 6858,308;26,85262
 516,71; 1958,725;  240,901; 6759,824;26,35134
 517,30; 1915,421;  215,132; 6655,856;26,39904
 517,88; 1919,416;  245,978; 6549,899;26,54598
 518,46; 1873,581;  216,825; 6445,769;26,59770
 519,05; 1851,673;  222,517; 6391,915;26,40705
 519,63; 1835,685;  237,056; 6323,787;26,26418
 520,22; 1834,287;  249,979; 6288,022;26,23877
 520,80; 1815,384;  242,287; 6198,368;26,41162
 521,38; 1823,838;  262,748; 6200,291;26,29185
 521,97; 1794,476;  221,595; 6142,052;26,56689
 522,55; 1793,910;  241,133; 6160,067;26,23407
 523,13; 1763,126;  231,441; 6158,127;25,84388
 523,72; 1789,037;  233,517; 6114,658;26,44929
 524,30; 1797,616;  254,210; 6244,255;25,76618
 524,89; 1785,496;  228,672; 6275,014;25,74821
 525,47; 1823,145;  241,826; 6379,471;25,76427
 526,05; 1794,288;  217,210; 6445,512;25,32116
 526,64; 1871,127;  246,672; 6579,212;25,65251
 527,22; 1893,407;  241,133; 6699,623;25,58297
 527,80; 1943,017;  272,749; 6847,730;25,40339
 528,39; 1937,714;  234,364; 6929,961;25,43984
 528,97; 1988,184;  245,057; 7088,668;25,47087
 529,55; 2028,760;  251,749; 7287,682;25,25623
 530,14; 2068,968;  262,288; 7408,121;25,28300
 530,72; 2080,298;  245,518; 7543,700;25,14023
 531,30; 2092,681;  228,134; 7703,083;24,94395
 531,89; 2123,970;  237,903; 7794,836;24,95811
 532,47; 2175,582;  267,442; 7893,471;25,02142
 533,05; 2155,519;  268,595; 7934,621;24,61411
 533,63; 2170,983;  278,595; 7979,036;24,57506
 534,22; 2159,780;  250,365; 7972,022;24,72805
 534,80; 2209,140;  262,442; 8099,771;24,83879
 535,38; 2276,036;  341,672; 8203,953;24,60309
 535,97; 2191,637;  266,903; 8173,981;24,34191
 536,55; 2248,861;  305,211; 8254,394;24,45094
 537,13; 2204,725;  323,441; 8215,447;23,83784
 537,71; 2229,781;  373,903; 8254,101;23,55117
 538,30; 2251,786;  386,826; 8350,242;23,41909
 538,88; 2295,371;  432,134; 8478,329;23,15674
 539,46; 2363,189;  498,826; 8667,939;22,82209
 540,05; 2373,162;  527,519; 8820,864;22,25451
 540,63; 2431,841;  572,519; 8990,574;22,08732
 541,21; 2490,168;  614,673; 9193,347;21,86229
 541,79; 2521,611;  671,058; 9311,562;21,41719
 542,38; 2565,757;  689,519; 9445,133;21,42897
 542,96; 2591,357;  693,058; 9619,609;21,26576
 543,54; 2647,772;  719,596; 9836,509;21,14944
 544,12; 2678,388;  681,058; 9928,388;21,59899
 544,70; 2641,082;  661,365;10039,321;21,11032
 545,29; 2697,803;  673,673;10246,750;21,14398
 545,87; 2693,457;  633,596;10184,716;21,56670
 546,45; 2672,136;  591,365;10217,022;21,61693
 547,03; 2692,266;  572,981;10300,497;21,78650
 547,62; 2691,911;  518,211;10439,230;21,91005
 548,20; 2706,423;  521,442;10550,924;21,78557
 548,78; 2702,034;  485,058;10661,424;21,78553
 549,36; 2740,623;  440,827;10878,890;22,03278
 549,94; 2751,029;  396,904;10967,230;22,27107
 550,53; 2796,500;  394,597;11243,548;22,13950
 551,11; 2806,845;  366,597;11426,754;22,06341
 551,69; 2873,627;  372,443;11750,056;21,98338
 552,27; 2914,769;  335,750;11965,538;22,17598
 552,85; 2991,962;  339,828;12399,722;21,99136
 553,44; 3065,043;  327,827;12632,746;22,24489
 554,02; 3117,550;  348,520;12991,011;21,90257
 554,60; 3145,164;  283,751;13303,900;21,97681
 555,18; 3262,451;  337,674;13660,566;21,95302
 555,76; 3305,405;  296,751;14025,058;21,91570
 556,34; 3401,452;  319,982;14440,574;21,82253
 556,93; 3464,696;  292,827;14817,570;21,83770
 557,51; 3503,430;  272,828;15124,930;21,75182
 558,09; 3615,054;  311,674;15550,738;21,67705
 558,67; 3696,236;  301,982;15980,181;21,64952
 559,25; 3760,990;  313,905;16151,376;21,76538
 559,83; 3785,194;  293,366;16481,564;21,57021
 560,41; 3853,122;  286,058;16862,821;21,51846
 561,00; 3923,408;  297,982;17133,505;21,53439
 561,58; 3947,184;  280,597;17395,894;21,42287
 562,16; 3989,950;  271,904;17779,125;21,23721
 562,74; 4040,424;  263,827;18061,689;21,21938
 563,32; 4104,081;  258,366;18555,839;21,01773
 563,90; 4199,630;  285,982;18895,612;21,03023
 564,48; 4257,485;  285,751;19333,837;20,85109
 565,06; 4352,850;  280,289;19947,851;20,70699
 565,65; 4501,969;  292,059;20622,618;20,70730
 566,23; 4705,974;  322,520;21339,029;20,85719
 566,81; 4728,646;  278,059;22097,728;20,39714
 567,39; 4885,804;  294,136;22907,408;20,30519
 567,97; 5004,721;  308,982;23588,507;20,17111
 568,55; 5240,700;  321,982;24428,159;20,40439
 569,13; 5283,568;  289,366;25136,232;20,09992
 569,71; 5429,374;  276,135;26086,631;19,96567
 570,29; 5670,728;  326,443;27122,260;19,94447
 570,87; 5802,281;  312,058;27695,989;20,04907
 571,45; 5864,624;  314,443;28347,347;19,79881
 572,03; 5916,925;  282,828;28732,112;19,80400
 572,61; 6029,115;  274,520;29528,849;19,67092
 573,20; 6179,811;  299,828;30153,456;19,69604
 573,78; 6223,167;  293,828;30820,809;19,42327
 574,36; 6360,212;  312,213;31253,624;19,54662
 574,94; 6434,200;  364,213;31533,971;19,47396
 575,52; 6423,243;  308,213;31827,474;19,40093
 576,10; 6526,276;  363,367;32450,122;19,20702
 576,68; 6605,205;  358,290;33028,049;19,12140
 577,26; 6703,401;  367,521;33736,551;18,98731
 577,84; 6767,024;  385,059;34142,922;18,90512
 578,42; 6816,110;  422,905;34469,867;18,77761
 579,00; 6764,791;  361,905;34548,932;18,72899
 579,58; 6822,323;  415,982;34727,896;18,67089
 580,16; 6758,819;  384,905;34758,278;18,54317
 580,74; 6792,794;  384,213;34964,545;18,53244
 581,32; 6749,832;  389,059;35108,920;18,32027
 581,90; 6762,004;  427,444;35079,815;18,28031
 582,48; 6731,982;  405,982;35241,094;18,15984
 583,06; 6716,771;  412,982;35258,837;18,09050
 583,64; 6743,797;  409,520;35402,877;18,10137
 584,22; 6670,794;  424,675;35244,258;17,93852
 584,80; 6597,165;  423,982;34992,377;17,85788
 585,38; 6513,292;  435,443;34555,309;17,81323
 585,96; 6458,116;  392,059;34740,574;17,66032
 586,54; 6443,116;  421,829;34710,153;17,56075
 587,12; 6436,213;  387,290;34850,896;17,55163
 587,70; 6509,321;  416,751;35114,610;17,55892
 588,28; 6455,638;  390,290;35095,402;17,47682
 588,86; 6480,131;  391,059;35225,047;17,48026
 589,44; 6405,632;  386,290;35307,462;17,23694
 590,02; 6467,337;  375,059;35498,642;17,34526
 590,59; 6413,686;  368,367;35700,997;17,10973
 591,17; 6462,363;  359,291;35892,185;17,17584
 591,75; 6455,300;  353,983;35999,092;17,11684
 592,33; 6482,046;  364,675;36339,778;17,00446
 592,91; 6478,394;  315,906;36533,304;17,01527
 593,49; 6483,065;  327,598;36828,725;16,86377
 594,07; 6522,634;  342,521;37042,569;16,83952
 594,65; 6511,503;  354,598;37044,483;16,78093
 595,23; 6508,811;  339,367;37404,855;16,64471
 595,81; 6535,002;  345,060;37547,997;16,63832
 596,39; 6504,650;  324,598;37683,478;16,54239
 596,97; 6510,683;  328,598;37855,211;16,47387
 597,55; 6449,309;  325,213;37711,778;16,38047
 598,12; 6432,948;  314,291;37800,790;16,32229
 598,70; 6399,389;  310,214;38006,764;16,15314
 599,28; 6434,878;  331,137;38069,134;16,17399
 599,86; 6392,605;  315,598;38174,991;16,05152
 600,44; 6352,601;  282,906;38262,318;15,98154
 601,02; 6389,780;  340,368;38274,454;15,94717
 601,60; 6280,500;  310,598;38211,478;15,75135
 602,18; 6277,607;  296,983;38197,924;15,77962
 602,75; 6230,335;  294,983;38376,806;15,58579
 603,33; 6239,588;  306,598;38291,535;15,61932
 603,91; 6199,029;  300,445;38330,559;15,51030
 604,49; 6222,594;  326,521;38431,723;15,47314
 605,07; 6178,571;  334,060;38389,059;15,35807
 605,65; 6182,486;  364,983;38516,296;15,24850
 606,23; 6160,177;  413,675;38688,742;15,01370
 606,80; 6172,317;  480,983;38775,483;14,86201
 607,38; 6150,686;  527,522;38761,132;14,70739
 607,96; 6175,194;  578,444;38960,250;14,58178
 608,54; 6152,698;  643,829;38955,049;14,37926
 609,12; 6150,883;  664,521;39056,084;14,29054
 609,70; 6147,993;  711,598;39105,464;14,15954
 610,27; 6152,337;  707,752;39194,796;14,14654
 610,85; 6140,363;  728,060;39233,460;14,05596
 611,43; 6088,149;  725,060;39176,948;13,94753
 612,01; 6012,004;  691,367;38928,974;13,91467
 612,59; 6002,292;  683,675;38959,187;13,89561
 613,16; 5938,043;  643,213;38847,966;13,85909
 613,74; 5889,000;  613,137;38764,905;13,82862
 614,32; 5867,695;  549,214;38724,268;13,93182
 614,90; 5801,182;  499,829;38549,519;13,93271
 615,48; 5716,703;  453,290;38134,209;13,96838
 616,05; 5682,073;  407,290;38243,788;13,94099
 616,63; 5631,288;  421,982;37956,906;13,87856
 617,21; 5624,174;  411,290;37898,211;13,90587
 617,79; 5509,302;  385,213;37770,203;13,70627
 618,36; 5536,399;  404,137;37711,889;13,75656
 618,94; 5407,551;  337,213;37384,847;13,68600
 619,52; 5363,789;  370,367;37017,883;13,62554
 620,10; 5316,928;  356,290;37089,547;13,50449
 620,67; 5311,085;  358,982;36973,199;13,52508
 621,25; 5291,799;  374,137;36797,816;13,50128
 621,83; 5226,714;  358,444;36743,509;13,37986
 622,41; 5233,238;  398,136;36802,043;13,28182
 622,98; 5153,473;  365,675;36487,673;13,25452
 623,56; 5132,647;  363,444;36488,987;13,20175
 624,14; 5117,497;  337,675;36356,652;13,27029
 624,72; 5028,985;  335,675;36237,323;13,07269
 625,29; 5007,983;  327,521;36403,126;12,97404
 625,87; 5042,397;  367,752;36321,989;13,00165
 626,45; 4939,296;  319,674;36112,744;12,90647
 627,02; 4944,363;  316,983;36082,363;12,93815
 627,60; 4870,556;  314,829;36020,701;12,75904
 628,18; 4888,806;  303,752;36171,391;12,78326
 628,76; 4863,140;  305,675;36192,786;12,69945
 629,33; 4858,686;  340,059;36113,721;12,63116
 629,91; 4820,313;  325,598;36022,547;12,59131
 630,49; 4869,104;  328,444;36232,402;12,64668
 631,06; 4841,278;  326,675;36390,638;12,51832
 631,64; 4805,424;  319,059;36324,626;12,46020
 632,22; 4797,918;  274,597;36382,197;12,52734
 632,79; 4830,022;  322,059;36485,337;12,46558
 633,37; 4776,982;  297,675;36621,177;12,33170
 633,95; 4828,385;  288,136;36675,495;12,47755
 634,52; 4756,478;  276,675;36730,705;12,28891
 635,10; 4760,071;  289,367;36741,786;12,26449
 635,68; 4795,543;  286,828;36947,244;12,29859
 636,25; 4781,947;  276,905;36915,262;12,29597
 636,83; 4751,217;  262,213;37121,017;12,17892
 637,41; 4778,806;  274,674;37206,001;12,19597
 637,98; 4812,696;  306,444;37369,365;12,15839
 638,56; 4758,771;  293,213;37423,894;12,02660
 639,13; 4768,776;  268,982;37536,408;12,07433
 639,71; 4812,170;  313,367;37616,102;12,06025
 640,29; 4677,868;  249,290;37483,827;11,89374
 640,86; 4719,152;  263,829;37608,175;11,93038
 641,44; 4702,975;  257,059;37643,369;11,89183
 642,02; 4736,567;  290,675;37552,947;11,93135
 642,59; 4724,466;  267,752;37784,833;11,87916
 643,17; 4674,058;  268,213;37738,797;11,75814
 643,74; 4689,265;  268,521;37719,375;11,80412
 644,32; 4659,087;  289,675;37727,185;11,67122
 644,89; 4648,602;  287,444;37749,917;11,64141
 645,47; 4651,117;  293,136;37742,649;11,63695
 646,05; 4659,863;  283,444;37635,997;11,71652
 646,62; 4583,839;  279,444;37705,499;11,50107
 647,20; 4600,739;  280,829;37790,001;11,51694
 647,77; 4537,407;  255,598;37644,271;11,45216
 648,35; 4544,691;  250,906;37527,465;11,51873
 648,92; 4551,514;  279,367;37684,429;11,42131
 649,50; 4517,106;  250,906;37519,623;11,44713
 650,08; 4483,390;  245,444;37436,201;11,39516
 650,65; 4506,520;  250,059;37720,164;11,35962
 651,23; 4562,266;  235,367;38578,204;11,28476
 651,80; 4687,857;  252,213;39453,014;11,31519
 652,38; 4706,603;  268,521;39722,439;11,24877
 652,95; 4744,733;  226,752;40098,709;11,33123
 653,53; 4740,556;  258,290;40364,211;11,17607
 654,10; 4799,994;  281,444;40538,482;11,22425
 654,68; 4751,124;  244,675;40444,676;11,21007
 655,25; 4750,100;  239,213;40461,716;11,21483
 655,83; 4715,461;  228,136;40508,141;11,14033
 656,40; 4747,745;  271,598;40445,104;11,14204
 656,98; 4708,799;  254,136;40318,683;11,11871
 657,55; 4666,621;  246,829;40238,184;11,05187
 658,13; 4663,674;  248,060;39854,147;11,14883
 658,70; 4613,420;  253,521;39571,803;11,08873
 659,28; 4496,243;  246,060;38705,305;11,05113
 659,85; 4390,373;  262,675;37995,652;10,93923
 660,43; 4399,426;  272,213;38124,539;10,90346
 661,00; 4376,018;  257,675;38183,887;10,85883
 661,58; 4430,148;  241,060;38596,927;10,92164
 662,15; 4439,586;  242,598;38731,659;10,90437
 662,73; 4504,793;  301,983;39005,930;10,85887
 663,30; 4494,385;  253,367;39203,816;10,88824
 663,88; 4537,054;  256,060;39421,702;10,93048
 664,45; 4525,645;  244,367;39620,666;10,87273
 665,03; 4564,699;  254,521;39985,937;10,84829
 665,60; 4682,214;  316,214;40520,746;10,85947
 666,17; 4580,959;  254,598;40428,017;10,76921
 666,75; 4656,320;  242,214;40843,288;10,87190
 667,32; 4694,758;  267,829;41217,482;10,81066
 667,90; 4742,427;  245,598;41383,445;10,93112
 668,47; 4708,403;  271,367;41710,177;10,70744
 669,05; 4784,380;  246,675;41959,987;10,87831
 669,62; 4756,664;  232,675;42068,334;10,81371
 670,19; 4755,025;  233,983;42169,990;10,78081
 670,77; 4789,078;  254,214;42304,492;10,78439
 671,34; 4804,593;  242,829;42208,070;10,87034
 671,92; 4824,261;  232,214;42635,572;10,82944
 672,49; 4856,622;  258,368;42667,920;10,84250
 673,06; 4792,291;  202,444;42635,114;10,81678
 673,64; 4777,960;  231,368;42700,461;10,70565
 674,21; 4801,090;  228,137;42609,886;10,78991
 674,79; 4860,451;  249,060;42890,311;10,81439
 675,36; 4866,812;  255,906;42975,966;10,79330
 675,93; 4818,481;  214,368;42917,237;10,78174
 676,51; 4834,072;  257,060;43025,124;10,70194
 677,08; 4874,433;  251,983;43040,702;10,80297
 677,65; 4865,794;  256,752;43272,204;10,71485
 678,23; 4899,002;  252,675;43462,936;10,75283
 678,80; 4884,593;  246,137;43560,438;10,70883
 679,38; 4918,031;  238,214;43675,940;10,77362
 679,95; 4954,854;  255,983;43972,518;10,74850
 680,52; 4967,369;  243,522;44151,789;10,75845
 681,10; 5016,345;  266,445;44679,675;10,69479
 681,67; 5087,168;  258,752;44925,254;10,80992
 682,24; 5063,375;  222,214;44956,371;10,82207
 682,82; 5125,197;  236,829;45528,796;10,79301
 683,39; 5186,251;  280,214;45801,605;10,77743
 683,96; 5210,765;  252,060;46075,414;10,82135
 684,54; 5205,973;  225,060;46441,070;10,77746
 685,11; 5310,949;  270,675;46745,956;10,84506
 685,68; 5362,848;  238,906;47180,458;10,91558
 686,25; 5333,517;  222,445;47207,498;10,87808
 686,83; 5373,570;  225,829;47329,000;10,92865
 687,40; 5418,701;  224,522;47665,886;10,94863
 687,97; 5490,369;  266,599;48162,003;10,90662
 688,55; 5483,576;  221,214;48141,505;10,98149
 689,12; 5454,168;  205,291;48464,929;10,87633
 689,69; 5515,145;  221,676;48479,431;10,96916
 690,26; 5507,813;  241,676;48570,240;10,89653
 690,84; 5543,636;  231,368;48818,896;10,93340
 691,41; 5578,920;  239,599;48830,320;10,98836
 691,98; 5597,973;  240,752;49118,591;10,96043
 692,56; 5626,719;  229,214;49195,785;11,02284
 693,13; 5678,772;  281,137;49234,749;11,02602
 693,70; 5660,056;  247,522;49411,558;11,00913
 694,27; 5691,340;  224,676;49584,367;11,07516
 694,84; 5709,393;  226,599;49660,792;11,09110
 695,42; 5767,062;  276,291;49738,524;11,10094
 695,99; 5714,731;  240,599;50041,565;10,99202
 696,56; 5727,707;  230,983;49822,989;11,08389
 697,13; 5801,761;  251,522;50241,106;11,10279
 697,71; 5796,660;  224,214;50276,993;11,13314
 698,28; 5820,867;  233,368;50717,956;11,06773
 698,85; 5810,844;  210,676;50624,227;11,10846
 699,42; 5831,205;  210,137;50795,728;11,11199
 699,99; 5930,642;  266,753;50976,999;11,16912
 700,57; 5914,003;  247,906;50926,347;11,18049
 701,14; 5911,211;  226,060;51028,464;11,19071
 701,71; 5971,956;  245,445;51214,043;11,23537
 702,28; 5989,010;  243,445;51274,390;11,25898
 702,85; 5982,678;  254,676;51489,815;11,17983
 703,43; 6027,039;  256,291;51675,163;11,22302
 704,00; 6074,477;  276,907;51821,280;11,24773
 704,57; 6035,069;  255,599;51809,012;11,21064
 705,14; 6103,122;  290,830;52136,437;11,21077
 705,71; 6127,637;  281,599;52095,785;11,28270
 706,28; 6119,460;  260,676;52033,056;11,31643
 706,86; 6171,282;  285,368;52219,096;11,33351
 707,43; 6201,489;  317,060;52161,136;11,35024
 708,00; 6220,696;  284,368;52207,869;11,43284
 708,57; 6194,980;  261,984;52063,293;11,45337
 709,14; 6241,803;  291,830;52260,256;11,44921
 709,71; 6275,318;  259,137;52303,527;11,55971
 710,28; 6288,602;  265,676;52506,952;11,52906
 710,86; 6314,194;  276,137;52649,685;11,52883
 711,43; 6421,555;  282,445;52711,955;11,70926
 712,00; 6359,839;  261,984;52665,534;11,63634
 712,57; 6408,507;  282,214;52900,113;11,64298
 713,14; 6460,407;  260,061;52861,153;11,78749
 713,71; 6463,922;  263,522;52892,808;11,78127
 714,28; 6468,821;  250,599;52935,079;11,80276
 714,85; 6479,028;  243,907;52642,965;11,89930
 715,42; 6498,928;  241,753;52961,775;11,86869
 716,00; 6615,058;  301,061;53003,353;11,98050
 716,57; 6560,573;  241,061;53124,316;11,94993
 717,14; 6561,549;  236,368;53061,972;11,97370
 717,71; 6560,372;  220,138;53154,935;11,97744
 718,28; 6673,656;  271,522;53179,821;12,10043
 718,85; 6581,401;  234,830;53209,631;11,98036
 719,42; 6668,301;  237,522;53375,440;12,10205
 719,99; 6657,585;  220,907;53217,326;12,14550
 720,56; 6692,100;  245,753;53485,367;12,10818
 721,13; 6674,768;  226,830;53548,253;12,09259
 721,70; 6690,206;  214,522;53383,601;12,17942
 722,27; 6757,952;  254,984;53449,179;12,22496
 722,84; 6833,159;  290,368;53625,296;12,26737
 723,41; 6760,597;  219,292;53601,952;12,25361
 723,98; 6836,343;  237,984;53809,223;12,31698
 724,55; 6862,011;  271,753;53838,109;12,30298
 725,12; 6808,219;  194,138;53899,611;12,31547
 725,69; 6951,426;  222,599;53996,343;12,51322
 726,27; 6916,402;  238,676;54020,691;12,41628
 726,84; 6932,225;  237,215;54352,962;12,37165
 727,41; 7020,893;  247,599;54325,310;12,52511
 727,98; 7013,024;  253,522;54627,042;12,43160
 728,55; 7049,846;  270,369;54566,774;12,48605
 729,12; 7072,899;  219,830;54591,199;12,60419
 729,69; 7131,106;  273,292;54819,855;12,57241
 730,26; 7154,467;  249,599;54991,972;12,61339
 730,82; 7158,444;  246,676;54801,858;12,66931
 731,39; 7210,036;  243,445;54894,283;12,74745
 731,96; 7268,320;  232,984;55116,169;12,81875
 732,53; 7283,911;  244,215;55468,824;12,74739
 733,10; 7341,503;  258,984;55492,711;12,82282
 733,67; 7380,249;  244,599;55699,751;12,86742
 734,24; 7317,994;  243,676;55432,099;12,81848
 734,81; 7415,894;  270,369;55555,754;12,92480
 735,38; 7392,024;  249,599;55315,256;12,97074
 735,95; 7397,924;  240,676;55056,219;13,05697
 736,52; 7421,823;  263,676;55354,336;12,99339
 737,09; 7427,107;  261,599;54997,838;13,09098
 737,66; 7467,776;  299,369;55233,109;13,04919
 738,23; 7441,291;  250,215;55200,072;13,08661
 738,80; 7574,036;  305,599;55528,573;13,16198
 739,37; 7592,166;  286,523;55690,383;13,18616
 739,94; 7600,912;  251,830;55706,423;13,25243
 740,51; 7715,042;  352,753;55704,078;13,30102
 741,07; 7658,557;  256,292;55709,349;13,34871
 741,64; 7711,457;  285,215;55927,697;13,34635
 742,21; 7727,125;  260,753;55903,353;13,41845
 742,78; 7686,179;  224,523;55704,931;13,44917
 743,35; 7729,309;  256,446;56020,510;13,40086
 743,92; 7808,901;  292,984;56187,781;13,44654
 744,49; 7859,569;  282,984;56069,821;13,58131
 745,06; 7824,930;  246,984;56056,707;13,57818
 745,63; 7848,060;  240,984;56037,055;13,63371
 746,19; 7870,114;  236,753;56016,326;13,68487
 746,76; 7865,398;  263,677;56017,520;13,63443
 747,33; 7868,990;  245,907;56044,021;13,66190
 747,90; 7932,581;  276,446;56258,908;13,67595
 748,47; 7973,712;  260,292;56098,563;13,81386
 749,04; 7956,226;  267,369;56140,065;13,76139
 749,61; 8012,203;  277,446;56087,874;13,85898
 750,17; 8006,102;  273,677;56126,453;13,84430
 750,74; 8028,233;  266,754;56050,339;13,91355
 751,31; 8002,670;  242,677;56038,379;13,90787
 751,88; 8004,493;  237,215;55875,804;13,96024
 752,45; 8125,008;  254,292;55955,306;14,13029
 753,02; 8058,138;  267,523;55796,423;14,02984
 753,58; 8044,345;  245,523;55712,924;14,06019
 754,15; 8081,322;  249,600;55850,580;14,08558
 754,72; 8068,144;  253,907;55587,620;14,12202
 755,29; 8103,274;  225,215;55477,429;14,25836
 755,86; 8128,789;  243,600;55599,392;14,24456
 756,42; 8175,073;  254,446;55484,202;14,34123
 756,99; 8131,357;  215,600;55437,396;14,33448
 757,56; 8184,103;  226,908;55457,897;14,40712
 758,13; 8197,695;  191,446;55448,784;14,48902
 758,70; 8256,363;  208,754;55384,285;14,58547
 759,26; 8303,417;  206,600;55497,633;14,64400
 759,83; 8308,547;  215,138;55651,904;14,59935
 760,40; 8292,446;  207,292;55360,559;14,65943
 760,97; 8332,654;  192,677;55437,446;14,73438
 761,53; 8317,015;  189,677;54953,794;14,84063
 762,10; 8387,914;  179,523;55044,218;14,96115
 762,67; 8365,813;  222,215;55154,181;14,82488
 763,24; 8300,251;  166,523;54675,760;14,92174
 763,80; 8391,689;  201,754;54842,877;14,98859
 764,37; 8356,743;  204,061;54755,379;14,94498
 764,94; 8335,027;  199,600;54295,573;15,03888
 765,50; 8349,926;  197,369;54383,382;15,04550
 766,07; 8404,056;  246,215;54367,653;15,07322
 766,64; 8325,494;  210,138;54001,770;15,08665
 767,21; 8320,778;  223,831;53891,656;15,08715
 767,77; 8347,293;  239,754;53840,927;15,12568
 768,34; 8385,116;  242,215;53776,737;15,21056
 768,91; 8344,938;  242,292;53575,084;15,19262
 769,47; 8420,761;  247,215;53579,817;15,32561
 770,04; 8452,814;  232,600;53440,011;15,44938
 770,61; 8359,406;  225,215;53255,435;15,33878
 771,18; 8378,151;  208,446;53085,091;15,45050
 771,74; 8414,359;  235,292;53323,285;15,40662
 772,31; 8406,412;  230,215;53058,940;15,47680
 772,88; 8386,927;  214,446;52707,750;15,56862
 773,44; 8386,288;  218,446;52618,482;15,58747
 774,01; 8434,495;  234,446;52727,599;15,62118
 774,58; 8405,856;  223,216;52399,947;15,68255
 775,14; 8427,448;  211,600;52576,064;15,68974
 775,71; 8453,886;  215,985;52494,797;15,75763
 776,27; 8510,323;  268,600;52398,067;15,81010
 776,84; 8550,146;  295,139;52499,492;15,81287
 777,41; 8491,584;  235,139;52180,071;15,89461
 777,97; 8435,560;  231,985;51969,342;15,85619
 778,54; 8458,998;  238,369;51924,766;15,90482
 779,11; 8502,513;  260,293;51930,191;15,95169
 779,67; 8492,951;  214,677;51953,308;16,00018
 780,24; 8496,927;  238,523;51668,887;16,05745
 780,80; 8559,827;  249,523;51699,773;16,15211
 781,37; 8568,880;  243,293;51610,659;16,20793
 781,94; 8560,856;  234,908;51420,238;16,26628
 782,50; 8582,833;  240,293;51404,739;16,30535
 783,07; 8547,502;  254,677;51467,472;16,19288
 783,63; 8538,016;  221,908;51216,358;16,30787
 784,20; 8554,531;  253,523;51172,475;16,30239
 784,77; 8561,431;  231,062;50910,054;16,43752
 785,33; 8532,792;  212,985;50735,940;16,46738
 785,90; 8559,076;  234,600;50656,749;16,50956
 786,46; 8557,129;  250,446;50620,020;16,49147
 787,03; 8513,721;  221,446;50350,599;16,54182
 787,59; 8553,236;  236,600;50371,947;16,58837
 788,16; 8569,520;  240,985;50292,141;16,64004
 788,73; 8608,650;  244,062;50144,565;16,76253
 789,29; 8545,396;  228,677;49801,529;16,77676
 789,86; 8590,757;  253,677;49716,876;16,85512
 790,42; 8585,733;  235,908;49448,378;16,96689
 790,99; 8547,709;  250,831;49178,649;16,95738
 791,55; 8563,532;  224,447;49200,535;17,02685
 792,12; 8612,354;  259,216;49231,883;17,05674
 792,68; 8510,946;  242,216;48849,846;17,01118
 793,25; 8547,153;  241,293;48615,886;17,16988
 793,81; 8563,360;  295,600;48344,542;17,20696
 794,38; 8475,106;  207,370;48147,736;17,24588
 794,94; 8490,544;  218,985;47935,007;17,33497
 795,51; 8486,213;  247,447;47653,431;17,37917
 796,07; 8497,574;  240,139;47466,087;17,48495
 796,64; 8486,319;  244,216;47469,204;17,45284
 797,20; 8484,911;  241,677;47105,552;17,58974
 797,77; 8368,118;  215,908;46680,823;17,54487
 798,33; 8412,864;  226,370;46547,632;17,67330
 798,90; 8459,148;  256,524;46521,903;17,72951
 799,46; 8347,047;  225,601;45897,789;17,78204
 800,03; 8362,947;  238,831;45879,368;17,80022
 800,59; 8347,077;  250,601;45703,177;17,81302
 801,15; 8335,976;  252,985;45521,910;17,85550
 801,72; 8291,107;  240,293;45155,334;17,92454
 802,28; 8272,391;  265,370;44877,221;17,94819
 802,85; 8195,829;  236,524;44621,338;17,93250
 803,41; 8200,190;  237,447;44556,762;17,96676
 803,98; 8114,704;  235,293;44047,418;17,98455
 804,54; 8133,373;  233,524;43920,766;18,08274
 805,11; 8140,042;  241,139;43638,113;18,20151
 805,67; 8077,711;  261,216;43593,461;18,03852
 806,23; 8004,841;  241,216;43168,732;18,08543
 806,80; 8015,125;  247,985;43040,695;18,15061
 807,36; 8016,409;  257,447;43046,812;18,13292
 807,93; 7989,924;  278,985;42722,237;18,16764
 808,49; 7881,285;  222,216;42402,585;18,15790
 809,05; 7853,877;  207,601;42154,087;18,22864
 809,62; 7892,238;  251,524;42141,511;18,23995
 810,18; 7924,752;  246,755;42042,551;18,37026
 810,74; 7853,421;  216,985;41760,822;18,38163
 811,31; 7832,551;  210,601;41524,709;18,44878
 811,87; 7818,835;  234,524;41277,903;18,47877
 812,44; 7930,196;  254,524;41479,250;18,61910
 813,00; 7821,788;  192,293;41034,598;18,68037
 813,56; 7900,995;  243,139;41162,484;18,71451
 814,13; 7876,279;  233,985;41008,448;18,74284
 814,69; 7853,640;  236,062;40900,949;18,73257
 815,25; 7795,771;  207,139;40381,066;18,88944
 815,82; 7803,362;  240,755;40351,491;18,85432
 816,38; 7869,723;  268,601;40127,762;19,06995
 816,94; 7774,392;  215,062;39958,802;19,02018
 817,51; 7714,445;  212,524;39646,535;19,02399
 818,07; 7670,576;  218,909;39392,882;19,02198
 818,63; 7687,706;  231,755;39210,307;19,12834
 819,20; 7697,374;  227,524;39112,270;19,21023
 819,76; 7637,966;  214,909;38788,849;19,24371
 820,32; 7656,866;  256,139;38646,966;19,27733
 820,89; 7579,534;  247,370;38460,391;19,18761
 821,45; 7549,203;  214,986;38189,431;19,31356
 822,01; 7521,333;  233,216;37871,086;19,36379
 822,57; 7555,925;  241,063;37855,280;19,44707
 823,14; 7514,209;  211,293;37486,167;19,59206
 823,70; 7463,493;  219,293;37306,745;19,53275
 824,26; 7469,008;  214,139;37121,939;19,65674
 824,82; 7502,523;  236,524;37027,441;19,74944
 825,39; 7412,576;  214,370;36749,481;19,70216
 825,95; 7431,860;  244,063;36730,752;19,69978
 826,51; 7419,221;  232,755;36361,330;19,89136
 827,08; 7475,813;  261,986;36483,217;19,91602
 827,64; 7437,559;  243,140;36268,334;19,97052
 828,20; 7371,458;  212,370;35898,143;20,06146
 828,76; 7400,511;  253,986;35886,029;20,05646
 829,32; 7408,642;  257,370;35756,454;20,14495
 829,89; 7380,233;  214,293;35706,186;20,19036
 830,45; 7366,517;  239,140;35627,303;20,14057
 831,01; 7345,032;  225,370;35479,190;20,19543
 831,57; 7331,316;  229,986;35345,230;20,22293
 832,14; 7351,985;  211,140;35348,655;20,32257
 832,70; 7302,884;  210,447;35060,695;20,35118
 833,26; 7255,784;  206,678;34902,889;20,31664
 833,82; 7270,760;  235,063;34895,467;20,29895
 834,38; 7283,429;  209,909;34862,200;20,41285
 834,95; 7266,790;  208,063;34716,471;20,45509
 835,51; 7233,305;  186,217;34589,818;20,48358
 836,07; 7287,127;  221,370;34684,397;20,50243
 836,63; 7343,642;  247,909;34621,206;20,64316
 837,19; 7255,542;  234,524;34434,862;20,52909
 837,75; 7225,749;  190,217;34086,287;20,75619
 838,32; 7277,725;  249,371;34296,327;20,64312
 838,88; 7316,240;  242,447;34342,905;20,74398
 839,44; 7298,063;  229,217;34228,561;20,79112
 840,00; 7277,500;  220,217;34125,293;20,81483
 840,56; 7259,785;  212,294;33756,487;21,00957
 841,12; 7257,530;  207,601;33786,296;20,99524
 841,68; 7181,660;  198,140;33638,490;20,88351
 842,25; 7255,560;  209,371;33518,838;21,15371
 842,81; 7162,536;  211,678;33322,032;20,99300
 843,37; 7222,359;  207,601;33416,226;21,12330
 843,93; 7232,027;  215,140;33342,497;21,18155
 844,49; 7268,773;  230,678;33339,999;21,25714
 845,05; 7186,134;  189,140;33131,347;21,24021
 845,61; 7302,341;  237,524;33205,002;21,42966
 846,17; 7245,164;  208,294;33015,658;21,44906
 846,73; 7245,602;  217,217;33016,775;21,42829
 847,29; 7196,424;  200,525;32860,661;21,42030
 847,86; 7182,477;  207,217;32722,009;21,45258
 848,42; 7202,608;  196,140;32543,203;21,66029
 848,98; 7217,969;  216,678;32561,858;21,64554
 849,54; 7257,253;  199,755;32552,283;21,81436
 850,10; 7210,768;  224,755;32341,708;21,75179
 850,66; 7187,052;  201,063;32299,517;21,76425
 851,22; 7154,643;  193,832;32128,403;21,79710
 851,78; 7257,081;  247,832;32229,674;21,91634
 852,34; 7196,596;  222,755;31870,637;22,03573
 852,90; 7179,957;  213,602;31847,831;22,02158
 853,46; 7125,780;  204,294;31624,410;22,02884
 854,02; 7120,679;  213,678;31638,450;21,97948
 854,58; 7144,502;  204,678;31429,105;22,22562
 855,14; 7106,401;  201,986;31338,761;22,17447
 855,70; 7051,839;  176,755;31218,416;22,14792
 856,26; 7072,431;  235,371;31233,534;22,05634
 856,82; 7080,100;  203,371;30950,574;22,36538
 857,38; 7081,691;  242,217;30908,614;22,30283
 857,94; 7033,360;  209,986;30828,577;22,28507
 858,50; 7020,567;  226,294;30618,617;22,35523
 859,06; 6971,236;  202,448;30493,426;22,34589
 859,62; 7014,828;  218,602;30468,390;22,46702
 860,18; 6966,112;  212,986;30324,584;22,42699
 860,74; 6886,319;  181,909;30105,547;22,40506
 861,30; 6897,988;  194,217;29888,125;22,57625
 861,86; 6973,733;  241,679;30023,935;22,60425
 862,42; 6922,709;  212,679;29767,821;22,70343
 862,98; 6952,917;  233,679;29734,476;22,77646
 863,54; 6891,893;  222,756;29541,209;22,74723
 864,10; 6951,177;  220,525;29542,249;22,95449
 864,66; 6860,307;  201,140;29320,905;22,86820
 865,22; 6853,361;  212,602;29224,714;22,88961
 865,78; 6801,260;  228,217;29105,677;22,76185
 866,34; 6818,083;  205,140;29035,333;22,93756
 866,90; 6829,521;  218,679;28876,911;23,06786
 867,45; 6756,420;  216,525;28690,105;22,96829
 868,01; 6756,089;  223,756;28554,145;23,05769
 868,57; 6736,911;  204,910;28341,955;23,21495
 869,13; 6733,349;  194,525;28286,995;23,27607
 869,69; 6715,402;  204,294;28199,343;23,25807
 870,25; 6671,148;  197,602;28030,152;23,25890
 870,81; 6679,509;  210,525;27974,346;23,30005
 871,37; 6716,947;  215,679;27896,617;23,48644
 871,93; 6696,308;  229,910;27765,580;23,48372
 872,49; 6644,746;  239,987;27545,697;23,45575
 873,04; 6596,645;  197,833;27359,506;23,55824
 873,60; 6570,622;  200,602;27265,546;23,53605
 874,16; 6578,983;  224,910;27204,048;23,55180
 874,72; 6572,367;  203,910;27066,048;23,70793
 875,28; 6609,060;  218,910;27009,971;23,85180
 875,84; 6558,906;  216,833;26925,510;23,74537
 876,40; 6612,752;  209,756;26853,587;24,03182
 876,95; 6586,290;  219,833;26916,356;23,84752
 877,51; 6601,290;  234,833;26936,817;23,84264
 878,07; 6653,752;  242,833;26841,817;24,10212
 878,63; 6651,906;  211,910;26853,587;24,17264
 879,19; 6640,290;  230,448;26860,279;24,07016
 879,75; 6655,444;  209,910;26893,740;24,15521
 880,30; 6692,444;  209,756;26889,971;24,29774
 880,86; 6769,060;  243,833;27000,202;24,38756
 881,42; 6709,521;  192,525;27050,202;24,26493
 881,98; 6750,675;  226,756;27168,048;24,21532
 882,54; 6817,752;  211,525;27217,663;24,46195
 883,09; 6808,290;  227,756;27339,279;24,27209
 883,65; 6867,521;  197,602;27335,202;24,57815
 884,21; 6970,060;  238,987;27546,587;24,64908
 884,77; 6913,829;  211,217;27684,202;24,39710
 885,32; 7022,598;  213,756;27806,202;24,67647
 885,88; 7076,598;  241,679;27903,587;24,70878
 886,44; 7070,829;  225,140;27971,202;24,67265
 887,00; 7105,598;  228,140;27985,048;24,77746
 887,56; 7164,213;  213,910;28107,048;24,91761
 888,11; 7160,521;  212,602;28153,740;24,86627
 888,67; 7208,983;  250,371;28319,202;24,79124
 889,23; 7278,137;  220,987;28304,202;25,12942
 889,79; 7159,906;  195,294;28167,279;24,89852
 890,34; 7220,983;  221,448;28126,510;25,08339
 890,90; 7314,213;  274,448;28239,510;25,17343
 891,46; 7255,598;  206,756;28133,894;25,24012
 892,01; 7257,983;  235,910;28142,202;25,16305
 892,57; 7300,983;  242,525;28027,433;25,40393
 893,13; 7240,290;  214,371;27874,510;25,40088
 893,69; 7223,752;  206,679;27834,433;25,39864
 894,24; 7235,598;  209,833;27745,433;25,51521
 894,80; 7230,060;  209,756;27656,048;25,57833
 895,36; 7198,444;  214,679;27516,279;25,58006
 895,91; 7157,906;  217,833;27286,202;25,63905
 896,47; 7148,752;  232,140;27175,510;25,67092
 897,03; 7101,060;  213,679;26974,740;25,73658
 897,58; 7105,521;  228,679;26837,587;25,84414
 898,14; 7093,290;  227,679;26705,740;25,92943
 898,70; 6989,444;  196,140;26521,433;25,80524
 899,25; 7057,444;  210,294;26541,740;26,00370
 899,81; 7057,598;  217,371;26378,202;26,14683
 900,37; 7001,983;  187,525;26079,894;26,31840
 900,92; 7001,675;  213,525;26093,048;26,22981
 901,48; 6977,598;  209,602;26053,279;26,18821
 902,03; 6955,213;  210,140;25818,740;26,33909
 902,59; 6958,290;  213,602;25710,510;26,45297
 903,15; 6935,598;  228,140;25576,202;26,46142
 903,70; 6869,213;  220,602;25382,587;26,42324
 904,26; 6837,290;  197,756;25265,356;26,48652
 904,82; 6893,521;  209,371;25302,202;26,63769
 905,37; 6864,675;  222,140;25079,510;26,72260
 905,93; 6864,829;  211,448;24944,971;26,90025
 906,48; 6852,290;  218,140;24824,279;26,96136
 907,04; 6822,983;  226,833;24824,740;26,81590
 907,60; 6783,290;  205,448;24573,356;26,99387
 908,15; 6744,906;  193,294;24495,202;26,95925
 908,71; 6763,906;  234,140;24481,587;26,92970
 909,26; 6772,598;  212,602;24315,048;27,21714
 909,82; 6730,367;  227,217;24178,433;27,15165
 910,37; 6735,906;  248,217;24143,433;27,15058
 910,93; 6672,060;  211,140;23932,356;27,23688
 911,48; 6631,137;  195,987;23748,740;27,32228
 912,04; 6610,598;  204,371;23688,894;27,27851
 912,60; 6618,829;  218,063;23709,663;27,24704
 913,15; 6599,444;  212,217;23494,202;27,43420
 913,71; 6536,444;  200,602;23282,587;27,44930
 914,26; 6562,444;  192,525;23220,817;27,66127
 914,82; 6508,290;  218,602;23132,510;27,44922
 915,37; 6506,752;  197,217;23068,587;27,58704
 915,93; 6570,290;  254,371;23015,663;27,74851
 916,48; 6453,444;  202,217;22835,894;27,61914
 917,04; 6444,521;  227,910;22721,510;27,63725
 917,59; 6472,060;  232,525;22648,433;27,83530
 918,15; 6326,906;  183,910;22479,740;27,55222
 918,70; 6378,137;  201,294;22344,510;27,89497
 919,26; 6380,290;  216,756;22277,663;27,93872
 919,81; 6316,137;  195,448;22119,125;27,91817
 920,37; 6281,213;  191,063;21986,587;27,94221
 920,92; 6271,521;  227,987;22000,202;27,75801
 921,48; 6243,444;  192,294;21781,971;28,02798
 922,03; 6237,752;  203,063;21755,202;28,00042
 922,59; 6235,060;  198,910;21551,356;28,26913
 923,14; 6205,290;  200,294;21536,971;28,14401
 923,69; 6253,829;  228,987;21373,510;28,49363
 924,25; 6254,521;  231,294;21373,279;28,48941
 924,80; 6188,906;  210,833;21137,125;28,56728
 925,36; 6191,829;  205,371;21097,433;28,65422
 925,91; 6163,675;  207,987;20935,202;28,73366
 926,47; 6160,829;  187,910;20840,663;28,92069
 927,02; 6188,060;  253,063;20835,817;28,83480
 927,57; 6101,060;  199,602;20660,740;28,84227
 928,13; 6109,829;  186,371;20612,663;28,99918
 928,68; 6107,752;  202,448;20522,587;29,06134
 929,24; 6037,444;  168,448;20419,663;28,98096
 929,79; 5970,367;  192,987;20219,971;28,84798
 930,34; 5979,290;  203,910;20070,894;29,07024
 930,90; 5967,137;  199,140;20103,587;28,97843
 931,45; 5951,444;  208,448;20063,971;28,92392
 932,01; 5982,290;  207,294;19824,894;29,43783
 932,56; 5941,213;  221,987;19795,894;29,21863
 933,11; 5945,521;  226,833;19744,663;29,29982
 933,67; 5891,137;  195,833;19569,740;29,39677
 934,22; 5859,598;  203,294;19479,663;29,34320
 934,77; 5887,521;  232,217;19436,202;29,44860
 935,33; 5809,521;  214,525;19295,279;29,32272
 935,88; 5818,983;  217,063;19181,510;29,53906
 936,43; 5820,675;  193,371;19164,663;29,66221
 936,99; 5794,213;  211,063;19027,510;29,67165
 937,54; 5702,290;  184,140;18841,894;29,57564
 938,09; 5753,598;  208,602;18791,740;29,83886
 938,65; 5744,213;  209,294;18645,817;30,02149
 939,20; 5703,598;  183,294;18601,740;29,97160
 939,75; 5686,290;  189,525;18505,356;30,01101
 940,31; 5630,521;  185,448;18393,971;29,90398
 940,86; 5693,983;  209,756;18389,048;30,16744
 941,41; 5718,060;  261,063;18269,817;30,30191
 941,96; 5638,829;  201,910;18149,433;30,29342
 942,52; 5642,137;  202,294;18048,125;30,48243
 943,07; 5576,752;  182,910;17949,125;30,36011
 943,62; 5562,137;  199,525;17862,740;30,36034
 944,18; 5530,521;  198,987;17755,663;30,36756
 944,73; 5588,521;  209,371;17721,510;30,71669
 945,28; 5464,060;  172,910;17468,510;30,59246
 945,83; 5515,290;  192,910;17503,740;30,74596
 946,39; 5525,290;  190,910;17489,740;30,83666
 946,94; 5511,521;  218,063;17365,510;30,87024
 947,49; 5511,752;  202,756;17228,740;31,18173
 948,04; 5527,521;  222,756;17257,663;31,14056
 948,59; 5486,060;  224,448;17127,510;31,12816
 949,15; 5388,983;  181,987;17016,356;30,93075
 949,70; 5416,213;  203,602;16957,587;31,11267
 950,25; 5435,521;  216,063;16872,894;31,33524
 950,80; 5340,290;  170,140;16704,125;31,26984
 951,36; 5335,906;  166,602;16642,279;31,37537
 951,91; 5407,598;  215,756;16653,279;31,58531
 952,46; 5308,137;  188,217;16474,125;31,43773
 953,01; 5357,906;  211,756;16479,279;31,63450
 953,56; 5298,213;  182,217;16339,663;31,66340
 954,11; 5315,521;  208,217;16342,971;31,65405
 954,67; 5251,675;  186,602;16240,433;31,55056
 955,22; 5221,752;  165,140;16065,125;31,80262
 955,77; 5254,367;  227,371;16076,510;31,71779
 956,32; 5270,983;  233,525;15970,125;32,01109
 956,87; 5172,983;  188,217;15816,356;31,89609
 957,42; 5190,521;  199,448;15744,202;32,10777
 957,98; 5161,983;  195,525;15677,125;32,07974
 958,53; 5167,367;  216,679;15685,894;32,00349
 959,08; 5131,444;  190,756;15538,048;32,19257
 959,63; 5099,213;  185,140;15422,356;32,25047
 960,18; 5119,598;  204,063;15400,817;32,34595
 960,73; 5102,675;  202,756;15353,048;32,34208
 961,28; 5024,290;  188,371;15228,510;32,15342
 961,83; 5067,906;  205,525;15224,510;32,37490
 962,39; 5030,521;  184,602;15026,894;32,64940
 962,94; 5055,444;  217,756;14998,510;32,72965
 963,49; 4983,213;  202,756;14846,048;32,64606
 964,04; 4996,983;  212,063;14804,971;32,78935
 964,59; 4934,444;  170,140;14735,356;32,71015
 965,14; 4966,444;  214,140;14637,740;32,94811
 965,69; 4908,444;  204,525;14532,356;32,83064
 966,24; 4874,444;  189,910;14443,894;32,86474
 966,79; 4904,367;  215,217;14397,125;33,06431
 967,34; 4850,444;  169,448;14195,587;33,37338
 967,89; 4843,906;  195,679;14179,048;33,24111
 968,44; 4840,367;  205,294;14128,740;33,28970
 968,99; 4817,675;  210,679;14066,740;33,24896
 969,55; 4787,367;  202,910;13953,817;33,33931
 970,10; 4793,137;  205,756;13867,587;33,57808
 970,65; 4799,752;  216,217;13742,587;33,88592
 971,20; 4732,752;  194,140;13683,510;33,64584
 971,75; 4678,444;  175,833;13469,356;33,87072
 972,30; 4717,290;  200,525;13451,663;34,08587
 972,85; 4671,675;  191,756;13365,125;34,00739
 973,40; 4638,444;  191,756;13249,663;34,05361
 973,95; 4638,137;  202,140;13220,740;34,07429
 974,50; 4623,521;  223,448;13146,894;34,04721
 975,05; 4601,906;  201,756;13000,279;34,38014
 975,60; 4585,752;  215,140;12978,894;34,24237
 976,15; 4574,598;  191,833;12840,663;34,64957
 976,70; 4556,829;  203,063;12794,356;34,57759
 977,25; 4557,367;  212,833;12717,817;34,74242
 977,80; 4462,060;  194,679;12616,433;34,35409
 978,35; 4442,598;  218,448;12468,048;34,48398
 978,89; 4421,598;  186,679;12345,510;34,82999
 979,44; 4429,521;  197,756;12355,971;34,80581
 979,99; 4324,213;  186,910;12160,510;34,55355
 980,54; 4335,675;  227,987;12152,356;34,44785
 981,09; 4326,444;  219,140;12073,433;34,64824
 981,64; 4261,598;  206,833;11907,663;34,65365
 982,19; 4331,829;  235,910;11902,510;35,10808
 982,74; 4252,060;  214,987;11733,971;35,04713
 983,29; 4167,521;  191,756;11599,356;34,85190
 983,84; 4168,675;  209,525;11474,202;35,14659
 984,39; 4239,829;  262,833;11432,587;35,60505
 984,94; 4085,521;  178,294;11322,971;35,05913
 985,49; 4125,213;  231,679;11240,587;35,36713
 986,03; 4090,213;  225,217;11184,587;35,26659
 986,58; 4059,983;  245,448;11041,740;35,33189
 987,13; 3985,290;  207,910;10894,587;35,34664
 987,68; 3990,213;  222,140;10822,125;35,54791
 988,23; 3991,829;  221,063;10802,048;35,63719
 988,78; 3900,752;  193,063;10655,433;35,43833
 989,33; 3904,829;  216,833;10548,125;35,69734
 989,88; 3918,060;  224,756;10489,740;35,97963
 990,42; 3808,829;  210,679;10372,433;35,40875
 990,97; 3796,367;  210,833;10237,356;35,76050
 991,52; 3776,675;  229,140;10154,125;35,74348
 992,07; 3774,060;  237,910;10121,663;35,77740
 992,62; 3739,752;  222,448; 9972,356;36,07525
 993,17; 3702,444;  221,448; 9894,663;35,98593
 993,71; 3681,829;  222,756; 9765,433;36,24846
 994,26; 3585,367;  201,371; 9678,125;35,70839
 994,81; 3654,213;  221,140; 9602,510;36,59458
 995,36; 3567,906;  204,371; 9478,894;36,26639
 995,91; 3597,752;  217,679; 9431,356;36,68539
 996,45; 3540,060;  205,140; 9270,279;36,78840
 997,00; 3489,675;  189,987; 9123,740;36,93507
 997,55; 3500,983;  216,987; 9109,587;36,92954
 998,10; 3459,444;  242,756; 8988,433;36,78033
 998,65; 3442,444;  204,140; 8947,356;37,03791
 999,19; 3385,444;  221,371; 8811,663;36,83312
 999,74; 3348,444;  236,987; 8739,510;36,59452
1000,29; 3314,906;  226,294; 8655,202;36,64308
1000,84; 3293,752;  201,679; 8495,894;37,27987
1001,38; 3254,598;  213,217; 8413,971;37,08660
1001,93; 3248,675;  229,910; 8355,356;37,15200
1002,48; 3178,367;  204,448; 8209,125;37,15227
1003,03; 3179,829;  223,910; 8186,894;37,12075
1003,57; 3142,752;  227,833; 8108,663;36,98746
1004,12; 3179,213;  256,371; 7949,048;37,99513
1004,67; 3087,521;  210,602; 7886,356;37,48061
1005,22; 3015,290;  205,448; 7729,125;37,34666
1005,76; 3000,829;  197,833; 7624,356;37,74305
1006,31; 2984,367;  228,217; 7583,894;37,46970
1006,86; 2937,444;  215,140; 7489,663;37,42244
1007,40; 2869,290;  202,602; 7323,587;37,44831
1007,95; 2913,752;  223,910; 7254,587;38,25865
1008,50; 2848,137;  215,910; 7108,048;38,19173
1009,04; 2816,213;  211,987; 7077,894;37,92983
1009,59; 2773,521;  215,525; 6945,279;38,01025
1010,14; 2727,675;  191,063; 6864,587;38,01008
1010,68; 2709,213;  202,217; 6776,971;38,13065
1011,23; 2670,444;  211,987; 6622,356;38,35127
1011,78; 2661,290;  223,525; 6594,279;38,26494
1012,32; 2644,444;  225,910; 6476,740;38,69141
1012,87; 2654,752;  240,063; 6461,279;38,81377
1013,42; 2571,213;  198,602; 6310,740;38,81803
1013,96; 2607,444;  235,063; 6342,587;38,84358
1014,51; 2530,598;  176,679; 6239,510;38,82542
1015,06; 2527,983;  194,294; 6241,663;38,59014
1015,60; 2585,444;  250,756; 6316,817;38,48771
1016,15; 2545,137;  204,140; 6243,894;38,75979
1016,69; 2561,367;  205,371; 6311,587;38,58357
1017,24; 2538,983;  193,371; 6283,202;38,51686
1017,79; 2622,367;  236,756; 6368,663;38,90488
1018,33; 2584,675;  201,063; 6299,663;39,08457
1018,88; 2579,521;  222,679; 6390,048;38,21471
1019,42; 2603,521;  206,987; 6383,202;38,80264
1019,97; 2590,598;  202,525; 6343,279;38,88892
1020,51; 2632,060;  224,679; 6435,125;38,76341
1021,06; 2612,444;  196,679; 6409,048;38,88638
1021,61; 2557,444;  177,525; 6367,587;38,44742
1022,15; 2548,752;  168,140; 6285,279;38,91708
1022,70; 2588,060;  201,987; 6293,663;39,16940
1023,24; 2589,367;  194,217; 6266,125;39,44642
1023,79; 2575,752;  207,602; 6194,279;39,55700
1024,33; 2546,598;  189,140; 6167,740;39,43160
1024,88; 2514,444;  221,371; 6046,740;39,36357
1025,42; 2512,213;  211,140; 5985,356;39,85084
1025,97; 2471,290;  199,833; 5905,663;39,80941
1026,51; 2391,060;  176,063; 5792,817;39,43552
1027,06; 2408,752;  192,217; 5716,433;40,12397
1027,60; 2387,983;  216,217; 5660,356;39,89181
1028,15; 2364,983;  214,910; 5538,048;40,39108
1028,69; 2289,367;  173,602; 5427,894;40,26737
1029,24; 2286,906;  187,294; 5382,663;40,41313
1029,78; 2258,598;  189,910; 5295,048;40,52169
1030,33; 2221,290;  178,679; 5186,817;40,78584
1030,87; 2193,752;  195,679; 5110,356;40,65523
1031,42; 2172,060;  175,833; 5040,510;41,03514
1031,96; 2160,367;  207,525; 4971,587;40,99112
1032,51; 2116,060;  184,833; 4889,202;41,05177
1033,05; 2123,675;  204,679; 4859,971;41,22182
1033,60; 2041,444;  165,525; 4725,971;41,13455
1034,14; 2047,137;  191,679; 4665,971;41,46930
1034,69; 2044,060;  202,140; 4596,433;41,91617
1035,23; 1992,060;  195,987; 4562,356;41,13425
1035,77; 1972,521;  190,448; 4520,048;41,16022
1036,32; 1937,290;  169,525; 4409,433;41,69349
1036,86; 1935,829;  201,679; 4379,817;41,50533
1037,41; 1916,137;  205,756; 4278,279;41,99806
1037,95; 1873,137;  181,679; 4218,971;41,89584
1038,50; 1850,752;  187,217; 4162,510;41,84685
1039,04; 1842,983;  213,910; 4120,587;41,69971
1039,58; 1779,752;  186,140; 4047,740;41,26817
1040,13; 1758,367;  197,525; 3989,048;41,16663
1040,67; 1787,213;  229,448; 3970,817;41,63624
1041,21; 1762,598;  213,140; 3912,740;41,88176
1041,76; 1700,521;  179,679; 3816,356;41,81956
1042,30; 1700,829;  204,063; 3788,125;41,76171
1042,85; 1659,444;  200,448; 3725,971;41,38382
1043,39; 1638,983;  166,910; 3647,125;42,29833
1043,93; 1648,290;  211,217; 3640,894;41,90112
1044,48; 1636,137;  215,679; 3562,663;42,43992
1045,02; 1594,367;  197,525; 3481,279;42,53797
1045,56; 1609,060;  215,294; 3502,971;42,39362
1046,11; 1562,290;  206,756; 3442,894;41,88741
1046,65; 1543,444;  208,448; 3371,663;42,20377
1047,19; 1531,983;  188,063; 3327,279;42,81067
1047,74; 1493,060;  184,833; 3238,510;42,84104
1048,28; 1481,983;  201,910; 3227,279;42,31130
1048,82; 1495,444;  212,833; 3210,510;42,78685
1049,37; 1481,290;  214,602; 3148,048;43,18090
1049,91; 1471,060;  197,756; 3114,433;43,65598
1050,45; 1437,983;  219,140; 3066,971;42,79897
1050,99; 1401,906;  201,294; 3028,587;42,46507
1051,54; 1395,213;  197,756; 2964,587;43,27904
1052,08; 1395,906;  220,217; 2919,125;43,56164
1052,62; 1374,060;  211,756; 2906,356;43,13456
1053,16; 1326,521;  191,525; 2845,894;42,75954
1053,71; 1332,906;  203,756; 2818,202;43,18888
1054,25; 1338,675;  216,371; 2767,125;43,99891
1054,79; 1294,060;  212,910; 2723,048;43,07133
1055,33; 1257,060;  177,602; 2670,279;43,30516
1055,88; 1266,521;  215,371; 2668,587;42,84785
1056,42; 1251,137;  222,987; 2646,817;42,41839
1056,96; 1236,598;  217,140; 2583,048;43,08950
1057,50; 1218,137;  211,371; 2545,433;43,13363
1058,05; 1194,290;  200,987; 2502,356;43,16143
1058,59; 1203,675;  229,294; 2489,279;43,11449
1059,13; 1147,675;  186,525; 2424,894;42,93974
1059,67; 1175,829;  224,448; 2421,433;43,30393
1060,21; 1142,521;  213,063; 2344,817;43,60061
1060,76; 1138,213;  221,602; 2316,433;43,75588
1061,30; 1148,521;  226,910; 2312,279;44,19417
1061,84; 1115,829;  213,448; 2244,202;44,43575
1062,38; 1080,829;  192,063; 2193,048;44,41640
1062,92; 1117,521;  240,910; 2237,279;43,91029
1063,46; 1085,983;  224,679; 2158,433;44,54051
1064,01; 1072,675;  204,217; 2134,894;44,98203
1064,55; 1045,521;  213,140; 2102,048;44,06678
1065,09; 1012,983;  185,063; 2060,048;44,15605
1065,63; 1050,829;  239,140; 2071,202;44,30465
1066,17; 1050,444;  242,217; 2045,971;44,80805
1066,71; 1037,060;  226,217; 2023,587;45,11273
1067,25; 1005,675;  211,294; 1967,433;45,23452
1067,80; 1017,367;  219,679; 1961,433;45,79800
1068,34; 1019,213;  242,756; 1928,971;46,04736
1068,88;  972,752;  201,448; 1891,510;45,63762
1069,42;  987,290;  241,294; 1921,433;44,40087
1069,96;  965,137;  200,217; 1850,279;46,35701
1070,50;  973,675;  241,910; 1861,433;45,18400
1071,04;  931,521;  192,756; 1814,817;45,54484
1071,58;  933,367;  210,602; 1809,510;45,20370
1072,12;  919,290;  207,987; 1767,971;45,59685
1072,66;  910,367;  205,602; 1757,356;45,41734
1073,21;  926,060;  228,371; 1752,202;45,78517
1073,75;  899,444;  226,602; 1707,202;45,44389
1074,29;  893,213;  218,371; 1684,433;46,03097
1074,83;  898,060;  233,140; 1701,125;45,29470
1075,37;  877,829;  230,525; 1658,202;45,33966
1075,91;  872,598;  224,987; 1647,663;45,52063
1076,45;  862,752;  217,063; 1628,894;45,73413
1076,99;  858,675;  236,756; 1589,125;45,98738
1077,53;  824,906;  206,525; 1573,971;45,22158
1078,07;  833,213;  222,525; 1573,433;45,20579
1078,61;  819,598;  217,833; 1538,894;45,55165
1079,15;  815,598;  212,525; 1524,663;45,96109
1079,69;  801,675;  216,140; 1491,433;45,91376
1080,23;  821,521;  233,833; 1482,587;47,06199
1080,77;  855,060;  267,910; 1506,048;47,42200
1081,31;  775,906;  213,679; 1440,894;45,81322
1081,85;  794,829;  224,602; 1452,048;46,45637
1082,39;  762,137;  209,294; 1414,663;45,86498
1082,93;  765,444;  221,063; 1410,894;45,75279
1083,47;  739,752;  196,140; 1361,971;46,62868
1084,01;  761,444;  236,140; 1391,587;45,46329
1084,55;  731,906;  209,987; 1330,510;46,57818
1085,09;  747,906;  230,448; 1354,202;46,04725
1085,63;  733,983;  214,371; 1322,894;46,87422
1086,17;  719,137;  212,679; 1282,433;47,34339
1086,71;  703,983;  213,910; 1289,356;45,56928
1087,24;  723,906;  232,140; 1300,663;46,02291
1087,78;  725,060;  224,833; 1273,817;47,68677
1088,32;  682,521;  215,217; 1228,202;46,13139
1088,86;  711,290;  241,987; 1251,202;46,50185
1089,40;  685,675;  217,602; 1222,433;46,58228
1089,94;  655,213;  195,833; 1181,433;46,60925
1090,48;  668,752;  226,833; 1185,279;46,10788
1091,02;  670,367;  232,833; 1181,587;46,11677
1091,56;  665,521;  218,756; 1171,971;46,86930
1092,10;  631,290;  200,217; 1147,971;45,48365
1092,63;  677,906;  234,987; 1154,740;48,15628
1093,17;  658,983;  233,294; 1125,587;47,70729
1093,71;  639,598;  209,294; 1113,279;47,60079
1094,25;  657,829;  235,448; 1131,817;47,12129
1094,79;  622,752;  218,371; 1087,048;46,55134
1095,33;  637,829;  220,679; 1067,279;49,27356
1095,87;  620,829;  228,448; 1063,817;46,97094
1096,40;  594,906;  198,679; 1024,663;47,97025
1096,94;  603,675;  216,987; 1045,894;46,65036
1097,48;  613,906;  219,833; 1024,048;49,00094
1098,02;  604,598;  211,371; 1015,894;48,87702
1098,56;  564,983;  189,679;  980,048;47,48462
1099,10;  564,213;  185,833;  971,894;48,13628
1099,63;  566,213;  200,987;  948,587;48,85325
1100,17;  579,752;  222,602;  979,433;47,19021
1100,71;  603,829;  243,140;  987,433;48,46059

