
Integration time [ms]: 160,000
Averaging Nr. [scans]: 13
Smoothing Nr. [pixels]: 0
Data measured with spectrometer [name]: 2009305U1
Wave   ;Sample   ;Dark     ;Reference;Reflectance
[nm]   ;[counts] ;[counts] ;[counts] ;[%]

 175,72;  204,175;  192,833;  205,653;88,46952
 176,32;  219,297;  215,986;  216,813; 0,00000
 176,92;  257,395;  247,602;  254,971;132,89346
 177,52;  265,378;  255,679;  265,678;97,00065
 178,12;  233,797;  239,756;  224,864; 0,00000
 178,72;  259,891;  257,525;  250,340; 0,00000
 179,32;  252,902;  248,909;  241,998; 0,00000
 179,92;  257,297;  247,063;  242,319; 0,00000
 180,52;  235,759;  235,064;  254,068; 3,65887
 181,12;  253,045;  243,833;  252,404;107,47720
 181,73;  261,538;  258,371;  266,338;39,75719
 182,33;  337,095;  327,141;  336,927;101,71812
 182,93;  268,567;  265,064;  266,645;221,47543
 183,53;  242,825;  233,755;  224,030; 0,00000
 184,13;  236,321;  236,909;  229,431; 0,00000
 184,73;  274,524;  266,448;  273,739;110,76902
 185,33;  255,261;  232,445;  341,197;20,98032
 185,93;  253,331;  226,213;  348,375;22,19778
 186,53;  280,023;  244,675;  370,650;28,05949
 187,13;  294,737;  273,291;  414,063;15,23455
 187,73;  260,635;  243,598;  361,495;14,45063
 188,33;  267,208;  237,983;  370,649;22,02942
 188,93;  280,193;  250,059;  374,130;24,28794
 189,53;  274,322;  248,981;  393,125;17,58016
 190,13;  310,604;  274,058;  409,924;26,89888
 190,73;  240,944;  218,289;  365,019;15,44001
 191,34;  287,235;  256,905;  385,888;23,51491
 191,94;  259,533;  235,829;  359,614;19,14963
 192,54;  278,535;  240,984;  391,391;24,96617
 193,14;  277,824;  258,291;  390,009;14,82977
 193,74;  284,108;  260,214;  377,424;20,38530
 194,34;  284,503;  241,445;  388,106;29,35883
 194,94;  240,475;  209,983;  342,899;22,94039
 195,54;  206,674;  190,137;  332,970;11,57775
 196,14;  253,776;  225,291;  354,341;22,07257
 196,74;  237,457;  223,445;  343,719;11,65031
 197,34;  221,895;  197,522;  345,903;16,42574
 197,94;  258,031;  232,368;  373,573;18,17409
 198,54;  249,457;  228,599;  383,909;13,43028
 199,14;  235,297;  215,368;  380,241;12,08731
 199,74;  240,031;  190,292;  370,197;27,64782
 200,34;  229,402;  195,061;  379,885;18,58052
 200,94;  263,077;  233,599;  425,936;15,32603
 201,54;  238,986;  216,753;  432,596;10,30050
 202,14;  264,021;  230,061;  474,093;13,91626
 202,74;  256,993;  213,907;  473,146;16,62018
 203,34;  240,458;  180,907;  480,577;19,87224
 203,94;  214,077;  170,753;  486,255;13,73171
 204,54;  291,824;  238,445;  563,211;16,43632
 205,14;  242,133;  203,984;  571,733;10,37363
 205,74;  298,221;  236,907;  659,589;14,50579
 206,34;  270,353;  200,215;  679,015;14,64882
 206,94;  281,171;  210,138;  728,140;13,71299
 207,54;  263,238;  191,907;  773,579;12,26306
 208,14;  285,290;  194,522;  845,836;13,93612
 208,74;  293,325;  198,907;  918,683;13,11772
 209,34;  291,829;  202,215;  992,970;11,33271
 209,94;  321,888;  202,753; 1089,013;13,44245
 210,54;  313,944;  195,292; 1187,450;11,95904
 211,14;  341,112;  194,368; 1267,179;13,67841
 211,73;  344,731;  197,830; 1399,958;12,22005
 212,33;  372,496;  214,830; 1495,442;12,31180
 212,93;  349,395;  201,830; 1569,925;10,78616
 213,53;  342,829;  168,522; 1613,023;12,06689
 214,13;  372,840;  193,369; 1705,053;11,87224
 214,73;  374,790;  179,907; 1721,786;12,63934
 215,33;  344,503;  163,830; 1742,628;11,44373
 215,93;  417,500;  194,523; 1862,662;13,36685
 216,53;  374,531;  157,753; 1944,199;12,13462
 217,13;  449,745;  209,061; 2159,512;12,33991
 217,73;  464,430;  196,599; 2334,342;12,52868
 218,33;  474,882;  149,754; 2512,186;13,76243
 218,93;  544,225;  177,292; 2802,474;13,97741
 219,53;  594,154;  179,830; 3052,680;14,42205
 220,13;  611,483;  166,677; 3342,899;14,00426
 220,73;  682,972;  178,292; 3659,770;14,49615
 221,32;  762,479;  192,215; 4073,836;14,69139
 221,92;  825,270;  184,984; 4477,909;14,91490
 222,52;  873,777;  163,446; 4867,162;15,10148
 223,12;  955,364;  187,984; 5286,413;15,05130
 223,72; 1030,867;  189,369; 5644,061;15,42706
 224,32; 1090,630;  186,830; 5997,482;15,55418
 224,92; 1126,147;  168,830; 6323,312;15,55479
 225,52; 1214,829;  197,753; 6670,557;15,71306
 226,12; 1281,539;  180,753; 6972,357;16,20803
 226,72; 1296,227;  160,753; 7292,274;15,92191
 227,31; 1367,668;  151,984; 7646,565;16,22084
 227,91; 1476,916;  194,138; 8071,656;16,28404
 228,51; 1536,902;  165,984; 8435,636;16,57770
 229,11; 1601,497;  184,907; 8840,069;16,36699
 229,71; 1682,409;  170,830; 9126,800;16,87789
 230,31; 1753,630;  168,369; 9555,531;16,88754
 230,91; 1804,143;  158,599; 9813,841;17,04301
 231,51; 1865,794;  163,753;10061,634;17,19601
 232,10; 1953,056;  164,907;10384,972;17,49646
 232,70; 1986,118;  181,445;10581,029;17,35332
 233,30; 2076,605;  195,753;10813,411;17,71438
 233,90; 2066,046;  167,984;10937,933;17,62368
 234,50; 2098,014;  169,984;11059,818;17,70486
 235,10; 2104,455;  171,292;10974,158;17,89491
 235,70; 2140,864;  182,907;11013,347;18,07828
 236,29; 2166,615;  178,907;10902,340;18,53612
 236,89; 2109,993;  160,907;10792,462;18,33303
 237,49; 2127,451;  183,907;10632,310;18,60135
 238,09; 2056,892;  172,753;10341,707;18,52834
 238,69; 2047,125;  207,676;10098,604;18,59734
 239,29; 1937,990;  164,138; 9734,699;18,53446
 239,89; 1882,706;  172,907; 9401,017;18,52816
 240,48; 1767,871;  167,215; 8971,537;18,18034
 241,08; 1726,458;  164,522; 8611,278;18,49155
 241,68; 1667,986;  188,215; 8278,664;18,29035
 242,28; 1563,567;  156,215; 7940,130;18,08026
 242,88; 1541,651;  197,061; 7665,624;18,00333
 243,48; 1447,948;  202,138; 7348,585;17,43258
 244,07; 1356,203;  196,215; 7158,640;16,66069
 244,67; 1318,759;  189,599; 6950,593;16,70109
 245,27; 1262,731;  189,214; 6813,419;16,20596
 245,87; 1254,518;  193,677; 6751,769;16,17607
 246,47; 1210,136;  180,522; 6743,128;15,68910
 247,06; 1186,748;  173,599; 6743,421;15,42125
 247,66; 1133,500;  171,676; 6819,743;14,46772
 248,26; 1169,182;  200,830; 7000,936;14,24025
 248,86; 1174,528;  197,445; 7154,654;14,04417
 249,46; 1135,137;  145,599; 7378,217;13,68159
 250,05; 1184,171;  199,830; 7771,472;13,00037
 250,65; 1184,290;  152,599; 8058,257;13,05003
 251,25; 1219,923;  170,984; 8552,490;12,51492
 251,85; 1283,597;  170,830; 9127,877;12,42338
 252,44; 1294,150;  137,061; 9680,974;12,12385
 253,04; 1399,664;  188,215;10445,847;11,81023
 253,64; 1446,993;  136,830;11140,049;11,90709
 254,24; 1589,514;  193,061;12050,132;11,77739
 254,84; 1641,829;  169,830;13024,525;11,45106
 255,43; 1790,398;  179,676;13965,778;11,68367
 256,03; 1865,349;  176,907;14933,069;11,44229
 256,63; 1978,125;  184,599;15959,061;11,36981
 257,23; 2097,143;  171,753;16835,711;11,55422
 257,82; 2233,510;  182,599;17818,426;11,62923
 258,42; 2316,206;  143,753;18720,590;11,69442
 259,02; 2475,150;  189,522;19585,306;11,78415
 259,62; 2596,275;  171,445;20283,193;12,05679
 260,21; 2673,391;  174,291;20811,251;12,10983
 260,81; 2767,916;  185,907;21379,753;12,18282
 261,41; 2860,552;  151,137;21814,664;12,50680
 262,01; 2980,922;  198,214;22356,130;12,55853
 262,60; 3029,374;  159,060;22637,173;12,76937
 263,20; 3135,524;  176,445;23055,648;12,93349
 263,80; 3223,408;  194,906;23123,820;13,20822
 264,40; 3269,824;  149,752;23365,215;13,43963
 264,99; 3384,128;  181,983;23636,262;13,65271
 265,59; 3461,604;  166,214;23828,529;13,92674
 266,19; 3556,373;  157,752;24024,776;14,23982
 266,78; 3661,335;  197,445;24085,499;14,50051
 267,38; 3662,380;  186,368;24190,233;14,48105
 267,98; 3747,649;  170,906;24143,256;14,92029
 268,58; 3797,590;  186,137;24183,756;15,04921
 269,17; 3867,159;  173,752;24133,851;15,41483
 269,77; 3901,538;  192,522;23966,940;15,60087
 270,37; 3891,691;  161,368;23855,106;15,74392
 270,96; 3941,269;  214,830;23796,071;15,80256
 271,56; 3972,951;  179,676;23480,276;16,27973
 272,16; 4004,436;  169,060;23368,768;16,53200
 272,75; 4031,146;  169,522;23244,494;16,73512
 273,35; 4081,174;  186,753;23207,061;16,91733
 273,95; 4125,573;  180,291;23273,296;17,08431
 274,54; 4166,196;  158,061;23319,855;17,30494
 275,14; 4324,709;  185,830;23690,387;17,60884
 275,74; 4341,314;  157,830;23677,369;17,78727
 276,33; 4505,122;  197,983;24100,569;18,01955
 276,93; 4586,203;  184,138;24473,251;18,12361
 277,53; 4732,196;  181,984;25015,911;18,32256
 278,12; 4889,091;  152,830;25597,349;18,61407
 278,72; 5101,905;  215,676;26084,768;18,88829
 279,32; 5243,692;  184,830;26655,470;19,11122
 279,91; 5416,454;  151,984;27296,689;19,39410
 280,51; 5614,500;  164,061;27885,853;19,66121
 281,11; 5799,818;  165,368;28515,442;19,87455
 281,70; 5944,573;  153,676;28993,081;20,07981
 282,30; 6206,720;  163,599;29674,353;20,47769
 282,90; 6336,381;  168,753;30003,444;20,67267
 283,49; 6556,293;  190,983;30517,786;20,98906
 284,09; 6753,468;  200,214;30896,231;21,34887
 284,69; 6943,465;  194,907;31311,375;21,68806
 285,28; 7078,272;  181,907;31608,199;21,94457
 285,88; 7302,251;  231,060;31904,705;22,32516
 286,47; 7403,108;  181,137;31901,565;22,76757
 287,07; 7578,189;  202,984;31975,438;23,21258
 287,67; 7738,563;  185,830;32122,739;23,64892
 288,26; 7904,126;  169,599;32037,774;24,27038
 288,86; 8051,884;  168,676;32056,294;24,72185
 289,46; 8320,846;  193,984;32185,292;25,40334
 290,05; 8459,112;  172,368;32376,766;25,73171
 290,65; 8677,094;  173,907;32494,359;26,30900
 291,24; 8945,259;  178,138;32665,551;26,98621
 291,84; 9153,279;  184,830;32740,907;27,54770
 292,44; 9387,577;  179,061;33002,715;28,05451
 293,03; 9650,248;  246,907;32988,735;28,71966
 293,63; 9777,898;  176,599;33084,504;29,17627
 294,22; 9969,059;  190,753;33347,104;29,49150
 294,82;10052,590;  182,060;33256,310;29,84355
 295,41;10052,189;  155,291;33060,774;30,07674
 296,01;10216,083;  208,214;33008,575;30,51146
 296,61;10158,129;  182,753;32641,087;30,73287
 297,20;10109,373;  186,522;32323,950;30,87631
 297,80;10062,955;  194,984;32156,885;30,87417
 298,39;10015,213;  164,060;31774,877;31,16387
 298,99;10035,597;  189,214;31656,241;31,29111
 299,58; 9968,717;  192,292;31571,638;31,15561
 300,18; 9897,822;  209,445;31366,877;31,09491
 300,78; 9785,881;  177,599;30948,409;31,22531
 301,37; 9774,195;  193,291;30891,191;31,21029
 301,97; 9805,517;  188,061;30939,660;31,27465
 302,56; 9748,608;  187,137;30906,361;31,12537
 303,16; 9711,667;  173,753;30840,917;31,10139
 303,75; 9689,332;  174,368;30857,002;31,01091
 304,35; 9741,004;  166,830;31103,257;30,94790
 304,94; 9728,052;  179,138;31040,448;30,94138
 305,54; 9663,710;  201,215;31020,913;30,70275
 306,13; 9560,175;  164,984;31012,753;30,45663
 306,73; 9509,238;  168,138;30770,960;30,52366
 307,33; 9463,766;  192,369;30714,351;30,37613
 307,92; 9413,038;  185,061;30785,136;30,15672
 308,52; 9465,881;  165,830;31199,806;29,96732
 309,11; 9606,706;  172,137;31705,231;29,91958
 309,71; 9644,394;  168,599;31935,792;29,82887
 310,30; 9631,944;  160,061;32195,179;29,56719
 310,90; 9663,713;  198,061;32541,025;29,26650
 311,49; 9631,136;  179,214;32617,051;29,13857
 312,09; 9594,073;  152,599;32789,355;28,92896
 312,68; 9751,905;  218,291;33185,330;28,91862
 313,28; 9691,192;  159,907;33317,674;28,74526
 313,87; 9574,168;  153,830;33457,421;28,28625
 314,47; 9629,615;  169,214;33719,073;28,19803
 315,06; 9561,552;  155,291;33846,369;27,91915
 315,66; 9555,535;  156,061;33991,278;27,78015
 316,25; 9415,167;  145,291;34000,199;27,38119
 316,85; 9355,357;  140,215;34012,972;27,20517
 317,44; 9315,118;  163,445;34187,697;26,89750
 318,04; 9209,940;  154,368;34156,383;26,63246
 318,63; 9091,248;  146,292;34237,622;26,23822
 319,22; 9046,503;  171,445;34452,357;25,88921
 319,82; 8941,748;  162,137;34418,304;25,62928
 320,41; 8848,982;  181,214;34371,699;25,35140
 321,01; 8734,301;  184,907;34386,656;24,99695
 321,60; 8657,744;  176,214;34477,630;24,72647
 322,20; 8546,496;  164,599;34382,000;24,49601
 322,79; 8486,870;  198,368;34501,800;24,16231
 323,39; 8416,528;  170,907;34565,974;23,97327
 323,98; 8299,479;  149,522;34508,529;23,72000
 324,58; 8217,353;  154,368;34408,391;23,53880
 325,17; 8032,405;  176,599;34190,879;23,09561
 325,76; 7895,720;  187,830;34036,681;22,77150
 326,36; 7716,654;  143,368;33626,517;22,61820
 326,95; 7616,454;  193,753;33357,126;22,38223
 327,55; 7435,146;  148,676;32972,948;22,19842
 328,14; 7260,245;  161,292;32580,644;21,89727
 328,74; 7133,797;  189,830;32167,636;21,71496
 329,33; 6971,129;  178,907;31731,391;21,52674
 329,92; 6749,164;  156,214;31253,788;21,20085
 330,52; 6566,657;  173,753;30573,956;21,02915
 331,11; 6387,140;  171,445;30177,215;20,71500
 331,71; 6230,685;  165,522;29557,766;20,63525
 332,30; 6001,283;  177,445;29149,371;20,10166
 332,89; 5925,168;  213,984;28628,725;20,09937
 333,49; 5723,003;  187,907;28086,942;19,83974
 334,08; 5508,828;  175,368;27697,286;19,37896
 334,68; 5400,552;  180,907;27293,964;19,25141
 335,27; 5263,909;  186,215;26952,612;18,97041
 335,86; 5180,447;  224,753;26641,446;18,75971
 336,46; 5079,598;  181,061;26461,399;18,63955
 337,05; 4935,580;  171,599;26265,353;18,25717
 337,65; 4858,178;  153,291;26054,626;18,16465
 338,24; 4804,909;  213,907;26069,851;17,75608
 338,83; 4761,357;  192,984;25957,438;17,73130
 339,43; 4668,856;  167,984;25897,909;17,49275
 340,02; 4581,534;  162,291;25866,857;17,19244
 340,61; 4557,619;  170,138;25836,938;17,09399
 341,21; 4571,797;  208,137;25858,636;17,01199
 341,80; 4488,961;  175,368;25826,808;16,81618
 342,40; 4464,105;  170,292;25890,158;16,69454
 342,99; 4412,629;  165,445;25947,187;16,47361
 343,58; 4390,745;  177,368;26189,622;16,19766
 344,18; 4369,035;  195,522;26373,073;15,94310
 344,77; 4343,118;  164,599;26529,948;15,84853
 345,36; 4368,454;  148,676;26879,818;15,78600
 345,96; 4421,996;  201,984;27219,638;15,61946
 346,55; 4352,756;  151,369;27427,300;15,40328
 347,14; 4379,367;  152,907;27772,144;15,30260
 347,74; 4425,878;  143,292;28192,844;15,26793
 348,33; 4479,735;  164,677;28854,944;15,04015
 348,92; 4534,700;  178,061;29402,688;14,90742
 349,52; 4545,336;  140,215;29849,887;14,82723
 350,11; 4572,751;  175,907;30115,958;14,68549
 350,70; 4530,587;  167,061;30103,798;14,57583
 351,29; 4461,160;  160,291;29828,098;14,49675
 351,89; 4458,003;  176,983;29840,031;14,43216
 352,48; 4386,787;  155,215;29908,351;14,22227
 353,07; 4407,588;  174,599;29796,583;14,29002
 353,67; 4367,693;  189,215;29796,109;14,11319
 354,26; 4315,762;  164,676;29465,729;14,16702
 354,85; 4256,080;  173,907;29381,496;13,97641
 355,45; 4194,804;  158,830;29187,341;13,90348
 356,04; 4172,647;  168,753;29179,958;13,80120
 356,63; 4172,682;  200,676;28979,836;13,80167
 357,22; 4145,121;  176,675;28835,197;13,84735
 357,82; 4094,296;  173,829;28527,954;13,82680
 358,41; 4080,636;  190,291;28522,847;13,73101
 359,00; 4007,097;  155,907;28267,802;13,69951
 359,60; 4026,129;  174,676;28241,266;13,72255
 360,19; 4015,825;  174,292;28045,826;13,78300
 360,78; 3970,926;  177,984;27864,379;13,69966
 361,37; 3954,507;  169,061;27730,181;13,73473
 361,97; 3963,279;  169,676;27624,442;13,81765
 362,56; 3897,545;  167,753;27299,264;13,74709
 363,15; 3916,601;  202,830;27001,114;13,85824
 363,74; 3857,052;  174,291;26660,845;13,90427
 364,34; 3821,276;  194,291;26339,415;13,87251
 364,93; 3757,157;  163,291;25935,873;13,94453
 365,52; 3667,447;  141,445;25588,830;13,85605
 366,11; 3735,723;  173,599;25238,079;14,21184
 366,71; 3678,195;  160,907;24896,203;14,21972
 367,30; 3634,202;  173,522;24575,417;14,18201
 367,89; 3662,028;  207,215;24348,725;14,31068
 368,48; 3642,213;  182,291;24090,525;14,47167
 369,07; 3582,972;  178,138;23657,413;14,50145
 369,67; 3571,863;  203,291;23383,363;14,53219
 370,26; 3545,056;  163,445;23103,863;14,74084
 370,85; 3555,437;  177,137;22920,245;14,85417
 371,44; 3522,370;  163,214;22611,778;14,96379
 372,03; 3494,440;  151,907;22418,770;15,01125
 372,63; 3469,737;  141,984;22051,743;15,18845
 373,22; 3462,472;  162,368;21824,363;15,23453
 373,81; 3450,580;  140,907;21614,122;15,41303
 374,40; 3476,409;  153,522;21310,691;15,70573
 374,99; 3452,625;  157,753;21122,573;15,71620
 375,59; 3445,734;  163,061;20765,855;15,93315
 376,18; 3495,105;  191,522;20688,377;16,11751
 376,77; 3483,573;  184,368;20538,952;16,20866
 377,36; 3494,098;  194,599;20427,029;16,30797
 377,95; 3489,895;  181,291;20167,268;16,55462
 378,55; 3468,378;  164,907;19976,041;16,67482
 379,14; 3538,779;  177,522;19901,675;17,04133
 379,73; 3538,671;  165,676;19853,332;17,13254
 380,32; 3601,136;  183,984;19873,181;17,35547
 380,91; 3625,713;  159,676;19667,575;17,76735
 381,50; 3631,279;  181,137;19730,834;17,64806
 382,10; 3629,136;  165,599;19588,104;17,83260
 382,69; 3643,825;  153,061;19536,843;18,00869
 383,28; 3753,083;  185,214;19485,519;18,48608
 383,87; 3713,832;  170,599;19354,118;18,47019
 384,46; 3756,468;  156,599;19303,219;18,80159
 385,05; 3795,730;  194,368;19336,249;18,81404
 385,64; 3833,108;  173,984;19253,926;19,17786
 386,24; 3842,538;  151,214;19260,693;19,31672
 386,83; 3915,723;  185,676;19307,347;19,50691
 387,42; 4001,576;  185,907;19437,221;19,82031
 388,01; 4082,219;  175,906;19692,501;20,01534
 388,60; 4188,436;  180,060;19935,642;20,28984
 389,19; 4242,712;  162,521;20071,470;20,49425
 389,78; 4372,859;  163,137;20300,531;20,90500
 390,37; 4586,107;  226,829;20795,837;21,19343
 390,96; 4601,541;  171,983;20851,213;21,42032
 391,56; 4642,254;  182,136;20980,634;21,44442
 392,15; 4739,537;  156,367;21348,835;21,62641
 392,74; 4851,750;  147,059;21537,383;21,99448
 393,33; 4952,110;  167,290;21800,272;22,11817
 393,92; 5110,284;  173,905;22148,280;22,46425
 394,51; 5176,960;  169,367;22328,946;22,59787
 395,10; 5297,322;  191,212;22592,145;22,79418
 395,69; 5378,574;  172,828;22659,440;23,15042
 396,28; 5427,455;  187,828;22780,161;23,19206
 396,87; 5556,919;  175,366;22794,544;23,79199
 397,46; 5611,195;  191,750;22963,056;23,79945
 398,06; 5761,604;  198,596;23203,119;24,18224
 398,65; 5795,127;  184,672;23227,508;24,34794
 399,24; 5857,934;  204,056;23470,283;24,30080
 399,83; 5924,338;  175,516;23419,733;24,73227
 400,42; 6036,050;  203,053;23563,588;24,96945
 401,01; 6082,695;  185,975;23697,214;25,08043
 401,60; 6166,207;  194,281;23692,232;25,41467
 402,19; 6198,530;  220,049;23599,757;25,57124
 402,78; 6242,429;  222,354;23670,337;25,67417
 403,37; 6234,590;  208,967;23485,360;25,88727
 403,96; 6277,947;  200,734;23392,403;26,20429
 404,55; 6295,468;  220,577;23298,760;26,32309
 405,14; 6303,954;  199,113;23194,704;26,54788
 405,73; 6328,394;  215,417;23072,266;26,74462
 406,32; 6398,185;  222,569;22959,260;27,16145
 406,91; 6360,815;  202,028;22680,458;27,39865
 407,50; 6398,429;  215,873;22530,604;27,70616
 408,09; 6361,885;  186,103;22248,987;27,99173
 408,68; 6405,633;  196,641;22130,582;28,30769
 409,27; 6340,428;  186,488;21935,551;28,29519
 409,86; 6370,336;  200,644;21860,399;28,48459
 410,45; 6429,348;  232,645;21774,441;28,76595
 411,04; 6431,130;  236,801;21640,738;28,94014
 411,63; 6424,773;  213,187;21399,610;29,31871
 412,22; 6383,307;  217,574;21270,990;29,28614
 412,81; 6360,304;  222,959;20933,498;29,63392
 413,40; 6270,794;  249,652;20594,959;29,59475
 413,99; 6303,892;  267,960;20389,882;29,99680
 414,58; 6131,546;  208,498;19983,338;29,95244
 415,17; 6131,654;  208,267;19843,761;30,16673
 415,76; 6121,733;  205,343;19646,204;30,43276
 416,35; 6108,999;  194,882;19356,030;30,86515
 416,94; 6201,873;  229,805;19554,581;30,90369
 417,53; 6253,461;  215,190;19687,836;31,00899
 418,12; 6333,577;  206,036;19787,445;31,29264
 418,71; 6469,480;  232,114;20191,765;31,24988
 419,30; 6518,217;  216,652;20276,876;31,41323
 419,89; 6625,437;  203,267;20467,311;31,69244
 420,48; 6764,071;  235,114;20775,844;31,78542
 421,07; 6818,875;  229,729;20800,062;32,03228
 421,66; 6800,278;  200,037;20766,724;32,09190
 422,25; 6862,219;  203,115;20757,681;32,39720
 422,84; 6872,240;  231,500;20748,871;32,36643
 423,43; 6782,817;  220,500;20404,088;32,51313
 424,02; 6746,544;  234,961;20179,384;32,64864
 424,60; 6625,056;  206,578;19787,501;32,77924
 425,19; 6616,870;  222,654;19548,224;33,08682
 425,78; 6619,472;  240,654;19501,989;33,11721
 426,37; 6594,049;  236,039;19304,849;33,34246
 426,96; 6556,014;  219,193;19247,266;33,30248
 427,55; 6554,385;  211,116;19035,553;33,69699
 428,14; 6520,816;  206,501;18860,636;33,84941
 428,73; 6488,574;  228,501;18686,169;33,91584
 429,32; 6516,899;  231,962;18637,883;34,14627
 429,91; 6533,336;  247,116;18703,205;34,06041
 430,50; 6485,536;  239,732;18496,159;34,21154
 431,08; 6452,868;  252,117;18415,557;34,13864
 431,67; 6459,722;  296,502;18284,691;34,26259
 432,26; 6415,865;  305,502;18077,559;34,38186
 432,85; 6366,502;  340,656;17763,604;34,58569
 433,44; 6232,436;  336,118;17385,023;34,58473
 434,03; 6136,181;  348,349;17082,008;34,58796
 434,62; 5962,824;  307,425;16701,952;34,49565
 435,21; 5994,907;  328,040;16469,644;35,10721
 435,79; 5946,901;  331,041;16336,814;35,08647
 436,38; 5905,188;  313,734;16279,858;35,02074
 436,97; 5896,653;  312,041;16185,273;35,18258
 437,56; 5797,556;  311,273;15964,310;35,04932
 438,15; 5787,332;  279,273;15853,253;35,36706
 438,74; 5844,137;  296,965;15926,346;35,49195
 439,33; 5842,196;  265,965;15886,494;35,69809
 439,91; 5892,284;  228,581;15945,350;36,03605
 440,50; 5922,396;  284,196;16038,265;35,78885
 441,09; 5999,187;  278,197;16137,216;36,07405
 441,68; 6016,918;  268,735;16097,048;36,31583
 442,27; 5981,746;  249,658;16117,378;36,12421
 442,86; 5963,314;  232,505;16092,763;36,13314
 443,44; 6002,880;  240,351;16162,261;36,19245
 444,03; 6093,111;  298,198;16223,997;36,38695
 444,62; 6004,870;  244,351;16069,566;36,40089
 445,21; 5904,240;  251,659;15914,696;36,08867
 445,80; 5931,160;  284,890;15782,390;36,43343
 446,39; 5876,052;  290,429;15504,817;36,71277
 446,97; 5758,032;  245,814;15352,756;36,48798
 447,56; 5711,116;  247,583;15120,833;36,73395
 448,15; 5645,364;  243,660;14991,139;36,62798
 448,74; 5562,822;  266,429;14672,104;36,76601
 449,33; 5567,522;  235,276;14587,031;37,15396
 449,91; 5432,861;  246,815;14400,616;36,64066
 450,50; 5370,372;  242,430;14179,487;36,79358
 451,09; 5356,938;  255,276;14091,361;36,87215
 451,68; 5353,082;  268,969;13991,513;37,04935
 452,26; 5299,694;  267,507;13882,268;36,96126
 452,85; 5223,103;  251,199;13837,578;36,59477
 453,44; 5263,432;  267,277;13788,136;36,95146
 454,03; 5234,799;  239,354;13776,037;36,90302
 454,61; 5226,002;  236,662;13755,146;36,90754
 455,20; 5334,712;  273,816;13940,687;37,03040
 455,79; 5308,411;  268,662;13927,663;36,89691
 456,38; 5371,507;  268,739;14007,442;37,14155
 456,97; 5395,195;  252,124;14070,310;37,21958
 457,55; 5410,780;  250,047;14089,802;37,28919
 458,14; 5383,779;  276,585;14042,968;37,09903
 458,73; 5352,811;  255,355;14008,120;37,06496
 459,31; 5445,308;  288,278;14014,715;37,57005
 459,90; 5459,301;  290,509;14131,760;37,34339
 460,49; 5511,367;  334,432;14244,717;37,21660
 461,08; 5499,277;  264,971;14325,004;37,22826
 461,66; 5554,742;  267,586;14367,019;37,49907
 462,25; 5589,756;  270,971;14422,905;37,58345
 462,84; 5645,001;  297,202;14494,938;37,66656
 463,43; 5510,264;  226,971;14407,032;37,25860
 464,01; 5573,816;  261,125;14470,259;37,38927
 464,60; 5575,403;  299,894;14402,292;37,40860
 465,19; 5479,170;  242,972;14172,423;37,59084
 465,77; 5447,859;  269,972;14117,024;37,39342
 466,36; 5432,197;  281,433;13996,694;37,55498
 466,95; 5330,645;  256,356;13737,152;37,64087
 467,53; 5209,628;  275,203;13416,862;37,54796
 468,12; 5136,974;  284,434;13175,399;37,64296
 468,71; 5051,914;  266,895;12915,296;37,83102
 469,29; 4920,520;  249,511;12695,642;37,52981
 469,88; 4811,758;  266,357;12500,496;37,15342
 470,47; 4931,000;  329,280;12548,915;37,65840
 471,06; 4835,500;  272,819;12534,273;37,21158
 471,64; 4924,660;  281,280;12691,803;37,41486
 472,23; 4889,098;  242,896;12681,781;37,35224
 472,81; 4926,797;  253,050;12749,243;37,40137
 473,40; 4958,028;  261,127;13004,846;36,85660
 473,99; 5104,665;  346,281;13160,323;37,13413
 474,57; 5090,451;  259,742;13250,487;37,18577
 475,16; 5146,315;  274,742;13372,506;37,19393
 475,75; 5180,574;  290,281;13477,287;37,08418
 476,33; 5242,176;  292,666;13553,813;37,32339
 476,92; 5240,175;  300,973;13603,829;37,12888
 477,51; 5242,190;  285,666;13671,153;37,02909
 478,09; 5252,155;  272,974;13702,109;37,07745
 478,68; 5212,739;  289,666;13595,350;36,99977
 479,27; 5239,141;  311,435;13701,522;36,80115
 479,85; 5217,095;  287,281;13703,038;36,74645
 480,44; 5282,452;  276,974;13868,131;36,82893
 481,02; 5842,977;  281,051;15608,402;36,28759
 481,61; 6563,952;  310,897;17388,639;36,61523
 482,20; 6957,183;  305,436;18436,789;36,68644
 482,78; 7258,445;  331,512;19187,657;36,73568
 483,37; 7447,572;  327,205;19643,013;36,86290
 483,95; 7483,551;  357,975;20013,353;36,25255
 484,54; 7591,613;  370,974;20144,321;36,51703
 485,13; 7523,705;  337,667;20034,163;36,48384
 485,71; 7411,275;  317,975;19790,230;36,42773
 486,30; 7335,009;  351,898;19542,570;36,38805
 486,88; 7246,195;  393,436;19107,604;36,61802
 487,47; 6957,688;  376,898;18360,869;36,59253
 488,05; 6582,594;  358,129;17495,548;36,32090
 488,64; 6086,063;  349,283;16059,475;36,51629
 489,23; 5403,583;  355,591;14183,165;36,50671
 489,81; 4660,713;  354,283;12316,831;35,99927
 490,40; 4447,916;  320,822;11823,952;35,87801
 490,98; 4376,342;  299,745;11561,827;36,19755
 491,57; 4333,045;  322,129;11500,035;35,88253
 492,15; 4272,944;  309,822;11427,977;35,64550
 492,74; 4235,213;  312,667;11319,477;35,63744
 493,32; 4203,426;  325,514;11206,867;35,63814
 493,91; 4170,794;  296,591;11161,517;35,65788
 494,50; 4126,717;  317,207;11123,602;35,25237
 495,08; 4097,340;  292,822;11050,719;35,36488
 495,67; 4066,070;  317,283;11013,507;35,04776
 496,25; 4025,242;  255,130;10847,096;35,59407
 496,84; 4009,164;  280,283;10870,055;35,21210
 497,42; 4021,147;  264,899;10808,134;35,62709
 498,01; 3982,168;  278,206;10786,547;35,24782
 498,59; 3929,640;  246,668;10711,606;35,19344
 499,18; 3949,983;  249,899;10642,047;35,60461
 499,76; 3865,371;  282,437;10534,406;34,94874
 500,35; 3791,945;  272,361;10382,539;34,81228
 500,93; 3791,263;  245,361;10380,776;34,98527
 501,52; 3776,357;  261,284;10274,065;35,10586
 502,10; 3773,470;  270,438;10250,171;35,10146
 502,69; 3662,134;  255,900;10120,749;34,52900
 503,27; 3593,371;  234,207; 9897,576;34,76184
 503,86; 3581,375;  250,669; 9860,824;34,65819
 504,44; 3542,921;  227,438; 9778,525;34,71315
 505,03; 3427,085;  219,361; 9540,802;34,41232
 505,61; 3370,809;  238,515; 9417,662;34,12402
 506,19; 3325,222;  256,054; 9241,075;34,15871
 506,78; 3256,236;  230,362; 9085,577;34,17053
 507,36; 3182,687;  229,361; 8926,057;33,95917
 507,95; 3123,068;  234,900; 8738,415;33,96440
 508,53; 3090,096;  237,516; 8704,375;33,69113
 509,12; 3012,261;  247,054; 8504,879;33,48590
 509,70; 3006,093;  262,439; 8391,822;33,74984
 510,29; 2940,261;  257,670; 8187,741;33,82808
 510,87; 2821,537;  233,131; 8085,205;32,96461
 511,46; 2790,778;  226,131; 7883,685;33,49173
 512,04; 2768,250;  242,285; 7748,083;33,65352
 512,62; 2697,051;  245,054; 7648,102;33,12145
 513,21; 2605,376;  224,208; 7429,407;33,04792
 513,79; 2580,709;  227,824; 7325,385;33,15062
 514,38; 2509,611;  210,747; 7153,170;33,11328
 514,96; 2526,248;  253,824; 7072,624;33,32586
 515,54; 2435,454;  221,670; 6956,391;32,87120
 516,13; 2412,926;  246,824; 6858,308;32,76272
 516,71; 2381,035;  240,901; 6759,824;32,82956
 517,30; 2310,119;  215,132; 6655,856;32,52719
 517,88; 2289,255;  245,978; 6549,899;32,41280
 518,46; 2233,116;  216,825; 6445,769;32,36970
 519,05; 2228,871;  222,517; 6391,915;32,52106
 519,63; 2190,665;  237,056; 6323,787;32,09619
 520,22; 2186,455;  249,979; 6288,022;32,07126
 520,80; 2174,270;  242,287; 6198,368;32,43715
 521,38; 2160,291;  262,748; 6200,291;31,95838
 521,97; 2107,410;  221,595; 6142,052;31,85253
 522,55; 2099,763;  241,133; 6160,067;31,40144
 523,13; 2110,155;  231,441; 6158,127;31,69923
 523,72; 2074,329;  233,517; 6114,658;31,30025
 524,30; 2143,914;  254,210; 6244,255;31,54741
 524,89; 2094,609;  228,672; 6275,014;30,86061
 525,47; 2162,959;  241,826; 6379,471;31,30083
 526,05; 2164,827;  217,210; 6445,512;31,27042
 526,64; 2200,435;  246,672; 6579,212;30,85276
 527,22; 2243,676;  241,133; 6699,623;31,00636
 527,80; 2290,771;  272,749; 6847,730;30,69243
 528,39; 2302,722;  234,364; 6929,961;30,89131
 528,97; 2322,523;  245,057; 7088,668;30,35628
 529,55; 2392,099;  251,749; 7287,682;30,42028
 530,14; 2445,355;  262,288; 7408,121;30,55021
 530,72; 2447,795;  245,518; 7543,700;30,17570
 531,30; 2502,401;  228,134; 7703,083;30,42518
 531,89; 2534,226;  237,903; 7794,836;30,38697
 532,47; 2566,443;  267,442; 7893,471;30,14676
 533,05; 2574,037;  268,595; 7934,621;30,07349
 533,63; 2574,649;  278,595; 7979,036;29,81717
 534,22; 2569,373;  250,365; 7972,022;30,03252
 534,80; 2584,149;  262,442; 8099,771;29,62371
 535,38; 2667,324;  341,672; 8203,953;29,57986
 535,97; 2569,659;  266,903; 8173,981;29,12272
 536,55; 2632,436;  305,211; 8254,394;29,27628
 537,13; 2620,428;  323,441; 8215,447;29,10524
 537,71; 2625,998;  373,903; 8254,101;28,57917
 538,30; 2640,754;  386,826; 8350,242;28,30353
 538,88; 2676,856;  432,134; 8478,329;27,89793
 539,46; 2747,887;  498,826; 8667,939;27,53127
 540,05; 2787,506;  527,519; 8820,864;27,25061
 540,63; 2863,041;  572,519; 8990,574;27,20964
 541,21; 2922,251;  614,673; 9193,347;26,89901
 541,79; 2937,384;  671,058; 9311,562;26,22910
 542,38; 2997,307;  689,519; 9445,133;26,35781
 542,96; 3020,821;  693,058; 9619,609;26,07685
 543,54; 3095,831;  719,596; 9836,509;26,06403
 544,12; 3098,041;  681,058; 9928,388;26,13710
 544,70; 3107,716;  661,365;10039,321;26,08619
 545,29; 3132,205;  673,673;10246,750;25,68174
 545,87; 3134,307;  633,596;10184,716;26,18238
 546,45; 3100,212;  591,365;10217,022;26,06417
 547,03; 3098,286;  572,981;10300,497;25,96043
 547,62; 3109,167;  518,211;10439,230;26,11582
 548,20; 3155,479;  521,442;10550,924;26,26293
 548,78; 3134,238;  485,058;10661,424;26,03267
 549,36; 3161,636;  440,827;10878,890;26,06623
 549,94; 3165,566;  396,904;10967,230;26,19278
 550,53; 3210,143;  394,597;11243,548;25,95225
 551,11; 3229,123;  366,597;11426,754;25,88142
 551,69; 3313,553;  372,443;11750,056;25,84997
 552,27; 3308,636;  335,750;11965,538;25,56269
 552,85; 3449,542;  339,828;12399,722;25,78559
 553,44; 3490,654;  327,827;12632,746;25,70376
 554,02; 3588,147;  348,520;12991,011;25,62491
 554,60; 3600,927;  283,751;13303,900;25,47725
 555,18; 3709,462;  337,674;13660,566;25,30823
 555,76; 3787,619;  296,751;14025,058;25,42825
 556,34; 3858,203;  319,982;14440,574;25,05718
 556,93; 3928,797;  292,827;14817,570;25,03294
 557,51; 4023,805;  272,828;15124,930;25,25553
 558,09; 4081,843;  311,674;15550,738;24,74016
 558,67; 4168,343;  301,982;15980,181;24,66075
 559,25; 4218,336;  313,905;16151,376;24,65313
 559,83; 4262,011;  293,366;16481,564;24,51567
 560,41; 4329,133;  286,058;16862,821;24,39002
 561,00; 4374,518;  297,982;17133,505;24,21390
 561,58; 4428,721;  280,597;17395,894;24,23635
 562,16; 4458,616;  271,904;17779,125;23,91420
 562,74; 4525,717;  263,827;18061,689;23,94608
 563,32; 4595,508;  258,366;18555,839;23,70350
 563,90; 4701,200;  285,982;18895,612;23,72545
 564,48; 4772,217;  285,751;19333,837;23,55337
 565,06; 4911,857;  280,289;19947,851;23,54927
 565,65; 4999,659;  292,059;20622,618;23,15529
 566,23; 5195,934;  322,520;21339,029;23,18850
 566,81; 5275,371;  278,059;22097,728;22,90279
 567,39; 5434,204;  294,136;22907,408;22,73032
 567,97; 5547,249;  308,982;23588,507;22,50161
 568,55; 5761,270;  321,982;24428,159;22,56388
 569,13; 5856,997;  289,366;25136,232;22,40778
 569,71; 6017,035;  276,135;26086,631;22,24250
 570,29; 6264,976;  326,443;27122,260;22,16216
 570,87; 6345,906;  312,058;27695,989;22,03426
 571,45; 6422,029;  314,443;28347,347;21,78720
 572,03; 6466,749;  282,828;28732,112;21,73665
 572,61; 6631,756;  274,520;29528,849;21,73092
 573,20; 6741,119;  299,828;30153,456;21,57624
 573,78; 6843,365;  293,828;30820,809;21,45491
 574,36; 6924,592;  312,213;31253,624;21,37064
 574,94; 7034,833;  364,213;31533,971;21,40094
 575,52; 7007,886;  308,213;31827,474;21,25581
 576,10; 7110,515;  363,367;32450,122;21,02783
 576,68; 7165,026;  358,290;33028,049;20,83497
 577,26; 7284,914;  367,521;33736,551;20,72998
 577,84; 7402,882;  385,059;34142,922;20,78871
 578,42; 7414,963;  422,905;34469,867;20,53651
 579,00; 7372,298;  361,905;34548,932;20,50600
 579,58; 7399,347;  415,982;34727,896;20,35260
 580,16; 7372,708;  384,905;34758,278;20,32911
 580,74; 7389,547;  384,213;34964,545;20,25814
 581,32; 7347,732;  389,059;35108,920;20,04234
 581,90; 7297,424;  427,444;35079,815;19,82543
 582,48; 7310,257;  405,982;35241,094;19,81987
 583,06; 7306,344;  412,982;35258,837;19,78244
 583,64; 7293,120;  409,520;35402,877;19,67116
 584,22; 7193,946;  424,675;35244,258;19,44099
 584,80; 7094,718;  423,982;34992,377;19,29721
 585,38; 6982,801;  435,443;34555,309;19,18928
 585,96; 6974,351;  392,059;34740,574;19,16325
 586,54; 6913,995;  421,829;34710,153;18,93404
 587,12; 6879,543;  387,290;34850,896;18,83800
 587,70; 6857,651;  416,751;35114,610;18,56282
 588,28; 6824,501;  390,290;35095,402;18,53967
 588,86; 6795,736;  391,059;35225,047;18,38629
 589,44; 6767,180;  386,290;35307,462;18,27227
 590,02; 6759,589;  375,059;35498,642;18,17733
 590,59; 6784,788;  368,367;35700,997;18,16004
 591,17; 6773,086;  359,291;35892,185;18,05030
 591,75; 6746,023;  353,983;35999,092;17,93245
 592,33; 6790,159;  364,675;36339,778;17,86092
 592,91; 6757,593;  315,906;36533,304;17,78617
 593,49; 6779,768;  327,598;36828,725;17,67663
 594,07; 6837,639;  342,521;37042,569;17,69784
 594,65; 6775,327;  354,598;37044,483;17,50000
 595,23; 6814,131;  339,367;37404,855;17,46844
 595,81; 6778,075;  345,060;37547,997;17,29169
 596,39; 6776,047;  324,598;37683,478;17,26885
 596,97; 6784,188;  328,598;37855,211;17,20270
 597,55; 6718,963;  325,213;37711,778;17,10173
 598,12; 6664,482;  314,291;37800,790;16,93994
 598,70; 6659,247;  310,214;38006,764;16,84248
 599,28; 6633,202;  331,137;38069,134;16,69952
 599,86; 6608,450;  315,598;38174,991;16,62164
 600,44; 6543,897;  282,906;38262,318;16,48522
 601,02; 6601,370;  340,368;38274,454;16,50495
 601,60; 6508,537;  310,598;38211,478;16,35302
 602,18; 6411,433;  296,983;38197,924;16,13271
 602,75; 6410,698;  294,983;38376,806;16,05941
 603,33; 6367,607;  306,598;38291,535;15,95635
 603,91; 6341,664;  300,445;38330,559;15,88536
 604,49; 6351,009;  326,521;38431,723;15,81015
 605,07; 6322,058;  334,060;38389,059;15,73512
 605,65; 6255,349;  364,983;38516,296;15,43948
 606,23; 6307,865;  413,675;38688,742;15,39956
 606,80; 6275,523;  480,983;38775,483;15,13152
 607,38; 6221,667;  527,522;38761,132;14,89304
 607,96; 6257,240;  578,444;38960,250;14,79554
 608,54; 6243,405;  643,829;38955,049;14,61602
 609,12; 6244,093;  664,521;39056,084;14,53333
 609,70; 6184,135;  711,598;39105,464;14,25367
 610,27; 6190,974;  707,752;39194,796;14,24693
 610,85; 6154,953;  728,060;39233,460;14,09385
 611,43; 6091,929;  725,060;39176,948;13,95736
 612,01; 6010,694;  691,367;38928,974;13,91124
 612,59; 5958,048;  683,675;38959,187;13,78002
 613,16; 5864,197;  643,213;38847,966;13,66580
 613,74; 5798,331;  613,137;38764,905;13,59097
 614,32; 5766,027;  549,214;38724,268;13,66550
 614,90; 5681,789;  499,829;38549,519;13,61893
 615,48; 5594,281;  453,290;38134,209;13,64349
 616,05; 5491,274;  407,290;38243,788;13,43672
 616,63; 5435,113;  421,982;37956,906;13,35591
 617,21; 5381,733;  411,290;37898,211;13,25914
 617,79; 5346,782;  385,213;37770,203;13,27155
 618,36; 5292,114;  404,137;37711,889;13,10177
 618,94; 5204,306;  337,213;37384,847;13,13739
 619,52; 5128,180;  370,367;37017,883;12,98263
 620,10; 5128,299;  356,290;37089,547;12,99098
 620,67; 5060,068;  358,982;36973,199;12,83951
 621,25; 5037,988;  374,137;36797,816;12,80445
 621,83; 4971,009;  358,444;36743,509;12,67708
 622,41; 5011,135;  398,136;36802,043;12,67171
 622,98; 4879,830;  365,675;36487,673;12,49697
 623,56; 4860,896;  363,444;36488,987;12,44951
 624,14; 4808,215;  337,675;36356,652;12,41162
 624,72; 4763,274;  335,675;36237,323;12,33258
 625,29; 4725,159;  327,521;36403,126;12,19006
 625,87; 4753,803;  367,752;36321,989;12,19898
 626,45; 4667,428;  319,674;36112,744;12,14691
 627,02; 4594,093;  316,983;36082,363;11,95880
 627,60; 4572,999;  314,829;36020,701;11,92568
 628,18; 4523,400;  303,752;36171,391;11,76450
 628,76; 4510,746;  305,675;36192,786;11,71750
 629,33; 4505,844;  340,059;36113,721;11,64484
 629,91; 4493,299;  325,598;36022,547;11,67523
 630,49; 4466,376;  328,444;36232,402;11,52500
 631,06; 4476,442;  326,675;36390,638;11,50669
 631,64; 4414,959;  319,059;36324,626;11,37574
 632,22; 4392,512;  274,597;36382,197;11,40456
 632,79; 4403,697;  322,059;36485,337;11,28669
 633,37; 4388,526;  297,675;36621,177;11,26227
 633,95; 4352,893;  288,136;36675,495;11,17079
 634,52; 4345,684;  276,675;36730,705;11,16203
 635,10; 4313,110;  289,367;36741,786;11,03834
 635,68; 4312,138;  286,828;36947,244;10,97999
 636,25; 4256,323;  276,905;36915,262;10,86134
 636,83; 4271,054;  262,213;37121,017;10,87621
 637,41; 4269,054;  274,674;37206,001;10,81569
 637,98; 4259,005;  306,444;37369,365;10,66446
 638,56; 4234,714;  293,213;37423,894;10,61521
 639,13; 4207,197;  268,982;37536,408;10,56745
 639,71; 4255,110;  313,367;37616,102;10,56690
 640,29; 4140,733;  249,290;37483,827;10,45116
 640,86; 4171,871;  263,829;37608,175;10,46488
 641,44; 4114,932;  257,059;37643,369;10,31894
 642,02; 4112,454;  290,675;37552,947;10,25643
 642,59; 4068,823;  267,752;37784,833;10,13158
 643,17; 4043,038;  268,213;37738,797;10,07410
 643,74; 4054,407;  268,521;37719,375;10,10894
 644,32; 4058,852;  289,675;37727,185;10,06792
 644,89; 4009,529;  287,444;37749,917; 9,93550
 645,47; 4003,513;  293,136;37742,649; 9,90768
 646,05; 3968,728;  283,444;37635,997; 9,86622
 646,62; 3961,558;  279,444;37705,499; 9,83837
 647,20; 3959,081;  280,829;37790,001; 9,80627
 647,77; 3888,911;  255,598;37644,271; 9,71768
 648,35; 3880,587;  250,906;37527,465; 9,73717
 648,92; 3863,494;  279,367;37684,429; 9,58193
 649,50; 3823,094;  250,906;37519,623; 9,58495
 650,08; 3825,309;  245,444;37436,201; 9,62568
 650,65; 3800,447;  250,059;37720,164; 9,47525
 651,23; 3837,277;  235,367;38578,204; 9,39396
 651,80; 3915,646;  252,213;39453,014; 9,34530
 652,38; 3968,322;  268,521;39722,439; 9,37753
 652,95; 3914,768;  226,752;40098,709; 9,24965
 653,53; 3966,598;  258,290;40364,211; 9,24629
 654,10; 3987,582;  281,444;40538,482; 9,20619
 654,68; 3904,105;  244,675;40444,676; 9,10306
 655,25; 3900,320;  239,213;40461,716; 9,10213
 655,83; 3877,842;  228,136;40508,141; 9,06084
 656,40; 3898,057;  271,598;40445,104; 9,02699
 656,98; 3874,349;  254,136;40318,683; 9,03595
 657,55; 3821,179;  246,829;40238,184; 8,93781
 658,13; 3803,702;  248,060;39854,147; 8,97751
 658,70; 3794,686;  253,521;39571,803; 9,00641
 659,28; 3647,670;  246,060;38705,305; 8,84471
 659,85; 3604,193;  262,675;37995,652; 8,85570
 660,43; 3568,254;  272,213;38124,539; 8,70763
 661,00; 3553,007;  257,675;38183,887; 8,68880
 661,58; 3563,684;  241,060;38596,927; 8,66262
 662,15; 3557,206;  242,598;38731,659; 8,61182
 662,73; 3659,959;  301,983;39005,930; 8,67606
 663,30; 3605,482;  253,367;39203,816; 8,60610
 663,88; 3621,082;  256,060;39421,702; 8,59177
 664,45; 3600,681;  244,367;39620,666; 8,52369
 665,03; 3658,742;  254,521;39985,937; 8,56808
 665,60; 3739,495;  316,214;40520,746; 8,51467
 666,17; 3663,941;  254,598;40428,017; 8,48656
 666,75; 3656,464;  242,214;40843,288; 8,40926
 667,32; 3725,371;  267,829;41217,482; 8,44340
 667,90; 3702,432;  245,598;41383,445; 8,40305
 668,47; 3719,801;  271,367;41710,177; 8,32175
 669,05; 3713,554;  246,675;41959,987; 8,31121
 669,62; 3726,154;  232,675;42068,334; 8,35048
 670,19; 3728,292;  233,983;42169,990; 8,33248
 670,77; 3736,814;  254,214;42304,492; 8,28199
 671,34; 3727,106;  242,829;42208,070; 8,30277
 671,92; 3717,936;  232,214;42635,572; 8,22039
 672,49; 3756,920;  258,368;42667,920; 8,24945
 673,06; 3687,135;  202,444;42635,114; 8,21228
 673,64; 3704,196;  231,368;42700,461; 8,17731
 674,21; 3693,334;  228,137;42609,886; 8,17615
 674,79; 3734,857;  249,060;42890,311; 8,17471
 675,36; 3750,918;  255,906;42975,966; 8,18120
 675,93; 3705,210;  214,368;42917,237; 8,17472
 676,51; 3726,425;  257,060;43025,124; 8,11205
 677,08; 3717,178;  251,983;43040,702; 8,09838
 677,65; 3690,239;  256,752;43272,204; 7,98198
 678,23; 3722,377;  252,675;43462,936; 8,02981
 678,80; 3740,669;  246,137;43560,438; 8,06785
 679,38; 3702,422;  238,214;43675,940; 7,97511
 679,95; 3734,945;  255,983;43972,518; 7,95800
 680,52; 3765,467;  243,522;44151,789; 8,02114
 681,10; 3788,221;  266,445;44679,675; 7,92956
 681,67; 3819,743;  258,752;44925,254; 7,97240
 682,24; 3803,035;  222,214;44956,371; 8,00467
 682,82; 3877,404;  236,829;45528,796; 8,03801
 683,39; 3898,542;  280,214;45801,605; 7,94863
 683,96; 3904,141;  252,060;46075,414; 7,96991
 684,54; 3919,971;  225,060;46441,070; 7,99487
 685,11; 4002,340;  270,675;46745,956; 8,02935
 685,68; 4011,401;  238,906;47180,458; 8,03658
 686,25; 3980,924;  222,445;47207,498; 7,99931
 686,83; 4037,908;  225,829;47329,000; 8,09304
 687,40; 4017,584;  224,522;47665,886; 7,99526
 687,97; 4068,645;  266,599;48162,003; 7,93823
 688,55; 4052,783;  221,214;48141,505; 7,99571
 689,12; 4073,306;  205,291;48464,929; 8,01501
 689,69; 4086,829;  221,676;48479,431; 8,00939
 690,26; 4118,274;  241,676;48570,240; 8,02134
 690,84; 4136,643;  231,368;48818,896; 8,03761
 691,41; 4162,396;  239,599;48830,320; 8,07314
 691,98; 4187,150;  240,752;49118,591; 8,07400
 692,56; 4180,211;  229,214;49195,785; 8,06876
 693,13; 4259,579;  281,137;49234,749; 8,12696
 693,70; 4220,640;  247,522;49411,558; 8,08135
 694,27; 4206,778;  224,676;49584,367; 8,06752
 694,84; 4235,455;  226,599;49660,792; 8,10948
 695,42; 4289,439;  276,291;49738,524; 8,11356
 695,99; 4257,423;  240,599;50041,565; 8,06576
 696,56; 4270,100;  230,983;49822,989; 8,14469
 697,13; 4338,237;  251,522;50241,106; 8,17513
 697,71; 4290,914;  224,214;50276,993; 8,12482
 698,28; 4342,283;  233,368;50717,956; 8,13895
 698,85; 4315,421;  210,676;50624,227; 8,14215
 699,42; 4375,020;  210,137;50795,728; 8,23334
 699,99; 4404,927;  266,753;50976,999; 8,16043
 700,57; 4398,065;  247,906;50926,347; 8,18920
 701,14; 4401,434;  226,060;51028,464; 8,21885
 701,71; 4441,880;  245,445;51214,043; 8,23337
 702,28; 4445,633;  243,445;51274,390; 8,23459
 702,85; 4487,617;  254,676;51489,815; 8,26179
 703,43; 4489,524;  256,291;51675,163; 8,23284
 704,00; 4565,355;  276,907;51821,280; 8,31992
 704,57; 4537,031;  255,599;51809,012; 8,30485
 705,14; 4623,015;  290,830;52136,437; 8,35594
 705,71; 4589,615;  281,599;52095,785; 8,31436
 706,28; 4598,907;  260,676;52033,056; 8,37943
 706,86; 4661,737;  285,368;52219,096; 8,42683
 707,43; 4682,490;  317,060;52161,136; 8,42031
 708,00; 4658,397;  284,368;52207,869; 8,42399
 708,57; 4636,305;  261,984;52063,293; 8,44442
 709,14; 4703,904;  291,830;52260,256; 8,48991
 709,71; 4709,965;  259,137;52303,527; 8,55198
 710,28; 4756,103;  265,676;52506,952; 8,59555
 710,86; 4777,626;  276,137;52649,685; 8,59497
 711,43; 4793,917;  282,445;52711,955; 8,60483
 712,00; 4834,594;  261,984;52665,534; 8,72576
 712,57; 4875,040;  282,214;52900,113; 8,72864
 713,14; 4834,485;  260,061;52861,153; 8,69644
 713,71; 4909,700;  263,522;52892,808; 8,82812
 714,28; 4934,915;  250,599;52935,079; 8,89126
 714,85; 4901,284;  243,907;52642,965; 8,88828
 715,42; 4933,652;  241,753;52961,775; 8,89965
 716,00; 5055,790;  301,061;53003,353; 9,02187
 716,57; 5023,621;  241,061;53124,316; 9,04362
 717,14; 5006,605;  236,368;53061,972; 9,03016
 717,71; 5045,820;  220,138;53154,935; 9,11628
 718,28; 5104,342;  271,522;53179,821; 9,13433
 718,85; 5084,173;  234,830;53209,631; 9,15406
 719,42; 5147,695;  237,522;53375,440; 9,24043
 719,99; 5128,218;  220,907;53217,326; 9,25970
 720,56; 5187,817;  245,753;53485,367; 9,28268
 721,13; 5220,186;  226,830;53548,253; 9,36463
 721,70; 5226,632;  214,522;53383,601; 9,42674
 722,27; 5279,923;  254,984;53449,179; 9,44641
 722,84; 5344,984;  290,368;53625,296; 9,47712
 723,41; 5317,738;  219,292;53601,952; 9,55075
 723,98; 5371,260;  237,984;53809,223; 9,58215
 724,55; 5420,168;  271,753;53838,109; 9,61128
 725,12; 5387,921;  194,138;53899,611; 9,67086
 725,69; 5419,136;  222,599;53996,343; 9,66371
 726,27; 5492,043;  238,676;54020,691; 9,76789
 726,84; 5511,950;  237,215;54352,962; 9,74714
 727,41; 5566,934;  247,599;54325,310; 9,83647
 727,98; 5589,226;  253,522;54627,042; 9,81306
 728,55; 5686,826;  270,369;54566,774; 9,97572
 729,12; 5649,425;  219,830;54591,199; 9,98613
 729,69; 5721,640;  273,292;54819,855; 9,98844
 730,26; 5739,393;  249,599;54991,972;10,02842
 730,82; 5744,301;  246,676;54801,858;10,07718
 731,39; 5800,592;  243,445;54894,283;10,16846
 731,96; 5838,038;  232,984;55116,169;10,21270
 732,53; 5904,407;  244,215;55468,824;10,24940
 733,10; 5916,391;  258,984;55492,711;10,24267
 733,67; 5946,683;  244,599;55699,751;10,28233
 734,24; 5959,436;  243,676;55432,099;10,35681
 734,81; 6038,420;  270,369;55555,754;10,43323
 735,38; 6032,097;  249,599;55315,256;10,50110
 735,95; 6046,158;  240,676;55056,219;10,59094
 736,52; 6048,296;  263,676;55354,336;10,50018
 737,09; 6057,895;  261,599;54997,838;10,58950
 737,66; 6122,187;  299,369;55233,109;10,59971
 738,23; 6156,556;  250,215;55200,072;10,74860
 738,80; 6274,463;  305,599;55528,573;10,80866
 739,37; 6275,755;  286,523;55690,383;10,81014
 739,94; 6341,739;  251,830;55706,423;10,98179
 740,51; 6449,646;  352,753;55704,078;11,01490
 741,07; 6396,322;  256,292;55709,349;11,07248
 741,64; 6474,922;  285,215;55927,697;11,12407
 742,21; 6482,906;  260,753;55903,353;11,18235
 742,78; 6522,506;  224,523;55704,931;11,35172
 743,35; 6585,336;  256,446;56020,510;11,34941
 743,92; 6642,705;  292,984;56187,781;11,36013
 744,49; 6701,843;  282,984;56069,821;11,50604
 745,06; 6686,596;  246,984;56056,707;11,53851
 745,63; 6718,349;  240,984;56037,055;11,60900
 746,19; 6733,103;  236,753;56016,326;11,64647
 746,76; 6795,548;  263,677;56017,520;11,71555
 747,33; 6858,917;  245,907;56044,021;11,85167
 747,90; 6909,593;  276,446;56258,908;11,84862
 748,47; 6942,193;  260,292;56098,563;11,96653
 749,04; 6937,100;  267,369;56140,065;11,93737
 749,61; 6968,623;  277,446;56087,874;11,98912
 750,17; 7043,068;  273,677;56126,453;12,12006
 750,74; 7063,976;  266,754;56050,339;12,18499
 751,31; 7013,729;  242,677;56038,379;12,13544
 751,88; 7050,021;  237,215;55875,804;12,24475
 752,45; 7132,466;  254,292;55955,306;12,34838
 753,02; 7144,681;  267,523;55796,423;12,38483
 753,58; 7152,896;  245,523;55712,924;12,45303
 754,15; 7152,803;  249,600;55850,580;12,41562
 754,72; 7217,249;  253,907;55587,620;12,58427
 755,29; 7171,156;  225,215;55477,429;12,57134
 755,86; 7267,910;  243,600;55599,392;12,68939
 756,42; 7300,740;  254,446;55484,202;12,75815
 756,99; 7250,647;  215,600;55437,396;12,73962
 757,56; 7303,554;  226,908;55457,897;12,81282
 758,13; 7324,615;  191,446;55448,784;12,90900
 758,70; 7429,830;  208,754;55384,285;13,08746
 759,26; 7406,199;  206,600;55497,633;13,02128
 759,83; 7490,183;  215,138;55651,904;13,12314
 760,40; 7525,860;  207,292;55360,559;13,26951
 760,97; 7524,844;  192,677;55437,446;13,27215
 761,53; 7498,751;  189,677;54953,794;13,34647
 762,10; 7535,504;  179,523;55044,218;13,40749
 762,67; 7625,565;  222,215;55154,181;13,47731
 763,24; 7560,088;  166,523;54675,760;13,56388
 763,80; 7634,380;  201,754;54842,877;13,60262
 764,37; 7665,056;  204,061;54755,379;13,67702
 764,94; 7672,348;  199,600;54295,573;13,81387
 765,50; 7689,332;  197,369;54383,382;13,82638
 766,07; 7770,547;  246,215;54367,653;13,90268
 766,64; 7800,531;  210,138;54001,770;14,11073
 767,21; 7760,977;  223,831;53891,656;14,04407
 767,77; 7820,268;  239,754;53840,927;14,14244
 768,34; 7883,483;  242,215;53776,737;14,27353
 768,91; 7918,083;  242,292;53575,084;14,39225
 769,47; 7943,067;  247,215;53579,817;14,42992
 770,04; 8013,282;  232,600;53440,011;14,62330
 770,61; 8012,958;  225,215;53255,435;14,68548
 771,18; 8015,250;  208,446;53085,091;14,76418
 771,74; 8056,157;  235,292;53323,285;14,73189
 772,31; 8084,218;  230,215;53058,940;14,86692
 772,88; 8098,279;  214,446;52707,750;15,01874
 773,44; 8113,417;  218,446;52618,482;15,06673
 774,01; 8159,863;  234,446;52727,599;15,09800
 774,58; 8153,924;  223,216;52399,947;15,19970
 775,14; 8168,447;  211,600;52576,064;15,19513
 775,71; 8241,431;  215,985;52494,797;15,35124
 776,27; 8278,415;  268,600;52398,067;15,36523
 776,84; 8339,245;  295,139;52499,492;15,40888
 777,41; 8330,691;  235,139;52180,071;15,58487
 777,97; 8296,367;  231,985;51969,342;15,58716
 778,54; 8390,659;  238,369;51924,766;15,77260
 779,11; 8377,566;  260,293;51930,191;15,70987
 779,67; 8378,781;  214,677;51953,308;15,77951
 780,24; 8388,458;  238,523;51668,887;15,84654
 780,80; 8487,288;  249,523;51699,773;16,01113
 781,37; 8491,810;  243,293;51610,659;16,05790
 781,94; 8504,487;  234,908;51420,238;16,15615
 782,50; 8536,779;  240,293;51404,739;16,21533
 783,07; 8571,763;  254,677;51467,472;16,24025
 783,63; 8551,901;  221,908;51216,358;16,33510
 784,20; 8601,116;  253,523;51172,475;16,39388
 784,77; 8629,100;  231,062;50910,054;16,57104
 785,33; 8625,084;  212,985;50735,940;16,65005
 785,90; 8663,376;  234,600;50656,749;16,71641
 786,46; 8674,591;  250,446;50620,020;16,72467
 787,03; 8717,729;  221,446;50350,599;16,94878
 787,59; 8731,943;  236,600;50371,947;16,94482
 788,16; 8745,774;  240,985;50292,141;16,99219
 788,73; 8776,142;  244,062;50144,565;17,09819
 789,29; 8764,204;  228,677;49801,529;17,21815
 789,86; 8802,726;  253,677;49716,876;17,28366
 790,42; 8826,095;  235,908;49448,378;17,45531
 790,99; 8769,464;  250,831;49178,649;17,41061
 791,55; 8834,371;  224,447;49200,535;17,57985
 792,12; 8884,278;  259,216;49231,883;17,61199
 792,68; 8885,262;  242,216;48849,846;17,78125
 793,25; 8889,862;  241,293;48615,886;17,87833
 793,81; 8877,846;  295,600;48344,542;17,86147
 794,38; 8819,061;  207,370;48147,736;17,96334
 794,94; 8816,737;  218,985;47935,007;18,01859
 795,51; 8808,490;  247,447;47653,431;18,05899
 796,07; 8786,013;  240,139;47466,087;18,09572
 796,64; 8852,536;  244,216;47469,204;18,22832
 797,20; 8833,750;  241,677;47105,552;18,33411
 797,77; 8821,965;  215,908;46680,823;18,52162
 798,33; 8846,488;  226,370;46547,632;18,60942
 798,90; 8839,164;  256,524;46521,903;18,55089
 799,46; 8797,764;  225,601;45897,789;18,76889
 800,03; 8815,286;  238,831;45879,368;18,79131
 800,59; 8790,886;  250,601;45703,177;18,78944
 801,15; 8872,485;  252,985;45521,910;19,04066
 801,72; 8774,546;  240,293;45155,334;19,00088
 802,28; 8777,761;  265,370;44877,221;19,08101
 802,85; 8776,053;  236,524;44621,338;19,23976
 803,41; 8813,730;  237,447;44556,762;19,35112
 803,98; 8775,098;  235,293;44047,418;19,49188
 804,54; 8730,621;  233,524;43920,766;19,44984
 805,11; 8764,297;  241,139;43638,113;19,63998
 805,67; 8810,666;  261,216;43593,461;19,73000
 806,23; 8721,881;  241,216;43168,732;19,75578
 806,80; 8753,711;  247,985;43040,695;19,87658
 807,36; 8797,618;  257,447;43046,812;19,95863
 807,93; 8758,987;  278,985;42722,237;19,97962
 808,49; 8718,279;  222,216;42402,585;20,14222
 809,05; 8706,725;  207,601;42154,087;20,26183
 809,62; 8770,093;  251,524;42141,511;20,33557
 810,18; 8734,231;  246,755;42042,551;20,30701
 810,74; 8714,908;  216,985;41760,822;20,45531
 811,31; 8773,200;  210,601;41524,709;20,72561
 811,87; 8744,568;  234,524;41277,903;20,73427
 812,44; 8805,168;  254,524;41479,250;20,74154
 813,00; 8718,460;  192,293;41034,598;20,87582
 813,56; 8849,675;  243,139;41162,484;21,03293
 814,13; 8866,582;  233,985;41008,448;21,17158
 814,69; 8836,412;  236,062;40900,949;21,14933
 815,25; 8796,242;  207,139;40381,066;21,37979
 815,82; 8789,611;  240,755;40351,491;21,31314
 816,38; 8822,749;  268,601;40127,762;21,46093
 816,94; 8724,964;  215,062;39958,802;21,41193
 817,51; 8722,410;  212,524;39646,535;21,58007
 818,07; 8699,471;  218,909;39392,882;21,64846
 818,63; 8686,762;  231,755;39210,307;21,69144
 819,20; 8792,362;  227,524;39112,270;22,02622
 819,76; 8645,500;  214,909;38788,849;21,85567
 820,32; 8761,715;  256,139;38646,966;22,15523
 820,89; 8679,237;  247,370;38460,391;22,06543
 821,45; 8643,375;  214,986;38189,431;22,19490
 822,01; 8636,513;  233,216;37871,086;22,32671
 822,57; 8640,959;  241,063;37855,280;22,33171
 823,14; 8561,866;  211,293;37486,167;22,40269
 823,70; 8549,927;  219,293;37306,745;22,46214
 824,26; 8522,296;  214,139;37121,939;22,51057
 824,82; 8582,126;  236,524;37027,441;22,68387
 825,39; 8498,264;  214,370;36749,481;22,67379
 825,95; 8557,556;  244,063;36730,752;22,78500
 826,51; 8495,617;  232,755;36361,330;22,87071
 827,08; 8559,909;  261,986;36483,217;22,90900
 827,64; 8521,508;  243,140;36268,334;22,97939
 828,20; 8512,185;  212,370;35898,143;23,25805
 828,76; 8526,477;  253,986;35886,029;23,21644
 829,32; 8502,768;  257,370;35756,454;23,22707
 829,89; 8520,599;  214,293;35706,186;23,40339
 830,45; 8489,352;  239,140;35627,303;23,31348
 831,01; 8516,490;  225,370;35479,190;23,51836
 831,57; 8499,013;  229,986;35345,230;23,54825
 832,14; 8573,151;  211,140;35348,655;23,79796
 832,70; 8544,596;  210,447;35060,695;23,91417
 833,26; 8563,350;  206,678;34902,889;24,08526
 833,82; 8525,795;  235,063;34895,467;23,91990
 834,38; 8556,472;  209,909;34862,200;24,08661
 834,95; 8536,379;  208,063;34716,471;24,13417
 835,51; 8527,825;  186,217;34589,818;24,24632
 836,07; 8567,270;  221,370;34684,397;24,21697
 836,63; 8606,331;  247,909;34621,206;24,31661
 837,19; 8612,854;  234,524;34434,862;24,49780
 837,75; 8578,069;  190,217;34086,287;24,74580
 838,32; 8625,053;  249,371;34296,327;24,60039
 838,88; 8652,114;  242,447;34342,905;24,66145
 839,44; 8688,021;  229,217;34228,561;24,87932
 840,00; 8686,544;  220,217;34125,293;24,97068
 840,56; 8619,835;  212,294;33756,487;25,06408
 841,12; 8633,281;  207,601;33786,296;25,09234
 841,68; 8620,650;  198,140;33638,490;25,18667
 842,25; 8670,634;  209,371;33518,838;25,40198
 842,81; 8657,310;  211,678;33322,032;25,50753
 843,37; 8704,218;  207,601;33416,226;25,58557
 843,93; 8701,279;  215,140;33342,497;25,61671
 844,49; 8797,955;  230,678;33339,999;25,87573
 845,05; 8773,862;  189,140;33131,347;26,05995
 845,61; 8816,308;  237,524;33205,002;26,02196
 846,17; 8842,677;  208,294;33015,658;26,31843
 846,73; 8909,353;  217,217;33016,775;26,50077
 847,29; 8894,568;  200,525;32860,661;26,61974
 847,86; 8873,937;  207,217;32722,009;26,65470
 848,42; 8861,998;  196,140;32543,203;26,79025
 848,98; 8889,520;  216,678;32561,858;26,81340
 849,54; 8937,889;  199,755;32552,283;27,00912
 850,10; 8914,027;  224,755;32341,708;27,05509
 850,66; 8934,011;  201,063;32299,517;27,20676
 851,22; 8939,688;  193,832;32128,403;27,38679
 851,78; 9019,518;  247,832;32229,674;27,42708
 852,34; 8906,348;  222,755;31870,637;27,43815
 852,90; 8968,178;  213,602;31847,831;27,67438
 853,46; 8900,239;  204,294;31624,410;27,67636
 854,02; 8972,070;  213,678;31638,450;27,87098
 854,58; 8909,900;  204,678;31429,105;27,87952
 855,14; 8894,269;  201,986;31338,761;27,91645
 855,70; 8860,945;  176,755;31218,416;27,97592
 856,26; 8914,699;  235,371;31233,534;27,99949
 856,82; 8883,990;  203,371;30950,574;28,23223
 857,38; 8892,898;  242,217;30908,614;28,20899
 857,94; 8899,574;  209,986;30828,577;28,38010
 858,50; 8869,789;  226,294;30618,617;28,43973
 859,06; 8806,773;  202,448;30493,426;28,40557
 859,62; 8829,449;  218,602;30468,390;28,46581
 860,18; 8813,434;  212,986;30324,584;28,56191
 860,74; 8773,341;  181,909;30105,547;28,71119
 861,30; 8716,786;  194,217;29888,125;28,70141
 861,86; 8794,001;  241,679;30023,935;28,71617
 862,42; 8769,524;  212,679;29767,821;28,95214
 862,98; 8841,585;  233,679;29734,476;29,17855
 863,54; 8758,338;  222,756;29541,209;29,11335
 864,10; 8784,553;  220,525;29542,249;29,20711
 864,66; 8743,306;  201,140;29320,905;29,33460
 865,22; 8735,368;  212,602;29224,714;29,37658
 865,78; 8708,736;  228,217;29105,677;29,36726
 866,34; 8747,028;  205,140;29035,333;29,62827
 866,90; 8742,628;  218,679;28876,911;29,74346
 867,45; 8692,535;  216,525;28690,105;29,76798
 868,01; 8656,827;  223,756;28554,145;29,76687
 868,57; 8598,195;  204,910;28341,955;29,83002
 869,13; 8624,872;  194,525;28286,995;30,00928
 869,69; 8586,087;  204,294;28199,343;29,94027
 870,25; 8591,994;  197,602;28030,152;30,16034
 870,81; 8549,901;  210,525;27974,346;30,03685
 871,37; 8542,501;  215,679;27896,617;30,08143
 871,93; 8513,331;  229,910;27765,580;30,08251
 872,49; 8560,546;  239,987;27545,697;30,47186
 873,04; 8497,068;  197,833;27359,506;30,55495
 873,60; 8492,206;  200,602;27265,546;30,63596
 874,16; 8494,421;  224,910;27204,048;30,65150
 874,72; 8462,498;  203,910;27066,048;30,74434
 875,28; 8462,806;  218,910;27009,971;30,77107
 875,84; 8447,267;  216,833;26925,510;30,81558
 876,40; 8483,498;  209,756;26853,587;31,05313
 876,95; 8525,267;  219,833;26916,356;31,11055
 877,51; 8569,037;  234,833;26936,817;31,21193
 878,07; 8559,575;  242,833;26841,817;31,26714
 878,63; 8592,960;  211,910;26853,587;31,45842
 879,19; 8659,113;  230,448;26860,279;31,65122
 879,75; 8617,960;  209,910;26893,740;31,50991
 880,30; 8649,344;  209,756;26889,971;31,63239
 880,86; 8749,267;  243,833;27000,202;31,78845
 881,42; 8765,113;  192,525;27050,202;31,91858
 881,98; 8839,729;  226,756;27168,048;31,96941
 882,54; 8905,344;  211,525;27217,663;32,19201
 883,09; 8991,190;  227,756;27339,279;32,32365
 883,65; 9043,037;  197,602;27335,202;32,59476
 884,21; 9167,037;  238,987;27546,587;32,69438
 884,77; 9159,575;  211,217;27684,202;32,57148
 885,32; 9211,960;  213,756;27806,202;32,61111
 885,88; 9285,960;  241,679;27903,587;32,69580
 886,44; 9318,498;  225,140;27971,202;32,77351
 887,00; 9351,960;  228,140;27985,048;32,87045
 887,56; 9449,498;  213,910;28107,048;33,11061
 888,11; 9499,498;  212,602;28153,740;33,23736
 888,67; 9584,421;  250,371;28319,202;33,25415
 889,23; 9545,729;  220,987;28304,202;33,20397
 889,79; 9580,575;  195,294;28167,279;33,55243
 890,34; 9592,883;  221,448;28126,510;33,58328
 890,90; 9684,652;  274,448;28239,510;33,64986
 891,46; 9592,575;  206,756;28133,894;33,60824
 892,01; 9714,883;  235,910;28142,202;33,96715
 892,57; 9722,883;  242,525;28027,433;34,12053
 893,13; 9676,806;  214,371;27874,510;34,20964
 893,69; 9699,652;  206,679;27834,433;34,36028
 894,24; 9643,344;  209,833;27745,433;34,25933
 894,80; 9648,729;  209,756;27656,048;34,39070
 895,36; 9617,037;  214,679;27516,279;34,43885
 895,91; 9594,883;  217,833;27286,202;34,64209
 896,47; 9603,113;  232,140;27175,510;34,78026
 897,03; 9565,960;  213,679;26974,740;34,94735
 897,58; 9514,037;  228,679;26837,587;34,89567
 898,14; 9466,652;  227,679;26705,740;34,89294
 898,70; 9422,190;  196,140;26521,433;35,04633
 899,25; 9486,344;  210,294;26541,740;35,22803
 899,81; 9472,806;  217,371;26378,202;35,37898
 900,37; 9382,267;  187,525;26079,894;35,51140
 900,92; 9417,729;  213,525;26093,048;35,56559
 901,48; 9423,652;  209,602;26053,279;35,65301
 902,03; 9378,652;  210,140;25818,740;35,80247
 902,59; 9445,267;  213,602;25710,510;36,20700
 903,15; 9400,037;  228,140;25576,202;36,18382
 903,70; 9300,037;  220,602;25382,587;36,08394
 904,26; 9268,037;  197,756;25265,356;36,18328
 904,82; 9311,344;  209,371;25302,202;36,27320
 905,37; 9327,344;  222,140;25079,510;36,62980
 905,93; 9234,190;  211,448;24944,971;36,47981
 906,48; 9221,729;  218,140;24824,279;36,59082
 907,04; 9240,267;  226,833;24824,740;36,64309
 907,60; 9184,498;  205,448;24573,356;36,84785
 908,15; 9136,652;  193,294;24495,202;36,80105
 908,71; 9135,498;  234,140;24481,587;36,71050
 909,26; 9123,883;  212,602;24315,048;36,97252
 909,82; 9086,883;  227,217;24178,433;36,99046
 910,37; 9090,498;  248,217;24143,433;37,00440
 910,93; 9035,652;  211,140;23932,356;37,20092
 911,48; 8964,037;  195,987;23748,740;37,22728
 912,04; 8956,344;  204,371;23688,894;37,26698
 912,60; 9002,883;  218,063;23709,663;37,39558
 913,15; 8960,806;  212,217;23494,202;37,57664
 913,71; 8828,729;  200,602;23282,587;37,38035
 914,26; 8862,575;  192,525;23220,817;37,64956
 914,82; 8811,883;  218,602;23132,510;37,50247
 915,37; 8796,575;  197,217;23068,587;37,59879
 915,93; 8778,344;  254,371;23015,663;37,44942
 916,48; 8751,113;  202,217;22835,894;37,77069
 917,04; 8782,421;  227,910;22721,510;38,03087
 917,59; 8758,575;  232,525;22648,433;38,03571
 918,15; 8632,652;  183,910;22479,740;37,89382
 918,70; 8661,344;  201,294;22344,510;38,20606
 919,26; 8636,190;  216,756;22277,663;38,16450
 919,81; 8542,037;  195,448;22119,125;38,07112
 920,37; 8570,498;  191,063;21986,587;38,44567
 920,92; 8545,575;  227,987;22000,202;38,20277
 921,48; 8431,421;  192,294;21781,971;38,16234
 922,03; 8449,652;  203,063;21755,202;38,26343
 922,59; 8361,806;  198,910;21551,356;38,22933
 923,14; 8353,190;  200,294;21536,971;38,21071
 923,69; 8350,729;  228,987;21373,510;38,41062
 924,25; 8356,037;  231,294;21373,279;38,42942
 924,80; 8292,498;  210,833;21137,125;38,61967
 925,36; 8227,729;  205,371;21097,433;38,39907
 925,91; 8253,960;  207,987;20935,202;38,81840
 926,47; 8196,498;  187,910;20840,663;38,77734
 927,02; 8213,113;  253,063;20835,817;38,67340
 927,57; 8155,267;  199,602;20660,740;38,88183
 928,13; 8113,960;  186,371;20612,663;38,81071
 928,68; 8079,113;  202,448;20522,587;38,76285
 929,24; 8045,421;  168,448;20419,663;38,89630
 929,79; 8031,190;  192,987;20219,971;39,13821
 930,34; 7972,037;  203,910;20070,894;39,10068
 930,90; 7956,960;  199,140;20103,587;38,97531
 931,45; 7953,344;  208,448;20063,971;39,00626
 932,01; 8000,960;  207,294;19824,894;39,72792
 932,56; 7861,806;  221,987;19795,894;39,03063
 933,11; 7900,960;  226,833;19744,663;39,31854
 933,67; 7817,883;  195,833;19569,740;39,34183
 934,22; 7845,498;  203,294;19479,663;39,64545
 934,77; 7833,960;  232,217;19436,202;39,58419
 935,33; 7787,652;  214,525;19295,279;39,68987
 935,88; 7764,190;  217,063;19181,510;39,79619
 936,43; 7769,344;  193,371;19164,663;39,93388
 936,99; 7744,421;  211,063;19027,510;40,03603
 937,54; 7691,037;  184,140;18841,894;40,23473
 938,09; 7703,344;  208,602;18791,740;40,33087
 938,65; 7668,652;  209,294;18645,817;40,45968
 939,20; 7617,729;  183,294;18601,740;40,36407
 939,75; 7641,960;  189,525;18505,356;40,68849
 940,31; 7601,652;  185,448;18393,971;40,72930
 940,86; 7662,498;  209,756;18389,048;40,99578
 941,41; 7678,806;  261,063;18269,817;41,18965
 941,96; 7614,037;  201,910;18149,433;41,29889
 942,52; 7574,498;  202,294;18048,125;41,31051
 943,07; 7536,498;  182,910;17949,125;41,39086
 943,62; 7589,575;  199,525;17862,740;41,83865
 944,18; 7539,729;  198,987;17755,663;41,81168
 944,73; 7549,190;  209,371;17721,510;41,91275
 945,28; 7472,729;  172,910;17468,510;42,20622
 945,83; 7489,421;  192,910;17503,740;42,14998
 946,39; 7500,960;  190,910;17489,740;42,25748
 946,94; 7483,960;  218,063;17365,510;42,37305
 947,49; 7456,575;  202,756;17228,740;42,60440
 948,04; 7505,498;  222,756;17257,663;42,75187
 948,59; 7473,267;  224,448;17127,510;42,88465
 949,15; 7458,190;  181,987;17016,356;43,22231
 949,70; 7437,960;  203,602;16957,587;43,17992
 950,25; 7405,421;  216,063;16872,894;43,16162
 950,80; 7401,037;  170,140;16704,125;43,73354
 951,36; 7384,421;  166,602;16642,279;43,80894
 951,91; 7466,498;  215,756;16653,279;44,11092
 952,46; 7348,113;  188,217;16474,125;43,96375
 953,01; 7406,498;  211,756;16479,279;44,22764
 953,56; 7337,652;  182,217;16339,663;44,28568
 954,11; 7359,960;  208,217;16342,971;44,32508
 954,67; 7335,113;  186,602;16240,433;44,52838
 955,22; 7306,652;  165,140;16065,125;44,91521
 955,77; 7263,729;  227,371;16076,510;44,39584
 956,32; 7237,421;  233,525;15970,125;44,50705
 956,87; 7172,883;  188,217;15816,356;44,69288
 957,42; 7200,729;  199,448;15744,202;45,03951
 957,98; 7106,960;  195,525;15677,125;44,64290
 958,53; 7129,806;  216,679;15685,894;44,68958
 959,08; 7077,883;  190,756;15538,048;44,87519
 959,63; 7023,806;  185,140;15422,356;44,88133
 960,18; 7023,498;  204,063;15400,817;44,87428
 960,73; 7045,037;  202,756;15353,048;45,16270
 961,28; 7015,190;  188,371;15228,510;45,39067
 961,83; 7048,960;  205,525;15224,510;45,56523
 962,39; 6949,883;  184,602;15026,894;45,58110
 962,94; 6863,960;  217,756;14998,510;44,96526
 963,49; 6837,729;  202,756;14846,048;45,31066
 964,04; 6853,267;  212,063;14804,971;45,50981
 964,59; 6810,960;  170,140;14735,356;45,59369
 965,14; 6820,575;  214,140;14637,740;45,80295
 965,69; 6750,575;  204,525;14532,356;45,68766
 966,24; 6722,344;  189,910;14443,894;45,82883
 966,79; 6685,729;  215,217;14397,125;45,62511
 967,34; 6671,344;  169,448;14195,587;46,35557
 967,89; 6688,729;  195,679;14179,048;46,43409
 968,44; 6635,113;  205,294;14128,740;46,17980
 968,99; 6643,190;  210,679;14066,740;46,42381
 969,55; 6585,344;  202,910;13953,817;46,41464
 970,10; 6540,037;  205,756;13867,587;46,36480
 970,65; 6486,037;  216,217;13742,587;46,35257
 971,20; 6461,652;  194,140;13683,510;46,46260
 971,75; 6392,421;  175,833;13469,356;46,76404
 972,30; 6368,498;  200,525;13451,663;46,54674
 972,85; 6351,498;  191,756;13365,125;46,75905
 973,40; 6319,729;  191,756;13249,663;46,92921
 973,95; 6317,960;  202,140;13220,740;46,97755
 974,50; 6300,421;  223,448;13146,894;47,02285
 975,05; 6226,652;  201,756;13000,279;47,07493
 975,60; 6191,113;  215,140;12978,894;46,81987
 976,15; 6163,575;  191,833;12840,663;47,21181
 976,70; 6122,113;  203,063;12794,356;47,00907
 977,25; 6114,575;  212,833;12717,817;47,19512
 977,80; 6079,037;  194,679;12616,433;47,37139
 978,35; 5953,113;  218,448;12468,048;46,81512
 978,89; 5955,344;  186,679;12345,510;47,44424
 979,44; 5977,883;  197,756;12355,971;47,54092
 979,99; 5864,883;  186,910;12160,510;47,42077
 980,54; 5911,421;  227,987;12152,356;47,66235
 981,09; 5825,421;  219,140;12073,433;47,29326
 981,64; 5762,190;  206,833;11907,663;47,47832
 982,19; 5773,421;  235,910;11902,510;47,46466
 982,74; 5672,883;  214,987;11733,971;47,38175
 983,29; 5597,883;  191,756;11599,356;47,39057
 983,84; 5584,883;  209,525;11474,202;47,71870
 984,39; 5586,344;  262,833;11432,587;47,66006
 984,94; 5449,883;  178,294;11322,971;47,30140
 985,49; 5461,190;  231,679;11240,587;47,50255
 986,03; 5415,037;  225,217;11184,587;47,35509
 986,58; 5399,113;  245,448;11041,740;47,73551
 987,13; 5341,883;  207,910;10894,587;48,04087
 987,68; 5296,421;  222,140;10822,125;47,87064
 988,23; 5270,575;  221,063;10802,048;47,72251
 988,78; 5192,113;  193,063;10655,433;47,78124
 989,33; 5155,190;  216,833;10548,125;47,80000
 989,88; 5205,498;  224,756;10489,740;48,52167
 990,42; 5115,960;  210,679;10372,433;48,27199
 990,97; 5049,575;  210,833;10237,356;48,25942
 991,52; 5039,190;  229,140;10154,125;48,46405
 992,07; 5025,652;  237,910;10121,663;48,44053
 992,62; 4892,575;  222,448; 9972,356;47,89919
 993,17; 4899,113;  221,448; 9894,663;48,35688
 993,71; 4873,190;  222,756; 9765,433;48,73302
 994,26; 4814,037;  201,371; 9678,125;48,67347
 994,81; 4857,190;  221,140; 9602,510;49,41763
 995,36; 4748,806;  204,371; 9478,894;48,99912
 995,91; 4715,960;  217,679; 9431,356;48,82178
 996,45; 4689,190;  205,140; 9270,279;49,46477
 997,00; 4596,806;  189,987; 9123,740;49,32774
 997,55; 4612,498;  216,987; 9109,587;49,42887
 998,10; 4558,113;  242,756; 8988,433;49,34275
 998,65; 4502,652;  204,140; 8947,356;49,16397
 999,19; 4464,729;  221,371; 8811,663;49,39713
 999,74; 4424,806;  236,987; 8739,510;49,25384
1000,29; 4442,575;  226,294; 8655,202;50,02167
1000,84; 4343,190;  201,679; 8495,894;49,93253
1001,38; 4312,498;  213,217; 8413,971;49,98663
1001,93; 4336,960;  229,910; 8355,356;50,54553
1002,48; 4239,729;  204,448; 8209,125;50,41154
1003,03; 4231,498;  223,910; 8186,894;50,32772
1003,57; 4238,806;  227,833; 8108,663;50,89531
1004,12; 4200,037;  256,371; 7949,048;51,26519
1004,67; 4143,498;  210,602; 7886,356;51,23791
1005,22; 4095,806;  205,448; 7729,125;51,70820
1005,76; 4077,421;  197,833; 7624,356;52,23963
1006,31; 4048,575;  228,217; 7583,894;51,93754
1006,86; 3954,575;  215,140; 7489,663;51,40453
1007,40; 3915,806;  202,602; 7323,587;52,14453
1007,95; 3895,037;  223,910; 7254,587;52,21584
1008,50; 3827,575;  215,910; 7108,048;52,40268
1009,04; 3813,421;  211,987; 7077,894;52,45387
1009,59; 3765,037;  215,525; 6945,279;52,74356
1010,14; 3676,652;  191,063; 6864,587;52,23011
1010,68; 3625,113;  202,217; 6776,971;52,06121
1011,23; 3577,652;  211,987; 6622,356;52,50346
1011,78; 3564,113;  223,525; 6594,279;52,43631
1012,32; 3513,806;  225,910; 6476,740;52,59935
1012,87; 3518,190;  240,063; 6461,279;52,69271
1013,42; 3399,113;  198,602; 6310,740;52,36320
1013,96; 3453,806;  235,063; 6342,587;52,70127
1014,51; 3357,037;  176,679; 6239,510;52,45665
1015,06; 3378,575;  194,294; 6241,663;52,65564
1015,60; 3420,190;  250,756; 6316,817;52,24864
1016,15; 3381,575;  204,140; 6243,894;52,60868
1016,69; 3416,344;  205,371; 6311,587;52,58532
1017,24; 3385,037;  193,371; 6283,202;52,40975
1017,79; 3456,652;  236,756; 6368,663;52,51051
1018,33; 3456,806;  201,063; 6299,663;53,38508
1018,88; 3529,729;  222,679; 6390,048;53,62173
1019,42; 3509,037;  206,987; 6383,202;53,46397
1019,97; 3508,037;  202,525; 6343,279;53,82908
1020,51; 3546,421;  224,679; 6435,125;53,48637
1021,06; 3534,113;  196,679; 6409,048;53,72241
1021,61; 3489,113;  177,525; 6367,587;53,49847
1022,15; 3507,729;  168,140; 6285,279;54,59397
1022,70; 3534,037;  201,987; 6293,663;54,69840
1023,24; 3518,190;  194,217; 6266,125;54,74347
1023,79; 3471,498;  207,602; 6194,279;54,51933
1024,33; 3476,113;  189,140; 6167,740;54,97898
1024,88; 3409,652;  221,371; 6046,740;54,73096
1025,42; 3384,267;  211,140; 5985,356;54,95339
1025,97; 3326,037;  199,833; 5905,663;54,78963
1026,51; 3248,729;  176,063; 5792,817;54,70536
1027,06; 3217,037;  192,217; 5716,433;54,75564
1027,60; 3177,190;  216,217; 5660,356;54,38828
1028,15; 3149,498;  214,910; 5538,048;55,12891
1028,69; 3049,344;  173,602; 5427,894;54,73130
1029,24; 3070,267;  187,294; 5382,663;55,49121
1029,78; 2996,190;  189,910; 5295,048;54,96973
1030,33; 2922,190;  178,679; 5186,817;54,78106
1030,87; 2900,421;  195,679; 5110,356;55,03398
1031,42; 2867,806;  175,833; 5040,510;55,33714
1031,96; 2849,883;  207,525; 4971,587;55,46439
1032,51; 2778,575;  184,833; 4889,202;55,13475
1033,05; 2758,806;  204,679; 4859,971;54,86502
1033,60; 2692,037;  165,525; 4725,971;55,40053
1034,14; 2657,498;  191,679; 4665,971;55,11082
1034,69; 2611,344;  202,140; 4596,433;54,82575
1035,23; 2588,498;  195,987; 4562,356;54,79407
1035,77; 2564,421;  190,448; 4520,048;54,83123
1036,32; 2501,037;  169,525; 4409,433;54,98968
1036,86; 2495,190;  201,679; 4379,817;54,89314
1037,41; 2454,960;  205,756; 4278,279;55,22876
1037,95; 2426,883;  181,679; 4218,971;55,61162
1038,50; 2405,421;  187,217; 4162,510;55,79977
1039,04; 2395,883;  213,910; 4120,587;55,85241
1039,58; 2317,806;  186,140; 4047,740;55,20161
1040,13; 2306,190;  197,525; 3989,048;55,61526
1040,67; 2322,806;  229,448; 3970,817;55,95165
1041,21; 2284,344;  213,140; 3912,740;55,98453
1041,76; 2218,421;  179,679; 3816,356;56,06058
1042,30; 2192,575;  204,063; 3788,125;55,48207
1042,85; 2154,190;  200,448; 3725,971;55,41709
1043,39; 2126,729;  166,910; 3647,125;56,31316
1043,93; 2121,421;  211,217; 3640,894;55,69632
1044,48; 2065,421;  215,679; 3562,663;55,26593
1045,02; 2038,113;  197,525; 3481,279;56,05135
1045,56; 2028,498;  215,294; 3502,971;55,15152
1046,11; 1999,267;  206,756; 3442,894;55,39045
1046,65; 1964,883;  208,448; 3371,663;55,52687
1047,19; 1954,344;  188,063; 3327,279;56,26504
1047,74; 1894,806;  184,833; 3238,510;55,99718
1048,28; 1888,806;  201,910; 3227,279;55,75836
1048,82; 1885,190;  212,833; 3210,510;55,78846
1049,37; 1855,190;  214,602; 3148,048;55,92700
1049,91; 1827,267;  197,756; 3114,433;55,86877
1050,45; 1815,498;  219,140; 3066,971;56,05522
1050,99; 1781,267;  201,294; 3028,587;55,88291
1051,54; 1751,113;  197,756; 2964,587;56,14213
1052,08; 1762,806;  220,217; 2919,125;57,15603
1052,62; 1751,729;  211,756; 2906,356;57,15034
1053,16; 1701,190;  191,525; 2845,894;56,87473
1053,71; 1703,344;  203,756; 2818,202;57,35779
1054,25; 1659,652;  216,371; 2767,125;56,58252
1054,79; 1641,113;  212,910; 2723,048;56,89741
1055,33; 1595,113;  177,602; 2670,279;56,86704
1055,88; 1619,037;  215,371; 2668,587;57,21737
1056,42; 1603,113;  222,987; 2646,817;56,93990
1056,96; 1559,883;  217,140; 2583,048;56,75379
1057,50; 1540,652;  211,371; 2545,433;56,95140
1058,05; 1515,883;  200,987; 2502,356;57,13538
1058,59; 1513,113;  229,294; 2489,279;56,80655
1059,13; 1440,806;  186,525; 2424,894;56,03547
1059,67; 1468,498;  224,448; 2421,433;56,62534
1060,21; 1466,267;  213,063; 2344,817;58,78746
1060,76; 1437,498;  221,602; 2316,433;58,04269
1061,30; 1451,037;  226,910; 2312,279;58,70073
1061,84; 1396,344;  213,448; 2244,202;58,24912
1062,38; 1380,498;  192,063; 2193,048;59,39249
1062,92; 1415,037;  240,910; 2237,279;58,81311
1063,46; 1370,190;  224,679; 2158,433;59,23771
1064,01; 1329,960;  204,217; 2134,894;58,30817
1064,55; 1325,575;  213,140; 2102,048;58,89301
1065,09; 1291,344;  185,063; 2060,048;59,00213
1065,63; 1310,113;  239,140; 2071,202;58,45727
1066,17; 1290,113;  242,217; 2045,971;58,09530
1066,71; 1288,575;  226,217; 2023,587;59,10626
1067,25; 1272,729;  211,294; 1967,433;60,44140
1067,80; 1255,883;  219,679; 1961,433;59,49198
1068,34; 1251,729;  242,756; 1928,971;59,83655
1068,88; 1214,960;  201,448; 1891,510;59,96891
1069,42; 1214,575;  241,294; 1921,433;57,92860
1069,96; 1201,883;  200,217; 1850,279;60,70473
1070,50; 1196,190;  241,910; 1861,433;58,92357
1071,04; 1162,190;  192,756; 1814,817;59,76559
1071,58; 1175,267;  210,602; 1809,510;60,33278
1072,12; 1153,190;  207,987; 1767,971;60,59059
1072,66; 1148,113;  205,602; 1757,356;60,73847
1073,21; 1149,344;  228,371; 1752,202;60,43802
1073,75; 1125,960;  226,602; 1707,202;60,74279
1074,29; 1100,113;  218,371; 1684,433;60,14361
1074,83; 1110,037;  233,140; 1701,125;59,73470
1075,37; 1099,421;  230,525; 1658,202;60,86084
1075,91; 1081,190;  224,987; 1647,663;60,18259
1076,45; 1079,037;  217,063; 1628,894;61,05357
1076,99; 1064,113;  236,756; 1589,125;61,17839
1077,53; 1034,498;  206,525; 1573,971;60,54886
1078,07; 1043,652;  222,525; 1573,433;60,78335
1078,61; 1014,652;  217,833; 1538,894;60,31659
1079,15; 1002,344;  212,525; 1524,663;60,19328
1079,69;  995,344;  216,140; 1491,433;61,10002
1080,23;  980,729;  233,833; 1482,587;59,81132
1080,77; 1017,960;  267,910; 1506,048;60,57885
1081,31;  948,421;  213,679; 1440,894;59,87069
1081,85;  955,729;  224,602; 1452,048;59,56489
1082,39;  937,883;  209,294; 1414,663;60,44525
1082,93;  944,267;  221,063; 1410,894;60,78208
1083,47;  901,729;  196,140; 1361,971;60,52237
1084,01;  925,806;  236,140; 1391,587;59,68823
1084,55;  899,190;  209,987; 1330,510;61,50733
1085,09;  907,037;  230,448; 1354,202;60,20789
1085,63;  885,729;  214,371; 1322,894;60,56326
1086,17;  868,960;  212,679; 1282,433;61,34876
1086,71;  853,806;  213,910; 1289,356;59,50053
1087,24;  894,883;  232,140; 1300,663;62,02415
1087,78;  858,498;  224,833; 1273,817;60,40750
1088,32;  824,267;  215,217; 1228,202;60,12431
1088,86;  839,960;  241,987; 1251,202;59,25128
1089,40;  849,960;  217,602; 1222,433;62,93176
1089,94;  812,190;  195,833; 1181,433;62,53629
1090,48;  804,883;  226,833; 1185,279;60,31116
1091,02;  820,652;  232,833; 1181,587;61,95698
1091,56;  798,806;  218,756; 1171,971;60,85193
1092,10;  771,652;  200,217; 1147,971;60,29357
1092,63;  790,729;  234,987; 1154,740;60,42294
1093,17;  773,883;  233,294; 1125,587;60,58423
1093,71;  750,575;  209,294; 1113,279;59,87721
1094,25;  781,652;  235,448; 1131,817;60,93514
1094,79;  755,113;  218,371; 1087,048;61,78848
1095,33;  736,960;  220,679; 1067,279;60,98285
1095,87;  737,344;  228,448; 1063,817;60,91871
1096,40;  711,729;  198,679; 1024,663;62,11375
1096,94;  716,421;  216,987; 1045,894;60,25214
1097,48;  723,037;  219,833; 1024,048;62,57078
1098,02;  703,190;  211,371; 1015,894;61,13177
1098,56;  684,344;  189,679;  980,048;62,58662
1099,10;  684,883;  185,833;  971,894;63,48740
1099,63;  687,267;  200,987;  948,587;65,04558
1100,17;  692,498;  222,602;  979,433;62,08735
1100,71;  701,421;  243,140;  987,433;61,57269

