
Integration time [ms]: 160,000
Averaging Nr. [scans]: 13
Smoothing Nr. [pixels]: 0
Data measured with spectrometer [name]: 2009305U1
Wave   ;Sample   ;Dark     ;Reference;Reflectance
[nm]   ;[counts] ;[counts] ;[counts] ;[%]

 175,72;  202,662;  192,833;  205,653;76,66587
 176,32;  235,720;  215,986;  216,813; 0,00000
 176,92;  271,519;  247,602;  254,971;324,55869
 177,52;  267,771;  255,679;  265,678;120,93291
 178,12;  250,977;  239,756;  224,864; 0,00000
 178,72;  274,236;  257,525;  250,340; 0,00000
 179,32;  261,018;  248,909;  241,998; 0,00000
 179,92;  262,444;  247,063;  242,319; 0,00000
 180,52;  254,001;  235,064;  254,068;99,64792
 181,12;  263,170;  243,833;  252,404;225,59765
 181,73;  282,943;  258,371;  266,338;308,44605
 182,33;  391,703;  327,141;  336,927;659,74974
 182,93;  288,579;  265,064;  266,645;1486,79622
 183,53;  255,987;  233,755;  224,030; 0,00000
 184,13;  234,977;  236,909;  229,431; 0,00000
 184,73;  289,572;  266,448;  273,739;317,16361
 185,33;  276,794;  232,445;  341,197;40,78036
 185,93;  277,785;  226,213;  348,375;42,21572
 186,53;  290,586;  244,675;  370,650;36,44429
 187,13;  307,592;  273,291;  414,063;24,36596
 187,73;  272,442;  243,598;  361,495;24,46504
 188,33;  268,449;  237,983;  370,649;22,96487
 188,93;  296,613;  250,059;  374,130;37,52163
 189,53;  291,131;  248,981;  393,125;29,24113
 190,13;  326,767;  274,058;  409,924;38,79476
 190,73;  269,761;  218,289;  365,019;35,07936
 191,34;  307,234;  256,905;  385,888;39,01977
 191,94;  276,757;  235,829;  359,614;33,06391
 192,54;  304,668;  240,984;  391,391;42,34147
 193,14;  304,318;  258,291;  390,009;34,94341
 193,74;  299,644;  260,214;  377,424;33,64067
 194,34;  304,710;  241,445;  388,106;43,13680
 194,94;  259,819;  209,983;  342,899;37,49380
 195,54;  237,273;  190,137;  332,970;33,00049
 196,14;  273,775;  225,291;  354,341;37,57026
 196,74;  256,573;  223,445;  343,719;27,54386
 197,34;  235,513;  197,522;  345,903;25,60331
 197,94;  266,879;  232,368;  373,573;24,44002
 198,54;  279,920;  228,599;  383,909;33,04410
 199,14;  249,293;  215,368;  380,241;20,57624
 199,74;  242,715;  190,292;  370,197;29,13961
 200,34;  239,824;  195,061;  379,885;24,21935
 200,94;  277,732;  233,599;  425,936;22,94578
 201,54;  253,408;  216,753;  432,596;16,98208
 202,14;  290,839;  230,061;  474,093;24,90573
 202,74;  272,458;  213,907;  473,146;22,58581
 203,34;  238,019;  180,907;  480,577;19,05824
 203,94;  237,334;  170,753;  486,255;21,10320
 204,54;  309,423;  238,445;  563,211;21,85504
 205,14;  253,591;  203,984;  571,733;13,48950
 205,74;  296,329;  236,907;  659,589;14,05818
 206,34;  272,254;  200,215;  679,015;15,04572
 206,94;  298,800;  210,138;  728,140;17,11611
 207,54;  280,381;  191,907;  773,579;15,21031
 208,14;  303,019;  194,522;  845,836;16,65812
 208,74;  307,027;  198,907;  918,683;15,02132
 209,34;  317,578;  202,215;  992,970;14,58904
 209,94;  346,186;  202,753; 1089,013;16,18409
 210,54;  334,636;  195,292; 1187,450;14,04460
 211,14;  354,880;  194,368; 1267,179;14,96182
 211,73;  370,940;  197,830; 1399,958;14,40034
 212,33;  383,618;  214,830; 1495,442;13,18026
 212,93;  378,105;  201,830; 1569,925;12,88474
 213,53;  351,603;  168,522; 1613,023;12,67430
 214,13;  389,781;  193,369; 1705,053;12,99292
 214,73;  373,993;  179,907; 1721,786;12,58762
 215,33;  363,648;  163,830; 1742,628;12,65632
 215,93;  403,081;  194,523; 1862,662;12,50245
 216,53;  382,021;  157,753; 1944,199;12,55387
 217,13;  434,434;  209,061; 2159,512;11,55490
 217,73;  420,771;  196,599; 2334,342;10,48638
 218,33;  407,102;  149,754; 2512,186;10,89335
 218,93;  465,589;  177,292; 2802,474;10,98198
 219,53;  476,754;  179,830; 3052,680;10,33552
 220,13;  486,340;  166,677; 3342,899;10,06425
 220,73;  538,107;  178,292; 3659,770;10,33514
 221,32;  593,334;  192,215; 4073,836;10,33382
 221,92;  635,910;  184,984; 4477,909;10,50393
 222,52;  658,028;  163,446; 4867,162;10,51472
 223,12;  725,987;  187,984; 5286,413;10,55233
 223,72;  769,871;  189,369; 5644,061;10,64225
 224,32;  832,464;  186,830; 5997,482;11,11120
 224,92;  853,214;  168,830; 6323,312;11,12009
 225,52;  926,222;  197,753; 6670,557;11,25430
 226,12;  961,464;  180,753; 6972,357;11,49523
 226,72;  985,400;  160,753; 7292,274;11,56341
 227,31; 1040,766;  151,984; 7646,565;11,85899
 227,91; 1112,486;  194,138; 8071,656;11,65784
 228,51; 1182,997;  165,984; 8435,636;12,29814
 229,11; 1279,835;  184,907; 8840,069;12,65058
 229,71; 1298,049;  170,830; 9126,800;12,58623
 230,31; 1394,646;  168,369; 9555,531;13,06334
 230,91; 1447,925;  158,599; 9813,841;13,35364
 231,51; 1530,445;  163,753;10061,634;13,80792
 232,10; 1604,043;  164,907;10384,972;14,08148
 232,70; 1721,479;  181,445;10581,029;14,80861
 233,30; 1820,891;  195,753;10813,411;15,30599
 233,90; 1848,103;  167,984;10937,933;15,60007
 234,50; 1940,436;  169,984;11059,818;16,25784
 235,10; 1992,368;  171,292;10974,158;16,85734
 235,70; 2070,670;  182,907;11013,347;17,43016
 236,29; 2128,711;  178,907;10902,340;18,18265
 236,89; 2151,835;  160,907;10792,462;18,72660
 237,49; 2227,300;  183,907;10632,310;19,55699
 238,09; 2228,869;  172,753;10341,707;20,21954
 238,69; 2301,044;  207,676;10098,604;21,16452
 239,29; 2243,681;  164,138; 9734,699;21,72854
 239,89; 2260,469;  172,907; 9401,017;22,62178
 240,48; 2190,850;  167,215; 8971,537;22,98457
 241,08; 2177,704;  164,522; 8611,278;23,83379
 241,68; 2194,492;  188,215; 8278,664;24,79809
 242,28; 2097,481;  156,215; 7940,130;24,93945
 242,88; 2121,587;  197,061; 7665,624;25,76836
 243,48; 2085,186;  202,138; 7348,585;26,34943
 244,07; 2034,006;  196,215; 7158,640;26,39585
 244,67; 2042,248;  189,599; 6950,593;27,40201
 245,27; 1993,017;  189,214; 6813,419;27,23048
 245,87; 2025,938;  193,677; 6751,769;27,93894
 246,47; 1966,036;  180,522; 6743,128;27,20739
 247,06; 1979,364;  173,599; 6743,421;27,48575
 247,66; 1971,308;  171,676; 6819,743;27,07000
 248,26; 2054,830;  200,830; 7000,936;27,26428
 248,86; 2070,880;  197,445; 7154,654;26,92797
 249,46; 2083,869;  145,599; 7378,217;26,79900
 250,05; 2191,083;  199,830; 7771,472;26,29882
 250,65; 2206,599;  152,599; 8058,257;25,98139
 251,25; 2317,638;  170,984; 8552,490;25,61180
 251,85; 2400,134;  170,830; 9127,877;24,88883
 252,44; 2500,931;  137,061; 9680,974;24,76835
 253,04; 2618,646;  188,215;10445,847;23,69388
 253,64; 2698,863;  136,830;11140,049;23,28440
 254,24; 2884,430;  193,061;12050,132;22,69843
 254,84; 3026,869;  169,830;13024,525;22,22564
 255,43; 3128,862;  179,676;13965,778;21,39245
 256,03; 3264,591;  176,907;14933,069;20,92471
 256,63; 3379,740;  184,599;15959,061;20,25515
 257,23; 3461,593;  171,753;16835,711;19,74225
 257,82; 3574,914;  182,599;17818,426;19,23536
 258,42; 3612,359;  143,753;18720,590;18,67167
 259,02; 3723,060;  189,522;19585,306;18,21807
 259,62; 3729,693;  171,445;20283,193;17,69239
 260,21; 3742,094;  174,291;20811,251;17,28841
 260,81; 3737,773;  185,907;21379,753;16,75895
 261,41; 3676,976;  151,137;21814,664;16,27546
 262,01; 3652,077;  198,214;22356,130;15,58749
 262,60; 3574,286;  159,060;22637,173;15,19356
 263,20; 3510,893;  176,445;23055,648;14,57415
 263,80; 3489,954;  194,906;23123,820;14,37071
 264,40; 3350,957;  149,752;23365,215;13,78911
 264,99; 3297,072;  181,983;23636,262;13,28154
 265,59; 3224,470;  166,214;23828,529;12,92458
 266,19; 3161,914;  157,752;24024,776;12,58708
 266,78; 3182,807;  197,445;24085,499;12,49730
 267,38; 3054,597;  186,368;24190,233;11,94903
 267,98; 2997,652;  170,906;24143,256;11,79169
 268,58; 2952,732;  186,137;24183,756;11,52863
 269,17; 2899,421;  173,752;24133,851;11,37587
 269,77; 2875,728;  192,522;23966,940;11,28611
 270,37; 2794,179;  161,368;23855,106;11,11184
 270,96; 2815,289;  214,830;23796,071;11,02766
 271,56; 2714,952;  179,676;23480,276;10,88073
 272,16; 2688,411;  169,060;23368,768;10,85941
 272,75; 2657,419;  169,522;23244,494;10,78180
 273,35; 2683,873;  186,753;23207,061;10,84747
 273,95; 2658,456;  180,291;23273,296;10,73124
 274,54; 2655,421;  158,061;23319,855;10,78224
 275,14; 2793,862;  185,830;23690,387;11,09586
 275,74; 2731,670;  157,830;23677,369;10,94341
 276,33; 2879,008;  197,983;24100,569;11,21646
 276,93; 2922,317;  184,138;24473,251;11,27328
 277,53; 2977,518;  181,984;25015,911;11,25692
 278,12; 3085,137;  152,830;25597,349;11,52432
 278,72; 3272,165;  215,676;26084,768;11,81522
 279,32; 3378,659;  184,830;26655,470;12,06555
 279,91; 3494,916;  151,984;27296,689;12,31523
 280,51; 3595,661;  164,061;27885,853;12,37871
 281,11; 3764,205;  165,368;28515,442;12,69428
 281,70; 3890,055;  153,676;28993,081;12,95581
 282,30; 4122,413;  163,599;29674,353;13,41482
 282,90; 4197,385;  168,753;30003,444;13,50318
 283,49; 4432,372;  190,983;30517,786;13,98561
 284,09; 4627,038;  200,214;30896,231;14,42149
 284,69; 4774,516;  194,907;31311,375;14,71764
 285,28; 4960,539;  181,907;31608,199;15,20584
 285,88; 5257,768;  231,060;31904,705;15,87032
 286,47; 5319,655;  181,137;31901,565;16,19940
 287,07; 5557,852;  202,984;31975,438;16,85381
 287,67; 5749,801;  185,830;32122,739;17,42176
 288,26; 5965,334;  169,599;32037,774;18,18659
 288,86; 6209,528;  168,676;32056,294;18,94419
 289,46; 6491,376;  193,984;32185,292;19,68470
 290,05; 6776,908;  172,368;32376,766;20,50819
 290,65; 7164,428;  173,907;32494,359;21,62879
 291,24; 7480,060;  178,138;32665,551;22,47616
 291,84; 7828,278;  184,830;32740,907;23,47779
 292,44; 8155,259;  179,061;33002,715;24,30015
 293,03; 8624,205;  246,907;32988,735;25,58592
 293,63; 8917,982;  176,599;33084,504;26,56317
 294,22; 9283,830;  190,753;33347,104;27,42484
 294,82; 9567,869;  182,060;33256,310;28,37800
 295,41; 9726,286;  155,291;33060,774;29,08632
 296,01;10013,156;  208,214;33008,575;29,89279
 296,61;10129,167;  182,753;32641,087;30,64364
 297,20;10297,201;  186,522;32323,950;31,46076
 297,80;10436,334;  194,984;32156,885;32,04237
 298,39;10485,595;  164,060;31774,877;32,65191
 298,99;10645,231;  189,214;31656,241;33,22849
 299,58;10758,826;  192,292;31571,638;33,67353
 300,18;10818,685;  209,445;31366,877;34,05043
 300,78;10847,342;  177,599;30948,409;34,67488
 301,37;10894,395;  193,291;30891,191;34,85940
 301,97;11050,665;  188,061;30939,660;35,32370
 302,56;11105,321;  187,137;30906,361;35,54186
 303,16;11132,184;  173,753;30840,917;35,73344
 303,75;11232,847;  174,368;30857,002;36,04149
 304,35;11426,402;  166,830;31103,257;36,39584
 304,94;11550,115;  179,138;31040,448;36,84541
 305,54;11591,565;  201,215;31020,913;36,95802
 306,13;11513,179;  164,984;31012,753;36,78773
 306,73;11569,154;  168,138;30770,960;37,25479
 307,33;11579,323;  192,369;30714,351;37,30739
 307,92;11688,454;  185,061;30785,136;37,59270
 308,52;11876,254;  165,830;31199,806;37,73420
 309,11;12106,717;  172,137;31705,231;37,84779
 309,71;12201,856;  168,599;31935,792;37,87951
 310,30;12375,447;  160,061;32195,179;38,13124
 310,90;12569,755;  198,061;32541,025;38,25158
 311,49;12606,344;  179,214;32617,051;38,31060
 312,09;12623,473;  152,599;32789,355;38,21113
 312,68;12872,910;  218,291;33185,330;38,38567
 313,28;12941,993;  159,907;33317,674;38,54930
 313,87;12947,449;  153,830;33457,421;38,41513
 314,47;13103,980;  169,214;33719,073;38,55386
 315,06;13148,578;  155,291;33846,369;38,56596
 315,66;13265,704;  156,061;33991,278;38,74556
 316,25;13209,211;  145,291;34000,199;38,58796
 316,85;13146,597;  140,215;34012,972;38,39777
 317,44;13229,503;  163,445;34187,697;38,40219
 318,04;13164,942;  154,368;34156,383;38,26413
 318,63;13117,164;  146,292;34237,622;38,04742
 319,22;13224,997;  171,445;34452,357;38,07819
 319,82;13151,098;  162,137;34418,304;37,91715
 320,41;13124,466;  181,214;34371,699;37,85630
 321,01;13063,102;  184,907;34386,656;37,65361
 321,60;13116,779;  176,214;34477,630;37,72604
 322,20;13012,751;  164,599;34382,000;37,54859
 322,79;13039,434;  198,368;34501,800;37,43376
 323,39;12980,482;  170,907;34565,974;37,24248
 323,98;12859,565;  149,522;34508,529;36,99188
 324,58;12838,340;  154,368;34408,391;37,02915
 325,17;12721,132;  176,599;34190,879;36,88020
 325,76;12641,623;  187,830;34036,681;36,79237
 326,36;12462,766;  143,368;33626,517;36,79283
 326,95;12250,710;  193,753;33357,126;36,35624
 327,55;12074,888;  148,676;32972,948;36,33352
 328,14;11973,225;  161,292;32580,644;36,43482
 328,74;11739,515;  189,830;32167,636;36,11781
 329,33;11539,402;  178,907;31731,391;36,00507
 329,92;11342,475;  156,214;31253,788;35,97149
 330,52;11008,935;  173,753;30573,956;35,64181
 331,11;10849,865;  171,445;30177,215;35,58789
 331,71;10557,454;  165,522;29557,766;35,35604
 332,30;10369,961;  177,445;29149,371;35,18066
 332,89;10179,453;  213,984;28628,725;35,07147
 333,49; 9924,565;  187,907;28086,942;34,89962
 334,08; 9678,802;  175,368;27697,286;34,53042
 334,68; 9491,214;  180,907;27293,964;34,33883
 335,27; 9337,698;  186,215;26952,612;34,19020
 335,86; 9202,481;  224,753;26641,446;33,98506
 336,46; 9050,302;  181,061;26461,399;33,74858
 337,05; 8889,770;  171,599;26265,353;33,41095
 337,65; 8771,685;  153,291;26054,626;33,27394
 338,24; 8743,383;  213,907;26069,851;32,98845
 338,83; 8699,516;  192,984;25957,438;33,01655
 339,43; 8588,045;  167,984;25897,909;32,72478
 340,02; 8557,588;  162,291;25866,857;32,66072
 340,61; 8524,261;  170,138;25836,938;32,54836
 341,21; 8458,976;  208,137;25858,636;32,16639
 341,80; 8447,321;  175,368;25826,808;32,24752
 342,40; 8370,299;  170,292;25890,158;31,88200
 342,99; 8379,991;  165,445;25947,187;31,86187
 343,58; 8339,940;  177,368;26189,622;31,37972
 344,18; 8358,908;  195,522;26373,073;31,18468
 344,77; 8369,406;  164,599;26529,948;31,11966
 345,36; 8450,402;  148,676;26879,818;31,05638
 345,96; 8453,267;  201,984;27219,638;30,54034
 346,55; 8489,087;  151,369;27427,300;30,56804
 347,14; 8532,711;  152,907;27772,144;30,34046
 347,74; 8616,450;  143,292;28192,844;30,20782
 348,33; 8732,100;  164,677;28854,944;29,86178
 348,92; 8858,424;  178,061;29402,688;29,70222
 349,52; 8925,184;  140,215;29849,887;29,56939
 350,11; 9005,053;  175,907;30115,958;29,48942
 350,70; 8971,695;  167,061;30103,798;29,41080
 351,29; 8793,789;  160,291;29828,098;29,10056
 351,89; 8742,939;  176,983;29840,031;28,87753
 352,48; 8698,513;  155,215;29908,351;28,71394
 353,07; 8622,908;  174,599;29796,583;28,52040
 353,67; 8516,402;  189,215;29796,109;28,12584
 354,26; 8425,721;  164,676;29465,729;28,19368
 354,85; 8333,548;  173,907;29381,496;27,93672
 355,45; 8205,334;  158,830;29187,341;27,71932
 356,04; 8145,261;  168,753;29179,958;27,49458
 356,63; 8088,160;  200,676;28979,836;27,40693
 357,22; 7936,766;  176,675;28835,197;27,07778
 357,82; 7811,428;  173,829;28527,954;26,93647
 358,41; 7766,164;  190,291;28522,847;26,73911
 359,00; 7648,901;  155,907;28267,802;26,65418
 359,60; 7617,297;  174,676;28241,266;26,51772
 360,19; 7497,344;  174,292;28045,826;26,27430
 360,78; 7401,205;  177,984;27864,379;26,08942
 361,37; 7293,935;  169,061;27730,181;25,85118
 361,97; 7232,282;  169,676;27624,442;25,72452
 362,56; 7114,391;  167,753;27299,264;25,60358
 363,15; 7052,505;  202,830;27001,114;25,56013
 363,74; 6864,796;  174,291;26660,845;25,26001
 364,34; 6734,085;  194,291;26339,415;25,01344
 364,93; 6594,173;  163,291;25935,873;24,95242
 365,52; 6462,250;  141,445;25588,830;24,83872
 366,11; 6372,064;  173,599;25238,079;24,73008
 366,71; 6243,766;  160,907;24896,203;24,59182
 367,30; 6111,691;  173,522;24575,417;24,33487
 367,89; 6104,424;  207,215;24348,725;24,42767
 368,48; 5930,717;  182,291;24090,525;24,04371
 369,07; 5800,387;  178,138;23657,413;23,94558
 369,67; 5751,117;  203,291;23383,363;23,93360
 370,26; 5599,693;  163,445;23103,863;23,69725
 370,85; 5544,856;  177,137;22920,245;23,60152
 371,44; 5502,149;  163,214;22611,778;23,78297
 372,03; 5372,171;  151,907;22418,770;23,44410
 372,63; 5285,526;  141,984;22051,743;23,47603
 373,22; 5206,976;  162,368;21824,363;23,28783
 373,81; 5127,924;  140,907;21614,122;23,22436
 374,40; 5068,696;  153,522;21310,691;23,23172
 374,99; 4967,304;  157,753;21122,573;22,94106
 375,59; 4920,805;  163,061;20765,855;23,09271
 376,18; 4883,466;  191,522;20688,377;22,89104
 376,77; 4831,030;  184,368;20538,952;22,82858
 377,36; 4831,828;  194,599;20427,029;22,91978
 377,95; 4753,918;  181,291;20167,268;22,87918
 378,55; 4692,102;  164,907;19976,041;22,85177
 379,14; 4656,049;  177,522;19901,675;22,70580
 379,73; 4657,531;  165,676;19853,332;22,81559
 380,32; 4641,214;  183,984;19873,181;22,63795
 380,91; 4614,513;  159,676;19667,575;22,83607
 381,50; 4599,813;  181,137;19730,834;22,60227
 382,10; 4540,830;  165,599;19588,104;22,52660
 382,69; 4573,636;  153,061;19536,843;22,80554
 383,28; 4606,520;  185,214;19485,519;22,90796
 383,87; 4552,194;  170,599;19354,118;22,84041
 384,46; 4505,128;  156,599;19303,219;22,71173
 385,05; 4584,188;  194,368;19336,249;22,93306
 385,64; 4587,141;  173,984;19253,926;23,12983
 386,24; 4570,668;  151,214;19260,693;23,12703
 386,83; 4610,029;  185,676;19307,347;23,13790
 387,42; 4629,909;  185,907;19437,221;23,08415
 388,01; 4686,729;  175,906;19692,501;23,11275
 388,60; 4785,383;  180,060;19935,642;23,31150
 389,19; 4817,774;  162,521;20071,470;23,38271
 389,78; 4932,573;  163,137;20300,531;23,68448
 390,37; 5043,385;  226,829;20795,837;23,41657
 390,96; 5078,987;  171,983;20851,213;23,72914
 391,56; 5157,757;  182,136;20980,634;23,92298
 392,15; 5240,682;  156,367;21348,835;23,99114
 392,74; 5266,554;  147,059;21537,383;23,93370
 393,33; 5438,406;  167,290;21800,272;24,36611
 393,92; 5532,665;  173,905;22148,280;24,38640
 394,51; 5584,340;  169,367;22328,946;24,43626
 395,10; 5689,648;  191,212;22592,145;24,54557
 395,69; 5764,541;  172,828;22659,440;24,86686
 396,28; 5846,905;  187,828;22780,161;25,04866
 396,87; 5871,671;  175,366;22794,544;25,18352
 397,46; 5988,530;  191,750;22963,056;25,45651
 398,06; 6046,189;  198,596;23203,119;25,41932
 398,65; 6082,062;  184,672;23227,508;25,59316
 399,24; 6198,902;  204,056;23470,283;25,76630
 399,83; 6179,953;  175,516;23419,733;25,83196
 400,42; 6345,061;  203,053;23563,588;26,29224
 401,01; 6351,453;  185,975;23697,214;26,22354
 401,60; 6422,797;  194,281;23692,232;26,50664
 402,19; 6511,319;  220,049;23599,757;26,90911
 402,78; 6582,635;  222,354;23670,337;27,12507
 403,37; 6555,367;  208,967;23485,360;27,26539
 403,96; 6573,150;  200,734;23392,403;27,47718
 404,55; 6625,984;  220,577;23298,760;27,75525
 405,14; 6570,146;  199,113;23194,704;27,70546
 405,73; 6669,476;  215,417;23072,266;28,23687
 406,32; 6708,746;  222,569;22959,260;28,52736
 406,91; 6655,368;  202,028;22680,458;28,70903
 407,50; 6672,995;  215,873;22530,604;28,93659
 408,09; 6632,545;  186,103;22248,987;29,21849
 408,68; 6660,148;  196,641;22130,582;29,46806
 409,27; 6673,050;  186,488;21935,551;29,82456
 409,86; 6668,154;  200,644;21860,399;29,85957
 410,45; 6759,163;  232,645;21774,441;30,29700
 411,04; 6765,455;  236,801;21640,738;30,50212
 411,63; 6712,990;  213,187;21399,610;30,67909
 412,22; 6708,925;  217,574;21270,990;30,83277
 412,81; 6738,576;  222,959;20933,498;31,46039
 413,40; 6664,441;  249,652;20594,959;31,52957
 413,99; 6661,707;  267,960;20389,882;31,77503
 414,58; 6502,713;  208,498;19983,338;31,82941
 415,17; 6490,383;  208,267;19843,761;31,99367
 415,76; 6464,165;  205,343;19646,204;32,19416
 416,35; 6498,653;  194,882;19356,030;32,89871
 416,94; 6608,432;  229,805;19554,581;33,00751
 417,53; 6635,615;  215,190;19687,836;32,97151
 418,12; 6770,159;  206,036;19787,445;33,52222
 418,71; 6940,880;  232,114;20191,765;33,61164
 419,30; 7027,910;  216,652;20276,876;33,95405
 419,89; 7179,649;  203,267;20467,311;34,42739
 420,48; 7318,927;  235,114;20775,844;34,48667
 421,07; 7343,176;  229,729;20800,062;34,58110
 421,66; 7380,863;  200,037;20766,724;34,91484
 422,25; 7446,791;  203,115;20757,681;35,24120
 422,84; 7439,251;  231,500;20748,871;35,12999
 423,43; 7446,035;  220,500;20404,088;35,79906
 424,02; 7414,746;  234,961;20179,384;35,99896
 424,60; 7347,374;  206,578;19787,501;36,46813
 425,19; 7248,178;  222,654;19548,224;36,35351
 425,78; 7259,363;  240,654;19501,989;36,43937
 426,37; 7263,964;  236,039;19304,849;36,85560
 426,96; 7278,693;  219,193;19247,266;37,10045
 427,55; 7276,817;  211,116;19035,553;37,53472
 428,14; 7246,566;  206,501;18860,636;37,73997
 428,73; 7227,517;  228,501;18686,169;37,91929
 429,32; 7285,307;  231,962;18637,883;38,32106
 429,91; 7283,956;  247,116;18703,205;38,12747
 430,50; 7318,757;  239,732;18496,159;38,77552
 431,08; 7305,001;  252,117;18415,557;38,83011
 431,67; 7320,006;  296,502;18284,691;39,04509
 432,26; 7259,004;  305,502;18077,559;39,12604
 432,85; 7196,226;  340,656;17763,604;39,34793
 433,44; 7114,554;  336,118;17385,023;39,75878
 434,03; 6994,693;  348,349;17082,008;39,71841
 434,62; 6828,156;  307,425;16701,952;39,77383
 435,21; 6815,682;  328,040;16469,644;40,19205
 435,79; 6781,062;  331,041;16336,814;40,29809
 436,38; 6788,674;  313,734;16279,858;40,55424
 436,97; 6788,713;  312,041;16185,273;40,80248
 437,56; 6713,486;  311,273;15964,310;40,90077
 438,15; 6672,222;  279,273;15853,253;41,04891
 438,74; 6798,520;  296,965;15926,346;41,59829
 439,33; 6760,946;  265,965;15886,494;41,57978
 439,91; 6819,375;  228,581;15945,350;41,93479
 440,50; 6893,698;  284,196;16038,265;41,95425
 441,09; 7005,627;  278,197;16137,216;42,42021
 441,68; 7006,947;  268,735;16097,048;42,57063
 442,27; 7023,191;  249,658;16117,378;42,68750
 442,86; 7058,902;  232,505;16092,763;43,04090
 443,44; 7112,272;  240,351;16162,261;43,16015
 444,03; 7172,534;  298,198;16223,997;43,16478
 444,62; 7156,448;  244,351;16069,566;43,67774
 445,21; 7086,270;  251,659;15914,696;43,63529
 445,80; 7150,043;  284,890;15782,390;44,29845
 446,39; 7100,371;  290,429;15504,817;44,75988
 446,97; 6977,241;  245,814;15352,756;44,55850
 447,56; 6910,534;  247,583;15120,833;44,79822
 448,15; 6838,425;  243,660;14991,139;44,71792
 448,74; 6779,697;  266,429;14672,104;45,21321
 449,33; 6721,294;  235,276;14587,031;45,19320
 449,91; 6652,798;  246,815;14400,616;45,25981
 450,50; 6585,984;  242,430;14179,487;45,51574
 451,09; 6560,361;  255,276;14091,361;45,56986
 451,68; 6546,845;  268,969;13991,513;45,74863
 452,26; 6473,943;  267,507;13882,268;45,58608
 452,85; 6476,354;  251,199;13837,578;45,81909
 453,44; 6478,828;  267,277;13788,136;45,94051
 454,03; 6494,425;  239,354;13776,037;46,20830
 454,61; 6491,909;  236,662;13755,146;46,27181
 455,20; 6619,256;  273,816;13940,687;46,42936
 455,79; 6618,344;  268,662;13927,663;46,48717
 456,38; 6721,759;  268,739;14007,442;46,96964
 456,97; 6742,359;  252,124;14070,310;46,96879
 457,55; 6732,622;  250,047;14089,802;46,84024
 458,14; 6780,072;  276,585;14042,968;47,24180
 458,73; 6713,856;  255,355;14008,120;46,96148
 459,31; 6789,805;  288,278;14014,715;47,36500
 459,90; 6851,237;  290,509;14131,760;47,39982
 460,49; 6957,608;  334,432;14244,717;47,61352
 461,08; 6962,117;  264,971;14325,004;47,63250
 461,66; 7008,788;  267,586;14367,019;47,81187
 462,25; 7070,027;  270,971;14422,905;48,04330
 462,84; 7083,044;  297,202;14494,938;47,79524
 463,43; 7060,192;  226,971;14407,032;48,18893
 464,01; 7103,167;  261,125;14470,259;48,15242
 464,60; 7086,192;  299,894;14402,292;48,12159
 465,19; 6975,758;  242,972;14172,423;48,33490
 465,77; 6976,625;  269,972;14117,024;48,43380
 466,36; 6947,816;  281,433;13996,694;48,60559
 466,95; 6791,002;  256,356;13737,152;48,47374
 467,53; 6669,171;  275,203;13416,862;48,65419
 468,12; 6561,942;  284,434;13175,399;48,69696
 468,71; 6452,627;  266,895;12915,296;48,90525
 469,29; 6344,377;  249,511;12695,642;48,96997
 469,88; 6220,662;  266,357;12500,496;48,66959
 470,47; 6318,606;  329,280;12548,915;49,01395
 471,06; 6263,017;  272,819;12534,273;48,85389
 471,64; 6306,088;  281,280;12691,803;48,54596
 472,23; 6314,927;  242,896;12681,781;48,81491
 472,81; 6385,298;  253,050;12749,243;49,07293
 473,40; 6451,694;  261,127;13004,846;48,57740
 473,99; 6627,866;  346,281;13160,323;49,02111
 474,57; 6601,898;  259,742;13250,487;48,82057
 475,16; 6710,615;  274,742;13372,506;49,13719
 475,75; 6788,699;  290,281;13477,287;49,27895
 476,33; 6833,431;  292,666;13553,813;49,32277
 476,92; 6840,339;  300,973;13603,829;49,15761
 477,51; 6887,063;  285,666;13671,153;49,31757
 478,09; 6933,639;  272,974;13702,109;49,59862
 478,68; 6884,307;  289,666;13595,350;49,56259
 479,27; 6892,793;  311,435;13701,522;49,15098
 479,85; 6965,290;  287,281;13703,038;49,77736
 480,44; 6970,176;  276,974;13868,131;49,24674
 481,02; 7653,009;  281,051;15608,402;48,09675
 481,61; 8615,514;  310,897;17388,639;48,62831
 482,20; 9207,440;  305,436;18436,789;49,09730
 482,78; 9678,741;  331,512;19187,657;49,57126
 483,37; 9906,900;  327,205;19643,013;49,59510
 483,95;10084,678;  357,975;20013,353;49,48622
 484,54;10171,817;  370,974;20144,321;49,56593
 485,13;10065,099;  337,667;20034,163;49,38661
 485,71;10035,585;  317,975;19790,230;49,90490
 486,30; 9907,776;  351,898;19542,570;49,79439
 486,88; 9740,371;  393,436;19107,604;49,94576
 487,47; 9398,965;  376,898;18360,869;50,16727
 488,05; 8916,783;  358,129;17495,548;49,94133
 488,64; 8295,457;  349,283;16059,475;50,57974
 489,23; 7430,802;  355,591;14183,165;51,16741
 489,81; 6367,031;  354,283;12316,831;50,26311
 490,40; 6020,042;  320,822;11823,952;49,54495
 490,98; 5899,237;  299,745;11561,827;49,71987
 491,57; 5832,855;  322,129;11500,035;49,30016
 492,15; 5813,269;  309,822;11427,977;49,49965
 492,74; 5759,232;  312,667;11319,477;49,48359
 493,32; 5704,568;  325,514;11206,867;49,43368
 493,91; 5636,491;  296,591;11161,517;49,14805
 494,50; 5634,250;  317,207;11123,602;49,20275
 495,08; 5608,965;  292,822;11050,719;49,41619
 495,67; 5588,179;  317,283;11013,507;49,27810
 496,25; 5481,323;  255,130;10847,096;49,34111
 496,84; 5510,211;  280,283;10870,055;49,38659
 497,42; 5468,627;  264,899;10808,134;49,35609
 498,01; 5504,481;  278,206;10786,547;49,73454
 498,59; 5419,016;  246,668;10711,606;49,42550
 499,18; 5374,890;  249,899;10642,047;49,31599
 499,76; 5362,601;  282,437;10534,406;49,55306
 500,35; 5281,243;  272,361;10382,539;49,54296
 500,93; 5242,832;  245,361;10380,776;49,30702
 501,52; 5187,969;  261,284;10274,065;49,20396
 502,10; 5175,023;  270,438;10250,171;49,14546
 502,69; 5086,192;  255,900;10120,749;48,96468
 503,27; 5006,815;  234,207; 9897,576;49,38866
 503,86; 4953,250;  250,669; 9860,824;48,93346
 504,44; 4879,381;  227,438; 9778,525;48,70591
 505,03; 4766,083;  219,361; 9540,802;48,77703
 505,61; 4737,237;  238,515; 9417,662;49,01024
 506,19; 4674,922;  256,054; 9241,075;49,18038
 506,78; 4516,314;  230,362; 9085,577;48,40031
 507,36; 4457,241;  229,361; 8926,057;48,61478
 507,95; 4384,657;  234,900; 8738,415;48,80049
 508,53; 4354,027;  237,516; 8704,375;48,61910
 509,12; 4240,578;  247,054; 8504,879;48,36049
 509,70; 4209,817;  262,439; 8391,822;48,55691
 510,29; 4115,484;  257,670; 8187,741;48,64792
 510,87; 4037,777;  233,131; 8085,205;48,45403
 511,46; 3941,969;  226,131; 7883,685;48,52513
 512,04; 3872,394;  242,285; 7748,083;48,36407
 512,62; 3839,775;  245,054; 7648,102;48,55732
 513,21; 3682,588;  224,208; 7429,407;47,99839
 513,79; 3666,328;  227,824; 7325,385;48,44628
 514,38; 3560,663;  210,747; 7153,170;48,25283
 514,96; 3566,936;  253,824; 7072,624;48,58791
 515,54; 3443,987;  221,670; 6956,391;47,84633
 516,13; 3409,818;  246,824; 6858,308;47,84091
 516,71; 3315,315;  240,901; 6759,824;47,16138
 517,30; 3250,807;  215,132; 6655,856;47,13250
 517,88; 3240,030;  245,978; 6549,899;47,49507
 518,46; 3160,978;  216,825; 6445,769;47,26568
 519,05; 3136,321;  222,517; 6391,915;47,22995
 519,63; 3112,553;  237,056; 6323,787;47,24207
 520,22; 3098,506;  249,979; 6288,022;47,17634
 520,80; 3021,915;  242,287; 6198,368;46,66875
 521,38; 3069,259;  262,748; 6200,291;47,26721
 521,97; 2968,490;  221,595; 6142,052;46,39666
 522,55; 2979,692;  241,133; 6160,067;46,26778
 523,13; 2955,079;  231,441; 6158,127;45,95549
 523,72; 2942,662;  233,517; 6114,658;46,06496
 524,30; 2998,587;  254,210; 6244,255;45,81563
 524,89; 2996,745;  228,672; 6275,014;45,78095
 525,47; 3059,972;  241,826; 6379,471;45,91575
 526,05; 3073,966;  217,210; 6445,512;45,86733
 526,64; 3148,279;  246,672; 6579,212;45,82059
 527,22; 3178,002;  241,133; 6699,623;45,47299
 527,80; 3230,551;  272,749; 6847,730;44,98571
 528,39; 3243,264;  234,364; 6929,961;44,93849
 528,97; 3332,957;  245,057; 7088,668;45,12092
 529,55; 3391,636;  251,749; 7287,682;44,62645
 530,14; 3472,684;  262,288; 7408,121;44,92684
 530,72; 3508,609;  245,518; 7543,700;44,71102
 531,30; 3550,247;  228,134; 7703,083;44,44329
 531,89; 3599,690;  237,903; 7794,836;44,48613
 532,47; 3644,159;  267,442; 7893,471;44,27884
 533,05; 3682,898;  268,595; 7934,621;44,53811
 533,63; 3679,182;  278,595; 7979,036;44,16093
 534,22; 3693,133;  250,365; 7972,022;44,58587
 534,80; 3721,292;  262,442; 8099,771;44,13303
 535,38; 3823,607;  341,672; 8203,953;44,28658
 535,97; 3702,754;  266,903; 8173,981;43,45285
 536,55; 3762,326;  305,211; 8254,394;43,49019
 537,13; 3752,212;  323,441; 8215,447;43,44612
 537,71; 3758,649;  373,903; 8254,101;42,95255
 538,30; 3796,611;  386,826; 8350,242;42,81812
 538,88; 3847,859;  432,134; 8478,329;42,45142
 539,46; 3934,956;  498,826; 8667,939;42,06246
 540,05; 4008,408;  527,519; 8820,864;41,97208
 540,63; 4112,705;  572,519; 8990,574;42,05468
 541,21; 4157,127;  614,673; 9193,347;41,29372
 541,79; 4205,570;  671,058; 9311,562;40,90632
 542,38; 4275,692;  689,519; 9445,133;40,95855
 542,96; 4321,956;  693,058; 9619,609;40,65286
 543,54; 4414,958;  719,596; 9836,509;40,53304
 544,12; 4434,660;  681,058; 9928,388;40,59120
 544,70; 4431,838;  661,365;10039,321;40,20570
 545,29; 4522,739;  673,673;10246,750;40,20719
 545,87; 4509,108;  633,596;10184,716;40,57652
 546,45; 4476,223;  591,365;10217,022;40,35941
 547,03; 4461,138;  572,981;10300,497;39,97071
 547,62; 4491,335;  518,211;10439,230;40,04754
 548,20; 4548,864;  521,442;10550,924;40,15583
 548,78; 4549,076;  485,058;10661,424;39,93585
 549,36; 4581,967;  440,827;10878,890;39,67345
 549,94; 4605,076;  396,904;10967,230;39,81119
 550,53; 4670,450;  394,597;11243,548;39,41259
 551,11; 4704,438;  366,597;11426,754;39,22043
 551,69; 4828,738;  372,443;11750,056;39,16723
 552,27; 4899,628;  335,750;11965,538;39,24300
 552,85; 5023,170;  339,828;12399,722;38,83403
 553,44; 5112,230;  327,827;12632,746;38,88203
 554,02; 5248,440;  348,520;12991,011;38,75755
 554,60; 5293,146;  283,751;13303,900;38,47417
 555,18; 5480,026;  337,674;13660,566;38,59786
 555,76; 5522,603;  296,751;14025,058;38,06626
 556,34; 5662,611;  319,982;14440,574;37,83573
 556,93; 5795,350;  292,827;14817,570;37,88379
 557,51; 5898,436;  272,828;15124,930;37,87752
 558,09; 6057,322;  311,674;15550,738;37,70342
 558,67; 6180,031;  301,982;15980,181;37,49186
 559,25; 6236,466;  313,905;16151,376;37,39588
 559,83; 6319,389;  293,366;16481,564;37,22479
 560,41; 6456,965;  286,058;16862,821;37,22625
 561,00; 6550,588;  297,982;17133,505;37,13937
 561,58; 6573,641;  280,597;17395,894;36,76854
 562,16; 6681,236;  271,904;17779,125;36,60965
 562,74; 6796,853;  263,827;18061,689;36,70680
 563,32; 6914,506;  258,366;18555,839;36,37737
 563,90; 7025,810;  285,982;18895,612;36,21688
 564,48; 7140,089;  285,751;19333,837;35,98439
 565,06; 7336,025;  280,289;19947,851;35,87499
 565,65; 7562,809;  292,059;20622,618;35,76267
 566,23; 7847,232;  322,520;21339,029;35,80381
 566,81; 8030,275;  278,059;22097,728;35,52857
 567,39; 8290,699;  294,136;22907,408;35,36226
 567,97; 8504,125;  308,982;23588,507;35,20322
 568,55; 8746,969;  321,982;24428,159;34,94950
 569,13; 8953,134;  289,366;25136,232;34,86866
 569,71; 9291,583;  276,135;26086,631;34,92939
 570,29; 9551,457;  326,443;27122,260;34,42707
 570,87; 9808,253;  312,058;27695,989;34,67798
 571,45;10020,571;  314,443;28347,347;34,62406
 572,03;10077,057;  282,828;28732,112;34,42698
 572,61;10280,922;  274,520;29528,849;34,20486
 573,20;10517,357;  299,828;30153,456;34,22542
 573,78;10682,823;  293,828;30820,809;34,03217
 574,36;10802,014;  312,213;31253,624;33,90214
 574,94;10893,339;  364,213;31533,971;33,77994
 575,52;10877,652;  308,213;31827,474;33,53327
 576,10;11052,669;  363,367;32450,122;33,31375
 576,68;11186,029;  358,290;33028,049;33,14300
 577,26;11380,826;  367,521;33736,551;33,00457
 577,84;11481,290;  385,059;34142,922;32,87006
 578,42;11579,644;  422,905;34469,867;32,76868
 579,00;11507,371;  361,905;34548,932;32,60145
 579,58;11526,924;  415,982;34727,896;32,38217
 580,16;11520,128;  384,905;34758,278;32,39491
 580,74;11536,029;  384,213;34964,545;32,24901
 581,32;11427,976;  389,059;35108,920;31,79424
 581,90;11378,389;  427,444;35079,815;31,60230
 582,48;11379,753;  405,982;35241,094;31,50204
 583,06;11397,605;  412,982;35258,837;31,52347
 583,64;11359,166;  409,520;35402,877;31,29064
 584,22;11262,826;  424,675;35244,258;31,12660
 584,80;11120,008;  423,982;34992,377;30,94163
 585,38;10925,757;  435,443;34555,309;30,74547
 585,96;10902,162;  392,059;34740,574;30,59842
 586,54;10827,449;  421,829;34710,153;30,34742
 587,12;10837,455;  387,290;34850,896;30,32232
 587,70;10821,601;  416,751;35114,610;29,98701
 588,28;10768,340;  390,290;35095,402;29,90352
 588,86;10790,995;  391,059;35225,047;29,85571
 589,44;10739,845;  386,290;35307,462;29,64836
 590,02;10776,232;  375,059;35498,642;29,61307
 590,59;10762,864;  368,367;35700,997;29,41897
 591,17;10799,310;  359,291;35892,185;29,38128
 591,75;10721,068;  353,983;35999,092;29,08417
 592,33;10735,033;  364,675;36339,778;28,82648
 592,91;10747,485;  315,906;36533,304;28,80267
 593,49;10792,714;  327,598;36828,725;28,67066
 594,07;10833,051;  342,521;37042,569;28,58451
 594,65;10775,839;  354,598;37044,483;28,40358
 595,23;10863,858;  339,367;37404,855;28,39431
 595,81;10785,290;  345,060;37547,997;28,06292
 596,39;10769,248;  324,598;37683,478;27,95761
 596,97;10752,235;  328,598;37855,211;27,77665
 597,55;10640,425;  325,213;37711,778;27,59069
 598,12;10579,299;  314,291;37800,790;27,38321
 598,70;10535,563;  310,214;38006,764;27,12543
 599,28;10576,438;  331,137;38069,134;27,14850
 599,86;10498,624;  315,598;38174,991;26,89696
 600,44;10480,939;  282,906;38262,318;26,85148
 601,02;10468,781;  340,368;38274,454;26,70003
 601,60;10385,269;  310,598;38211,478;26,58163
 602,18;10336,956;  296,983;38197,924;26,49004
 602,75;10299,004;  294,983;38376,806;26,26981
 603,33;10251,380;  306,598;38291,535;26,18086
 603,91;10202,473;  300,445;38330,559;26,03734
 604,49;10181,233;  326,521;38431,723;25,86185
 605,07;10127,800;  334,060;38389,059;25,73575
 605,65;10104,905;  364,983;38516,296;25,52972
 606,23;10117,427;  413,675;38688,742;25,35267
 606,80;10056,678;  480,983;38775,483;25,00541
 607,38;10014,432;  527,522;38761,132;24,81301
 607,96;10028,247;  578,444;38960,250;24,62053
 608,54; 9988,271;  643,829;38955,049;24,39087
 609,12; 9980,398;  664,521;39056,084;24,26543
 609,70; 9950,087;  711,598;39105,464;24,06241
 610,27; 9920,770;  707,752;39194,796;23,93797
 610,85; 9906,916;  728,060;39233,460;23,83784
 611,43; 9853,785;  725,060;39176,948;23,74064
 612,01; 9721,228;  691,367;38928,974;23,61513
 612,59; 9638,385;  683,675;38959,187;23,39540
 613,16; 9567,922;  643,213;38847,966;23,36021
 613,74; 9492,639;  613,137;38764,905;23,27415
 614,32; 9431,038;  549,214;38724,268;23,26604
 614,90; 9337,186;  499,829;38549,519;23,22583
 615,48; 9188,819;  453,290;38134,209;23,18290
 616,05; 9111,100;  407,290;38243,788;23,00374
 616,63; 9060,766;  421,982;37956,906;23,01532
 617,21; 8915,068;  411,290;37898,211;22,68465
 617,79; 8852,209;  385,213;37770,203;22,64812
 618,36; 8801,473;  404,137;37711,889;22,50829
 618,94; 8650,286;  337,213;37384,847;22,43888
 619,52; 8534,502;  370,367;37017,883;22,27746
 620,10; 8467,368;  356,290;37089,547;22,08102
 620,67; 8427,333;  358,982;36973,199;22,03611
 621,25; 8355,644;  374,137;36797,816;21,91296
 621,83; 8282,757;  358,444;36743,509;21,77903
 622,41; 8252,125;  398,136;36802,043;21,57458
 622,98; 8164,566;  365,675;36487,673;21,59042
 623,56; 8126,119;  363,444;36488,987;21,48805
 624,14; 7984,661;  337,675;36356,652;21,23044
 624,72; 7940,258;  335,675;36237,323;21,18171
 625,29; 7909,686;  327,521;36403,126;21,01743
 625,87; 7882,305;  367,752;36321,989;20,90033
 626,45; 7777,068;  319,674;36112,744;20,83474
 627,02; 7750,888;  316,983;36082,363;20,78520
 627,60; 7683,969;  314,829;36020,701;20,63845
 628,18; 7650,322;  303,752;36171,391;20,48245
 628,76; 7608,774;  305,675;36192,786;20,35020
 629,33; 7579,796;  340,059;36113,721;20,23762
 629,91; 7513,138;  325,598;36022,547;20,13489
 630,49; 7554,669;  328,444;36232,402;20,12654
 631,06; 7444,838;  326,675;36390,638;19,73761
 631,64; 7434,815;  319,059;36324,626;19,76293
 632,22; 7379,755;  274,597;36382,197;19,67773
 632,79; 7386,322;  322,059;36485,337;19,53435
 633,37; 7313,207;  297,675;36621,177;19,31403
 633,95; 7308,233;  288,136;36675,495;19,29268
 634,52; 7280,288;  276,675;36730,705;19,21218
 635,10; 7295,815;  289,367;36741,786;19,22080
 635,68; 7231,611;  286,828;36947,244;18,94355
 636,25; 7213,068;  276,905;36915,262;18,93143
 636,83; 7193,158;  262,213;37121,017;18,80404
 637,41; 7198,945;  274,674;37206,001;18,74904
 637,98; 7191,371;  306,444;37369,365;18,57632
 638,56; 7165,500;  293,213;37423,894;18,50838
 639,13; 7128,097;  268,982;37536,408;18,40512
 639,71; 7155,884;  313,367;37616,102;18,34321
 640,29; 7035,660;  249,290;37483,827;18,22601
 640,86; 7061,484;  263,829;37608,175;18,20264
 641,44; 6970,616;  257,059;37643,369;17,95726
 642,02; 7019,132;  290,675;37552,947;18,05702
 642,59; 6970,571;  267,752;37784,833;17,86605
 643,17; 6929,702;  268,213;37738,797;17,77792
 643,74; 6888,065;  268,521;37719,375;17,67528
 644,32; 6834,042;  289,675;37727,185;17,48078
 644,89; 6802,789;  287,444;37749,917;17,39166
 645,47; 6834,536;  293,136;37742,649;17,46725
 646,05; 6765,591;  283,444;37635,997;17,35396
 646,62; 6729,568;  279,444;37705,499;17,23432
 647,20; 6699,007;  280,829;37790,001;17,11096
 647,77; 6600,985;  255,598;37644,271;16,97142
 648,35; 6534,194;  250,906;37527,465;16,85587
 648,92; 6545,864;  279,367;37684,429;16,75307
 649,50; 6464,303;  250,906;37519,623;16,67188
 650,08; 6457,665;  245,444;37436,201;16,70367
 650,65; 6411,181;  250,059;37720,164;16,44277
 651,23; 6497,774;  235,367;38578,204;16,33266
 651,80; 6652,290;  252,213;39453,014;16,32639
 652,38; 6697,806;  268,521;39722,439;16,29568
 652,95; 6674,246;  226,752;40098,709;16,17050
 653,53; 6698,377;  258,290;40364,211;16,05770
 654,10; 6766,739;  281,444;40538,482;16,10972
 654,68; 6717,948;  244,675;40444,676;16,10267
 655,25; 6658,079;  239,213;40461,716;15,95840
 655,83; 6621,980;  228,136;40508,141;15,87349
 656,40; 6615,419;  271,598;40445,104;15,79106
 656,98; 6574,012;  254,136;40318,683;15,77424
 657,55; 6571,682;  246,829;40238,184;15,81555
 658,13; 6468,968;  248,060;39854,147;15,70695
 658,70; 6403,945;  253,521;39571,803;15,64266
 659,28; 6224,615;  246,060;38705,305;15,54517
 659,85; 6104,208;  262,675;37995,652;15,48124
 660,43; 6067,801;  272,213;38124,539;15,31105
 661,00; 6006,933;  257,675;38183,887;15,15906
 661,58; 6072,910;  241,060;38596,927;15,20459
 662,15; 6039,119;  242,598;38731,659;15,06018
 662,73; 6139,943;  301,983;39005,930;15,08363
 663,30; 6125,843;  253,367;39203,816;15,07679
 663,88; 6111,898;  256,060;39421,702;14,95147
 664,45; 6100,953;  244,367;39620,666;14,87338
 665,03; 6157,469;  254,521;39985,937;14,85713
 665,60; 6260,446;  316,214;40520,746;14,78498
 666,17; 6138,885;  254,598;40428,017;14,64722
 666,75; 6184,555;  242,214;40843,288;14,63592
 667,32; 6227,225;  267,829;41217,482;14,55298
 667,90; 6233,588;  245,598;41383,445;14,55591
 668,47; 6245,181;  271,367;41710,177;14,41599
 669,05; 6239,928;  246,675;41959,987;14,36772
 669,62; 6206,136;  232,675;42068,334;14,27840
 670,19; 6234,575;  233,983;42169,990;14,30893
 670,77; 6222,784;  254,214;42304,492;14,19389
 671,34; 6197,838;  242,829;42208,070;14,19034
 671,92; 6210,585;  232,214;42635,572;14,09882
 672,49; 6221,870;  258,368;42667,920;14,06170
 673,06; 6191,925;  202,444;42635,114;14,11526
 673,64; 6151,210;  231,368;42700,461;13,93918
 674,21; 6083,342;  228,137;42609,886;13,81539
 674,79; 6160,166;  249,060;42890,311;13,86241
 675,36; 6169,605;  255,906;42975,966;13,84291
 675,93; 6110,659;  214,368;42917,237;13,80772
 676,51; 6131,176;  257,060;43025,124;13,73482
 677,08; 6116,384;  251,983;43040,702;13,70548
 677,65; 6117,515;  256,752;43272,204;13,62479
 678,23; 6121,878;  252,675;43462,936;13,58289
 678,80; 6104,548;  246,137;43560,438;13,52535
 679,38; 6074,833;  238,214;43675,940;13,43675
 679,95; 6140,272;  255,983;43972,518;13,46010
 680,52; 6133,635;  243,522;44151,789;13,41459
 681,10; 6166,689;  266,445;44679,675;13,28488
 681,67; 6206,513;  258,752;44925,254;13,31593
 682,24; 6168,260;  222,214;44956,371;13,29196
 682,82; 6221,776;  236,829;45528,796;13,21415
 683,39; 6291,446;  280,214;45801,605;13,20529
 683,96; 6274,500;  252,060;46075,414;13,14273
 684,54; 6307,017;  225,060;46441,070;13,15985
 685,11; 6376,763;  270,675;46745,956;13,13836
 685,68; 6373,664;  238,906;47180,458;13,06893
 686,25; 6305,642;  222,445;47207,498;12,94709
 686,83; 6368,081;  225,829;47329,000;13,04000
 687,40; 6355,520;  224,522;47665,886;12,92332
 687,97; 6468,344;  266,599;48162,003;12,94852
 688,55; 6412,552;  221,214;48141,505;12,92008
 689,12; 6379,992;  205,291;48464,929;12,79475
 689,69; 6437,508;  221,676;48479,431;12,88048
 690,26; 6464,562;  241,676;48570,240;12,87621
 690,84; 6468,155;  231,368;48818,896;12,83619
 691,41; 6467,825;  239,599;48830,320;12,81773
 691,98; 6517,957;  240,752;49118,591;12,84264
 692,56; 6483,242;  229,214;49195,785;12,77204
 693,13; 6507,220;  281,137;49234,749;12,71833
 693,70; 6521,736;  247,522;49411,558;12,76180
 694,27; 6437,560;  224,676;49584,367;12,58696
 694,84; 6479,384;  226,599;49660,792;12,64870
 695,42; 6536,515;  276,291;49738,524;12,65657
 695,99; 6466,416;  240,599;50041,565;12,50140
 696,56; 6441,778;  230,983;49822,989;12,52378
 697,13; 6473,294;  251,522;50241,106;12,44614
 697,71; 6486,656;  224,214;50276,993;12,51168
 698,28; 6474,557;  233,368;50717,956;12,36256
 698,85; 6456,996;  210,676;50624,227;12,39016
 699,42; 6488,820;  210,137;50795,728;12,41200
 699,99; 6470,952;  266,753;50976,999;12,23461
 700,57; 6490,006;  247,906;50926,347;12,31707
 701,14; 6467,830;  226,060;51028,464;12,28637
 701,71; 6500,192;  245,445;51214,043;12,27177
 702,28; 6504,632;  243,445;51274,390;12,26939
 702,85; 6461,994;  254,676;51489,815;12,11535
 703,43; 6509,741;  256,291;51675,163;12,16178
 704,00; 6555,026;  276,907;51821,280;12,18003
 704,57; 6497,542;  255,599;51809,012;12,10772
 705,14; 6569,135;  290,830;52136,437;12,10962
 705,71; 6570,113;  281,599;52095,785;12,13666
 706,28; 6547,167;  260,676;52033,056;12,14256
 706,86; 6566,530;  285,368;52219,096;12,09457
 707,43; 6621,661;  317,060;52161,136;12,16070
 708,00; 6572,023;  284,368;52207,869;12,10946
 708,57; 6501,386;  261,984;52063,293;12,04487
 709,14; 6548,363;  291,830;52260,256;12,03911
 709,71; 6568,956;  259,137;52303,527;12,12392
 710,28; 6592,780;  265,676;52506,952;12,11131
 710,86; 6571,219;  276,137;52649,685;12,01958
 711,43; 6606,812;  282,445;52711,955;12,06261
 712,00; 6616,713;  261,984;52665,534;12,12652
 712,57; 6580,383;  282,214;52900,113;11,96963
 713,14; 6582,438;  260,061;52861,153;12,01948
 713,71; 6613,262;  263,522;52892,808;12,06503
 714,28; 6622,008;  250,599;52935,079;12,09352
 714,85; 6581,755;  243,907;52642,965;12,09535
 715,42; 6593,502;  241,753;52961,775;12,04808
 716,00; 6675,249;  301,061;53003,353;12,09471
 716,57; 6629,996;  241,061;53124,316;12,08121
 717,14; 6592,281;  236,368;53061,972;12,03188
 717,71; 6631,105;  220,138;53154,935;12,11106
 718,28; 6660,544;  271,522;53179,821;12,07565
 718,85; 6588,214;  234,830;53209,631;11,99322
 719,42; 6688,961;  237,522;53375,440;12,14093
 719,99; 6601,170;  220,907;53217,326;12,03904
 720,56; 6675,609;  245,753;53485,367;12,07720
 721,13; 6671,663;  226,830;53548,253;12,08676
 721,70; 6664,026;  214,522;53383,601;12,13018
 722,27; 6678,926;  254,984;53449,179;12,07640
 722,84; 6763,442;  290,368;53625,296;12,13665
 723,41; 6665,728;  219,292;53601,952;12,07590
 723,98; 6699,705;  237,984;53809,223;12,06192
 724,55; 6758,145;  271,753;53838,109;12,10908
 725,12; 6664,507;  194,138;53899,611;12,04788
 725,69; 6744,408;  222,599;53996,343;12,12824
 726,27; 6740,155;  238,676;54020,691;12,08857
 726,84; 6751,440;  237,215;54352,962;12,03758
 727,41; 6791,341;  247,599;54325,310;12,10063
 727,98; 6807,703;  253,522;54627,042;12,05399
 728,55; 6861,527;  270,369;54566,774;12,13922
 729,12; 6817,043;  219,830;54591,199;12,13362
 729,69; 6895,020;  273,292;54819,855;12,13959
 730,26; 6874,767;  249,599;54991,972;12,10245
 730,82; 6842,130;  246,676;54801,858;12,08951
 731,39; 6888,646;  243,445;54894,283;12,15938
 731,96; 6912,777;  232,984;55116,169;12,17093
 732,53; 6973,755;  244,215;55468,824;12,18576
 733,10; 7015,963;  258,984;55492,711;12,23343
 733,67; 7004,864;  244,599;55699,751;12,19051
 734,24; 6964,765;  243,676;55432,099;12,17844
 734,81; 7008,819;  270,369;55555,754;12,18848
 735,38; 6970,412;  249,599;55315,256;12,20509
 735,95; 6970,236;  240,676;55056,219;12,27674
 736,52; 6981,368;  263,676;55354,336;12,19388
 737,09; 7004,115;  261,599;54997,838;12,31819
 737,66; 7059,631;  299,369;55233,109;12,30621
 738,23; 7029,455;  250,215;55200,072;12,33714
 738,80; 7132,048;  305,599;55528,573;12,36161
 739,37; 7123,333;  286,523;55690,383;12,33995
 739,94; 7077,234;  251,830;55706,423;12,30809
 740,51; 7213,442;  352,753;55704,078;12,39480
 741,07; 7136,343;  256,292;55709,349;12,40698
 741,64; 7185,090;  285,215;55927,697;12,40037
 742,21; 7174,760;  260,753;55903,353;12,42574
 742,78; 7138,276;  224,523;55704,931;12,46161
 743,35; 7162,177;  256,446;56020,510;12,38384
 743,92; 7219,846;  292,984;56187,781;12,39268
 744,49; 7258,132;  282,984;56069,821;12,50321
 745,06; 7213,186;  246,984;56056,707;12,48206
 745,63; 7206,164;  240,984;56037,055;12,48328
 746,19; 7226,372;  236,753;56016,326;12,53079
 746,76; 7263,658;  263,677;56017,520;12,55515
 747,33; 7274,943;  245,907;56044,021;12,59726
 747,90; 7294,305;  276,446;56258,908;12,53582
 748,47; 7324,129;  260,292;56098,563;12,65053
 749,04; 7362,338;  267,369;56140,065;12,69845
 749,61; 7406,315;  277,446;56087,874;12,77336
 750,17; 7415,908;  273,677;56126,453;12,78760
 750,74; 7419,732;  266,754;56050,339;12,82273
 751,31; 7394,094;  242,677;56038,379;12,81715
 751,88; 7346,995;  237,215;55875,804;12,77851
 752,45; 7447,127;  254,292;55955,306;12,91329
 753,02; 7430,797;  267,523;55796,423;12,90008
 753,58; 7385,697;  245,523;55712,924;12,87274
 754,15; 7446,598;  249,600;55850,580;12,94401
 754,72; 7385,499;  253,907;55587,620;12,88833
 755,29; 7389,707;  225,215;55477,429;12,96689
 755,86; 7423,070;  243,600;55599,392;12,96968
 756,42; 7449,893;  254,446;55484,202;13,02821
 756,99; 7427,640;  215,600;55437,396;13,06013
 757,56; 7467,002;  226,908;55457,897;13,10875
 758,13; 7400,826;  191,446;55448,784;13,04692
 758,70; 7472,650;  208,754;55384,285;13,16507
 759,26; 7486,474;  206,600;55497,633;13,16646
 759,83; 7506,375;  215,138;55651,904;13,15235
 760,40; 7531,122;  207,292;55360,559;13,27905
 760,97; 7523,715;  192,677;55437,446;13,27010
 761,53; 7467,461;  189,677;54953,794;13,28933
 762,10; 7540,593;  179,523;55044,218;13,41677
 762,67; 7557,032;  222,215;55154,181;13,35255
 763,24; 7475,164;  166,523;54675,760;13,40808
 763,80; 7541,295;  201,754;54842,877;13,43227
 764,37; 7528,657;  204,061;54755,379;13,42698
 764,94; 7498,097;  199,600;54295,573;13,49176
 765,50; 7500,382;  197,369;54383,382;13,47767
 766,07; 7555,052;  246,215;54367,653;13,50451
 766,64; 7478,183;  210,138;54001,770;13,51148
 767,21; 7506,853;  223,831;53891,656;13,57056
 767,77; 7564,677;  239,754;53840,927;13,66560
 768,34; 7532,732;  242,215;53776,737;13,61835
 768,91; 7584,248;  242,292;53575,084;13,76631
 769,47; 7611,072;  247,215;53579,817;13,80742
 770,04; 7557,434;  232,600;53440,011;13,76657
 770,61; 7510,950;  225,215;53255,435;13,73884
 771,18; 7502,620;  208,446;53085,091;13,79470
 771,74; 7591,752;  235,292;53323,285;13,85711
 772,31; 7563,268;  230,215;53058,940;13,88080
 772,88; 7571,322;  214,446;52707,750;14,01488
 773,44; 7521,838;  218,446;52618,482;13,93776
 774,01; 7570,508;  234,446;52727,599;13,97527
 774,58; 7562,486;  223,216;52399,947;14,06618
 775,14; 7576,079;  211,600;52576,064;14,06389
 775,71; 7601,595;  215,985;52494,797;14,12735
 776,27; 7630,034;  268,600;52398,067;14,12145
 776,84; 7718,243;  295,139;52499,492;14,21932
 777,41; 7623,143;  235,139;52180,071;14,22276
 777,97; 7571,967;  231,985;51969,342;14,18701
 778,54; 7610,560;  238,369;51924,766;14,26331
 779,11; 7649,076;  260,293;51930,191;14,29998
 779,67; 7648,746;  214,677;51953,308;14,36851
 780,24; 7663,801;  238,523;51668,887;14,43754
 780,80; 7692,471;  249,523;51699,773;14,46630
 781,37; 7673,833;  243,293;51610,659;14,46549
 781,94; 7676,272;  234,908;51420,238;14,53808
 782,50; 7676,942;  240,293;51404,739;14,53480
 783,07; 7716,997;  254,677;51467,472;14,57120
 783,63; 7685,898;  221,908;51216,358;14,63687
 784,20; 7724,260;  253,523;51172,475;14,67182
 784,77; 7714,468;  231,062;50910,054;14,76629
 785,33; 7653,061;  212,985;50735,940;14,72613
 785,90; 7732,962;  234,600;50656,749;14,87117
 786,46; 7768,171;  250,446;50620,020;14,92513
 787,03; 7713,994;  221,446;50350,599;14,94649
 787,59; 7712,818;  236,600;50371,947;14,91207
 788,16; 7760,180;  240,985;50292,141;15,02302
 788,73; 7769,158;  244,062;50144,565;15,08020
 789,29; 7720,136;  228,677;49801,529;15,11202
 789,86; 7773,575;  253,677;49716,876;15,20302
 790,42; 7750,630;  235,908;49448,378;15,26995
 790,99; 7723,530;  250,831;49178,649;15,27290
 791,55; 7715,200;  224,447;49200,535;15,29472
 792,12; 7773,486;  259,216;49231,883;15,34380
 792,68; 7720,771;  242,216;48849,846;15,38556
 793,25; 7703,902;  241,293;48615,886;15,42671
 793,81; 7750,572;  295,600;48344,542;15,51537
 794,38; 7702,165;  207,370;48147,736;15,63358
 794,94; 7688,528;  218,985;47935,007;15,65416
 795,51; 7688,813;  247,447;47653,431;15,69710
 796,07; 7689,945;  240,139;47466,087;15,77481
 796,64; 7737,230;  244,216;47469,204;15,86663
 797,20; 7673,746;  241,677;47105,552;15,85884
 797,77; 7627,339;  215,908;46680,823;15,95060
 798,33; 7608,009;  226,370;46547,632;15,93575
 798,90; 7657,371;  256,524;46521,903;15,99651
 799,46; 7624,349;  225,601;45897,789;16,19968
 800,03; 7563,173;  238,831;45879,368;16,04789
 800,59; 7653,997;  250,601;45703,177;16,28818
 801,15; 7622,743;  252,985;45521,910;16,27995
 801,72; 7560,183;  240,293;45155,334;16,29719
 802,28; 7573,391;  265,370;44877,221;16,38134
 802,85; 7491,984;  236,524;44621,338;16,34672
 803,41; 7516,269;  237,447;44556,762;16,42359
 803,98; 7489,016;  235,293;44047,418;16,55643
 804,54; 7487,686;  233,524;43920,766;16,60476
 805,11; 7438,433;  241,139;43638,113;16,58478
 805,67; 7470,257;  261,216;43593,461;16,63667
 806,23; 7373,619;  241,216;43168,732;16,61499
 806,80; 7447,212;  247,985;43040,695;16,82349
 807,36; 7387,421;  257,447;43046,812;16,66296
 807,93; 7398,321;  278,985;42722,237;16,77378
 808,49; 7360,068;  222,216;42402,585;16,92221
 809,05; 7327,969;  207,601;42154,087;16,97489
 809,62; 7375,024;  251,524;42141,511;17,00526
 810,18; 7366,309;  246,755;42042,551;17,03414
 810,74; 7291,902;  216,985;41760,822;17,03000
 811,31; 7351,572;  210,601;41524,709;17,28458
 811,87; 7336,857;  234,524;41277,903;17,30446
 812,44; 7335,527;  254,524;41479,250;17,17659
 813,00; 7279,505;  192,293;41034,598;17,35262
 813,56; 7378,559;  243,139;41162,484;17,43777
 814,13; 7385,383;  233,985;41008,448;17,53891
 814,69; 7346,746;  236,062;40900,949;17,48605
 815,25; 7285,416;  207,139;40381,066;17,61908
 815,82; 7307,239;  240,755;40351,491;17,61744
 816,38; 7354,986;  268,601;40127,762;17,77856
 816,94; 7279,733;  215,062;39958,802;17,77556
 817,51; 7281,018;  212,524;39646,535;17,92487
 818,07; 7229,381;  218,909;39392,882;17,89574
 818,63; 7212,128;  231,755;39210,307;17,90824
 819,20; 7212,105;  227,524;39112,270;17,96227
 819,76; 7198,544;  214,909;38788,849;18,10454
 820,32; 7225,522;  256,139;38646,966;18,15377
 820,89; 7178,807;  247,370;38460,391;18,13894
 821,45; 7136,093;  214,986;38189,431;18,22570
 822,01; 7162,763;  233,216;37871,086;18,41110
 822,57; 7119,740;  241,063;37855,280;18,28744
 823,14; 7075,180;  211,293;37486,167;18,41424
 823,70; 7082,311;  219,293;37306,745;18,50496
 824,26; 7080,212;  214,139;37121,939;18,60331
 824,82; 7081,805;  236,524;37027,441;18,60590
 825,39; 7042,629;  214,370;36749,481;18,68958
 825,95; 7090,145;  244,063;36730,752;18,76323
 826,51; 7013,430;  232,755;36361,330;18,76818
 827,08; 7096,408;  261,986;36483,217;18,86855
 827,64; 7063,924;  243,140;36268,334;18,93337
 828,20; 7008,055;  212,370;35898,143;19,04312
 828,76; 7072,956;  253,986;35886,029;19,13719
 829,32; 7101,857;  257,370;35756,454;19,28074
 829,89; 7032,142;  214,293;35706,186;19,20959
 830,45; 7049,889;  239,140;35627,303;19,24584
 831,01; 7009,482;  225,370;35479,190;19,24362
 831,57; 7042,075;  229,986;35345,230;19,39924
 832,14; 7012,976;  211,140;35348,655;19,35776
 832,70; 6993,107;  210,447;35060,695;19,46230
 833,26; 7007,854;  206,678;34902,889;19,60207
 833,82; 6997,217;  235,063;34895,467;19,50974
 834,38; 7010,810;  209,909;34862,200;19,62612
 834,95; 7079,480;  208,063;34716,471;19,91230
 835,51; 7023,073;  186,217;34589,818;19,87250
 836,07; 7067,743;  221,370;34684,397;19,86585
 836,63; 7139,643;  247,909;34621,206;20,04967
 837,19; 7157,083;  234,524;34434,862;20,24120
 837,75; 7000,829;  190,217;34086,287;20,09263
 838,32; 7120,346;  249,371;34296,327;20,18088
 838,88; 7172,092;  242,447;34342,905;20,32127
 839,44; 7183,839;  229,217;34228,561;20,45517
 840,00; 7164,509;  220,217;34125,293;20,48157
 840,56; 7107,718;  212,294;33756,487;20,55624
 841,12; 7140,772;  207,601;33786,296;20,64753
 841,68; 7111,288;  198,140;33638,490;20,67307
 842,25; 7128,266;  209,371;33518,838;20,77156
 842,81; 7121,936;  211,678;33322,032;20,87038
 843,37; 7159,606;  207,601;33416,226;20,93433
 843,93; 7173,661;  215,140;33342,497;21,00536
 844,49; 7177,023;  230,678;33339,999;20,98003
 845,05; 7132,539;  189,140;33131,347;21,07752
 845,61; 7200,440;  237,524;33205,002;21,12056
 846,17; 7148,340;  208,294;33015,658;21,15393
 846,73; 7175,856;  217,217;33016,775;21,21565
 847,29; 7133,988;  200,525;32860,661;21,22913
 847,86; 7199,658;  207,217;32722,009;21,50542
 848,42; 7150,174;  196,140;32543,203;21,49819
 848,98; 7166,229;  216,678;32561,858;21,48558
 849,54; 7143,360;  199,755;32552,283;21,46233
 850,10; 7188,184;  224,755;32341,708;21,68147
 850,66; 7140,777;  201,063;32299,517;21,62009
 851,22; 7145,755;  193,832;32128,403;21,76927
 851,78; 7204,425;  247,832;32229,674;21,75169
 852,34; 7159,325;  222,755;31870,637;21,91796
 852,90; 7141,765;  213,602;31847,831;21,90084
 853,46; 7126,050;  204,294;31624,410;22,02970
 854,02; 7145,489;  213,678;31638,450;22,05843
 854,58; 7127,467;  204,678;31429,105;22,17107
 855,14; 7123,367;  201,986;31338,761;22,22896
 855,70; 7096,576;  176,755;31218,416;22,29204
 856,26; 7157,861;  235,371;31233,534;22,33194
 856,82; 7127,454;  203,371;30950,574;22,51939
 857,38; 7164,740;  242,217;30908,614;22,57364
 857,94; 7117,563;  209,986;30828,577;22,56008
 858,50; 7179,695;  226,294;30618,617;22,87881
 859,06; 7094,057;  202,448;30493,426;22,75136
 859,62; 7122,804;  218,602;30468,390;22,82397
 860,18; 7102,782;  212,986;30324,584;22,88087
 860,74; 7083,836;  181,909;30105,547;23,06513
 861,30; 7089,045;  194,217;29888,125;23,21967
 861,86; 7193,945;  241,679;30023,935;23,34365
 862,42; 7105,231;  212,679;29767,821;23,32099
 862,98; 7129,516;  233,679;29734,476;23,37509
 863,54; 7066,648;  222,756;29541,209;23,34329
 864,10; 7076,856;  220,525;29542,249;23,38311
 864,66; 7078,911;  201,140;29320,905;23,61891
 865,22; 7056,427;  212,602;29224,714;23,58954
 865,78; 7079,020;  228,217;29105,677;23,72370
 866,34; 7077,305;  205,140;29035,333;23,83669
 866,90; 7092,898;  218,679;28876,911;23,98689
 867,45; 7037,953;  216,525;28690,105;23,95704
 868,01; 7016,700;  223,756;28554,145;23,97759
 868,57; 6966,831;  204,910;28341,955;24,03210
 869,13; 6972,578;  194,525;28286,995;24,12765
 869,69; 6999,479;  204,294;28199,343;24,27281
 870,25; 6956,764;  197,602;28030,152;24,28510
 870,81; 7010,434;  210,525;27974,346;24,49198
 871,37; 7024,027;  215,679;27896,617;24,59580
 871,93; 7024,159;  229,910;27765,580;24,67435
 872,49; 7006,059;  239,987;27545,697;24,77897
 873,04; 6878,806;  197,833;27359,506;24,59706
 873,60; 6956,245;  200,602;27265,546;24,96086
 874,16; 6955,992;  224,910;27204,048;24,94921
 874,72; 6960,223;  203,910;27066,048;25,15181
 875,28; 6933,915;  218,910;27009,971;25,06435
 875,84; 6932,608;  216,833;26925,510;25,14454
 876,40; 6939,377;  209,756;26853,587;25,25771
 876,95; 6969,300;  219,833;26916,356;25,28220
 877,51; 6999,838;  234,833;26936,817;25,33522
 878,07; 7053,915;  242,833;26841,817;25,60655
 878,63; 7034,762;  211,910;26853,587;25,60969
 879,19; 7067,454;  230,448;26860,279;25,67424
 879,75; 7048,223;  209,910;26893,740;25,62718
 880,30; 7075,762;  209,756;26889,971;25,73445
 880,86; 7170,762;  243,833;27000,202;25,88890
 881,42; 7158,223;  192,525;27050,202;25,93559
 881,98; 7215,146;  226,756;27168,048;25,93933
 882,54; 7202,608;  211,525;27217,663;25,88701
 883,09; 7233,762;  227,756;27339,279;25,84143
 883,65; 7259,531;  197,602;27335,202;26,02267
 884,21; 7382,685;  238,987;27546,587;26,16011
 884,77; 7430,146;  211,217;27684,202;26,27646
 885,32; 7490,223;  213,756;27806,202;26,37123
 885,88; 7548,915;  241,679;27903,587;26,41624
 886,44; 7544,300;  225,140;27971,202;26,37909
 887,00; 7569,069;  228,140;27985,048;26,44721
 887,56; 7617,223;  213,910;28107,048;26,54170
 888,11; 7633,915;  212,602;28153,740;26,56053
 888,67; 7737,377;  250,371;28319,202;26,67374
 889,23; 7746,377;  220,987;28304,202;26,79675
 889,79; 7695,915;  195,294;28167,279;26,81476
 890,34; 7773,838;  221,448;28126,510;27,06459
 890,90; 7898,762;  274,448;28239,510;27,26371
 891,46; 7773,223;  206,756;28133,894;27,09360
 892,01; 7817,454;  235,910;28142,202;27,16787
 892,57; 7818,146;  242,525;28027,433;27,26524
 893,13; 7774,146;  214,371;27874,510;27,33094
 893,69; 7818,838;  206,679;27834,433;27,55258
 894,24; 7818,685;  209,833;27745,433;27,63278
 894,80; 7766,223;  209,756;27656,048;27,53183
 895,36; 7819,146;  214,679;27516,279;27,85356
 895,91; 7768,146;  217,833;27286,202;27,89349
 896,47; 7786,454;  232,140;27175,510;28,03775
 897,03; 7750,608;  213,679;26974,740;28,16379
 897,58; 7719,685;  228,679;26837,587;28,15225
 898,14; 7694,608;  227,679;26705,740;28,20044
 898,70; 7668,531;  196,140;26521,433;28,38483
 899,25; 7683,685;  210,294;26541,740;28,38200
 899,81; 7642,223;  217,371;26378,202;28,38156
 900,37; 7617,531;  187,525;26079,894;28,69574
 900,92; 7620,685;  213,525;26093,048;28,62170
 901,48; 7595,223;  209,602;26053,279;28,57806
 902,03; 7556,377;  210,140;25818,740;28,68660
 902,59; 7548,992;  213,602;25710,510;28,76973
 903,15; 7557,377;  228,140;25576,202;28,91439
 903,70; 7481,377;  220,602;25382,587;28,85613
 904,26; 7473,685;  197,756;25265,356;29,02523
 904,82; 7495,300;  209,371;25302,202;29,03590
 905,37; 7484,069;  222,140;25079,510;29,21439
 905,93; 7433,146;  211,448;24944,971;29,19802
 906,48; 7492,915;  218,140;24824,279;29,56488
 907,04; 7472,300;  226,833;24824,740;29,45562
 907,60; 7445,762;  205,448;24573,356;29,71250
 908,15; 7471,838;  193,294;24495,202;29,95051
 908,71; 7455,223;  234,140;24481,587;29,78080
 909,26; 7397,531;  212,602;24315,048;29,80996
 909,82; 7408,992;  227,217;24178,433;29,98501
 910,37; 7415,300;  248,217;24143,433;29,99380
 910,93; 7362,454;  211,140;23932,356;30,14733
 911,48; 7299,915;  195,987;23748,740;30,16178
 912,04; 7291,838;  204,371;23688,894;30,17931
 912,60; 7346,762;  218,063;23709,663;30,34573
 913,15; 7303,531;  212,217;23494,202;30,45837
 913,71; 7262,146;  200,602;23282,587;30,59331
 914,26; 7250,454;  192,525;23220,817;30,64895
 914,82; 7215,762;  218,602;23132,510;30,53674
 915,37; 7223,454;  197,217;23068,587;30,72066
 915,93; 7244,762;  254,371;23015,663;30,71175
 916,48; 7170,915;  202,217;22835,894;30,78907
 917,04; 7177,992;  227,910;22721,510;30,89805
 917,59; 7167,377;  232,525;22648,433;30,93719
 918,15; 7115,838;  183,910;22479,740;31,09070
 918,70; 7060,762;  201,294;22344,510;30,97774
 919,26; 7077,992;  216,756;22277,663;31,10133
 919,81; 7023,300;  195,448;22119,125;31,14374
 920,37; 7016,685;  191,063;21986,587;31,31662
 920,92; 7094,069;  227,987;22000,202;31,53599
 921,48; 6972,762;  192,294;21781,971;31,40606
 922,03; 6972,454;  203,063;21755,202;31,40937
 922,59; 6914,146;  198,910;21551,356;31,44950
 923,14; 6911,300;  200,294;21536,971;31,45291
 923,69; 6924,069;  228,987;21373,510;31,66344
 924,25; 6974,608;  231,294;21373,279;31,89537
 924,80; 6822,223;  210,833;21137,125;31,59370
 925,36; 6875,531;  205,371;21097,433;31,92677
 925,91; 6882,992;  207,987;20935,202;32,20406
 926,47; 6867,915;  187,910;20840,663;32,34438
 927,02; 6921,069;  253,063;20835,817;32,39608
 927,57; 6798,454;  199,602;20660,740;32,25066
 928,13; 6826,377;  186,371;20612,663;32,50715
 928,68; 6858,146;  202,448;20522,587;32,75420
 929,24; 6752,146;  168,448;20419,663;32,51014
 929,79; 6747,454;  192,987;20219,971;32,72818
 930,34; 6770,838;  203,910;20070,894;33,05448
 930,90; 6700,838;  199,140;20103,587;32,66455
 931,45; 6742,223;  208,448;20063,971;32,90659
 932,01; 6731,377;  207,294;19824,894;33,25627
 932,56; 6722,915;  221,987;19795,894;33,21222
 933,11; 6733,377;  226,833;19744,663;33,33641
 933,67; 6680,300;  195,833;19569,740;33,47011
 934,22; 6655,838;  203,294;19479,663;33,47386
 934,77; 6672,762;  232,217;19436,202;33,53754
 935,33; 6616,454;  214,525;19295,279;33,55176
 935,88; 6615,223;  217,063;19181,510;33,73766
 936,43; 6605,762;  193,371;19164,663;33,80049
 936,99; 6635,762;  211,063;19027,510;34,14406
 937,54; 6510,762;  184,140;18841,894;33,90880
 938,09; 6529,377;  208,602;18791,740;34,01350
 938,65; 6516,838;  209,294;18645,817;34,21222
 939,20; 6508,069;  183,294;18601,740;34,33935
 939,75; 6467,223;  189,525;18505,356;34,27471
 940,31; 6445,915;  185,448;18393,971;34,38207
 940,86; 6500,992;  209,756;18389,048;34,60661
 941,41; 6578,223;  261,063;18269,817;35,07827
 941,96; 6448,223;  201,910;18149,433;34,80321
 942,52; 6450,915;  202,294;18048,125;35,01446
 943,07; 6384,762;  182,910;17949,125;34,90812
 943,62; 6388,531;  199,525;17862,740;35,03895
 944,18; 6376,454;  198,987;17755,663;35,18586
 944,73; 6380,454;  209,371;17721,510;35,23889
 945,28; 6316,608;  172,910;17468,510;35,52174
 945,83; 6300,069;  192,910;17503,740;35,27941
 946,39; 6315,146;  190,910;17489,740;35,40260
 946,94; 6328,838;  218,063;17365,510;35,63665
 947,49; 6286,069;  202,756;17228,740;35,72958
 948,04; 6292,223;  222,756;17257,663;35,62959
 948,59; 6290,146;  224,448;17127,510;35,88520
 949,15; 6240,608;  181,987;17016,356;35,98959
 949,70; 6230,838;  203,602;16957,587;35,97494
 950,25; 6190,300;  216,063;16872,894;35,86659
 950,80; 6208,685;  170,140;16704,125;36,52201
 951,36; 6124,146;  166,602;16642,279;36,15963
 951,91; 6167,454;  215,756;16653,279;36,20800
 952,46; 6133,300;  188,217;16474,125;36,50446
 953,01; 6149,300;  211,756;16479,279;36,49937
 953,56; 6062,915;  182,217;16339,663;36,39621
 954,11; 6132,992;  208,217;16342,971;36,72058
 954,67; 6065,069;  186,602;16240,433;36,61722
 955,22; 6020,146;  165,140;16065,125;36,82397
 955,77; 6054,223;  227,371;16076,510;36,76447
 956,32; 6045,300;  233,525;15970,125;36,93158
 956,87; 5935,300;  188,217;15816,356;36,77394
 957,42; 5969,992;  199,448;15744,202;37,12213
 957,98; 5950,762;  195,525;15677,125;37,17469
 958,53; 5971,377;  216,679;15685,894;37,20097
 959,08; 5873,069;  190,756;15538,048;37,02486
 959,63; 5871,608;  185,140;15422,356;37,31960
 960,18; 5878,223;  204,063;15400,817;37,33797
 960,73; 5852,146;  202,756;15353,048;37,28899
 961,28; 5817,992;  188,371;15228,510;37,43065
 961,83; 5857,146;  205,525;15224,510;37,62985
 962,39; 5821,454;  184,602;15026,894;37,97831
 962,94; 5793,531;  217,756;14998,510;37,72321
 963,49; 5736,762;  202,756;14846,048;37,79209
 964,04; 5780,146;  212,063;14804,971;38,15609
 964,59; 5714,531;  170,140;14735,356;38,06597
 965,14; 5746,146;  214,140;14637,740;38,35385
 965,69; 5669,377;  204,525;14532,356;38,14152
 966,24; 5674,838;  189,910;14443,894;38,47997
 966,79; 5621,531;  215,217;14397,125;38,12120
 967,34; 5561,454;  169,448;14195,587;38,44255
 967,89; 5584,069;  195,679;14179,048;38,53428
 968,44; 5562,300;  205,294;14128,740;38,47471
 968,99; 5568,300;  210,679;14066,740;38,66626
 969,55; 5557,992;  202,910;13953,817;38,94349
 970,10; 5539,223;  205,756;13867,587;39,03918
 970,65; 5497,069;  216,217;13742,587;39,04116
 971,20; 5449,454;  194,140;13683,510;38,95893
 971,75; 5356,608;  175,833;13469,356;38,97217
 972,30; 5413,377;  200,525;13451,663;39,33890
 972,85; 5358,223;  191,756;13365,125;39,21903
 973,40; 5280,454;  191,756;13249,663;38,97024
 973,95; 5292,685;  202,140;13220,740;39,10209
 974,50; 5336,915;  223,448;13146,894;39,56737
 975,05; 5268,685;  201,756;13000,279;39,58995
 975,60; 5264,300;  215,140;12978,894;39,55858
 976,15; 5193,685;  191,833;12840,663;39,54399
 976,70; 5179,685;  203,063;12794,356;39,52431
 977,25; 5202,838;  212,833;12717,817;39,90413
 977,80; 5087,762;  194,679;12616,433;39,39124
 978,35; 5083,608;  218,448;12468,048;39,71689
 978,89; 5030,531;  186,679;12345,510;39,83814
 979,44; 5085,531;  197,756;12355,971;40,20142
 979,99; 5000,377;  186,910;12160,510;40,20067
 980,54; 5029,146;  227,987;12152,356;40,26343
 981,09; 4984,762;  219,140;12073,433;40,20165
 981,64; 4921,531;  206,833;11907,663;40,29370
 982,19; 4941,146;  235,910;11902,510;40,33083
 982,74; 4874,838;  214,987;11733,971;40,45367
 983,29; 4825,069;  191,756;11599,356;40,61602
 983,84; 4822,992;  209,525;11474,202;40,95517
 984,39; 4841,146;  262,833;11432,587;40,98849
 984,94; 4705,300;  178,294;11322,971;40,62034
 985,49; 4752,377;  231,679;11240,587;41,06400
 986,03; 4733,685;  225,217;11184,587;41,13802
 986,58; 4710,915;  245,448;11041,740;41,36112
 987,13; 4616,300;  207,910;10894,587;41,25127
 987,68; 4613,069;  222,140;10822,125;41,42392
 988,23; 4576,069;  221,063;10802,048;41,15880
 988,78; 4535,223;  193,063;10655,433;41,50264
 989,33; 4519,531;  216,833;10548,125;41,64724
 989,88; 4515,992;  224,756;10489,740;41,80461
 990,42; 4448,146;  210,679;10372,433;41,70016
 990,97; 4391,146;  210,833;10237,356;41,69255
 991,52; 4394,454;  229,140;10154,125;41,96796
 992,07; 4352,531;  237,910;10121,663;41,63015
 992,62; 4308,069;  222,448; 9972,356;41,90420
 993,17; 4266,069;  221,448; 9894,663;41,81258
 993,71; 4256,454;  222,756; 9765,433;42,27009
 994,26; 4194,377;  201,371; 9678,125;42,13474
 994,81; 4194,608;  221,140; 9602,510;42,35488
 995,36; 4108,223;  204,371; 9478,894;42,09221
 995,91; 4130,377;  217,679; 9431,356;42,46620
 996,45; 4084,223;  205,140; 9270,279;42,79121
 997,00; 4018,608;  189,987; 9123,740;42,85568
 997,55; 4019,762;  216,987; 9109,587;42,76337
 998,10; 3997,992;  242,756; 8988,433;42,93820
 998,65; 3960,608;  204,140; 8947,356;42,96437
 999,19; 3931,838;  221,371; 8811,663;43,19373
 999,74; 3894,838;  236,987; 8739,510;43,02078
1000,29; 3839,838;  226,294; 8655,202;42,87085
1000,84; 3798,531;  201,679; 8495,894;43,36579
1001,38; 3750,838;  213,217; 8413,971;43,13776
1001,93; 3790,300;  229,910; 8355,356;43,81778
1002,48; 3677,454;  204,448; 8209,125;43,38721
1003,03; 3674,608;  223,910; 8186,894;43,33423
1003,57; 3635,454;  227,833; 8108,663;43,23936
1004,12; 3660,146;  256,371; 7949,048;44,24695
1004,67; 3602,992;  210,602; 7886,356;44,19619
1005,22; 3509,223;  205,448; 7729,125;43,91171
1005,76; 3485,377;  197,833; 7624,356;44,26761
1006,31; 3493,146;  228,217; 7583,894;44,38652
1006,86; 3433,992;  215,140; 7489,663;44,24829
1007,40; 3353,531;  202,602; 7323,587;44,24850
1007,95; 3373,300;  223,910; 7254,587;44,79498
1008,50; 3307,377;  215,910; 7108,048;44,85498
1009,04; 3258,454;  211,987; 7077,894;44,37093
1009,59; 3213,300;  215,525; 6945,279;44,54509
1010,14; 3185,838;  191,063; 6864,587;44,87547
1010,68; 3149,146;  202,217; 6776,971;44,82189
1011,23; 3078,915;  211,987; 6622,356;44,72330
1011,78; 3044,915;  223,525; 6594,279;44,28660
1012,32; 3015,146;  225,910; 6476,740;44,62185
1012,87; 3017,377;  240,063; 6461,279;44,64262
1013,42; 2939,454;  198,602; 6310,740;44,84277
1013,96; 2987,454;  235,063; 6342,587;45,06557
1014,51; 2877,300;  176,679; 6239,510;44,54390
1015,06; 2894,146;  194,294; 6241,663;44,64506
1015,60; 2981,685;  250,756; 6316,817;45,01980
1016,15; 2899,992;  204,140; 6243,894;44,63513
1016,69; 2926,300;  205,371; 6311,587;44,55999
1017,24; 2909,992;  193,371; 6283,202;44,60914
1017,79; 2978,838;  236,756; 6368,663;44,71826
1018,33; 2946,377;  201,063; 6299,663;45,01547
1018,88; 2973,146;  222,679; 6390,048;44,59709
1019,42; 2984,223;  206,987; 6383,202;44,96664
1019,97; 2976,223;  202,525; 6343,279;45,16869
1020,51; 3020,377;  224,679; 6435,125;45,01606
1021,06; 2952,838;  196,679; 6409,048;44,36568
1021,61; 2975,762;  177,525; 6367,587;45,20531
1022,15; 2933,146;  168,140; 6285,279;45,20097
1022,70; 2956,454;  201,987; 6293,663;45,21690
1023,24; 2939,531;  194,217; 6266,125;45,21336
1023,79; 2941,146;  207,602; 6194,279;45,66046
1024,33; 2891,915;  189,140; 6167,740;45,20749
1024,88; 2902,377;  221,371; 6046,740;46,02293
1025,42; 2871,531;  211,140; 5985,356;46,07363
1025,97; 2801,608;  199,833; 5905,663;45,59853
1026,51; 2723,531;  176,063; 5792,817;45,35480
1027,06; 2743,223;  192,217; 5716,433;46,17861
1027,60; 2705,685;  216,217; 5660,356;45,72748
1028,15; 2695,685;  214,910; 5538,048;46,60362
1028,69; 2597,608;  173,602; 5427,894;46,13382
1029,24; 2594,992;  187,294; 5382,663;46,34316
1029,78; 2547,685;  189,910; 5295,048;46,18435
1030,33; 2544,762;  178,679; 5186,817;47,24475
1030,87; 2497,685;  195,679; 5110,356;46,83941
1031,42; 2460,377;  175,833; 5040,510;46,96189
1031,96; 2464,992;  207,525; 4971,587;47,38535
1032,51; 2401,608;  184,833; 4889,202;47,12162
1033,05; 2374,377;  204,679; 4859,971;46,60713
1033,60; 2300,992;  165,525; 4725,971;46,82584
1034,14; 2297,915;  191,679; 4665,971;47,07418
1034,69; 2276,146;  202,140; 4596,433;47,19772
1035,23; 2268,915;  195,987; 4562,356;47,47489
1035,77; 2242,685;  190,448; 4520,048;47,40014
1036,32; 2189,838;  169,525; 4409,433;47,64994
1036,86; 2197,992;  201,679; 4379,817;47,77997
1037,41; 2151,069;  205,756; 4278,279;47,76679
1037,95; 2115,146;  181,679; 4218,971;47,89020
1038,50; 2068,454;  187,217; 4162,510;47,32323
1039,04; 2087,454;  213,910; 4120,587;47,95749
1039,58; 2028,762;  186,140; 4047,740;47,71652
1040,13; 2008,685;  197,525; 3989,048;47,76866
1040,67; 2019,838;  229,448; 3970,817;47,85388
1041,21; 2014,608;  213,140; 3912,740;48,69357
1041,76; 1934,069;  179,679; 3816,356;48,24158
1042,30; 1921,069;  204,063; 3788,125;47,90670
1042,85; 1912,300;  200,448; 3725,971;48,55597
1043,39; 1870,146;  166,910; 3647,125;48,94055
1043,93; 1889,531;  211,217; 3640,894;48,93503
1044,48; 1846,762;  215,679; 3562,663;48,73290
1045,02; 1812,838;  197,525; 3481,279;49,19106
1045,56; 1812,069;  215,294; 3502,971;48,56849
1046,11; 1763,146;  206,756; 3442,894;48,09406
1046,65; 1749,223;  208,448; 3371,663;48,70914
1047,19; 1708,454;  188,063; 3327,279;48,43218
1047,74; 1686,377;  184,833; 3238,510;49,17168
1048,28; 1695,300;  201,910; 3227,279;49,36225
1048,82; 1692,838;  212,833; 3210,510;49,37176
1049,37; 1664,915;  214,602; 3148,048;49,44060
1049,91; 1664,608;  197,756; 3114,433;50,29189
1050,45; 1635,762;  219,140; 3066,971;49,74387
1050,99; 1609,531;  201,294; 3028,587;49,80866
1051,54; 1558,454;  197,756; 2964,587;49,17894
1052,08; 1578,300;  220,217; 2919,125;50,31972
1052,62; 1553,377;  211,756; 2906,356;49,78925
1053,16; 1509,762;  191,525; 2845,894;49,66289
1053,71; 1533,146;  203,756; 2818,202;50,84788
1054,25; 1494,531;  216,371; 2767,125;50,10909
1054,79; 1494,377;  212,910; 2723,048;51,05166
1055,33; 1443,531;  177,602; 2670,279;50,78592
1055,88; 1437,454;  215,371; 2668,587;49,81555
1056,42; 1425,608;  222,987; 2646,817;49,61655
1056,96; 1423,838;  217,140; 2583,048;51,00360
1057,50; 1395,685;  211,371; 2545,433;50,74046
1058,05; 1362,454;  200,987; 2502,356;50,46853
1058,59; 1367,069;  229,294; 2489,279;50,34437
1059,13; 1318,762;  186,525; 2424,894;50,58310
1059,67; 1341,300;  224,448; 2421,433;50,83567
1060,21; 1312,146;  213,063; 2344,817;51,55767
1060,76; 1309,992;  221,602; 2316,433;51,95601
1061,30; 1283,223;  226,910; 2312,279;50,65355
1061,84; 1247,069;  213,448; 2244,202;50,89840
1062,38; 1219,915;  192,063; 2193,048;51,36731
1062,92; 1256,223;  240,910; 2237,279;50,85800
1063,46; 1215,300;  224,679; 2158,433;51,22788
1064,01; 1185,531;  204,217; 2134,894;50,82743
1064,55; 1179,762;  213,140; 2102,048;51,17355
1065,09; 1140,608;  185,063; 2060,048;50,96278
1065,63; 1174,146;  239,140; 2071,202;51,03572
1066,17; 1177,992;  242,217; 2045,971;51,87931
1066,71; 1152,685;  226,217; 2023,587;51,54574
1067,25; 1100,762;  211,294; 1967,433;50,64904
1067,80; 1105,146;  219,679; 1961,433;50,83768
1068,34; 1125,762;  242,756; 1928,971;52,36613
1068,88; 1064,531;  201,448; 1891,510;51,06812
1069,42; 1087,377;  241,294; 1921,433;50,35791
1069,96; 1056,915;  200,217; 1850,279;51,91916
1070,50; 1079,300;  241,910; 1861,433;51,70599
1071,04; 1016,531;  192,756; 1814,817;50,78568
1071,58; 1016,762;  210,602; 1809,510;50,41940
1072,12; 1009,300;  207,987; 1767,971;51,36675
1072,66; 1029,762;  205,602; 1757,356;53,11149
1073,21; 1022,608;  228,371; 1752,202;52,12105
1073,75;  997,300;  226,602; 1707,202;52,05309
1074,29;  975,223;  218,371; 1684,433;51,62484
1074,83;  991,992;  233,140; 1701,125;51,69345
1075,37;  990,762;  230,525; 1658,202;53,24990
1075,91;  968,300;  224,987; 1647,663;52,24752
1076,45;  951,762;  217,063; 1628,894;52,03868
1076,99;  942,762;  236,756; 1589,125;52,20510
1077,53;  908,992;  206,525; 1573,971;51,37075
1078,07;  924,762;  222,525; 1573,433;51,98257
1078,61;  907,838;  217,833; 1538,894;52,23116
1079,15;  878,377;  212,525; 1524,663;50,74555
1079,69;  893,223;  216,140; 1491,433;53,09235
1080,23;  879,762;  233,833; 1482,587;51,72587
1080,77;  924,762;  267,910; 1506,048;53,05157
1081,31;  854,454;  213,679; 1440,894;52,21374
1081,85;  862,915;  224,602; 1452,048;52,00338
1082,39;  828,223;  209,294; 1414,663;51,34766
1082,93;  856,146;  221,063; 1410,894;53,37588
1083,47;  816,069;  196,140; 1361,971;53,17486
1084,01;  835,608;  236,140; 1391,587;51,88189
1084,55;  807,608;  209,987; 1330,510;53,33412
1085,09;  818,992;  230,448; 1354,202;52,37306
1085,63;  782,992;  214,371; 1322,894;51,29538
1086,17;  783,223;  212,679; 1282,433;53,33416
1086,71;  755,762;  213,910; 1289,356;50,38392
1087,24;  773,531;  232,140; 1300,663;50,66717
1087,78;  784,685;  224,833; 1273,817;53,37084
1088,32;  739,992;  215,217; 1228,202;51,80483
1088,86;  767,454;  241,987; 1251,202;52,06691
1089,40;  740,915;  217,602; 1222,433;52,07976
1089,94;  719,992;  195,833; 1181,433;53,18178
1090,48;  729,454;  226,833; 1185,279;52,44125
1091,02;  743,454;  232,833; 1181,587;53,82019
1091,56;  713,915;  218,756; 1171,971;51,94625
1092,10;  700,762;  200,217; 1147,971;52,81374
1092,63;  729,377;  234,987; 1154,740;53,75247
1093,17;  712,531;  233,294; 1125,587;53,70847
1093,71;  681,223;  209,294; 1113,279;52,20541
1094,25;  703,069;  235,448; 1131,817;52,16836
1094,79;  678,685;  218,371; 1087,048;52,99018
1095,33;  679,992;  220,679; 1067,279;54,25389
1095,87;  666,531;  228,448; 1063,817;52,44180
1096,40;  644,915;  198,679; 1024,663;54,02480
1096,94;  660,223;  216,987; 1045,894;53,47236
1097,48;  665,454;  219,833; 1024,048;55,41067
1098,02;  637,685;  211,371; 1015,894;52,98959
1098,56;  623,146;  189,679;  980,048;54,84365
1099,10;  623,531;  185,833;  971,894;55,68242
1099,63;  604,146;  200,987;  948,587;53,92718
1100,17;  622,608;  222,602;  979,433;52,85274
1100,71;  644,762;  243,140;  987,433;53,96014

