
Integration time [ms]: 160,000
Averaging Nr. [scans]: 13
Smoothing Nr. [pixels]: 0
Data measured with spectrometer [name]: 2009305U1
Wave   ;Sample   ;Dark     ;Reference;Reflectance
[nm]   ;[counts] ;[counts] ;[counts] ;[%]

 175,72;  221,272;  192,833;  205,653;221,82623
 176,32;  245,086;  215,986;  216,813; 0,00000
 176,92;  285,498;  247,602;  254,971;514,24795
 177,52;  268,278;  255,679;  265,678;126,00269
 178,12;  257,594;  239,756;  224,864; 0,00000
 178,72;  276,933;  257,525;  250,340; 0,00000
 179,32;  266,074;  248,909;  241,998; 0,00000
 179,92;  274,328;  247,063;  242,319; 0,00000
 180,52;  245,208;  235,064;  254,068;53,37565
 181,12;  262,630;  243,833;  252,404;219,29930
 181,73;  289,067;  258,371;  266,338;385,30962
 182,33;  395,215;  327,141;  336,927;695,63465
 182,93;  288,694;  265,064;  266,645;1494,04501
 183,53;  250,525;  233,755;  224,030; 0,00000
 184,13;  243,899;  236,909;  229,431; 0,00000
 184,73;  299,118;  266,448;  273,739;448,09522
 185,33;  281,357;  232,445;  341,197;44,97618
 185,93;  299,877;  226,213;  348,375;60,30037
 186,53;  310,812;  244,675;  370,650;52,49966
 187,13;  329,472;  273,291;  414,063;39,90932
 187,73;  297,666;  243,598;  361,495;45,86081
 188,33;  284,456;  237,983;  370,649;35,03053
 188,93;  312,378;  250,059;  374,130;50,22831
 189,53;  302,359;  248,981;  393,125;37,03093
 190,13;  348,122;  274,058;  409,924;54,51253
 190,73;  282,249;  218,289;  365,019;43,59016
 191,34;  316,489;  256,905;  385,888;46,19527
 191,94;  282,067;  235,829;  359,614;37,35395
 192,54;  308,324;  240,984;  391,391;44,77197
 193,14;  319,389;  258,291;  390,009;46,38560
 193,74;  320,179;  260,214;  377,424;51,16083
 194,34;  303,415;  241,445;  388,106;42,25407
 194,94;  287,805;  209,983;  342,899;58,54981
 195,54;  247,778;  190,137;  332,970;40,35539
 196,14;  275,188;  225,291;  354,341;38,66479
 196,74;  275,829;  223,445;  343,719;43,55376
 197,34;  255,800;  197,522;  345,903;39,27603
 197,94;  269,232;  232,368;  373,573;26,10691
 198,54;  304,330;  228,599;  383,909;48,76137
 199,14;  278,801;  215,368;  380,241;38,47365
 199,74;  256,308;  190,292;  370,197;36,69500
 200,34;  258,470;  195,061;  379,885;34,30787
 200,94;  299,801;  233,599;  425,936;34,41989
 201,54;  278,383;  216,753;  432,596;28,55335
 202,14;  323,905;  230,061;  474,093;38,45575
 202,74;  290,953;  213,907;  473,146;29,71999
 203,34;  278,263;  180,907;  480,577;32,48774
 203,94;  245,977;  170,753;  486,255;23,84269
 204,54;  338,886;  238,445;  563,211;30,92715
 205,14;  279,636;  203,984;  571,733;20,57164
 205,74;  350,096;  236,907;  659,589;26,77869
 206,34;  311,157;  200,215;  679,015;23,17084
 206,94;  329,488;  210,138;  728,140;23,04042
 207,54;  308,571;  191,907;  773,579;20,05664
 208,14;  335,183;  194,522;  845,836;21,59651
 208,74;  349,973;  198,907;  918,683;20,98798
 209,34;  356,344;  202,215;  992,970;19,49138
 209,94;  378,781;  202,753; 1089,013;19,86185
 210,54;  387,095;  195,292; 1187,450;19,33188
 211,14;  412,998;  194,368; 1267,179;20,37914
 211,73;  424,730;  197,830; 1399,958;18,87485
 212,33;  453,525;  214,830; 1495,442;18,63916
 212,93;  447,652;  201,830; 1569,925;17,96820
 213,53;  425,941;  168,522; 1613,023;17,82064
 214,13;  476,087;  193,369; 1705,053;18,70223
 214,73;  449,290;  179,907; 1721,786;17,47109
 215,33;  423,627;  163,830; 1742,628;16,45535
 215,93;  486,675;  194,523; 1862,662;17,51369
 216,53;  458,935;  157,753; 1944,199;16,85929
 217,13;  535,744;  209,061; 2159,512;16,74909
 217,73;  544,843;  196,599; 2334,342;16,29022
 218,33;  529,919;  149,754; 2512,186;16,09214
 218,93;  630,281;  177,292; 2802,474;17,25553
 219,53;  689,272;  179,830; 3052,680;17,73298
 220,13;  708,715;  166,677; 3342,899;17,06550
 220,73;  808,563;  178,292; 3659,770;18,10357
 221,32;  894,050;  192,215; 4073,836;18,08099
 221,92;  955,337;  184,984; 4477,909;17,94471
 222,52; 1033,351;  163,446; 4867,162;18,49401
 223,12; 1127,256;  187,984; 5286,413;18,42277
 223,72; 1241,917;  189,369; 5644,061;19,29619
 224,32; 1331,613;  186,830; 5997,482;19,70145
 224,92; 1390,591;  168,830; 6323,312;19,85156
 225,52; 1512,379;  197,753; 6670,557;20,30999
 226,12; 1591,303;  180,753; 6972,357;20,76902
 226,72; 1679,749;  160,753; 7292,274;21,29974
 227,31; 1757,726;  151,984; 7646,565;21,42538
 227,91; 1928,680;  194,138; 8071,656;22,01890
 228,51; 2014,873;  165,984; 8435,636;22,35752
 229,11; 2156,701;  184,907; 8840,069;22,78172
 229,71; 2226,123;  170,830; 9126,800;22,94886
 230,31; 2386,956;  168,369; 9555,531;23,63427
 230,91; 2478,524;  158,599; 9813,841;24,02762
 231,51; 2617,435;  163,753;10061,634;24,78997
 232,10; 2740,173;  164,907;10384,972;25,19813
 232,70; 2861,646;  181,445;10581,029;25,77219
 233,30; 3016,617;  195,753;10813,411;26,56766
 233,90; 3059,210;  167,984;10937,933;26,84530
 234,50; 3135,039;  169,984;11059,818;27,22774
 235,10; 3241,206;  171,292;10974,158;28,41759
 235,70; 3341,393;  182,907;11013,347;29,16305
 236,29; 3341,410;  178,907;10902,340;29,49152
 236,89; 3343,155;  160,907;10792,462;29,93210
 237,49; 3409,291;  183,907;10632,310;30,86964
 238,09; 3344,926;  172,753;10341,707;31,19468
 238,69; 3366,541;  207,676;10098,604;31,93699
 239,29; 3238,008;  164,138; 9734,699;32,11797
 239,89; 3167,946;  172,907; 9401,017;32,45561
 240,48; 3070,134;  167,215; 8971,537;32,97153
 241,08; 2968,465;  164,522; 8611,278;33,19550
 241,68; 2881,028;  188,215; 8278,664;33,28385
 242,28; 2781,646;  156,215; 7940,130;33,72893
 242,88; 2673,133;  197,061; 7665,624;33,15325
 243,48; 2571,631;  202,138; 7348,585;33,15624
 244,07; 2447,658;  196,215; 7158,640;32,33705
 244,67; 2396,197;  189,599; 6950,593;32,63718
 245,27; 2314,653;  189,214; 6813,419;32,08594
 245,87; 2280,599;  193,677; 6751,769;31,82210
 246,47; 2216,983;  180,522; 6743,128;31,03129
 247,06; 2116,227;  173,599; 6743,421;29,56896
 247,66; 2101,546;  171,676; 6819,743;29,02903
 248,26; 2113,890;  200,830; 7000,936;28,13280
 248,86; 2099,689;  197,445; 7154,654;27,34205
 249,46; 2049,083;  145,599; 7378,217;26,31804
 250,05; 2098,813;  199,830; 7771,472;25,08020
 250,65; 2082,427;  152,599; 8058,257;24,41072
 251,25; 2110,694;  170,984; 8552,490;23,14274
 251,85; 2170,143;  170,830; 9127,877;22,32112
 252,44; 2186,104;  137,061; 9680,974;21,46964
 253,04; 2278,640;  188,215;10445,847;20,37922
 253,64; 2273,882;  136,830;11140,049;19,42207
 254,24; 2429,922;  193,061;12050,132;18,86521
 254,84; 2464,698;  169,830;13024,525;17,85237
 255,43; 2545,129;  179,676;13965,778;17,15824
 256,03; 2627,556;  176,907;14933,069;16,60763
 256,63; 2726,055;  184,599;15959,061;16,11121
 257,23; 2752,541;  171,753;16835,711;15,48725
 257,82; 2864,215;  182,599;17818,426;15,20551
 258,42; 2895,332;  143,753;18720,590;14,81188
 259,02; 2994,122;  189,522;19585,306;14,45984
 259,62; 3014,532;  171,445;20283,193;14,13645
 260,21; 3049,654;  174,291;20811,251;13,93307
 260,81; 3075,520;  185,907;21379,753;13,63421
 261,41; 3089,474;  151,137;21814,664;13,56352
 262,01; 3152,761;  198,214;22356,130;13,33405
 262,60; 3153,772;  159,060;22637,173;13,32279
 263,20; 3183,981;  176,445;23055,648;13,14528
 263,80; 3241,551;  194,906;23123,820;13,28735
 264,40; 3227,141;  149,752;23365,215;13,25577
 264,99; 3285,492;  181,983;23636,262;13,23217
 265,59; 3335,472;  166,214;23828,529;13,39370
 266,19; 3402,519;  157,752;24024,776;13,59519
 266,78; 3510,726;  197,445;24085,499;13,87004
 267,38; 3542,426;  186,368;24190,233;13,98133
 267,98; 3572,355;  170,906;24143,256;14,18905
 268,58; 3647,019;  186,137;24183,756;14,42177
 269,17; 3703,119;  173,752;24133,851;14,73018
 269,77; 3771,210;  192,522;23966,940;15,05268
 270,37; 3795,589;  161,368;23855,106;15,33832
 270,96; 3900,666;  214,830;23796,071;15,63037
 271,56; 3934,186;  179,676;23480,276;16,11336
 272,16; 3981,888;  169,060;23368,768;16,43481
 272,75; 4069,220;  169,522;23244,494;16,90012
 273,35; 4112,274;  186,753;23207,061;17,05243
 273,95; 4230,265;  180,291;23273,296;17,53767
 274,54; 4324,757;  158,061;23319,855;17,98952
 275,14; 4517,199;  185,830;23690,387;18,42779
 275,74; 4571,229;  157,830;23677,369;18,76482
 276,33; 4786,099;  197,983;24100,569;19,19506
 276,93; 4968,941;  184,138;24473,251;19,69938
 277,53; 5167,301;  181,984;25015,911;20,07462
 278,12; 5369,579;  152,830;25597,349;20,50245
 278,72; 5644,232;  215,676;26084,768;20,98472
 279,32; 5836,700;  184,830;26655,470;21,35147
 279,91; 6094,977;  151,984;27296,689;21,89375
 280,51; 6334,534;  164,061;27885,853;22,25857
 281,11; 6653,185;  165,368;28515,442;22,88466
 281,70; 6899,081;  153,676;28993,081;23,38954
 282,30; 7194,956;  163,599;29674,353;23,82642
 282,90; 7471,845;  168,753;30003,444;24,47852
 283,49; 7812,396;  190,983;30517,786;25,13095
 284,09; 8067,507;  200,214;30896,231;25,62968
 284,69; 8344,083;  194,907;31311,375;26,18927
 285,28; 8637,539;  181,907;31608,199;26,90623
 285,88; 8953,700;  231,060;31904,705;27,53911
 286,47; 9134,184;  181,137;31901,565;28,22486
 287,07; 9341,732;  202,984;31975,438;28,76312
 287,67; 9707,708;  185,830;32122,739;29,81465
 288,26; 9905,972;  169,599;32037,774;30,55203
 288,86;10185,387;  168,676;32056,294;31,41254
 289,46;10569,759;  193,984;32185,292;32,43311
 290,05;10900,110;  172,368;32376,766;33,31142
 290,65;11290,927;  173,907;32494,359;34,39624
 291,24;11645,044;  178,138;32665,551;35,29646
 291,84;12010,901;  184,830;32740,907;36,32523
 292,44;12430,273;  179,061;33002,715;37,32434
 293,03;12884,417;  246,907;32988,735;38,59745
 293,63;13200,591;  176,599;33084,504;39,57709
 294,22;13564,350;  190,753;33347,104;40,33495
 294,82;13809,450;  182,060;33256,310;41,20242
 295,41;13922,774;  155,291;33060,774;41,83948
 296,01;14145,750;  208,214;33008,575;42,49202
 296,61;14324,449;  182,753;32641,087;43,56877
 297,20;14243,589;  186,522;32323,950;43,74049
 297,80;14379,668;  194,984;32156,885;44,37998
 298,39;14350,374;  164,060;31774,877;44,87804
 298,99;14460,996;  189,214;31656,241;45,35472
 299,58;14402,921;  192,292;31571,638;45,28657
 300,18;14437,827;  209,445;31366,877;45,66609
 300,78;14348,844;  177,599;30948,409;46,05418
 301,37;14413,232;  193,291;30891,191;46,32220
 301,97;14495,045;  188,061;30939,660;46,52436
 302,56;14517,214;  187,137;30906,361;46,64856
 303,16;14494,172;  173,753;30840,917;46,69626
 303,75;14491,466;  174,368;30857,002;46,66189
 304,35;14678,354;  166,830;31103,257;46,90756
 304,94;14710,047;  179,138;31040,448;47,08455
 305,54;14664,050;  201,215;31020,913;46,92725
 306,13;14652,301;  164,984;31012,753;46,96391
 306,73;14537,547;  168,138;30770,960;46,95452
 307,33;14524,672;  192,369;30714,351;46,95732
 307,92;14537,209;  185,061;30785,136;46,90233
 308,52;14762,839;  165,830;31199,806;47,03558
 309,11;14910,285;  172,137;31705,231;46,73867
 309,71;15059,080;  168,599;31935,792;46,87377
 310,30;15123,877;  160,061;32195,179;46,71066
 310,90;15299,107;  198,061;32541,025;46,69036
 311,49;15243,445;  179,214;32617,051;46,44030
 312,09;15356,696;  152,599;32789,355;46,58581
 312,68;15555,249;  218,291;33185,330;46,52210
 313,28;15490,978;  159,907;33317,674;46,23674
 313,87;15492,632;  153,830;33457,421;46,05750
 314,47;15549,755;  169,214;33719,073;45,84383
 315,06;15567,804;  155,291;33846,369;45,74657
 315,66;15574,311;  156,061;33991,278;45,56865
 316,25;15409,450;  145,291;34000,199;45,08699
 316,85;15332,137;  140,215;34012,972;44,84997
 317,44;15281,551;  163,445;34187,697;44,43332
 318,04;15190,944;  154,368;34156,383;44,22260
 318,63;15088,558;  146,292;34237,622;43,83011
 319,22;15073,947;  171,445;34452,357;43,47172
 319,82;14960,163;  162,137;34418,304;43,19814
 320,41;14829,818;  181,214;34371,699;42,84410
 321,01;14745,526;  184,907;34386,656;42,57273
 321,60;14636,781;  176,214;34477,630;42,15735
 322,20;14475,980;  164,599;34382,000;41,82486
 322,79;14498,738;  198,368;34501,800;41,68787
 323,39;14299,557;  170,907;34565,974;41,07755
 323,98;14167,127;  149,522;34508,529;40,79747
 324,58;14057,235;  154,368;34408,391;40,58754
 325,17;13804,002;  176,599;34190,879;40,06377
 325,76;13625,334;  187,830;34036,681;39,69855
 326,36;13376,185;  143,368;33626,517;39,52083
 326,95;13141,882;  193,753;33357,126;39,04346
 327,55;12846,557;  148,676;32972,948;38,68443
 328,14;12565,123;  161,292;32580,644;38,26058
 328,74;12383,476;  189,830;32167,636;38,13159
 329,33;12066,809;  178,907;31731,391;37,67660
 329,92;11739,440;  156,214;31253,788;37,24801
 330,52;11423,005;  173,753;30573,956;37,00387
 331,11;11139,792;  171,445;30177,215;36,55413
 331,71;10817,284;  165,522;29557,766;36,24005
 332,30;10510,200;  177,445;29149,371;35,66472
 332,89;10285,378;  213,984;28628,725;35,44426
 333,49; 9939,201;  187,907;28086,942;34,95209
 334,08; 9721,776;  175,368;27697,286;34,68657
 334,68; 9425,118;  180,907;27293,964;34,09505
 335,27; 9247,968;  186,215;26952,612;33,85496
 335,86; 9065,100;  224,753;26641,446;33,46500
 336,46; 8779,355;  181,061;26461,399;32,71759
 337,05; 8604,923;  171,599;26265,353;32,31932
 337,65; 8432,437;  153,291;26054,626;31,96417
 338,24; 8395,632;  213,907;26069,851;31,64350
 338,83; 8263,084;  192,984;25957,438;31,32261
 339,43; 8080,990;  167,984;25897,909;30,75410
 340,02; 8023,348;  162,291;25866,857;30,58234
 340,61; 7906,716;  170,138;25836,938;30,14236
 341,21; 7825,169;  208,137;25858,636;29,69545
 341,80; 7736,908;  175,368;25826,808;29,47803
 342,40; 7613,919;  170,292;25890,158;28,94116
 342,99; 7541,147;  165,445;25947,187;28,60824
 343,58; 7473,579;  177,368;26189,622;28,04913
 344,18; 7444,956;  195,522;26373,073;27,69332
 344,77; 7380,391;  164,599;26529,948;27,36847
 345,36; 7366,651;  148,676;26879,818;27,00212
 345,96; 7365,217;  201,984;27219,638;26,51316
 346,55; 7322,560;  151,369;27427,300;26,29128
 347,14; 7273,876;  152,907;27772,144;25,78264
 347,74; 7259,862;  143,292;28192,844;25,37142
 348,33; 7360,318;  164,677;28854,944;25,08043
 348,92; 7397,664;  178,061;29402,688;24,70383
 349,52; 7413,421;  140,215;29849,887;24,48093
 350,11; 7349,167;  175,907;30115,958;23,95875
 350,70; 7314,374;  167,061;30103,798;23,87472
 351,29; 7122,088;  160,291;29828,098;23,46583
 351,89; 7022,581;  176,983;29840,031;23,07786
 352,48; 6924,417;  155,215;29908,351;22,75122
 353,07; 6865,574;  174,599;29796,583;22,58787
 353,67; 6739,130;  189,215;29796,109;22,12294
 354,26; 6587,579;  164,676;29465,729;21,92038
 354,85; 6494,248;  173,907;29381,496;21,63938
 355,45; 6336,738;  158,830;29187,341;21,28221
 356,04; 6282,106;  168,753;29179,958;21,07238
 356,63; 6151,269;  200,676;28979,836;20,67674
 357,22; 6047,017;  176,675;28835,197;20,48376
 357,82; 5893,306;  173,829;28527,954;20,17158
 358,41; 5835,474;  190,291;28522,847;19,92472
 359,00; 5753,232;  155,907;28267,802;19,91088
 359,60; 5659,620;  174,676;28241,266;19,54261
 360,19; 5601,529;  174,292;28045,826;19,47233
 360,78; 5500,645;  177,984;27864,379;19,22483
 361,37; 5432,075;  169,061;27730,181;19,09579
 361,97; 5351,954;  169,676;27624,442;18,87570
 362,56; 5247,803;  167,753;27299,264;18,72380
 363,15; 5229,697;  202,830;27001,114;18,75817
 363,74; 5066,811;  174,291;26660,845;18,47171
 364,34; 5011,099;  194,291;26339,415;18,42335
 364,93; 4836,172;  163,291;25935,873;18,13121
 365,52; 4705,561;  141,445;25588,830;17,93550
 366,11; 4660,705;  173,599;25238,079;17,90225
 366,71; 4540,716;  160,907;24896,203;17,70672
 367,30; 4495,321;  173,522;24575,417;17,71092
 367,89; 4476,807;  207,215;24348,725;17,68569
 368,48; 4380,978;  182,291;24090,525;17,56168
 369,07; 4300,759;  178,138;23657,413;17,55855
 369,67; 4245,797;  203,291;23383,363;17,43957
 370,26; 4162,618;  163,445;23103,863;17,43287
 370,85; 4156,396;  177,137;22920,245;17,49655
 371,44; 4113,348;  163,214;22611,778;17,59638
 372,03; 4033,341;  151,907;22418,770;17,43144
 372,63; 4017,939;  141,984;22051,743;17,69054
 373,22; 3960,558;  162,368;21824,363;17,53389
 373,81; 3913,615;  140,907;21614,122;17,56937
 374,40; 3917,749;  153,522;21310,691;17,79173
 374,99; 3864,025;  157,753;21122,573;17,67853
 375,59; 3815,833;  163,061;20765,855;17,72950
 376,18; 3865,050;  191,522;20688,377;17,92240
 376,77; 3821,560;  184,368;20538,952;17,86916
 377,36; 3835,131;  194,599;20427,029;17,99355
 377,95; 3826,114;  181,291;20167,268;18,23690
 378,55; 3807,142;  164,907;19976,041;18,38479
 379,14; 3858,351;  177,522;19901,675;18,66153
 379,73; 3831,897;  165,676;19853,332;18,62193
 380,32; 3898,735;  183,984;19873,181;18,86695
 380,91; 3862,872;  159,676;19667,575;18,98306
 381,50; 3917,618;  181,137;19730,834;19,11273
 382,10; 3912,812;  165,599;19588,104;19,29315
 382,69; 3924,240;  153,061;19536,843;19,45533
 383,28; 3987,436;  185,214;19485,519;19,70032
 383,87; 3978,952;  170,599;19354,118;19,85221
 384,46; 4012,407;  156,599;19303,219;20,13833
 385,05; 4069,837;  194,368;19336,249;20,24602
 385,64; 4093,474;  173,984;19253,926;20,54247
 386,24; 4170,163;  151,214;19260,693;21,03118
 386,83; 4241,718;  185,676;19307,347;21,21176
 387,42; 4304,334;  185,907;19437,221;21,39297
 388,01; 4388,661;  175,906;19692,501;21,58550
 388,60; 4500,391;  180,060;19935,642;21,86891
 389,19; 4576,418;  162,521;20071,470;22,17042
 389,78; 4706,209;  163,137;20300,531;22,56038
 390,37; 4920,452;  226,829;20795,837;22,81891
 390,96; 4986,853;  171,983;20851,213;23,28360
 391,56; 5052,150;  182,136;20980,634;23,41522
 392,15; 5180,756;  156,367;21348,835;23,70837
 392,74; 5234,561;  147,059;21537,383;23,78413
 393,33; 5438,528;  167,290;21800,272;24,36667
 393,92; 5581,398;  173,905;22148,280;24,60818
 394,51; 5680,680;  169,367;22328,946;24,87102
 395,10; 5845,045;  191,212;22592,145;25,23927
 395,69; 5976,949;  172,828;22659,440;25,81145
 396,28; 6052,703;  187,828;22780,161;25,95958
 396,87; 6142,874;  175,366;22794,544;26,38252
 397,46; 6258,238;  191,750;22963,056;26,64093
 398,06; 6387,159;  198,596;23203,119;26,90151
 398,65; 6448,957;  184,672;23227,508;27,18539
 399,24; 6587,839;  204,056;23470,283;27,43798
 399,83; 6672,996;  175,516;23419,733;27,95310
 400,42; 6783,762;  203,053;23563,588;28,17020
 401,01; 6889,682;  185,975;23697,214;28,51278
 401,60; 7014,549;  194,281;23692,232;29,02495
 402,19; 7073,099;  220,049;23599,757;29,31196
 402,78; 7173,462;  222,354;23670,337;29,64480
 403,37; 7170,835;  208,967;23485,360;29,90957
 403,96; 7221,616;  200,734;23392,403;30,27329
 404,55; 7249,651;  220,577;23298,760;30,45766
 405,14; 7288,085;  199,113;23194,704;30,82753
 405,73; 7321,880;  215,417;23072,266;31,09118
 406,32; 7453,949;  222,569;22959,260;31,80489
 406,91; 7412,247;  202,028;22680,458;32,07617
 407,50; 7492,298;  215,873;22530,604;32,60817
 408,09; 7405,433;  186,103;22248,987;32,72161
 408,68; 7493,974;  196,641;22130,582;33,26959
 409,27; 7532,057;  186,488;21935,551;33,77419
 409,86; 7621,589;  200,644;21860,399;34,26145
 410,45; 7700,708;  232,645;21774,441;34,66778
 411,04; 7677,383;  236,801;21640,738;34,76268
 411,63; 7647,758;  213,187;21399,610;35,09120
 412,22; 7641,780;  217,574;21270,990;35,26367
 412,81; 7687,313;  222,959;20933,498;36,04133
 413,40; 7607,429;  249,652;20594,959;36,16449
 413,99; 7632,175;  267,960;20389,882;36,59797
 414,58; 7453,677;  208,498;19983,338;36,63837
 415,17; 7495,820;  208,267;19843,761;37,11418
 415,76; 7475,944;  205,343;19646,204;37,39855
 416,35; 7497,998;  194,882;19356,030;38,11419
 416,94; 7593,390;  229,805;19554,581;38,10438
 417,53; 7738,808;  215,190;19687,836;38,63685
 418,12; 7826,387;  206,036;19787,445;38,91625
 418,71; 7992,741;  232,114;20191,765;38,88158
 419,30; 8095,058;  216,652;20276,876;39,27377
 419,89; 8253,194;  203,267;20467,311;39,72518
 420,48; 8426,721;  235,114;20775,844;39,87982
 421,07; 8510,746;  229,729;20800,062;40,25709
 421,66; 8557,716;  200,037;20766,724;40,63697
 422,25; 8581,769;  203,115;20757,681;40,76298
 422,84; 8670,862;  231,500;20748,871;41,13276
 423,43; 8673,904;  220,500;20404,088;41,88256
 424,02; 8599,083;  234,961;20179,384;41,93715
 424,60; 8434,086;  206,578;19787,501;42,01798
 425,19; 8433,687;  222,654;19548,224;42,48792
 425,78; 8447,310;  240,654;19501,989;42,60689
 426,37; 8454,576;  236,039;19304,849;43,09937
 426,96; 8456,313;  219,193;19247,266;43,28930
 427,55; 8384,764;  211,116;19035,553;43,42041
 428,14; 8393,221;  206,501;18860,636;43,88689
 428,73; 8375,554;  228,501;18686,169;44,13912
 429,32; 8382,094;  231,962;18637,883;44,27995
 429,91; 8473,558;  247,116;18703,205;44,57305
 430,50; 8475,494;  239,732;18496,159;45,11158
 431,08; 8432,945;  252,117;18415,557;45,04008
 431,67; 8432,834;  296,502;18284,691;45,23152
 432,26; 8418,621;  305,502;18077,559;45,65098
 432,85; 8359,916;  340,656;17763,604;46,02700
 433,44; 8243,009;  336,118;17385,023;46,37771
 434,03; 8111,200;  348,349;17082,008;46,39064
 434,62; 7983,409;  307,425;16701,952;46,82040
 435,21; 7886,571;  328,040;16469,644;46,82639
 435,79; 7856,378;  331,041;16336,814;47,01640
 436,38; 7845,491;  313,734;16279,858;47,17336
 436,97; 7801,216;  312,041;16185,273;47,18116
 437,56; 7752,588;  311,273;15964,310;47,53911
 438,15; 7753,667;  279,273;15853,253;47,99283
 438,74; 7814,272;  296,965;15926,346;48,09728
 439,33; 7811,212;  265,965;15886,494;48,30341
 439,91; 7834,749;  228,581;15945,350;48,39524
 440,50; 7916,030;  284,196;16038,265;48,44357
 441,09; 8028,075;  278,197;16137,216;48,86732
 441,68; 7989,606;  268,735;16097,048;48,77886
 442,27; 8064,434;  249,658;16117,378;49,24952
 442,86; 8023,781;  232,505;16092,763;49,12452
 443,44; 8145,498;  240,351;16162,261;49,64949
 444,03; 8239,586;  298,198;16223,997;49,86493
 444,62; 8145,421;  244,351;16069,566;49,92709
 445,21; 8119,436;  251,659;15914,696;50,23149
 445,80; 8090,034;  284,890;15782,390;50,36389
 446,39; 8076,965;  290,429;15504,817;51,17877
 446,97; 7928,959;  245,814;15352,756;50,85837
 447,56; 7833,148;  247,583;15120,833;51,00140
 448,15; 7772,056;  243,660;14991,139;51,04870
 448,74; 7651,153;  266,429;14672,104;51,26260
 449,33; 7602,059;  235,276;14587,031;51,33019
 449,91; 7545,227;  246,815;14400,616;51,56503
 450,50; 7461,618;  242,430;14179,487;51,79851
 451,09; 7382,364;  255,276;14091,361;51,51087
 451,68; 7435,671;  268,969;13991,513;52,22576
 452,26; 7329,761;  267,507;13882,268;51,87204
 452,85; 7317,960;  251,199;13837,578;52,01357
 453,44; 7359,957;  267,277;13788,136;52,45732
 454,03; 7306,543;  239,354;13776,037;52,20768
 454,61; 7351,931;  236,662;13755,146;52,63363
 455,20; 7451,044;  273,816;13940,687;52,51552
 455,79; 7472,266;  268,662;13927,663;52,73888
 456,38; 7570,300;  268,739;14007,442;53,14593
 456,97; 7601,019;  252,124;14070,310;53,18278
 457,55; 7567,262;  250,047;14089,802;52,87099
 458,14; 7601,642;  276,585;14042,968;53,20974
 458,73; 7503,775;  255,355;14008,120;52,70519
 459,31; 7637,214;  288,278;14014,715;53,53856
 459,90; 7706,959;  290,509;14131,760;53,58222
 460,49; 7776,587;  334,432;14244,717;53,50110
 461,08; 7770,115;  264,971;14325,004;53,37927
 461,66; 7849,947;  267,586;14367,019;53,77778
 462,25; 7919,056;  270,971;14422,905;54,04268
 462,84; 7965,166;  297,202;14494,938;54,00836
 463,43; 7911,216;  226,971;14407,032;54,19049
 464,01; 7942,929;  261,125;14470,259;54,06243
 464,60; 7967,983;  299,894;14402,292;54,37436
 465,19; 7775,025;  242,972;14172,423;54,07286
 465,77; 7854,192;  269,972;14117,024;54,77137
 466,36; 7774,920;  281,433;13996,694;54,63612
 466,95; 7611,390;  256,356;13737,152;54,55934
 467,53; 7492,606;  275,203;13416,862;54,92003
 468,12; 7349,671;  284,434;13175,399;54,80766
 468,71; 7271,330;  266,895;12915,296;55,37803
 469,29; 7134,009;  249,511;12695,642;55,31437
 469,88; 6940,709;  266,357;12500,496;54,55514
 470,47; 7085,725;  329,280;12548,915;55,29171
 471,06; 7033,618;  272,819;12534,273;55,13864
 471,64; 7088,117;  281,280;12691,803;54,84730
 472,23; 7076,799;  242,896;12681,781;54,93983
 472,81; 7140,192;  253,050;12749,243;55,11392
 473,40; 7205,966;  261,127;13004,846;54,49617
 473,99; 7389,681;  346,281;13160,323;54,96626
 474,57; 7367,611;  259,742;13250,487;54,71487
 475,16; 7470,743;  274,742;13372,506;54,94068
 475,75; 7542,316;  290,281;13477,287;54,99379
 476,33; 7594,892;  292,666;13553,813;55,06481
 476,92; 7690,988;  300,973;13603,829;55,55209
 477,51; 7690,463;  285,666;13671,153;55,31960
 478,09; 7727,278;  272,974;13702,109;55,50845
 478,68; 7628,835;  289,666;13595,350;55,15815
 479,27; 7768,121;  311,435;13701,522;55,68811
 479,85; 7695,415;  287,281;13703,038;55,21965
 480,44; 7796,680;  276,974;13868,131;55,32793
 481,02; 8457,623;  281,051;15608,402;53,34628
 481,61; 9568,396;  310,897;17388,639;54,20798
 482,20;10258,833;  305,436;18436,789;54,89605
 482,78;10685,341;  331,512;19187,657;54,90957
 483,37;10958,238;  327,205;19643,013;55,03799
 483,95;11142,866;  357,975;20013,353;54,86993
 484,54;11282,806;  370,974;20144,321;55,18455
 485,13;11185,469;  337,667;20034,163;55,07478
 485,71;11067,450;  317,975;19790,230;55,20406
 486,30;10869,726;  351,898;19542,570;54,80698
 486,88;10693,795;  393,436;19107,604;55,04043
 487,47;10321,633;  376,898;18360,869;55,29777
 488,05; 9841,756;  358,129;17495,548;55,33871
 488,64; 9185,354;  349,283;16059,475;56,24420
 489,23; 8209,472;  355,591;14183,165;56,79870
 489,81; 6989,256;  354,283;12316,831;55,46455
 490,40; 6575,640;  320,822;11823,952;54,37493
 490,98; 6419,046;  299,745;11561,827;54,33544
 491,57; 6410,105;  322,129;11500,035;54,46437
 492,15; 6299,978;  309,822;11427,977;53,87725
 492,74; 6267,079;  312,667;11319,477;54,09753
 493,32; 6194,965;  325,514;11206,867;53,94045
 493,91; 6118,354;  296,591;11161,517;53,58309
 494,50; 6132,814;  317,207;11123,602;53,81635
 495,08; 6072,425;  292,822;11050,719;53,72428
 495,67; 6116,456;  317,283;11013,507;54,21701
 496,25; 5985,989;  255,130;10847,096;54,10572
 496,84; 6018,002;  280,283;10870,055;54,18170
 497,42; 5957,402;  264,899;10808,134;53,99199
 498,01; 5938,189;  278,206;10786,547;53,86181
 498,59; 5871,069;  246,668;10711,606;53,74519
 499,18; 5826,095;  249,899;10642,047;53,65778
 499,76; 5821,661;  282,437;10534,406;54,03083
 500,35; 5718,253;  272,361;10382,539;53,86545
 500,93; 5653,124;  245,361;10380,776;53,35512
 501,52; 5617,397;  261,284;10274,065;53,49276
 502,10; 5575,102;  270,438;10250,171;53,15437
 502,69; 5532,692;  255,900;10120,749;53,49086
 503,27; 5396,707;  234,207; 9897,576;53,42340
 503,86; 5377,438;  250,669; 9860,824;53,34741
 504,44; 5255,060;  227,438; 9778,525;52,63926
 505,03; 5149,917;  219,361; 9540,802;52,89478
 505,61; 5104,916;  238,515; 9417,662;53,01583
 506,19; 5010,585;  256,054; 9241,075;52,91619
 506,78; 4855,232;  230,362; 9085,577;52,22764
 507,36; 4743,275;  229,361; 8926,057;51,90378
 507,95; 4695,370;  234,900; 8738,415;52,45443
 508,53; 4629,472;  237,516; 8704,375;51,87232
 509,12; 4572,075;  247,054; 8504,879;52,37482
 509,70; 4471,024;  262,439; 8391,822;51,77004
 510,29; 4437,890;  257,670; 8187,741;52,71353
 510,87; 4282,680;  233,131; 8085,205;51,57299
 511,46; 4182,496;  226,131; 7883,685;51,66617
 512,04; 4088,134;  242,285; 7748,083;51,23837
 512,62; 3990,233;  245,054; 7648,102;50,58970
 513,21; 3924,707;  224,208; 7429,407;51,35873
 513,79; 3864,377;  227,824; 7325,385;51,23665
 514,38; 3739,497;  210,747; 7153,170;50,82879
 514,96; 3746,809;  253,824; 7072,624;51,22581
 515,54; 3641,995;  221,670; 6956,391;50,78645
 516,13; 3591,794;  246,824; 6858,308;50,59333
 516,71; 3487,703;  240,901; 6759,824;49,80580
 517,30; 3403,420;  215,132; 6655,856;49,50200
 517,88; 3403,779;  245,978; 6549,899;50,09265
 518,46; 3313,842;  216,825; 6445,769;49,71977
 519,05; 3286,441;  222,517; 6391,915;49,66326
 519,63; 3275,580;  237,056; 6323,787;49,92047
 520,22; 3249,839;  249,979; 6288,022;49,68265
 520,80; 3179,438;  242,287; 6198,368;49,31348
 521,38; 3194,106;  262,748; 6200,291;49,36988
 521,97; 3102,807;  221,595; 6142,052;48,66536
 522,55; 3111,542;  241,133; 6160,067;48,49538
 523,13; 3092,532;  231,441; 6158,127;48,27471
 523,72; 3055,355;  233,517; 6114,658;47,98114
 524,30; 3137,745;  254,210; 6244,255;48,13878
 524,89; 3104,868;  228,672; 6275,014;47,56919
 525,47; 3150,746;  241,826; 6379,471;47,39473
 526,05; 3128,402;  217,210; 6445,512;46,74134
 526,64; 3212,672;  246,672; 6579,212;46,83744
 527,22; 3264,613;  241,133; 6699,623;46,81403
 527,80; 3342,921;  272,749; 6847,730;46,69477
 528,39; 3352,318;  234,364; 6929,961;46,56722
 528,97; 3411,316;  245,057; 7088,668;46,26592
 529,55; 3486,323;  251,749; 7287,682;45,97222
 530,14; 3551,685;  262,288; 7408,121;46,03239
 530,72; 3598,361;  245,518; 7543,700;45,94080
 531,30; 3629,208;  228,134; 7703,083;45,49963
 531,89; 3681,723;  237,903; 7794,836;45,57167
 532,47; 3761,057;  267,442; 7893,471;45,81172
 533,05; 3762,030;  268,595; 7934,621;45,57035
 533,63; 3742,285;  278,595; 7979,036;44,98041
 534,22; 3756,704;  250,365; 7972,022;45,40915
 534,80; 3785,131;  262,442; 8099,771;44,94757
 535,38; 3885,687;  341,672; 8203,953;45,07616
 535,97; 3766,740;  266,903; 8173,981;44,26208
 536,55; 3782,664;  305,211; 8254,394;43,74604
 537,13; 3758,764;  323,441; 8215,447;43,52915
 537,71; 3750,011;  373,903; 8254,101;42,84294
 538,30; 3776,664;  386,826; 8350,242;42,56763
 538,88; 3829,399;  432,134; 8478,329;42,22201
 539,46; 3927,174;  498,826; 8667,939;41,96719
 540,05; 3975,473;  527,519; 8820,864;41,57495
 540,63; 4049,321;  572,519; 8990,574;41,30173
 541,21; 4096,138;  614,673; 9193,347;40,58279
 541,79; 4100,962;  671,058; 9311,562;39,69565
 542,38; 4186,027;  689,519; 9445,133;39,93448
 542,96; 4257,568;  693,058; 9619,609;39,93155
 543,54; 4315,397;  719,596; 9836,509;39,44099
 544,12; 4335,563;  681,058; 9928,388;39,51957
 544,70; 4326,780;  661,365;10039,321;39,08544
 545,29; 4393,238;  673,673;10246,750;38,85443
 545,87; 4410,346;  633,596;10184,716;39,54249
 546,45; 4345,234;  591,365;10217,022;38,99857
 547,03; 4351,673;  572,981;10300,497;38,84540
 547,62; 4386,296;  518,211;10439,230;38,98879
 548,20; 4473,365;  521,442;10550,924;39,40306
 548,78; 4439,813;  485,058;10661,424;38,86216
 549,36; 4431,267;  440,827;10878,890;38,22969
 549,94; 4482,956;  396,904;10967,230;38,65588
 550,53; 4555,505;  394,597;11243,548;38,35310
 551,11; 4567,204;  366,597;11426,754;37,97963
 551,69; 4681,099;  372,443;11750,056;37,86960
 552,27; 4758,178;  335,750;11965,538;38,02673
 552,85; 4872,082;  339,828;12399,722;37,58121
 553,44; 4927,427;  327,827;12632,746;37,38017
 554,02; 5076,574;  348,520;12991,011;37,39812
 554,60; 5115,253;  283,751;13303,900;37,10789
 555,18; 5277,552;  337,674;13660,566;37,07812
 555,76; 5375,277;  296,751;14025,058;36,99310
 556,34; 5448,923;  319,982;14440,574;36,32242
 556,93; 5583,126;  292,827;14817,570;36,42267
 557,51; 5682,683;  272,828;15124,930;36,42484
 558,09; 5802,861;  311,674;15550,738;36,03363
 558,67; 5880,600;  301,982;15980,181;35,58201
 559,25; 5958,166;  313,905;16151,376;35,63865
 559,83; 6034,555;  293,366;16481,564;35,46527
 560,41; 6170,901;  286,058;16862,821;35,50055
 561,00; 6241,699;  297,982;17133,505;35,30462
 561,58; 6240,327;  280,597;17395,894;34,82107
 562,16; 6306,391;  271,904;17779,125;34,46856
 562,74; 6433,838;  263,827;18061,689;34,66715
 563,32; 6489,279;  258,366;18555,839;34,05341
 563,90; 6641,149;  285,982;18895,612;34,14989
 564,48; 6732,802;  285,751;19333,837;33,84619
 565,06; 6889,177;  280,289;19947,851;33,60298
 565,65; 7070,156;  292,059;20622,618;33,33945
 566,23; 7315,348;  322,520;21339,029;33,27302
 566,81; 7499,660;  278,059;22097,728;33,09675
 567,39; 7729,312;  294,136;22907,408;32,87970
 567,97; 7931,480;  308,982;23588,507;32,74336
 568,55; 8212,881;  321,982;24428,159;32,73393
 569,13; 8376,108;  289,366;25136,232;32,54633
 569,71; 8579,116;  276,135;26086,631;32,16901
 570,29; 8913,377;  326,443;27122,260;32,04580
 570,87; 9074,811;  312,058;27695,989;31,99962
 571,45; 9211,432;  314,443;28347,347;31,73766
 572,03; 9303,343;  282,828;28732,112;31,70735
 572,61; 9419,517;  274,520;29528,849;31,26032
 573,20; 9628,235;  299,828;30153,456;31,24715
 573,78; 9782,290;  293,828;30820,809;31,08222
 574,36; 9867,719;  312,213;31253,624;30,88258
 574,94; 9947,990;  364,213;31533,971;30,74704
 575,52; 9907,341;  308,213;31827,474;30,45480
 576,10;10076,605;  363,367;32450,122;30,27180
 576,68;10135,925;  358,290;33028,049;29,92870
 577,26;10276,276;  367,521;33736,551;29,69447
 577,84;10366,712;  385,059;34142,922;29,56838
 578,42;10426,774;  422,905;34469,867;29,38256
 579,00;10302,763;  361,905;34548,932;29,07787
 579,58;10431,431;  415,982;34727,896;29,18942
 580,16;10277,156;  384,905;34758,278;28,77882
 580,74;10278,006;  384,213;34964,545;28,61104
 581,32;10204,525;  389,059;35108,920;28,27047
 581,90;10098,791;  427,444;35079,815;27,90963
 582,48;10103,244;  405,982;35241,094;27,83761
 583,06;10061,279;  412,982;35258,837;27,68851
 583,64;10020,506;  409,520;35402,877;27,46517
 584,22; 9909,736;  424,675;35244,258;27,24060
 584,80; 9789,688;  423,982;34992,377;27,09326
 585,38; 9642,129;  435,443;34555,309;26,98336
 585,96; 9570,222;  392,059;34740,574;26,72070
 586,54; 9526,683;  421,829;34710,153;26,55380
 587,12; 9440,257;  387,290;34850,896;26,26819
 587,70; 9402,380;  416,751;35114,610;25,89678
 588,28; 9415,519;  390,290;35095,402;26,00547
 588,86; 9329,552;  391,059;35225,047;25,66026
 589,44; 9271,686;  386,290;35307,462;25,44415
 590,02; 9276,594;  375,059;35498,642;25,34347
 590,59; 9211,934;  368,367;35700,997;25,02946
 591,17; 9203,589;  359,291;35892,185;24,89045
 591,75; 9199,126;  353,983;35999,092;24,81446
 592,33; 9206,450;  364,675;36339,778;24,57748
 592,91; 9190,290;  315,906;36533,304;24,50310
 593,49; 9196,690;  327,598;36828,725;24,29813
 594,07; 9192,942;  342,521;37042,569;24,11555
 594,65; 9149,029;  354,598;37044,483;23,96963
 595,23; 9182,900;  339,367;37404,855;23,85921
 595,81; 9142,343;  345,060;37547,997;23,64674
 596,39; 9113,478;  324,598;37683,478;23,52554
 596,97; 9087,113;  328,598;37855,211;23,33948
 597,55; 9046,086;  325,213;37711,778;23,32622
 598,12; 8935,748;  314,291;37800,790;22,99883
 598,70; 8864,278;  310,214;38006,764;22,69190
 599,28; 8854,619;  331,137;38069,134;22,58594
 599,86; 8779,318;  315,598;38174,991;22,35567
 600,44; 8739,345;  282,906;38262,318;22,26585
 601,02; 8707,301;  340,368;38274,454;22,05650
 601,60; 8601,182;  310,598;38211,478;21,87438
 602,18; 8534,767;  296,983;38197,924;21,73504
 602,75; 8480,338;  294,983;38376,806;21,49413
 603,33; 8402,565;  306,598;38291,535;21,31362
 603,91; 8343,299;  300,445;38330,559;21,14864
 604,49; 8317,436;  326,521;38431,723;20,97066
 605,07; 8276,927;  334,060;38389,059;20,87207
 605,65; 8212,351;  364,983;38516,296;20,56906
 606,23; 8189,070;  413,675;38688,742;20,31452
 606,80; 8167,393;  480,983;38775,483;20,07184
 607,38; 8111,894;  527,522;38761,132;19,83692
 607,96; 8095,105;  578,444;38960,250;19,58392
 608,54; 8041,636;  643,829;38955,049;19,30977
 609,12; 7985,196;  664,521;39056,084;19,06845
 609,70; 7951,920;  711,598;39105,464;18,85802
 610,27; 7913,671;  707,752;39194,796;18,72297
 610,85; 7924,961;  728,060;39233,460;18,69063
 611,43; 7836,420;  725,060;39176,948;18,49418
 612,01; 7691,086;  691,367;38928,974;18,30585
 612,59; 7681,063;  683,675;38959,187;18,28163
 613,16; 7559,374;  643,213;38847,966;18,10288
 613,74; 7449,676;  613,137;38764,905;17,91932
 614,32; 7425,726;  549,214;38724,268;18,01310
 614,90; 7356,299;  499,829;38549,519;18,01978
 615,48; 7181,175;  453,290;38134,209;17,85488
 616,05; 7138,126;  407,290;38243,788;17,78927
 616,63; 7050,539;  421,982;37956,906;17,65970
 617,21; 6994,276;  411,290;37898,211;17,56075
 617,79; 6922,139;  385,213;37770,203;17,48543
 618,36; 6855,597;  404,137;37711,889;17,29255
 618,94; 6704,674;  337,213;37384,847;17,18723
 619,52; 6620,161;  370,367;37017,883;17,05380
 620,10; 6540,175;  356,290;37089,547;16,83457
 620,67; 6499,803;  358,982;36973,199;16,77169
 621,25; 6446,786;  374,137;36797,816;16,67226
 621,83; 6358,070;  358,444;36743,509;16,48925
 622,41; 6396,650;  398,136;36802,043;16,47766
 622,98; 6271,713;  365,675;36487,673;16,35025
 623,56; 6226,376;  363,444;36488,987;16,22933
 624,14; 6136,978;  337,675;36356,652;16,10069
 624,72; 6089,717;  335,675;36237,323;16,02724
 625,29; 6024,718;  327,521;36403,126;15,79238
 625,87; 6011,161;  367,752;36321,989;15,69609
 626,45; 5932,499;  319,674;36112,744;15,68132
 627,02; 5891,769;  316,983;36082,363;15,58710
 627,60; 5804,134;  314,829;36020,701;15,37368
 628,18; 5771,427;  303,752;36171,391;15,24403
 628,76; 5706,948;  305,675;36192,786;15,05073
 629,33; 5703,639;  340,059;36113,721;14,99310
 629,91; 5655,945;  325,598;36022,547;14,93222
 630,49; 5636,762;  328,444;36232,402;14,78477
 631,06; 5605,964;  326,675;36390,638;14,63868
 631,64; 5562,273;  319,059;36324,626;14,56223
 632,22; 5465,152;  274,597;36382,197;14,37524
 632,79; 5497,263;  322,059;36485,337;14,31066
 633,37; 5451,692;  297,675;36621,177;14,18921
 633,95; 5446,189;  288,136;36675,495;14,17540
 634,52; 5390,507;  276,675;36730,705;14,02817
 635,10; 5395,203;  289,367;36741,786;14,00685
 635,68; 5379,471;  286,828;36947,244;13,89139
 636,25; 5312,186;  276,905;36915,262;13,74320
 636,83; 5313,333;  262,213;37121,017;13,70397
 637,41; 5300,440;  274,674;37206,001;13,60841
 637,98; 5315,997;  306,444;37369,365;13,51635
 638,56; 5271,933;  293,213;37423,894;13,40864
 639,13; 5246,688;  268,982;37536,408;13,35672
 639,71; 5294,251;  313,367;37616,102;13,35260
 640,29; 5153,259;  249,290;37483,827;13,17048
 640,86; 5138,786;  263,829;37608,175;13,05407
 641,44; 5074,852;  257,059;37643,369;12,88652
 642,02; 5151,071;  290,675;37552,947;13,04375
 642,59; 5066,675;  267,752;37784,833;12,79130
 643,17; 5060,433;  268,213;37738,797;12,78929
 643,74; 5020,345;  268,521;37719,375;12,68816
 644,32; 5012,026;  289,675;37727,185;12,61396
 644,89; 4954,400;  287,444;37749,917;12,45768
 645,47; 4968,773;  293,136;37742,649;12,48517
 646,05; 4912,993;  283,444;37635,997;12,39420
 646,62; 4862,058;  279,444;37705,499;12,24445
 647,20; 4848,355;  280,829;37790,001;12,17709
 647,77; 4767,344;  255,598;37644,271;12,06715
 648,35; 4728,717;  250,906;37527,465;12,01241
 648,92; 4738,244;  279,367;37684,429;11,92052
 649,50; 4681,310;  250,906;37519,623;11,88773
 650,08; 4615,145;  245,444;37436,201;11,74943
 650,65; 4586,057;  250,059;37720,164;11,57188
 651,23; 4622,815;  235,367;38578,204;11,44268
 651,80; 4742,342;  252,213;39453,014;11,45418
 652,38; 4776,561;  268,521;39722,439;11,42609
 652,95; 4798,704;  226,752;40098,709;11,46659
 653,53; 4793,462;  258,290;40364,211;11,30799
 654,10; 4813,989;  281,444;40538,482;11,25901
 654,68; 4745,978;  244,675;40444,676;11,19727
 655,25; 4731,813;  239,213;40461,716;11,16937
 655,83; 4738,494;  228,136;40508,141;11,19751
 656,40; 4724,560;  271,598;40445,104;11,08432
 656,98; 4669,010;  254,136;40318,683;11,01940
 657,55; 4609,691;  246,829;40238,184;10,90951
 658,13; 4570,988;  248,060;39854,147;10,91481
 658,70; 4501,899;  253,521;39571,803;10,80510
 659,28; 4411,273;  246,060;38705,305;10,83020
 659,85; 4289,415;  262,675;37995,652;10,67167
 660,43; 4290,097;  272,213;38124,539;10,61463
 661,00; 4236,778;  257,675;38183,887;10,49170
 661,58; 4237,305;  241,060;38596,927;10,41886
 662,15; 4204,371;  242,598;38731,659;10,29324
 662,73; 4328,590;  301,983;39005,930;10,40361
 663,30; 4267,733;  253,367;39203,816;10,30634
 663,88; 4259,491;  256,060;39421,702;10,22179
 664,45; 4244,479;  244,367;39620,666;10,15868
 665,03; 4292,930;  254,521;39985,937;10,16427
 665,60; 4381,303;  316,214;40520,746;10,11102
 666,17; 4296,907;  254,598;40428,017;10,06215
 666,75; 4281,588;  242,214;40843,288; 9,94894
 667,32; 4369,039;  267,829;41217,482;10,01525
 667,90; 4348,027;  245,598;41383,445; 9,97240
 668,47; 4357,478;  271,367;41710,177; 9,86059
 669,05; 4362,236;  246,675;41959,987; 9,86630
 669,62; 4322,609;  232,675;42068,334; 9,77619
 670,19; 4320,983;  233,983;42169,990; 9,74580
 670,77; 4344,125;  254,214;42304,492; 9,72624
 671,34; 4326,960;  242,829;42208,070; 9,73218
 671,92; 4319,103;  232,214;42635,572; 9,63813
 672,49; 4361,399;  258,368;42667,920; 9,67478
 673,06; 4256,926;  202,444;42635,114; 9,55510
 673,64; 4252,915;  231,368;42700,461; 9,46935
 674,21; 4287,365;  228,137;42609,886; 9,57778
 674,79; 4313,354;  249,060;42890,311; 9,53137
 675,36; 4309,728;  255,906;42975,966; 9,48927
 675,93; 4243,024;  214,368;42917,237; 9,43416
 676,51; 4289,474;  257,060;43025,124; 9,42856
 677,08; 4294,002;  251,983;43040,702; 9,44646
 677,65; 4266,914;  256,752;43272,204; 9,32261
 678,23; 4271,902;  252,675;43462,936; 9,30156
 678,80; 4295,353;  246,137;43560,438; 9,34845
 679,38; 4261,957;  238,214;43675,940; 9,26324
 679,95; 4314,484;  255,983;43972,518; 9,28367
 680,52; 4297,319;  243,522;44151,789; 9,23242
 681,10; 4364,462;  266,445;44679,675; 9,22702
 681,67; 4335,527;  258,752;44925,254; 9,12714
 682,24; 4329,593;  222,214;44956,371; 9,18175
 682,82; 4395,351;  236,829;45528,796; 9,18159
 683,39; 4443,647;  280,214;45801,605; 9,14610
 683,96; 4433,405;  252,060;46075,414; 9,12492
 684,54; 4472,010;  225,060;46441,070; 9,18935
 685,11; 4503,229;  270,675;46745,956; 9,10711
 685,68; 4498,449;  238,906;47180,458; 9,07414
 686,25; 4477,130;  222,445;47207,498; 9,05540
 686,83; 4516,272;  225,829;47329,000; 9,10861
 687,40; 4547,415;  224,522;47665,886; 9,11208
 687,97; 4616,019;  266,599;48162,003; 9,08108
 688,55; 4553,700;  221,214;48141,505; 9,04103
 689,12; 4584,689;  205,291;48464,929; 9,07466
 689,69; 4558,447;  221,676;48479,431; 8,98668
 690,26; 4591,974;  241,676;48570,240; 9,00151
 690,84; 4646,732;  231,368;48818,896; 9,08744
 691,41; 4648,644;  239,599;48830,320; 9,07384
 691,98; 4656,248;  240,752;49118,591; 9,03374
 692,56; 4646,006;  229,214;49195,785; 9,02002
 693,13; 4716,533;  281,137;49234,749; 9,06041
 693,70; 4679,753;  247,522;49411,558; 9,01519
 694,27; 4661,588;  224,676;49584,367; 8,98894
 694,84; 4669,807;  226,599;49660,792; 8,98813
 695,42; 4776,027;  276,291;49738,524; 9,09732
 695,99; 4747,170;  240,599;50041,565; 9,04916
 696,56; 4702,158;  230,983;49822,989; 9,01592
 697,13; 4750,301;  251,522;50241,106; 8,99943
 697,71; 4763,751;  224,214;50276,993; 9,06950
 698,28; 4774,663;  233,368;50717,956; 8,99541
 698,85; 4772,190;  210,676;50624,227; 9,04819
 699,42; 4803,256;  210,137;50795,728; 9,07990
 699,99; 4866,476;  266,753;50976,999; 9,07060
 700,57; 4852,157;  247,906;50926,347; 9,08522
 701,14; 4818,607;  226,060;51028,464; 9,04002
 701,71; 4848,519;  245,445;51214,043; 9,03120
 702,28; 4876,969;  243,445;51274,390; 9,07983
 702,85; 4919,189;  254,676;51489,815; 9,10413
 703,43; 4918,254;  256,291;51675,163; 9,06664
 704,00; 4972,320;  276,907;51821,280; 9,10946
 704,57; 4939,540;  255,599;51809,012; 9,08561
 705,14; 4981,221;  290,830;52136,437; 9,04684
 705,71; 5010,209;  281,599;52095,785; 9,12609
 706,28; 4988,352;  260,676;52033,056; 9,13166
 706,86; 5050,033;  285,368;52219,096; 9,17451
 707,43; 5057,483;  317,060;52161,136; 9,14362
 708,00; 5054,549;  284,368;52207,869; 9,18694
 708,57; 5003,769;  261,984;52063,293; 9,15379
 709,14; 5060,142;  291,830;52260,256; 9,17540
 709,71; 5061,362;  259,137;52303,527; 9,22717
 710,28; 5093,120;  265,676;52506,952; 9,24067
 710,86; 5110,647;  276,137;52649,685; 9,23082
 711,43; 5135,636;  282,445;52711,955; 9,25660
 712,00; 5129,932;  261,984;52665,534; 9,28935
 712,57; 5189,536;  282,214;52900,113; 9,32634
 713,14; 5196,679;  260,061;52861,153; 9,38501
 713,71; 5183,360;  263,522;52892,808; 9,34810
 714,28; 5201,195;  250,599;52935,079; 9,39669
 714,85; 5216,645;  243,907;52642,965; 9,49013
 715,42; 5204,788;  241,753;52961,775; 9,41395
 716,00; 5328,623;  301,061;53003,353; 9,53955
 716,57; 5277,688;  241,061;53124,316; 9,52405
 717,14; 5251,677;  236,368;53061,972; 9,49409
 717,71; 5275,897;  220,138;53154,935; 9,55092
 718,28; 5353,962;  271,522;53179,821; 9,60613
 718,85; 5304,490;  234,830;53209,631; 9,56995
 719,42; 5369,940;  237,522;53375,440; 9,65867
 719,99; 5328,775;  220,907;53217,326; 9,63814
 720,56; 5405,302;  245,753;53485,367; 9,69118
 721,13; 5389,060;  226,830;53548,253; 9,68134
 721,70; 5393,434;  214,522;53383,601; 9,74046
 722,27; 5446,115;  254,984;53449,179; 9,75883
 722,84; 5529,642;  290,368;53625,296; 9,82334
 723,41; 5480,861;  219,292;53601,952; 9,85633
 723,98; 5485,158;  237,984;53809,223; 9,79476
 724,55; 5564,685;  271,753;53838,109; 9,88108
 725,12; 5536,366;  194,138;53899,611; 9,94727
 725,69; 5605,970;  222,599;53996,343;10,01115
 726,27; 5616,267;  238,676;54020,691; 9,99886
 726,84; 5678,102;  237,215;54352,962;10,05417
 727,41; 5721,398;  247,599;54325,310;10,12210
 727,98; 5759,387;  253,522;54627,042;10,12600
 728,55; 5793,299;  270,369;54566,774;10,17182
 729,12; 5753,903;  219,830;54591,199;10,17828
 729,69; 5827,199;  273,292;54819,855;10,18196
 730,26; 5825,034;  249,599;54991,972;10,18486
 730,82; 5853,639;  246,676;54801,858;10,27760
 731,39; 5883,473;  243,445;54894,283;10,32011
 731,96; 5945,078;  232,984;55116,169;10,40773
 732,53; 6003,297;  244,215;55468,824;10,42847
 733,10; 6024,132;  258,984;55492,711;10,43773
 733,67; 6086,505;  244,599;55699,751;10,53447
 734,24; 6047,648;  243,676;55432,099;10,51665
 734,81; 6079,560;  270,369;55555,754;10,50764
 735,38; 6122,318;  249,599;55315,256;10,66494
 735,95; 6102,614;  240,676;55056,219;10,69393
 736,52; 6131,219;  263,676;55354,336;10,65070
 737,09; 6113,438;  261,599;54997,838;10,69098
 737,66; 6188,888;  299,369;55233,109;10,72113
 738,23; 6217,954;  250,215;55200,072;10,86034
 738,80; 6333,404;  305,599;55528,573;10,91539
 739,37; 6318,393;  286,523;55690,383;10,88709
 739,94; 6328,613;  251,830;55706,423;10,95812
 740,51; 6469,294;  352,753;55704,078;11,05040
 741,07; 6361,436;  256,292;55709,349;11,00957
 741,64; 6456,041;  285,215;55927,697;11,09013
 742,21; 6483,722;  260,753;55903,353;11,18382
 742,78; 6448,326;  224,523;55704,931;11,21802
 743,35; 6539,468;  256,446;56020,510;11,26715
 743,92; 6589,765;  292,984;56187,781;11,26541
 744,49; 6664,677;  282,984;56069,821;11,43942
 745,06; 6636,819;  246,984;56056,707;11,44932
 745,63; 6626,654;  240,984;56037,055;11,44466
 746,19; 6656,105;  236,753;56016,326;11,50843
 746,76; 6682,170;  263,677;56017,520;11,51220
 747,33; 6743,005;  245,907;56044,021;11,64394
 747,90; 6792,379;  276,446;56258,908;11,63924
 748,47; 6815,137;  260,292;56098,563;11,73898
 749,04; 6876,048;  267,369;56140,065;11,82810
 749,61; 6943,114;  277,446;56087,874;11,94341
 750,17; 6925,411;  273,677;56126,453;11,90941
 750,74; 7009,322;  266,754;56050,339;12,08701
 751,31; 6950,157;  242,677;56038,379;12,02150
 751,88; 6928,992;  237,215;55875,804;12,02722
 752,45; 7014,981;  254,292;55955,306;12,13746
 753,02; 7026,585;  267,523;55796,423;12,17215
 753,58; 7068,728;  245,523;55712,924;12,30129
 754,15; 7076,255;  249,600;55850,580;12,27794
 754,72; 7080,244;  253,907;55587,620;12,33667
 755,29; 7129,848;  225,215;55477,429;12,49657
 755,86; 7150,298;  243,600;55599,392;12,47692
 756,42; 7215,133;  254,446;55484,202;12,60315
 756,99; 7186,122;  215,600;55437,396;12,62277
 757,56; 7252,111;  226,908;55457,897;12,71968
 758,13; 7222,792;  191,446;55448,784;12,72473
 758,70; 7288,473;  208,754;55384,285;12,83127
 759,26; 7316,462;  206,600;55497,633;12,85898
 759,83; 7378,604;  215,138;55651,904;12,92187
 760,40; 7371,516;  207,292;55360,559;12,98966
 760,97; 7423,351;  192,677;55437,446;13,08843
 761,53; 7406,878;  189,677;54953,794;13,17871
 762,10; 7471,867;  179,523;55044,218;13,29151
 762,67; 7532,240;  222,215;55154,181;13,30742
 763,24; 7446,075;  166,523;54675,760;13,35471
 763,80; 7553,603;  201,754;54842,877;13,45479
 764,37; 7548,207;  204,061;54755,379;13,46282
 764,94; 7491,426;  199,600;54295,573;13,47943
 765,50; 7559,184;  197,369;54383,382;13,58619
 766,07; 7605,327;  246,215;54367,653;13,59741
 766,64; 7584,777;  210,138;54001,770;13,70964
 767,21; 7615,843;  223,831;53891,656;13,77364
 767,77; 7680,139;  239,754;53840,927;13,88101
 768,34; 7713,744;  242,215;53776,737;13,95647
 768,91; 7703,732;  242,292;53575,084;13,99034
 769,47; 7736,413;  247,215;53579,817;14,04244
 770,04; 7791,864;  232,600;53440,011;14,20716
 770,61; 7740,699;  225,215;53255,435;14,17208
 771,18; 7758,687;  208,446;53085,091;14,27897
 771,74; 7821,369;  235,292;53323,285;14,28963
 772,31; 7768,127;  230,215;53058,940;14,26858
 772,88; 7801,577;  214,446;52707,750;14,45352
 773,44; 7803,950;  218,446;52618,482;14,47614
 774,01; 7904,324;  234,446;52727,599;14,61120
 774,58; 7889,389;  223,216;52399,947;14,69271
 775,14; 7866,147;  211,600;52576,064;14,61783
 775,71; 7930,828;  215,985;52494,797;14,75711
 776,27; 8062,663;  268,600;52398,067;14,95136
 776,84; 8103,729;  295,139;52499,492;14,95774
 777,41; 7990,410;  235,139;52180,071;14,92979
 777,97; 8029,322;  231,985;51969,342;15,07100
 778,54; 8086,003;  238,369;51924,766;15,18317
 779,11; 8149,069;  260,293;51930,191;15,26764
 779,67; 8097,827;  214,677;51953,308;15,23649
 780,24; 8154,354;  238,523;51668,887;15,39136
 780,80; 8185,958;  249,523;51699,773;15,42545
 781,37; 8197,408;  243,293;51610,659;15,48476
 781,94; 8204,936;  234,908;51420,238;15,57092
 782,50; 8225,924;  240,293;51404,739;15,60778
 783,07; 8299,759;  254,677;51467,472;15,70913
 783,63; 8264,210;  221,908;51216,358;15,77094
 784,20; 8309,968;  253,523;51172,475;15,82209
 784,77; 8314,110;  231,062;50910,054;15,94951
 785,33; 8302,868;  212,985;50735,940;16,01229
 785,90; 8378,319;  234,600;50656,749;16,15107
 786,46; 8406,154;  250,446;50620,020;16,19173
 787,03; 8407,835;  221,446;50350,599;16,33059
 787,59; 8444,131;  236,600;50371,947;16,37075
 788,16; 8445,889;  240,985;50292,141;16,39304
 788,73; 8425,339;  244,062;50144,565;16,39518
 789,29; 8450,944;  228,677;49801,529;16,58623
 789,86; 8498,702;  253,677;49716,876;16,66901
 790,42; 8473,536;  235,908;49448,378;16,73890
 790,99; 8447,987;  250,831;49178,649;16,75357
 791,55; 8487,976;  224,447;49200,535;16,87258
 792,12; 8604,195;  259,216;49231,883;17,04008
 792,68; 8551,645;  242,216;48849,846;17,09491
 793,25; 8591,634;  241,293;48615,886;17,26183
 793,81; 8632,238;  295,600;48344,542;17,35030
 794,38; 8502,689;  207,370;48147,736;17,30341
 794,94; 8545,524;  218,985;47935,007;17,45019
 795,51; 8610,897;  247,447;47653,431;17,64218
 796,07; 8550,655;  240,139;47466,087;17,59735
 796,64; 8688,874;  244,216;47469,204;17,88176
 797,20; 8605,402;  241,677;47105,552;17,84685
 797,77; 8532,237;  215,908;46680,823;17,89808
 798,33; 8653,225;  226,370;46547,632;18,19220
 798,90; 8631,445;  256,524;46521,903;18,10192
 799,46; 8611,049;  225,601;45897,789;18,36008
 800,03; 8588,730;  238,831;45879,368;18,29492
 800,59; 8620,719;  250,601;45703,177;18,41506
 801,15; 8644,400;  252,985;45521,910;18,53681
 801,72; 8575,158;  240,293;45155,334;18,55696
 802,28; 8596,762;  265,370;44877,221;18,67529
 802,85; 8589,751;  236,524;44621,338;18,82001
 803,41; 8557,432;  237,447;44556,762;18,77282
 803,98; 8549,267;  235,293;44047,418;18,97642
 804,54; 8543,640;  233,524;43920,766;19,02184
 805,11; 8549,783;  241,139;43638,113;19,14568
 805,67; 8564,310;  261,216;43593,461;19,16147
 806,23; 8459,837;  241,216;43168,732;19,14535
 806,80; 8485,826;  247,985;43040,695;19,25057
 807,36; 8525,661;  257,447;43046,812;19,32306
 807,93; 8567,881;  278,985;42722,237;19,52936
 808,49; 8465,716;  222,216;42402,585;19,54345
 809,05; 8498,089;  207,601;42154,087;19,76444
 809,62; 8521,770;  251,524;42141,511;19,74278
 810,18; 8539,220;  246,755;42042,551;19,84043
 810,74; 8479,286;  216,985;41760,822;19,88815
 811,31; 8499,506;  210,601;41524,709;20,06313
 811,87; 8515,264;  234,524;41277,903;20,17558
 812,44; 8584,791;  254,524;41479,250;20,20697
 813,00; 8455,241;  192,293;41034,598;20,23135
 813,56; 8599,691;  243,139;41162,484;20,42201
 814,13; 8613,911;  233,985;41008,448;20,55190
 814,69; 8625,284;  236,062;40900,949;20,63014
 815,25; 8512,658;  207,139;40381,066;20,67390
 815,82; 8580,724;  240,755;40351,491;20,79236
 816,38; 8602,558;  268,601;40127,762;20,90851
 816,94; 8543,547;  215,062;39958,802;20,95546
 817,51; 8547,151;  212,524;39646,535;21,13563
 818,07; 8488,371;  218,909;39392,882;21,10958
 818,63; 8550,975;  231,755;39210,307;21,34307
 819,20; 8583,964;  227,524;39112,270;21,49028
 819,76; 8490,260;  214,909;38788,849;21,45322
 820,32; 8550,403;  256,139;38646,966;21,60481
 820,89; 8508,161;  247,370;38460,391;21,61774
 821,45; 8529,688;  214,986;38189,431;21,89552
 822,01; 8530,292;  233,216;37871,086;22,04449
 822,57; 8496,896;  241,063;37855,280;21,94871
 823,14; 8433,731;  211,293;37486,167;22,05893
 823,70; 8466,797;  219,293;37306,745;22,23799
 824,26; 8439,786;  214,139;37121,939;22,28701
 824,82; 8517,928;  236,524;37027,441;22,50937
 825,39; 8450,840;  214,370;36749,481;22,54399
 825,95; 8478,675;  244,063;36730,752;22,56881
 826,51; 8436,664;  232,755;36361,330;22,70754
 827,08; 8485,499;  261,986;36483,217;22,70357
 827,64; 8511,718;  243,140;36268,334;22,95221
 828,20; 8449,323;  212,370;35898,143;23,08189
 828,76; 8504,927;  253,986;35886,029;23,15596
 829,32; 8510,454;  257,370;35756,454;23,24872
 829,89; 8428,981;  214,293;35706,186;23,14525
 830,45; 8499,970;  239,140;35627,303;23,34348
 831,01; 8529,036;  225,370;35479,190;23,55395
 831,57; 8518,948;  229,986;35345,230;23,60502
 832,14; 8526,090;  211,140;35348,655;23,66403
 832,70; 8491,233;  210,447;35060,695;23,76105
 833,26; 8535,760;  206,678;34902,889;24,00574
 833,82; 8545,364;  235,063;34895,467;23,97635
 834,38; 8560,507;  209,909;34862,200;24,09826
 834,95; 8489,880;  208,063;34716,471;23,99942
 835,51; 8519,407;  186,217;34589,818;24,22186
 836,07; 8614,704;  221,370;34684,397;24,35460
 836,63; 8683,616;  247,909;34621,206;24,54145
 837,19; 8677,451;  234,524;34434,862;24,68668
 837,75; 8613,824;  190,217;34086,287;24,85128
 838,32; 8711,967;  249,371;34296,327;24,85566
 838,88; 8754,494;  242,447;34342,905;24,96168
 839,44; 8776,021;  229,217;34228,561;25,13815
 840,00; 8777,087;  220,217;34125,293;25,23773
 840,56; 8725,537;  212,294;33756,487;25,37919
 841,12; 8805,911;  207,601;33786,296;25,60644
 841,68; 8786,515;  198,140;33638,490;25,68267
 842,25; 8811,503;  209,371;33518,838;25,82489
 842,81; 8792,646;  211,678;33322,032;25,91627
 843,37; 8771,943;  207,601;33416,226;25,78951
 843,93; 8840,008;  215,140;33342,497;26,03549
 844,49; 8876,843;  230,678;33339,999;26,11399
 845,05; 8858,832;  189,140;33131,347;26,31789
 845,61; 8942,744;  237,524;33205,002;26,40548
 846,17; 8968,194;  208,294;33015,658;26,70102
 846,73; 8970,875;  217,217;33016,775;26,68834
 847,29; 8976,095;  200,525;32860,661;26,86936
 847,86; 8983,007;  207,217;32722,009;26,99015
 848,42; 8984,457;  196,140;32543,203;27,16883
 848,98; 9059,138;  216,678;32561,858;27,33780
 849,54; 9069,050;  199,755;32552,283;27,41453
 850,10; 9090,039;  224,755;32341,708;27,60313
 850,66; 9021,643;  201,063;32299,517;27,47977
 851,22; 9029,939;  193,832;32128,403;27,66941
 851,78; 9073,774;  247,832;32229,674;27,59673
 852,34; 9090,917;  222,755;31870,637;28,02134
 852,90; 9106,598;  213,602;31847,831;28,11194
 853,46; 9022,125;  204,294;31624,410;28,06429
 854,02; 9114,806;  213,678;31638,450;28,32519
 854,58; 9062,795;  204,678;31429,105;28,36919
 855,14; 9071,630;  201,986;31338,761;28,48607
 855,70; 9026,696;  176,755;31218,416;28,50988
 856,26; 9089,992;  235,371;31233,534;28,56499
 856,82; 8996,519;  203,371;30950,574;28,59821
 857,38; 9051,431;  242,217;30908,614;28,72595
 857,94; 9030,112;  209,986;30828,577;28,80644
 858,50; 9056,947;  226,294;30618,617;29,05554
 859,06; 9026,782;  202,448;30493,426;29,13189
 859,62; 9075,694;  218,602;30468,390;29,27985
 860,18; 9052,606;  212,986;30324,584;29,35620
 860,74; 9007,441;  181,909;30105,547;29,49351
 861,30; 8994,352;  194,217;29888,125;29,63616
 861,86; 9114,187;  241,679;30023,935;29,79126
 862,42; 8945,330;  212,679;29767,821;29,54698
 862,98; 9060,473;  233,679;29734,476;29,92053
 863,54; 8994,308;  222,756;29541,209;29,91819
 864,10; 9032,142;  220,525;29542,249;30,05150
 864,66; 9018,208;  201,140;29320,905;30,27864
 865,22; 9030,274;  212,602;29224,714;30,39307
 865,78; 9031,878;  228,217;29105,677;30,48627
 866,34; 9018,251;  205,140;29035,333;30,56903
 866,90; 9031,856;  218,679;28876,911;30,75269
 867,45; 8963,537;  216,525;28690,105;30,71975
 868,01; 8976,756;  223,756;28554,145;30,89615
 868,57; 8923,514;  204,910;28341,955;30,98621
 869,13; 8873,272;  194,525;28286,995;30,89350
 869,69; 8944,415;  204,294;28199,343;31,22024
 870,25; 8916,327;  197,602;28030,152;31,32564
 870,81; 8930,392;  210,525;27974,346;31,40730
 871,37; 8995,227;  215,679;27896,617;31,71695
 871,93; 8968,293;  229,910;27765,580;31,73478
 872,49; 8960,589;  239,987;27545,697;31,93692
 873,04; 8881,501;  197,833;27359,506;31,97030
 873,60; 8874,798;  200,602;27265,546;32,04956
 874,16; 8876,094;  224,910;27204,048;32,06620
 874,72; 8862,248;  203,910;27066,048;32,23250
 875,28; 8910,633;  218,910;27009,971;32,44262
 875,84; 8912,171;  216,833;26925,510;32,55623
 876,40; 8836,248;  209,756;26853,587;32,37707
 876,95; 8896,863;  219,833;26916,356;32,50248
 877,51; 8911,094;  234,833;26936,817;32,49295
 878,07; 8992,863;  242,833;26841,817;32,89611
 878,63; 9010,863;  211,910;26853,587;33,02703
 879,19; 9032,710;  230,448;26860,279;33,05414
 879,75; 9085,094;  209,910;26893,740;33,26053
 880,30; 9136,094;  209,756;26889,971;33,45677
 880,86; 9193,556;  243,833;27000,202;33,44894
 881,42; 9249,171;  192,525;27050,202;33,72088
 881,98; 9344,017;  226,756;27168,048;33,84122
 882,54; 9412,094;  211,525;27217,663;34,06844
 883,09; 9472,248;  227,756;27339,279;34,09802
 883,65; 9552,248;  197,602;27335,202;34,47116
 884,21; 9632,940;  238,987;27546,587;34,40051
 884,77; 9637,940;  211,217;27684,202;34,31270
 885,32; 9749,094;  213,756;27806,202;34,55779
 885,88; 9787,017;  241,679;27903,587;34,50716
 886,44; 9920,171;  225,140;27971,202;34,94201
 887,00; 9912,248;  228,140;27985,048;34,88900
 887,56;10037,094;  213,910;28107,048;35,21721
 888,11;10059,863;  212,602;28153,740;35,24288
 888,67;10162,094;  250,371;28319,202;35,31221
 889,23;10234,940;  220,987;28304,202;35,65815
 889,79;10193,325;  195,294;28167,279;35,74302
 890,34;10183,479;  221,448;28126,510;35,69973
 890,90;10339,017;  274,448;28239,510;35,98980
 891,46;10265,710;  206,756;28133,894;36,01856
 892,01;10287,402;  235,910;28142,202;36,01873
 892,57;10256,402;  242,525;28027,433;36,04071
 893,13;10204,325;  214,371;27874,510;36,11679
 893,69;10262,479;  206,679;27834,433;36,39746
 894,24;10270,017;  209,833;27745,433;36,53519
 894,80;10242,171;  209,756;27656,048;36,55290
 895,36;10228,863;  214,679;27516,279;36,67985
 895,91;10183,248;  217,833;27286,202;36,81572
 896,47;10212,171;  232,140;27175,510;37,04077
 897,03;10203,633;  213,679;26974,740;37,33019
 897,58;10142,171;  228,679;26837,587;37,25629
 898,14;10126,017;  227,679;26705,740;37,38317
 898,70;10089,710;  196,140;26521,433;37,58199
 899,25;10175,402;  210,294;26541,740;37,84489
 899,81;10140,017;  217,371;26378,202;37,92940
 900,37;10029,479;  187,525;26079,894;38,01102
 900,92;10114,556;  213,525;26093,048;38,25817
 901,48;10056,248;  209,602;26053,279;38,10079
 902,03;10071,863;  210,140;25818,740;38,50942
 902,59;10022,863;  213,602;25710,510;38,47236
 903,15;10087,556;  228,140;25576,202;38,89613
 903,70; 9990,325;  220,602;25382,587;38,82732
 904,26; 9998,633;  197,756;25265,356;39,09779
 904,82;10056,556;  209,371;25302,202;39,24302
 905,37;10072,402;  222,140;25079,510;39,62713
 905,93;10030,402;  211,448;24944,971;39,69897
 906,48;10029,094;  218,140;24824,279;39,87198
 907,04;10011,940;  226,833;24824,740;39,78024
 907,60;10043,710;  205,448;24573,356;40,37385
 908,15; 9999,171;  193,294;24495,202;40,35024
 908,71;10088,094;  234,140;24481,587;40,63914
 909,26;10035,017;  212,602;24315,048;40,75277
 909,82; 9986,556;  227,217;24178,433;40,74674
 910,37;10022,248;  248,217;24143,433;40,90371
 910,93; 9934,633;  211,140;23932,356;40,99070
 911,48; 9897,479;  195,987;23748,740;41,19048
 912,04; 9912,094;  204,371;23688,894;41,33668
 912,60; 9947,710;  218,063;23709,663;41,41755
 913,15; 9950,940;  212,217;23494,202;41,82944
 913,71; 9873,094;  200,602;23282,587;41,90494
 914,26; 9931,402;  192,525;23220,817;42,29092
 914,82; 9965,325;  218,602;23132,510;42,53628
 915,37; 9893,094;  197,217;23068,587;42,39308
 915,93; 9920,556;  254,371;23015,663;42,46764
 916,48; 9898,479;  202,217;22835,894;42,83998
 917,04; 9873,094;  227,910;22721,510;42,87968
 917,59; 9890,787;  232,525;22648,433;43,08664
 918,15; 9776,940;  183,910;22479,740;43,02612
 918,70; 9780,325;  201,294;22344,510;43,25944
 919,26; 9818,402;  216,756;22277,663;43,52335
 919,81; 9679,710;  195,448;22119,125;43,26036
 920,37; 9698,940;  191,063;21986,587;43,62307
 920,92; 9710,094;  227,987;22000,202;43,55141
 921,48; 9667,556;  192,294;21781,971;43,88793
 922,03; 9739,633;  203,063;21755,202;44,24883
 922,59; 9680,402;  198,910;21551,356;44,40471
 923,14; 9655,094;  200,294;21536,971;44,31243
 923,69; 9629,633;  228,987;21373,510;44,45901
 924,25; 9653,325;  231,294;21373,279;44,56550
 924,80; 9578,556;  210,833;21137,125;44,76533
 925,36; 9628,325;  205,371;21097,433;45,10304
 925,91; 9554,940;  207,987;20935,202;45,09508
 926,47; 9529,171;  187,910;20840,663;45,23010
 927,02; 9605,556;  253,063;20835,817;45,43849
 927,57; 9395,940;  199,602;20660,740;44,94539
 928,13; 9437,710;  186,371;20612,663;45,29133
 928,68; 9380,479;  202,448;20522,587;45,16717
 929,24; 9336,402;  168,448;20419,663;45,27113
 929,79; 9324,787;  192,987;20219,971;45,59748
 930,34; 9324,556;  203,910;20070,894;45,90856
 930,90; 9344,556;  199,140;20103,587;45,94660
 931,45; 9321,556;  208,448;20063,971;45,89709
 932,01; 9317,940;  207,294;19824,894;46,44119
 932,56; 9304,248;  221,987;19795,894;46,39984
 933,11; 9319,325;  226,833;19744,663;46,58557
 933,67; 9168,094;  195,833;19569,740;46,31106
 934,22; 9211,863;  203,294;19479,663;46,73374
 934,77; 9198,248;  232,217;19436,202;46,68839
 935,33; 9123,171;  214,525;19295,279;46,68917
 935,88; 9133,017;  217,063;19181,510;47,01405
 936,43; 9071,940;  193,371;19164,663;46,80002
 936,99; 8984,633;  211,063;19027,510;46,62713
 937,54; 8969,710;  184,140;18841,894;47,08803
 938,09; 8976,171;  208,602;18791,740;47,18024
 938,65; 8951,479;  209,294;18645,817;47,41775
 939,20; 8894,556;  183,294;18601,740;47,29640
 939,75; 8841,710;  189,525;18505,356;47,23883
 940,31; 8869,402;  185,448;18393,971;47,69170
 940,86; 8874,863;  209,756;18389,048;47,66471
 941,41; 8898,094;  261,063;18269,817;47,96018
 941,96; 8785,940;  201,910;18149,433;47,82850
 942,52; 8810,325;  202,294;18048,125;48,23553
 943,07; 8725,479;  182,910;17949,125;48,08322
 943,62; 8723,171;  199,525;17862,740;48,25648
 944,18; 8708,402;  198,987;17755,663;48,46826
 944,73; 8717,479;  209,371;17721,510;48,58406
 945,28; 8651,094;  172,910;17468,510;49,01931
 945,83; 8679,171;  192,910;17503,740;49,02284
 946,39; 8661,710;  190,910;17489,740;48,96747
 946,94; 8675,633;  218,063;17365,510;49,32262
 947,49; 8593,325;  202,756;17228,740;49,28096
 948,04; 8619,248;  222,756;17257,663;49,28992
 948,59; 8618,094;  224,448;17127,510;49,65755
 949,15; 8588,017;  181,987;17016,356;49,93374
 949,70; 8581,402;  203,602;16957,587;50,00482
 950,25; 8515,863;  216,063;16872,894;49,82821
 950,80; 8461,248;  170,140;16704,125;50,14585
 951,36; 8408,171;  166,602;16642,279;50,02264
 951,91; 8486,556;  215,756;16653,279;50,31658
 952,46; 8402,787;  188,217;16474,125;50,43974
 953,01; 8454,248;  211,756;16479,279;50,66839
 953,56; 8340,787;  182,217;16339,663;50,49418
 954,11; 8327,248;  208,217;16342,971;50,32014
 954,67; 8293,863;  186,602;16240,433;50,50048
 955,22; 8222,556;  165,140;16065,125;50,67562
 955,77; 8286,556;  227,371;16076,510;50,84935
 956,32; 8293,248;  233,525;15970,125;51,21642
 956,87; 8177,940;  188,217;15816,356;51,12396
 957,42; 8211,094;  199,448;15744,202;51,53923
 957,98; 8195,017;  195,525;15677,125;51,67097
 958,53; 8243,094;  216,679;15685,894;51,88638
 959,08; 8183,248;  190,756;15538,048;52,07754
 959,63; 8120,556;  185,140;15422,356;52,07917
 960,18; 8105,633;  204,063;15400,817;51,99511
 960,73; 8101,787;  202,756;15353,048;52,13781
 961,28; 8080,171;  188,371;15228,510;52,47159
 961,83; 8097,325;  205,525;15224,510;52,54550
 962,39; 7997,556;  184,602;15026,894;52,63981
 962,94; 8001,479;  217,756;14998,510;52,66120
 963,49; 7934,863;  202,756;14846,048;52,80307
 964,04; 7931,863;  212,063;14804,971;52,90104
 964,59; 7885,171;  170,140;14735,356;52,96888
 965,14; 7892,171;  214,140;14637,740;53,23242
 965,69; 7839,863;  204,525;14532,356;53,29026
 966,24; 7819,171;  189,910;14443,894;53,52371
 966,79; 7770,787;  215,217;14397,125;53,27611
 967,34; 7698,017;  169,448;14195,587;53,67528
 967,89; 7729,402;  195,679;14179,048;53,87631
 968,44; 7661,633;  205,294;14128,740;53,55239
 968,99; 7698,094;  210,679;14066,740;54,03711
 969,55; 7664,017;  202,910;13953,817;54,25902
 970,10; 7634,940;  205,756;13867,587;54,37913
 970,65; 7586,479;  216,217;13742,587;54,48810
 971,20; 7535,017;  194,140;13683,510;54,41972
 971,75; 7499,171;  175,833;13469,356;55,08952
 972,30; 7499,094;  200,525;13451,663;55,07881
 972,85; 7459,094;  191,756;13365,125;55,16689
 973,40; 7413,094;  191,756;13249,663;55,30242
 973,95; 7468,402;  202,140;13220,740;55,81446
 974,50; 7407,402;  223,448;13146,894;55,58853
 975,05; 7353,248;  201,756;13000,279;55,87748
 975,60; 7378,248;  215,140;12978,894;56,12070
 976,15; 7302,556;  191,833;12840,663;56,21645
 976,70; 7241,633;  203,063;12794,356;55,90029
 977,25; 7316,940;  212,833;12717,817;56,81021
 977,80; 7200,556;  194,679;12616,433;56,40006
 978,35; 7101,017;  218,448;12468,048;56,18607
 978,89; 7064,863;  186,679;12345,510;56,56946
 979,44; 7114,094;  197,756;12355,971;56,88613
 979,99; 6997,248;  186,910;12160,510;56,87795
 980,54; 7021,710;  227,987;12152,356;56,97344
 981,09; 6988,325;  219,140;12073,433;57,10324
 981,64; 6915,479;  206,833;11907,663;57,33478
 982,19; 6908,940;  235,910;11902,510;57,19773
 982,74; 6839,863;  214,987;11733,971;57,51268
 983,29; 6799,094;  191,756;11599,356;57,92050
 983,84; 6725,094;  209,525;11474,202;57,84071
 984,39; 6871,787;  262,833;11432,587;59,16830
 984,94; 6641,863;  178,294;11322,971;57,99692
 985,49; 6646,633;  231,679;11240,587;58,27058
 986,03; 6620,017;  225,217;11184,587;58,35007
 986,58; 6568,248;  245,448;11041,740;58,56455
 987,13; 6503,787;  207,910;10894,587;58,91333
 987,68; 6480,863;  222,140;10822,125;59,04464
 988,23; 6489,402;  221,063;10802,048;59,24154
 988,78; 6420,787;  193,063;10655,433;59,52498
 989,33; 6387,248;  216,833;10548,125;59,72549
 989,88; 6386,710;  224,756;10489,740;60,02887
 990,42; 6260,863;  210,679;10372,433;59,53878
 990,97; 6233,094;  210,833;10237,356;60,06331
 991,52; 6215,171;  229,140;10154,125;60,31275
 992,07; 6208,325;  237,910;10121,663;60,40635
 992,62; 6128,940;  222,448; 9972,356;60,57998
 993,17; 6052,479;  221,448; 9894,663;60,28017
 993,71; 6038,633;  222,756; 9765,433;60,94597
 994,26; 5970,556;  201,371; 9678,125;60,87722
 994,81; 5988,402;  221,140; 9602,510;61,47569
 995,36; 5896,940;  204,371; 9478,894;61,37857
 995,91; 5879,787;  217,679; 9431,356;61,45329
 996,45; 5820,325;  205,140; 9270,279;61,94262
 997,00; 5767,171;  189,987; 9123,740;62,42823
 997,55; 5774,094;  216,987; 9109,587;62,49137
 998,10; 5705,094;  242,756; 8988,433;62,45758
 998,65; 5716,171;  204,140; 8947,356;63,04352
 999,19; 5623,094;  221,371; 8811,663;62,88171
 999,74; 5565,863;  236,987; 8739,510;62,67407
1000,29; 5520,479;  226,294; 8655,202;62,80985
1000,84; 5489,556;  201,679; 8495,894;63,75379
1001,38; 5380,017;  213,217; 8413,971;63,00396
1001,93; 5357,710;  229,910; 8355,356;63,10792
1002,48; 5293,556;  204,448; 8209,125;63,57668
1003,03; 5297,479;  223,910; 8186,894;63,71442
1003,57; 5243,017;  227,833; 8108,663;63,63777
1004,12; 5200,017;  256,371; 7949,048;64,26432
1004,67; 5101,017;  210,602; 7886,356;63,71251
1005,22; 5055,402;  205,448; 7729,125;64,46255
1005,76; 4973,633;  197,833; 7624,356;64,30735
1006,31; 4945,248;  228,217; 7583,894;64,12776
1006,86; 4831,248;  215,140; 7489,663;63,45581
1007,40; 4801,633;  202,602; 7323,587;64,58420
1007,95; 4781,171;  223,910; 7254,587;64,81967
1008,50; 4720,940;  215,910; 7108,048;65,36477
1009,04; 4653,556;  211,987; 7077,894;64,69020
1009,59; 4619,017;  215,525; 6945,279;65,43319
1010,14; 4556,710;  191,063; 6864,587;65,41741
1010,68; 4514,479;  202,217; 6776,971;65,58818
1011,23; 4452,787;  211,987; 6622,356;66,15532
1011,78; 4422,248;  223,525; 6594,279;65,90622
1012,32; 4408,556;  225,910; 6476,740;66,91344
1012,87; 4366,094;  240,063; 6461,279;66,32194
1013,42; 4255,171;  198,602; 6310,740;66,36907
1013,96; 4315,787;  235,063; 6342,587;66,81470
1014,51; 4196,402;  176,679; 6239,510;66,30109
1015,06; 4221,402;  194,294; 6241,663;66,59272
1015,60; 4302,325;  250,756; 6316,817;66,79077
1016,15; 4235,787;  204,140; 6243,894;66,75183
1016,69; 4247,171;  205,371; 6311,587;66,19157
1017,24; 4239,402;  193,371; 6283,202;66,43913
1017,79; 4305,402;  236,756; 6368,663;66,35205
1018,33; 4293,248;  201,063; 6299,663;67,10039
1018,88; 4315,325;  222,679; 6390,048;66,35967
1019,42; 4321,017;  206,987; 6383,202;66,61087
1019,97; 4288,787;  202,525; 6343,279;66,54332
1020,51; 4381,017;  224,679; 6435,125;66,92496
1021,06; 4292,017;  196,679; 6409,048;65,92233
1021,61; 4303,787;  177,525; 6367,587;66,65946
1022,15; 4289,248;  168,140; 6285,279;67,36986
1022,70; 4300,094;  201,987; 6293,663;67,27388
1023,24; 4272,325;  194,217; 6266,125;67,16353
1023,79; 4294,863;  207,602; 6194,279;68,27263
1024,33; 4228,479;  189,140; 6167,740;67,56328
1024,88; 4189,556;  221,371; 6046,740;68,11902
1025,42; 4117,940;  211,140; 5985,356;67,65941
1025,97; 4089,940;  199,833; 5905,663;68,17776
1026,51; 4036,863;  176,063; 5792,817;68,73721
1027,06; 4031,248;  192,217; 5716,433;69,49459
1027,60; 3988,171;  216,217; 5660,356;69,28468
1028,15; 3953,171;  214,910; 5538,048;70,22664
1028,69; 3793,094;  173,602; 5427,894;68,88639
1029,24; 3788,248;  187,294; 5382,663;69,31084
1029,78; 3742,940;  189,910; 5295,048;69,59715
1030,33; 3683,402;  178,679; 5186,817;69,98055
1030,87; 3663,248;  195,679; 5110,356;70,55539
1031,42; 3603,710;  175,833; 5040,510;70,46464
1031,96; 3604,248;  207,525; 4971,587;71,29889
1032,51; 3520,094;  184,833; 4889,202;70,89710
1033,05; 3512,633;  204,679; 4859,971;71,05792
1033,60; 3421,710;  165,525; 4725,971;71,40057
1034,14; 3382,017;  191,679; 4665,971;71,30376
1034,69; 3340,171;  202,140; 4596,433;71,41152
1035,23; 3299,863;  195,987; 4562,356;71,08599
1035,77; 3268,787;  190,448; 4520,048;71,09984
1036,32; 3215,710;  169,525; 4409,433;71,84554
1036,86; 3208,710;  201,679; 4379,817;71,97059
1037,41; 3151,479;  205,756; 4278,279;72,33165
1037,95; 3058,171;  181,679; 4218,971;71,24806
1038,50; 3085,094;  187,217; 4162,510;72,89720
1039,04; 3057,094;  213,910; 4120,587;72,77757
1039,58; 2972,479;  186,140; 4047,740;72,15503
1040,13; 2935,633;  197,525; 3989,048;72,21656
1040,67; 2947,633;  229,448; 3970,817;72,65213
1041,21; 2948,171;  213,140; 3912,740;73,92774
1041,76; 2850,633;  179,679; 3816,356;73,44490
1042,30; 2820,402;  204,063; 3788,125;72,99926
1042,85; 2793,556;  200,448; 3725,971;73,55242
1043,39; 2738,094;  166,910; 3647,125;73,88004
1043,93; 2724,940;  211,217; 3640,894;73,29329
1044,48; 2680,787;  215,679; 3562,663;73,65160
1045,02; 2666,863;  197,525; 3481,279;75,19865
1045,56; 2661,710;  215,294; 3502,971;74,41167
1046,11; 2604,479;  206,756; 3442,894;74,09210
1046,65; 2546,094;  208,448; 3371,663;73,90095
1047,19; 2513,940;  188,063; 3327,279;74,09103
1047,74; 2462,248;  184,833; 3238,510;74,57945
1048,28; 2444,863;  201,910; 3227,279;74,13819
1048,82; 2453,863;  212,833; 3210,510;74,75892
1049,37; 2408,479;  214,602; 3148,048;74,78838
1049,91; 2380,556;  197,756; 3114,433;74,83859
1050,45; 2364,787;  219,140; 3066,971;75,34318
1050,99; 2322,017;  201,294; 3028,587;75,00898
1051,54; 2283,940;  197,756; 2964,587;75,39979
1052,08; 2270,940;  220,217; 2919,125;75,98345
1052,62; 2247,556;  211,756; 2906,356;75,55110
1053,16; 2181,171;  191,525; 2845,894;74,95740
1053,71; 2186,940;  203,756; 2818,202;75,85487
1054,25; 2146,402;  216,371; 2767,125;75,66511
1054,79; 2107,171;  212,910; 2723,048;75,46442
1055,33; 2041,248;  177,602; 2670,279;74,76485
1055,88; 2061,248;  215,371; 2668,587;75,24317
1056,42; 2029,171;  222,987; 2646,817;74,51777
1056,96; 2019,171;  217,140; 2583,048;76,16657
1057,50; 1992,094;  211,371; 2545,433;76,29289
1058,05; 1953,325;  200,987; 2502,356;76,14330
1058,59; 1976,094;  229,294; 2489,279;77,29256
1059,13; 1903,556;  186,525; 2424,894;76,70901
1059,67; 1903,094;  224,448; 2421,433;76,40682
1060,21; 1867,479;  213,063; 2344,817;77,60818
1060,76; 1846,325;  221,602; 2316,433;77,55868
1061,30; 1852,325;  226,910; 2312,279;77,94377
1061,84; 1815,171;  213,448; 2244,202;78,87332
1062,38; 1745,940;  192,063; 2193,048;77,65562
1062,92; 1804,863;  240,910; 2237,279;78,33991
1063,46; 1735,325;  224,679; 2158,433;78,11988
1064,01; 1706,248;  204,217; 2134,894;77,79814
1064,55; 1677,017;  213,140; 2102,048;77,49860
1065,09; 1652,863;  185,063; 2060,048;78,28331
1065,63; 1677,017;  239,140; 2071,202;78,48410
1066,17; 1676,633;  242,217; 2045,971;79,52390
1066,71; 1647,787;  226,217; 2023,587;79,09166
1067,25; 1593,325;  211,294; 1967,433;78,69714
1067,80; 1597,248;  219,679; 1961,433;79,09093
1068,34; 1587,940;  242,756; 1928,971;79,77537
1068,88; 1538,017;  201,448; 1891,510;79,08406
1069,42; 1565,863;  241,294; 1921,433;78,83691
1069,96; 1528,710;  200,217; 1850,279;80,51168
1070,50; 1544,402;  241,910; 1861,433;80,42444
1071,04; 1480,633;  192,756; 1814,817;79,39754
1071,58; 1494,633;  210,602; 1809,510;80,30675
1072,12; 1463,633;  207,987; 1767,971;80,49093
1072,66; 1442,402;  205,602; 1757,356;79,70336
1073,21; 1467,325;  228,371; 1752,202;81,30521
1073,75; 1399,787;  226,602; 1707,202;79,23711
1074,29; 1392,171;  218,371; 1684,433;80,06485
1074,83; 1403,556;  233,140; 1701,125;79,72940
1075,37; 1387,940;  230,525; 1658,202;81,06984
1075,91; 1371,787;  224,987; 1647,663;80,60860
1076,45; 1343,325;  217,063; 1628,894;79,77313
1076,99; 1365,787;  236,756; 1589,125;83,48539
1077,53; 1293,479;  206,525; 1573,971;79,48787
1078,07; 1306,171;  222,525; 1573,433;80,21615
1078,61; 1268,248;  217,833; 1538,894;79,51298
1079,15; 1263,325;  212,525; 1524,663;80,08301
1079,69; 1243,325;  216,140; 1491,433;80,54503
1080,23; 1251,325;  233,833; 1482,587;81,48061
1080,77; 1300,787;  267,910; 1506,048;83,42176
1081,31; 1213,940;  213,679; 1440,894;81,50660
1081,85; 1223,940;  224,602; 1452,048;81,41607
1082,39; 1182,017;  209,294; 1414,663;80,69918
1082,93; 1209,479;  221,063; 1410,894;83,07193
1083,47; 1134,633;  196,140; 1361,971;80,49987
1084,01; 1162,248;  236,140; 1391,587;80,15152
1084,55; 1133,402;  209,987; 1330,510;82,40931
1085,09; 1115,710;  230,448; 1354,202;78,77718
1085,63; 1113,479;  214,371; 1322,894;81,10861
1086,17; 1098,940;  212,679; 1282,433;82,84724
1086,71; 1070,787;  213,910; 1289,356;79,67641
1087,24; 1106,863;  232,140; 1300,663;81,86282
1087,78; 1084,479;  224,833; 1273,817;81,95031
1088,32; 1040,479;  215,217; 1228,202;81,46832
1088,86; 1054,402;  241,987; 1251,202;80,49970
1089,40; 1040,710;  217,602; 1222,433;81,91506
1089,94; 1006,171;  195,833; 1181,433;82,21778
1090,48; 1026,710;  226,833; 1185,279;83,45559
1091,02; 1012,556;  232,833; 1181,587;82,18392
1091,56;  986,479;  218,756; 1171,971;80,54036
1092,10;  942,402;  200,217; 1147,971;78,30985
1092,63;  995,248;  234,987; 1154,740;82,65924
1093,17;  978,402;  233,294; 1125,587;83,50489
1093,71;  942,402;  209,294; 1113,279;81,09736
1094,25;  971,479;  235,448; 1131,817;82,11245
1094,79;  935,171;  218,371; 1087,048;82,51629
1095,33;  919,402;  220,679; 1067,279;82,53285
1095,87;  911,402;  228,448; 1063,817;81,75473
1096,40;  877,402;  198,679; 1024,663;82,17139
1096,94;  890,710;  216,987; 1045,894;81,27842
1097,48;  899,171;  219,833; 1024,048;84,47220
1098,02;  860,556;  211,371; 1015,894;80,69186
1098,56;  837,479;  189,679;  980,048;81,96169
1099,10;  831,171;  185,833;  971,894;82,09770
1099,63;  837,171;  200,987;  948,587;85,09693
1100,17;  841,633;  222,602;  979,433;81,79250
1100,71;  869,633;  243,140;  987,433;84,17288

