
Integration time [ms]: 160,000
Averaging Nr. [scans]: 13
Smoothing Nr. [pixels]: 0
Data measured with spectrometer [name]: 2009305U1
Wave   ;Sample   ;Dark     ;Reference;Reflectance
[nm]   ;[counts] ;[counts] ;[counts] ;[%]

 175,72;  220,315;  192,833;  205,653;214,36045
 176,32;  245,201;  215,986;  216,813; 0,00000
 176,92;  286,983;  247,602;  254,971;534,40632
 177,52;  275,680;  255,679;  265,678;200,03465
 178,12;  250,299;  239,756;  224,864; 0,00000
 178,72;  287,057;  257,525;  250,340; 0,00000
 179,32;  270,192;  248,909;  241,998; 0,00000
 179,92;  273,027;  247,063;  242,319; 0,00000
 180,52;  266,891;  235,064;  254,068;167,47334
 181,12;  270,667;  243,833;  252,404;313,05805
 181,73;  298,582;  258,371;  266,338;504,75728
 182,33;  404,958;  327,141;  336,927;795,19695
 182,93;  287,106;  265,064;  266,645;1393,62367
 183,53;  256,904;  233,755;  224,030; 0,00000
 184,13;  249,799;  236,909;  229,431; 0,00000
 184,73;  307,737;  266,448;  273,739;566,31302
 185,33;  277,211;  232,445;  341,197;41,16401
 185,93;  271,068;  226,213;  348,375;36,71747
 186,53;  290,664;  244,675;  370,650;36,50599
 187,13;  313,026;  273,291;  414,063;28,22678
 187,73;  291,019;  243,598;  361,495;40,22235
 188,33;  277,388;  237,983;  370,649;29,70252
 188,93;  302,416;  250,059;  374,130;42,19938
 189,53;  298,297;  248,981;  393,125;34,21296
 190,13;  333,840;  274,058;  409,924;44,00100
 190,73;  270,073;  218,289;  365,019;35,29203
 191,34;  306,241;  256,905;  385,888;38,25022
 191,94;  273,446;  235,829;  359,614;30,38885
 192,54;  300,949;  240,984;  391,391;39,86885
 193,14;  306,070;  258,291;  390,009;36,27392
 193,74;  300,261;  260,214;  377,424;34,16707
 194,34;  301,823;  241,445;  388,106;41,16875
 194,94;  275,188;  209,983;  342,899;49,05733
 195,54;  257,916;  190,137;  332,970;47,45322
 196,14;  273,405;  225,291;  354,341;37,28320
 196,74;  263,009;  223,445;  343,719;32,89496
 197,34;  243,232;  197,522;  345,903;30,80579
 197,94;  278,926;  232,368;  373,573;32,97193
 198,54;  286,242;  228,599;  383,909;37,11487
 199,14;  267,593;  215,368;  380,241;31,67550
 199,74;  253,782;  190,292;  370,197;35,29119
 200,34;  249,186;  195,061;  379,885;29,28445
 200,94;  279,391;  233,599;  425,936;23,80809
 201,54;  262,186;  216,753;  432,596;21,04920
 202,14;  313,096;  230,061;  474,093;34,02619
 202,74;  272,684;  213,907;  473,146;22,67300
 203,34;  251,540;  180,907;  480,577;23,57017
 203,94;  226,043;  170,753;  486,255;17,52447
 204,54;  314,385;  238,445;  563,211;23,38310
 205,14;  267,968;  203,984;  571,733;17,39897
 205,74;  324,084;  236,907;  659,589;20,62468
 206,34;  282,897;  200,215;  679,015;17,26875
 206,94;  298,458;  210,138;  728,140;17,05026
 207,54;  269,723;  191,907;  773,579;13,37790
 208,14;  292,117;  194,522;  845,836;14,98425
 208,74;  314,870;  198,907;  918,683;16,11107
 209,34;  312,256;  202,215;  992,970;13,91597
 209,94;  330,253;  202,753; 1089,013;14,38626
 210,54;  336,411;  195,292; 1187,450;14,22347
 211,14;  357,412;  194,368; 1267,179;15,19782
 211,73;  376,804;  197,830; 1399,958;14,88810
 212,33;  396,432;  214,830; 1495,442;14,18089
 212,93;  404,030;  201,830; 1569,925;14,77967
 213,53;  381,829;  168,522; 1613,023;14,76683
 214,13;  415,267;  193,369; 1705,053;14,67889
 214,73;  392,404;  179,907; 1721,786;13,78166
 215,33;  386,714;  163,830; 1742,628;14,11734
 215,93;  429,303;  194,523; 1862,662;14,07437
 216,53;  422,719;  157,753; 1944,199;14,83202
 217,13;  477,745;  209,061; 2159,512;13,77550
 217,73;  499,759;  196,599; 2334,342;14,18127
 218,33;  501,268;  149,754; 2512,186;14,87935
 218,93;  591,962;  177,292; 2802,474;15,79585
 219,53;  645,842;  179,830; 3052,680;16,22124
 220,13;  666,714;  166,677; 3342,899;15,74314
 220,73;  743,939;  178,292; 3659,770;16,24735
 221,32;  816,870;  192,215; 4073,836;16,09265
 221,92;  891,444;  184,984; 4477,909;16,45637
 222,52;  945,703;  163,446; 4867,162;16,63062
 223,12; 1038,040;  187,984; 5286,413;16,67291
 223,72; 1112,999;  189,369; 5644,061;16,93277
 224,32; 1181,124;  186,830; 5997,482;17,11157
 224,92; 1211,798;  168,830; 6323,312;16,94648
 225,52; 1317,110;  197,753; 6670,557;17,29322
 226,12; 1372,624;  180,753; 6972,357;17,54918
 226,72; 1402,952;  160,753; 7292,274;17,41843
 227,31; 1480,780;  151,984; 7646,565;17,73009
 227,91; 1609,307;  194,138; 8071,656;17,96466
 228,51; 1643,723;  165,984; 8435,636;17,86942
 229,11; 1735,546;  184,907; 8840,069;17,91577
 229,71; 1804,746;  170,830; 9126,800;18,24387
 230,31; 1858,516;  168,369; 9555,531;18,00488
 230,91; 1930,605;  158,599; 9813,841;18,35279
 231,51; 1979,048;  163,753;10061,634;18,34024
 232,10; 2075,901;  164,907;10384,972;18,69845
 232,70; 2116,823;  181,445;10581,029;18,61015
 233,30; 2187,042;  195,753;10813,411;18,75450
 233,90; 2193,562;  167,984;10937,933;18,80769
 234,50; 2232,347;  169,984;11059,818;18,93843
 235,10; 2249,414;  171,292;10974,158;19,23676
 235,70; 2288,878;  182,907;11013,347;19,44493
 236,29; 2242,406;  178,907;10902,340;19,24289
 236,89; 2222,662;  160,907;10792,462;19,39279
 237,49; 2223,615;  183,907;10632,310;19,52172
 238,09; 2139,821;  172,753;10341,707;19,34385
 238,69; 2140,517;  207,676;10098,604;19,54156
 239,29; 2011,950;  164,138; 9734,699;19,30725
 239,89; 1951,910;  172,907; 9401,017;19,27809
 240,48; 1859,187;  167,215; 8971,537;19,21752
 241,08; 1767,441;  164,522; 8611,278;18,97673
 241,68; 1712,285;  188,215; 8278,664;18,83790
 242,28; 1594,636;  156,215; 7940,130;18,47941
 242,88; 1570,995;  197,061; 7665,624;18,39623
 243,48; 1483,964;  202,138; 7348,585;17,93655
 244,07; 1392,828;  196,215; 7158,640;17,18673
 244,67; 1364,804;  189,599; 6950,593;17,38212
 245,27; 1315,342;  189,214; 6813,419;17,00020
 245,87; 1270,740;  193,677; 6751,769;16,42343
 246,47; 1224,052;  180,522; 6743,128;15,90116
 247,06; 1181,787;  173,599; 6743,421;15,34574
 247,66; 1166,176;  171,676; 6819,743;14,95923
 248,26; 1186,991;  200,830; 7000,936;14,50214
 248,86; 1196,662;  197,445; 7154,654;14,36232
 249,46; 1144,705;  145,599; 7378,217;13,81389
 250,05; 1194,962;  199,830; 7771,472;13,14288
 250,65; 1216,779;  152,599; 8058,257;13,46100
 251,25; 1254,763;  170,984; 8552,490;12,93060
 251,85; 1305,730;  170,830; 9127,877;12,67047
 252,44; 1337,006;  137,061; 9680,974;12,57289
 253,04; 1460,093;  188,215;10445,847;12,39934
 253,64; 1526,977;  136,830;11140,049;12,63400
 254,24; 1680,773;  193,061;12050,132;12,54704
 254,84; 1724,013;  169,830;13024,525;12,09039
 255,43; 1878,933;  179,676;13965,778;12,32587
 256,03; 2007,622;  176,907;14933,069;12,40645
 256,63; 2156,644;  184,599;15959,061;12,50150
 257,23; 2264,955;  171,753;16835,711;12,56125
 257,82; 2454,091;  182,599;17818,426;12,87999
 258,42; 2535,482;  143,753;18720,590;12,87480
 259,02; 2748,049;  189,522;19585,306;13,19115
 259,62; 2859,061;  171,445;20283,193;13,36342
 260,21; 2979,631;  174,291;20811,251;13,59376
 260,81; 3135,707;  185,907;21379,753;13,91819
 261,41; 3221,084;  151,137;21814,664;14,17104
 262,01; 3395,388;  198,214;22356,130;14,42904
 262,60; 3452,340;  159,060;22637,173;14,65105
 263,20; 3585,913;  176,445;23055,648;14,90204
 263,80; 3718,959;  194,906;23123,820;15,36947
 264,40; 3797,951;  149,752;23365,215;15,71452
 264,99; 3914,391;  181,983;23636,262;15,91355
 265,59; 3977,546;  166,214;23828,529;16,10718
 266,19; 4057,456;  157,752;24024,776;16,33930
 266,78; 4213,232;  197,445;24085,499;16,81086
 267,38; 4280,505;  186,368;24190,233;17,05616
 267,98; 4309,303;  170,906;24143,256;17,26321
 268,58; 4380,641;  186,137;24183,756;17,47884
 269,17; 4430,765;  173,752;24133,851;17,76709
 269,77; 4471,572;  192,522;23966,940;17,99855
 270,37; 4475,423;  161,368;23855,106;18,20758
 270,96; 4591,928;  214,830;23796,071;18,56178
 271,56; 4555,472;  179,676;23480,276;18,77976
 272,16; 4602,986;  169,060;23368,768;19,11199
 272,75; 4642,143;  169,522;23244,494;19,38300
 273,35; 4678,044;  186,753;23207,061;19,51013
 273,95; 4709,871;  180,291;23273,296;19,61451
 274,54; 4734,610;  158,061;23319,855;19,75904
 275,14; 4924,029;  185,830;23690,387;20,15864
 275,74; 4918,244;  157,830;23677,369;20,24025
 276,33; 5089,314;  197,983;24100,569;20,46361
 276,93; 5185,954;  184,138;24473,251;20,59283
 277,53; 5373,287;  181,984;25015,911;20,90408
 278,12; 5515,337;  152,830;25597,349;21,07530
 278,72; 5750,172;  215,676;26084,768;21,39424
 279,32; 5862,748;  184,830;26655,470;21,44987
 279,91; 6097,404;  151,984;27296,689;21,90269
 280,51; 6277,581;  164,061;27885,853;22,05312
 281,11; 6470,924;  165,368;28515,442;22,24176
 281,70; 6643,243;  153,676;28993,081;22,50243
 282,30; 6884,780;  163,599;29674,353;22,77536
 282,90; 7040,061;  168,753;30003,444;23,03127
 283,49; 7281,387;  190,983;30517,786;23,37999
 284,09; 7519,308;  200,214;30896,231;23,84379
 284,69; 7676,763;  194,907;31311,375;24,04468
 285,28; 7839,042;  181,907;31608,199;24,36538
 285,88; 8115,959;  231,060;31904,705;24,89420
 286,47; 8195,025;  181,137;31901,565;25,26412
 287,07; 8362,405;  202,984;31975,438;25,68080
 287,67; 8567,272;  185,830;32122,739;26,24375
 288,26; 8681,659;  169,599;32037,774;26,71022
 288,86; 8941,489;  168,676;32056,294;27,51166
 289,46; 9151,475;  193,984;32185,292;27,99977
 290,05; 9378,189;  172,368;32376,766;28,58560
 290,65; 9614,267;  173,907;32494,359;29,20863
 291,24; 9845,222;  178,138;32665,551;29,75640
 291,84;10105,413;  184,830;32740,907;30,47229
 292,44;10317,953;  179,061;33002,715;30,88898
 293,03;10640,982;  246,907;32988,735;31,74556
 293,63;10798,120;  176,599;33084,504;32,27650
 294,22;11060,933;  190,753;33347,104;32,78461
 294,82;11126,244;  182,060;33256,310;33,08974
 295,41;11177,628;  155,291;33060,774;33,49696
 296,01;11306,894;  208,214;33008,575;33,83707
 296,61;11316,485;  182,753;32641,087;34,30161
 297,20;11228,471;  186,522;32323,950;34,35853
 297,80;11217,140;  194,984;32156,885;34,48529
 298,39;11120,268;  164,060;31774,877;34,65968
 298,99;11139,330;  189,214;31656,241;34,79870
 299,58;11062,922;  192,292;31571,638;34,64263
 300,18;11017,807;  209,445;31366,877;34,68952
 300,78;10908,028;  177,599;30948,409;34,87210
 301,37;10850,339;  193,291;30891,191;34,71589
 301,97;10926,688;  188,061;30939,660;34,92055
 302,56;10785,466;  187,137;30906,361;34,50064
 303,16;10700,959;  173,753;30840,917;34,32729
 303,75;10647,138;  174,368;30857,002;34,13256
 304,35;10752,457;  166,830;31103,257;34,21736
 304,94;10709,750;  179,138;31040,448;34,12238
 305,54;10646,870;  201,215;31020,913;33,89279
 306,13;10540,384;  164,984;31012,753;33,63420
 306,73;10428,849;  168,138;30770,960;33,52864
 307,33;10394,798;  192,369;30714,351;33,42650
 307,92;10362,846;  185,061;30785,136;33,26065
 308,52;10410,186;  165,830;31199,806;33,01013
 309,11;10517,384;  172,137;31705,231;32,80759
 309,71;10543,859;  168,599;31935,792;32,66030
 310,30;10495,150;  160,061;32195,179;32,26175
 310,90;10612,843;  198,061;32541,025;32,20108
 311,49;10573,668;  179,214;32617,051;32,04423
 312,09;10561,825;  152,599;32789,355;31,89418
 312,68;10664,368;  218,291;33185,330;31,68643
 313,28;10522,384;  159,907;33317,674;31,25204
 313,87;10466,925;  153,830;33457,421;30,96692
 314,47;10462,942;  169,214;33719,073;30,68188
 315,06;10411,121;  155,291;33846,369;30,44079
 315,66;10358,748;  156,061;33991,278;30,15405
 316,25;10224,980;  145,291;34000,199;29,77320
 316,85;10159,793;  140,215;34012,972;29,58005
 317,44;10141,089;  163,445;34187,697;29,32509
 318,04;10059,002;  154,368;34156,383;29,12955
 318,63; 9903,473;  146,292;34237,622;28,62071
 319,22; 9870,684;  171,445;34452,357;28,29341
 319,82; 9738,373;  162,137;34418,304;27,95478
 320,41; 9650,303;  181,214;34371,699;27,69510
 321,01; 9547,384;  184,907;34386,656;27,37426
 321,60; 9460,435;  176,214;34477,630;27,06658
 322,20; 9294,062;  164,599;34382,000;26,68076
 322,79; 9170,899;  198,368;34501,800;26,15637
 323,39; 9115,469;  170,907;34565,974;26,00536
 323,98; 8965,640;  149,522;34508,529;25,65883
 324,58; 8869,888;  154,368;34408,391;25,44378
 325,17; 8703,743;  176,599;34190,879;25,06931
 325,76; 8590,026;  187,830;34036,681;24,82269
 326,36; 8356,126;  143,368;33626,517;24,52803
 326,95; 8239,054;  193,753;33357,126;24,25960
 327,55; 8002,166;  148,676;32972,948;23,92586
 328,14; 7796,102;  161,292;32580,644;23,55016
 328,74; 7635,353;  189,830;32167,636;23,28341
 329,33; 7497,765;  178,907;31731,391;23,19582
 329,92; 7215,293;  156,214;31253,788;22,69977
 330,52; 7029,268;  173,753;30573,956;22,55088
 331,11; 6813,752;  171,445;30177,215;22,13676
 331,71; 6624,942;  165,522;29557,766;21,97661
 332,30; 6435,673;  177,445;29149,371;21,60101
 332,89; 6329,898;  213,984;28628,725;21,52374
 333,49; 6036,140;  187,907;28086,942;20,96213
 334,08; 5902,310;  175,368;27697,286;20,80866
 334,68; 5730,260;  180,907;27293,964;20,46746
 335,27; 5602,404;  186,215;26952,612;20,23503
 335,86; 5546,136;  224,753;26641,446;20,14402
 336,46; 5347,236;  181,061;26461,399;19,65795
 337,05; 5206,119;  171,599;26265,353;19,29396
 337,65; 5058,346;  153,291;26054,626;18,93746
 338,24; 5085,305;  213,907;26069,851;18,84054
 338,83; 5025,359;  192,984;25957,438;18,75598
 339,43; 4919,273;  167,984;25897,909;18,46601
 340,02; 4829,438;  162,291;25866,857;18,15688
 340,61; 4791,266;  170,138;25836,938;18,00430
 341,21; 4773,969;  208,137;25858,636;17,80017
 341,80; 4670,216;  175,368;25826,808;17,52279
 342,40; 4631,859;  170,292;25890,158;17,34678
 342,99; 4578,975;  165,445;25947,187;17,11882
 343,58; 4566,227;  177,368;26189,622;16,87227
 344,18; 4555,573;  195,522;26373,073;16,65569
 344,77; 4508,873;  164,599;26529,948;16,47721
 345,36; 4501,285;  148,676;26879,818;16,28291
 345,96; 4570,937;  201,984;27219,638;16,17073
 346,55; 4521,223;  151,369;27427,300;16,02092
 347,14; 4538,425;  152,907;27772,144;15,87849
 347,74; 4501,911;  143,292;28192,844;15,53900
 348,33; 4643,493;  164,677;28854,944;15,61093
 348,92; 4652,236;  178,061;29402,688;15,30960
 349,52; 4681,631;  140,215;29849,887;15,28599
 350,11; 4714,526;  175,907;30115,958;15,15902
 350,70; 4698,393;  167,061;30103,798;15,13636
 351,29; 4612,752;  160,291;29828,098;15,00772
 351,89; 4593,683;  176,983;29840,031;14,88957
 352,48; 4557,982;  155,215;29908,351;14,79766
 353,07; 4572,843;  174,599;29796,583;14,84790
 353,67; 4520,899;  189,215;29796,109;14,63066
 354,26; 4466,818;  164,676;29465,729;14,68255
 354,85; 4446,897;  173,907;29381,496;14,62972
 355,45; 4381,544;  158,830;29187,341;14,54678
 356,04; 4355,881;  168,753;29179,958;14,43280
 356,63; 4349,962;  200,676;28979,836;14,41768
 357,22; 4317,550;  176,675;28835,197;14,44902
 357,82; 4264,729;  173,829;28527,954;14,42788
 358,41; 4272,570;  190,291;28522,847;14,40844
 359,00; 4214,743;  155,907;28267,802;14,43815
 359,60; 4217,066;  174,676;28241,266;14,40285
 360,19; 4242,341;  174,292;28045,826;14,59571
 360,78; 4180,867;  177,984;27864,379;14,45794
 361,37; 4146,364;  169,061;27730,181;14,43085
 361,97; 4187,155;  169,676;27624,442;14,63309
 362,56; 4132,559;  167,753;27299,264;14,61329
 363,15; 4185,787;  202,830;27001,114;14,86273
 363,74; 4072,063;  174,291;26660,845;14,71604
 364,34; 4054,776;  194,291;26339,415;14,76560
 364,93; 4005,194;  163,291;25935,873;14,90694
 365,52; 3964,444;  141,445;25588,830;15,02315
 366,11; 3950,906;  173,599;25238,079;15,07036
 366,71; 3927,300;  160,907;24896,203;15,22680
 367,30; 3910,344;  173,522;24575,417;15,31365
 367,89; 3934,544;  207,215;24348,725;15,43950
 368,48; 3903,980;  182,291;24090,525;15,56656
 369,07; 3826,547;  178,138;23657,413;15,53885
 369,67; 3872,372;  203,291;23383,363;15,82860
 370,26; 3856,311;  163,445;23103,863;16,09764
 370,85; 3860,743;  177,137;22920,245;16,19658
 371,44; 3817,256;  163,214;22611,778;16,27739
 372,03; 3809,246;  151,907;22418,770;16,42503
 372,63; 3792,329;  141,984;22051,743;16,66082
 373,22; 3807,834;  162,368;21824,363;16,82885
 373,81; 3762,888;  140,907;21614,122;16,86744
 374,40; 3796,187;  153,522;21310,691;17,21717
 374,99; 3794,511;  157,753;21122,573;17,34696
 375,59; 3758,148;  163,061;20765,855;17,44952
 376,18; 3796,207;  191,522;20688,377;17,58653
 376,77; 3825,824;  184,368;20538,952;17,89010
 377,36; 3863,024;  194,599;20427,029;18,13141
 377,95; 3871,833;  181,291;20167,268;18,46565
 378,55; 3851,845;  164,907;19976,041;18,61044
 379,14; 3900,707;  177,522;19901,675;18,87627
 379,73; 3923,212;  165,676;19853,332;19,08574
 380,32; 3956,318;  183,984;19873,181;19,15941
 380,91; 3967,386;  159,676;19667,575;19,51881
 381,50; 4032,671;  181,137;19730,834;19,70125
 382,10; 4007,472;  165,599;19588,104;19,78052
 382,69; 4070,065;  153,061;19536,843;20,20764
 383,28; 4149,293;  185,214;19485,519;20,53895
 383,87; 4126,275;  170,599;19354,118;20,62018
 384,46; 4146,886;  156,599;19303,219;20,84069
 385,05; 4229,124;  194,368;19336,249;21,07816
 385,64; 4273,368;  173,984;19253,926;21,48531
 386,24; 4303,353;  151,214;19260,693;21,72817
 386,83; 4372,415;  185,676;19307,347;21,89526
 387,42; 4453,362;  185,907;19437,221;22,16709
 388,01; 4544,322;  175,906;19692,501;22,38309
 388,60; 4661,825;  180,060;19935,642;22,68607
 389,19; 4734,746;  162,521;20071,470;22,96568
 389,78; 4854,297;  163,137;20300,531;23,29577
 390,37; 5069,484;  226,829;20795,837;23,54346
 390,96; 5119,676;  171,983;20851,213;23,92590
 391,56; 5200,138;  182,136;20980,634;24,12675
 392,15; 5308,393;  156,367;21348,835;24,31065
 392,74; 5423,184;  147,059;21537,383;24,66594
 393,33; 5564,181;  167,290;21800,272;24,94751
 393,92; 5723,266;  173,905;22148,280;25,25378
 394,51; 5782,119;  169,367;22328,946;25,32878
 395,10; 5963,312;  191,212;22592,145;25,76723
 395,69; 6044,106;  172,828;22659,440;26,11011
 396,28; 6123,622;  187,828;22780,161;26,27349
 396,87; 6230,592;  175,366;22794,544;26,77032
 397,46; 6312,150;  191,750;22963,056;26,87769
 398,06; 6432,530;  198,596;23203,119;27,09873
 398,65; 6504,340;  184,672;23227,508;27,42574
 399,24; 6611,535;  204,056;23470,283;27,53983
 399,83; 6610,804;  175,516;23419,733;27,68554
 400,42; 6776,241;  203,053;23563,588;28,13800
 401,01; 6832,322;  185,975;23697,214;28,26881
 401,60; 6950,642;  194,281;23692,232;28,75298
 402,19; 6965,419;  220,049;23599,757;28,85139
 402,78; 7042,597;  222,354;23670,337;29,08670
 403,37; 7065,621;  208,967;23485,360;29,45754
 403,96; 7107,566;  200,734;23392,403;29,78152
 404,55; 7131,336;  220,577;23298,760;29,94499
 405,14; 7098,822;  199,113;23194,704;30,00449
 405,73; 7169,752;  215,417;23072,266;30,42561
 406,32; 7240,199;  222,569;22959,260;30,86478
 406,91; 7210,006;  202,028;22680,458;31,17646
 407,50; 7207,733;  215,873;22530,604;31,33293
 408,09; 7186,055;  186,103;22248,987;31,72728
 408,68; 7196,440;  196,641;22130,582;31,91309
 409,27; 7214,127;  186,488;21935,551;32,31238
 409,86; 7221,960;  200,644;21860,399;32,41642
 410,45; 7270,160;  232,645;21774,441;32,66912
 411,04; 7302,018;  236,801;21640,738;33,00896
 411,63; 7221,217;  213,187;21399,610;33,07793
 412,22; 7188,485;  217,574;21270,990;33,11060
 412,81; 7170,573;  222,959;20933,498;33,54627
 413,40; 7163,590;  249,652;20594,959;33,98296
 413,99; 7085,928;  267,960;20389,882;33,88328
 414,58; 6904,118;  208,498;19983,338;33,85929
 415,17; 6925,685;  208,267;19843,761;34,21059
 415,76; 6921,591;  205,343;19646,204;34,54707
 416,35; 6890,746;  194,882;19356,030;34,94500
 416,94; 6967,582;  229,805;19554,581;34,86600
 417,53; 7047,672;  215,190;19687,836;35,08759
 418,12; 7124,015;  206,036;19787,445;35,32932
 418,71; 7280,945;  232,114;20191,765;35,31541
 419,30; 7398,594;  216,652;20276,876;35,80190
 419,89; 7451,446;  203,267;20467,311;35,76867
 420,48; 7683,298;  235,114;20775,844;36,26056
 421,07; 7705,123;  229,729;20800,062;36,34065
 421,66; 7740,471;  200,037;20766,724;36,66334
 422,25; 7802,353;  203,115;20757,681;36,97104
 422,84; 7797,463;  231,500;20748,871;36,87589
 423,43; 7725,796;  220,500;20404,088;37,18515
 424,02; 7723,160;  234,961;20179,384;37,54533
 424,60; 7560,699;  206,578;19787,501;37,55758
 425,19; 7526,012;  222,654;19548,224;37,79117
 425,78; 7517,492;  240,654;19501,989;37,77951
 426,37; 7505,774;  236,039;19304,849;38,12370
 426,96; 7473,194;  219,193;19247,266;38,12263
 427,55; 7438,258;  211,116;19035,553;38,39234
 428,14; 7404,869;  206,501;18860,636;38,58859
 428,73; 7401,934;  228,501;18686,169;38,86425
 429,32; 7428,439;  231,962;18637,883;39,09870
 429,91; 7490,905;  247,116;18703,205;39,24878
 430,50; 7397,866;  239,732;18496,159;39,20885
 431,08; 7358,194;  252,117;18415,557;39,12297
 431,67; 7386,980;  296,502;18284,691;39,41741
 432,26; 7363,916;  305,502;18077,559;39,71636
 432,85; 7272,619;  340,656;17763,604;39,78640
 433,44; 7128,238;  336,118;17385,023;39,83904
 434,03; 7046,020;  348,349;17082,008;40,02514
 434,62; 6885,603;  307,425;16701,952;40,12423
 435,21; 6831,140;  328,040;16469,644;40,28782
 435,79; 6790,975;  331,041;16336,814;40,36002
 436,38; 6740,463;  313,734;16279,858;40,25228
 436,97; 6737,639;  312,041;16185,273;40,48071
 437,56; 6699,304;  311,273;15964,310;40,81017
 438,15; 6610,241;  279,273;15853,253;40,65093
 438,74; 6656,905;  296,965;15926,346;40,69221
 439,33; 6681,664;  265,965;15886,494;41,07222
 439,91; 6707,241;  228,581;15945,350;41,22132
 440,50; 6788,940;  284,196;16038,265;41,28929
 441,09; 6864,379;  278,197;16137,216;41,52957
 441,68; 6816,130;  268,735;16097,048;41,36508
 442,27; 6853,189;  249,658;16117,378;41,61613
 442,86; 6813,514;  232,505;16092,763;41,49370
 443,44; 6880,853;  240,351;16162,261;41,70669
 444,03; 6966,449;  298,198;16223,997;41,87075
 444,62; 6836,748;  244,351;16069,566;41,65755
 445,21; 6809,598;  251,659;15914,696;41,86888
 445,80; 6786,397;  284,890;15782,390;41,95197
 446,39; 6741,517;  290,429;15504,817;42,40123
 446,97; 6599,705;  245,814;15352,756;42,05941
 447,56; 6505,890;  247,583;15120,833;42,07760
 448,15; 6503,814;  243,660;14991,139;42,44898
 448,74; 6426,380;  266,429;14672,104;42,76058
 449,33; 6341,285;  235,276;14587,031;42,54538
 449,91; 6256,203;  246,815;14400,616;42,45777
 450,50; 6188,029;  242,430;14179,487;42,66037
 451,09; 6205,468;  255,276;14091,361;43,00488
 451,68; 6130,209;  268,969;13991,513;42,71249
 452,26; 6117,405;  267,507;13882,268;42,96732
 452,85; 6002,926;  251,199;13837,578;42,33451
 453,44; 6074,388;  267,277;13788,136;42,94928
 454,03; 6079,544;  239,354;13776,037;43,14344
 454,61; 6058,073;  236,662;13755,146;43,06260
 455,20; 6147,672;  273,816;13940,687;42,97879
 455,79; 6141,167;  268,662;13927,663;42,99367
 456,38; 6210,853;  268,739;14007,442;43,25091
 456,97; 6208,712;  252,124;14070,310;43,10687
 457,55; 6217,826;  250,047;14089,802;43,12056
 458,14; 6253,831;  276,585;14042,968;43,41915
 458,73; 6201,895;  255,355;14008,120;43,23887
 459,31; 6257,974;  288,278;14014,715;43,49050
 459,90; 6262,692;  290,509;14131,760;43,14771
 460,49; 6358,172;  334,432;14244,717;43,30421
 461,08; 6357,389;  264,971;14325,004;43,33146
 461,66; 6365,808;  267,586;14367,019;43,25154
 462,25; 6442,715;  270,971;14422,905;43,61060
 462,84; 6468,919;  297,202;14494,938;43,46973
 463,43; 6415,229;  226,971;14407,032;43,64056
 464,01; 6430,309;  261,125;14470,259;43,41703
 464,60; 6444,498;  299,894;14402,292;43,57134
 465,19; 6303,794;  242,972;14172,423;43,51085
 465,77; 6278,606;  269,972;14117,024;43,39287
 466,36; 6274,930;  281,433;13996,694;43,69947
 466,95; 6097,410;  256,356;13737,152;43,32871
 467,53; 6003,320;  275,203;13416,862;43,58748
 468,12; 5911,999;  284,434;13175,399;43,65511
 468,71; 5817,958;  266,895;12915,296;43,88747
 469,29; 5677,651;  249,511;12695,642;43,61307
 469,88; 5548,968;  266,357;12500,496;43,17926
 470,47; 5656,664;  329,280;12548,915;43,59692
 471,06; 5600,916;  272,819;12534,273;43,45404
 471,64; 5641,168;  281,280;12691,803;43,18825
 472,23; 5639,742;  242,896;12681,781;43,38689
 472,81; 5694,664;  253,050;12749,243;43,54618
 473,40; 5731,044;  261,127;13004,846;42,92245
 473,99; 5920,754;  346,281;13160,323;43,50284
 474,57; 5843,407;  259,742;13250,487;42,98187
 475,16; 5958,423;  274,742;13372,506;43,39428
 475,75; 6036,983;  290,281;13477,287;43,57852
 476,33; 6048,332;  292,666;13553,813;43,40248
 476,92; 6046,980;  300,973;13603,829;43,19378
 477,51; 6072,768;  285,666;13671,153;43,23415
 478,09; 6068,495;  272,974;13702,109;43,15633
 478,68; 6053,441;  289,666;13595,350;43,31815
 479,27; 6109,919;  311,435;13701,522;43,30430
 479,85; 6080,429;  287,281;13703,038;43,18167
 480,44; 6129,817;  276,974;13868,131;43,06361
 481,02; 6595,354;  281,051;15608,402;41,19631
 481,61; 7497,426;  310,897;17388,639;42,08126
 482,20; 7979,475;  305,436;18436,789;42,32469
 482,78; 8354,934;  331,512;19187,657;42,55070
 483,37; 8617,912;  327,205;19643,013;42,92187
 483,95; 8766,825;  357,975;20013,353;42,78142
 484,54; 8865,126;  370,974;20144,321;42,95758
 485,13; 8777,316;  337,667;20034,163;42,84848
 485,71; 8701,370;  317,975;19790,230;43,05303
 486,30; 8603,406;  351,898;19542,570;42,99749
 486,88; 8457,286;  393,436;19107,604;43,08954
 487,47; 8130,935;  376,898;18360,869;43,11638
 488,05; 7751,178;  358,129;17495,548;43,13980
 488,64; 7228,698;  349,283;16059,475;43,78951
 489,23; 6463,407;  355,591;14183,165;44,17128
 489,81; 5555,305;  354,283;12316,831;43,47755
 490,40; 5162,070;  320,822;11823,952;42,08635
 490,98; 5062,001;  299,745;11561,827;42,28576
 491,57; 5047,449;  322,129;11500,035;42,27375
 492,15; 4963,789;  309,822;11427,977;41,85917
 492,74; 4951,850;  312,667;11319,477;42,14830
 493,32; 4878,415;  325,514;11206,867;41,84131
 493,91; 4830,049;  296,591;11161,517;41,72563
 494,50; 4829,444;  317,207;11123,602;41,75525
 495,08; 4761,319;  292,822;11050,719;41,53690
 495,67; 4777,519;  317,283;11013,507;41,69916
 496,25; 4688,510;  255,130;10847,096;41,85606
 496,84; 4664,634;  280,283;10870,055;41,40175
 497,42; 4658,633;  264,899;10808,134;41,67349
 498,01; 4618,733;  278,206;10786,547;41,30553
 498,59; 4571,240;  246,668;10711,606;41,32439
 499,18; 4551,133;  249,899;10642,047;41,38927
 499,76; 4521,247;  282,437;10534,406;41,34630
 500,35; 4421,941;  272,361;10382,539;41,04359
 500,93; 4423,612;  245,361;10380,776;41,22427
 501,52; 4361,119;  261,284;10274,065;40,94602
 502,10; 4352,897;  270,438;10250,171;40,90750
 502,69; 4251,404;  255,900;10120,749;40,50243
 503,27; 4159,004;  234,207; 9897,576;40,61520
 503,86; 4145,251;  250,669; 9860,824;40,52570
 504,44; 4104,799;  227,438; 9778,525;40,59602
 505,03; 3975,116;  219,361; 9540,802;40,29156
 505,61; 3933,673;  238,515; 9417,662;40,25601
 506,19; 3842,882;  256,054; 9241,075;39,92008
 506,78; 3804,558;  230,362; 9085,577;40,36261
 507,36; 3707,050;  229,361; 8926,057;39,98862
 507,95; 3629,241;  234,900; 8738,415;39,91692
 508,53; 3608,197;  237,516; 8704,375;39,81029
 509,12; 3551,332;  247,054; 8504,879;40,01390
 509,70; 3498,085;  262,439; 8391,822;39,80187
 510,29; 3417,781;  257,670; 8187,741;39,84972
 510,87; 3308,409;  233,131; 8085,205;39,16518
 511,46; 3259,503;  226,131; 7883,685;39,61280
 512,04; 3206,569;  242,285; 7748,083;39,49325
 512,62; 3149,231;  245,054; 7648,102;39,22947
 513,21; 3064,341;  224,208; 7429,407;39,41782
 513,79; 2982,621;  227,824; 7325,385;38,81329
 514,38; 2916,316;  210,747; 7153,170;38,97153
 514,96; 2899,137;  253,824; 7072,624;38,79441
 515,54; 2787,232;  221,670; 6956,391;38,09455
 516,13; 2787,821;  246,824; 6858,308;38,43308
 516,71; 2732,486;  240,901; 6759,824;38,22080
 517,30; 2681,691;  215,132; 6655,856;38,29629
 517,88; 2668,765;  245,978; 6549,899;38,43301
 518,46; 2596,684;  216,825; 6445,769;38,20646
 519,05; 2567,137;  222,517; 6391,915;38,00403
 519,63; 2558,008;  237,056; 6323,787;38,13134
 520,22; 2523,944;  249,979; 6288,022;37,66063
 520,80; 2477,344;  242,287; 6198,368;37,52563
 521,38; 2507,143;  262,748; 6200,291;37,80007
 521,97; 2450,797;  221,595; 6142,052;37,65253
 522,55; 2447,539;  241,133; 6160,067;37,27709
 523,13; 2407,122;  231,441; 6158,127;36,70990
 523,72; 2402,680;  233,517; 6114,658;36,88338
 524,30; 2473,435;  254,210; 6244,255;37,04856
 524,89; 2441,043;  228,672; 6275,014;36,59025
 525,47; 2496,416;  241,826; 6379,471;36,73380
 526,05; 2445,092;  217,210; 6445,512;35,77029
 526,64; 2522,916;  246,672; 6579,212;35,94520
 527,22; 2567,372;  241,133; 6699,623;36,01830
 527,80; 2601,117;  272,749; 6847,730;35,41254
 528,39; 2606,486;  234,364; 6929,961;35,42809
 528,97; 2648,275;  245,057; 7088,668;35,11623
 529,55; 2706,524;  251,749; 7287,682;34,88913
 530,14; 2771,959;  262,288; 7408,121;35,12076
 530,72; 2773,157;  245,518; 7543,700;34,63381
 531,30; 2791,743;  228,134; 7703,083;34,29601
 531,89; 2867,956;  237,903; 7794,836;34,80319
 532,47; 2897,786;  267,442; 7893,471;34,49167
 533,05; 2885,081;  268,595; 7934,621;34,13093
 533,63; 2890,873;  278,595; 7979,036;33,92374
 534,22; 2871,054;  250,365; 7972,022;33,93946
 534,80; 2945,455;  262,442; 8099,771;34,23377
 535,38; 3030,478;  341,672; 8203,953;34,19880
 535,97; 2883,148;  266,903; 8173,981;33,08737
 536,55; 2948,172;  305,211; 8254,394;33,24820
 537,13; 2896,175;  323,441; 8215,447;32,59923
 537,71; 2955,775;  373,903; 8254,101;32,76405
 538,30; 2929,816;  386,826; 8350,242;31,93340
 538,88; 2977,193;  432,134; 8478,329;31,63059
 539,46; 3067,582;  498,826; 8667,939;31,44473
 540,05; 3081,458;  527,519; 8820,864;30,79504
 540,63; 3148,751;  572,519; 8990,574;30,60365
 541,21; 3218,133;  614,673; 9193,347;30,34804
 541,79; 3238,730;  671,058; 9311,562;29,71670
 542,38; 3309,442;  689,519; 9445,133;29,92278
 542,96; 3329,909;  693,058; 9619,609;29,53942
 543,54; 3427,203;  719,596; 9836,509;29,69872
 544,12; 3437,039;  681,058; 9928,388;29,80299
 544,70; 3432,554;  661,365;10039,321;29,55003
 545,29; 3489,718;  673,673;10246,750;29,41630
 545,87; 3471,038;  633,596;10184,716;29,70795
 546,45; 3424,747;  591,365;10217,022;29,43572
 547,03; 3414,474;  572,981;10300,497;29,21088
 547,62; 3447,411;  518,211;10439,230;29,52519
 548,20; 3478,364;  521,442;10550,924;29,48229
 548,78; 3489,595;  485,058;10661,424;29,52466
 549,36; 3491,577;  440,827;10878,890;29,22716
 549,94; 3477,596;  396,904;10967,230;29,14472
 550,53; 3525,235;  394,597;11243,548;28,85660
 551,11; 3531,470;  366,597;11426,754;28,61509
 551,69; 3618,967;  372,443;11750,056;28,53432
 552,27; 3663,520;  335,750;11965,538;28,61419
 552,85; 3738,819;  339,828;12399,722;28,18426
 553,44; 3798,692;  327,827;12632,746;28,20713
 554,02; 3886,187;  348,520;12991,011;27,98236
 554,60; 3922,554;  283,751;13303,900;27,94748
 555,18; 3990,097;  337,674;13660,566;27,41465
 555,76; 4078,427;  296,751;14025,058;27,54656
 556,34; 4200,122;  319,982;14440,574;27,47860
 556,93; 4251,802;  292,827;14817,570;27,25676
 557,51; 4316,868;  272,828;15124,930;27,22874
 558,09; 4395,467;  311,674;15550,738;26,79819
 558,67; 4521,960;  301,982;15980,181;26,91622
 559,25; 4551,958;  313,905;16151,376;26,75966
 559,83; 4634,593;  293,366;16481,564;26,81723
 560,41; 4662,802;  286,058;16862,821;26,40288
 561,00; 4734,516;  297,982;17133,505;26,35222
 561,58; 4792,405;  280,597;17395,894;26,36126
 562,16; 4827,266;  271,904;17779,125;26,01990
 562,74; 4883,445;  263,827;18061,689;25,95602
 563,32; 4953,403;  258,366;18555,839;25,65948
 563,90; 5087,046;  285,982;18895,612;25,79881
 564,48; 5104,250;  285,751;19333,837;25,29650
 565,06; 5233,655;  280,289;19947,851;25,18546
 565,65; 5374,949;  292,059;20622,618;25,00123
 566,23; 5578,158;  322,520;21339,029;25,00719
 566,81; 5676,769;  278,059;22097,728;24,74240
 567,39; 5832,194;  294,136;22907,408;24,49030
 567,97; 5976,453;  308,982;23588,507;24,34530
 568,55; 6251,255;  321,982;24428,159;24,59649
 569,13; 6296,597;  289,366;25136,232;24,17701
 569,71; 6492,000;  276,135;26086,631;24,08270
 570,29; 6758,065;  326,443;27122,260;24,00234
 570,87; 6855,913;  312,058;27695,989;23,89670
 571,45; 6947,658;  314,443;28347,347;23,66225
 572,03; 7010,923;  282,828;28732,112;23,64944
 572,61; 7193,134;  274,520;29528,849;23,64988
 573,20; 7307,632;  299,828;30153,456;23,47388
 573,78; 7394,566;  293,828;30820,809;23,26053
 574,36; 7482,313;  312,213;31253,624;23,17315
 574,94; 7588,268;  364,213;31533,971;23,17649
 575,52; 7484,111;  308,213;31827,474;22,76671
 576,10; 7637,777;  363,367;32450,122;22,67107
 576,68; 7700,589;  358,290;33028,049;22,47430
 577,26; 7830,942;  367,521;33736,551;22,36631
 577,84; 7896,198;  385,059;34142,922;22,25004
 578,42; 7943,089;  422,905;34469,867;22,08768
 579,00; 7880,421;  361,905;34548,932;21,99231
 579,58; 7915,620;  415,982;34727,896;21,85724
 580,16; 7826,176;  384,905;34758,278;21,64836
 580,74; 7808,146;  384,213;34964,545;21,46866
 581,32; 7771,508;  389,059;35108,920;21,26290
 581,90; 7705,823;  427,444;35079,815;21,00399
 582,48; 7646,031;  405,982;35241,094;20,78377
 583,06; 7664,990;  412,982;35258,837;20,81168
 583,64; 7624,634;  409,520;35402,877;20,61852
 584,22; 7517,192;  424,675;35244,258;20,36933
 584,80; 7443,758;  423,982;34992,377;20,30692
 585,38; 7312,119;  435,443;34555,309;20,15446
 585,96; 7215,969;  392,059;34740,574;19,86668
 586,54; 7210,292;  421,829;34710,153;19,79818
 587,12; 7202,405;  387,290;34850,896;19,77482
 587,70; 7174,863;  416,751;35114,610;19,47703
 588,28; 7122,985;  390,290;35095,402;19,39972
 588,86; 7070,314;  391,059;35225,047;19,17453
 589,44; 7033,768;  386,290;35307,462;19,03566
 590,02; 7065,331;  375,059;35498,642;19,04780
 590,59; 7011,093;  368,367;35700,997;18,80054
 591,17; 6996,144;  359,291;35892,185;18,67805
 591,75; 6963,495;  353,983;35999,092;18,54255
 592,33; 7007,177;  364,675;36339,778;18,46416
 592,91; 6946,956;  315,906;36533,304;18,30902
 593,49; 6960,373;  327,598;36828,725;18,17142
 594,07; 6949,329;  342,521;37042,569;18,00218
 594,65; 6947,289;  354,598;37044,483;17,96869
 595,23; 6930,038;  339,367;37404,855;17,78115
 595,81; 6926,678;  345,060;37547,997;17,69113
 596,39; 6934,939;  324,598;37683,478;17,69416
 596,97; 6880,015;  328,598;37855,211;17,45806
 597,55; 6881,622;  325,213;37711,778;17,53681
 598,12; 6738,091;  314,291;37800,790;17,13630
 598,70; 6696,019;  310,214;38006,764;16,94003
 599,28; 6746,738;  331,137;38069,134;17,00038
 599,86; 6649,315;  315,598;38174,991;16,72958
 600,44; 6630,453;  282,906;38262,318;16,71312
 601,02; 6631,422;  340,368;38274,454;16,58417
 601,60; 6573,155;  310,598;38211,478;16,52351
 602,18; 6466,753;  296,983;38197,924;16,27867
 602,75; 6476,169;  294,983;38376,806;16,23133
 603,33; 6410,218;  306,598;38291,535;16,06853
 603,91; 6349,307;  300,445;38330,559;15,90545
 604,49; 6368,836;  326,521;38431,723;15,85693
 605,07; 6276,844;  334,060;38389,059;15,61630
 605,65; 6268,332;  364,983;38516,296;15,47351
 606,23; 6269,436;  413,675;38688,742;15,29915
 606,80; 6224,613;  480,983;38775,483;14,99858
 607,38; 6180,433;  527,522;38761,132;14,78519
 607,96; 6186,953;  578,444;38960,250;14,61242
 608,54; 6187,622;  643,829;38955,049;14,47042
 609,12; 6176,101;  664,521;39056,084;14,35623
 609,70; 6140,936;  711,598;39105,464;14,14116
 610,27; 6076,100;  707,752;39194,796;13,94846
 610,85; 6095,154;  728,060;39233,460;13,93855
 611,43; 6013,933;  725,060;39176,948;13,75452
 612,01; 5924,897;  691,367;38928,974;13,68686
 612,59; 5882,158;  683,675;38959,187;13,58175
 613,16; 5811,825;  643,213;38847,966;13,52872
 613,74; 5746,860;  613,137;38764,905;13,45605
 614,32; 5705,001;  549,214;38724,268;13,50564
 614,90; 5639,446;  499,829;38549,519;13,50764
 615,48; 5545,016;  453,290;38134,209;13,51274
 616,05; 5467,399;  407,290;38243,788;13,37362
 616,63; 5433,781;  421,982;37956,906;13,35236
 617,21; 5356,861;  411,290;37898,211;13,19279
 617,79; 5314,513;  385,213;37770,203;13,18524
 618,36; 5241,365;  404,137;37711,889;12,96574
 618,94; 5159,167;  337,213;37384,847;13,01555
 619,52; 5095,122;  370,367;37017,883;12,89243
 620,10; 5003,684;  356,290;37089,547;12,65173
 620,67; 4952,500;  358,982;36973,199;12,54572
 621,25; 4916,069;  374,137;36797,816;12,46972
 621,83; 4899,561;  358,444;36743,509;12,48072
 622,41; 4895,164;  398,136;36802,043;12,35315
 622,98; 4818,198;  365,675;36487,673;12,32635
 623,56; 4779,147;  363,444;36488,987;12,22322
 624,14; 4760,985;  337,675;36356,652;12,28050
 624,72; 4702,833;  335,675;36237,323;12,16423
 625,29; 4647,789;  327,521;36403,126;11,97560
 625,87; 4681,762;  367,752;36321,989;11,99861
 626,45; 4545,034;  319,674;36112,744;11,80497
 627,02; 4512,955;  316,983;36082,363;11,73194
 627,60; 4469,562;  314,829;36020,701;11,63599
 628,18; 4420,793;  303,752;36171,391;11,47843
 628,76; 4420,708;  305,675;36192,786;11,46660
 629,33; 4386,775;  340,059;36113,721;11,31200
 629,91; 4367,376;  325,598;36022,547;11,32248
 630,49; 4380,200;  328,444;36232,402;11,28499
 631,06; 4318,226;  326,675;36390,638;11,06798
 631,64; 4300,774;  319,059;36324,626;11,05861
 632,22; 4240,902;  274,597;36382,197;10,98468
 632,79; 4263,775;  322,059;36485,337;10,89977
 633,37; 4239,873;  297,675;36621,177;10,85302
 633,95; 4205,356;  288,136;36675,495;10,76533
 634,52; 4182,788;  276,675;36730,705;10,71518
 635,10; 4181,601;  289,367;36741,786;10,67757
 635,68; 4193,141;  286,828;36947,244;10,65540
 636,25; 4108,342;  276,905;36915,262;10,45745
 636,83; 4095,708;  262,213;37121,017;10,40049
 637,41; 4123,028;  274,674;37206,001;10,42030
 637,98; 4148,921;  306,444;37369,365;10,36744
 638,56; 4108,483;  293,213;37423,894;10,27525
 639,13; 4069,503;  268,982;37536,408;10,19797
 639,71; 4148,194;  313,367;37616,102;10,28028
 640,29; 4018,738;  249,290;37483,827;10,12353
 640,86; 4018,790;  263,829;37608,175;10,05497
 641,44; 3965,381;  257,059;37643,369; 9,91893
 642,02; 4003,048;  290,675;37552,947; 9,96282
 642,59; 3977,177;  267,752;37784,833; 9,88730
 643,17; 3927,228;  268,213;37738,797; 9,76503
 643,74; 3924,049;  268,521;37719,375; 9,76087
 644,32; 3873,563;  289,675;37727,185; 9,57299
 644,89; 3881,922;  287,444;37749,917; 9,59488
 645,47; 3873,667;  293,136;37742,649; 9,56095
 646,05; 3833,257;  283,444;37635,997; 9,50353
 646,62; 3793,770;  279,444;37705,499; 9,39005
 647,20; 3791,591;  280,829;37790,001; 9,35974
 647,77; 3716,720;  255,598;37644,271; 9,25714
 648,35; 3694,464;  250,906;37527,465; 9,23787
 648,92; 3693,593;  279,367;37684,429; 9,12771
 649,50; 3645,029;  250,906;37519,623; 9,10717
 650,08; 3632,235;  245,444;37436,201; 9,10654
 650,65; 3607,672;  250,059;37720,164; 8,96078
 651,23; 3648,262;  235,367;38578,204; 8,90100
 651,80; 3697,544;  252,213;39453,014; 8,78893
 652,38; 3775,442;  268,521;39722,439; 8,88865
 652,95; 3740,494;  226,752;40098,709; 8,81257
 653,53; 3749,700;  258,290;40364,211; 8,70547
 654,10; 3812,752;  281,444;40538,482; 8,77190
 654,68; 3718,650;  244,675;40444,676; 8,64173
 655,25; 3710,163;  239,213;40461,716; 8,62937
 655,83; 3701,523;  228,136;40508,141; 8,62310
 656,40; 3739,805;  271,598;40445,104; 8,63307
 656,98; 3711,550;  254,136;40318,683; 8,62961
 657,55; 3662,524;  246,829;40238,184; 8,54108
 658,13; 3590,576;  248,060;39854,147; 8,43940
 658,70; 3602,244;  253,521;39571,803; 8,51696
 659,28; 3445,680;  246,060;38705,305; 8,31951
 659,85; 3414,424;  262,675;37995,652; 8,35277
 660,43; 3373,399;  272,213;38124,539; 8,19285
 661,00; 3328,220;  257,675;38183,887; 8,09610
 661,58; 3370,349;  241,060;38596,927; 8,15857
 662,15; 3383,478;  242,598;38731,659; 8,16045
 662,73; 3452,991;  301,983;39005,930; 8,14131
 663,30; 3414,889;  253,367;39203,816; 8,11678
 663,88; 3415,479;  256,060;39421,702; 8,06681
 664,45; 3420,377;  244,367;39620,666; 8,06579
 665,03; 3421,814;  254,521;39985,937; 7,97176
 665,60; 3522,789;  316,214;40520,746; 7,97566
 666,17; 3409,533;  254,598;40428,017; 7,85329
 666,75; 3451,046;  242,214;40843,288; 7,90332
 667,32; 3467,329;  267,829;41217,482; 7,81325
 667,90; 3468,611;  245,598;41383,445; 7,83467
 668,47; 3500,509;  271,367;41710,177; 7,79255
 669,05; 3494,946;  246,675;41959,987; 7,78713
 669,62; 3450,767;  232,675;42068,334; 7,69222
 670,19; 3488,434;  233,983;42169,990; 7,76052
 670,77; 3459,794;  254,214;42304,492; 7,62321
 671,34; 3450,846;  242,829;42208,070; 7,64446
 671,92; 3458,590;  232,214;42635,572; 7,60878
 672,49; 3495,488;  258,368;42667,920; 7,63300
 673,06; 3386,232;  202,444;42635,114; 7,50315
 673,64; 3443,822;  231,368;42700,461; 7,56422
 674,21; 3459,259;  228,137;42609,886; 7,62385
 674,79; 3513,157;  249,060;42890,311; 7,65479
 675,36; 3479,593;  255,906;42975,966; 7,54607
 675,93; 3411,876;  214,368;42917,237; 7,48781
 676,51; 3486,774;  257,060;43025,124; 7,55170
 677,08; 3482,364;  251,983;43040,702; 7,54961
 677,65; 3475,801;  256,752;43272,204; 7,48347
 678,23; 3487,929;  252,675;43462,936; 7,48724
 678,80; 3466,443;  246,137;43560,438; 7,43474
 679,38; 3489,956;  238,214;43675,940; 7,48599
 679,95; 3504,085;  255,983;43972,518; 7,42992
 680,52; 3517,291;  243,522;44151,789; 7,45593
 681,10; 3587,727;  266,445;44679,675; 7,47814
 681,67; 3550,702;  258,752;44925,254; 7,37006
 682,24; 3553,138;  222,214;44956,371; 7,44604
 682,82; 3616,190;  236,829;45528,796; 7,46128
 683,39; 3661,627;  280,214;45801,605; 7,42818
 683,96; 3645,832;  252,060;46075,414; 7,40621
 684,54; 3645,038;  225,060;46441,070; 7,39999
 685,11; 3745,705;  270,675;46745,956; 7,47716
 685,68; 3728,373;  238,906;47180,458; 7,43364
 686,25; 3725,963;  222,445;47207,498; 7,45667
 686,83; 3737,938;  225,829;47329,000; 7,45620
 687,40; 3756,528;  224,522;47665,886; 7,44499
 687,97; 3838,041;  266,599;48162,003; 7,45675
 688,55; 3765,555;  221,214;48141,505; 7,39633
 689,12; 3764,914;  205,291;48464,929; 7,37598
 689,69; 3813,658;  221,676;48479,431; 7,44333
 690,26; 3831,480;  241,676;48570,240; 7,42791
 690,84; 3839,378;  231,368;48818,896; 7,42579
 691,41; 3877,891;  239,599;48830,320; 7,48763
 691,98; 3891,404;  240,752;49118,591; 7,46893
 692,56; 3883,456;  229,214;49195,785; 7,46273
 693,13; 3932,200;  281,137;49234,749; 7,45821
 693,70; 3960,406;  247,522;49411,558; 7,55203
 694,27; 3912,689;  224,676;49584,367; 7,47171
 694,84; 3895,510;  226,599;49660,792; 7,42181
 695,42; 4003,715;  276,291;49738,524; 7,53590
 695,99; 3940,998;  240,599;50041,565; 7,43038
 696,56; 3977,127;  230,983;49822,989; 7,55393
 697,13; 4011,640;  251,522;50241,106; 7,52180
 697,71; 3984,615;  224,214;50276,993; 7,51287
 698,28; 4001,744;  233,368;50717,956; 7,46441
 698,85; 3974,642;  210,676;50624,227; 7,46618
 699,42; 4006,001;  210,137;50795,728; 7,50384
 699,99; 4052,284;  266,753;50976,999; 7,46502
 700,57; 4059,951;  247,906;50926,347; 7,52202
 701,14; 4049,849;  226,060;51028,464; 7,52679
 701,71; 4107,440;  245,445;51214,043; 7,57720
 702,28; 4081,491;  243,445;51274,390; 7,52102
 702,85; 4116,312;  254,676;51489,815; 7,53709
 703,43; 4166,749;  256,291;51675,163; 7,60510
 704,00; 4225,185;  276,907;51821,280; 7,65996
 704,57; 4178,468;  255,599;51809,012; 7,60933
 705,14; 4196,366;  290,830;52136,437; 7,53301
 705,71; 4230,187;  281,599;52095,785; 7,62067
 706,28; 4239,547;  260,676;52033,056; 7,68532
 706,86; 4288,137;  285,368;52219,096; 7,70746
 707,43; 4300,727;  317,060;52161,136; 7,68394
 708,00; 4301,548;  284,368;52207,869; 7,73673
 708,57; 4264,908;  261,984;52063,293; 7,72746
 709,14; 4321,498;  291,830;52260,256; 7,75407
 709,71; 4321,088;  259,137;52303,527; 7,80478
 710,28; 4352,063;  265,676;52506,952; 7,82214
 710,86; 4394,500;  276,137;52649,685; 7,86344
 711,43; 4430,629;  282,445;52711,955; 7,91192
 712,00; 4373,373;  261,984;52665,534; 7,84563
 712,57; 4423,348;  282,214;52900,113; 7,87020
 713,14; 4462,323;  260,061;52861,153; 7,98893
 713,71; 4456,144;  263,522;52892,808; 7,96633
 714,28; 4477,195;  250,599;52935,079; 8,02247
 714,85; 4473,017;  243,907;52642,965; 8,07097
 715,42; 4516,299;  241,753;52961,775; 8,10801
 716,00; 4597,043;  301,061;53003,353; 8,15142
 716,57; 4561,941;  241,061;53124,316; 8,17060
 717,14; 4583,070;  236,368;53061,972; 8,22840
 717,71; 4570,430;  220,138;53154,935; 8,21821
 718,28; 4678,174;  271,522;53179,821; 8,32885
 718,85; 4605,226;  234,830;53209,631; 8,24995
 719,42; 4636,277;  237,522;53375,440; 8,27800
 719,99; 4646,483;  220,907;53217,326; 8,35071
 720,56; 4735,227;  245,753;53485,367; 8,43258
 721,13; 4718,971;  226,830;53548,253; 8,42465
 721,70; 4715,946;  214,522;53383,601; 8,46624
 722,27; 4782,767;  254,984;53449,179; 8,51180
 722,84; 4825,665;  290,368;53625,296; 8,50343
 723,41; 4742,948;  219,292;53601,952; 8,47402
 723,98; 4814,769;  237,984;53809,223; 8,54336
 724,55; 4859,052;  271,753;53838,109; 8,56377
 725,12; 4824,334;  194,138;53899,611; 8,62146
 725,69; 4897,694;  222,599;53996,343; 8,69401
 726,27; 4926,669;  238,676;54020,691; 8,71665
 726,84; 4968,874;  237,215;54352,962; 8,74359
 727,41; 5008,542;  247,599;54325,310; 8,80389
 727,98; 5061,132;  253,522;54627,042; 8,84182
 728,55; 5075,953;  270,369;54566,774; 8,85065
 729,12; 5057,082;  219,830;54591,199; 8,89669
 729,69; 5135,595;  273,292;54819,855; 8,91404
 730,26; 5149,955;  249,599;54991,972; 8,95167
 730,82; 5179,776;  246,676;54801,858; 9,04240
 731,39; 5227,597;  243,445;54894,283; 9,11999
 731,96; 5227,033;  232,984;55116,169; 9,09942
 732,53; 5308,008;  244,215;55468,824; 9,16945
 733,10; 5328,676;  258,984;55492,711; 9,17862
 733,67; 5379,574;  244,599;55699,751; 9,25969
 734,24; 5365,779;  243,676;55432,099; 9,28112
 734,81; 5401,293;  270,369;55555,754; 9,28080
 735,38; 5402,037;  249,599;55315,256; 9,35690
 735,95; 5384,704;  240,676;55056,219; 9,38425
 736,52; 5396,833;  263,676;55354,336; 9,31765
 737,09; 5448,269;  261,599;54997,838; 9,47575
 737,66; 5490,629;  299,369;55233,109; 9,45004
 738,23; 5501,142;  250,215;55200,072; 9,55585
 738,80; 5629,579;  305,599;55528,573; 9,64088
 739,37; 5596,861;  286,523;55690,383; 9,58478
 739,94; 5633,836;  251,830;55706,423; 9,70525
 740,51; 5765,042;  352,753;55704,078; 9,77806
 741,07; 5663,401;  256,292;55709,349; 9,75079
 741,64; 5725,684;  285,215;55927,697; 9,77755
 742,21; 5733,659;  260,753;55903,353; 9,83582
 742,78; 5727,711;  224,523;55704,931; 9,91916
 743,35; 5774,763;  256,446;56020,510; 9,89583
 743,92; 5875,353;  292,984;56187,781; 9,98728
 744,49; 5858,943;  282,984;56069,821; 9,99512
 745,06; 5831,687;  246,984;56056,707;10,00668
 745,63; 5902,124;  240,984;56037,055;10,14613
 746,19; 5934,406;  236,753;56016,326;10,21459
 746,76; 5918,920;  263,677;56017,520;10,14323
 747,33; 5936,125;  245,907;56044,021;10,19787
 747,90; 6029,562;  276,446;56258,908;10,27664
 748,47; 6007,921;  260,292;56098,563;10,29335
 749,04; 6057,204;  267,369;56140,065;10,36255
 749,61; 6102,410;  277,446;56087,874;10,43705
 750,17; 6079,539;  273,677;56126,453;10,39494
 750,74; 6129,513;  266,754;56050,339;10,50983
 751,31; 6107,642;  242,677;56038,379;10,51150
 751,88; 6120,771;  237,215;55875,804;10,57460
 752,45; 6189,900;  254,292;55955,306;10,65619
 753,02; 6217,952;  267,523;55796,423;10,71591
 753,58; 6267,850;  245,523;55712,924;10,85742
 754,15; 6286,594;  249,600;55850,580;10,85771
 754,72; 6274,799;  253,907;55587,620;10,88106
 755,29; 6316,544;  225,215;55477,429;11,02459
 755,86; 6344,134;  243,600;55599,392;11,02059
 756,42; 6429,417;  254,446;55484,202;11,18051
 756,99; 6379,622;  215,600;55437,396;11,16230
 757,56; 6394,443;  226,908;55457,897;11,16680
 758,13; 6422,187;  191,446;55448,784;11,27586
 758,70; 6462,624;  208,754;55384,285;11,33450
 759,26; 6543,522;  206,600;55497,633;11,46103
 759,83; 6558,958;  215,138;55651,904;11,44334
 760,40; 6585,087;  207,292;55360,559;11,56377
 760,97; 6564,216;  192,677;55437,446;11,53329
 761,53; 6607,422;  189,677;54953,794;11,71889
 762,10; 6585,397;  179,523;55044,218;11,67577
 762,67; 6640,987;  222,215;55154,181;11,68495
 763,24; 6585,269;  166,523;54675,760;11,77552
 763,80; 6676,860;  201,754;54842,877;11,85024
 764,37; 6645,065;  204,061;54755,379;11,80724
 764,94; 6585,810;  199,600;54295,573;11,80533
 765,50; 6688,246;  197,369;54383,382;11,97888
 766,07; 6714,144;  246,215;54367,653;11,95077
 766,64; 6689,657;  210,138;54001,770;12,04559
 767,21; 6709,402;  223,831;53891,656;12,08465
 767,77; 6752,530;  239,754;53840,927;12,15044
 768,34; 6789,736;  242,215;53776,737;12,23046
 768,91; 6777,788;  242,292;53575,084;12,25418
 769,47; 6802,609;  247,215;53579,817;12,29153
 770,04; 6796,353;  232,600;53440,011;12,33616
 770,61; 6767,174;  225,215;53255,435;12,33628
 771,18; 6792,380;  208,446;53085,091;12,45150
 771,74; 6911,432;  235,292;53323,285;12,57561
 772,31; 6894,714;  230,215;53058,940;12,61529
 772,88; 6838,151;  214,446;52707,750;12,61819
 773,44; 6852,126;  218,446;52618,482;12,65968
 774,01; 6938,562;  234,446;52727,599;12,77141
 774,58; 6904,922;  223,216;52399,947;12,80591
 775,14; 6962,204;  211,600;52576,064;12,89158
 775,71; 6959,487;  215,985;52494,797;12,89911
 776,27; 7080,385;  268,600;52398,067;13,06705
 776,84; 7146,591;  295,139;52499,492;13,12429
 777,41; 7040,335;  235,139;52180,071;13,10079
 777,97; 7029,848;  231,985;51969,342;13,13918
 778,54; 7055,746;  238,369;51924,766;13,18989
 779,11; 7202,721;  260,293;51930,191;13,43612
 779,67; 7105,004;  214,677;51953,308;13,31757
 780,24; 7164,748;  238,523;51668,887;13,46719
 780,80; 7172,646;  249,523;51699,773;13,45596
 781,37; 7211,159;  243,293;51610,659;13,56477
 781,94; 7219,826;  234,908;51420,238;13,64633
 782,50; 7247,032;  240,293;51404,739;13,69455
 783,07; 7286,776;  254,677;51467,472;13,73114
 783,63; 7302,905;  221,908;51216,358;13,88582
 784,20; 7308,111;  253,523;51172,475;13,85454
 784,77; 7324,778;  231,062;50910,054;13,99735
 785,33; 7314,907;  212,985;50735,940;14,05682
 785,90; 7333,728;  234,600;50656,749;14,07938
 786,46; 7390,626;  250,446;50620,020;14,17558
 787,03; 7371,293;  221,446;50350,599;14,26285
 787,59; 7392,191;  236,600;50371,947;14,27255
 788,16; 7382,012;  240,985;50292,141;14,26746
 788,73; 7446,295;  244,062;50144,565;14,43319
 789,29; 7426,962;  228,677;49801,529;14,52062
 789,86; 7512,398;  253,677;49716,876;14,67499
 790,42; 7453,219;  235,908;49448,378;14,66562
 790,99; 7444,502;  250,831;49178,649;14,70262
 791,55; 7443,477;  224,447;49200,535;14,73991
 792,12; 7504,606;  259,216;49231,883;14,79476
 792,68; 7476,658;  242,216;48849,846;14,88335
 793,25; 7500,402;  241,293;48615,886;15,00604
 793,81; 7565,915;  295,600;48344,542;15,13106
 794,38; 7459,813;  207,370;48147,736;15,12805
 794,94; 7463,634;  218,985;47935,007;15,18284
 795,51; 7556,609;  247,447;47653,431;15,41823
 796,07; 7484,738;  240,139;47466,087;15,34029
 796,64; 7548,790;  244,216;47469,204;15,46760
 797,20; 7518,534;  241,677;47105,552;15,52765
 797,77; 7471,663;  215,908;46680,823;15,61556
 798,33; 7460,407;  226,370;46547,632;15,61710
 798,90; 7475,766;  256,524;46521,903;15,60398
 799,46; 7450,049;  225,601;45897,789;15,81805
 800,03; 7483,562;  238,831;45879,368;15,87346
 800,59; 7464,076;  250,601;45703,177;15,87033
 801,15; 7484,051;  252,985;45521,910;15,97357
 801,72; 7448,026;  240,293;45155,334;16,04748
 802,28; 7454,770;  265,370;44877,221;16,11545
 802,85; 7418,129;  236,524;44621,338;16,18032
 803,41; 7398,950;  237,447;44556,762;16,15888
 803,98; 7339,310;  235,293;44047,418;16,21473
 804,54; 7372,439;  233,524;43920,766;16,34096
 805,11; 7349,260;  241,139;43638,113;16,37930
 805,67; 7377,312;  261,216;43593,461;16,42217
 806,23; 7355,902;  241,216;43168,732;16,57372
 806,80; 7362,108;  247,985;43040,695;16,62461
 807,36; 7384,698;  257,447;43046,812;16,65659
 807,93; 7370,980;  278,985;42722,237;16,70936
 808,49; 7348,955;  222,216;42402,585;16,89587
 809,05; 7326,623;  207,601;42154,087;16,97168
 809,62; 7362,521;  251,524;42141,511;16,97541
 810,18; 7342,034;  246,755;42042,551;16,97606
 810,74; 7326,932;  216,985;41760,822;17,11432
 811,31; 7352,138;  210,601;41524,709;17,28595
 811,87; 7377,959;  234,524;41277,903;17,40460
 812,44; 7431,857;  254,524;41479,250;17,41026
 813,00; 7328,293;  192,293;41034,598;17,47208
 813,56; 7392,499;  243,139;41162,484;17,47183
 814,13; 7423,474;  233,985;41008,448;17,63233
 814,69; 7376,526;  236,062;40900,949;17,55928
 815,25; 7312,270;  207,139;40381,066;17,68592
 815,82; 7373,014;  240,755;40351,491;17,78142
 816,38; 7434,066;  268,601;40127,762;17,97696
 816,94; 7361,272;  215,062;39958,802;17,98072
 817,51; 7334,246;  212,524;39646,535;18,05985
 818,07; 7315,529;  218,909;39392,882;18,11565
 818,63; 7286,889;  231,755;39210,307;18,10004
 819,20; 7322,171;  227,524;39112,270;18,24532
 819,76; 7315,223;  214,909;38788,849;18,40702
 820,32; 7336,967;  256,139;38646,966;18,44406
 820,89; 7249,096;  247,370;38460,391;18,32288
 821,45; 7246,379;  214,986;38189,431;18,51612
 822,01; 7269,430;  233,216;37871,086;18,69451
 822,57; 7235,482;  241,063;37855,280;18,59515
 823,14; 7170,611;  211,293;37486,167;18,67027
 823,70; 7193,048;  219,293;37306,745;18,80354
 824,26; 7172,638;  214,139;37121,939;18,85373
 824,82; 7222,613;  236,524;37027,441;18,98862
 825,39; 7126,511;  214,370;36749,481;18,91917
 825,95; 7225,255;  244,063;36730,752;19,13353
 826,51; 7173,614;  232,755;36361,330;19,21155
 827,08; 7206,589;  261,986;36483,217;19,17274
 827,64; 7210,487;  243,140;36268,334;19,34021
 828,20; 7187,385;  212,370;35898,143;19,54565
 828,76; 7226,206;  253,986;35886,029;19,56728
 829,32; 7264,489;  257,370;35756,454;19,73887
 829,89; 7198,002;  214,293;35706,186;19,67691
 830,45; 7217,516;  239,140;35627,303;19,71952
 831,01; 7234,491;  225,370;35479,190;19,88188
 831,57; 7216,850;  229,986;35345,230;19,89696
 832,14; 7188,056;  211,140;35348,655;19,85603
 832,70; 7184,339;  210,447;35060,695;20,01102
 833,26; 7174,467;  206,678;34902,889;20,08228
 833,82; 7206,596;  235,063;34895,467;20,11383
 834,38; 7259,648;  209,909;34862,200;20,34422
 834,95; 7265,007;  208,063;34716,471;20,44993
 835,51; 7216,752;  186,217;34589,818;20,43546
 836,07; 7310,188;  221,370;34684,397;20,56934
 836,63; 7385,317;  247,909;34621,206;20,76440
 837,19; 7368,676;  234,524;34434,862;20,85989
 837,75; 7302,344;  190,217;34086,287;20,98216
 838,32; 7383,088;  249,371;34296,327;20,95258
 838,88; 7404,293;  242,447;34342,905;21,00220
 839,44; 7385,268;  229,217;34228,561;21,04762
 840,00; 7447,243;  220,217;34125,293;21,31547
 840,56; 7380,295;  212,294;33756,487;21,36883
 841,12; 7427,885;  207,601;33786,296;21,50258
 841,68; 7360,322;  198,140;33638,490;21,41778
 842,25; 7413,605;  209,371;33518,838;21,62819
 842,81; 7385,272;  211,678;33322,032;21,66571
 843,37; 7409,093;  207,601;33416,226;21,68561
 843,93; 7432,299;  215,140;33342,497;21,78610
 844,49; 7466,197;  230,678;33339,999;21,85342
 845,05; 7401,710;  189,140;33131,347;21,89462
 845,61; 7483,685;  237,524;33205,002;21,97972
 846,17; 7472,044;  208,294;33015,658;22,14061
 846,73; 7472,558;  217,217;33016,775;22,12024
 847,29; 7442,917;  200,525;32860,661;22,17502
 847,86; 7407,046;  207,217;32722,009;22,14324
 848,42; 7412,713;  196,140;32543,203;22,30983
 848,98; 7477,304;  216,678;32561,858;22,44732
 849,54; 7446,817;  199,755;32552,283;22,40030
 850,10; 7495,407;  224,755;32341,708;22,63805
 850,66; 7438,459;  201,063;32299,517;22,54749
 851,22; 7420,357;  193,832;32128,403;22,62916
 851,78; 7487,563;  247,832;32229,674;22,63700
 852,34; 7443,153;  222,755;31870,637;22,81479
 852,90; 7421,359;  213,602;31847,831;22,78468
 853,46; 7419,103;  204,294;31624,410;22,96239
 854,02; 7481,155;  213,678;31638,450;23,12658
 854,58; 7395,130;  204,678;31429,105;23,02829
 855,14; 7428,028;  201,986;31338,761;23,20742
 855,70; 7364,233;  176,755;31218,416;23,15430
 856,26; 7417,439;  235,371;31233,534;23,16934
 856,82; 7434,799;  203,371;30950,574;23,51898
 857,38; 7445,774;  242,217;30908,614;23,49006
 857,94; 7435,056;  209,986;30828,577;23,59700
 858,50; 7428,185;  226,294;30618,617;23,69641
 859,06; 7402,468;  202,448;30493,426;23,76952
 859,62; 7410,750;  218,602;30468,390;23,77586
 860,18; 7413,648;  212,986;30324,584;23,91325
 860,74; 7373,777;  181,909;30105,547;24,03407
 861,30; 7380,213;  194,217;29888,125;24,20024
 861,86; 7507,958;  241,679;30023,935;24,39801
 862,42; 7421,394;  212,679;29767,821;24,39073
 862,98; 7543,907;  233,679;29734,476;24,77977
 863,54; 7469,113;  222,756;29541,209;24,71603
 864,10; 7519,934;  220,525;29542,249;24,89420
 864,66; 7400,678;  201,140;29320,905;24,72389
 865,22; 7427,807;  212,602;29224,714;24,86963
 865,78; 7445,320;  228,217;29105,677;24,99217
 866,34; 7418,757;  205,140;29035,333;25,02105
 866,90; 7419,039;  218,679;28876,911;25,12493
 867,45; 7421,476;  216,525;28690,105;25,30399
 868,01; 7360,912;  223,756;28554,145;25,19258
 868,57; 7328,195;  204,910;28341,955;25,31640
 869,13; 7332,555;  194,525;28286,995;25,40905
 869,69; 7297,222;  204,294;28199,343;25,33637
 870,25; 7285,658;  197,602;28030,152;25,46679
 870,81; 7251,325;  210,525;27974,346;25,35962
 871,37; 7293,608;  215,679;27896,617;25,56969
 871,93; 7265,275;  229,910;27765,580;25,55001
 872,49; 7231,712;  239,987;27545,697;25,60536
 873,04; 7131,764;  197,833;27359,506;25,52836
 873,60; 7106,431;  200,602;27265,546;25,51577
 874,16; 7171,944;  224,910;27204,048;25,74965
 874,72; 7128,944;  203,910;27066,048;25,77991
 875,28; 7120,560;  218,910;27009,971;25,76102
 875,84; 7131,560;  216,833;26925,510;25,88944
 876,40; 7129,098;  209,756;26853,587;25,96977
 876,95; 7127,329;  219,833;26916,356;25,87414
 877,51; 7173,560;  234,833;26936,817;25,98581
 878,07; 7180,098;  242,833;26841,817;26,08094
 878,63; 7165,560;  211,910;26853,587;26,10065
 879,19; 7207,944;  230,448;26860,279;26,20180
 879,75; 7246,098;  209,910;26893,740;26,36873
 880,30; 7272,713;  209,756;26889,971;26,47264
 880,86; 7397,098;  243,833;27000,202;26,73481
 881,42; 7315,021;  192,525;27050,202;26,51941
 881,98; 7373,483;  226,756;27168,048;26,52704
 882,54; 7413,560;  211,525;27217,663;26,66814
 883,09; 7478,406;  227,756;27339,279;26,74379
 883,65; 7544,483;  197,602;27335,202;27,07270
 884,21; 7652,483;  238,987;27546,587;27,14811
 884,77; 7653,560;  211,217;27684,202;27,08968
 885,32; 7744,713;  213,756;27806,202;27,29355
 885,88; 7797,713;  241,679;27903,587;27,31567
 886,44; 7855,098;  225,140;27971,202;27,49925
 887,00; 7810,406;  228,140;27985,048;27,31668
 887,56; 7866,944;  213,910;28107,048;27,43698
 888,11; 7901,098;  212,602;28153,740;27,51676
 888,67; 7991,944;  250,371;28319,202;27,58068
 889,23; 8013,021;  220,987;28304,202;27,74623
 889,79; 7988,406;  195,294;28167,279;27,86042
 890,34; 7998,329;  221,448;28126,510;27,86907
 890,90; 8116,021;  274,448;28239,510;28,04061
 891,46; 8033,713;  206,756;28133,894;28,02635
 892,01; 8098,713;  235,910;28142,202;28,17574
 892,57; 8108,637;  242,525;28027,433;28,31073
 893,13; 7987,406;  214,371;27874,510;28,10194
 893,69; 8010,867;  206,679;27834,433;28,24764
 894,24; 7996,713;  209,833;27745,433;28,27932
 894,80; 7999,175;  209,756;27656,048;28,38059
 895,36; 7955,637;  214,679;27516,279;28,35349
 895,91; 7892,790;  217,833;27286,202;28,35397
 896,47; 7932,252;  232,140;27175,510;28,57887
 897,03; 7860,329;  213,679;26974,740;28,57379
 897,58; 7874,175;  228,679;26837,587;28,73284
 898,14; 7846,713;  227,679;26705,740;28,77490
 898,70; 7799,329;  196,140;26521,433;28,88169
 899,25; 7839,637;  210,294;26541,740;28,97426
 899,81; 7812,560;  217,371;26378,202;29,03267
 900,37; 7761,637;  187,525;26079,894;29,25229
 900,92; 7781,483;  213,525;26093,048;29,24303
 901,48; 7736,483;  209,602;26053,279;29,12465
 902,03; 7715,406;  210,140;25818,740;29,30760
 902,59; 7718,175;  213,602;25710,510;29,43327
 903,15; 7710,637;  228,140;25576,202;29,51901
 903,70; 7650,329;  220,602;25382,587;29,52759
 904,26; 7672,483;  197,756;25265,356;29,81828
 904,82; 7656,098;  209,371;25302,202;29,67671
 905,37; 7648,867;  222,140;25079,510;29,87736
 905,93; 7627,483;  211,448;24944,971;29,98374
 906,48; 7609,252;  218,140;24824,279;30,03767
 907,04; 7576,790;  226,833;24824,740;29,88042
 907,60; 7528,713;  205,448;24573,356;30,05291
 908,15; 7530,021;  193,294;24495,202;30,18992
 908,71; 7566,098;  234,140;24481,587;30,23806
 909,26; 7494,790;  212,602;24315,048;30,21348
 909,82; 7508,713;  227,217;24178,433;30,40136
 910,37; 7546,406;  248,217;24143,433;30,54247
 910,93; 7433,406;  211,140;23932,356;30,44644
 911,48; 7414,790;  195,987;23748,740;30,64951
 912,04; 7426,406;  204,371;23688,894;30,75232
 912,60; 7465,329;  218,063;23709,663;30,85045
 913,15; 7378,867;  212,217;23494,202;30,78195
 913,71; 7358,637;  200,602;23282,587;31,01135
 914,26; 7336,483;  192,525;23220,817;31,02252
 914,82; 7369,713;  218,602;23132,510;31,20861
 915,37; 7338,252;  197,217;23068,587;31,22259
 915,93; 7399,175;  254,371;23015,663;31,39015
 916,48; 7289,483;  202,217;22835,894;31,31292
 917,04; 7346,329;  227,910;22721,510;31,64642
 917,59; 7355,713;  232,525;22648,433;31,77738
 918,15; 7226,175;  183,910;22479,740;31,58557
 918,70; 7220,329;  201,294;22344,510;31,69835
 919,26; 7300,483;  216,756;22277,663;32,10986
 919,81; 7249,637;  195,448;22119,125;32,17612
 920,37; 7211,637;  191,063;21986,587;32,21108
 920,92; 7194,790;  227,987;22000,202;31,99860
 921,48; 7146,637;  192,294;21781,971;32,21142
 922,03; 7090,790;  203,063;21755,202;31,95844
 922,59; 7118,098;  198,910;21551,356;32,40466
 923,14; 7141,790;  200,294;21536,971;32,53316
 923,69; 7119,098;  228,987;21373,510;32,58580
 924,25; 7098,713;  231,294;21373,279;32,48238
 924,80; 7042,175;  210,833;21137,125;32,64478
 925,36; 7028,329;  205,371;21097,433;32,65814
 925,91; 7003,713;  207,987;20935,202;32,78649
 926,47; 6990,021;  187,910;20840,663;32,93562
 927,02; 7053,406;  253,063;20835,817;33,03903
 927,57; 6915,406;  199,602;20660,740;32,82224
 928,13; 6924,483;  186,371;20612,663;32,98744
 928,68; 6922,483;  202,448;20522,587;33,07081
 929,24; 6880,021;  168,448;20419,663;33,14158
 929,79; 6854,329;  192,987;20219,971;33,26183
 930,34; 6834,790;  203,910;20070,894;33,37638
 930,90; 6850,252;  199,140;20103,587;33,41521
 931,45; 6929,637;  208,448;20063,971;33,85047
 932,01; 6861,713;  207,294;19824,894;33,92066
 932,56; 6857,867;  221,987;19795,894;33,90167
 933,11; 6922,406;  226,833;19744,663;34,30490
 933,67; 6799,713;  195,833;19569,740;34,08647
 934,22; 6786,790;  203,294;19479,663;34,15320
 934,77; 6794,790;  232,217;19436,202;34,17298
 935,33; 6730,175;  214,525;19295,279;34,14776
 935,88; 6739,021;  217,063;19181,510;34,39045
 936,43; 6703,175;  193,371;19164,663;34,31397
 936,99; 6702,637;  211,063;19027,510;34,49946
 937,54; 6639,944;  184,140;18841,894;34,60118
 938,09; 6684,175;  208,602;18791,740;34,84650
 938,65; 6609,637;  209,294;18645,817;34,71556
 939,20; 6564,713;  183,294;18601,740;34,64689
 939,75; 6579,329;  189,525;18505,356;34,88678
 940,31; 6536,867;  185,448;18393,971;34,88157
 940,86; 6546,867;  209,756;18389,048;34,85896
 941,41; 6615,021;  261,063;18269,817;35,28261
 941,96; 6506,867;  201,910;18149,433;35,12996
 942,52; 6466,867;  202,294;18048,125;35,10385
 943,07; 6430,637;  182,910;17949,125;35,16634
 943,62; 6394,483;  199,525;17862,740;35,07265
 944,18; 6406,867;  198,987;17755,663;35,35909
 944,73; 6367,713;  209,371;17721,510;35,16614
 945,28; 6273,790;  172,910;17468,510;35,27418
 945,83; 6300,867;  192,910;17503,740;35,28402
 946,39; 6276,867;  190,910;17489,740;35,18132
 946,94; 6280,944;  218,063;17365,510;35,35734
 947,49; 6264,713;  202,756;17228,740;35,60415
 948,04; 6316,944;  222,756;17257,663;35,77471
 948,59; 6226,021;  224,448;17127,510;35,50583
 949,15; 6223,175;  181,987;17016,356;35,88604
 949,70; 6194,252;  203,602;16957,587;35,75657
 950,25; 6198,483;  216,063;16872,894;35,91571
 950,80; 6142,175;  170,140;16704,125;36,11975
 951,36; 6102,252;  166,602;16642,279;36,02674
 951,91; 6166,944;  215,756;16653,279;36,20490
 952,46; 6078,867;  188,217;16474,125;36,17023
 953,01; 6127,483;  211,756;16479,279;36,36526
 953,56; 6056,406;  182,217;16339,663;36,35592
 954,11; 6093,021;  208,217;16342,971;36,47285
 954,67; 6067,790;  186,602;16240,433;36,63418
 955,22; 5983,252;  165,140;16065,125;36,59193
 955,77; 6009,713;  227,371;16076,510;36,48364
 956,32; 6026,867;  233,525;15970,125;36,81445
 956,87; 5961,021;  188,217;15816,356;36,93853
 957,42; 5969,867;  199,448;15744,202;37,12133
 957,98; 5962,713;  195,525;15677,125;37,25189
 958,53; 5990,790;  216,679;15685,894;37,32647
 959,08; 5897,098;  190,756;15538,048;37,18143
 959,63; 5913,021;  185,140;15422,356;37,59139
 960,18; 5935,252;  204,063;15400,817;37,71324
 960,73; 5878,098;  202,756;15353,048;37,46028
 961,28; 5863,175;  188,371;15228,510;37,73106
 961,83; 5865,713;  205,525;15224,510;37,68689
 962,39; 5855,483;  184,602;15026,894;38,20758
 962,94; 5848,175;  217,756;14998,510;38,09291
 963,49; 5800,406;  202,756;14846,048;38,22672
 964,04; 5787,483;  212,063;14804,971;38,20636
 964,59; 5728,483;  170,140;14735,356;38,16176
 965,14; 5757,021;  214,140;14637,740;38,42925
 965,69; 5739,252;  204,525;14532,356;38,62920
 966,24; 5677,790;  189,910;14443,894;38,50068
 966,79; 5666,713;  215,217;14397,125;38,43979
 967,34; 5608,483;  169,448;14195,587;38,77785
 967,89; 5626,483;  195,679;14179,048;38,83759
 968,44; 5565,329;  205,294;14128,740;38,49647
 968,99; 5572,175;  210,679;14066,740;38,69423
 969,55; 5555,329;  202,910;13953,817;38,92412
 970,10; 5488,867;  205,756;13867,587;38,67060
 970,65; 5513,098;  216,217;13742,587;39,15966
 971,20; 5461,944;  194,140;13683,510;39,05152
 971,75; 5411,790;  175,833;13469,356;39,38728
 972,30; 5379,483;  200,525;13451,663;39,08312
 972,85; 5387,406;  191,756;13365,125;39,44056
 973,40; 5320,098;  191,756;13249,663;39,27384
 973,95; 5308,098;  202,140;13220,740;39,22048
 974,50; 5311,483;  223,448;13146,894;39,37057
 975,05; 5243,560;  201,756;13000,279;39,39364
 975,60; 5293,867;  215,140;12978,894;39,79023
 976,15; 5186,713;  191,833;12840,663;39,48887
 976,70; 5152,406;  203,063;12794,356;39,30766
 977,25; 5155,637;  212,833;12717,817;39,52667
 977,80; 5092,944;  194,679;12616,433;39,43296
 978,35; 5049,713;  218,448;12468,048;39,44019
 978,89; 4980,713;  186,679;12345,510;39,42842
 979,44; 5007,483;  197,756;12355,971;39,55948
 979,99; 4920,790;  186,910;12160,510;39,53599
 980,54; 4981,790;  227,987;12152,356;39,86629
 981,09; 4957,944;  219,140;12073,433;39,97543
 981,64; 4894,021;  206,833;11907,663;40,05860
 982,19; 4911,637;  235,910;11902,510;40,07789
 982,74; 4843,483;  214,987;11733,971;40,18146
 983,29; 4745,637;  191,756;11599,356;39,91971
 983,84; 4746,867;  209,525;11474,202;40,27938
 984,39; 4843,406;  262,833;11432,587;41,00872
 984,94; 4678,637;  178,294;11322,971;40,38109
 985,49; 4711,175;  231,679;11240,587;40,68974
 986,03; 4702,406;  225,217;11184,587;40,85261
 986,58; 4703,406;  245,448;11041,740;41,29156
 987,13; 4623,713;  207,910;10894,587;41,32065
 987,68; 4614,637;  222,140;10822,125;41,43870
 988,23; 4602,560;  221,063;10802,048;41,40915
 988,78; 4538,790;  193,063;10655,433;41,53674
 989,33; 4547,560;  216,833;10548,125;41,91854
 989,88; 4537,098;  224,756;10489,740;42,01022
 990,42; 4442,175;  210,679;10372,433;41,64140
 990,97; 4372,252;  210,833;10237,356;41,50411
 991,52; 4361,406;  229,140;10154,125;41,63498
 992,07; 4346,560;  237,910;10121,663;41,56973
 992,62; 4280,252;  222,448; 9972,356;41,61890
 993,17; 4259,021;  221,448; 9894,663;41,73972
 993,71; 4261,021;  222,756; 9765,433;42,31795
 994,26; 4180,560;  201,371; 9678,125;41,98894
 994,81; 4184,098;  221,140; 9602,510;42,24285
 995,36; 4113,713;  204,371; 9478,894;42,15141
 995,91; 4102,713;  217,679; 9431,356;42,16595
 996,45; 4081,713;  205,140; 9270,279;42,76353
 997,00; 4027,560;  189,987; 9123,740;42,95589
 997,55; 4041,175;  216,987; 9109,587;43,00417
 998,10; 3972,021;  242,756; 8988,433;42,64124
 998,65; 3962,098;  204,140; 8947,356;42,98142
 999,19; 3927,713;  221,371; 8811,663;43,14571
 999,74; 3874,329;  236,987; 8739,510;42,77956
1000,29; 3874,021;  226,294; 8655,202;43,27639
1000,84; 3750,867;  201,679; 8495,894;42,79113
1001,38; 3751,790;  213,217; 8413,971;43,14936
1001,93; 3741,560;  229,910; 8355,356;43,21793
1002,48; 3682,098;  204,448; 8209,125;43,44523
1003,03; 3687,560;  223,910; 8186,894;43,49688
1003,57; 3662,252;  227,833; 8108,663;43,57941
1004,12; 3663,560;  256,371; 7949,048;44,29132
1004,67; 3560,867;  210,602; 7886,356;43,64738
1005,22; 3516,175;  205,448; 7729,125;44,00411
1005,76; 3472,098;  197,833; 7624,356;44,08881
1006,31; 3484,252;  228,217; 7583,894;44,26560
1006,86; 3420,252;  215,140; 7489,663;44,05940
1007,40; 3391,867;  202,602; 7323,587;44,78686
1007,95; 3326,713;  223,910; 7254,587;44,13236
1008,50; 3329,098;  215,910; 7108,048;45,17014
1009,04; 3257,175;  211,987; 7077,894;44,35231
1009,59; 3218,252;  215,525; 6945,279;44,61867
1010,14; 3196,406;  191,063; 6864,587;45,03382
1010,68; 3146,021;  202,217; 6776,971;44,77436
1011,23; 3106,329;  211,987; 6622,356;45,15095
1011,78; 3107,329;  223,525; 6594,279;45,26629
1012,32; 3043,560;  225,910; 6476,740;45,07641
1012,87; 3010,483;  240,063; 6461,279;44,53180
1013,42; 2963,252;  198,602; 6310,740;45,23212
1013,96; 3041,021;  235,063; 6342,587;45,94265
1014,51; 2901,637;  176,679; 6239,510;44,94530
1015,06; 2901,560;  194,294; 6241,663;44,76765
1015,60; 2974,175;  250,756; 6316,817;44,89600
1016,15; 2918,021;  204,140; 6243,894;44,93363
1016,69; 2939,713;  205,371; 6311,587;44,77966
1017,24; 2949,713;  193,371; 6283,202;45,26139
1017,79; 2992,175;  236,756; 6368,663;44,93576
1018,33; 2972,560;  201,063; 6299,663;45,44479
1018,88; 3002,790;  222,679; 6390,048;45,07775
1019,42; 3009,252;  206,987; 6383,202;45,37189
1019,97; 2964,560;  202,525; 6343,279;44,97875
1020,51; 3034,329;  224,679; 6435,125;45,24071
1021,06; 3007,867;  196,679; 6409,048;45,25147
1021,61; 2988,867;  177,525; 6367,587;45,41703
1022,15; 2954,329;  168,140; 6285,279;45,54725
1022,70; 2958,021;  201,987; 6293,663;45,24263
1023,24; 2943,867;  194,217; 6266,125;45,28478
1023,79; 2904,713;  207,602; 6194,279;45,05190
1024,33; 2901,021;  189,140; 6167,740;45,35980
1024,88; 2900,560;  221,371; 6046,740;45,99174
1025,42; 2822,637;  211,140; 5985,356;45,22686
1025,97; 2802,790;  199,833; 5905,663;45,61926
1026,51; 2729,560;  176,063; 5792,817;45,46213
1027,06; 2763,483;  192,217; 5716,433;46,54535
1027,60; 2711,867;  216,217; 5660,356;45,84105
1028,15; 2705,713;  214,910; 5538,048;46,79202
1028,69; 2606,867;  173,602; 5427,894;46,31005
1029,24; 2579,021;  187,294; 5382,663;46,03574
1029,78; 2556,560;  189,910; 5295,048;46,35819
1030,33; 2496,021;  178,679; 5186,817;46,27153
1030,87; 2505,021;  195,679; 5110,356;46,98869
1031,42; 2454,406;  175,833; 5040,510;46,83914
1031,96; 2462,560;  207,525; 4971,587;47,33429
1032,51; 2438,867;  184,833; 4889,202;47,91364
1033,05; 2381,175;  204,679; 4859,971;46,75316
1033,60; 2331,790;  165,525; 4725,971;47,50117
1034,14; 2325,637;  191,679; 4665,971;47,69375
1034,69; 2264,098;  202,140; 4596,433;46,92354
1035,23; 2266,175;  195,987; 4562,356;47,41213
1035,77; 2269,560;  190,448; 4520,048;48,02087
1036,32; 2198,944;  169,525; 4409,433;47,86470
1036,86; 2217,560;  201,679; 4379,817;48,24830
1037,41; 2189,098;  205,756; 4278,279;48,70058
1037,95; 2091,560;  181,679; 4218,971;47,30598
1038,50; 2099,406;  187,217; 4162,510;48,10183
1039,04; 2097,252;  213,910; 4120,587;48,20829
1039,58; 2051,175;  186,140; 4047,740;48,29694
1040,13; 2033,175;  197,525; 3989,048;48,41458
1040,67; 2059,329;  229,448; 3970,817;48,90939
1041,21; 2024,175;  213,140; 3912,740;48,95217
1041,76; 1964,329;  179,679; 3816,356;49,07365
1042,30; 1981,867;  204,063; 3788,125;49,60305
1042,85; 1919,175;  200,448; 3725,971;48,75098
1043,39; 1917,637;  166,910; 3647,125;50,30513
1043,93; 1910,790;  211,217; 3640,894;49,55490
1044,48; 1879,790;  215,679; 3562,663;49,71972
1045,02; 1851,021;  197,525; 3481,279;50,35384
1045,56; 1848,867;  215,294; 3502,971;49,68776
1046,11; 1800,560;  206,756; 3442,894;49,25017
1046,65; 1787,944;  208,448; 3371,663;49,93325
1047,19; 1741,713;  188,063; 3327,279;49,49167
1047,74; 1703,098;  184,833; 3238,510;49,71925
1048,28; 1719,098;  201,910; 3227,279;50,14887
1048,82; 1709,944;  212,833; 3210,510;49,94239
1049,37; 1688,252;  214,602; 3148,048;50,23614
1049,91; 1658,406;  197,756; 3114,433;50,07925
1050,45; 1622,252;  219,140; 3066,971;49,26948
1050,99; 1635,483;  201,294; 3028,587;50,72657
1051,54; 1574,175;  197,756; 2964,587;49,74714
1052,08; 1602,637;  220,217; 2919,125;51,22143
1052,62; 1555,713;  211,756; 2906,356;49,87596
1053,16; 1526,944;  191,525; 2845,894;50,31023
1053,71; 1521,713;  203,756; 2818,202;50,41059
1054,25; 1499,098;  216,371; 2767,125;50,28815
1054,79; 1494,637;  212,910; 2723,048;51,06200
1055,33; 1423,406;  177,602; 2670,279;49,97855
1055,88; 1456,406;  215,371; 2668,587;50,58808
1056,42; 1439,021;  222,987; 2646,817;50,16995
1056,96; 1421,944;  217,140; 2583,048;50,92354
1057,50; 1402,944;  211,371; 2545,433;51,05149
1058,05; 1375,175;  200,987; 2502,356;51,02130
1058,59; 1397,021;  229,294; 2489,279;51,66968
1059,13; 1331,867;  186,525; 2424,894;51,16860
1059,67; 1330,637;  224,448; 2421,433;50,35031
1060,21; 1317,406;  213,063; 2344,817;51,80440
1060,76; 1306,021;  221,602; 2316,433;51,76644
1061,30; 1300,329;  226,910; 2312,279;51,47382
1061,84; 1271,867;  213,448; 2244,202;52,11952
1062,38; 1213,483;  192,063; 2193,048;51,04583
1062,92; 1280,098;  240,910; 2237,279;52,05392
1063,46; 1259,560;  224,679; 2158,433;53,51668
1064,01; 1206,944;  204,217; 2134,894;51,93655
1064,55; 1207,098;  213,140; 2102,048;52,62077
1065,09; 1148,560;  185,063; 2060,048;51,38688
1065,63; 1206,560;  239,140; 2071,202;52,80495
1066,17; 1213,637;  242,217; 2045,971;53,85542
1066,71; 1169,329;  226,217; 2023,587;52,47177
1067,25; 1144,560;  211,294; 1967,433;53,14304
1067,80; 1138,637;  219,679; 1961,433;52,76048
1068,34; 1142,944;  242,756; 1928,971;53,38514
1068,88; 1082,790;  201,448; 1891,510;52,14853
1069,42; 1114,483;  241,294; 1921,433;51,97122
1069,96; 1095,483;  200,217; 1850,279;54,25648
1070,50; 1117,175;  241,910; 1861,433;54,04464
1071,04; 1048,252;  192,756; 1814,817;52,74129
1071,58; 1038,175;  210,602; 1809,510;51,75865
1072,12; 1050,175;  207,987; 1767,971;53,98697
1072,66; 1040,252;  205,602; 1757,356;53,78753
1073,21; 1042,252;  228,371; 1752,202;53,41018
1073,75;  991,175;  226,602; 1707,202;51,63941
1074,29;  994,483;  218,371; 1684,433;52,93854
1074,83; 1009,713;  233,140; 1701,125;52,90063
1075,37; 1017,021;  230,525; 1658,202;55,08923
1075,91;  992,175;  224,987; 1647,663;53,92570
1076,45;  971,406;  217,063; 1628,894;53,43008
1076,99;  974,329;  236,756; 1589,125;54,53933
1077,53;  927,406;  206,525; 1573,971;52,71731
1078,07;  929,713;  222,525; 1573,433;52,34913
1078,61;  936,098;  217,833; 1538,894;54,37032
1079,15;  927,483;  212,525; 1524,663;54,48798
1079,69;  907,713;  216,140; 1491,433;54,22859
1080,23;  918,483;  233,833; 1482,587;54,82666
1080,77;  966,021;  267,910; 1506,048;56,38396
1081,31;  881,790;  213,679; 1440,894;54,44126
1081,85;  891,406;  224,602; 1452,048;54,32449
1082,39;  871,406;  209,294; 1414,663;54,93018
1082,93;  869,406;  221,063; 1410,894;54,49030
1083,47;  832,021;  196,140; 1361,971;54,54315
1084,01;  854,329;  236,140; 1391,587;53,50214
1084,55;  838,098;  209,987; 1330,510;56,05521
1085,09;  827,406;  230,448; 1354,202;53,12175
1085,63;  818,944;  214,371; 1322,894;54,53861
1086,17;  812,021;  212,679; 1282,433;56,02619
1086,71;  787,098;  213,910; 1289,356;53,29774
1087,24;  807,637;  232,140; 1300,663;53,85903
1087,78;  818,867;  224,833; 1273,817;56,62949
1088,32;  759,175;  215,217; 1228,202;53,69851
1088,86;  788,637;  241,987; 1251,202;54,16584
1089,40;  778,252;  217,602; 1222,433;55,79546
1089,94;  735,329;  195,833; 1181,433;54,73784
1090,48;  752,944;  226,833; 1185,279;54,89213
1091,02;  765,252;  232,833; 1181,587;56,11774
1091,56;  747,483;  218,756; 1171,971;55,46773
1092,10;  717,867;  200,217; 1147,971;54,61861
1092,63;  739,252;  234,987; 1154,740;54,82612
1093,17;  738,637;  233,294; 1125,587;56,63417
1093,71;  706,713;  209,294; 1113,279;55,02519
1094,25;  720,867;  235,448; 1131,817;54,15394
1094,79;  696,637;  218,371; 1087,048;55,05676
1095,33;  701,790;  220,679; 1067,279;56,82867
1095,87;  679,021;  228,448; 1063,817;53,93700
1096,40;  663,406;  198,679; 1024,663;56,26339
1096,94;  680,406;  216,987; 1045,894;55,90722
1097,48;  685,175;  219,833; 1024,048;57,86290
1098,02;  654,483;  211,371; 1015,894;55,07754
1098,56;  612,867;  189,679;  980,048;53,54313
1099,10;  616,329;  185,833;  971,894;54,76622
1099,63;  629,406;  200,987;  948,587;57,30594
1100,17;  649,867;  222,602;  979,433;56,45455
1100,71;  658,329;  243,140;  987,433;55,78298

