
Integration time [ms]: 130,000
Averaging Nr. [scans]: 13
Smoothing Nr. [pixels]: 0
Data measured with spectrometer [name]: 2009305U1
Wave   ;Sample   ;Dark     ;Reference;Reflectance
[nm]   ;[counts] ;[counts] ;[counts] ;[%]

 175,72;  198,842;  211,216;  205,653; 0,00000
 176,32;  232,938;  243,684;  216,813; 0,00000
 176,92;  266,983;  267,603;  254,971; 0,00000
 177,52;  257,030;  259,756;  265,678;-46,03353
 178,12;  242,640;  234,376;  224,864; 0,00000
 178,72;  264,783;  262,300;  250,340; 0,00000
 179,32;  255,699;  259,914;  241,998; 0,00000
 179,92;  255,347;  254,066;  242,319; 0,00000
 180,52;  241,269;  241,983;  254,068;-5,90312
 181,12;  263,506;  256,143;  252,404; 0,00000
 181,73;  283,550;  279,373;  266,338; 0,00000
 182,33;  363,072;  362,370;  336,927; 0,00000
 182,93;  282,152;  276,679;  266,645; 0,00000
 183,53;  245,212;  232,763;  224,030; 0,00000
 184,13;  243,067;  236,377;  229,431; 0,00000
 184,73;  277,388;  286,763;  273,739; 0,00000
 185,33;  250,218;  239,488;  341,197;10,54941
 185,93;  258,355;  237,877;  348,375;18,53276
 186,53;  272,226;  257,028;  370,650;13,37602
 187,13;  299,985;  284,024;  414,063;12,27402
 187,73;  251,123;  238,261;  361,495;10,43753
 188,33;  268,528;  250,878;  370,649;14,73620
 188,93;  275,382;  261,424;  374,130;12,38438
 189,53;  269,387;  242,198;  393,125;18,01418
 190,13;  312,766;  293,746;  409,924;16,37181
 190,73;  239,230;  215,047;  365,019;16,12471
 191,34;  282,158;  265,041;  385,888;14,16365
 191,94;  260,784;  243,496;  359,614;14,88847
 192,54;  271,900;  250,329;  391,391;15,29186
 193,14;  288,126;  265,409;  390,009;18,23229
 193,74;  281,894;  264,487;  377,424;15,41361
 194,34;  282,753;  259,793;  388,106;17,89418
 194,94;  237,710;  220,409;  342,899;14,12438
 195,54;  229,451;  208,719;  332,970;16,68564
 196,14;  247,441;  219,946;  354,341;20,45880
 196,74;  235,747;  223,412;  343,719;10,25301
 197,34;  223,134;  201,405;  345,903;15,03780
 197,94;  255,263;  236,562;  373,573;13,64927
 198,54;  265,741;  243,176;  383,909;16,03361
 199,14;  233,497;  222,403;  380,241; 7,02887
 199,74;  223,914;  218,711;  370,197; 3,43459
 200,34;  229,212;  192,095;  379,885;19,76546
 200,94;  267,557;  237,328;  425,936;16,02730
 201,54;  249,435;  216,173;  432,596;15,36900
 202,14;  267,911;  252,786;  474,093; 6,83419
 202,74;  249,365;  218,557;  473,146;12,10103
 203,34;  227,109;  197,477;  480,577;10,46706
 203,94;  203,223;  172,401;  486,255; 9,82043
 204,54;  286,090;  245,639;  563,211;12,73770
 205,14;  231,951;  193,019;  571,733;10,28016
 205,74;  287,353;  245,477;  659,589;10,11234
 206,34;  261,640;  200,094;  679,015;12,85106
 206,94;  273,617;  218,710;  728,140;10,77825
 207,54;  234,399;  188,402;  773,579; 7,86044
 208,14;  264,152;  201,170;  845,836; 9,76958
 208,74;  281,325;  201,480;  918,683;11,13286
 209,34;  274,608;  201,557;  992,970; 9,23052
 209,94;  290,306;  219,942; 1089,013; 8,09654
 210,54;  295,105;  211,016; 1187,450; 8,61189
 211,14;  312,858;  222,942; 1267,179; 8,61074
 211,73;  311,070;  219,327; 1399,958; 7,77062
 212,33;  330,602;  219,944; 1495,442; 8,67570
 212,93;  317,647;  212,634; 1569,925; 7,73691
 213,53;  292,896;  178,634; 1613,023; 7,96587
 214,13;  331,456;  210,014; 1705,053; 8,12305
 214,73;  321,834;  190,094; 1721,786; 8,60094
 215,33;  308,152;  175,634; 1742,628; 8,45686
 215,93;  362,197;  210,169; 1862,662; 9,19991
 216,53;  317,575;  164,096; 1944,199; 8,62194
 217,13;  386,283;  218,247; 2159,512; 8,65602
 217,73;  399,568;  195,400; 2334,342; 9,54529
 218,33;  364,739;  159,244; 2512,186; 8,73355
 218,93;  415,450;  195,086; 2802,474; 8,45154
 219,53;  458,002;  195,705; 3052,680; 9,18091
 220,13;  454,366;  158,935; 3342,899; 9,27872
 220,73;  523,831;  176,941; 3659,770; 9,96000
 221,32;  562,018;  194,019; 4073,836; 9,48495
 221,92;  614,340;  199,705; 4477,909; 9,69181
 222,52;  618,348;  171,015; 4867,162; 9,52552
 223,12;  688,981;  184,938; 5286,413; 9,88034
 223,72;  739,782;  202,630; 5644,061; 9,87152
 224,32;  794,277;  196,630; 5997,482;10,30276
 224,92;  837,569;  177,245; 6323,312;10,74385
 225,52;  877,803;  202,787; 6670,557;10,43662
 226,12;  897,705;  188,785; 6972,357;10,45054
 226,72;  903,355;  168,862; 7292,274;10,31097
 227,31;  951,493;  167,478; 7646,565;10,48277
 227,91; 1020,252;  201,479; 8071,656;10,40349
 228,51; 1102,023;  189,328; 8435,636;11,06792
 229,11; 1120,191;  189,093; 8840,069;10,76292
 229,71; 1160,214;  174,173; 9126,800;11,01399
 230,31; 1215,934;  168,629; 9555,531;11,15709
 230,91; 1244,124;  162,329; 9813,841;11,20855
 231,51; 1301,168;  173,938;10061,634;11,40032
 232,10; 1355,217;  172,398;10384,972;11,58199
 232,70; 1392,138;  190,485;10581,029;11,56487
 233,30; 1474,640;  208,939;10813,411;11,93555
 233,90; 1459,009;  184,785;10937,933;11,84978
 234,50; 1453,467;  171,554;11059,818;11,77335
 235,10; 1491,646;  170,014;10974,158;12,23264
 235,70; 1536,674;  193,479;11013,347;12,41415
 236,29; 1535,485;  189,096;10902,340;12,56752
 236,89; 1503,012;  160,329;10792,462;12,62854
 237,49; 1504,928;  191,631;10632,310;12,57865
 238,09; 1468,717;  179,555;10341,707;12,68591
 238,69; 1513,858;  223,253;10098,604;13,06895
 239,29; 1427,713;  175,863; 9734,699;13,09625
 239,89; 1381,951;  183,483; 9401,017;13,00204
 240,48; 1317,317;  177,632; 8971,537;12,95994
 241,08; 1310,679;  187,633; 8611,278;13,33206
 241,68; 1278,942;  191,094; 8278,664;13,45087
 242,28; 1185,015;  164,862; 7940,130;13,12049
 242,88; 1208,719;  220,706; 7665,624;13,27097
 243,48; 1162,204;  206,093; 7348,585;13,38623
 244,07; 1106,159;  185,864; 7158,640;13,19841
 244,67; 1079,830;  207,016; 6950,593;12,94289
 245,27; 1059,762;  208,404; 6813,419;12,88956
 245,87; 1042,483;  195,706; 6751,769;12,91594
 246,47; 1016,316;  197,020; 6743,128;12,51578
 247,06;  998,320;  184,556; 6743,421;12,40709
 247,66; 1003,828;  170,940; 6819,743;12,52689
 248,26; 1038,467;  208,942; 7000,936;12,21327
 248,86; 1025,841;  199,942; 7154,654;11,87538
 249,46; 1011,828;  152,938; 7378,217;11,88729
 250,05; 1072,638;  203,402; 7771,472;11,48557
 250,65; 1080,450;  173,558; 8058,257;11,50191
 251,25; 1128,623;  174,941; 8552,490;11,38379
 251,85; 1172,619;  189,406; 9127,877;10,99979
 252,44; 1221,079;  149,480; 9680,974;11,24271
 253,04; 1314,062;  195,172;10445,847;10,91528
 253,64; 1342,745;  152,097;11140,049;10,83594
 254,24; 1457,991;  206,709;12050,132;10,56520
 254,84; 1537,136;  171,323;13024,525;10,62625
 255,43; 1616,612;  177,096;13965,778;10,43984
 256,03; 1727,455;  176,174;14933,069;10,51225
 256,63; 1838,380;  187,637;15959,061;10,46668
 257,23; 1884,990;  170,560;16835,711;10,28752
 257,82; 2012,991;  186,484;17818,426;10,35908
 258,42; 2070,048;  144,793;18720,590;10,36432
 259,02; 2222,484;  192,941;19585,306;10,46568
 259,62; 2227,657;  179,409;20283,193;10,18837
 260,21; 2337,548;  189,096;20811,251;10,41818
 260,81; 2374,411;  185,093;21379,753;10,32957
 261,41; 2405,925;  172,869;21814,664;10,31826
 262,01; 2505,025;  208,487;22356,130;10,36922
 262,60; 2501,221;  161,252;22637,173;10,41100
 263,20; 2571,799;  173,250;23055,648;10,48207
 263,80; 2607,293;  210,872;23123,820;10,45881
 264,40; 2614,568;  159,563;23365,215;10,57934
 264,99; 2660,659;  201,103;23636,262;10,49516
 265,59; 2703,874;  187,028;23828,529;10,64588
 266,19; 2737,401;  174,564;24024,776;10,74555
 266,78; 2790,560;  215,181;24085,499;10,78905
 267,38; 2794,650;  196,182;24190,233;10,82963
 267,98; 2772,701;  184,950;24143,256;10,80106
 268,58; 2834,942;  191,951;24183,756;11,01622
 269,17; 2794,402;  176,722;24133,851;10,92652
 269,77; 2816,496;  190,945;23966,940;11,04286
 270,37; 2774,004;  163,795;23855,106;11,01758
 270,96; 2852,598;  223,254;23796,071;11,15414
 271,56; 2794,595;  180,406;23480,276;11,21976
 272,16; 2802,069;  175,023;23368,768;11,32653
 272,75; 2813,371;  185,408;23244,494;11,39665
 273,35; 2823,086;  180,023;23207,061;11,47809
 273,95; 2833,249;  188,023;23273,296;11,45850
 274,54; 2848,060;  160,094;23319,855;11,60619
 275,14; 2920,065;  206,330;23690,387;11,55565
 275,74; 2906,093;  169,870;23677,369;11,63979
 276,33; 3032,241;  212,253;24100,569;11,80489
 276,93; 3110,067;  188,863;24473,251;12,02914
 277,53; 3140,517;  185,865;25015,911;11,89950
 278,12; 3234,740;  168,790;25597,349;12,05711
 278,72; 3388,490;  227,558;26084,768;12,22457
 279,32; 3452,541;  187,327;26655,470;12,33639
 279,91; 3543,996;  160,712;27296,689;12,46789
 280,51; 3657,418;  175,173;27885,853;12,56644
 281,11; 3759,903;  174,097;28515,442;12,65221
 281,70; 3888,238;  162,636;28993,081;12,92246
 282,30; 4000,595;  173,175;29674,353;12,97379
 282,90; 4102,110;  171,252;30003,444;13,17656
 283,49; 4217,502;  194,946;30517,786;13,26576
 284,09; 4385,390;  211,790;30896,231;13,60168
 284,69; 4466,563;  209,173;31311,375;13,68839
 285,28; 4594,512;  193,559;31608,199;14,00924
 285,88; 4751,045;  247,254;31904,705;14,22664
 286,47; 4774,694;  187,791;31901,565;14,46344
 287,07; 4906,279;  211,019;31975,438;14,78151
 287,67; 5043,050;  202,555;32122,739;15,16437
 288,26; 5101,770;  182,481;32037,774;15,44261
 288,86; 5235,106;  164,328;32056,294;15,89986
 289,46; 5434,752;  194,943;32185,292;16,37934
 290,05; 5577,284;  184,402;32376,766;16,75205
 290,65; 5760,182;  186,329;32494,359;17,25222
 291,24; 5932,236;  197,019;32665,551;17,66392
 291,84; 6141,457;  209,790;32740,907;18,23382
 292,44; 6322,946;  197,631;33002,715;18,67185
 293,03; 6575,920;  267,788;32988,735;19,27857
 293,63; 6666,556;  182,868;33084,504;19,70628
 294,22; 6865,373;  215,405;33347,104;20,07132
 294,82; 6965,854;  183,486;33256,310;20,50737
 295,41; 6987,084;  173,866;33060,774;20,71711
 296,01; 7145,226;  217,178;33008,575;21,12764
 296,61; 7169,504;  218,327;32641,087;21,43919
 297,20; 7158,406;  200,024;32323,950;21,66106
 297,80; 7215,513;  205,171;32156,885;21,94043
 298,39; 7107,850;  178,021;31774,877;21,93202
 298,99; 7167,768;  207,177;31656,241;22,13290
 299,58; 7132,414;  217,093;31571,638;22,05524
 300,18; 7074,509;  216,094;31366,877;22,01683
 300,78; 7055,858;  185,172;30948,409;22,33408
 301,37; 7092,631;  200,411;30891,191;22,45697
 301,97; 7043,351;  209,635;30939,660;22,23791
 302,56; 7017,222;  185,483;30906,361;22,23810
 303,16; 7024,823;  174,868;30840,917;22,33726
 303,75; 6987,948;  182,787;30857,002;22,18528
 304,35; 7069,249;  170,246;31103,257;22,30305
 304,94; 7071,176;  198,174;31040,448;22,28436
 305,54; 7055,325;  213,788;31020,913;22,20765
 306,13; 6972,090;  157,553;31012,753;22,08554
 306,73; 6931,845;  177,862;30770,960;22,07682
 307,33; 6934,817;  205,939;30714,351;22,05581
 307,92; 6898,628;  199,865;30785,136;21,90193
 308,52; 6925,136;  168,715;31199,806;21,77307
 309,11; 7003,038;  185,024;31705,231;21,63061
 309,71; 7010,186;  169,641;31935,792;21,53407
 310,30; 7074,865;  174,327;32195,179;21,55014
 310,90; 7201,557;  224,173;32541,025;21,59054
 311,49; 7102,778;  198,327;32617,051;21,29772
 312,09; 7098,140;  153,941;32789,355;21,27811
 312,68; 7220,126;  245,480;33185,330;21,17389
 313,28; 7146,013;  158,865;33317,674;21,07177
 313,87; 7136,725;  155,250;33457,421;20,96402
 314,47; 7173,029;  178,716;33719,073;20,85343
 315,06; 7122,360;  172,019;33846,369;20,63987
 315,66; 7150,602;  162,018;33991,278;20,65840
 316,25; 6996,140;  150,484;34000,199;20,22368
 316,85; 6975,026;  151,787;34012,972;20,15062
 317,44; 6985,041;  169,101;34187,697;20,03592
 318,04; 6938,357;  175,483;34156,383;19,90199
 318,63; 6878,776;  159,170;34237,622;19,71805
 319,22; 6847,604;  178,714;34452,357;19,45778
 319,82; 6828,080;  182,636;34418,304;19,41088
 320,41; 6762,137;  193,714;34371,699;19,21829
 321,01; 6671,021;  188,787;34386,656;18,95508
 321,60; 6618,597;  186,405;34477,630;18,75754
 322,20; 6546,222;  173,711;34382,000;18,62856
 322,79; 6548,522;  205,173;34501,800;18,49555
 323,39; 6481,892;  170,554;34565,974;18,34936
 323,98; 6378,479;  166,096;34508,529;18,08953
 324,58; 6359,759;  166,253;34408,391;18,08738
 325,17; 6250,896;  179,330;34190,879;17,85148
 325,76; 6210,985;  196,866;34036,681;17,77232
 326,36; 6064,459;  165,479;33626,517;17,62940
 326,95; 5974,360;  210,867;33357,126;17,38807
 327,55; 5823,878;  164,482;32972,948;17,24980
 328,14; 5728,540;  164,555;32580,644;17,16427
 328,74; 5628,729;  199,252;32167,636;16,98389
 329,33; 5500,565;  187,018;31731,391;16,84468
 329,92; 5314,863;  158,101;31253,788;16,58353
 330,52; 5230,003;  194,171;30573,956;16,57626
 331,11; 5088,528;  176,867;30177,215;16,37201
 331,71; 4953,150;  179,097;29557,766;16,25007
 332,30; 4853,561;  197,020;29149,371;16,08346
 332,89; 4789,017;  250,557;28628,725;15,99279
 333,49; 4605,676;  189,174;28086,942;15,83102
 334,08; 4505,947;  184,405;27697,286;15,70734
 334,68; 4394,817;  183,790;27293,964;15,53301
 335,27; 4278,424;  198,016;26952,612;15,25124
 335,86; 4274,912;  235,944;26641,446;15,29594
 336,46; 4160,864;  186,016;26461,399;15,12765
 337,05; 4088,281;  184,559;26265,353;14,96780
 337,65; 4017,748;  162,021;26054,626;14,89123
 338,24; 4003,840;  221,865;26069,851;14,63160
 338,83; 3947,580;  201,403;25957,438;14,54485
 339,43; 3920,119;  169,406;25897,909;14,57804
 340,02; 3886,300;  175,407;25866,857;14,44408
 340,61; 3872,122;  178,711;25836,938;14,39464
 341,21; 3858,113;  208,637;25858,636;14,22798
 341,80; 3797,239;  169,790;25826,808;14,13823
 342,40; 3834,512;  179,940;25890,158;14,21448
 342,99; 3766,324;  186,326;25947,187;13,89705
 343,58; 3776,873;  174,018;26189,622;13,84882
 344,18; 3767,822;  198,325;26373,073;13,63718
 344,77; 3776,199;  171,330;26529,948;13,67625
 345,36; 3779,745;  173,482;26879,818;13,50340
 345,96; 3833,197;  198,326;27219,638;13,45187
 346,55; 3828,332;  173,938;27427,300;13,40896
 347,14; 3831,228;  165,093;27772,144;13,27971
 347,74; 3875,354;  161,705;28192,844;13,24830
 348,33; 3952,956;  175,782;28854,944;13,17045
 348,92; 4022,993;  183,550;29402,688;13,14017
 349,52; 4016,737;  157,935;29849,887;12,99612
 350,11; 4059,096;  170,407;30115,958;12,98587
 350,70; 4041,636;  180,250;30103,798;12,90417
 351,29; 3999,006;  158,796;29828,098;12,94338
 351,89; 3997,646;  183,640;29840,031;12,86066
 352,48; 3943,382;  154,942;29908,351;12,73279
 353,07; 3985,626;  188,785;29796,583;12,82378
 353,67; 3952,181;  190,088;29796,109;12,70719
 354,26; 3914,467;  184,632;29465,729;12,73803
 354,85; 3867,819;  181,787;29381,496;12,62352
 355,45; 3851,428;  155,867;29187,341;12,72950
 356,04; 3831,729;  174,016;29179,958;12,61022
 356,63; 3825,954;  211,020;28979,836;12,56546
 357,22; 3773,596;  186,410;28835,197;12,52125
 357,82; 3755,883;  191,333;28527,954;12,57931
 358,41; 3757,537;  204,558;28522,847;12,54659
 359,00; 3685,665;  166,945;28267,802;12,52175
 359,60; 3732,909;  179,096;28241,266;12,66407
 360,19; 3723,940;  199,477;28045,826;12,65682
 360,78; 3683,194;  176,636;27864,379;12,66466
 361,37; 3633,533;  172,944;27730,181;12,55782
 361,97; 3658,826;  186,943;27624,442;12,65379
 362,56; 3603,826;  171,638;27299,264;12,65200
 363,15; 3606,969;  222,636;27001,114;12,63826
 363,74; 3559,761;  186,562;26660,845;12,74142
 364,34; 3549,318;  191,637;26339,415;12,84117
 364,93; 3463,169;  170,792;25935,873;12,77844
 365,52; 3398,835;  148,867;25588,830;12,77505
 366,11; 3394,289;  171,253;25238,079;12,85777
 366,71; 3364,989;  166,483;24896,203;12,93385
 367,30; 3346,960;  182,790;24575,417;12,97183
 367,89; 3317,472;  225,325;24348,725;12,81804
 368,48; 3287,363;  198,869;24090,525;12,92708
 369,07; 3230,636;  177,404;23657,413;13,00354
 369,67; 3239,506;  210,177;23383,363;13,07256
 370,26; 3209,931;  173,942;23103,863;13,24029
 370,85; 3165,366;  187,174;22920,245;13,10070
 371,44; 3156,933;  200,020;22611,778;13,19358
 372,03; 3101,249;  157,945;22418,770;13,22190
 372,63; 3092,169;  164,559;22051,743;13,37591
 373,22; 3100,703;  171,096;21824,363;13,52963
 373,81; 3034,743;  171,713;21614,122;13,35218
 374,40; 3032,855;  176,017;21310,691;13,51730
 374,99; 3020,160;  167,944;21122,573;13,61139
 375,59; 2988,444;  178,094;20765,855;13,65059
 376,18; 3029,693;  203,559;20688,377;13,79623
 376,77; 3007,720;  193,020;20538,952;13,83422
 377,36; 3035,342;  204,021;20427,029;14,00050
 377,95; 3011,129;  185,252;20167,268;14,14210
 378,55; 2982,483;  171,249;19976,041;14,19472
 379,14; 3006,565;  201,944;19901,675;14,23685
 379,73; 2994,346;  186,022;19853,332;14,27915
 380,32; 3021,527;  192,712;19873,181;14,37371
 380,91; 3015,835;  158,408;19667,575;14,64659
 381,50; 3054,011;  190,407;19730,834;14,65477
 382,10; 3045,219;  172,020;19588,104;14,79804
 382,69; 3041,618;  139,175;19536,843;14,96285
 383,28; 3060,077;  204,330;19485,519;14,81105
 383,87; 3080,446;  170,253;19354,118;15,17000
 384,46; 3082,954;  162,332;19303,219;15,25855
 385,05; 3113,234;  203,407;19336,249;15,20855
 385,64; 3093,366;  179,253;19253,926;15,27739
 386,24; 3123,506;  165,563;19260,693;15,49056
 386,83; 3190,817;  193,487;19307,347;15,68145
 387,42; 3189,737;  196,252;19437,221;15,55787
 388,01; 3252,068;  193,181;19692,501;15,68715
 388,60; 3333,797;  185,178;19935,642;15,94200
 389,19; 3377,949;  162,338;20071,470;16,15144
 389,78; 3444,234;  179,107;20300,531;16,22712
 390,37; 3569,854;  244,411;20795,837;16,18108
 390,96; 3603,605;  182,948;20851,213;16,55029
 391,56; 3657,468;  189,031;20980,634;16,68191
 392,15; 3670,148;  170,106;21348,835;16,52622
 392,74; 3745,099;  144,497;21537,383;16,83084
 393,33; 3861,148;  173,186;21800,272;17,05252
 393,92; 3933,898;  176,806;22148,280;17,09986
 394,51; 3949,092;  160,263;22328,946;17,09091
 395,10; 4059,853;  199,966;22592,145;17,23766
 395,69; 4085,756;  192,657;22659,440;17,32824
 396,28; 4110,581;  182,891;22780,161;17,38126
 396,87; 4205,742;  186,127;22794,544;17,77928
 397,46; 4223,016;  187,669;22963,056;17,71802
 398,06; 4294,311;  196,366;23203,119;17,81192
 398,65; 4342,868;  183,684;23227,508;18,04902
 399,24; 4371,776;  190,378;23470,283;17,96141
 399,83; 4387,133;  164,624;23419,733;18,15734
 400,42; 4476,572;  204,637;23563,588;18,28821
 401,01; 4498,840;  174,038;23697,214;18,38528
 401,60; 4551,319;  184,443;23692,232;18,57629
 402,19; 4588,496;  195,922;23599,757;18,76861
 402,78; 4617,464;  205,486;23670,337;18,80250
 403,37; 4595,518;  181,126;23485,360;18,94245
 403,96; 4593,937;  179,770;23392,403;19,01623
 404,55; 4627,970;  216,495;23298,760;19,11197
 405,14; 4580,101;  165,677;23194,704;19,16895
 405,73; 4637,626;  182,327;23072,266;19,46400
 406,32; 4662,790;  190,196;22959,260;19,64329
 406,91; 4592,497;  183,377;22680,458;19,59863
 407,50; 4657,228;  177,390;22530,604;20,04114
 408,09; 4590,583;  156,861;22248,987;20,06924
 408,68; 4613,394;  181,945;22130,582;20,19009
 409,27; 4575,629;  160,244;21935,551;20,27703
 409,86; 4596,867;  178,223;21860,399;20,37915
 410,45; 4640,867;  218,283;21774,441;20,51657
 411,04; 4637,194;  213,957;21640,738;20,64350
 411,63; 4593,509;  177,396;21399,610;20,80892
 412,22; 4582,545;  195,913;21270,990;20,81431
 412,81; 4572,101;  202,521;20933,498;21,07754
 413,40; 4509,861;  222,281;20594,959;21,04574
 413,99; 4513,195;  250,822;20389,882;21,16471
 414,58; 4354,903;  180,513;19983,338;21,07977
 415,17; 4370,056;  190,906;19843,761;21,26485
 415,76; 4349,305;  180,760;19646,204;21,41510
 416,35; 4343,708;  179,063;19356,030;21,71691
 416,94; 4384,896;  203,297;19554,581;21,60890
 417,53; 4432,933;  177,674;19687,836;21,81047
 418,12; 4473,025;  172,749;19787,445;21,92374
 418,71; 4562,203;  203,357;20191,765;21,80687
 419,30; 4598,026;  184,518;20276,876;21,96610
 419,89; 4677,100;  173,131;20467,311;22,19340
 420,48; 4735,088;  207,280;20775,844;22,01324
 421,07; 4775,831;  197,202;20800,062;22,22327
 421,66; 4801,106;  161,274;20766,724;22,51750
 422,25; 4818,181;  180,651;20757,681;22,53741
 422,84; 4852,048;  194,418;20748,871;22,65996
 423,43; 4792,874;  180,037;20404,088;22,80867
 424,02; 4766,848;  211,266;20179,384;22,81427
 424,60; 4696,336;  186,102;19787,501;23,00975
 425,19; 4633,144;  197,646;19548,224;22,92178
 425,78; 4669,058;  201,799;19501,989;23,14619
 426,37; 4651,155;  206,719;19304,849;23,27157
 426,96; 4612,417;  196,257;19247,266;23,18071
 427,55; 4571,269;  184,098;19035,553;23,27232
 428,14; 4554,444;  179,788;18860,636;23,41787
 428,73; 4515,981;  181,254;18686,169;23,42473
 429,32; 4531,309;  199,104;18637,883;23,49508
 429,91; 4563,246;  220,946;18703,205;23,49442
 430,50; 4541,134;  198,097;18496,159;23,73496
 431,08; 4503,238;  198,402;18415,557;23,63067
 431,67; 4545,501;  231,091;18284,691;23,89778
 432,26; 4513,692;  250,012;18077,559;23,91625
 432,85; 4499,513;  254,628;17763,604;24,24405
 433,44; 4404,705;  263,240;17385,023;24,18828
 434,03; 4355,836;  284,004;17082,008;24,23998
 434,62; 4224,747;  238,393;16701,952;24,21320
 435,21; 4173,550;  240,089;16469,644;24,23640
 435,79; 4166,428;  240,082;16336,814;24,39219
 436,38; 4135,966;  233,154;16279,858;24,32158
 436,97; 4114,028;  227,615;16185,273;24,35453
 437,56; 4084,918;  224,684;15964,310;24,52558
 438,15; 4058,264;  206,917;15853,253;24,61501
 438,74; 4073,889;  241,070;15926,346;24,43577
 439,33; 4065,930;  230,994;15886,494;24,49578
 439,91; 4091,486;  204,222;15945,350;24,69496
 440,50; 4139,091;  246,221;16038,265;24,65083
 441,09; 4166,388;  247,909;16137,216;24,66110
 441,68; 4146,141;  219,674;16097,048;24,72995
 442,27; 4164,911;  220,753;16117,378;24,81129
 442,86; 4127,747;  183,974;16092,763;24,78990
 443,44; 4156,955;  198,284;16162,261;24,79753
 444,03; 4241,134;  272,282;16223,997;24,88041
 444,62; 4169,972;  194,205;16069,566;25,04363
 445,21; 4112,882;  223,667;15914,696;24,78623
 445,80; 4147,028;  244,739;15782,390;25,11505
 446,39; 4092,041;  283,125;15504,817;25,02295
 446,97; 3986,773;  195,734;15352,756;25,01176
 447,56; 3951,963;  196,114;15120,833;25,16529
 448,15; 3950,041;  199,042;14991,139;25,35813
 448,74; 3872,655;  220,580;14672,104;25,27121
 449,33; 3857,246;  210,038;14587,031;25,36836
 449,91; 3808,823;  204,495;14400,616;25,38953
 450,50; 3752,626;  199,726;14179,487;25,41459
 451,09; 3731,571;  225,034;14091,361;25,28815
 451,68; 3705,973;  232,108;13991,513;25,24720
 452,26; 3712,054;  222,491;13882,268;25,54627
 452,85; 3639,953;  205,338;13837,578;25,19480
 453,44; 3662,296;  215,178;13788,136;25,39696
 454,03; 3628,964;  193,874;13776,037;25,29118
 454,61; 3645,032;  189,485;13755,146;25,47275
 455,20; 3709,437;  225,944;13940,687;25,39962
 455,79; 3706,219;  228,564;13927,663;25,38601
 456,38; 3738,119;  234,017;14007,442;25,44104
 456,97; 3746,652;  216,326;14070,310;25,48239
 457,55; 3745,464;  212,092;14089,802;25,46077
 458,14; 3751,895;  245,865;14042,968;25,41135
 458,73; 3706,200;  226,477;14008,120;25,24897
 459,31; 3744,757;  234,319;14014,715;25,47415
 459,90; 3794,284;  253,782;14131,760;25,51166
 460,49; 3870,677;  302,476;14244,717;25,59273
 461,08; 3772,759;  210,547;14325,004;25,23804
 461,66; 3819,909;  219,165;14367,019;25,45082
 462,25; 3847,066;  222,392;14422,905;25,52495
 462,84; 3858,495;  256,701;14494,938;25,29664
 463,43; 3784,036;  175,618;14407,032;25,35530
 464,01; 3810,091;  219,616;14470,259;25,19518
 464,60; 3834,386;  260,542;14402,292;25,27158
 465,19; 3760,205;  195,230;14172,423;25,50566
 465,77; 3730,747;  213,535;14117,024;25,29733
 466,36; 3742,967;  245,695;13996,694;25,43286
 466,95; 3622,189;  216,002;13737,152;25,19155
 467,53; 3583,639;  217,071;13416,862;25,50471
 468,12; 3536,131;  241,378;13175,399;25,47354
 468,71; 3453,958;  219,152;12915,296;25,47864
 469,29; 3383,754;  195,147;12695,642;25,50785
 469,88; 3299,437;  213,760;12500,496;25,11389
 470,47; 3388,783;  280,757;12548,915;25,33409
 471,06; 3349,255;  225,372;12534,273;25,37906
 471,64; 3338,488;  230,142;12691,803;24,94327
 472,23; 3325,357;  209,134;12681,781;24,98445
 472,81; 3339,698;  200,984;12749,243;25,01314
 473,40; 3372,266;  209,980;13004,846;24,71527
 473,99; 3499,205;  310,365;13160,323;24,81596
 474,57; 3427,794;  219,365;13250,487;24,62128
 475,16; 3475,338;  220,368;13372,506;24,74860
 475,75; 3526,837;  237,978;13477,287;24,84162
 476,33; 3541,258;  242,436;13553,813;24,78197
 476,92; 3528,167;  236,441;13603,829;24,62505
 477,51; 3552,688;  237,822;13671,153;24,67642
 478,09; 3549,027;  235,899;13702,109;24,60327
 478,68; 3520,065;  249,898;13595,350;24,50398
 479,27; 3539,147;  259,131;13701,522;24,40054
 479,85; 3513,370;  231,206;13703,038;24,36316
 480,44; 3539,219;  211,358;13868,131;24,36784
 481,02; 3826,850;  233,663;15608,402;23,37072
 481,61; 4318,598;  243,587;17388,639;23,76785
 482,20; 4606,582;  233,278;18436,789;24,02451
 482,78; 4784,673;  275,436;19187,657;23,84298
 483,37; 4913,193;  261,890;19643,013;23,99914
 483,95; 4992,987;  285,581;20013,353;23,86182
 484,54; 5033,015;  282,665;20144,321;23,91719
 485,13; 5008,612;  249,578;20034,163;24,05425
 485,71; 4928,651;  232,656;19790,230;24,01113
 486,30; 4890,298;  270,117;19542,570;23,97298
 486,88; 4834,825;  309,655;19107,604;24,07268
 487,47; 4611,428;  287,269;18360,869;23,92527
 488,05; 4422,361;  264,806;17495,548;24,12871
 488,64; 4112,644;  279,880;16059,475;24,28937
 489,23; 3711,086;  285,652;14183,165;24,64783
 489,81; 3173,936;  282,497;12316,831;24,02658
 490,40; 2962,667;  241,342;11823,952;23,49492
 490,98; 2903,606;  217,418;11561,827;23,67852
 491,57; 2866,261;  245,574;11500,035;23,28576
 492,15; 2856,289;  229,417;11427,977;23,45723
 492,74; 2835,788;  236,037;11319,477;23,45617
 493,32; 2760,418;  263,726;11206,867;22,81513
 493,91; 2748,623;  235,108;11161,517;23,00404
 494,50; 2744,428;  250,179;11123,602;22,93894
 495,08; 2692,394;  226,795;11050,719;22,77915
 495,67; 2712,964;  255,570;11013,507;22,84261
 496,25; 2658,563;  193,644;10847,096;23,13728
 496,84; 2639,784;  218,724;10870,055;22,73011
 497,42; 2636,476;  207,027;10808,134;22,91693
 498,01; 2620,923;  231,185;10786,547;22,64004
 498,59; 2571,136;  198,719;10711,606;22,56674
 499,18; 2563,612;  203,415;10642,047;22,61021
 499,76; 2570,679;  239,259;10534,406;22,64582
 500,35; 2507,467;  232,255;10382,539;22,41526
 500,93; 2496,158;  212,335;10380,776;22,45991
 501,52; 2457,404;  204,950;10274,065;22,36992
 502,10; 2499,386;  224,791;10250,171;22,68837
 502,69; 2435,563;  207,328;10120,749;22,47696
 503,27; 2353,899;  206,025; 9897,576;22,16234
 503,86; 2362,607;  218,482; 9860,824;22,23655
 504,44; 2314,598;  183,019; 9778,525;22,21435
 505,03; 2237,222;  185,557; 9540,802;21,93063
 505,61; 2227,974;  197,635; 9417,662;22,02096
 506,19; 2210,458;  220,865; 9241,075;22,05706
 506,78; 2130,307;  182,554; 9085,577;21,87744
 507,36; 2095,710;  209,019; 8926,057;21,64372
 507,95; 2083,744;  197,475; 8738,415;22,08503
 508,53; 2036,490;  191,015; 8704,375;21,67740
 509,12; 1971,944;  204,937; 8504,879;21,28939
 509,70; 2012,571;  224,167; 8391,822;21,89618
 510,29; 1949,626;  242,011; 8187,741;21,49097
 510,87; 1876,321;  199,169; 8085,205;21,26736
 511,46; 1845,139;  189,630; 7883,685;21,51673
 512,04; 1811,557;  207,089; 7748,083;21,27660
 512,62; 1772,478;  199,860; 7648,102;21,11395
 513,21; 1728,867;  191,318; 7429,407;21,24246
 513,79; 1686,364;  190,543; 7325,385;20,96503
 514,38; 1652,554;  173,468; 7153,170;21,19125
 514,96; 1670,626;  228,315; 7072,624;21,07315
 515,54; 1578,804;  180,159; 6956,391;20,64045
 516,13; 1589,448;  203,467; 6858,308;20,82666
 516,71; 1563,133;  192,695; 6759,824;20,86814
 517,30; 1511,145;  181,308; 6655,856;20,53945
 517,88; 1526,689;  209,000; 6549,899;20,78078
 518,46; 1476,318;  178,307; 6445,769;20,71031
 519,05; 1458,678;  184,998; 6391,915;20,52034
 519,63; 1443,059;  205,845; 6323,787;20,22272
 520,22; 1443,797;  211,764; 6288,022;20,27618
 520,80; 1411,409;  200,379; 6198,368;20,19060
 521,38; 1446,820;  246,228; 6200,291;20,16425
 521,97; 1392,846;  194,916; 6142,052;20,14298
 522,55; 1389,822;  209,377; 6160,067;19,83712
 523,13; 1375,101;  191,222; 6158,127;19,84076
 523,72; 1365,170;  187,230; 6114,658;19,87269
 524,30; 1406,482;  225,528; 6244,255;19,62134
 524,89; 1388,997;  174,684; 6275,014;19,90568
 525,47; 1408,346;  207,219; 6379,471;19,46010
 526,05; 1388,228;  158,988; 6445,512;19,55357
 526,64; 1432,380;  209,064; 6579,212;19,20389
 527,22; 1452,691;  208,450; 6699,623;19,16819
 527,80; 1519,669;  248,295; 6847,730;19,26490
 528,39; 1458,195;  198,601; 6929,961;18,71232
 528,97; 1491,562;  195,756; 7088,668;18,79911
 529,55; 1534,271;  213,376; 7287,682;18,67172
 530,14; 1587,691;  229,062; 7408,121;18,92490
 530,72; 1580,901;  204,063; 7543,700;18,75894
 531,30; 1573,842;  178,292; 7703,083;18,54603
 531,89; 1599,441;  201,446; 7794,836;18,41069
 532,47; 1652,684;  239,368; 7893,471;18,46481
 533,05; 1626,638;  224,603; 7934,621;18,18459
 533,63; 1652,436;  227,598; 7979,036;18,38159
 534,22; 1631,844;  187,367; 7972,022;18,55544
 534,80; 1651,415;  217,365; 8099,771;18,19305
 535,38; 1728,170;  300,138; 8203,953;18,06763
 535,97; 1626,500;  207,368; 8173,981;17,81350
 536,55; 1673,573;  241,595; 8254,394;17,87114
 537,13; 1671,131;  242,677; 8215,447;17,91667
 537,71; 1673,596;  283,062; 8254,101;17,44483
 538,30; 1722,479;  270,520; 8350,242;17,97041
 538,88; 1758,721;  320,285; 8478,329;17,63211
 539,46; 1779,160;  361,211; 8667,939;17,06989
 540,05; 1798,725;  363,594; 8820,864;16,96920
 540,63; 1848,704;  390,440; 8990,574;16,95629
 541,21; 1862,693;  406,362; 9193,347;16,57373
 541,79; 1933,831;  425,362; 9311,562;16,97541
 542,38; 1946,652;  454,671; 9445,133;16,59515
 542,96; 1995,357;  448,975; 9619,609;16,86233
 543,54; 2023,165;  473,746; 9836,509;16,54874
 544,12; 2004,575;  440,976; 9928,388;16,48077
 544,70; 2024,760;  435,205;10039,321;16,55076
 545,29; 2035,845;  443,671;10246,750;16,24157
 545,87; 2031,831;  436,823;10184,716;16,36259
 546,45; 1984,811;  393,902;10217,022;16,19556
 547,03; 1994,543;  392,209;10300,497;16,17166
 547,62; 1975,188;  357,746;10439,230;16,04369
 548,20; 2003,984;  371,514;10550,924;16,03698
 548,78; 2024,472;  339,123;10661,424;16,32726
 549,36; 2010,481;  330,585;10878,890;15,92574
 549,94; 2031,335;  312,437;10967,230;16,13263
 550,53; 2031,570;  291,586;11243,548;15,88742
 551,11; 2022,446;  273,122;11426,754;15,68390
 551,69; 2088,418;  285,816;11750,056;15,72369
 552,27; 2077,071;  236,203;11965,538;15,69457
 552,85; 2114,645;  254,815;12399,722;15,31367
 553,44; 2158,840;  250,970;12632,746;15,40869
 554,02; 2190,135;  268,123;12991,011;15,10673
 554,60; 2210,589;  212,737;13303,900;15,26107
 555,18; 2311,696;  239,816;13660,566;15,43788
 555,76; 2335,758;  233,585;14025,058;15,24256
 556,34; 2360,514;  238,889;14440,574;14,93924
 556,93; 2423,545;  235,278;14817,570;15,00633
 557,51; 2452,715;  218,120;15124,930;14,99043
 558,09; 2515,290;  246,124;15550,738;14,82668
 558,67; 2555,412;  238,657;15980,181;14,71748
 559,25; 2612,154;  242,119;16151,376;14,89721
 559,83; 2645,821;  221,040;16481,564;14,91207
 560,41; 2684,151;  214,813;16862,821;14,83264
 561,00; 2733,736;  227,964;17133,505;14,82219
 561,58; 2717,226;  220,198;17395,894;14,53815
 562,16; 2753,932;  218,584;17779,125;14,43776
 562,74; 2782,774;  200,354;18061,689;14,45816
 563,32; 2814,174;  192,655;18555,839;14,27595
 563,90; 2901,112;  231,195;18895,612;14,30485
 564,48; 2919,097;  233,429;19333,837;14,06079
 565,06; 2998,277;  212,349;19947,851;14,11633
 565,65; 3100,121;  208,037;20622,618;14,16675
 566,23; 3207,067;  268,733;21339,029;13,94538
 566,81; 3252,353;  209,350;22097,728;13,90237
 567,39; 3349,774;  227,347;22907,408;13,76728
 567,97; 3430,782;  239,503;23588,507;13,66773
 568,55; 3604,803;  263,502;24428,159;13,82722
 569,13; 3628,038;  211,733;25136,232;13,70661
 569,71; 3700,285;  205,507;26086,631;13,50319
 570,29; 3908,043;  250,893;27122,260;13,60984
 570,87; 3986,378;  250,200;27695,989;13,61294
 571,45; 4014,195;  242,041;28347,347;13,42150
 572,03; 4076,935;  199,269;28732,112;13,59018
 572,61; 4142,301;  196,348;29528,849;13,45250
 573,20; 4249,548;  234,504;30153,456;13,41973
 573,78; 4284,720;  205,578;30820,809;13,32390
 574,36; 4361,427;  216,118;31253,624;13,35581
 574,94; 4442,634;  281,807;31533,971;13,31372
 575,52; 4391,684;  209,958;31827,474;13,22598
 576,10; 4505,729;  259,882;32450,122;13,18986
 576,68; 4518,142;  248,346;33028,049;13,02573
 577,26; 4588,363;  262,648;33736,551;12,92265
 577,84; 4686,914;  259,733;34142,922;13,06601
 578,42; 4723,022;  301,191;34469,867;12,94118
 579,00; 4666,036;  246,271;34548,932;12,88461
 579,58; 4735,212;  271,653;34727,896;12,95428
 580,16; 4686,467;  243,344;34758,278;12,87304
 580,74; 4699,193;  253,882;34964,545;12,80676
 581,32; 4677,771;  238,499;35108,920;12,73077
 581,90; 4667,889;  269,498;35079,815;12,63531
 582,48; 4648,244;  259,421;35241,094;12,54606
 583,06; 4606,806;  250,807;35258,837;12,44286
 583,64; 4654,388;  237,423;35402,877;12,56052
 584,22; 4614,115;  255,495;35244,258;12,45720
 584,80; 4553,301;  253,345;34992,377;12,37788
 585,38; 4521,596;  251,582;34555,309;12,44767
 585,96; 4462,019;  234,193;34740,574;12,25230
 586,54; 4494,861;  264,034;34710,153;12,28245
 587,12; 4426,885;  225,190;34850,896;12,13461
 587,70; 4465,822;  261,808;35114,610;12,06220
 588,28; 4437,391;  231,805;35095,402;12,06297
 588,86; 4443,915;  250,112;35225,047;11,99088
 589,44; 4390,336;  222,878;35307,462;11,87832
 590,02; 4405,024;  230,879;35498,642;11,83558
 590,59; 4382,898;  214,804;35700,997;11,74568
 591,17; 4435,525;  228,105;35892,185;11,79736
 591,75; 4400,068;  218,415;35999,092;11,68690
 592,33; 4432,802;  239,646;36339,778;11,61535
 592,91; 4409,845;  193,875;36533,304;11,60164
 593,49; 4436,404;  211,181;36828,725;11,53880
 594,07; 4469,826;  221,335;37042,569;11,53816
 594,65; 4473,688;  233,726;37044,483;11,51827
 595,23; 4495,277;  235,263;37404,855;11,46102
 595,81; 4473,487;  212,955;37547,997;11,41162
 596,39; 4486,890;  217,493;37683,478;11,39539
 596,97; 4510,291;  208,413;37855,211;11,42694
 597,55; 4445,668;  206,572;37711,778;11,30269
 598,12; 4399,307;  197,872;37800,790;11,17316
 598,70; 4404,722;  197,797;38006,764;11,12679
 599,28; 4442,361;  226,566;38069,134;11,14035
 599,86; 4436,258;  211,490;38174,991;11,12850
 600,44; 4405,808;  186,258;38262,318;11,08190
 601,02; 4414,020;  241,177;38274,454;10,97156
 601,60; 4348,569;  211,876;38211,478;10,88615
 602,18; 4342,520;  196,180;38197,924;10,91092
 602,75; 4320,607;  184,955;38376,806;10,82862
 603,33; 4326,762;  217,336;38291,535;10,79320
 603,91; 4321,832;  192,948;38330,559;10,82628
 604,49; 4272,448;  211,105;38431,723;10,62605
 605,07; 4295,882;  213,646;38389,059;10,69337
 605,65; 4281,590;  203,488;38516,296;10,64422
 606,23; 4277,570;  239,266;38688,742;10,50289
 606,80; 4304,976;  251,878;38775,483;10,52108
 607,38; 4321,987;  259,102;38761,132;10,55239
 607,96; 4316,552;  270,571;38960,250;10,45752
 608,54; 4339,497;  325,488;38955,049;10,39103
 609,12; 4335,692;  309,493;39056,084;10,39110
 609,70; 4302,502;  322,721;39105,464;10,26173
 610,27; 4298,409;  313,802;39194,796;10,24821
 610,85; 4305,039;  340,721;39233,460;10,19295
 611,43; 4290,714;  335,567;39176,948;10,18282
 612,01; 4197,955;  302,800;38928,974;10,08424
 612,59; 4211,033;  308,413;38959,187;10,09713
 613,16; 4143,746;  278,188;38847,966;10,02225
 613,74; 4132,555;  282,951;38764,905;10,00366
 614,32; 4122,099;  282,104;38724,268; 9,98902
 614,90; 4084,298;  267,183;38549,519; 9,97095
 615,48; 4014,368;  238,726;38134,209; 9,96330
 616,05; 3968,495;  224,880;38243,788; 9,84672
 616,63; 3941,314;  235,881;37956,906; 9,82325
 617,21; 3931,247;  237,879;37898,211; 9,80705
 617,79; 3897,229;  224,031;37770,203; 9,78315
 618,36; 3881,943;  239,030;37711,889; 9,72147
 618,94; 3793,118;  183,879;37384,847; 9,70200
 619,52; 3761,941;  213,804;37017,883; 9,64061
 620,10; 3742,424;  193,339;37089,547; 9,61910
 620,67; 3734,491;  201,497;36973,199; 9,60792
 621,25; 3710,561;  230,107;36797,816; 9,51783
 621,83; 3665,665;  209,187;36743,509; 9,46091
 622,41; 3695,278;  263,725;36802,043; 9,39165
 622,98; 3632,735;  221,882;36487,673; 9,40516
 623,56; 3625,861;  225,728;36488,987; 9,37625
 624,14; 3606,580;  228,260;36356,652; 9,35087
 624,72; 3582,710;  223,187;36237,323; 9,32835
 625,29; 3545,039;  205,420;36403,126; 9,22605
 625,87; 3590,476;  234,954;36321,989; 9,29841
 626,45; 3530,239;  204,036;36112,744; 9,26294
 627,02; 3498,810;  204,339;36082,363; 9,18242
 627,60; 3478,845;  214,412;36020,701; 9,11693
 628,18; 3453,769;  181,801;36171,391; 9,09143
 628,76; 3458,846;  188,035;36192,786; 9,08439
 629,33; 3464,385;  231,341;36113,721; 9,01011
 629,91; 3400,039;  205,339;36022,547; 8,91945
 630,49; 3460,763;  230,573;36232,402; 8,97229
 631,06; 3431,888;  213,958;36390,638; 8,89504
 631,64; 3401,042;  215,575;36324,626; 8,82180
 632,22; 3367,010;  181,961;36382,197; 8,79842
 632,79; 3419,418;  214,037;36485,337; 8,83724
 633,37; 3416,848;  192,877;36621,177; 8,85018
 633,95; 3394,952;  204,806;36675,495; 8,74715
 634,52; 3370,978;  207,879;36730,705; 8,66061
 635,10; 3403,127;  207,648;36741,786; 8,74656
 635,68; 3396,326;  205,653;36947,244; 8,68409
 636,25; 3390,170;  188,732;36915,262; 8,71696
 636,83; 3387,616;  186,420;37121,017; 8,66720
 637,41; 3407,165;  198,884;37206,001; 8,66936
 637,98; 3419,531;  228,346;37369,365; 8,59208
 638,56; 3399,808;  208,271;37423,894; 8,57580
 639,13; 3393,356;  197,651;37536,408; 8,55868
 639,71; 3456,159;  248,650;37616,102; 8,58370
 640,29; 3367,856;  169,035;37483,827; 8,57253
 640,86; 3364,518;  178,573;37608,175; 8,51183
 641,44; 3357,641;  191,573;37643,369; 8,45371
 642,02; 3422,302;  222,650;37552,947; 8,57120
 642,59; 3361,964;  187,573;37784,833; 8,44314
 643,17; 3344,318;  191,803;37738,797; 8,39618
 643,74; 3373,441;  174,496;37719,375; 8,52032
 644,32; 3365,410;  216,419;37727,185; 8,39490
 644,89; 3361,456;  214,803;37749,917; 8,38322
 645,47; 3346,271;  226,572;37742,649; 8,31563
 646,05; 3318,548;  216,264;37635,997; 8,29050
 646,62; 3305,287;  198,726;37705,499; 8,28267
 647,20; 3329,410;  208,033;37790,001; 8,30552
 647,77; 3272,840;  183,879;37644,271; 8,24594
 648,35; 3261,502;  176,110;37527,465; 8,26045
 648,92; 3279,009;  205,648;37684,429; 8,20027
 649,50; 3250,440;  168,033;37519,623; 8,25241
 650,08; 3196,640;  168,648;37436,201; 8,12501
 650,65; 3240,302;  185,956;37720,164; 8,13750
 651,23; 3283,809;  154,340;38578,204; 8,14460
 651,80; 3351,317;  170,648;39453,014; 8,09694
 652,38; 3391,824;  190,032;39722,439; 8,09916
 652,95; 3417,563;  161,878;40098,709; 8,15209
 653,53; 3450,455;  184,032;40364,211; 8,12944
 654,10; 3497,117;  226,647;40538,482; 8,11293
 654,68; 3382,393;  175,493;40444,676; 7,96366
 655,25; 3435,747;  175,493;40461,716; 8,09273
 655,83; 3440,562;  165,647;40508,141; 8,11778
 656,40; 3453,070;  225,262;40445,104; 8,02541
 656,98; 3438,193;  192,570;40318,683; 8,08856
 657,55; 3419,932;  174,262;40238,184; 8,10123
 658,13; 3368,593;  181,339;39854,147; 8,03385
 658,70; 3340,947;  191,570;39571,803; 7,99736
 659,28; 3268,454;  187,031;38705,305; 7,99990
 659,85; 3217,193;  196,262;37995,652; 7,99201
 660,43; 3187,316;  203,031;38124,539; 7,86964
 661,00; 3157,285;  181,569;38183,887; 7,83035
 661,58; 3198,562;  180,415;38596,927; 7,85638
 662,15; 3192,762;  164,800;38731,659; 7,85120
 662,73; 3309,116;  233,184;39005,930; 7,93323
 663,30; 3261,008;  182,646;39203,816; 7,88895
 663,88; 3243,746;  178,953;39421,702; 7,80983
 664,45; 3260,331;  167,876;39620,666; 7,83837
 665,03; 3285,992;  172,568;39985,937; 7,82005
 665,60; 3399,961;  278,337;40520,746; 7,75705
 666,17; 3324,008;  180,953;40428,017; 7,80940
 666,75; 3339,746;  176,953;40843,288; 7,77742
 667,32; 3368,561;  197,491;41217,482; 7,73055
 667,90; 3393,530;  183,029;41383,445; 7,79240
 668,47; 3417,576;  203,183;41710,177; 7,74422
 669,05; 3449,623;  181,952;41959,987; 7,82150
 669,62; 3444,207;  150,952;42068,334; 7,85654
 670,19; 3457,176;  153,413;42169,990; 7,86300
 670,77; 3470,453;  171,644;42304,492; 7,82954
 671,34; 3461,268;  172,875;42208,070; 7,82295
 671,92; 3460,007;  158,490;42635,572; 7,77247
 672,49; 3482,284;  186,644;42667,920; 7,75786
 673,06; 3460,561;  136,259;42635,114; 7,82210
 673,64; 3469,068;  156,567;42700,461; 7,78608
 674,21; 3434,730;  156,490;42609,886; 7,72197
 674,79; 3499,007;  184,874;42890,311; 7,76045
 675,36; 3536,514;  188,874;42975,966; 7,82395
 675,93; 3494,406;  159,489;42917,237; 7,79956
 676,51; 3510,529;  189,874;43025,124; 7,75216
 677,08; 3538,806;  184,104;43040,702; 7,82774
 677,65; 3528,775;  167,181;43272,204; 7,79861
 678,23; 3532,052;  180,027;43462,936; 7,74445
 678,80; 3555,560;  163,566;43560,438; 7,81622
 679,38; 3547,221;  170,719;43675,940; 7,76114
 679,95; 3619,498;  181,642;43972,518; 7,85062
 680,52; 3610,160;  171,027;44151,789; 7,81963
 681,10; 3671,129;  186,873;44679,675; 7,83106
 681,67; 3669,637;  177,873;44925,254; 7,80328
 682,24; 3683,452;  155,642;44956,371; 7,87445
 682,82; 3734,883;  167,642;45528,796; 7,86409
 683,39; 3798,313;  217,872;45801,605; 7,85465
 683,96; 3777,975;  180,257;46075,414; 7,83899
 684,54; 3811,482;  158,334;46441,070; 7,89311
 685,11; 3885,759;  218,257;46745,956; 7,88241
 685,68; 3894,652;  167,410;47180,458; 7,92810
 686,25; 3863,082;  166,718;47207,498; 7,85779
 686,83; 3898,359;  170,179;47329,000; 7,90558
 687,40; 3935,790;  146,949;47665,886; 7,97333
 687,97; 4012,528;  200,641;48162,003; 7,94783
 688,55; 3986,344;  151,179;48141,505; 7,99154
 689,12; 3990,543;  149,025;48464,929; 7,95084
 689,69; 4019,666;  155,410;48479,431; 7,99655
 690,26; 4023,482;  168,179;48570,240; 7,96516
 690,84; 4056,374;  166,794;48818,896; 7,99468
 691,41; 4086,728;  178,563;48830,320; 8,03294
 691,98; 4095,543;  175,409;49118,591; 8,00956
 692,56; 4080,282;  164,255;49195,785; 7,98675
 693,13; 4157,020;  217,486;49234,749; 8,03703
 693,70; 4160,989;  185,870;49411,558; 8,07529
 694,27; 4160,497;  158,870;49584,367; 8,09628
 694,84; 4148,312;  167,101;49660,792; 8,04388
 695,42; 4228,358;  201,255;49738,524; 8,12944
 695,99; 4210,712;  177,101;50041,565; 8,08915
 696,56; 4211,220;  163,408;49822,989; 8,15112
 697,13; 4264,727;  193,331;50241,106; 8,13502
 697,71; 4280,081;  163,793;50276,993; 8,21398
 698,28; 4294,896;  162,100;50717,956; 8,17471
 698,85; 4240,942;  130,408;50624,227; 8,14067
 699,42; 4268,604;  137,639;50795,728; 8,15460
 699,99; 4334,419;  182,177;50976,999; 8,17454
 700,57; 4350,158;  179,331;50926,347; 8,21886
 701,14; 4320,588;  152,715;51028,464; 8,19226
 701,71; 4405,865;  177,792;51214,043; 8,28445
 702,28; 4383,527;  165,561;51274,390; 8,25291
 702,85; 4431,573;  165,946;51489,815; 8,31120
 703,43; 4434,311;  177,176;51675,163; 8,26660
 704,00; 4503,126;  192,561;51821,280; 8,34916
 704,57; 4470,480;  160,638;51809,012; 8,34459
 705,14; 4512,680;  184,560;52136,437; 8,33102
 705,71; 4556,803;  184,791;52095,785; 8,42213
 706,28; 4517,234;  153,868;52033,056; 8,41063
 706,86; 4596,665;  202,022;52219,096; 8,44846
 707,43; 4598,095;  214,406;52161,136; 8,43882
 708,00; 4599,911;  179,252;52207,869; 8,49659
 708,57; 4571,111;  149,791;52063,293; 8,51671
 709,14; 4603,695;  182,637;52260,256; 8,48936
 709,71; 4626,587;  161,483;52303,527; 8,56335
 710,28; 4653,941;  164,559;52506,952; 8,57695
 710,86; 4661,680;  163,175;52649,685; 8,57078
 711,43; 4715,341;  194,175;52711,955; 8,60883
 712,00; 4709,695;  171,559;52665,534; 8,64506
 712,57; 4743,510;  188,251;52900,113; 8,64181
 713,14; 4769,095;  179,867;52861,153; 8,71131
 713,71; 4765,602;  183,251;52892,808; 8,69359
 714,28; 4760,648;  184,405;52935,079; 8,67523
 714,85; 4727,079;  159,482;52642,965; 8,70292
 715,42; 4819,818;  173,251;52961,775; 8,80223
 716,00; 4858,864;  262,789;53003,353; 8,71450
 716,57; 4833,756;  180,251;53124,316; 8,78947
 717,14; 4831,571;  167,327;53061,972; 8,81799
 717,71; 4890,771;  159,712;53154,935; 8,92733
 718,28; 4945,817;  215,173;53179,821; 8,93170
 718,85; 4904,633;  167,558;53209,631; 8,93079
 719,42; 4953,602;  189,481;53375,440; 8,95748
 719,99; 4961,417;  171,173;53217,326; 9,03033
 720,56; 4987,925;  194,481;53485,367; 8,99487
 721,13; 5003,586;  163,327;53548,253; 9,06672
 721,70; 5009,094;  161,326;53383,601; 9,10853
 722,27; 5042,524;  191,172;53449,179; 9,10915
 722,84; 5104,263;  241,095;53625,296; 9,10975
 723,41; 5039,155;  173,788;53601,952; 9,10637
 723,98; 5087,047;  175,634;53809,223; 9,15735
 724,55; 5150,555;  209,172;53838,109; 9,21402
 725,12; 5122,524;  142,326;53899,611; 9,26423
 725,69; 5184,186;  164,941;53996,343; 9,32401
 726,27; 5186,693;  178,172;54020,691; 9,30217
 726,84; 5267,509;  180,325;54352,962; 9,39069
 727,41; 5298,555;  196,710;54325,310; 9,42541
 727,98; 5336,216;  193,864;54627,042; 9,44709
 728,55; 5313,493;  208,402;54566,774; 9,39154
 729,12; 5336,001;  165,863;54591,199; 9,49950
 729,69; 5390,201;  197,017;54819,855; 9,50735
 730,26; 5412,093;  199,709;54991,972; 9,51299
 730,82; 5457,062;  182,632;54801,858; 9,65673
 731,39; 5437,339;  186,709;54894,283; 9,59763
 731,96; 5501,923;  154,709;55116,169; 9,72903
 732,53; 5614,123;  178,170;55468,824; 9,83159
 733,10; 5618,631;  191,247;55492,711; 9,81418
 733,67; 5626,600;  185,709;55699,751; 9,80093
 734,24; 5596,339;  164,786;55432,099; 9,82779
 734,81; 5653,923;  202,555;55555,754; 9,84833
 735,38; 5637,585;  181,170;55315,256; 9,89663
 735,95; 5668,246;  175,401;55056,219;10,00868
 736,52; 5702,908;  184,785;55354,336;10,00212
 737,09; 5706,415;  184,400;54997,838;10,07420
 737,66; 5756,769;  227,169;55233,109;10,05273
 738,23; 5711,661;  157,169;55200,072;10,09120
 738,80; 5862,246;  247,169;55528,573;10,15726
 739,37; 5836,830;  206,169;55690,383;10,14822
 739,94; 5878,723;  184,861;55706,423;10,25523
 740,51; 5947,153;  303,092;55704,078;10,18765
 741,07; 5880,738;  183,169;55709,349;10,26105
 741,64; 5957,938;  200,553;55927,697;10,33138
 742,21; 5981,292;  180,245;55903,353;10,41049
 742,78; 5942,876;  153,168;55704,931;10,42219
 743,35; 5994,307;  174,476;56020,510;10,42121
 743,92; 6093,045;  214,014;56187,781;10,50319
 744,49; 6112,245;  210,860;56069,821;10,56480
 745,06; 6049,676;  172,476;56056,707;10,51674
 745,63; 6105,183;  168,091;56037,055;10,62682
 746,19; 6079,383;  169,322;56016,326;10,58259
 746,76; 6096,199;  180,783;56017,520;10,59413
 747,33; 6156,860;  185,475;56044,021;10,69019
 747,90; 6210,752;  198,398;56258,908;10,72476
 748,47; 6187,875;  187,244;56098,563;10,73241
 749,04; 6239,768;  193,783;56140,065;10,80677
 749,61; 6247,045;  221,090;56087,874;10,78629
 750,17; 6270,014;  199,782;56126,453;10,85391
 750,74; 6307,983;  190,859;56050,339;10,95091
 751,31; 6304,337;  175,244;56038,379;10,97162
 751,88; 6299,537;  162,244;55875,804;11,01580
 752,45; 6375,352;  173,090;55955,306;11,11871
 753,02; 6363,090;  204,705;55796,423;11,07788
 753,58; 6375,675;  166,397;55712,924;11,17852
 754,15; 6393,336;  172,782;55850,580;11,17242
 754,72; 6365,536;  166,858;55587,620;11,18476
 755,29; 6396,659;  156,628;55477,429;11,27972
 755,86; 6432,782;  192,243;55599,392;11,26306
 756,42; 6503,290;  200,089;55484,202;11,40147
 756,99; 6489,875;  164,935;55437,396;11,44320
 757,56; 6481,921;  179,242;55457,897;11,40165
 758,13; 6481,659;  130,704;55448,784;11,48079
 758,70; 6552,244;  181,396;55384,285;11,54079
 759,26; 6594,597;  171,396;55497,633;11,60968
 759,83; 6636,874;  178,473;55651,904;11,64233
 760,40; 6622,920;  176,319;55360,559;11,68196
 760,97; 6594,813;  165,857;55437,446;11,63157
 761,53; 6629,012;  171,242;54953,794;11,78801
 762,10; 6602,443;  167,934;55044,218;11,72548
 762,67; 6675,874;  195,165;55154,181;11,79189
 763,24; 6623,689;  153,857;54675,760;11,86648
 763,80; 6658,658;  180,010;54842,877;11,85201
 764,37; 6680,320;  178,164;54755,379;11,91368
 764,94; 6645,751;  149,933;54295,573;11,99694
 765,50; 6668,412;  147,625;54383,382;12,02304
 766,07; 6736,150;  190,779;54367,653;12,08149
 766,64; 6654,197;  168,471;54001,770;12,04779
 767,21; 6693,935;  170,933;53891,656;12,14243
 767,77; 6739,289;  174,856;53840,927;12,23200
 768,34; 6752,104;  181,471;53776,737;12,25973
 768,91; 6762,612;  178,933;53575,084;12,32988
 769,47; 6768,119;  182,163;53579,817;12,33379
 770,04; 6784,704;  172,702;53440,011;12,41287
 770,61; 6750,904;  170,009;53255,435;12,39680
 771,18; 6768,334;  160,163;53085,091;12,48593
 771,74; 6806,073;  170,932;53323,285;12,48325
 772,31; 6798,657;  179,009;53058,940;12,51826
 772,88; 6772,011;  157,393;52707,750;12,58720
 773,44; 6759,903;  156,624;52618,482;12,58682
 774,01; 6805,257;  179,547;52727,599;12,60886
 774,58; 6799,919;  163,624;52399,947;12,70437
 775,14; 6831,657;  157,777;52576,064;12,73197
 775,71; 6895,934;  159,393;52494,797;12,87186
 776,27; 6884,595;  220,854;52398,067;12,77136
 776,84; 6971,180;  265,008;52499,492;12,83859
 777,41; 6902,072;  179,623;52180,071;12,92768
 777,97; 6875,349;  159,469;51969,342;12,96255
 778,54; 6912,241;  186,315;51924,766;12,99986
 779,11; 6959,980;  206,546;51930,191;13,05676
 779,67; 6962,795;  162,853;51953,308;13,12972
 780,24; 6986,303;  190,392;51668,887;13,20146
 780,80; 6982,810;  191,776;51699,773;13,18443
 781,37; 6965,780;  187,545;51610,659;13,18130
 781,94; 7003,672;  185,161;51420,238;13,30829
 782,50; 7044,718;  185,853;51404,739;13,39128
 783,07; 7039,687;  204,622;51467,472;13,33337
 783,63; 7011,349;  176,314;51216,358;13,39151
 784,20; 7082,395;  206,699;51172,475;13,49081
 784,77; 7067,133;  187,468;50910,054;13,56332
 785,33; 7066,487;  164,929;50735,940;13,64726
 785,90; 7094,379;  175,237;50656,749;13,70629
 786,46; 7112,271;  205,160;50620,020;13,70055
 787,03; 7125,164;  182,852;50350,599;13,83820
 787,59; 7142,287;  181,621;50371,947;13,86854
 788,16; 7190,948;  198,929;50292,141;13,95802
 788,73; 7144,840;  206,313;50144,565;13,89421
 789,29; 7136,502;  189,082;49801,529;14,00338
 789,86; 7142,702;  223,005;49716,876;13,98092
 790,42; 7185,363;  196,467;49448,378;14,19010
 790,99; 7145,871;  212,390;49178,649;14,15971
 791,55; 7162,148;  189,851;49200,535;14,22607
 792,12; 7185,271;  212,774;49231,883;14,22404
 792,68; 7141,778;  198,543;48849,846;14,27143
 793,25; 7179,517;  204,774;48615,886;14,40732
 793,81; 7152,947;  284,081;48344,542;14,29214
 794,38; 7035,993;  174,620;48147,736;14,30254
 794,94; 7110,886;  193,004;47935,007;14,49014
 795,51; 7119,240;  204,158;47653,431;14,57363
 796,07; 7061,209;  203,158;47466,087;14,51042
 796,64; 7135,562;  215,004;47469,204;14,64538
 797,20; 7094,147;  211,465;47105,552;14,67708
 797,77; 7044,962;  175,696;46680,823;14,77099
 798,33; 7069,547;  196,542;46547,632;14,82814
 798,90; 7086,901;  225,542;46521,903;14,82051
 799,46; 6991,562;  197,773;45897,789;14,86605
 800,03; 7033,454;  202,234;45879,368;14,95545
 800,59; 7041,039;  224,234;45703,177;14,98893
 801,15; 7025,008;  221,157;45521,910;15,01929
 801,72; 6995,439;  206,541;45155,334;15,10363
 802,28; 7009,485;  232,849;44877,221;15,17915
 802,85; 6930,608;  206,618;44621,338;15,13910
 803,41; 6959,346;  205,310;44556,762;15,22844
 803,98; 6890,239;  194,541;44047,418;15,26855
 804,54; 6862,439;  205,695;43920,766;15,22757
 805,11; 6878,177;  207,848;43638,113;15,35871
 805,67; 6881,685;  238,771;43593,461;15,32225
 806,23; 6858,346;  215,002;43168,732;15,46628
 806,80; 6880,161;  230,079;43040,695;15,53372
 807,36; 6855,669;  230,540;43046,812;15,47339
 807,93; 6812,177;  238,848;42722,237;15,47270
 808,49; 6792,377;  204,079;42402,585;15,61263
 809,05; 6777,423;  181,386;42154,087;15,71506
 809,62; 6818,007;  222,694;42141,511;15,73354
 810,18; 6771,976;  212,078;42042,551;15,68210
 810,74; 6723,176;  182,770;41760,822;15,73043
 811,31; 6705,838;  180,693;41524,709;15,78256
 811,87; 6778,807;  211,924;41277,903;15,99105
 812,44; 6785,699;  231,847;41479,250;15,88913
 813,00; 6726,284;  165,770;41034,598;16,05261
 813,56; 6761,330;  209,231;41162,484;15,99897
 814,13; 6799,761;  221,077;41008,448;16,12922
 814,69; 6771,807;  210,770;40900,949;16,12437
 815,25; 6699,007;  183,923;40381,066;16,20783
 815,82; 6748,899;  226,462;40351,491;16,25528
 816,38; 6784,406;  254,462;40127,762;16,37674
 816,94; 6737,222;  195,385;39958,802;16,45190
 817,51; 6667,806;  186,384;39646,535;16,42523
 818,07; 6690,929;  198,692;39392,882;16,56428
 818,63; 6693,129;  222,384;39210,307;16,59679
 819,20; 6724,637;  215,923;39112,270;16,73348
 819,76; 6633,145;  197,769;38788,849;16,67581
 820,32; 6634,729;  246,307;38646,966;16,63623
 820,89; 6655,314;  219,384;38460,391;16,82992
 821,45; 6623,206;  205,768;38189,431;16,89526
 822,01; 6615,483;  222,922;37871,086;16,97974
 822,57; 6621,913;  227,691;37855,280;16,99344
 823,14; 6555,190;  178,922;37486,167;17,09123
 823,70; 6568,544;  206,768;37306,745;17,14766
 824,26; 6538,821;  200,922;37121,939;17,16610
 824,82; 6571,636;  239,844;37027,441;17,21176
 825,39; 6497,605;  211,229;36749,481;17,20492
 825,95; 6533,728;  219,613;36730,752;17,29367
 826,51; 6495,775;  218,460;36361,330;17,36806
 827,08; 6511,744;  251,613;36483,217;17,27809
 827,64; 6512,867;  227,613;36268,334;17,43931
 828,20; 6438,682;  197,228;35898,143;17,48262
 828,76; 6531,420;  238,305;35886,029;17,65362
 829,32; 6485,082;  243,767;35756,454;17,57489
 829,89; 6448,897;  186,997;35706,186;17,62963
 830,45; 6467,328;  213,613;35627,303;17,65903
 831,01; 6471,682;  209,612;35479,190;17,75487
 831,57; 6417,266;  213,228;35345,230;17,65922
 832,14; 6419,466;  206,612;35348,655;17,67926
 832,70; 6441,974;  200,228;35060,695;17,90494
 833,26; 6386,635;  184,227;34902,889;17,86477
 833,82; 6443,758;  215,689;34895,467;17,95879
 834,38; 6428,497;  203,227;34862,200;17,96149
 834,95; 6390,081;  196,458;34716,471;17,94212
 835,51; 6373,512;  167,612;34589,818;18,02877
 836,07; 6448,789;  208,919;34684,397;18,09944
 836,63; 6462,835;  237,842;34621,206;18,10466
 837,19; 6461,650;  217,380;34434,862;18,24877
 837,75; 6412,466;  175,380;34086,287;18,39256
 838,32; 6508,973;  225,457;34296,327;18,44249
 838,88; 6469,327;  227,380;34342,905;18,29650
 839,44; 6525,065;  229,918;34228,561;18,51588
 840,00; 6499,958;  223,072;34125,293;18,51467
 840,56; 6445,158;  185,688;33756,487;18,64558
 841,12; 6464,281;  201,457;33786,296;18,64777
 841,68; 6417,634;  179,226;33638,490;18,64479
 842,25; 6445,373;  195,303;33518,838;18,75572
 842,81; 6398,650;  189,149;33322,032;18,74120
 843,37; 6388,465;  173,687;33416,226;18,69526
 843,93; 6449,357;  198,379;33342,497;18,85999
 844,49; 6539,173;  223,917;33339,999;19,07006
 845,05; 6413,065;  169,687;33131,347;18,94133
 845,61; 6538,495;  223,302;33205,002;19,14757
 846,17; 6479,311;  194,148;33015,658;19,14952
 846,73; 6467,588;  216,686;33016,775;19,05757
 847,29; 6432,249;  182,686;32860,661;19,12470
 847,86; 6453,680;  189,917;32722,009;19,25410
 848,42; 6431,341;  201,071;32543,203;19,26364
 848,98; 6479,234;  208,917;32561,858;19,38098
 849,54; 6476,049;  195,147;32552,283;19,41118
 850,10; 6474,249;  211,532;32341,708;19,49170
 850,66; 6440,141;  177,762;32299,517;19,49576
 851,22; 6466,187;  178,608;32128,403;19,67956
 851,78; 6545,156;  240,993;32229,674;19,70748
 852,34; 6463,279;  211,147;31870,637;19,74805
 852,90; 6446,479;  206,300;31847,831;19,72148
 853,46; 6426,525;  192,300;31624,410;19,83394
 854,02; 6466,879;  217,069;31638,450;19,89031
 854,58; 6402,848;  207,608;31429,105;19,84287
 855,14; 6396,587;  192,762;31338,761;19,91853
 855,70; 6393,402;  167,684;31218,416;20,05015
 856,26; 6382,602;  209,069;31233,534;19,89892
 856,82; 6360,571;  198,915;30950,574;20,03683
 857,38; 6427,463;  236,453;30908,614;20,18446
 857,94; 6379,125;  206,761;30828,577;20,15675
 858,50; 6383,709;  223,915;30618,617;20,26601
 859,06; 6323,217;  198,838;30493,426;20,21608
 859,62; 6336,340;  230,145;30468,390;20,19362
 860,18; 6319,771;  206,837;30324,584;20,29678
 860,74; 6266,894;  176,991;30105,547;20,34813
 861,30; 6265,863;  184,683;29888,125;20,47298
 861,86; 6385,294;  250,760;30023,935;20,60423
 862,42; 6289,109;  200,145;29767,821;20,59331
 862,98; 6332,386;  227,606;29734,476;20,68935
 863,54; 6257,970;  204,221;29541,209;20,63521
 864,10; 6309,863;  206,221;29542,249;20,80596
 864,66; 6232,140;  184,760;29320,905;20,75559
 865,22; 6257,339;  197,990;29224,714;20,87507
 865,78; 6233,078;  210,375;29105,677;20,84319
 866,34; 6230,124;  192,221;29035,333;20,93361
 866,90; 6219,555;  203,913;28876,911;20,98016
 867,45; 6223,908;  206,913;28690,105;21,12472
 868,01; 6241,801;  216,913;28554,145;21,26138
 868,57; 6168,462;  202,374;28341,955;21,20177
 869,13; 6178,739;  180,759;28286,995;21,34039
 869,69; 6113,631;  200,143;28199,343;21,12020
 870,25; 6126,908;  193,528;28030,152;21,31501
 870,81; 6146,339;  190,681;27974,346;21,43582
 871,37; 6198,231;  218,220;27896,617;21,60534
 871,93; 6209,739;  230,604;27765,580;21,71469
 872,49; 6205,092;  248,296;27545,697;21,82184
 873,04; 6062,908;  198,604;27359,506;21,59098
 873,60; 6096,800;  195,296;27265,546;21,80070
 874,16; 6108,692;  216,065;27204,048;21,83426
 874,72; 6089,692;  187,450;27066,048;21,95889
 875,28; 6139,385;  203,681;27009,971;22,14295
 875,84; 6110,923;  202,373;26925,510;22,11024
 876,40; 6120,385;  190,681;26853,587;22,23953
 876,95; 6119,385;  210,681;26916,356;22,12527
 877,51; 6164,692;  237,450;26936,817;22,19994
 878,07; 6206,846;  247,988;26841,817;22,40692
 878,63; 6154,231;  207,142;26853,587;22,31851
 879,19; 6204,308;  218,681;26860,279;22,46722
 879,75; 6190,462;  207,450;26893,740;22,41979
 880,30; 6216,538;  198,988;26889,971;22,54525
 880,86; 6249,308;  249,373;27000,202;22,42897
 881,42; 6228,615;  203,373;27050,202;22,44303
 881,98; 6310,231;  221,681;27168,048;22,59507
 882,54; 6322,538;  206,219;27217,663;22,64344
 883,09; 6390,615;  208,527;27339,279;22,78628
 883,65; 6416,538;  194,527;27335,202;22,92504
 884,21; 6524,308;  234,912;27546,587;23,02823
 884,77; 6469,308;  197,142;27684,202;22,81861
 885,32; 6554,923;  209,142;27806,202;22,99441
 885,88; 6602,692;  249,142;27903,587;22,97479
 886,44; 6620,308;  214,835;27971,202;23,07749
 887,00; 6623,846;  227,604;27985,048;23,04334
 887,56; 6678,308;  209,912;28107,048;23,18660
 888,11; 6692,000;  215,219;28153,740;23,18226
 888,67; 6770,154;  239,065;28319,202;23,25875
 889,23; 6761,923;  212,835;28304,202;23,31353
 889,79; 6728,923;  192,758;28167,279;23,36471
 890,34; 6731,923;  221,450;28126,510;23,33080
 890,90; 6861,692;  287,988;28239,510;23,51823
 891,46; 6798,615;  210,604;28133,894;23,59325
 892,01; 6791,077;  235,296;28142,202;23,49161
 892,57; 6788,077;  250,604;28027,433;23,53571
 893,13; 6736,000;  207,450;27874,510;23,59683
 893,69; 6730,077;  199,604;27834,433;23,63131
 894,24; 6754,692;  209,450;27745,433;23,76978
 894,80; 6772,385;  222,373;27656,048;23,87581
 895,36; 6737,308;  220,065;27516,279;23,87599
 895,91; 6672,846;  212,988;27286,202;23,86070
 896,47; 6714,769;  229,912;27175,510;24,06648
 897,03; 6688,154;  220,450;26974,740;24,17445
 897,58; 6632,462;  222,296;26837,587;24,08452
 898,14; 6651,538;  227,912;26705,740;24,26040
 898,70; 6607,231;  192,912;26521,433;24,36263
 899,25; 6630,538;  217,681;26541,740;24,36120
 899,81; 6600,462;  228,912;26378,202;24,36605
 900,37; 6533,615;  197,758;26079,894;24,47965
 900,92; 6593,000;  218,835;26093,048;24,63520
 901,48; 6555,538;  202,450;26053,279;24,57596
 902,03; 6533,923;  201,219;25818,740;24,72021
 902,59; 6546,615;  212,988;25710,510;24,84017
 903,15; 6526,769;  212,527;25576,202;24,89482
 903,70; 6473,462;  207,988;25382,587;24,88808
 904,26; 6490,923;  208,758;25265,356;25,07190
 904,82; 6502,462;  216,450;25302,202;25,05809
 905,37; 6465,000;  233,912;25079,510;25,07925
 905,93; 6448,000;  199,681;24944,971;25,25054
 906,48; 6472,231;  232,373;24824,279;25,37362
 907,04; 6421,846;  224,604;24824,740;25,19190
 907,60; 6449,615;  225,681;24573,356;25,56275
 908,15; 6421,462;  193,373;24495,202;25,62806
 908,71; 6413,231;  231,373;24481,587;25,49197
 909,26; 6443,231;  213,296;24315,048;25,84847
 909,82; 6386,923;  227,142;24178,433;25,71795
 910,37; 6420,846;  260,450;24143,433;25,79408
 910,93; 6308,385;  201,988;23932,356;25,73241
 911,48; 6295,846;  201,988;23748,740;25,87982
 912,04; 6288,692;  219,296;23688,894;25,86067
 912,60; 6335,077;  226,527;23709,663;26,01250
 913,15; 6267,769;  232,219;23494,202;25,94598
 913,71; 6236,846;  201,219;23282,587;26,14935
 914,26; 6233,154;  198,835;23220,817;26,21112
 914,82; 6207,846;  220,604;23132,510;26,13158
 915,37; 6225,769;  205,450;23068,587;26,33199
 915,93; 6291,615;  264,758;23015,663;26,49063
 916,48; 6168,692;  192,065;22835,894;26,39407
 917,04; 6191,308;  226,065;22721,510;26,51756
 917,59; 6164,538;  248,681;22648,433;26,41037
 918,15; 6090,846;  175,527;22479,740;26,52108
 918,70; 6084,000;  216,065;22344,510;26,51761
 919,26; 6106,000;  219,912;22277,663;26,68490
 919,81; 6016,154;  199,988;22119,125;26,53465
 920,37; 5989,154;  206,527;21986,587;26,55010
 920,92; 6011,615;  231,065;22000,202;26,55388
 921,48; 5946,769;  201,604;21781,971;26,62219
 922,03; 5897,231;  205,142;21755,202;26,41333
 922,59; 5902,923;  212,604;21551,356;26,66660
 923,14; 5921,846;  213,912;21536,971;26,76883
 923,69; 5924,692;  227,912;21373,510;26,94074
 924,25; 5933,615;  233,604;21373,279;26,96357
 924,80; 5836,923;  213,912;21137,125;26,87451
 925,36; 5874,462;  205,604;21097,433;27,13433
 925,91; 5781,308;  205,296;20935,202;26,89839
 926,47; 5756,462;  188,296;20840,663;26,96139
 927,02; 5846,154;  270,065;20835,817;27,11347
 927,57; 5759,154;  210,988;20660,740;27,13072
 928,13; 5742,538;  198,219;20612,663;27,15881
 928,68; 5735,846;  209,604;20522,587;27,20547
 929,24; 5666,846;  182,912;20419,663;27,09889
 929,79; 5682,077;  207,142;20219,971;27,35713
 930,34; 5629,769;  218,219;20070,894;27,25854
 930,90; 5621,538;  200,758;20103,587;27,23623
 931,45; 5690,154;  219,373;20063,971;27,56811
 932,01; 5671,846;  213,219;19824,894;27,83356
 932,56; 5611,538;  222,912;19795,894;27,53094
 933,11; 5623,692;  245,142;19744,663;27,58299
 933,67; 5552,385;  209,912;19569,740;27,59566
 934,22; 5563,846;  214,912;19479,663;27,76540
 934,77; 5546,769;  250,604;19436,202;27,60490
 935,33; 5513,462;  221,835;19295,279;27,74343
 935,88; 5528,615;  216,758;19181,510;28,00911
 936,43; 5481,692;  217,758;19164,663;27,78256
 936,99; 5477,462;  221,681;19027,510;27,94762
 937,54; 5425,692;  191,681;18841,894;28,06408
 938,09; 5422,846;  226,142;18791,740;27,99104
 938,65; 5388,846;  215,604;18645,817;28,06936
 939,20; 5371,308;  206,912;18601,740;28,07526
 939,75; 5390,692;  205,219;18505,356;28,33571
 940,31; 5294,462;  191,758;18393,971;28,03342
 940,86; 5367,923;  224,142;18389,048;28,31713
 941,41; 5392,077;  308,527;18269,817;28,30281
 941,96; 5303,462;  210,912;18149,433;28,38891
 942,52; 5307,385;  215,065;18048,125;28,55550
 943,07; 5267,846;  193,527;17949,125;28,57870
 943,62; 5284,308;  206,835;17862,740;28,75793
 944,18; 5270,615;  194,373;17755,663;28,90586
 944,73; 5261,308;  233,065;17721,510;28,75180
 945,28; 5161,615;  186,065;17468,510;28,78962
 945,83; 5171,385;  203,296;17503,740;28,71654
 946,39; 5190,538;  210,296;17489,740;28,82177
 946,94; 5211,769;  235,296;17365,510;29,05085
 947,49; 5148,231;  208,988;17228,740;29,02065
 948,04; 5206,692;  256,296;17257,663;29,11764
 948,59; 5186,692;  226,373;17127,510;29,34903
 949,15; 5149,462;  204,296;17016,356;29,41439
 949,70; 5102,538;  207,219;16957,587;29,22515
 950,25; 5093,385;  218,219;16872,894;29,27205
 950,80; 5043,615;  177,758;16704,125;29,44300
 951,36; 5023,231;  186,604;16642,279;29,39185
 951,91; 5097,462;  238,758;16653,279;29,60003
 952,46; 5005,385;  198,912;16474,125;29,53247
 953,01; 5041,308;  231,373;16479,279;29,60341
 953,56; 4966,846;  182,527;16339,663;29,61118
 954,11; 5004,308;  216,835;16342,971;29,68766
 954,67; 4964,154;  210,604;16240,433;29,65440
 955,22; 4947,692;  186,065;16065,125;29,98683
 955,77; 4977,077;  236,835;16076,510;29,92639
 956,32; 4979,769;  255,450;15970,125;30,06310
 956,87; 4882,308;  201,988;15816,356;29,97444
 957,42; 4839,692;  213,065;15744,202;29,78936
 957,98; 4835,769;  201,219;15677,125;29,94687
 958,53; 4854,846;  233,373;15685,894;29,90757
 959,08; 4810,077;  193,835;15538,048;30,08458
 959,63; 4788,000;  199,219;15422,356;30,14346
 960,18; 4754,692;  220,296;15400,817;29,86983
 960,73; 4732,231;  208,142;15353,048;29,87201
 961,28; 4721,769;  193,604;15228,510;30,11768
 961,83; 4731,000;  220,912;15224,510;30,06005
 962,39; 4660,308;  190,604;15026,894;30,12683
 962,94; 4648,538;  217,912;14998,510;29,97597
 963,49; 4654,308;  211,988;14846,048;30,35603
 964,04; 4639,385;  229,912;14804,971;30,25355
 964,59; 4596,769;  186,219;14735,356;30,31486
 965,14; 4607,077;  236,912;14637,740;30,34662
 965,69; 4581,308;  217,604;14532,356;30,48396
 966,24; 4513,769;  192,065;14443,894;30,32385
 966,79; 4530,000;  224,142;14397,125;30,38074
 967,34; 4477,385;  193,527;14195,587;30,59448
 967,89; 4461,462;  207,835;14179,048;30,44565
 968,44; 4472,769;  208,527;14128,740;30,63345
 968,99; 4456,077;  218,219;14066,740;30,60152
 969,55; 4435,923;  213,450;13953,817;30,73042
 970,10; 4397,615;  230,835;13867,587;30,55552
 970,65; 4384,308;  237,065;13742,587;30,70775
 971,20; 4332,615;  196,296;13683,510;30,66845
 971,75; 4287,846;  183,527;13469,356;30,89246
 972,30; 4329,000;  210,450;13451,663;31,10402
 972,85; 4282,385;  202,604;13365,125;30,99544
 973,40; 4258,308;  203,912;13249,663;31,07829
 973,95; 4234,692;  221,219;13220,740;30,87401
 974,50; 4226,923;  244,450;13146,894;30,86604
 975,05; 4173,923;  230,450;13000,279;30,88117
 975,60; 4203,231;  229,373;12978,894;31,16868
 976,15; 4154,692;  204,988;12840,663;31,25835
 976,70; 4164,923;  216,758;12794,356;31,39046
 977,25; 4141,615;  228,912;12717,817;31,32944
 977,80; 4080,769;  213,219;12616,433;31,18184
 978,35; 4057,385;  230,604;12468,048;31,27108
 978,89; 4024,231;  188,758;12345,510;31,55015
 979,44; 4020,923;  212,527;12355,971;31,36175
 979,99; 3973,154;  197,142;12160,510;31,56312
 980,54; 3983,462;  233,142;12152,356;31,46449
 981,09; 3947,077;  228,681;12073,433;31,39277
 981,64; 3919,462;  222,373;11907,663;31,63882
 982,19; 3906,462;  263,527;11902,510;31,29942
 982,74; 3908,769;  225,450;11733,971;32,00515
 983,29; 3835,231;  196,065;11599,356;31,91329
 983,84; 3824,615;  223,142;11474,202;32,01008
 984,39; 3879,385;  313,988;11432,587;32,06696
 984,94; 3704,154;  190,912;11322,971;31,55968
 985,49; 3766,538;  240,065;11240,587;32,05733
 986,03; 3753,154;  246,450;11184,587;32,05943
 986,58; 3735,846;  272,758;11041,740;32,15799
 987,13; 3652,462;  228,988;10894,587;32,09828
 987,68; 3671,846;  232,142;10822,125;32,48073
 988,23; 3657,231;  242,065;10802,048;32,34063
 988,78; 3582,308;  204,604;10655,433;32,31996
 989,33; 3568,923;  242,142;10548,125;32,28009
 989,88; 3585,692;  267,296;10489,740;32,46187
 990,42; 3509,308;  222,142;10372,433;32,38494
 990,97; 3479,308;  219,065;10237,356;32,54290
 991,52; 3510,231;  242,835;10154,125;32,96641
 992,07; 3477,692;  254,681;10121,663;32,66461
 992,62; 3428,077;  229,296; 9972,356;32,83138
 993,17; 3406,077;  231,219; 9894,663;32,85431
 993,71; 3367,000;  240,604; 9765,433;32,82365
 994,26; 3322,308;  210,681; 9678,125;32,86660
 994,81; 3338,231;  243,681; 9602,510;33,06557
 995,36; 3265,846;  219,219; 9478,894;32,90209
 995,91; 3243,769;  229,604; 9431,356;32,75643
 996,45; 3231,308;  226,065; 9270,279;33,22834
 997,00; 3174,846;  206,527; 9123,740;33,28752
 997,55; 3188,615;  239,835; 9109,587;33,24536
 998,10; 3150,615;  253,681; 8988,433;33,16562
 998,65; 3102,231;  221,065; 8947,356;33,01707
 999,19; 3086,615;  247,681; 8811,663;33,14970
 999,74; 3056,154;  247,373; 8739,510;33,07508
1000,29; 3064,846;  237,296; 8655,202;33,58971
1000,84; 2970,231;  224,988; 8495,894;33,19156
1001,38; 2961,000;  229,681; 8413,971;33,37271
1001,93; 2931,615;  243,373; 8355,356;33,13915
1002,48; 2892,154;  201,065; 8209,125;33,60475
1003,03; 2917,231;  241,988; 8186,894;33,67242
1003,57; 2886,308;  235,988; 8108,663;33,66479
1004,12; 2876,923;  271,296; 7949,048;33,93737
1004,67; 2773,308;  230,988; 7886,356;33,20963
1005,22; 2751,615;  217,142; 7729,125;33,73907
1005,76; 2694,923;  212,065; 7624,356;33,49650
1006,31; 2725,538;  251,219; 7583,894;33,74375
1006,86; 2687,769;  217,835; 7489,663;33,96580
1007,40; 2601,385;  206,450; 7323,587;33,65026
1007,95; 2647,385;  238,912; 7254,587;34,32988
1008,50; 2592,846;  231,604; 7108,048;34,33813
1009,04; 2535,538;  232,373; 7077,894;33,64485
1009,59; 2538,462;  242,527; 6945,279;34,25361
1010,14; 2486,462;  226,681; 6864,587;34,04358
1010,68; 2466,077;  234,065; 6776,971;34,11346
1011,23; 2421,462;  221,527; 6622,356;34,36953
1011,78; 2407,462;  237,681; 6594,279;34,13431
1012,32; 2405,615;  250,681; 6476,740;34,61153
1012,87; 2415,231;  250,835; 6461,279;34,85091
1013,42; 2329,538;  209,219; 6310,740;34,75067
1013,96; 2389,769;  265,142; 6342,587;34,95922
1014,51; 2306,615;  199,912; 6239,510;34,88152
1015,06; 2276,308;  202,912; 6241,663;34,33485
1015,60; 2352,000;  263,065; 6316,817;34,50645
1016,15; 2313,615;  214,681; 6243,894;34,81274
1016,69; 2342,923;  226,219; 6311,587;34,78350
1017,24; 2322,308;  211,758; 6283,202;34,76191
1017,79; 2412,077;  259,527; 6368,663;35,23493
1018,33; 2356,769;  212,835; 6299,663;35,22252
1018,88; 2415,308;  246,835; 6390,048;35,29868
1019,42; 2374,692;  220,681; 6383,202;34,95341
1019,97; 2361,000;  215,527; 6343,279;35,01240
1020,51; 2445,154;  252,065; 6435,125;35,46931
1021,06; 2383,615;  209,142; 6409,048;35,07268
1021,61; 2359,154;  187,604; 6367,587;35,13845
1022,15; 2327,231;  167,988; 6285,279;35,29736
1022,70; 2393,846;  222,296; 6293,663;35,76707
1023,24; 2360,769;  219,142; 6266,125;35,41646
1023,79; 2324,615;  219,296; 6194,279;35,23557
1024,33; 2321,462;  223,835; 6167,740;35,29038
1024,88; 2303,231;  227,296; 6046,740;35,67239
1025,42; 2298,769;  227,527; 5985,356;35,97263
1025,97; 2223,462;  209,527; 5905,663;35,35615
1026,51; 2199,769;  189,219; 5792,817;35,87963
1027,06; 2211,154;  208,296; 5716,433;36,36180
1027,60; 2182,154;  232,681; 5660,356;35,91728
1028,15; 2141,538;  238,450; 5538,048;35,91005
1028,69; 2061,769;  167,142; 5427,894;36,01437
1029,24; 2068,846;  198,373; 5382,663;36,07964
1029,78; 2033,308;  198,835; 5295,048;35,99679
1030,33; 1997,308;  193,527; 5186,817;36,12409
1030,87; 1969,385;  213,835; 5110,356;35,85301
1031,42; 1965,462;  194,373; 5040,510;36,54640
1031,96; 1962,308;  226,527; 4971,587;36,58080
1032,51; 1922,077;  210,758; 4889,202;36,57881
1033,05; 1906,385;  223,527; 4859,971;36,29630
1033,60; 1858,077;  182,988; 4725,971;36,87200
1034,14; 1846,615;  214,219; 4665,971;36,66862
1034,69; 1821,077;  214,527; 4596,433;36,66327
1035,23; 1816,615;  212,912; 4562,356;36,87147
1035,77; 1776,077;  211,912; 4520,048;36,30724
1036,32; 1755,385;  190,142; 4409,433;37,09729
1036,86; 1754,077;  215,065; 4379,817;36,95326
1037,41; 1733,308;  226,988; 4278,279;37,18122
1037,95; 1673,154;  186,604; 4218,971;36,86544
1038,50; 1680,154;  196,527; 4162,510;37,40881
1039,04; 1664,000;  233,219; 4120,587;36,80591
1039,58; 1599,846;  198,681; 4047,740;36,40280
1040,13; 1611,538;  209,681; 3989,048;37,09239
1040,67; 1642,385;  238,219; 3970,817;37,61898
1041,21; 1618,615;  243,988; 3912,740;37,46852
1041,76; 1530,769;  202,681; 3816,356;36,75174
1042,30; 1526,385;  206,988; 3788,125;36,84294
1042,85; 1518,000;  205,450; 3725,971;37,28283
1043,39; 1483,462;  199,065; 3647,125;37,24982
1043,93; 1507,077;  240,219; 3640,894;37,25312
1044,48; 1508,154;  228,296; 3562,663;38,38382
1045,02; 1458,692;  210,527; 3481,279;38,16142
1045,56; 1447,231;  241,065; 3502,971;36,97732
1046,11; 1426,769;  217,912; 3442,894;37,48416
1046,65; 1408,769;  231,758; 3371,663;37,48557
1047,19; 1370,000;  203,758; 3327,279;37,33742
1047,74; 1336,462;  189,065; 3238,510;37,62640
1048,28; 1329,923;  226,835; 3227,279;36,76417
1048,82; 1336,462;  248,604; 3210,510;36,72830
1049,37; 1321,615;  230,142; 3148,048;37,40604
1049,91; 1314,615;  224,450; 3114,433;37,72221
1050,45; 1310,000;  226,835; 3066,971;38,13779
1050,99; 1294,000;  221,758; 3028,587;38,20120
1051,54; 1248,462;  205,912; 2964,587;37,79169
1052,08; 1265,000;  242,373; 2919,125;38,20402
1052,62; 1253,231;  224,065; 2906,356;38,36890
1053,16; 1205,000;  211,450; 2845,894;37,71384
1053,71; 1203,000;  233,758; 2818,202;37,50293
1054,25; 1188,538;  238,450; 2767,125;37,57258
1054,79; 1182,846;  237,142; 2723,048;38,04263
1055,33; 1144,615;  192,373; 2670,279;38,42932
1055,88; 1156,154;  225,835; 2668,587;38,08488
1056,42; 1171,615;  249,296; 2646,817;38,46970
1056,96; 1143,769;  233,450; 2583,048;38,74361
1057,50; 1113,923;  234,835; 2545,433;38,04593
1058,05; 1096,538;  226,373; 2502,356;38,23251
1058,59; 1105,077;  245,219; 2489,279;38,31706
1059,13; 1051,308;  202,219; 2424,894;38,20120
1059,67; 1069,615;  242,373; 2421,433;37,96327
1060,21; 1058,923;  230,758; 2344,817;39,17417
1060,76; 1042,077;  235,142; 2316,433;38,77088
1061,30; 1033,231;  254,296; 2312,279;37,84942
1061,84; 1014,154;  233,758; 2244,202;38,81710
1062,38;  973,154;  209,912; 2193,048;38,48662
1062,92; 1032,308;  270,065; 2237,279;38,74731
1063,46;  988,385;  245,758; 2158,433;38,82661
1064,01;  951,077;  217,527; 2134,894;38,25819
1064,55;  964,692;  226,912; 2102,048;39,34544
1065,09;  918,000;  194,758; 2060,048;38,77371
1065,63;  949,154;  256,296; 2071,202;38,17596
1066,17;  961,385;  258,373; 2045,971;39,32716
1066,71;  945,000;  257,373; 2023,587;38,93227
1067,25;  919,692;  224,142; 1967,433;39,89869
1067,80;  919,385;  245,988; 1961,433;39,25491
1068,34;  937,308;  260,912; 1928,971;40,54988
1068,88;  892,308;  220,912; 1891,510;40,18897
1069,42;  900,615;  256,681; 1921,433;38,68051
1069,96;  879,000;  225,835; 1850,279;40,20854
1070,50;  901,077;  271,604; 1861,433;39,59376
1071,04;  849,000;  223,988; 1814,817;39,28842
1071,58;  832,077;  219,373; 1809,510;38,53152
1072,12;  845,615;  228,758; 1767,971;40,07616
1072,66;  841,769;  236,450; 1757,356;39,79992
1073,21;  842,769;  257,604; 1752,202;39,15202
1073,75;  827,000;  236,219; 1707,202;40,16232
1074,29;  808,538;  237,219; 1684,433;39,47719
1074,83;  829,769;  255,912; 1701,125;39,70747
1075,37;  824,923;  258,296; 1658,202;40,47608
1075,91;  799,538;  238,065; 1647,663;39,83214
1076,45;  799,077;  247,450; 1628,894;39,93118
1076,99;  784,462;  256,527; 1589,125;39,61694
1077,53;  745,385;  225,835; 1573,971;38,53838
1078,07;  766,462;  247,296; 1573,433;39,14871
1078,61;  764,462;  239,988; 1538,894;40,37807
1079,15;  748,769;  228,912; 1524,663;40,12016
1079,69;  743,308;  235,450; 1491,433;40,43509
1080,23;  739,769;  259,835; 1482,587;39,25037
1080,77;  775,154;  300,912; 1506,048;39,35175
1081,31;  712,231;  228,681; 1440,894;39,88984
1081,85;  733,000;  250,912; 1452,048;40,13603
1082,39;  718,538;  226,835; 1414,663;41,39518
1082,93;  722,308;  253,450; 1410,894;40,50802
1083,47;  693,462;  217,681; 1361,971;41,57867
1084,01;  719,692;  255,758; 1391,587;40,84547
1084,55;  688,692;  230,450; 1330,510;41,65613
1085,09;  684,000;  253,758; 1354,202;39,09715
1085,63;  681,000;  249,296; 1322,894;40,21094
1086,17;  675,615;  228,912; 1282,433;42,40103
1086,71;  668,308;  226,912; 1289,356;41,54535
1087,24;  675,538;  260,219; 1300,663;39,91749
1087,78;  672,308;  254,527; 1273,817;40,98741
1088,32;  630,615;  228,758; 1228,202;40,20812
1088,86;  665,462;  260,527; 1251,202;40,87462
1089,40;  627,154;  239,758; 1222,433;39,42261
1089,94;  616,231;  217,988; 1181,433;41,33527
1090,48;  620,231;  255,296; 1185,279;39,24101
1091,02;  639,462;  249,373; 1181,587;41,84540
1091,56;  625,385;  229,527; 1171,971;42,00330
1092,10;  582,462;  232,296; 1147,971;38,24123
1092,63;  634,000;  251,065; 1154,740;42,37526
1093,17;  615,000;  253,835; 1125,587;41,42984
1093,71;  590,385;  227,373; 1113,279;40,97631
1094,25;  614,538;  258,835; 1131,817;40,74581
1094,79;  578,154;  231,373; 1087,048;40,52716
1095,33;  578,846;  243,219; 1067,279;40,72848
1095,87;  574,923;  235,988; 1063,817;40,94260
1096,40;  555,077;  226,219; 1024,663;41,18731
1096,94;  571,692;  233,758; 1045,894;41,61057
1097,48;  576,154;  243,681; 1024,048;42,60469
1098,02;  551,769;  230,296; 1015,894;40,92081
1098,56;  522,846;  210,527;  980,048;40,58618
1099,10;  517,231;  219,681;  971,894;39,55659
1099,63;  525,692;  215,912;  948,587;42,28079
1100,17;  540,077;  248,758;  979,433;39,86988
1100,71;  553,692;  262,142;  987,433;40,19769

