
Integration time [ms]: 160,000
Averaging Nr. [scans]: 13
Smoothing Nr. [pixels]: 0
Data measured with spectrometer [name]: 2009305U1
Wave   ;Sample   ;Dark     ;Reference;Reflectance
[nm]   ;[counts] ;[counts] ;[counts] ;[%]

 175,72;  221,210;  227,877;  205,653; 0,00000
 176,32;  241,408;  238,108;  216,813; 0,00000
 176,92;  274,738;  281,492;  254,971; 0,00000
 177,52;  273,918;  278,185;  265,678; 0,00000
 178,12;  240,177;  254,723;  224,864; 0,00000
 178,72;  274,921;  289,108;  250,340; 0,00000
 179,32;  281,625;  256,954;  241,998; 0,00000
 179,92;  271,097;  281,338;  242,319; 0,00000
 180,52;  264,010;  263,262;  254,068; 0,00000
 181,12;  276,376;  276,108;  252,404; 0,00000
 181,73;  292,264;  303,108;  266,338; 0,00000
 182,33;  408,307;  411,031;  336,927; 0,00000
 182,93;  295,016;  290,415;  266,645; 0,00000
 183,53;  249,706;  263,569;  224,030; 0,00000
 184,13;  254,033;  262,185;  229,431; 0,00000
 184,73;  300,665;  312,338;  273,739; 0,00000
 185,33;  268,425;  253,262;  341,197;17,24402
 185,93;  280,704;  255,338;  348,375;27,26451
 186,53;  290,855;  269,646;  370,650;20,99776
 187,13;  305,645;  297,108;  414,063; 7,29951
 187,73;  267,186;  262,415;  361,495; 4,81501
 188,33;  271,980;  251,877;  370,649;16,92576
 188,93;  290,845;  275,338;  374,130;15,69601
 189,53;  285,078;  265,800;  393,125;15,14056
 190,13;  322,162;  302,646;  409,924;18,19202
 190,73;  265,271;  238,877;  365,019;20,92414
 191,34;  299,058;  276,877;  385,888;20,34766
 191,94;  275,879;  247,108;  359,614;25,57300
 192,54;  290,318;  267,185;  391,391;18,62489
 193,14;  298,736;  296,723;  390,009; 2,15830
 193,74;  292,346;  284,415;  377,424; 8,52689
 194,34;  303,280;  278,954;  388,106;22,28679
 194,94;  257,527;  235,415;  342,899;20,57183
 195,54;  239,719;  211,569;  332,970;23,18704
 196,14;  257,950;  238,877;  354,341;16,51877
 196,74;  259,559;  246,108;  343,719;13,78074
 197,34;  243,156;  215,262;  345,903;21,35152
 197,94;  254,036;  246,185;  373,573; 6,16355
 198,54;  283,705;  261,954;  383,909;17,83562
 199,14;  250,817;  224,646;  380,241;16,82013
 199,74;  241,950;  210,185;  370,197;19,85199
 200,34;  240,033;  199,492;  379,885;22,47370
 200,94;  268,373;  263,338;  425,936; 3,09657
 201,54;  252,840;  221,262;  432,596;14,94226
 202,14;  295,241;  272,031;  474,093;11,48671
 202,74;  260,874;  234,108;  473,146;11,19734
 203,34;  249,231;  206,415;  480,577;15,61697
 203,94;  219,905;  182,723;  486,255;12,24968
 204,54;  288,120;  258,723;  563,211; 9,65443
 205,14;  246,573;  204,108;  571,733;11,55117
 205,74;  304,427;  269,031;  659,589; 9,06303
 206,34;  264,248;  225,185;  679,015; 8,60755
 206,94;  276,956;  235,108;  728,140; 8,48786
 207,54;  247,710;  197,108;  773,579; 8,77796
 208,14;  275,779;  207,108;  845,836;10,75128
 208,74;  278,419;  218,954;  918,683; 8,49835
 209,34;  278,628;  219,569;  992,970; 7,63627
 209,94;  300,810;  224,800; 1089,013; 8,79533
 210,54;  293,624;  228,723; 1187,450; 6,76953
 211,14;  305,468;  227,262; 1267,179; 7,52044
 211,73;  317,372;  221,800; 1399,958; 8,11195
 212,33;  322,395;  238,569; 1495,442; 6,66935
 212,93;  325,000;  234,569; 1569,925; 6,77203
 213,53;  304,014;  193,492; 1613,023; 7,78576
 214,13;  354,788;  242,338; 1705,053; 7,68775
 214,73;  313,626;  199,031; 1721,786; 7,52550
 215,33;  309,503;  188,800; 1742,628; 7,76808
 215,93;  358,749;  226,262; 1862,662; 8,09628
 216,53;  310,567;  174,800; 1944,199; 7,67304
 217,13;  373,512;  229,569; 2159,512; 7,45841
 217,73;  373,553;  219,646; 2334,342; 7,27797
 218,33;  347,843;  168,569; 2512,186; 7,64946
 218,93;  408,088;  210,569; 2802,474; 7,62061
 219,53;  447,361;  210,262; 3052,680; 8,34146
 220,13;  419,310;  168,492; 3342,899; 7,90126
 220,73;  476,076;  204,954; 3659,770; 7,84765
 221,32;  479,573;  208,492; 4073,836; 7,01311
 221,92;  534,360;  212,262; 4477,909; 7,55098
 222,52;  540,014;  185,800; 4867,162; 7,56648
 223,12;  570,028;  196,723; 5286,413; 7,33453
 223,72;  618,084;  213,569; 5644,061; 7,44895
 224,32;  635,433;  210,415; 5997,482; 7,34427
 224,92;  629,405;  198,646; 6323,312; 7,03318
 225,52;  673,627;  211,492; 6670,557; 7,15482
 226,12;  667,904;  200,492; 6972,357; 6,90226
 226,72;  675,310;  178,415; 7292,274; 6,98488
 227,31;  689,590;  174,800; 7646,565; 6,88980
 227,91;  750,488;  218,262; 8071,656; 6,77702
 228,51;  733,114;  198,800; 8435,636; 6,48688
 229,11;  762,234;  200,492; 8840,069; 6,50195
 229,71;  773,609;  192,646; 9126,800; 6,50271
 230,31;  775,278;  178,877; 9555,531; 6,36049
 230,91;  781,745;  176,262; 9813,841; 6,28253
 231,51;  808,679;  182,492;10061,634; 6,33847
 232,10;  835,179;  191,877;10384,972; 6,31116
 232,70;  858,280;  209,031;10581,029; 6,25964
 233,30;  910,889;  218,492;10813,411; 6,53518
 233,90;  873,169;  187,569;10937,933; 6,37746
 234,50;  876,281;  204,954;11059,818; 6,18457
 235,10;  886,636;  186,646;10974,158; 6,48889
 235,70;  935,033;  216,185;11013,347; 6,65776
 236,29;  904,140;  200,646;10902,340; 6,57367
 236,89;  890,647;  180,185;10792,462; 6,69472
 237,49;  928,044;  211,800;10632,310; 6,87341
 238,09;  900,325;  186,031;10341,707; 7,03345
 238,69;  949,391;  246,338;10098,604; 7,13594
 239,29;  901,892;  197,415; 9734,699; 7,38656
 239,89;  904,675;  198,800; 9401,017; 7,67071
 240,48;  898,451;  184,492; 8971,537; 8,12513
 241,08;  879,389;  203,723; 8611,278; 8,03642
 241,68;  910,605;  206,031; 8278,664; 8,72793
 242,28;  889,813;  185,492; 7940,130; 9,08257
 242,88;  963,306;  243,262; 7665,624; 9,70101
 243,48;  962,450;  239,723; 7348,585;10,16656
 244,07;  952,844;  199,415; 7158,640;10,82633
 244,67;  984,275;  215,646; 6950,593;11,41255
 245,27; 1014,295;  214,185; 6813,419;12,12429
 245,87; 1033,950;  215,338; 6751,769;12,52382
 246,47; 1039,861;  202,415; 6743,128;12,80359
 247,06; 1074,571;  191,185; 6743,421;13,48221
 247,66; 1120,905;  191,723; 6819,743;14,01900
 248,26; 1201,203;  225,185; 7000,936;14,40458
 248,86; 1256,280;  208,415; 7154,654;15,08536
 249,46; 1279,469;  158,723; 7378,217;15,52389
 250,05; 1409,032;  211,492; 7771,472;15,84051
 250,65; 1459,785;  192,800; 8058,257;16,10822
 251,25; 1593,599;  195,031; 8552,490;16,73437
 251,85; 1722,633;  215,185; 9127,877;16,91350
 252,44; 1835,622;  171,108; 9680,974;17,50303
 253,04; 1992,230;  211,492;10445,847;17,39961
 253,64; 2095,030;  161,646;11140,049;17,61080
 254,24; 2365,284;  201,800;12050,132;18,25982
 254,84; 2512,239;  194,262;13024,525;18,06648
 255,43; 2690,286;  188,800;13965,778;18,15700
 256,03; 2898,121;  200,262;14933,069;18,31192
 256,63; 3121,542;  204,569;15959,061;18,51518
 257,23; 3275,129;  180,492;16835,711;18,58059
 257,82; 3488,622;  212,031;17818,426;18,61023
 258,42; 3615,218;  156,415;18720,590;18,63160
 259,02; 3814,468;  213,108;19585,306;18,59035
 259,62; 3922,107;  187,185;20283,193;18,58539
 260,21; 4037,790;  196,800;20811,251;18,63251
 260,81; 4134,946;  192,185;21379,753;18,60884
 261,41; 4198,063;  179,646;21814,664;18,57367
 262,01; 4267,073;  212,569;22356,130;18,31008
 262,60; 4250,360;  166,338;22637,173;18,17477
 263,20; 4322,840;  195,800;23055,648;18,05366
 263,80; 4340,465;  212,492;23123,820;18,01717
 264,40; 4255,353;  173,646;23365,215;17,59996
 264,99; 4292,990;  209,800;23636,262;17,42982
 265,59; 4315,911;  192,415;23828,529;17,44574
 266,19; 4307,367;  191,185;24024,776;17,27051
 266,78; 4286,985;  237,185;24085,499;16,98150
 267,38; 4210,098;  203,877;24190,233;16,70208
 267,98; 4181,943;  191,954;24143,256;16,65876
 268,58; 4121,763;  206,954;24183,756;16,32749
 269,17; 4068,808;  196,877;24133,851;16,17553
 269,77; 3979,452;  199,954;23966,940;15,90231
 270,37; 3890,613;  171,338;23855,106;15,70390
 270,96; 3882,685;  221,723;23796,071;15,52943
 271,56; 3746,361;  193,954;23480,276;15,25534
 272,16; 3666,987;  182,262;23368,768;15,02911
 272,75; 3594,804;  185,723;23244,494;14,78431
 273,35; 3539,636;  201,262;23207,061;14,51101
 273,95; 3476,476;  201,646;23273,296;14,19417
 274,54; 3428,039;  182,569;23319,855;14,02701
 275,14; 3450,426;  224,185;23690,387;13,74846
 275,74; 3366,952;  163,954;23677,369;13,62200
 276,33; 3453,641;  222,877;24100,569;13,53047
 276,93; 3406,227;  209,877;24473,251;13,17356
 277,53; 3469,657;  205,262;25015,911;13,15724
 278,12; 3472,828;  172,262;25597,349;12,98154
 278,72; 3609,399;  252,954;26084,768;12,99345
 279,32; 3567,217;  208,569;26655,470;12,69959
 279,91; 3623,491;  179,492;27296,689;12,70042
 280,51; 3695,293;  197,108;27885,853;12,63396
 281,11; 3760,309;  186,723;28515,442;12,61471
 281,70; 3789,701;  169,262;28993,081;12,56058
 282,30; 3868,207;  192,646;29674,353;12,46726
 282,90; 3884,165;  185,800;30003,444;12,40328
 283,49; 3982,538;  197,877;30517,786;12,48243
 284,09; 4061,639;  227,262;30896,231;12,50247
 284,69; 4139,889;  239,185;31311,375;12,55368
 285,28; 4185,429;  214,108;31608,199;12,64990
 285,88; 4287,791;  273,338;31904,705;12,69137
 286,47; 4274,340;  186,492;31901,565;12,88929
 287,07; 4352,469;  227,646;31975,438;12,99247
 287,67; 4403,757;  216,646;32122,739;13,12323
 288,26; 4475,924;  194,108;32037,774;13,44637
 288,86; 4545,681;  188,569;32056,294;13,67249
 289,46; 4693,987;  202,108;32185,292;14,04450
 290,05; 4737,390;  177,185;32376,766;14,16231
 290,65; 4909,347;  188,031;32494,359;14,61422
 291,24; 5075,665;  199,954;32665,551;15,01808
 291,84; 5245,004;  207,185;32740,907;15,48491
 292,44; 5374,211;  195,415;33002,715;15,78550
 293,03; 5573,266;  282,723;32988,735;16,17606
 293,63; 5624,598;  204,415;33084,504;16,48470
 294,22; 5739,554;  217,338;33347,104;16,66844
 294,82; 5815,604;  192,954;33256,310;17,00568
 295,41; 5848,240;  177,646;33060,774;17,24469
 296,01; 5958,029;  222,108;33008,575;17,49478
 296,61; 5937,364;  226,569;32641,087;17,61802
 297,20; 5929,287;  200,262;32323,950;17,83427
 297,80; 5970,871;  211,492;32156,885;18,02882
 298,39; 5873,095;  187,415;31774,877;17,99980
 298,99; 5928,559;  228,338;31656,241;18,13745
 299,58; 5929,143;  217,108;31571,638;18,21757
 300,18; 5829,823;  219,492;31366,877;18,01220
 300,78; 5779,083;  197,723;30948,409;18,15036
 301,37; 5796,131;  222,031;30891,191;18,17494
 301,97; 5753,267;  212,415;30939,660;18,03237
 302,56; 5737,725;  193,723;30906,361;18,05121
 303,16; 5695,754;  181,800;30840,917;17,98471
 303,75; 5687,761;  196,646;30857,002;17,90949
 304,35; 5716,958;  195,185;31103,257;17,86515
 304,94; 5713,596;  194,262;31040,448;17,89308
 305,54; 5718,958;  213,492;31020,913;17,87058
 306,13; 5670,238;  177,492;31012,753;17,81320
 306,73; 5606,247;  173,031;30770,960;17,75681
 307,33; 5588,002;  213,262;30714,351;17,62147
 307,92; 5611,909;  218,800;30785,136;17,64395
 308,52; 5614,320;  177,031;31199,806;17,52677
 309,11; 5679,988;  194,108;31705,231;17,40934
 309,71; 5751,626;  179,108;31935,792;17,54754
 310,30; 5822,091;  182,415;32195,179;17,61696
 310,90; 5912,938;  241,338;32541,025;17,55930
 311,49; 5836,092;  207,877;32617,051;17,36612
 312,09; 5852,389;  166,954;32789,355;17,42801
 312,68; 5997,937;  274,492;33185,330;17,39076
 313,28; 5929,602;  176,031;33317,674;17,36055
 313,87; 5918,518;  166,108;33457,421;17,27901
 314,47; 6004,840;  190,877;33719,073;17,34052
 315,06; 6013,748;  167,492;33846,369;17,35882
 315,66; 6025,697;  184,108;33991,278;17,27914
 316,25; 5986,599;  156,338;34000,199;17,22694
 316,85; 6000,074;  164,185;34012,972;17,24106
 317,44; 6017,589;  182,338;34187,697;17,15980
 318,04; 5999,962;  175,954;34156,383;17,13930
 318,63; 5974,953;  174,185;34237,622;17,02931
 319,22; 6008,277;  187,646;34452,357;16,98725
 319,82; 6024,422;  188,877;34418,304;17,04833
 320,41; 6027,865;  203,877;34371,699;17,04524
 321,01; 6048,026;  215,723;34386,656;17,06802
 321,60; 6031,828;  201,185;34477,630;17,01064
 322,20; 6006,084;  176,800;34382,000;17,04210
 322,79; 6028,685;  219,800;34501,800;16,94442
 323,39; 6048,735;  180,569;34565,974;17,06586
 323,98; 6017,573;  170,262;34508,529;17,02856
 324,58; 6006,873;  188,415;34408,391;17,00310
 325,17; 6011,634;  194,185;34190,879;17,11181
 325,76; 5963,588;  203,569;34036,681;17,02480
 326,36; 5958,753;  179,031;33626,517;17,27999
 326,95; 5918,184;  209,877;33357,126;17,22106
 327,55; 5854,493;  169,723;32972,948;17,32991
 328,14; 5788,591;  186,800;32580,644;17,29276
 328,74; 5753,592;  207,338;32167,636;17,35357
 329,33; 5670,208;  191,723;31731,391;17,37014
 329,92; 5586,239;  175,723;31253,788;17,40944
 330,52; 5513,192;  200,492;30573,956;17,49125
 331,11; 5458,303;  175,108;30177,215;17,60942
 331,71; 5392,337;  192,262;29557,766;17,70811
 332,30; 5306,749;  211,723;29149,371;17,60691
 332,89; 5335,901;  275,800;28628,725;17,84684
 333,49; 5159,506;  211,800;28086,942;17,74953
 334,08; 5131,017;  184,185;27697,286;17,97992
 334,68; 5042,444;  190,569;27293,964;17,90135
 335,27; 5045,296;  203,492;26952,612;18,10080
 335,86; 5064,073;  270,031;26641,446;18,17893
 336,46; 4957,625;  205,492;26461,399;18,09929
 337,05; 4931,198;  198,492;26265,353;18,15603
 337,65; 4924,227;  166,262;26054,626;18,37878
 338,24; 4974,300;  232,031;26069,851;18,35399
 338,83; 4965,692;  229,108;25957,438;18,40999
 339,43; 4979,389;  177,185;25897,909;18,67057
 340,02; 4972,782;  186,415;25866,857;18,63818
 340,61; 5048,888;  195,800;25836,938;18,92696
 341,21; 5071,284;  224,338;25858,636;18,90805
 341,80; 5068,681;  199,108;25826,808;19,00121
 342,40; 5122,276;  188,415;25890,158;19,19660
 342,99; 5183,593;  192,262;25947,187;19,38011
 343,58; 5264,054;  196,646;26189,622;19,49530
 344,18; 5325,236;  217,800;26373,073;19,52737
 344,77; 5382,278;  191,262;26529,948;19,70872
 345,36; 5493,876;  177,646;26879,818;19,90936
 345,96; 5590,775;  209,723;27219,638;19,92250
 346,55; 5672,140;  176,569;27427,300;20,16669
 347,14; 5798,625;  175,338;27772,144;20,37659
 347,74; 5903,479;  162,108;28192,844;20,48241
 348,33; 6079,493;  192,723;28854,944;20,53843
 348,92; 6242,931;  205,031;29402,688;20,67940
 349,52; 6405,499;  164,262;29849,887;21,02444
 350,11; 6474,712;  192,800;30115,958;20,99348
 350,70; 6516,000;  186,031;30103,798;21,15789
 351,29; 6508,880;  164,338;29828,098;21,38819
 351,89; 6609,051;  203,646;29840,031;21,61331
 352,48; 6601,958;  167,800;29908,351;21,63429
 353,07; 6686,149;  194,492;29796,583;21,92972
 353,67; 6698,665;  210,338;29796,109;21,93056
 354,26; 6701,793;  197,877;29465,729;22,22205
 354,85; 6722,962;  194,800;29381,496;22,36691
 355,45; 6687,703;  160,569;29187,341;22,48660
 356,04; 6745,177;  196,185;29179,958;22,59537
 356,63; 6747,897;  217,031;28979,836;22,70594
 357,22; 6748,802;  201,646;28835,197;22,86533
 357,82; 6747,290;  188,031;28527,954;23,14494
 358,41; 6770,938;  232,492;28522,847;23,11193
 359,00; 6727,250;  182,646;28267,802;23,30271
 359,60; 6760,363;  193,108;28241,266;23,41421
 360,19; 6845,952;  221,646;28045,826;23,80773
 360,78; 6815,430;  188,031;27864,379;23,94607
 361,37; 6804,716;  184,723;27730,181;24,03298
 361,97; 6815,617;  189,185;27624,442;24,15298
 362,56; 6773,412;  182,262;27299,264;24,30634
 363,15; 6858,073;  260,185;27001,114;24,67337
 363,74; 6783,833;  194,031;26660,845;24,89836
 364,34; 6710,564;  205,569;26339,415;24,89107
 364,93; 6600,972;  189,569;25935,873;24,90222
 365,52; 6585,765;  165,108;25588,830;25,25459
 366,11; 6571,264;  183,492;25238,079;25,49542
 366,71; 6496,970;  172,338;24896,203;25,58108
 367,30; 6440,387;  181,877;24575,417;25,65642
 367,89; 6496,123;  222,415;24348,725;26,00360
 368,48; 6414,637;  210,954;24090,525;25,97904
 369,07; 6373,077;  191,031;23657,413;26,34427
 369,67; 6312,657;  217,108;23383,363;26,31219
 370,26; 6259,035;  179,954;23103,863;26,51852
 370,85; 6263,135;  189,338;22920,245;26,72043
 371,44; 6237,841;  202,185;22611,778;26,93336
 372,03; 6177,732;  173,262;22418,770;26,99183
 372,63; 6131,100;  161,492;22051,743;27,27062
 373,22; 6124,154;  187,415;21824,363;27,43797
 373,81; 6059,275;  171,646;21614,122;27,45779
 374,40; 6022,836;  177,723;21310,691;27,65874
 374,99; 6007,773;  176,569;21122,573;27,83922
 375,59; 5917,039;  177,877;20765,855;27,87628
 376,18; 5944,437;  213,723;20688,377;27,98931
 376,77; 5933,316;  216,646;20538,952;28,13003
 377,36; 5938,094;  227,569;20427,029;28,27068
 377,95; 5871,389;  209,800;20167,268;28,36827
 378,55; 5857,641;  175,338;19976,041;28,69748
 379,14; 5838,772;  218,031;19901,675;28,55539
 379,73; 5883,347;  199,800;19853,332;28,91870
 380,32; 5920,554;  193,646;19873,181;29,10083
 380,91; 5875,098;  171,031;19667,575;29,25681
 381,50; 5904,929;  202,723;19730,834;29,19999
 382,10; 5895,939;  188,185;19588,104;29,42154
 382,69; 5873,576;  163,262;19536,843;29,47475
 383,28; 5959,026;  216,646;19485,519;29,80133
 383,87; 5910,845;  186,108;19354,118;29,86610
 384,46; 5929,031;  171,185;19303,219;30,09531
 385,05; 5962,992;  209,569;19336,249;30,08061
 385,64; 5958,725;  190,262;19253,926;30,25894
 386,24; 6006,534;  179,338;19260,693;30,53869
 386,83; 5991,961;  205,723;19307,347;30,29187
 387,42; 6089,298;  205,108;19437,221;30,59565
 388,01; 6154,986;  200,800;19692,501;30,54729
 388,60; 6240,911;  194,185;19935,642;30,62958
 389,19; 6314,802;  187,800;20071,470;30,81424
 389,78; 6437,074;  189,877;20300,531;31,06412
 390,37; 6648,655;  253,954;20795,837;31,13006
 390,96; 6654,821;  186,954;20851,213;31,29978
 391,56; 6730,783;  199,569;20980,634;31,42868
 392,15; 6834,541;  172,415;21348,835;31,46012
 392,74; 6899,426;  154,108;21537,383;31,54483
 393,33; 7015,182;  189,800;21800,272;31,58368
 393,92; 7152,142;  191,108;22148,280;31,70278
 394,51; 7210,007;  172,108;22328,946;31,76401
 395,10; 7397,229;  212,338;22592,145;32,10434
 395,69; 7442,101;  208,338;22659,440;32,22008
 396,28; 7459,666;  202,031;22780,161;32,14454
 396,87; 7478,730;  201,569;22794,544;32,20984
 397,46; 7594,079;  223,723;22963,056;32,41237
 398,06; 7691,093;  221,646;23203,119;32,50204
 398,65; 7673,348;  188,108;23227,508;32,48887
 399,24; 7791,197;  223,800;23470,283;32,55287
 399,83; 7767,789;  171,800;23419,733;32,67382
 400,42; 7903,685;  221,108;23563,588;32,91243
 401,01; 7886,676;  186,185;23697,214;32,75268
 401,60; 7955,243;  199,492;23692,232;33,01339
 402,19; 7953,781;  217,415;23599,757;33,08636
 402,78; 7970,950;  213,185;23670,337;33,07207
 403,37; 7921,697;  197,569;23485,360;33,16815
 403,96; 7914,661;  205,415;23392,403;33,24816
 404,55; 7904,337;  205,338;23298,760;33,33849
 405,14; 7867,833;  175,185;23194,704;33,41794
 405,73; 7851,687;  203,877;23072,266;33,44271
 406,32; 7869,117;  212,646;22959,260;33,65983
 406,91; 7783,748;  198,646;22680,458;33,73884
 407,50; 7721,386;  209,954;22530,604;33,65239
 408,09; 7652,423;  180,800;22248,987;33,85699
 408,68; 7616,791;  191,338;22130,582;33,84553
 409,27; 7538,784;  172,338;21935,551;33,84815
 409,86; 7533,777;  191,954;21860,399;33,88256
 410,45; 7578,916;  227,185;21774,441;34,11911
 411,04; 7559,439;  220,646;21640,738;34,26126
 411,63; 7444,946;  203,877;21399,610;34,16286
 412,22; 7353,722;  217,877;21270,990;33,89449
 412,81; 7310,808;  225,492;20933,498;34,21534
 413,40; 7213,086;  223,262;20594,959;34,31145
 413,99; 7121,580;  277,569;20389,882;34,02896
 414,58; 6949,654;  184,569;19983,338;34,16922
 415,17; 6935,479;  202,262;19843,761;34,28057
 415,76; 6838,241;  190,492;19646,204;34,16862
 416,35; 6811,178;  184,031;19356,030;34,56680
 416,94; 6841,783;  230,415;19554,581;34,21295
 417,53; 6858,939;  196,415;19687,836;34,18183
 418,12; 6951,859;  197,262;19787,445;34,47950
 418,71; 7080,127;  214,569;20191,765;34,36698
 419,30; 7101,403;  194,800;20276,876;34,39188
 419,89; 7111,464;  193,415;20467,311;34,12293
 420,48; 7284,043;  214,646;20775,844;34,38222
 421,07; 7271,907;  209,800;20800,062;34,29829
 421,66; 7262,411;  186,185;20766,724;34,38309
 422,25; 7308,369;  194,031;20757,681;34,59667
 422,84; 7252,779;  220,492;20748,871;34,25641
 423,43; 7186,015;  209,338;20404,088;34,54698
 424,02; 7145,034;  227,954;20179,384;34,66959
 424,60; 6985,185;  201,262;19787,501;34,63617
 425,19; 6870,921;  222,800;19548,224;34,40091
 425,78; 6836,388;  217,108;19501,989;34,32368
 426,37; 6819,844;  226,877;19304,849;34,55801
 426,96; 6761,438;  223,338;19247,266;34,36777
 427,55; 6662,590;  198,877;19035,553;34,31451
 428,14; 6583,082;  194,492;18860,636;34,22555
 428,73; 6542,230;  210,569;18686,169;34,27039
 429,32; 6524,978;  239,877;18637,883;34,16186
 429,91; 6546,656;  237,800;18703,205;34,16581
 430,50; 6490,147;  227,262;18496,159;34,28169
 431,08; 6432,304;  221,031;18415,557;34,13814
 431,67; 6398,257;  257,031;18284,691;34,06558
 432,26; 6343,931;  260,185;18077,559;34,14502
 432,85; 6238,345;  288,108;17763,604;34,04903
 433,44; 6119,583;  283,723;17385,023;34,12525
 434,03; 5971,337;  295,415;17082,008;33,81223
 434,62; 5845,331;  261,800;16701,952;33,96277
 435,21; 5760,988;  273,646;16469,644;33,88085
 435,79; 5694,403;  279,415;16336,814;33,72270
 436,38; 5695,213;  256,800;16279,858;33,94117
 436,97; 5641,575;  260,800;16185,273;33,78935
 437,56; 5560,843;  255,492;15964,310;33,77307
 438,15; 5522,727;  241,262;15853,253;33,82954
 438,74; 5492,362;  260,031;15926,346;33,39861
 439,33; 5504,469;  240,492;15886,494;33,64423
 439,91; 5509,323;  227,569;15945,350;33,60369
 440,50; 5549,267;  278,338;16038,265;33,44513
 441,09; 5558,518;  266,338;16137,216;33,34522
 441,68; 5514,742;  241,185;16097,048;33,25935
 442,27; 5540,773;  233,108;16117,378;33,41460
 442,86; 5506,589;  215,723;16092,763;33,32401
 443,44; 5513,117;  227,262;16162,261;33,17136
 444,03; 5597,036;  310,031;16223,997;33,22242
 444,62; 5480,176;  218,415;16069,566;33,19482
 445,21; 5425,954;  233,646;15914,696;33,11199
 445,80; 5405,274;  285,492;15782,390;33,03746
 446,39; 5386,003;  318,185;15504,817;33,37026
 446,97; 5173,965;  227,954;15352,756;32,70133
 447,56; 5105,993;  220,877;15120,833;32,78611
 448,15; 5066,126;  224,954;14991,139;32,78553
 448,74; 4959,916;  254,262;14672,104;32,63771
 449,33; 4910,253;  224,800;14587,031;32,62343
 449,91; 4857,056;  232,031;14400,616;32,64281
 450,50; 4750,379;  233,262;14179,487;32,38953
 451,09; 4700,364;  240,877;14091,361;32,19734
 451,68; 4701,577;  268,569;13991,513;32,30362
 452,26; 4654,748;  260,031;13882,268;32,26135
 452,85; 4579,758;  228,108;13837,578;31,97516
 453,44; 4579,313;  246,108;13788,136;31,99820
 454,03; 4560,347;  219,954;13776,037;32,01805
 454,61; 4536,508;  221,723;13755,146;31,88243
 455,20; 4623,399;  253,185;13940,687;31,92850
 455,79; 4589,210;  253,800;13927,663;31,70582
 456,38; 4612,092;  268,954;14007,442;31,61293
 456,97; 4621,653;  234,569;14070,310;31,70834
 457,55; 4630,914;  237,108;14089,802;31,71807
 458,14; 4610,844;  271,415;14042,968;31,51009
 458,73; 4549,571;  249,415;14008,120;31,25407
 459,31; 4559,893;  270,800;14014,715;31,20721
 459,90; 4639,477;  294,569;14131,760;31,40022
 460,49; 4668,927;  352,415;14244,717;31,07125
 461,08; 4611,309;  248,262;14325,004;30,99472
 461,66; 4594,445;  258,415;14367,019;30,73323
 462,25; 4660,816;  262,185;14422,905;31,06220
 462,84; 4665,350;  276,723;14494,938;30,86623
 463,43; 4593,151;  213,877;14407,032;30,85483
 464,01; 4621,295;  250,492;14470,259;30,73751
 464,60; 4615,315;  311,415;14402,292;30,54387
 465,19; 4470,251;  219,031;14172,423;30,46729
 465,77; 4485,576;  244,877;14117,024;30,56988
 466,36; 4457,473;  277,492;13996,694;30,46810
 466,95; 4333,479;  249,877;13737,152;30,27744
 467,53; 4259,341;  260,492;13416,862;30,39477
 468,12; 4214,724;  281,646;13175,399;30,50375
 468,71; 4073,704;  257,646;12915,296;30,14824
 469,29; 3994,758;  247,185;12695,642;30,10472
 469,88; 3901,098;  249,185;12500,496;29,80835
 470,47; 3969,798;  321,723;12548,915;29,83575
 471,06; 3902,182;  261,954;12534,273;29,66210
 471,64; 3954,296;  272,031;12691,803;29,64841
 472,23; 3891,584;  233,185;12681,781;29,38804
 472,81; 3915,932;  225,877;12749,243;29,46536
 473,40; 3919,157;  249,415;13004,846;28,77003
 473,99; 4084,954;  365,415;13160,323;29,07046
 474,57; 4057,542;  263,185;13250,487;29,21590
 475,16; 4049,288;  260,646;13372,506;28,89477
 475,75; 4092,956;  284,877;13477,287;28,86568
 476,33; 4114,651;  283,877;13553,813;28,86806
 476,92; 4086,274;  277,800;13603,829;28,57921
 477,51; 4105,261;  282,338;13671,153;28,55311
 478,09; 4086,086;  268,800;13702,109;28,41658
 478,68; 4060,888;  280,492;13595,350;28,39231
 479,27; 4104,711;  305,415;13701,522;28,36120
 479,85; 4023,672;  274,338;13703,038;27,92030
 480,44; 4054,453;  260,031;13868,131;27,88355
 481,02; 4398,378;  283,338;15608,402;26,85170
 481,61; 4926,143;  303,569;17388,639;27,05622
 482,20; 5295,987;  290,492;18436,789;27,58411
 482,78; 5501,342;  310,108;19187,657;27,49951
 483,37; 5648,420;  306,185;19643,013;27,62726
 483,95; 5739,545;  343,646;20013,353;27,43253
 484,54; 5775,871;  334,031;20144,321;27,46976
 485,13; 5707,693;  304,338;20034,163;27,38673
 485,71; 5619,429;  288,954;19790,230;27,33398
 486,30; 5601,639;  330,262;19542,570;27,43750
 486,88; 5549,603;  394,031;19107,604;27,54991
 487,47; 5296,797;  347,569;18360,869;27,47541
 488,05; 5038,592;  325,646;17495,548;27,44888
 488,64; 4683,698;  321,877;16059,475;27,71593
 489,23; 4190,576;  336,492;14183,165;27,83401
 489,81; 3573,568;  342,031;12316,831;26,98614
 490,40; 3333,119;  286,800;11823,952;26,40443
 490,98; 3275,096;  283,031;11561,827;26,52823
 491,57; 3233,575;  304,031;11500,035;26,16598
 492,15; 3175,948;  291,031;11427,977;25,90403
 492,74; 3156,570;  302,415;11319,477;25,90668
 493,32; 3144,823;  306,415;11206,867;26,03936
 493,91; 3104,232;  285,569;11161,517;25,91648
 494,50; 3081,761;  294,877;11123,602;25,73604
 495,08; 3045,566;  277,800;11050,719;25,69189
 495,67; 3043,806;  310,569;11013,507;25,53726
 496,25; 2987,312;  253,492;10847,096;25,80632
 496,84; 3002,317;  252,954;10870,055;25,89561
 497,42; 2955,415;  260,185;10808,134;25,55217
 498,01; 2960,141;  291,646;10786,547;25,42659
 498,59; 2890,071;  250,954;10711,606;25,22899
 499,18; 2902,406;  251,262;10642,047;25,51438
 499,76; 2884,458;  291,031;10534,406;25,31810
 500,35; 2820,626;  271,954;10382,539;25,20796
 500,93; 2791,184;  262,108;10380,776;24,99416
 501,52; 2764,232;  252,415;10274,065;25,06390
 502,10; 2752,014;  278,262;10250,171;24,80721
 502,69; 2691,333;  248,185;10120,749;24,74684
 503,27; 2619,530;  240,723; 9897,576;24,63336
 503,86; 2645,117;  270,954; 9860,824;24,75699
 504,44; 2582,149;  226,415; 9778,525;24,66192
 505,03; 2494,009;  226,492; 9540,802;24,34444
 505,61; 2482,591;  247,031; 9417,662;24,37738
 506,19; 2426,653;  265,877; 9241,075;24,07496
 506,78; 2344,254;  232,185; 9085,577;23,85605
 507,36; 2323,324;  248,415; 8926,057;23,91098
 507,95; 2263,797;  243,185; 8738,415;23,78525
 508,53; 2230,940;  244,185; 8704,375;23,48358
 509,12; 2205,413;  253,031; 8504,879;23,65994
 509,70; 2194,803;  264,954; 8391,822;23,74653
 510,29; 2150,331;  275,108; 8187,741;23,69911
 510,87; 2058,527;  243,185; 8085,205;23,14892
 511,46; 2012,540;  227,492; 7883,685;23,31508
 512,04; 1986,320;  236,877; 7748,083;23,29110
 512,62; 1939,826;  242,569; 7648,102;22,91877
 513,21; 1910,408;  234,185; 7429,407;23,29634
 513,79; 1850,328;  243,415; 7325,385;22,69019
 514,38; 1817,688;  219,646; 7153,170;23,04804
 514,96; 1811,024;  275,185; 7072,624;22,59438
 515,54; 1736,169;  218,800; 6956,391;22,52094
 516,13; 1720,874;  261,800; 6858,308;22,11889
 516,71; 1692,143;  240,338; 6759,824;22,26869
 517,30; 1661,097;  218,646; 6655,856;22,40801
 517,88; 1643,510;  247,415; 6549,899;22,15150
 518,46; 1600,424;  231,569; 6445,769;22,02785
 519,05; 1596,274;  234,185; 6391,915;22,11999
 519,63; 1583,898;  244,877; 6323,787;22,02732
 520,22; 1570,920;  258,569; 6288,022;21,76566
 520,80; 1536,415;  242,031; 6198,368;21,73122
 521,38; 1569,448;  299,954; 6200,291;21,51562
 521,97; 1506,266;  231,185; 6142,052;21,57181
 522,55; 1515,916;  240,338; 6160,067;21,54791
 523,13; 1499,410;  232,415; 6158,127;21,38131
 523,72; 1465,529;  235,646; 6114,658;20,91989
 524,30; 1526,932;  270,800; 6244,255;21,02857
 524,89; 1490,992;  221,723; 6275,014;20,96825
 525,47; 1531,196;  244,723; 6379,471;20,97027
 526,05; 1510,300;  224,800; 6445,512;20,66484
 526,64; 1565,802;  263,569; 6579,212;20,61916
 527,22; 1586,050;  254,569; 6699,623;20,65895
 527,80; 1637,173;  288,031; 6847,730;20,56714
 528,39; 1623,618;  240,569; 6929,961;20,67526
 528,97; 1631,738;  241,800; 7088,668;20,30035
 529,55; 1699,053;  260,646; 7287,682;20,46962
 530,14; 1733,050;  269,800; 7408,121;20,49852
 530,72; 1727,487;  233,877; 7543,700;20,43291
 531,30; 1740,315;  218,569; 7703,083;20,33193
 531,89; 1764,749;  248,723; 7794,836;20,09016
 532,47; 1820,447;  280,800; 7893,471;20,22479
 533,05; 1799,194;  273,569; 7934,621;19,91404
 533,63; 1814,746;  267,185; 7979,036;20,06732
 534,22; 1782,711;  247,185; 7972,022;19,87779
 534,80; 1828,280;  276,569; 8099,771;19,83473
 535,38; 1915,084;  380,723; 8203,953;19,61288
 535,97; 1790,684;  253,031; 8173,981;19,41248
 536,55; 1844,867;  307,338; 8254,394;19,34715
 537,13; 1801,302;  304,723; 8215,447;18,91835
 537,71; 1819,960;  353,723; 8254,101;18,55907
 538,30; 1816,731;  361,031; 8350,242;18,22082
 538,88; 1857,961;  396,877; 8478,329;18,07948
 539,46; 1915,008;  455,800; 8667,939;17,76891
 540,05; 1935,292;  468,262; 8820,864;17,56375
 540,63; 2011,312;  498,415; 8990,574;17,81522
 541,21; 2010,128;  525,569; 9193,347;17,12733
 541,79; 2011,177;  560,415; 9311,562;16,57796
 542,38; 2065,950;  597,954; 9445,133;16,59281
 542,96; 2103,320;  593,185; 9619,609;16,73016
 543,54; 2151,723;  615,723; 9836,509;16,65801
 544,12; 2149,078;  598,646; 9928,388;16,61817
 544,70; 2144,103;  568,262;10039,321;16,63849
 545,29; 2154,789;  589,338;10246,750;16,20983
 545,87; 2185,100;  577,262;10184,716;16,73532
 546,45; 2111,670;  524,569;10217,022;16,37461
 547,03; 2130,689;  518,954;10300,497;16,47731
 547,62; 2136,708;  477,877;10439,230;16,65267
 548,20; 2181,300;  481,185;10550,924;16,88341
 548,78; 2146,661;  438,262;10661,424;16,71107
 549,36; 2189,040;  407,338;10878,890;17,01468
 549,94; 2167,853;  376,569;10967,230;16,91381
 550,53; 2239,615;  380,954;11243,548;17,11065
 551,11; 2224,813;  341,031;11426,754;16,99287
 551,69; 2303,697;  357,954;11750,056;17,07976
 552,27; 2296,659;  306,031;11965,538;17,07300
 552,85; 2360,219;  328,108;12399,722;16,83380
 553,44; 2420,474;  316,569;12632,746;17,08245
 554,02; 2466,360;  329,108;12991,011;16,87939
 554,60; 2485,987;  274,262;13303,900;16,97458
 555,18; 2584,935;  312,877;13660,566;17,02211
 555,76; 2627,605;  300,492;14025,058;16,95582
 556,34; 2688,557;  305,262;14440,574;16,86058
 556,93; 2725,767;  291,415;14817,570;16,75840
 557,51; 2775,564;  264,723;15124,930;16,89641
 558,09; 2861,725;  296,954;15550,738;16,81400
 558,67; 2929,331;  285,954;15980,181;16,84299
 559,25; 2962,605;  301,954;16151,376;16,78706
 559,83; 2985,783;  280,800;16481,564;16,69664
 560,41; 3016,209;  268,723;16862,821;16,55701
 561,00; 3111,589;  278,108;17133,505;16,81053
 561,58; 3136,993;  284,492;17395,894;16,67017
 562,16; 3144,932;  267,569;17779,125;16,43122
 562,74; 3189,941;  247,954;18061,689;16,51527
 563,32; 3244,958;  237,262;18555,839;16,41883
 563,90; 3312,652;  277,185;18895,612;16,30357
 564,48; 3396,860;  270,415;19333,837;16,40023
 565,06; 3448,170;  268,262;19947,851;16,15841
 565,65; 3567,128;  274,262;20622,618;16,18247
 566,23; 3687,862;  327,800;21339,029;15,99174
 566,81; 3759,857;  268,262;22097,728;15,99487
 567,39; 3898,474;  277,646;22907,408;16,00029
 567,97; 3994,821;  298,723;23588,507;15,87004
 568,55; 4141,923;  324,262;24428,159;15,83836
 569,13; 4207,100;  278,492;25136,232;15,80436
 569,71; 4356,569;  264,646;26086,631;15,84666
 570,29; 4519,620;  317,877;27122,260;15,67558
 570,87; 4581,038;  312,262;27695,989;15,58873
 571,45; 4685,834;  296,954;28347,347;15,64641
 572,03; 4706,124;  264,877;28732,112;15,60126
 572,61; 4795,546;  237,492;29528,849;15,56109
 573,20; 4891,907;  283,954;30153,456;15,42695
 573,78; 4972,126;  271,031;30820,809;15,38831
 574,36; 5051,994;  277,185;31253,624;15,41433
 574,94; 5126,542;  353,723;31533,971;15,30719
 575,52; 5084,299;  263,800;31827,474;15,27230
 576,10; 5210,448;  331,646;32450,122;15,19002
 576,68; 5279,466;  317,262;33028,049;15,16993
 577,26; 5362,359;  336,723;33736,551;15,04689
 577,84; 5451,483;  322,800;34142,922;15,16459
 578,42; 5501,687;  393,185;34469,867;14,99120
 579,00; 5449,447;  319,031;34548,932;14,98811
 579,58; 5502,920;  374,877;34727,896;14,92749
 580,16; 5464,757;  318,723;34758,278;14,94222
 580,74; 5476,875;  327,338;34964,545;14,86707
 581,32; 5462,073;  325,185;35108,920;14,76808
 581,90; 5492,456;  350,185;35079,815;14,80658
 582,48; 5492,232;  331,415;35241,094;14,78334
 583,06; 5497,017;  334,800;35258,837;14,78127
 583,64; 5459,668;  313,569;35402,877;14,66572
 584,22; 5433,018;  350,877;35244,258;14,56477
 584,80; 5403,387;  335,569;34992,377;14,62286
 585,38; 5376,586;  363,954;34555,309;14,66052
 585,96; 5342,593;  313,415;34740,574;14,60817
 586,54; 5351,648;  346,108;34710,153;14,56621
 587,12; 5350,280;  313,185;34850,896;14,58433
 587,70; 5372,327;  351,723;35114,610;14,44243
 588,28; 5410,378;  320,569;35095,402;14,63647
 588,86; 5394,279;  316,415;35225,047;14,54615
 589,44; 5395,224;  311,031;35307,462;14,52775
 590,02; 5407,232;  316,877;35498,642;14,46873
 590,59; 5417,348;  290,031;35700,997;14,47946
 591,17; 5436,169;  299,569;35892,185;14,43164
 591,75; 5494,704;  283,646;35999,092;14,59049
 592,33; 5523,195;  306,338;36339,778;14,47782
 592,91; 5458,359;  250,723;36533,304;14,35299
 593,49; 5515,769;  275,492;36828,725;14,33601
 594,07; 5553,237;  287,800;37042,569;14,32586
 594,65; 5575,039;  307,108;37044,483;14,33943
 595,23; 5575,211;  299,415;37404,855;14,21839
 595,81; 5628,238;  268,185;37547,997;14,37790
 596,39; 5599,482;  262,723;37683,478;14,26150
 596,97; 5627,716;  268,800;37855,211;14,25759
 597,55; 5655,989;  281,031;37711,778;14,35974
 598,12; 5591,410;  260,646;37800,790;14,20017
 598,70; 5577,050;  262,185;38006,764;14,08114
 599,28; 5634,938;  281,569;38069,134;14,16701
 599,86; 5628,141;  263,800;38174,991;14,14976
 600,44; 5615,301;  227,492;38262,318;14,16546
 601,02; 5666,077;  290,569;38274,454;14,15207
 601,60; 5641,081;  274,569;38211,478;14,14589
 602,18; 5601,397;  237,108;38197,924;14,13112
 602,75; 5604,658;  244,415;38376,806;14,05693
 603,33; 5574,889;  259,108;38291,535;13,97697
 603,91; 5591,086;  232,031;38330,559;14,06631
 604,49; 5581,015;  273,492;38431,723;13,90925
 605,07; 5619,186;  269,338;38389,059;14,03433
 605,65; 5621,363;  277,108;38516,296;13,97586
 606,23; 5634,887;  308,877;38688,742;13,87709
 606,80; 5627,707;  339,569;38775,483;13,75832
 607,38; 5608,989;  352,800;38761,132;13,68502
 607,96; 5663,945;  390,338;38960,250;13,67285
 608,54; 5665,720;  440,954;38955,049;13,56585
 609,12; 5669,210;  432,338;39056,084;13,55868
 609,70; 5671,030;  458,108;39105,464;13,48843
 610,27; 5683,617;  444,954;39194,796;13,51919
 610,85; 5684,121;  479,877;39233,460;13,42907
 611,43; 5685,575;  457,492;39176,948;13,50247
 612,01; 5632,292;  413,108;38928,974;13,55074
 612,59; 5610,016;  448,031;38959,187;13,40387
 613,16; 5594,276;  412,800;38847,966;13,48108
 613,74; 5576,085;  382,954;38764,905;13,53014
 614,32; 5589,062;  379,954;38724,268;13,58509
 614,90; 5539,262;  359,262;38549,519;13,56367
 615,48; 5494,618;  313,031;38134,209;13,70023
 616,05; 5460,508;  297,723;38243,788;13,60559
 616,63; 5445,398;  316,262;37956,906;13,62659
 617,21; 5430,834;  304,569;37898,211;13,63599
 617,79; 5399,307;  296,338;37770,203;13,61741
 618,36; 5377,774;  301,646;37711,889;13,56882
 618,94; 5283,548;  247,185;37384,847;13,56134
 619,52; 5318,306;  273,569;37017,883;13,72930
 620,10; 5259,203;  255,646;37089,547;13,58411
 620,67; 5269,593;  265,877;36973,199;13,63139
 621,25; 5259,760;  294,569;36797,816;13,60205
 621,83; 5235,254;  263,954;36743,509;13,62763
 622,41; 5246,653;  313,723;36802,043;13,51920
 622,98; 5210,097;  275,492;36487,673;13,62692
 623,56; 5205,084;  289,800;36488,987;13,57844
 624,14; 5172,856;  264,262;36356,652;13,60008
 624,72; 5157,429;  273,646;36237,323;13,57977
 625,29; 5141,433;  261,185;36403,126;13,50301
 625,87; 5207,412;  296,800;36321,989;13,63105
 626,45; 5134,050;  237,492;36112,744;13,64885
 627,02; 5101,978;  263,415;36082,363;13,50839
 627,60; 5096,308;  236,262;36020,701;13,58145
 628,18; 5143,287;  218,031;36171,391;13,69902
 628,76; 5140,216;  220,646;36192,786;13,67605
 629,33; 5177,857;  263,108;36113,721;13,70897
 629,91; 5169,819;  243,646;36022,547;13,76837
 630,49; 5211,054;  267,492;36232,402;13,74551
 631,06; 5214,886;  248,877;36390,638;13,74036
 631,64; 5207,553;  254,569;36324,626;13,73157
 632,22; 5155,164;  219,492;36382,197;13,64851
 632,79; 5279,667;  248,415;36485,337;13,88432
 633,37; 5267,530;  219,108;36621,177;13,86850
 633,95; 5287,491;  256,338;36675,495;13,81458
 634,52; 5282,744;  225,492;36730,705;13,85350
 635,10; 5312,875;  235,185;36741,786;13,90897
 635,68; 5360,793;  237,954;36947,244;13,95516
 636,25; 5341,300;  215,492;36915,262;13,96687
 636,83; 5367,369;  218,185;37121,017;13,95336
 637,41; 5425,913;  252,569;37206,001;13,99963
 637,98; 5453,515;  260,723;37369,365;13,99348
 638,56; 5470,028;  241,723;37423,894;14,06132
 639,13; 5465,202;  220,877;37536,408;14,05400
 639,71; 5571,725;  300,646;37616,102;14,12573
 640,29; 5472,812;  193,569;37483,827;14,15716
 640,86; 5500,663;  206,492;37608,175;14,15490
 641,44; 5513,282;  219,031;37643,369;14,14655
 642,02; 5589,902;  246,185;37552,947;14,32372
 642,59; 5551,368;  226,338;37784,833;14,17796
 643,17; 5559,449;  221,877;37738,797;14,22711
 643,74; 5591,607;  212,646;37719,375;14,34132
 644,32; 5643,842;  249,492;37727,185;14,39349
 644,89; 5646,077;  258,877;37749,917;14,36930
 645,47; 5634,312;  252,723;37742,649;14,35476
 646,05; 5639,855;  249,108;37635,997;14,41882
 646,62; 5624,013;  230,185;37705,499;14,39302
 647,20; 5674,863;  240,262;37790,001;14,47307
 647,77; 5637,483;  195,569;37644,271;14,53165
 648,35; 5664,949;  203,262;37527,465;14,63310
 648,92; 5674,876;  220,877;37684,429;14,55815
 649,50; 5650,034;  188,954;37519,623;14,62894
 650,08; 5628,115;  195,646;37436,201;14,58751
 650,65; 5694,427;  197,954;37720,164;14,64859
 651,23; 5746,816;  179,800;38578,204;14,49804
 651,80; 5923,205;  188,262;39453,014;14,60583
 652,38; 6047,286;  209,723;39722,439;14,77389
 652,95; 6071,137;  180,415;40098,709;14,75695
 653,53; 6164,449;  211,877;40364,211;14,82497
 654,10; 6253,453;  243,108;40538,482;14,91572
 654,68; 6158,380;  201,646;40444,676;14,80190
 655,25; 6211,461;  191,492;40461,716;14,94893
 655,83; 6222,543;  191,262;40508,141;14,95969
 656,40; 6275,239;  231,492;40445,104;15,02911
 656,98; 6235,936;  194,800;40318,683;15,05621
 657,55; 6279,555;  206,646;40238,184;15,17031
 658,13; 6242,483;  202,954;39854,147;15,23164
 658,70; 6226,641;  217,108;39571,803;15,27018
 659,28; 6078,953;  200,800;38705,305;15,26614
 659,85; 6036,880;  232,415;37995,652;15,37068
 660,43; 6059,731;  226,877;38124,539;15,39106
 661,00; 6045,427;  193,492;38183,887;15,40372
 661,58; 6131,508;  196,877;38596,927;15,45475
 662,15; 6124,282;  188,877;38731,659;15,39952
 662,73; 6281,594;  276,800;39005,930;15,50459
 663,30; 6285,444;  205,031;39203,816;15,59129
 663,88; 6322,756;  206,338;39421,702;15,59699
 664,45; 6344,068;  188,877;39620,666;15,60972
 665,03; 6420,688;  205,723;39985,937;15,62326
 665,60; 6683,000;  310,723;40520,746;15,84748
 666,17; 6564,773;  197,415;40428,017;15,82715
 666,75; 6664,393;  202,108;40843,288;15,90083
 667,32; 6716,782;  227,646;41217,482;15,83108
 667,90; 6805,709;  203,723;41383,445;16,03213
 668,47; 6852,483;  209,338;41710,177;16,00725
 669,05; 6949,872;  195,646;41959,987;16,17223
 669,62; 6956,030;  187,877;42068,334;16,16065
 670,19; 7035,111;  170,569;42169,990;16,34437
 670,77; 7083,115;  195,415;42304,492;16,35681
 671,34; 7135,273;  186,569;42208,070;16,53607
 671,92; 7205,124;  174,569;42635,572;16,55767
 672,49; 7198,359;  210,185;42667,920;16,45913
 673,06; 7240,055;  160,800;42635,114;16,66714
 673,64; 7259,213;  175,723;42700,461;16,65734
 674,21; 7270,064;  175,800;42609,886;16,71831
 674,79; 7370,222;  209,338;42890,311;16,77770
 675,36; 7406,842;  205,877;42975,966;16,83645
 675,93; 7367,769;  175,031;42917,237;16,82819
 676,51; 7451,158;  199,108;43025,124;16,93375
 677,08; 7490,008;  187,415;43040,702;17,04092
 677,65; 7536,705;  206,646;43272,204;17,02070
 678,23; 7530,709;  187,569;43462,936;16,96841
 678,80; 7628,944;  179,569;43560,438;17,17203
 679,38; 7634,794;  191,262;43675,940;17,11760
 679,95; 7734,183;  196,723;43972,518;17,21833
 680,52; 7792,034;  204,415;44151,789;17,26524
 681,10; 7919,269;  207,954;44679,675;17,33982
 681,67; 7971,119;  202,262;44925,254;17,37106
 682,24; 7977,200;  170,569;44956,371;17,43104
 682,82; 8108,205;  188,723;45528,796;17,46685
 683,39; 8223,209;  247,569;45801,605;17,50809
 683,96; 8254,367;  187,415;46075,414;17,57965
 684,54; 8336,910;  166,262;46441,070;17,65680
 685,11; 8442,222;  241,492;46745,956;17,63428
 685,68; 8568,918;  193,877;47180,458;17,82433
 686,25; 8524,153;  171,415;47207,498;17,75815
 686,83; 8633,542;  181,569;47329,000;17,92669
 687,40; 8722,854;  173,569;47665,886;18,00141
 687,97; 8819,935;  226,262;48162,003;17,92749
 688,55; 8858,555;  170,877;48141,505;18,11041
 689,12; 8955,867;  147,569;48464,929;18,23009
 689,69; 8984,179;  157,031;48479,431;18,26720
 690,26; 9032,491;  172,646;48570,240;18,30637
 690,84; 9101,495;  189,646;48818,896;18,32611
 691,41; 9191,884;  203,954;48830,320;18,48366
 691,98; 9292,350;  199,954;49118,591;18,58677
 692,56; 9323,816;  192,646;49195,785;18,63385
 693,13; 9417,666;  225,415;49234,749;18,75612
 693,70; 9412,516;  197,877;49411,558;18,72374
 694,27; 9482,905;  179,492;49584,367;18,83096
 694,84; 9507,987;  171,954;49660,792;18,86493
 695,42; 9660,606;  233,338;49738,524;19,04299
 695,99; 9675,687;  179,569;50041,565;19,04480
 696,56; 9715,461;  198,031;49822,989;19,17872
 697,13; 9836,619;  209,031;50241,106;19,24283
 697,71; 9870,085;  191,108;50276,993;19,32476
 698,28; 9941,858;  185,954;50717,956;19,30639
 698,85;10018,170;  158,800;50624,227;19,53688
 699,42;10058,021;  155,415;50795,728;19,55479
 699,99;10160,717;  196,723;50976,999;19,62178
 700,57;10180,491;  185,415;50926,347;19,69825
 701,14;10208,418;  169,569;51028,464;19,73863
 701,71;10326,653;  204,108;51214,043;19,84426
 702,28;10363,504;  173,954;51274,390;19,94024
 702,85;10369,585;  172,800;51489,815;19,87018
 703,43;10476,435;  187,569;51675,163;19,98319
 704,00;10563,209;  204,877;51821,280;20,06791
 704,57;10575,290;  176,954;51809,012;20,13930
 705,14;10700,756;  198,954;52136,437;20,22008
 705,71;10753,221;  206,646;52095,785;20,32521
 706,28;10766,149;  172,800;52033,056;20,42672
 706,86;10900,691;  202,954;52219,096;20,56619
 707,43;10931,696;  228,646;52161,136;20,60954
 708,00;10998,315;  204,646;52207,869;20,75577
 708,57;11014,473;  166,800;52063,293;20,90252
 709,14;11107,555;  196,185;52260,256;20,95758
 709,71;11126,020;  189,492;52303,527;20,98576
 710,28;11164,948;  192,877;52506,952;20,97346
 710,86;11259,029;  184,031;52649,685;21,10904
 711,43;11339,033;  208,954;52711,955;21,19894
 712,00;11361,499;  181,646;52665,534;21,30150
 712,57;11468,503;  207,954;52900,113;21,37045
 713,14;11533,277;  194,877;52861,153;21,52877
 713,71;11542,666;  206,108;52892,808;21,51693
 714,28;11494,747;  194,723;52935,079;21,42576
 714,85;11520,213;  185,877;52642,965;21,60687
 715,42;11621,371;  183,338;52961,775;21,67179
 716,00;11780,067;  283,569;53003,353;21,80680
 716,57;11707,456;  199,031;53124,316;21,74466
 717,14;11696,768;  198,262;53061,972;21,75123
 717,71;11755,619;  184,262;53154,935;21,84484
 718,28;11843,854;  238,338;53179,821;21,92140
 718,85;11832,935;  175,646;53209,631;21,98079
 719,42;11916,247;  200,262;53375,440;22,03281
 719,99;11871,790;  177,800;53217,326;22,04769
 720,56;12008,332;  214,262;53485,367;22,13971
 721,13;12075,567;  177,338;53548,253;22,29347
 721,70;12031,110;  175,338;53383,601;22,28182
 722,27;12163,345;  204,338;53449,179;22,46040
 722,84;12244,965;  278,492;53625,296;22,43147
 723,41;12156,661;  175,800;53601,952;22,42509
 723,98;12308,281;  185,108;53809,223;22,60769
 724,55;12384,054;  231,031;53838,109;22,67056
 725,12;12366,443;  148,492;53899,611;22,73060
 725,69;12426,986;  182,338;53996,343;22,75365
 726,27;12459,067;  198,723;54020,691;22,77944
 726,84;12597,148;  193,031;54352,962;22,90276
 727,41;12734,076;  219,262;54325,310;23,13016
 727,98;12773,311;  209,031;54627,042;23,08846
 728,55;12819,546;  226,954;54566,774;23,17378
 729,12;12842,627;  194,338;54591,199;23,25187
 729,69;12889,939;  222,415;54819,855;23,20168
 730,26;12922,020;  196,800;54991,972;23,22325
 730,82;13018,948;  196,185;54801,858;23,48247
 731,39;13028,336;  193,646;54894,283;23,46351
 731,96;13162,418;  177,185;55116,169;23,63574
 732,53;13274,268;  205,108;55468,824;23,64872
 733,10;13371,503;  205,954;55492,711;23,81321
 733,67;13455,507;  202,415;55699,751;23,88059
 734,24;13358,819;  172,108;55432,099;23,86304
 734,81;13444,439;  220,185;55555,754;23,89829
 735,38;13440,905;  200,492;55315,256;24,02335
 735,95;13434,986;  186,108;55056,219;24,14589
 736,52;13545,067;  194,723;55354,336;24,20311
 737,09;13428,687;  204,338;54997,838;24,13489
 737,66;13621,460;  252,338;55233,109;24,31600
 738,23;13628,618;  177,646;55200,072;24,44635
 738,80;13731,007;  271,492;55528,573;24,35799
 739,37;13778,319;  228,492;55690,383;24,43088
 739,94;13861,247;  193,031;55706,423;24,62147
 740,51;13993,558;  347,646;55704,078;24,65100
 741,07;13946,870;  203,877;55709,349;24,75971
 741,64;13994,644;  232,262;55927,697;24,71007
 742,21;14049,264;  201,185;55903,353;24,86093
 742,78;14016,422;  165,954;55704,931;24,93828
 743,35;14116,964;  190,877;56020,510;24,94390
 743,92;14264,353;  227,031;56187,781;25,08423
 744,49;14231,358;  232,954;56069,821;25,07018
 745,06;14108,977;  198,108;56056,707;24,90372
 745,63;14188,135;  175,031;56037,055;25,08521
 746,19;14215,986;  187,646;56016,326;25,12748
 746,76;14187,528;  194,646;56017,520;25,06657
 747,33;14350,917;  189,723;56044,021;25,35381
 747,90;14404,999;  212,646;56258,908;25,32257
 748,47;14462,926;  196,262;56098,563;25,52071
 749,04;14403,007;  212,031;56140,065;25,37364
 749,61;14468,242;  237,338;56087,874;25,48034
 750,17;14523,939;  220,338;56126,453;25,58504
 750,74;14547,712;  208,877;56050,339;25,67776
 751,31;14512,870;  176,031;56038,379;25,66458
 751,88;14501,182;  176,723;55875,804;25,71759
 752,45;14568,263;  199,954;55955,306;25,77028
 753,02;14585,191;  217,031;55796,423;25,85160
 753,58;14525,118;  182,723;55712,924;25,82810
 754,15;14621,584;  197,338;55850,580;25,91807
 754,72;14559,819;  187,338;55587,620;25,94297
 755,29;14522,977;  180,031;55477,429;25,93783
 755,86;14606,443;  197,646;55599,392;26,00784
 756,42;14633,601;  222,262;55484,202;26,07824
 756,99;14628,144;  175,569;55437,396;26,15291
 757,56;14590,994;  191,185;55457,897;26,05512
 758,13;14662,845;  151,185;55448,784;26,24284
 758,70;14656,849;  198,338;55384,285;26,19962
 759,26;14700,853;  188,800;55497,633;26,23822
 759,83;14785,934;  212,954;55651,904;26,28654
 760,40;14759,015;  189,723;55360,559;26,40760
 760,97;14743,635;  179,108;55437,446;26,35716
 761,53;14699,639;  178,262;54953,794;26,51070
 762,10;14704,567;  163,108;55044,218;26,49629
 762,67;14772,263;  200,492;55154,181;26,51646
 763,24;14676,191;  155,262;54675,760;26,63389
 763,80;14738,964;  194,492;54842,877;26,61464
 764,37;14727,968;  184,031;54755,379;26,65123
 764,94;14628,434;  154,723;54295,573;26,73344
 765,50;14724,131;  174,492;54383,382;26,83995
 766,07;14833,058;  208,723;54367,653;27,00263
 766,64;14740,370;  176,723;54001,770;27,05738
 767,21;14720,528;  171,800;53891,656;27,08259
 767,77;14682,148;  197,108;53840,927;27,00225
 768,34;14676,152;  194,262;53776,737;27,02729
 768,91;14711,310;  202,877;53575,084;27,18350
 769,47;14720,468;  203,338;53579,817;27,19762
 770,04;14673,165;  197,185;53440,011;27,18860
 770,61;14608,554;  179,338;53255,435;27,18590
 771,18;14597,327;  173,338;53085,091;27,26046
 771,74;14645,485;  182,338;53323,285;27,21658
 772,31;14605,874;  194,338;53058,940;27,26122
 772,88;14547,032;  171,031;52707,750;27,36372
 773,44;14517,575;  173,338;52618,482;27,35093
 774,01;14563,349;  208,492;52727,599;27,33264
 774,58;14540,507;  170,108;52399,947;27,51377
 775,14;14576,742;  174,262;52576,064;27,48470
 775,71;14560,746;  171,108;52494,797;27,50119
 776,27;14616,212;  242,723;52398,067;27,55899
 776,84;14681,755;  297,338;52499,492;27,55522
 777,41;14579,759;  195,262;52180,071;27,67058
 777,97;14535,378;  178,262;51969,342;27,72122
 778,54;14587,998;  199,262;51924,766;27,81749
 779,11;14582,310;  234,262;51930,191;27,75470
 779,67;14604,391;  187,723;51953,308;27,84991
 780,24;14484,088;  202,338;51668,887;27,74958
 780,80;14558,400;  211,492;51699,773;27,86441
 781,37;14554,558;  207,492;51610,659;27,91086
 781,94;14492,947;  197,569;51420,238;27,90830
 782,50;14518,489;  197,800;51404,739;27,96631
 783,07;14511,417;  227,954;51467,472;27,87587
 783,63;14430,652;  190,262;51216,358;27,90805
 784,20;14543,271;  232,338;51172,475;28,09363
 784,77;14416,507;  190,800;50910,054;28,04794
 785,33;14295,588;  168,723;50735,940;27,93680
 785,90;14341,284;  190,954;50656,749;28,03945
 786,46;14284,289;  220,569;50620,020;27,90451
 787,03;14308,062;  197,338;50350,599;28,13521
 787,59;14361,374;  199,031;50371,947;28,22707
 788,16;14282,763;  218,877;50292,141;28,08662
 788,73;14300,690;  214,415;50144,565;28,21196
 789,29;14177,771;  198,569;49801,529;28,18219
 789,86;14235,237;  230,108;49716,876;28,30076
 790,42;14160,395;  202,723;49448,378;28,34295
 790,99;14123,707;  224,185;49178,649;28,39276
 791,55;14055,481;  199,108;49200,535;28,27749
 792,12;14125,562;  235,723;49231,883;28,34883
 792,68;14016,720;  213,800;48849,846;28,38002
 793,25;14053,263;  216,262;48615,886;28,58907
 793,81;14035,575;  310,492;48344,542;28,57365
 794,38;13933,887;  187,185;48147,736;28,66252
 794,94;13887,199;  199,800;47935,007;28,67359
 795,51;13854,664;  220,108;47653,431;28,74468
 796,07;13833,130;  217,415;47466,087;28,81714
 796,64;13907,673;  234,185;47469,204;28,94778
 797,20;13824,523;  216,185;47105,552;29,02223
 797,77;13647,220;  184,108;46680,823;28,95498
 798,33;13665,763;  219,646;46547,632;29,02375
 798,90;13609,921;  241,569;46521,903;28,88560
 799,46;13562,540;  203,800;45897,789;29,23522
 800,03;13498,545;  213,723;45879,368;29,09150
 800,59;13476,703;  234,262;45703,177;29,12416
 801,15;13445,246;  243,954;45521,910;29,15611
 801,72;13346,788;  221,646;45155,334;29,21003
 802,28;13211,408;  241,646;44877,221;29,05701
 802,85;13188,720;  219,646;44621,338;29,20851
 803,41;13187,647;  222,492;44556,762;29,24409
 803,98;13051,882;  212,492;44047,418;29,29032
 804,54;12916,117;  221,415;43920,766;29,05009
 805,11;12871,429;  224,954;43638,113;29,13051
 805,67;12930,587;  243,415;43593,461;29,26680
 806,23;12785,053;  224,415;43168,732;29,24866
 806,80;12787,827;  246,877;43040,695;29,30552
 807,36;12784,523;  241,800;43046,812;29,30200
 807,93;12696,528;  261,877;42722,237;29,28532
 808,49;12598,147;  208,492;42402,585;29,36348
 809,05;12535,459;  209,723;42154,087;29,38592
 809,62;12622,771;  224,954;42141,511;29,57737
 810,18;12584,468;  222,954;42042,551;29,55914
 810,74;12437,626;  197,262;41760,822;29,44975
 811,31;12464,553;  203,492;41524,709;29,67256
 811,87;12402,557;  229,031;41277,903;29,65618
 812,44;12401,331;  252,185;41479,250;29,46886
 813,00;12353,258;  177,262;41034,598;29,80125
 813,56;12433,878;  230,415;41162,484;29,81394
 814,13;12307,344;  226,800;41008,448;29,62250
 814,69;12296,040;  219,031;40900,949;29,68643
 815,25;12202,583;  183,492;40381,066;29,90004
 815,82;12145,741;  243,723;40351,491;29,67509
 816,38;12237,591;  281,262;40127,762;30,00597
 816,94;12080,288;  210,492;39958,802;29,86239
 817,51;11977,677;  197,646;39646,535;29,86150
 818,07;11901,604;  208,262;39392,882;29,84166
 818,63;11895,762;  238,031;39210,307;29,91288
 819,20;11902,382;  237,415;39112,270;30,00646
 819,76;11756,771;  208,031;38788,849;29,93389
 820,32;11758,083;  252,800;38646,966;29,96623
 820,89;11726,549;  236,954;38460,391;30,05903
 821,45;11629,399;  211,877;38189,431;30,06387
 822,01;11568,480;  238,415;37871,086;30,10699
 822,57;11503,869;  240,569;37855,280;29,94387
 823,14;11478,104;  193,492;37486,167;30,25959
 823,70;11436,878;  213,415;37306,745;30,25736
 824,26;11383,882;  218,185;37121,939;30,25626
 824,82;11390,502;  248,415;37027,441;30,29468
 825,39;11330,814;  216,800;36749,481;30,42211
 825,95;11289,972;  235,031;36730,752;30,29106
 826,51;11237,976;  235,031;36361,330;30,45688
 827,08;11308,057;  261,723;36483,217;30,49663
 827,64;11225,754;  240,262;36268,334;30,49148
 828,20;11125,220;  211,954;35898,143;30,58120
 828,76;11149,993;  246,646;35886,029;30,59353
 829,32;11192,382;  263,877;35756,454;30,79096
 829,89;11142,232;  200,338;35706,186;30,81716
 830,45;11157,775;  224,800;35627,303;30,88193
 831,01;11103,010;  241,185;35479,190;30,82418
 831,57;11107,091;  213,108;35345,230;31,00861
 832,14;11116,249;  210,338;35348,655;31,03709
 832,70;10954,869;  201,800;35060,695;30,84742
 833,26;10978,796;  193,338;34902,889;31,07346
 833,82;10963,801;  213,031;34895,467;30,99774
 834,38;10968,882;  200,031;34862,200;31,06802
 834,95;10916,501;  205,723;34716,471;31,03607
 835,51;10925,044;  173,569;34589,818;31,23953
 836,07;10967,587;  212,338;34684,397;31,19990
 836,63;10958,822;  241,108;34621,206;31,17418
 837,19;10907,134;  227,954;34434,862;31,21937
 837,75;10760,907;  171,646;34086,287;31,22327
 838,32;10857,296;  245,569;34296,327;31,16444
 838,88;10925,685;  234,415;34342,905;31,34489
 839,44;10882,920;  241,646;34228,561;31,30991
 840,00;10858,155;  229,338;34125,293;31,35718
 840,56;10750,006;  209,492;33756,487;31,42014
 841,12;10770,625;  200,569;33786,296;31,47187
 841,68;10704,168;  186,954;33638,490;31,44015
 842,25;10728,326;  219,108;33518,838;31,55947
 842,81;10711,946;  194,415;33322,032;31,74853
 843,37;10657,027;  188,492;33416,226;31,50541
 843,93;10727,185;  199,185;33342,497;31,76508
 844,49;10780,112;  226,415;33339,999;31,87120
 845,05;10702,347;  174,108;33131,347;31,94515
 845,61;10743,659;  232,185;33205,002;31,87921
 846,17;10696,971;  206,492;33015,658;31,97423
 846,73;10718,745;  210,800;33016,775;32,03058
 847,29;10660,672;  201,262;32860,661;32,02573
 847,86;10669,830;  198,185;32722,009;32,19685
 848,42;10624,296;  213,646;32543,203;32,20165
 848,98;10648,454;  225,646;32561,858;32,23262
 849,54;10578,766;  196,185;32552,283;32,08848
 850,10;10604,078;  232,338;32341,708;32,30129
 850,66;10501,467;  196,877;32299,517;32,09889
 851,22;10512,241;  192,262;32128,403;32,31442
 851,78;10561,783;  243,954;32229,674;32,25761
 852,34;10463,018;  221,415;31870,637;32,35973
 852,90;10420,715;  201,646;31847,831;32,29163
 853,46;10396,642;  198,877;31624,410;32,45057
 854,02;10388,416;  214,646;31638,450;32,37600
 854,58;10305,728;  221,877;31429,105;32,31255
 855,14;10290,963;  209,646;31338,761;32,38549
 855,70;10229,813;  178,723;31218,416;32,38141
 856,26;10225,279;  224,338;31233,534;32,25153
 856,82;10189,745;  207,031;30950,574;32,47093
 857,38;10187,287;  256,338;30908,614;32,39873
 857,94;10144,215;  207,108;30828,577;32,45144
 858,50;10153,142;  244,338;30618,617;32,62235
 859,06;10067,377;  208,338;30493,426;32,55410
 859,62;10100,381;  236,415;30468,390;32,62759
 860,18;10038,924;  216,108;30324,584;32,62475
 860,74; 9992,159;  179,877;30105,547;32,78885
 861,30; 9940,779;  185,108;29888,125;32,84404
 861,86;10050,322;  284,415;30023,935;32,83814
 862,42; 9916,326;  210,954;29767,821;32,83627
 862,98;10057,484;  250,415;29734,476;33,26227
 863,54; 9933,411;  218,492;29541,209;33,13103
 864,10; 9959,262;  211,723;29542,249;33,23343
 864,66; 9835,497;  187,108;29320,905;33,11751
 865,22; 9838,193;  215,646;29224,714;33,17083
 865,78; 9803,582;  210,262;29105,677;33,20015
 866,34; 9772,971;  200,262;29035,333;33,19815
 866,90; 9725,283;  221,569;28876,911;33,16559
 867,45; 9722,057;  215,800;28690,105;33,38539
 868,01; 9631,676;  227,262;28554,145;33,19961
 868,57; 9599,604;  213,954;28341,955;33,36764
 869,13; 9569,531;  189,800;28286,995;33,38316
 869,69; 9586,304;  211,415;28199,343;33,49619
 870,25; 9513,386;  185,954;28030,152;33,49865
 870,81; 9538,544;  208,954;27974,346;33,60151
 871,37; 9513,933;  229,492;27896,617;33,55766
 871,93; 9517,937;  237,723;27765,580;33,71208
 872,49; 9461,787;  274,031;27545,697;33,68975
 873,04; 9293,945;  198,108;27359,506;33,48810
 873,60; 9297,334;  185,723;27265,546;33,64723
 874,16; 9311,492;  228,262;27204,048;33,67179
 874,72; 9314,569;  192,877;27066,048;33,94349
 875,28; 9276,800;  205,262;27009,971;33,84308
 875,84; 9273,492;  223,569;26925,510;33,89238
 876,40; 9286,415;  206,262;26853,587;34,07529
 876,95; 9276,569;  227,569;26916,356;33,90563
 877,51; 9384,262;  243,569;26936,817;34,24346
 878,07; 9312,262;  257,262;26841,817;34,06113
 878,63; 9366,492;  215,877;26853,587;34,35211
 879,19; 9362,108;  229,723;26860,279;34,29288
 879,75; 9420,723;  207,646;26893,740;34,52389
 880,30; 9395,723;  205,569;26889,971;34,44017
 880,86; 9500,877;  259,877;27000,202;34,55829
 881,42; 9486,492;  203,954;27050,202;34,57667
 881,98; 9514,877;  220,262;27168,048;34,49120
 882,54; 9565,723;  207,492;27217,663;34,64706
 883,09; 9671,262;  222,954;27339,279;34,84361
 883,65; 9656,800;  210,800;27335,202;34,82473
 884,21; 9762,492;  245,723;27546,587;34,85886
 884,77; 9749,185;  202,877;27684,202;34,73744
 885,32; 9790,108;  209,646;27806,202;34,71615
 885,88; 9919,185;  253,800;27903,587;34,95645
 886,44; 9928,723;  217,877;27971,202;34,98985
 887,00; 9871,262;  248,415;27985,048;34,69364
 887,56; 9977,415;  222,569;28107,048;34,98307
 888,11; 9965,108;  227,877;28153,740;34,86815
 888,67;10004,800;  244,569;28319,202;34,76530
 889,23;10029,954;  221,185;28304,202;34,92776
 889,79; 9968,492;  199,954;28167,279;34,92840
 890,34; 9989,569;  225,569;28126,510;34,99524
 890,90;10060,262;  308,108;28239,510;34,91466
 891,46; 9960,185;  215,031;28133,894;34,90527
 892,01; 9942,954;  234,492;28142,202;34,78774
 892,57; 9942,954;  260,723;28027,433;34,86992
 893,13; 9843,415;  233,800;27874,510;34,76617
 893,69; 9850,877;  204,108;27834,433;34,91370
 894,24; 9842,262;  224,800;27745,433;34,94637
 894,80; 9795,031;  230,338;27656,048;34,87491
 895,36; 9793,723;  232,492;27516,279;35,04364
 895,91; 9676,877;  224,338;27286,202;34,92937
 896,47; 9719,877;  246,338;27175,510;35,17947
 897,03; 9638,723;  219,415;26974,740;35,20536
 897,58; 9635,338;  239,415;26837,587;35,32545
 898,14; 9583,800;  240,031;26705,740;35,30519
 898,70; 9486,338;  210,800;26521,433;35,25395
 899,25; 9542,723;  230,569;26541,740;35,39240
 899,81; 9573,646;  242,723;26378,202;35,70213
 900,37; 9447,031;  188,723;26079,894;35,75855
 900,92; 9507,262;  222,262;26093,048;35,88990
 901,48; 9415,338;  203,492;26053,279;35,63606
 902,03; 9446,338;  219,877;25818,740;36,04247
 902,59; 9346,185;  217,723;25710,510;35,80802
 903,15; 9365,877;  236,877;25576,202;36,02701
 903,70; 9237,723;  222,262;25382,587;35,83206
 904,26; 9213,569;  215,031;25265,356;35,92184
 904,82; 9286,723;  209,031;25302,202;36,17595
 905,37; 9250,646;  222,569;25079,510;36,32015
 905,93; 9193,492;  226,031;24944,971;36,27769
 906,48; 9209,338;  244,492;24824,279;36,47243
 907,04; 9193,185;  243,877;24824,740;36,40762
 907,60; 9140,723;  235,877;24573,356;36,58902
 908,15; 9103,569;  198,108;24495,202;36,65237
 908,71; 9145,800;  242,262;24481,587;36,73179
 909,26; 9070,415;  221,492;24315,048;36,72734
 909,82; 8998,338;  240,877;24178,433;36,58461
 910,37; 9003,800;  276,723;24143,433;36,56590
 910,93; 8971,800;  207,800;23932,356;36,94063
 911,48; 8938,031;  217,108;23748,740;37,06042
 912,04; 8856,800;  224,646;23688,894;36,78854
 912,60; 8884,723;  240,954;23709,663;36,83104
 913,15; 8784,569;  230,877;23494,202;36,76900
 913,71; 8708,185;  212,877;23282,587;36,82451
 914,26; 8668,108;  195,569;23220,817;36,79673
 914,82; 8715,877;  231,262;23132,510;37,04870
 915,37; 8687,185;  217,800;23068,587;37,06386
 915,93; 8660,185;  275,877;23015,663;36,87065
 916,48; 8640,646;  210,031;22835,894;37,26097
 917,04; 8616,415;  245,031;22721,510;37,24509
 917,59; 8625,262;  256,723;22648,433;37,37338
 918,15; 8480,262;  190,954;22479,740;37,19048
 918,70; 8457,569;  214,492;22344,510;37,24840
 919,26; 8469,954;  222,492;22277,663;37,39468
 919,81; 8367,723;  204,569;22119,125;37,24992
 920,37; 8363,031;  217,108;21986,587;37,41901
 920,92; 8405,569;  239,108;22000,202;37,52781
 921,48; 8256,954;  211,108;21781,971;37,29960
 922,03; 8259,415;  224,569;21755,202;37,31821
 922,59; 8179,569;  225,646;21551,356;37,29734
 923,14; 8156,954;  237,954;21536,971;37,18012
 923,69; 8133,877;  249,108;21373,510;37,32541
 924,25; 8137,954;  246,800;21373,279;37,35196
 924,80; 8090,185;  217,723;21137,125;37,63235
 925,36; 8063,646;  212,646;21097,433;37,59196
 925,91; 8014,185;  217,415;20935,202;37,63322
 926,47; 8008,646;  196,723;20840,663;37,84124
 927,02; 8035,338;  295,877;20835,817;37,68006
 927,57; 7907,031;  216,415;20660,740;37,61736
 928,13; 7873,800;  210,877;20612,663;37,56006
 928,68; 7828,031;  231,800;20522,587;37,43685
 929,24; 7764,185;  206,877;20419,663;37,38875
 929,79; 7788,800;  208,031;20219,971;37,88123
 930,34; 7705,954;  217,646;20070,894;37,71830
 930,90; 7700,723;  215,877;20103,587;37,63554
 931,45; 7751,954;  230,954;20063,971;37,92161
 932,01; 7681,492;  221,723;19824,894;38,05389
 932,56; 7641,492;  245,646;19795,894;37,82994
 933,11; 7675,646;  256,415;19744,663;38,07028
 933,67; 7590,492;  217,415;19569,740;38,09918
 934,22; 7592,415;  227,108;19479,663;38,25626
 934,77; 7548,492;  253,108;19436,202;38,03028
 935,33; 7500,954;  223,723;19295,279;38,15751
 935,88; 7460,492;  243,877;19181,510;38,10727
 936,43; 7474,569;  226,954;19164,663;38,27081
 936,99; 7428,338;  229,569;19027,510;38,29552
 937,54; 7349,646;  206,108;18841,894;38,33237
 938,09; 7362,262;  225,338;18791,740;38,43999
 938,65; 7296,338;  235,723;18645,817;38,35187
 939,20; 7256,954;  209,800;18601,740;38,31653
 939,75; 7240,108;  211,415;18505,356;38,42088
 940,31; 7198,415;  206,569;18393,971;38,44335
 940,86; 7214,877;  225,569;18389,048;38,48001
 941,41; 7246,108;  328,415;18269,817;38,55714
 941,96; 7064,723;  211,415;18149,433;38,20549
 942,52; 7060,877;  216,415;18048,125;38,38365
 943,07; 7041,954;  201,723;17949,125;38,54215
 943,62; 7043,954;  210,723;17862,740;38,71076
 944,18; 7001,723;  197,723;17755,663;38,75170
 944,73; 6968,954;  236,954;17721,510;38,50255
 945,28; 6882,185;  197,262;17468,510;38,70550
 945,83; 6918,262;  213,031;17503,740;38,77938
 946,39; 6872,492;  211,723;17489,740;38,55054
 946,94; 6895,954;  249,262;17365,510;38,83265
 947,49; 6863,415;  212,723;17228,740;39,08489
 948,04; 6910,108;  263,185;17257,663;39,11225
 948,59; 6831,954;  244,877;17127,510;39,01688
 949,15; 6800,185;  216,569;17016,356;39,18868
 949,70; 6792,723;  216,800;16957,587;39,28085
 950,25; 6771,569;  229,569;16872,894;39,30705
 950,80; 6714,338;  183,646;16704,125;39,53089
 951,36; 6673,646;  182,262;16642,279;39,43729
 951,91; 6782,031;  232,338;16653,279;39,88622
 952,46; 6651,492;  221,415;16474,125;39,56311
 953,01; 6647,800;  228,338;16479,279;39,50209
 953,56; 6624,646;  196,646;16339,663;39,81907
 954,11; 6659,108;  216,646;16342,971;39,94997
 954,67; 6630,185;  216,185;16240,433;40,02684
 955,22; 6597,569;  194,646;16065,125;40,34486
 955,77; 6636,646;  242,646;16076,510;40,38181
 956,32; 6639,185;  275,569;15970,125;40,54664
 956,87; 6535,185;  211,954;15816,356;40,52210
 957,42; 6507,185;  220,492;15744,202;40,49736
 957,98; 6468,108;  210,646;15677,125;40,45822
 958,53; 6496,492;  240,262;15685,894;40,50485
 959,08; 6444,723;  204,108;15538,048;40,69805
 959,63; 6426,723;  210,415;15422,356;40,86466
 960,18; 6422,723;  225,415;15400,817;40,83785
 960,73; 6400,800;  226,646;15353,048;40,81707
 961,28; 6317,108;  197,031;15228,510;40,71507
 961,83; 6362,954;  236,031;15224,510;40,87755
 962,39; 6309,646;  196,492;15026,894;41,22042
 962,94; 6340,185;  216,723;14998,510;41,42572
 963,49; 6235,108;  226,492;14846,048;41,09985
 964,04; 6219,723;  221,954;14804,971;41,12845
 964,59; 6172,262;  189,262;14735,356;41,13132
 965,14; 6206,954;  237,569;14637,740;41,45357
 965,69; 6147,415;  222,723;14532,356;41,40352
 966,24; 6103,492;  207,338;14443,894;41,41559
 966,79; 6115,031;  243,338;14397,125;41,48496
 967,34; 5995,262;  196,108;14195,587;41,42407
 967,89; 5975,262;  198,415;14179,048;41,32035
 968,44; 5964,108;  225,800;14128,740;41,27406
 968,99; 5943,954;  220,800;14066,740;41,33453
 969,55; 5918,723;  217,800;13953,817;41,50346
 970,10; 5884,492;  229,338;13867,587;41,46540
 970,65; 5860,723;  239,954;13742,587;41,62721
 971,20; 5838,492;  204,185;13683,510;41,79963
 971,75; 5773,415;  192,492;13469,356;42,03495
 972,30; 5797,492;  224,954;13451,663;42,13095
 972,85; 5746,569;  209,108;13365,125;42,09071
 973,40; 5689,954;  208,415;13249,663;42,03231
 973,95; 5691,800;  229,492;13220,740;42,04606
 974,50; 5679,031;  246,262;13146,894;42,11242
 975,05; 5651,569;  226,262;13000,279;42,47143
 975,60; 5605,569;  227,031;12978,894;42,17845
 976,15; 5563,492;  202,338;12840,663;42,41981
 976,70; 5560,262;  219,877;12794,356;42,47003
 977,25; 5541,108;  240,262;12717,817;42,48305
 977,80; 5476,492;  219,492;12616,433;42,40562
 978,35; 5430,954;  227,415;12468,048;42,51037
 978,89; 5384,108;  199,723;12345,510;42,68463
 979,44; 5390,031;  230,262;12355,971;42,55231
 979,99; 5326,569;  211,338;12160,510;42,80825
 980,54; 5313,108;  236,262;12152,356;42,60495
 981,09; 5295,338;  248,185;12073,433;42,68117
 981,64; 5209,800;  227,338;11907,663;42,65687
 982,19; 5240,415;  269,800;11902,510;42,72964
 982,74; 5169,723;  237,108;11733,971;42,90401
 983,29; 5111,185;  206,031;11599,356;43,05287
 983,84; 5093,108;  212,492;11474,202;43,33814
 984,39; 5169,723;  322,492;11432,587;43,62907
 984,94; 4950,723;  202,723;11322,971;42,69689
 985,49; 5006,415;  253,415;11240,587;43,25954
 986,03; 4952,031;  248,646;11184,587;43,00851
 986,58; 4952,492;  290,185;11041,740;43,36403
 987,13; 4890,108;  223,954;10894,587;43,72893
 987,68; 4829,031;  241,338;10822,125;43,35871
 988,23; 4814,800;  242,492;10802,048;43,30019
 988,78; 4768,108;  219,415;10655,433;43,58648
 989,33; 4739,415;  258,415;10548,125;43,54836
 989,88; 4745,954;  271,108;10489,740;43,79105
 990,42; 4617,338;  220,108;10372,433;43,31255
 990,97; 4607,185;  220,338;10237,356;43,79394
 991,52; 4567,569;  247,492;10154,125;43,60792
 992,07; 4564,108;  271,569;10121,663;43,57865
 992,62; 4473,492;  235,723; 9972,356;43,52397
 993,17; 4427,031;  247,723; 9894,663;43,32262
 993,71; 4397,415;  248,108; 9765,433;43,59742
 994,26; 4360,415;  221,185; 9678,125;43,76924
 994,81; 4373,185;  246,723; 9602,510;44,10598
 995,36; 4318,800;  223,569; 9478,894;44,24729
 995,91; 4311,185;  242,338; 9431,356;44,27945
 996,45; 4255,569;  232,569; 9270,279;44,51349
 997,00; 4168,492;  211,108; 9123,740;44,40197
 997,55; 4194,569;  243,185; 9109,587;44,56582
 998,10; 4121,569;  261,646; 8988,433;44,23075
 998,65; 4113,492;  229,108; 8947,356;44,55465
 999,19; 4064,185;  251,262; 8811,663;44,54140
 999,74; 4027,185;  284,800; 8739,510;44,26390
1000,29; 3975,723;  250,723; 8655,202;44,32161
1000,84; 3929,569;  238,954; 8495,894;44,69713
1001,38; 3895,954;  246,415; 8413,971;44,68336
1001,93; 3905,492;  248,415; 8355,356;45,11045
1002,48; 3789,262;  214,800; 8209,125;44,71249
1003,03; 3831,338;  245,108; 8186,894;45,15647
1003,57; 3772,262;  244,492; 8108,663;44,85875
1004,12; 3798,800;  289,108; 7949,048;45,81879
1004,67; 3720,338;  243,954; 7886,356;45,48812
1005,22; 3683,185;  219,262; 7729,125;46,12498
1005,76; 3590,262;  211,108; 7624,356;45,58264
1006,31; 3589,569;  240,800; 7583,894;45,60433
1006,86; 3527,877;  229,569; 7489,663;45,43065
1007,40; 3465,569;  219,723; 7323,587;45,69128
1007,95; 3450,492;  232,954; 7254,587;45,82322
1008,50; 3402,723;  231,031; 7108,048;46,12017
1009,04; 3343,723;  234,569; 7077,894;45,43338
1009,59; 3338,954;  237,415; 6945,279;46,23735
1010,14; 3271,415;  221,338; 6864,587;45,91243
1010,68; 3218,262;  247,338; 6776,971;45,49908
1011,23; 3224,569;  233,415; 6622,356;46,81768
1011,78; 3200,415;  242,646; 6594,279;46,56707
1012,32; 3166,415;  276,800; 6476,740;46,60715
1012,87; 3163,569;  273,646; 6461,279;46,70483
1013,42; 3069,262;  213,415; 6310,740;46,83769
1013,96; 3059,338;  259,954; 6342,587;46,02258
1014,51; 3002,800;  195,492; 6239,510;46,44771
1015,06; 2986,954;  206,954; 6241,663;46,06684
1015,60; 3087,877;  276,492; 6316,817;46,54360
1016,15; 3031,877;  223,800; 6243,894;46,64507
1016,69; 3044,108;  234,185; 6311,587;46,23560
1017,24; 3027,262;  208,415; 6283,202;46,40239
1017,79; 3104,262;  275,646; 6368,663;46,42389
1018,33; 3067,723;  233,415; 6299,663;46,72258
1018,88; 3115,954;  264,262; 6390,048;46,55226
1019,42; 3112,723;  231,338; 6383,202;46,83759
1019,97; 3072,031;  221,031; 6343,279;46,56786
1020,51; 3133,646;  265,262; 6435,125;46,49024
1021,06; 3139,108;  210,954; 6409,048;47,24281
1021,61; 3085,569;  199,338; 6367,587;46,79174
1022,15; 3069,031;  179,646; 6285,279;47,32326
1022,70; 3119,800;  232,415; 6293,663;47,63680
1023,24; 3086,108;  212,415; 6266,125;47,46994
1023,79; 3046,723;  227,262; 6194,279;47,25077
1024,33; 3022,338;  218,338; 6167,740;47,13079
1024,88; 3001,031;  243,569; 6046,740;47,51646
1025,42; 2988,415;  234,723; 5985,356;47,88503
1025,97; 2909,415;  229,877; 5905,663;47,20999
1026,51; 2834,185;  190,723; 5792,817;47,18702
1027,06; 2826,031;  214,877; 5716,433;47,46210
1027,60; 2808,877;  241,262; 5660,356;47,38090
1028,15; 2799,877;  246,569; 5538,048;48,25320
1028,69; 2696,569;  187,646; 5427,894;47,87794
1029,24; 2674,800;  201,262; 5382,663;47,73879
1029,78; 2630,723;  199,492; 5295,048;47,71277
1030,33; 2574,569;  205,646; 5186,817;47,55755
1030,87; 2557,031;  223,031; 5110,356;47,75619
1031,42; 2521,415;  197,185; 5040,510;47,98833
1031,96; 2513,108;  229,415; 4971,587;48,15710
1032,51; 2470,646;  220,185; 4889,202;48,19990
1033,05; 2480,569;  231,723; 4859,971;48,58958
1033,60; 2382,338;  188,723; 4725,971;48,34682
1034,14; 2338,031;  220,800; 4665,971;47,62990
1034,69; 2367,646;  227,877; 4596,433;48,98116
1035,23; 2300,415;  217,338; 4562,356;47,94174
1035,77; 2323,723;  216,492; 4520,048;48,96488
1036,32; 2239,492;  194,492; 4409,433;48,51789
1036,86; 2239,723;  228,800; 4379,817;48,44410
1037,41; 2229,569;  233,415; 4278,279;49,35034
1037,95; 2141,262;  195,800; 4218,971;48,35642
1038,50; 2147,338;  212,031; 4162,510;48,98919
1039,04; 2162,723;  234,108; 4120,587;49,62372
1039,58; 2071,185;  201,954; 4047,740;48,60464
1040,13; 2049,415;  217,031; 3989,048;48,57837
1040,67; 2070,262;  245,800; 3970,817;48,97861
1041,21; 2054,569;  250,415; 3912,740;49,26253
1041,76; 1976,262;  201,031; 3816,356;49,10294
1042,30; 1967,569;  222,569; 3788,125;48,94048
1042,85; 1941,800;  217,723; 3725,971;49,14353
1043,39; 1914,877;  204,415; 3647,125;49,68358
1043,93; 1918,569;  239,723; 3640,894;49,36083
1044,48; 1885,646;  232,492; 3562,663;49,64171
1045,02; 1853,954;  216,031; 3481,279;50,16229
1045,56; 1863,262;  258,646; 3502,971;49,45914
1046,11; 1839,877;  228,877; 3442,894;50,12419
1046,65; 1798,338;  229,185; 3371,663;49,93363
1047,19; 1758,723;  206,877; 3327,279;49,73225
1047,74; 1727,723;  195,646; 3238,510;50,34984
1048,28; 1754,800;  231,646; 3227,279;50,84581
1048,82; 1753,185;  269,262; 3210,510;50,45216
1049,37; 1721,108;  245,646; 3148,048;50,83588
1049,91; 1687,338;  247,108; 3114,433;50,22907
1050,45; 1681,954;  248,723; 3066,971;50,85538
1050,99; 1645,338;  237,877; 3028,587;50,43382
1051,54; 1608,415;  215,800; 2964,587;50,66291
1052,08; 1617,800;  241,415; 2919,125;51,40156
1052,62; 1599,569;  248,877; 2906,356;50,82608
1053,16; 1552,800;  224,262; 2845,894;50,67600
1053,71; 1562,415;  242,723; 2818,202;51,24066
1054,25; 1540,723;  230,415; 2767,125;51,65383
1054,79; 1524,954;  235,877; 2723,048;51,82904
1055,33; 1464,492;  208,877; 2670,279;51,01220
1055,88; 1478,723;  229,262; 2668,587;51,22161
1056,42; 1475,108;  255,492; 2646,817;51,00166
1056,96; 1459,569;  249,877; 2583,048;51,84756
1057,50; 1429,800;  241,031; 2545,433;51,58689
1058,05; 1406,262;  232,954; 2502,356;51,70119
1058,59; 1404,262;  256,185; 2489,279;51,41193
1059,13; 1332,569;  210,800; 2424,894;50,66493
1059,67; 1346,492;  240,262; 2421,433;50,71728
1060,21; 1342,185;  241,646; 2344,817;52,32757
1060,76; 1330,185;  238,800; 2316,433;52,53020
1061,30; 1308,031;  262,569; 2312,279;51,00535
1061,84; 1277,492;  237,877; 2244,202;51,81690
1062,38; 1254,185;  220,185; 2193,048;52,41113
1062,92; 1296,262;  275,415; 2237,279;52,03452
1063,46; 1255,877;  240,338; 2158,433;52,94518
1064,01; 1206,338;  228,031; 2134,894;51,30455
1064,55; 1235,031;  238,646; 2102,048;53,47127
1065,09; 1172,415;  217,492; 2060,048;51,82601
1065,63; 1216,338;  252,954; 2071,202;52,98422
1066,17; 1186,723;  280,877; 2045,971;51,31999
1066,71; 1182,646;  265,262; 2023,587;52,17378
1067,25; 1140,569;  235,031; 1967,433;52,27069
1067,80; 1143,723;  238,954; 1961,433;52,52716
1068,34; 1155,415;  278,031; 1928,971;53,14454
1068,88; 1086,800;  230,185; 1891,510;51,56218
1069,42; 1111,723;  263,877; 1921,433;51,15038
1069,96; 1078,877;  237,262; 1850,279;52,17646
1070,50; 1117,646;  275,031; 1861,433;53,11487
1071,04; 1059,262;  229,877; 1814,817;52,32907
1071,58; 1056,723;  238,031; 1809,510;52,09693
1072,12; 1038,108;  238,185; 1767,971;52,28985
1072,66; 1040,723;  238,415; 1757,356;52,82022
1073,21; 1036,800;  249,185; 1752,202;52,40228
1073,75; 1023,492;  241,108; 1707,202;53,36523
1074,29; 1002,185;  243,646; 1684,433;52,64753
1074,83; 1017,954;  267,723; 1701,125;52,33918
1075,37; 1013,338;  267,185; 1658,202;53,64087
1075,91;  985,262;  255,031; 1647,663;52,43527
1076,45;  973,262;  249,954; 1628,894;52,45388
1076,99;  965,185;  252,492; 1589,125;53,31998
1077,53;  938,954;  238,723; 1573,971;52,44200
1078,07;  948,031;  252,185; 1573,433;52,66582
1078,61;  929,954;  249,723; 1538,894;52,76497
1079,15;  936,262;  250,185; 1524,663;53,83196
1079,69;  921,031;  241,415; 1491,433;54,36848
1080,23;  929,415;  269,031; 1482,587;54,41733
1080,77;  960,877;  316,646; 1506,048;54,16426
1081,31;  878,185;  234,569; 1440,894;53,35340
1081,85;  891,031;  273,646; 1452,048;52,39168
1082,39;  851,492;  239,723; 1414,663;52,06811
1082,93;  880,185;  264,877; 1410,894;53,69096
1083,47;  821,108;  223,185; 1361,971;52,50528
1084,01;  852,185;  257,569; 1391,587;52,43442
1084,55;  819,185;  233,723; 1330,510;53,37972
1085,09;  844,723;  261,108; 1354,202;53,39113
1085,63;  828,492;  254,723; 1322,894;53,71510
1086,17;  813,185;  237,031; 1282,433;55,11314
1086,71;  790,569;  236,954; 1289,356;52,60494
1087,24;  820,031;  275,569; 1300,663;53,11332
1087,78;  812,646;  263,800; 1273,817;54,34027
1088,32;  772,569;  233,569; 1228,202;54,19086
1088,86;  804,338;  267,262; 1251,202;54,58430
1089,40;  770,338;  249,646; 1222,433;53,52585
1089,94;  744,185;  228,185; 1181,433;54,13072
1090,48;  751,569;  255,492; 1185,279;53,35385
1091,02;  766,877;  266,185; 1181,587;54,69644
1091,56;  743,492;  243,646; 1171,971;53,84388
1092,10;  716,108;  236,800; 1147,971;52,60348
1092,63;  751,569;  275,800; 1154,740;54,12986
1093,17;  750,877;  260,185; 1125,587;56,70109
1093,71;  711,185;  237,954; 1113,279;54,06344
1094,25;  731,415;  265,492; 1131,817;53,78156
1094,79;  711,569;  249,646; 1087,048;55,16145
1095,33;  694,415;  240,569; 1067,279;54,89789
1095,87;  708,877;  246,569; 1063,817;56,56883
1096,40;  668,262;  236,954; 1024,663;54,75466
1096,94;  690,262;  250,185; 1045,894;55,30622
1097,48;  692,800;  261,415; 1024,048;56,56519
1098,02;  662,646;  236,954; 1015,894;54,65018
1098,56;  633,415;  214,877;  980,048;54,69867
1099,10;  629,569;  219,569;  971,894;54,49772
1099,63;  627,031;  226,569;  948,587;55,46426
1100,17;  655,415;  253,646;  979,433;55,35639
1100,71;  680,031;  282,723;  987,433;56,37892

