
Integration time [ms]: 160,000
Averaging Nr. [scans]: 13
Smoothing Nr. [pixels]: 0
Data measured with spectrometer [name]: 2009305U1
Wave   ;Sample   ;Dark     ;Reference;Reflectance
[nm]   ;[counts] ;[counts] ;[counts] ;[%]

 175,72;  215,416;  192,833;  205,653;176,14640
 176,32;  232,743;  215,986;  216,813; 0,00000
 176,92;  286,155;  247,602;  254,971;523,16141
 177,52;  272,315;  255,679;  265,678;166,38403
 178,12;  248,226;  239,756;  224,864; 0,00000
 178,72;  276,901;  257,525;  250,340; 0,00000
 179,32;  268,811;  248,909;  241,998; 0,00000
 179,92;  268,500;  247,063;  242,319; 0,00000
 180,52;  254,003;  235,064;  254,068;99,65514
 181,12;  264,449;  243,833;  252,404;240,51385
 181,73;  300,289;  258,371;  266,338;526,17935
 182,33;  388,522;  327,141;  336,927;627,24530
 182,93;  288,356;  265,064;  266,645;1472,68730
 183,53;  256,438;  233,755;  224,030; 0,00000
 184,13;  247,797;  236,909;  229,431; 0,00000
 184,73;  307,422;  266,448;  273,739;561,99079
 185,33;  265,237;  232,445;  341,197;30,15322
 185,93;  272,848;  226,213;  348,375;38,17450
 186,53;  287,452;  244,675;  370,650;33,95616
 187,13;  308,907;  273,291;  414,063;25,30058
 187,73;  277,032;  243,598;  361,495;28,35838
 188,33;  275,238;  237,983;  370,649;28,08248
 188,93;  288,625;  250,059;  374,130;31,08396
 189,53;  291,332;  248,981;  393,125;29,38087
 190,13;  318,996;  274,058;  409,924;33,07551
 190,73;  250,944;  218,289;  365,019;22,25489
 191,34;  292,904;  256,905;  385,888;27,90995
 191,94;  276,287;  235,829;  359,614;32,68468
 192,54;  280,534;  240,984;  391,391;26,29561
 193,14;  303,334;  258,291;  390,009;34,19662
 193,74;  293,676;  260,214;  377,424;28,54882
 194,34;  283,168;  241,445;  388,106;28,44848
 194,94;  252,836;  209,983;  342,899;32,24082
 195,54;  235,019;  190,137;  332,970;31,42275
 196,14;  242,753;  225,291;  354,341;13,53091
 196,74;  240,878;  223,445;  343,719;14,49441
 197,34;  221,436;  197,522;  345,903;16,11640
 197,94;  258,807;  232,368;  373,573;18,72400
 198,54;  273,513;  228,599;  383,909;28,91891
 199,14;  239,725;  215,368;  380,241;14,77289
 199,74;  229,069;  190,292;  370,197;21,55414
 200,34;  228,012;  195,061;  379,885;17,82859
 200,94;  268,900;  233,599;  425,936;18,35358
 201,54;  245,316;  216,753;  432,596;13,23310
 202,14;  295,388;  230,061;  474,093;26,77002
 202,74;  253,508;  213,907;  473,146;15,27597
 203,34;  237,455;  180,907;  480,577;18,86989
 203,94;  206,645;  170,753;  486,255;11,37609
 204,54;  281,575;  238,445;  563,211;13,28046
 205,14;  242,408;  203,984;  571,733;10,44854
 205,74;  288,306;  236,907;  659,589;12,16011
 206,34;  246,882;  200,215;  679,015; 9,74672
 206,94;  267,825;  210,138;  728,140;11,13655
 207,54;  231,245;  191,907;  773,579; 6,76287
 208,14;  248,103;  194,522;  845,836; 8,22648
 208,74;  262,002;  198,907;  918,683; 8,76591
 209,34;  260,774;  202,215;  992,970; 7,40547
 209,94;  273,770;  202,753; 1089,013; 8,01309
 210,54;  279,707;  195,292; 1187,450; 8,50822
 211,14;  289,390;  194,368; 1267,179; 8,85728
 211,73;  288,240;  197,830; 1399,958; 7,52083
 212,33;  304,402;  214,830; 1495,442; 6,99450
 212,93;  304,853;  201,830; 1569,925; 7,53040
 213,53;  262,653;  168,522; 1613,023; 6,51649
 214,13;  314,880;  193,369; 1705,053; 8,03810
 214,73;  285,696;  179,907; 1721,786; 6,86105
 215,33;  285,462;  163,830; 1742,628; 7,70410
 215,93;  316,678;  194,523; 1862,662; 7,32283
 216,53;  297,849;  157,753; 1944,199; 7,84217
 217,13;  345,811;  209,061; 2159,512; 7,01118
 217,73;  333,134;  196,599; 2334,342; 6,38685
 218,33;  304,498;  149,754; 2512,186; 6,55020
 218,93;  367,515;  177,292; 2802,474; 7,24607
 219,53;  382,995;  179,830; 3052,680; 7,07189
 220,13;  376,024;  166,677; 3342,899; 6,59107
 220,73;  414,226;  178,292; 3659,770; 6,77686
 221,32;  455,079;  192,215; 4073,836; 6,77202
 221,92;  489,907;  184,984; 4477,909; 7,10291
 222,52;  501,387;  163,446; 4867,162; 7,18455
 223,12;  527,187;  187,984; 5286,413; 6,65308
 223,72;  573,684;  189,369; 5644,061; 7,04559
 224,32;  609,118;  186,830; 5997,482; 7,26747
 224,92;  621,177;  168,830; 6323,312; 7,34987
 225,52;  653,092;  197,753; 6670,557; 7,03465
 226,12;  660,920;  180,753; 6972,357; 7,07000
 226,72;  652,862;  160,753; 7292,274; 6,90047
 227,31;  681,382;  151,984; 7646,565; 7,06375
 227,91;  752,288;  194,138; 8071,656; 7,08536
 228,51;  746,464;  165,984; 8435,636; 7,01940
 229,11;  798,301;  184,907; 8840,069; 7,08703
 229,71;  808,953;  170,830; 9126,800; 7,12511
 230,31;  837,744;  168,369; 9555,531; 7,13075
 230,91;  831,111;  158,599; 9813,841; 6,96525
 231,51;  867,808;  163,753;10061,634; 7,11319
 232,10;  898,054;  164,907;10384,972; 7,17360
 232,70;  939,091;  181,445;10581,029; 7,28535
 233,30;  981,647;  195,753;10813,411; 7,40176
 233,90;  968,398;  167,984;10937,933; 7,43192
 234,50;  963,030;  169,984;11059,818; 7,28244
 235,10;  979,869;  171,292;10974,158; 7,48484
 235,70; 1014,935;  182,907;11013,347; 7,68231
 236,29; 1001,536;  178,907;10902,340; 7,67132
 236,89;  961,553;  160,907;10792,462; 7,53085
 237,49;  991,680;  183,907;10632,310; 7,73106
 238,09;  980,574;  172,753;10341,707; 7,94399
 238,69; 1035,404;  207,676;10098,604; 8,36856
 239,29;  948,933;  164,138; 9734,699; 8,20010
 239,89;  945,264;  172,907; 9401,017; 8,36961
 240,48;  931,403;  167,215; 8971,537; 8,67969
 241,08;  930,192;  164,522; 8611,278; 9,06466
 241,68;  914,732;  188,215; 8278,664; 8,97994
 242,28;  867,009;  156,215; 7940,130; 9,13158
 242,88;  910,146;  197,061; 7665,624; 9,54782
 243,48;  902,644;  202,138; 7348,585; 9,80216
 244,07;  868,962;  196,215; 7158,640; 9,66255
 244,67;  885,867;  189,599; 6950,593;10,29830
 245,27;  882,317;  189,214; 6813,419;10,46318
 245,87;  881,967;  193,677; 6751,769;10,49528
 246,47;  884,873;  180,522; 6743,128;10,73280
 247,06;  895,001;  173,599; 6743,421;10,98054
 247,66;  907,700;  171,676; 6819,743;11,07125
 248,26;  969,967;  200,830; 7000,936;11,31066
 248,86; 1010,099;  197,445; 7154,654;11,68074
 249,46;  992,311;  145,599; 7378,217;11,70685
 250,05; 1095,484;  199,830; 7771,472;11,82906
 250,65; 1113,445;  152,599; 8058,257;12,15390
 251,25; 1183,360;  170,984; 8552,490;12,07869
 251,85; 1279,775;  170,830; 9127,877;12,38070
 252,44; 1331,522;  137,061; 9680,974;12,51543
 253,04; 1464,919;  188,215;10445,847;12,44638
 253,64; 1508,641;  136,830;11140,049;12,46736
 254,24; 1684,295;  193,061;12050,132;12,57675
 254,84; 1784,234;  169,830;13024,525;12,55886
 255,43; 1914,218;  179,676;13965,778;12,58182
 256,03; 2023,441;  176,907;14933,069;12,51365
 256,63; 2223,228;  184,599;15959,061;12,92360
 257,23; 2264,770;  171,753;16835,711;12,56014
 257,82; 2446,360;  182,599;17818,426;12,83615
 258,42; 2510,133;  143,753;18720,590;12,73834
 259,02; 2683,797;  189,522;19585,306;12,85988
 259,62; 2744,710;  171,445;20283,193;12,79483
 260,21; 2838,839;  174,291;20811,251;12,91153
 260,81; 2906,078;  185,907;21379,753;12,83472
 261,41; 2945,429;  151,137;21814,664;12,89860
 262,01; 3046,111;  198,214;22356,130;12,85273
 262,60; 3050,616;  159,060;22637,173;12,86387
 263,20; 3113,810;  176,445;23055,648;12,83858
 263,80; 3133,604;  194,906;23123,820;12,81656
 264,40; 3099,136;  149,752;23365,215;12,70439
 264,99; 3175,804;  181,983;23636,262;12,76450
 265,59; 3152,949;  166,214;23828,529;12,62233
 266,19; 3127,563;  157,752;24024,776;12,44315
 266,78; 3209,333;  197,445;24085,499;12,60835
 267,38; 3124,603;  186,368;24190,233;12,24068
 267,98; 3085,789;  170,906;24143,256;12,15936
 268,58; 3126,739;  186,137;24183,756;12,25372
 269,17; 3072,009;  173,752;24133,851;12,09618
 269,77; 3058,307;  192,522;23966,940;12,05407
 270,37; 3013,528;  161,368;23855,106;12,03761
 270,96; 3009,351;  214,830;23796,071;11,85061
 271,56; 2951,594;  179,676;23480,276;11,89634
 272,16; 2877,869;  169,060;23368,768;11,67605
 272,75; 2868,796;  169,522;23244,494;11,69784
 273,35; 2826,006;  186,753;23207,061;11,46489
 273,95; 2799,601;  180,291;23273,296;11,34244
 274,54; 2798,593;  158,061;23319,855;11,40038
 275,14; 2838,223;  185,830;23690,387;11,28459
 275,74; 2764,819;  157,830;23677,369;11,08436
 276,33; 2841,511;  197,983;24100,569;11,05959
 276,93; 2878,094;  184,138;24473,251;11,09121
 277,53; 2931,188;  181,984;25015,911;11,07035
 278,12; 2969,692;  152,830;25597,349;11,07060
 278,72; 3120,379;  215,676;26084,768;11,22847
 279,32; 3109,569;  184,830;26655,470;11,04899
 279,91; 3161,531;  151,984;27296,689;11,08705
 280,51; 3261,866;  164,061;27885,853;11,17462
 281,11; 3349,359;  165,368;28515,442;11,23098
 281,70; 3388,523;  153,676;28993,081;11,21676
 282,30; 3458,594;  163,599;29674,353;11,16541
 282,90; 3531,721;  168,753;30003,444;11,27201
 283,49; 3682,196;  190,983;30517,786;11,51197
 284,09; 3759,356;  200,214;30896,231;11,59480
 284,69; 3836,814;  194,907;31311,375;11,70412
 285,28; 3898,936;  181,907;31608,199;11,82777
 285,88; 4064,611;  231,060;31904,705;12,10328
 286,47; 4035,531;  181,137;31901,565;12,15114
 287,07; 4145,303;  202,984;31975,438;12,40798
 287,67; 4236,644;  185,830;32122,739;12,68380
 288,26; 4298,864;  169,599;32037,774;12,95733
 288,86; 4403,152;  168,676;32056,294;13,27938
 289,46; 4567,141;  193,984;32185,292;13,66983
 290,05; 4701,555;  172,368;32376,766;14,06388
 290,65; 4860,695;  173,907;32494,359;14,50100
 291,24; 5047,275;  178,138;32665,551;14,98776
 291,84; 5230,766;  184,830;32740,907;15,49921
 292,44; 5387,711;  179,061;33002,715;15,86859
 293,03; 5615,112;  246,907;32988,735;16,39556
 293,63; 5670,549;  176,599;33084,504;16,69493
 294,22; 5895,522;  190,753;33347,104;17,20566
 294,82; 5979,276;  182,060;33256,310;17,52788
 295,41; 6025,984;  155,291;33060,774;17,84108
 296,01; 6134,775;  208,214;33008,575;18,06858
 296,61; 6184,999;  182,753;32641,087;18,49216
 297,20; 6163,046;  186,522;32323,950;18,59677
 297,80; 6196,354;  194,984;32156,885;18,77664
 298,39; 6136,929;  164,060;31774,877;18,89501
 298,99; 6212,446;  189,214;31656,241;19,14141
 299,58; 6191,292;  192,292;31571,638;19,11767
 300,18; 6141,943;  209,445;31366,877;19,04039
 300,78; 6091,083;  177,599;30948,409;19,21783
 301,37; 6101,213;  193,291;30891,191;19,24536
 301,97; 6129,662;  188,061;30939,660;19,32127
 302,56; 6081,510;  187,137;30906,361;19,18789
 303,16; 6028,077;  173,753;30840,917;19,08988
 303,75; 6058,579;  174,368;30857,002;19,17766
 304,35; 6073,680;  166,830;31103,257;19,09351
 304,94; 6118,724;  179,138;31040,448;19,24606
 305,54; 6091,771;  201,215;31020,913;19,11296
 306,13; 6018,223;  164,984;31012,753;18,97459
 306,73; 5980,453;  168,138;30770,960;18,99274
 307,33; 5970,631;  192,369;30714,351;18,93148
 307,92; 5975,361;  185,061;30785,136;18,92250
 308,52; 6055,535;  165,830;31199,806;18,97825
 309,11; 6111,803;  172,137;31705,231;18,83629
 309,71; 6120,735;  168,599;31935,792;18,73674
 310,30; 6165,587;  160,061;32195,179;18,74670
 310,90; 6267,587;  198,061;32541,025;18,76614
 311,49; 6221,719;  179,214;32617,051;18,62795
 312,09; 6210,884;  152,599;32789,355;18,56277
 312,68; 6339,576;  218,291;33185,330;18,56789
 313,28; 6250,514;  159,907;33317,674;18,36857
 313,87; 6275,669;  153,830;33457,421;18,38192
 314,47; 6301,516;  169,214;33719,073;18,27818
 315,06; 6256,790;  155,291;33846,369;18,11013
 315,66; 6233,961;  156,061;33991,278;17,96324
 316,25; 6182,330;  145,291;34000,199;17,83209
 316,85; 6158,929;  140,215;34012,972;17,76860
 317,44; 6190,893;  163,445;34187,697;17,71515
 318,04; 6131,816;  154,368;34156,383;17,57969
 318,63; 6095,770;  146,292;34237,622;17,45159
 319,22; 6081,958;  171,445;34452,357;17,24141
 319,82; 6049,805;  162,137;34418,304;17,18718
 320,41; 5993,577;  181,214;34371,699;16,99994
 321,01; 5962,750;  184,907;34386,656;16,89341
 321,60; 6011,022;  176,214;34477,630;17,01040
 322,20; 5905,039;  164,599;34382,000;16,77638
 322,79; 5899,338;  198,368;34501,800;16,61924
 323,39; 5873,998;  170,907;34565,974;16,58113
 323,98; 5826,617;  149,522;34508,529;16,52287
 324,58; 5802,928;  154,368;34408,391;16,49021
 325,17; 5719,171;  176,599;34190,879;16,29484
 325,76; 5684,385;  187,830;34036,681;16,23853
 326,36; 5584,261;  143,368;33626,517;16,24964
 326,95; 5562,333;  193,753;33357,126;16,18828
 327,55; 5428,674;  148,676;32972,948;16,08565
 328,14; 5319,855;  161,292;32580,644;15,91199
 328,74; 5239,397;  189,830;32167,636;15,79085
 329,33; 5196,284;  178,907;31731,391;15,90169
 329,92; 5061,559;  156,214;31253,788;15,77404
 330,52; 4952,868;  173,753;30573,956;15,72067
 331,11; 4834,030;  171,445;30177,215;15,53896
 331,71; 4743,223;  165,522;29557,766;15,57452
 332,30; 4637,186;  177,445;29149,371;15,39332
 332,89; 4637,339;  213,984;28628,725;15,56711
 333,49; 4451,650;  187,907;28086,942;15,28276
 334,08; 4357,511;  175,368;27697,286;15,19568
 334,68; 4266,077;  180,907;27293,964;15,06717
 335,27; 4264,314;  186,215;26952,612;15,23589
 335,86; 4221,877;  224,753;26641,446;15,13105
 336,46; 4131,839;  181,061;26461,399;15,03321
 337,05; 4086,320;  171,599;26265,353;15,00252
 337,65; 4005,316;  153,291;26054,626;14,87192
 338,24; 4053,359;  213,907;26069,851;14,84940
 338,83; 4036,029;  192,984;25957,438;14,91607
 339,43; 3963,008;  167,984;25897,909;14,74946
 340,02; 3953,941;  162,291;25866,857;14,75088
 340,61; 3970,858;  170,138;25836,938;14,80792
 341,21; 3968,243;  208,137;25858,636;14,65900
 341,80; 3952,262;  175,368;25826,808;14,72391
 342,40; 3956,999;  170,292;25890,158;14,72289
 342,99; 3997,262;  165,445;25947,187;14,86252
 343,58; 4019,207;  177,368;26189,622;14,76934
 344,18; 4018,785;  195,522;26373,073;14,60512
 344,77; 4015,684;  164,599;26529,948;14,60661
 345,36; 4115,718;  148,676;26879,818;14,84052
 345,96; 4166,148;  201,984;27219,638;14,67250
 346,55; 4189,138;  151,369;27427,300;14,80341
 347,14; 4250,026;  152,907;27772,144;14,83429
 347,74; 4238,220;  143,292;28192,844;14,59891
 348,33; 4432,262;  164,677;28854,944;14,87468
 348,92; 4500,088;  178,061;29402,688;14,78899
 349,52; 4569,249;  140,215;29849,887;14,90772
 350,11; 4638,567;  175,907;30115,958;14,90532
 350,70; 4650,754;  167,061;30103,798;14,97723
 351,29; 4577,007;  160,291;29828,098;14,88724
 351,89; 4614,487;  176,983;29840,031;14,95970
 352,48; 4603,420;  155,215;29908,351;14,95037
 353,07; 4631,984;  174,599;29796,583;15,04755
 353,67; 4657,906;  189,215;29796,109;15,09341
 354,26; 4615,112;  164,676;29465,729;15,18865
 354,85; 4620,802;  173,907;29381,496;15,22514
 355,45; 4556,512;  158,830;29187,341;15,14953
 356,04; 4559,639;  168,753;29179,958;15,13514
 356,63; 4595,088;  200,676;28979,836;15,26943
 357,22; 4560,424;  176,675;28835,197;15,29649
 357,82; 4568,376;  173,829;28527,954;15,49879
 358,41; 4563,774;  190,291;28522,847;15,43625
 359,00; 4529,556;  155,907;28267,802;15,55800
 359,60; 4565,120;  174,676;28241,266;15,64295
 360,19; 4540,330;  174,292;28045,826;15,66486
 360,78; 4553,221;  177,984;27864,379;15,80284
 361,37; 4537,257;  169,061;27730,181;15,84913
 361,97; 4499,897;  169,676;27624,442;15,77220
 362,56; 4477,599;  167,753;27299,264;15,88502
 363,15; 4526,064;  202,830;27001,114;16,13250
 363,74; 4481,715;  174,291;26660,845;16,26268
 364,34; 4436,126;  194,291;26339,415;16,22419
 364,93; 4341,849;  163,291;25935,873;16,21319
 365,52; 4282,030;  141,445;25588,830;16,27116
 366,11; 4289,641;  173,599;25238,079;16,42181
 366,71; 4240,420;  160,907;24896,203;16,49268
 367,30; 4201,854;  173,522;24575,417;16,50827
 367,89; 4259,988;  207,215;24348,725;16,78757
 368,48; 4203,402;  182,291;24090,525;16,81894
 369,07; 4123,139;  178,138;23657,413;16,80206
 369,67; 4126,718;  203,291;23383,363;16,92586
 370,26; 4086,441;  163,445;23103,863;17,10081
 370,85; 4071,175;  177,137;22920,245;17,12184
 371,44; 4080,151;  163,214;22611,778;17,44850
 372,03; 4011,981;  151,907;22418,770;17,33551
 372,63; 3980,455;  141,984;22051,743;17,51946
 373,22; 3987,732;  162,368;21824,363;17,65933
 373,81; 3936,628;  140,907;21614,122;17,67654
 374,40; 3949,403;  153,522;21310,691;17,94134
 374,99; 3922,096;  157,753;21122,573;17,95552
 375,59; 3855,670;  163,061;20765,855;17,92286
 376,18; 3874,253;  191,522;20688,377;17,96730
 376,77; 3898,336;  184,368;20538,952;18,24635
 377,36; 3879,379;  194,599;20427,029;18,21225
 377,95; 3859,645;  181,291;20167,268;18,40468
 378,55; 3866,288;  164,907;19976,041;18,68334
 379,14; 3859,986;  177,522;19901,675;18,66982
 379,73; 3879,563;  165,676;19853,332;18,86404
 380,32; 3889,214;  183,984;19873,181;18,81860
 380,91; 3855,193;  159,676;19667,575;18,94370
 381,50; 3939,942;  181,137;19730,834;19,22692
 382,10; 3909,214;  165,599;19588,104;19,27463
 382,69; 3898,728;  153,061;19536,843;19,32372
 383,28; 3964,643;  185,214;19485,519;19,58222
 383,87; 3951,855;  170,599;19354,118;19,71096
 384,46; 3942,226;  156,599;19303,219;19,77178
 385,05; 3990,703;  194,368;19336,249;19,83261
 385,64; 4003,872;  173,984;19253,926;20,07285
 386,24; 3994,077;  151,214;19260,693;20,10972
 386,83; 4083,907;  185,676;19307,347;20,38646
 387,42; 4089,406;  185,907;19437,221;20,27653
 388,01; 4210,190;  175,906;19692,501;20,67105
 388,60; 4239,012;  180,060;19935,642;20,54585
 389,19; 4340,373;  162,521;20071,470;20,98479
 389,78; 4387,388;  163,137;20300,531;20,97715
 390,37; 4569,896;  226,829;20795,837;21,11462
 390,96; 4566,553;  171,983;20851,213;21,25113
 391,56; 4642,530;  182,136;20980,634;21,44575
 392,15; 4698,870;  156,367;21348,835;21,43452
 392,74; 4738,485;  147,059;21537,383;21,46496
 393,33; 4864,495;  167,290;21800,272;21,71316
 393,92; 4993,021;  173,905;22148,280;21,93062
 394,51; 5019,817;  169,367;22328,946;21,88873
 395,10; 5148,584;  191,212;22592,145;22,13020
 395,69; 5187,536;  172,828;22659,440;22,30086
 396,28; 5236,886;  187,828;22780,161;22,34855
 396,87; 5301,144;  175,366;22794,544;22,66120
 397,46; 5376,920;  191,750;22963,056;22,77063
 398,06; 5443,438;  198,596;23203,119;22,79918
 398,65; 5510,826;  184,672;23227,508;23,11414
 399,24; 5550,629;  204,056;23470,283;22,97997
 399,83; 5536,379;  175,516;23419,733;23,06321
 400,42; 5631,381;  203,053;23563,588;23,23717
 401,01; 5705,942;  185,975;23697,214;23,47800
 401,60; 5695,184;  194,281;23692,232;23,41014
 402,19; 5793,975;  220,049;23599,757;23,84087
 402,78; 5823,134;  222,354;23670,337;23,88598
 403,37; 5850,066;  208,967;23485,360;24,23528
 403,96; 5800,365;  200,734;23392,403;24,14501
 404,55; 5831,631;  220,577;23298,760;24,31324
 405,14; 5791,317;  199,113;23194,704;24,31859
 405,73; 5818,657;  215,417;23072,266;24,51449
 406,32; 5866,326;  222,569;22959,260;24,82224
 406,91; 5783,880;  202,028;22680,458;24,83204
 407,50; 5785,249;  215,873;22530,604;24,95829
 408,09; 5734,305;  186,103;22248,987;25,14722
 408,68; 5764,126;  196,641;22130,582;25,38297
 409,27; 5734,846;  186,488;21935,551;25,51079
 409,86; 5732,294;  200,644;21860,399;25,53884
 410,45; 5799,098;  232,645;21774,441;25,84024
 411,04; 5787,329;  236,801;21640,738;25,93228
 411,63; 5691,999;  213,187;21399,610;25,86002
 412,22; 5713,424;  217,574;21270,990;26,10431
 412,81; 5706,692;  222,959;20933,498;26,47798
 413,40; 5645,745;  249,652;20594,959;26,52254
 413,99; 5606,149;  267,960;20389,882;26,52922
 414,58; 5430,961;  208,498;19983,338;26,40963
 415,17; 5459,728;  208,267;19843,761;26,74474
 415,76; 5399,910;  205,343;19646,204;26,71984
 416,35; 5343,774;  194,882;19356,030;26,87152
 416,94; 5398,063;  229,805;19554,581;26,74421
 417,53; 5461,101;  215,190;19687,836;26,93990
 418,12; 5566,375;  206,036;19787,445;27,37463
 418,71; 5681,101;  232,114;20191,765;27,30001
 419,30; 5697,187;  216,652;20276,876;27,32041
 419,89; 5788,815;  203,267;20467,311;27,56383
 420,48; 5913,223;  235,114;20775,844;27,64317
 421,07; 5900,978;  229,729;20800,062;27,57004
 421,66; 5934,265;  200,037;20766,724;27,88115
 422,25; 5947,024;  203,115;20757,681;27,94469
 422,84; 5983,986;  231,500;20748,871;28,03715
 423,43; 5924,768;  220,500;20404,088;28,26191
 424,02; 5908,061;  234,961;20179,384;28,44454
 424,60; 5732,560;  206,578;19787,501;28,22126
 425,19; 5731,854;  222,654;19548,224;28,50731
 425,78; 5714,490;  240,654;19501,989;28,41878
 426,37; 5692,016;  236,039;19304,849;28,61205
 426,96; 5654,667;  219,193;19247,266;28,56555
 427,55; 5639,829;  211,116;19035,553;28,83864
 428,14; 5571,526;  206,501;18860,636;28,76051
 428,73; 5555,728;  228,501;18686,169;28,86186
 429,32; 5598,294;  231,962;18637,883;29,15547
 429,91; 5614,700;  247,116;18703,205;29,08300
 430,50; 5571,210;  239,732;18496,159;29,20329
 431,08; 5498,548;  252,117;18415,557;28,88457
 431,67; 5532,421;  296,502;18284,691;29,10754
 432,26; 5499,983;  305,502;18077,559;29,22836
 432,85; 5407,913;  340,656;17763,604;29,08381
 433,44; 5319,085;  336,118;17385,023;29,22749
 434,03; 5238,040;  348,349;17082,008;29,22069
 434,62; 5114,143;  307,425;16701,952;29,31904
 435,21; 5079,205;  328,040;16469,644;29,43428
 435,79; 5045,603;  331,041;16336,814;29,45539
 436,38; 5032,726;  313,734;16279,858;29,55628
 436,97; 5004,058;  312,041;16185,273;29,55930
 437,56; 4954,059;  311,273;15964,310;29,66061
 438,15; 4896,066;  279,273;15853,253;29,64427
 438,74; 4931,348;  296,965;15926,346;29,65174
 439,33; 4921,487;  265,965;15886,494;29,80387
 439,91; 4906,000;  228,581;15945,350;29,76069
 440,50; 4983,085;  284,196;16038,265;29,82651
 441,09; 5006,848;  278,197;16137,216;29,81680
 441,68; 5007,462;  268,735;16097,048;29,93829
 442,27; 5009,590;  249,658;16117,378;29,99758
 442,86; 5007,412;  232,505;16092,763;30,10611
 443,44; 5016,668;  240,351;16162,261;29,99839
 444,03; 5095,810;  298,198;16223,997;30,12478
 444,62; 5026,339;  244,351;16069,566;30,21752
 445,21; 4972,108;  251,659;15914,696;30,13751
 445,80; 5007,312;  284,890;15782,390;30,47215
 446,39; 4939,966;  290,429;15504,817;30,56013
 446,97; 4828,407;  245,814;15352,756;30,33435
 447,56; 4740,224;  247,583;15120,833;30,20618
 448,15; 4691,208;  243,660;14991,139;30,15803
 448,74; 4649,007;  266,429;14672,104;30,42258
 449,33; 4624,232;  235,276;14587,031;30,58132
 449,91; 4527,630;  246,815;14400,616;30,24499
 450,50; 4477,068;  242,430;14179,487;30,38402
 451,09; 4429,971;  255,276;14091,361;30,17251
 451,68; 4446,565;  268,969;13991,513;30,44331
 452,26; 4392,847;  267,507;13882,268;30,30049
 452,85; 4345,286;  251,199;13837,578;30,13376
 453,44; 4369,543;  267,277;13788,136;30,34028
 454,03; 4342,376;  239,354;13776,037;30,31040
 454,61; 4326,075;  236,662;13755,146;30,25053
 455,20; 4394,452;  273,816;13940,687;30,15054
 455,79; 4365,855;  268,662;13927,663;29,99629
 456,38; 4411,570;  268,739;14007,442;30,15446
 456,97; 4422,194;  252,124;14070,310;30,17813
 457,55; 4402,704;  250,047;14089,802;30,00528
 458,14; 4413,695;  276,585;14042,968;30,05226
 458,73; 4359,236;  255,355;14008,120;29,84041
 459,31; 4420,792;  288,278;14014,715;30,10624
 459,90; 4406,809;  290,509;14131,760;29,73937
 460,49; 4498,899;  334,432;14244,717;29,93805
 461,08; 4458,599;  264,971;14325,004;29,82659
 461,66; 4472,625;  267,586;14367,019;29,82417
 462,25; 4466,548;  270,971;14422,905;29,64667
 462,84; 4499,824;  297,202;14494,938;29,60065
 463,43; 4461,771;  226,971;14407,032;29,86447
 464,01; 4478,167;  261,125;14470,259;29,67839
 464,60; 4503,881;  299,894;14402,292;29,81044
 465,19; 4383,579;  242,972;14172,423;29,72556
 465,77; 4361,245;  269,972;14117,024;29,54617
 466,36; 4343,088;  281,433;13996,694;29,61413
 466,95; 4229,724;  256,356;13737,152;29,47428
 467,53; 4165,585;  275,203;13416,862;29,60343
 468,12; 4107,497;  284,434;13175,399;29,65692
 468,71; 3993,668;  266,895;12915,296;29,46438
 469,29; 3886,997;  249,511;12695,642;29,22584
 469,88; 3822,167;  266,357;12500,496;29,06465
 470,47; 3908,724;  329,280;12548,915;29,29256
 471,06; 3859,669;  272,819;12534,273;29,25305
 471,64; 3842,455;  281,280;12691,803;28,69480
 472,23; 3831,903;  242,896;12681,781;28,85313
 472,81; 3864,966;  253,050;12749,243;28,90413
 473,40; 3888,052;  261,127;13004,846;28,46049
 473,99; 4012,762;  346,281;13160,323;28,61300
 474,57; 3974,030;  259,742;13250,487;28,59180
 475,16; 4015,882;  274,742;13372,506;28,56319
 475,75; 4041,848;  290,281;13477,287;28,44897
 476,33; 4086,901;  292,666;13553,813;28,61166
 476,92; 4098,914;  300,973;13603,829;28,54981
 477,51; 4077,639;  285,666;13671,153;28,32898
 478,09; 4075,828;  272,974;13702,109;28,31794
 478,68; 4044,010;  289,666;13595,350;28,21609
 479,27; 4095,092;  311,435;13701,522;28,25715
 479,85; 4039,535;  287,281;13703,038;27,96901
 480,44; 4052,774;  276,974;13868,131;27,78130
 481,02; 4398,168;  281,051;15608,402;26,86124
 481,61; 4986,774;  310,897;17388,639;27,37995
 482,20; 5259,751;  305,436;18436,789;27,32458
 482,78; 5497,813;  331,512;19187,657;27,39850
 483,37; 5633,280;  327,205;19643,013;27,47011
 483,95; 5766,349;  357,975;20013,353;27,51600
 484,54; 5754,857;  370,974;20144,321;27,22798
 485,13; 5707,546;  337,667;20034,163;27,26312
 485,71; 5650,749;  317,975;19790,230;27,38653
 486,30; 5598,170;  351,898;19542,570;27,33761
 486,88; 5538,976;  393,436;19107,604;27,49542
 487,47; 5336,475;  376,898;18360,869;27,57776
 488,05; 5079,185;  358,129;17495,548;27,54823
 488,64; 4716,179;  349,283;16059,475;27,79658
 489,23; 4260,725;  355,591;14183,165;28,24165
 489,81; 3629,165;  354,283;12316,831;27,37613
 490,40; 3400,086;  320,822;11823,952;26,76893
 490,98; 3324,638;  299,745;11561,827;26,85909
 491,57; 3291,307;  322,129;11500,035;26,56292
 492,15; 3260,582;  309,822;11427,977;26,54002
 492,74; 3247,474;  312,667;11319,477;26,66355
 493,32; 3213,589;  325,514;11206,867;26,54151
 493,91; 3184,002;  296,591;11161,517;26,57552
 494,50; 3136,647;  317,207;11123,602;26,09048
 495,08; 3101,752;  292,822;11050,719;26,11040
 495,67; 3143,469;  317,283;11013,507;26,42228
 496,25; 3060,087;  255,130;10847,096;26,48193
 496,84; 3059,891;  280,283;10870,055;26,24804
 497,42; 3009,061;  264,899;10808,134;26,02770
 498,01; 3068,685;  278,206;10786,547;26,55489
 498,59; 2986,824;  246,668;10711,606;26,18416
 499,18; 2969,086;  249,899;10642,047;26,16579
 499,76; 2982,440;  282,437;10534,406;26,33643
 500,35; 2870,765;  272,361;10382,539;25,70087
 500,93; 2871,500;  245,361;10380,776;25,91053
 501,52; 2856,164;  261,284;10274,065;25,91567
 502,10; 2836,268;  270,438;10250,171;25,71041
 502,69; 2799,166;  255,900;10120,749;25,78110
 503,27; 2721,900;  234,207; 9897,576;25,74354
 503,86; 2706,626;  250,669; 9860,824;25,55586
 504,44; 2660,719;  227,438; 9778,525;25,47649
 505,03; 2596,421;  219,361; 9540,802;25,50099
 505,61; 2561,668;  238,515; 9417,662;25,30903
 506,19; 2544,571;  256,054; 9241,075;25,47036
 506,78; 2447,801;  230,362; 9085,577;25,04105
 507,36; 2433,585;  229,361; 8926,057;25,34553
 507,95; 2358,260;  234,900; 8738,415;24,97038
 508,53; 2362,901;  237,516; 8704,375;25,10240
 509,12; 2298,272;  247,054; 8504,879;24,83968
 509,70; 2263,951;  262,439; 8391,822;24,62072
 510,29; 2244,193;  257,670; 8187,741;25,05051
 510,87; 2167,498;  233,131; 8085,205;24,63511
 511,46; 2115,594;  226,131; 7883,685;24,67451
 512,04; 2068,976;  242,285; 7748,083;24,33707
 512,62; 2057,169;  245,054; 7648,102;24,47796
 513,21; 1986,600;  224,208; 7429,407;24,46000
 513,79; 1946,058;  227,824; 7325,385;24,20879
 514,38; 1900,436;  210,747; 7153,170;24,33861
 514,96; 1930,872;  253,824; 7072,624;24,59447
 515,54; 1824,740;  221,670; 6956,391;23,80307
 516,13; 1827,332;  246,824; 6858,308;23,90549
 516,71; 1760,160;  240,901; 6759,824;23,30536
 517,30; 1750,450;  215,132; 6655,856;23,83766
 517,88; 1728,677;  245,978; 6549,899;23,52026
 518,46; 1676,832;  216,825; 6445,769;23,43907
 519,05; 1660,445;  222,517; 6391,915;23,30743
 519,63; 1652,697;  237,056; 6323,787;23,25783
 520,22; 1650,494;  249,979; 6288,022;23,19485
 520,80; 1620,203;  242,287; 6198,368;23,13461
 521,38; 1654,914;  262,748; 6200,291;23,44684
 521,97; 1589,663;  221,595; 6142,052;23,10747
 522,55; 1590,559;  241,133; 6160,067;22,79846
 523,13; 1576,993;  231,441; 6158,127;22,70327
 523,72; 1560,674;  233,517; 6114,658;22,56632
 524,30; 1613,390;  254,210; 6244,255;22,69064
 524,89; 1560,603;  228,672; 6275,014;22,02871
 525,47; 1615,912;  241,826; 6379,471;22,38784
 526,05; 1595,435;  217,210; 6445,512;22,12842
 526,64; 1639,648;  246,672; 6579,212;21,99712
 527,22; 1672,790;  241,133; 6699,623;22,16705
 527,80; 1734,156;  272,749; 6847,730;22,22678
 528,39; 1706,608;  234,364; 6929,961;21,98823
 528,97; 1714,932;  245,057; 7088,668;21,47806
 529,55; 1792,626;  251,749; 7287,682;21,90011
 530,14; 1823,084;  262,288; 7408,121;21,84205
 530,72; 1815,429;  245,518; 7543,700;21,51099
 531,30; 1820,254;  228,134; 7703,083;21,29942
 531,89; 1867,929;  237,903; 7794,836;21,56994
 532,47; 1925,378;  267,442; 7893,471;21,74049
 533,05; 1890,889;  268,595; 7934,621;21,16213
 533,63; 1910,313;  278,595; 7979,036;21,18992
 534,22; 1882,186;  250,365; 7972,022;21,13304
 534,80; 1913,982;  262,442; 8099,771;21,07274
 535,38; 2002,837;  341,672; 8203,953;21,12828
 535,97; 1876,663;  266,903; 8173,981;20,35846
 536,55; 1943,854;  305,211; 8254,394;20,61398
 537,13; 1904,685;  323,441; 8215,447;20,03602
 537,71; 1943,053;  373,903; 8254,101;19,91257
 538,30; 1961,952;  386,826; 8350,242;19,77952
 538,88; 1994,729;  432,134; 8478,329;19,42029
 539,46; 2079,416;  498,826; 8667,939;19,34837
 540,05; 2077,759;  527,519; 8820,864;18,69258
 540,63; 2118,438;  572,519; 8990,574;18,36432
 541,21; 2185,441;  614,673; 9193,347;18,31015
 541,79; 2199,269;  671,058; 9311,562;17,68660
 542,38; 2239,666;  689,519; 9445,133;17,70460
 542,96; 2281,148;  693,058; 9619,609;17,79064
 543,54; 2347,664;  719,596; 9836,509;17,85767
 544,12; 2331,656;  681,058; 9928,388;17,84946
 544,70; 2313,487;  661,365;10039,321;17,61707
 545,29; 2335,403;  673,673;10246,750;17,35837
 545,87; 2337,961;  633,596;10184,716;17,84467
 546,45; 2324,585;  591,365;10217,022;18,00625
 547,03; 2293,010;  572,981;10300,497;17,68210
 547,62; 2295,413;  518,211;10439,230;17,91350
 548,20; 2332,602;  521,442;10550,924;18,05836
 548,78; 2307,623;  485,058;10661,424;17,90979
 549,36; 2334,064;  440,827;10878,890;18,13782
 549,94; 2311,523;  396,904;10967,230;18,11316
 550,53; 2357,873;  394,597;11243,548;18,09646
 551,11; 2360,810;  366,597;11426,754;18,03060
 551,69; 2432,223;  372,443;11750,056;18,10380
 552,27; 2426,153;  335,750;11965,538;17,97456
 552,85; 2498,928;  339,828;12399,722;17,90314
 553,44; 2538,794;  327,827;12632,746;17,96815
 554,02; 2606,062;  348,520;12991,011;17,85678
 554,60; 2613,971;  283,751;13303,900;17,89704
 555,18; 2707,662;  337,674;13660,566;17,78884
 555,76; 2748,456;  296,751;14025,058;17,85876
 556,34; 2814,010;  319,982;14440,574;17,66235
 556,93; 2840,444;  292,827;14817,570;17,53984
 557,51; 2882,217;  272,828;15124,930;17,56916
 558,09; 2949,878;  311,674;15550,738;17,31212
 558,67; 3011,777;  301,982;15980,181;17,28384
 559,25; 3063,156;  313,905;16151,376;17,35916
 559,83; 3097,876;  293,366;16481,564;17,32441
 560,41; 3103,686;  286,058;16862,821;16,99745
 561,00; 3198,256;  297,982;17133,505;17,22711
 561,58; 3241,366;  280,597;17395,894;17,29896
 562,16; 3250,298;  271,904;17779,125;17,01237
 562,74; 3290,012;  263,827;18061,689;17,00308
 563,32; 3292,610;  258,366;18555,839;16,58285
 563,90; 3388,478;  285,982;18895,612;16,67146
 564,48; 3454,440;  285,751;19333,837;16,63521
 565,06; 3541,778;  280,289;19947,851;16,58309
 565,65; 3626,935;  292,059;20622,618;16,40327
 566,23; 3791,283;  322,520;21339,029;16,50494
 566,81; 3824,889;  278,059;22097,728;16,25520
 567,39; 3952,096;  294,136;22907,408;16,17616
 567,97; 4067,114;  308,982;23588,507;16,14351
 568,55; 4201,692;  321,982;24428,159;16,09426
 569,13; 4259,183;  289,366;25136,232;15,97713
 569,71; 4419,955;  276,135;26086,631;16,05478
 570,29; 4578,860;  326,443;27122,260;15,86971
 570,87; 4699,328;  312,058;27695,989;16,02133
 571,45; 4756,782;  314,443;28347,347;15,84687
 572,03; 4760,442;  282,828;28732,112;15,73893
 572,61; 4882,108;  274,520;29528,849;15,75011
 573,20; 4956,828;  299,828;30153,456;15,59944
 573,78; 5059,849;  293,828;30820,809;15,61249
 574,36; 5093,363;  312,213;31253,624;15,45227
 574,94; 5200,865;  364,213;31533,971;15,51713
 575,52; 5127,414;  308,213;31827,474;15,28970
 576,10; 5262,306;  363,367;32450,122;15,26779
 576,68; 5298,184;  358,290;33028,049;15,12070
 577,26; 5416,097;  367,521;33736,551;15,12953
 577,84; 5476,018;  385,059;34142,922;15,08081
 578,42; 5519,306;  422,905;34469,867;14,96874
 579,00; 5461,628;  361,905;34548,932;14,91713
 579,58; 5505,603;  415,982;34727,896;14,83339
 580,16; 5462,548;  384,905;34758,278;14,77202
 580,74; 5509,520;  384,213;34964,545;14,82145
 581,32; 5479,493;  389,059;35108,920;14,66145
 581,90; 5460,503;  427,444;35079,815;14,52443
 582,48; 5483,172;  405,982;35241,094;14,57492
 583,06; 5486,435;  412,982;35258,837;14,55970
 583,64; 5483,001;  409,520;35402,877;14,49841
 584,22; 5466,960;  424,675;35244,258;14,48118
 584,80; 5423,975;  423,982;34992,377;14,46406
 585,38; 5343,467;  435,443;34555,309;14,38465
 585,96; 5287,255;  392,059;34740,574;14,25155
 586,54; 5273,441;  421,829;34710,153;14,14946
 587,12; 5283,088;  387,290;34850,896;14,20571
 587,70; 5298,996;  416,751;35114,610;14,07074
 588,28; 5306,360;  390,290;35095,402;14,16526
 588,86; 5321,615;  391,059;35225,047;14,15444
 589,44; 5250,159;  386,290;35307,462;13,92814
 590,02; 5277,334;  375,059;35498,642;13,95722
 590,59; 5268,243;  368,367;35700,997;13,86785
 591,17; 5287,703;  359,291;35892,185;13,87000
 591,75; 5241,430;  353,983;35999,092;13,71141
 592,33; 5320,877;  364,675;36339,778;13,77676
 592,91; 5276,358;  315,906;36533,304;13,69632
 593,49; 5315,012;  327,598;36828,725;13,66373
 594,07; 5340,737;  342,521;37042,569;13,61910
 594,65; 5317,902;  354,598;37044,483;13,52772
 595,23; 5353,656;  339,367;37404,855;13,52819
 595,81; 5343,992;  345,060;37547,997;13,43693
 596,39; 5347,870;  324,598;37683,478;13,44599
 596,97; 5354,648;  328,598;37855,211;13,39329
 597,55; 5306,392;  325,213;37711,778;13,32345
 598,12; 5278,195;  314,291;37800,790;13,24184
 598,70; 5232,808;  310,214;38006,764;13,05847
 599,28; 5257,681;  331,137;38069,134;13,05460
 599,86; 5261,872;  315,598;38174,991;13,06485
 600,44; 5236,244;  282,906;38262,318;13,04217
 601,02; 5268,768;  340,368;38274,454;12,99201
 601,60; 5213,475;  310,598;38211,478;12,93605
 602,18; 5166,549;  296,983;38197,924;12,84814
 602,75; 5149,098;  294,983;38376,806;12,74654
 603,33; 5136,545;  306,598;38291,535;12,71543
 603,91; 5106,493;  300,445;38330,559;12,63748
 604,49; 5114,626;  326,521;38431,723;12,56549
 605,07; 5112,933;  334,060;38389,059;12,55781
 605,65; 5109,741;  364,983;38516,296;12,43668
 606,23; 5144,122;  413,675;38688,742;12,35908
 606,80; 5087,695;  480,983;38775,483;12,02970
 607,38; 5091,540;  527,522;38761,132;11,93719
 607,96; 5130,727;  578,444;38960,250;11,86052
 608,54; 5107,415;  643,829;38955,049;11,65086
 609,12; 5082,106;  664,521;39056,084;11,50666
 609,70; 5094,723;  711,598;39105,464;11,41621
 610,27; 5107,258;  707,752;39194,796;11,43113
 610,85; 5118,172;  728,060;39233,460;11,40129
 611,43; 5041,953;  725,060;39176,948;11,22674
 612,01; 4965,215;  691,367;38928,974;11,17708
 612,59; 4961,868;  683,675;38959,187;11,17736
 613,16; 4900,977;  643,213;38847,966;11,14459
 613,74; 4906,034;  613,137;38764,905;11,25216
 614,32; 4834,179;  549,214;38724,268;11,22452
 614,90; 4811,306;  499,829;38549,519;11,33118
 615,48; 4735,247;  453,290;38134,209;11,36373
 616,05; 4683,241;  407,290;38243,788;11,30113
 616,63; 4660,390;  421,982;37956,906;11,29190
 617,21; 4617,249;  411,290;37898,211;11,21980
 617,79; 4595,521;  385,213;37770,203;11,26203
 618,36; 4593,607;  404,137;37711,889;11,22949
 618,94; 4451,938;  337,213;37384,847;11,10658
 619,52; 4457,963;  370,367;37017,883;11,15381
 620,10; 4429,844;  356,290;37089,547;11,08955
 620,67; 4400,801;  358,982;36973,199;11,03893
 621,25; 4374,466;  374,137;36797,816;10,98277
 621,83; 4348,639;  358,444;36743,509;10,96657
 622,41; 4377,165;  398,136;36802,043;10,93022
 622,98; 4277,883;  365,675;36487,673;10,83054
 623,56; 4299,984;  363,444;36488,987;10,89683
 624,14; 4253,232;  337,675;36356,652;10,87082
 624,72; 4203,219;  335,675;36237,323;10,77261
 625,29; 4211,550;  327,521;36403,126;10,76636
 625,87; 4218,923;  367,752;36321,989;10,71131
 626,45; 4131,561;  319,674;36112,744;10,64979
 627,02; 4148,886;  316,983;36082,363;10,71400
 627,60; 4094,122;  314,829;36020,701;10,58451
 628,18; 4081,722;  303,752;36171,391;10,53309
 628,76; 4052,317;  305,675;36192,786;10,44008
 629,33; 4089,543;  340,059;36113,721;10,48113
 629,91; 4047,844;  325,598;36022,547;10,42735
 630,49; 4102,273;  328,444;36232,402;10,51090
 631,06; 4048,759;  326,675;36390,638;10,32079
 631,64; 4026,994;  319,059;36324,626;10,29823
 632,22; 4013,655;  274,597;36382,197;10,35532
 632,79; 4031,067;  322,059;36485,337;10,25628
 633,37; 4026,653;  297,675;36621,177;10,26602
 633,95; 3984,575;  288,136;36675,495;10,15858
 634,52; 4016,020;  276,675;36730,705;10,25770
 635,10; 4029,144;  289,367;36741,786;10,25934
 635,68; 4024,741;  286,828;36947,244;10,19605
 636,25; 3990,549;  276,905;36915,262;10,13595
 636,83; 4012,240;  262,213;37121,017;10,17403
 637,41; 3996,010;  274,674;37206,001;10,07637
 637,98; 4033,056;  306,444;37369,365;10,05483
 638,56; 4043,841;  293,213;37423,894;10,10116
 639,13; 3989,802;  268,982;37536,408; 9,98411
 639,71; 4082,496;  313,367;37616,102;10,10416
 640,29; 3948,580;  249,290;37483,827; 9,93510
 640,86; 3985,324;  263,829;37608,175; 9,96535
 641,44; 3985,684;  257,059;37643,369; 9,97324
 642,02; 4006,044;  290,675;37552,947; 9,97086
 642,59; 4000,250;  267,752;37784,833; 9,94880
 643,17; 3962,302;  268,213;37738,797; 9,85864
 643,74; 3972,124;  268,521;37719,375; 9,88924
 644,32; 3999,945;  289,675;37727,185; 9,91057
 644,89; 3951,075;  287,444;37749,917; 9,77947
 645,47; 3985,050;  293,136;37742,649; 9,85838
 646,05; 3958,102;  283,444;37635,997; 9,83777
 646,62; 3912,847;  279,444;37705,499; 9,70822
 647,20; 3945,207;  280,829;37790,001; 9,76929
 647,77; 3885,490;  255,598;37644,271; 9,70853
 648,35; 3868,388;  250,906;37527,465; 9,70444
 648,92; 3874,748;  279,367;37684,429; 9,61202
 649,50; 3862,954;  250,906;37519,623; 9,69190
 650,08; 3843,314;  245,444;37436,201; 9,67410
 650,65; 3846,366;  250,059;37720,164; 9,59780
 651,23; 3891,265;  235,367;38578,204; 9,53476
 651,80; 3953,009;  252,213;39453,014; 9,44061
 652,38; 4043,908;  268,521;39722,439; 9,56911
 652,95; 4027,729;  226,752;40098,709; 9,53296
 653,53; 4073,935;  258,290;40364,211; 9,51392
 654,10; 4130,603;  281,444;40538,482; 9,56146
 654,68; 4035,501;  244,675;40444,676; 9,42992
 655,25; 4047,015;  239,213;40461,716; 9,46684
 655,83; 4061,837;  228,136;40508,141; 9,51763
 656,40; 4094,581;  271,598;40445,104; 9,51618
 656,98; 4044,711;  254,136;40318,683; 9,46117
 657,55; 4043,224;  246,829;40238,184; 9,49304
 658,13; 4004,354;  248,060;39854,147; 9,48413
 658,70; 3977,637;  253,521;39571,803; 9,47171
 659,28; 3889,150;  246,060;38705,305; 9,47260
 659,85; 3820,510;  262,675;37995,652; 9,42898
 660,43; 3828,870;  272,213;38124,539; 9,39614
 661,00; 3810,153;  257,675;38183,887; 9,36682
 661,58; 3809,436;  241,060;38596,927; 9,30334
 662,15; 3822,335;  242,598;38731,659; 9,30066
 662,73; 3932,310;  301,983;39005,930; 9,37973
 663,30; 3893,362;  253,367;39203,816; 9,34519
 663,88; 3919,184;  256,060;39421,702; 9,35290
 664,45; 3905,544;  244,367;39620,666; 9,29792
 665,03; 3976,058;  254,521;39985,937; 9,36673
 665,60; 4124,264;  316,214;40520,746; 9,47169
 666,17; 4010,777;  254,598;40428,017; 9,34991
 666,75; 4026,753;  242,214;40843,288; 9,32128
 667,32; 4092,651;  267,829;41217,482; 9,34030
 667,90; 4123,857;  245,598;41383,445; 9,42747
 668,47; 4146,063;  271,367;41710,177; 9,35040
 669,05; 4146,731;  246,675;41959,987; 9,34967
 669,62; 4106,937;  232,675;42068,334; 9,26067
 670,19; 4140,528;  233,983;42169,990; 9,31549
 670,77; 4182,349;  254,214;42304,492; 9,34152
 671,34; 4186,171;  242,829;42208,070; 9,39669
 671,92; 4213,223;  232,214;42635,572; 9,38843
 672,49; 4226,275;  258,368;42667,920; 9,35617
 673,06; 4232,328;  202,444;42635,114; 9,49712
 673,64; 4268,149;  231,368;42700,461; 9,50522
 674,21; 4218,432;  228,137;42609,886; 9,41513
 674,79; 4272,408;  249,060;42890,311; 9,43534
 675,36; 4284,998;  255,906;42975,966; 9,43138
 675,93; 4261,281;  214,368;42917,237; 9,47691
 676,51; 4283,180;  257,060;43025,124; 9,41385
 677,08; 4283,924;  251,983;43040,702; 9,42291
 677,65; 4306,823;  256,752;43272,204; 9,41539
 678,23; 4337,413;  252,675;43462,936; 9,45317
 678,80; 4356,081;  246,137;43560,438; 9,48865
 679,38; 4345,749;  238,214;43675,940; 9,45615
 679,95; 4391,032;  255,983;43972,518; 9,45878
 680,52; 4435,315;  243,522;44151,789; 9,54671
 681,10; 4460,982;  266,445;44679,675; 9,44434
 681,67; 4462,573;  258,752;44925,254; 9,41157
 682,24; 4508,087;  222,214;44956,371; 9,58076
 682,82; 4538,755;  236,829;45528,796; 9,49821
 683,39; 4669,192;  280,214;45801,605; 9,64157
 683,96; 4638,551;  252,060;46075,414; 9,57261
 684,54; 4659,911;  225,060;46441,070; 9,59592
 685,11; 4745,041;  270,675;46745,956; 9,62741
 685,68; 4743,324;  238,906;47180,458; 9,59580
 686,25; 4739,068;  222,445;47207,498; 9,61289
 686,83; 4800,197;  225,829;47329,000; 9,71138
 687,40; 4845,865;  224,522;47665,886; 9,74117
 687,97; 4914,379;  266,599;48162,003; 9,70402
 688,55; 4850,277;  221,214;48141,505; 9,65992
 689,12; 4892,714;  205,291;48464,929; 9,71293
 689,69; 4923,689;  221,676;48479,431; 9,74354
 690,26; 4972,972;  241,676;48570,240; 9,78986
 690,84; 4978,640;  231,368;48818,896; 9,77056
 691,41; 5010,615;  239,599;48830,320; 9,81878
 691,98; 5050,206;  240,752;49118,591; 9,83974
 692,56; 5066,797;  229,214;49195,785; 9,87936
 693,13; 5123,234;  281,137;49234,749; 9,89119
 693,70; 5126,363;  247,522;49411,558; 9,92360
 694,27; 5092,261;  224,676;49584,367; 9,86146
 694,84; 5119,391;  226,599;49660,792; 9,89759
 695,42; 5184,597;  276,291;49738,524; 9,92334
 695,99; 5198,264;  240,599;50041,565; 9,95496
 696,56; 5189,855;  230,983;49822,989; 9,99934
 697,13; 5264,292;  251,522;50241,106;10,02763
 697,71; 5249,344;  224,214;50276,993;10,03966
 698,28; 5289,704;  233,368;50717,956;10,01560
 698,85; 5292,603;  210,676;50624,227;10,08048
 699,42; 5296,347;  210,137;50795,728;10,05466
 699,99; 5351,476;  266,753;50976,999;10,02701
 700,57; 5362,452;  247,906;50926,347;10,09215
 701,14; 5406,812;  226,060;51028,464;10,19785
 701,71; 5458,402;  245,445;51214,043;10,22778
 702,28; 5473,532;  243,445;51274,390;10,24885
 702,85; 5489,584;  254,676;51489,815;10,21742
 703,43; 5523,482;  256,291;51675,163;10,24369
 704,00; 5562,842;  276,907;51821,280;10,25512
 704,57; 5578,587;  255,599;51809,012;10,32519
 705,14; 5617,101;  290,830;52136,437;10,27333
 705,71; 5647,614;  281,599;52095,785;10,35627
 706,28; 5627,359;  260,676;52033,056;10,36592
 706,86; 5718,719;  285,368;52219,096;10,46208
 707,43; 5700,233;  317,060;52161,136;10,38339
 708,00; 5719,593;  284,368;52207,869;10,46775
 708,57; 5698,491;  261,984;52063,293;10,49492
 709,14; 5757,313;  291,830;52260,256;10,51693
 709,71; 5766,903;  259,137;52303,527;10,58282
 710,28; 5809,725;  265,676;52506,952;10,61239
 710,86; 5817,469;  276,137;52649,685;10,58040
 711,43; 5883,829;  282,445;52711,955;10,68365
 712,00; 5857,805;  261,984;52665,534;10,67832
 712,57; 5919,088;  282,214;52900,113;10,71284
 713,14; 5943,371;  260,061;52861,153;10,80455
 713,71; 5943,577;  263,522;52892,808;10,79257
 714,28; 5970,398;  250,599;52935,079;10,85671
 714,85; 5950,297;  243,907;52642,965;10,89025
 715,42; 5972,810;  241,753;52961,775;10,87074
 716,00; 6099,632;  301,061;53003,353;11,00250
 716,57; 6063,761;  241,061;53124,316;11,01048
 717,14; 6001,352;  236,368;53061,972;10,91324
 717,71; 6052,173;  220,138;53154,935;11,01740
 718,28; 6128,610;  271,522;53179,821;11,07026
 718,85; 6063,739;  234,830;53209,631;11,00317
 719,42; 6168,484;  237,522;53375,440;11,16145
 719,99; 6141,536;  220,907;53217,326;11,17175
 720,56; 6217,819;  245,753;53485,367;11,21734
 721,13; 6214,949;  226,830;53548,253;11,23023
 721,70; 6228,462;  214,522;53383,601;11,31097
 722,27; 6284,899;  254,984;53449,179;11,33566
 722,84; 6407,798;  290,368;53625,296;11,46984
 723,41; 6278,004;  219,292;53601,952;11,34959
 723,98; 6382,210;  237,984;53809,223;11,46926
 724,55; 6402,954;  271,753;53838,109;11,44599
 725,12; 6347,160;  194,138;53899,611;11,45698
 725,69; 6475,597;  222,599;53996,343;11,62835
 726,27; 6509,419;  238,676;54020,691;11,65955
 726,84; 6539,779;  237,215;54352,962;11,64645
 727,41; 6578,831;  247,599;54325,310;11,70766
 727,98; 6588,268;  253,522;54627,042;11,65042
 728,55; 6667,551;  270,369;54566,774;11,78196
 729,12; 6632,603;  219,830;54591,199;11,79439
 729,69; 6713,271;  273,292;54819,855;11,80639
 730,26; 6755,939;  249,599;54991,972;11,88538
 730,82; 6673,837;  246,676;54801,858;11,78103
 731,39; 6818,658;  243,445;54894,283;12,03131
 731,96; 6813,249;  232,984;55116,169;11,98958
 732,53; 6879,763;  244,215;55468,824;12,01556
 733,10; 6916,815;  258,984;55492,711;12,05392
 733,67; 6997,252;  244,599;55699,751;12,17678
 734,24; 6976,535;  243,676;55432,099;12,19977
 734,81; 7004,895;  270,369;55555,754;12,18139
 735,38; 7020,563;  249,599;55315,256;12,29616
 735,95; 6996,230;  240,676;55056,219;12,32416
 736,52; 7038,513;  263,676;55354,336;12,29761
 737,09; 7047,950;  261,599;54997,838;12,39828
 737,66; 7122,003;  299,369;55233,109;12,41975
 738,23; 7086,901;  250,215;55200,072;12,44168
 738,80; 7267,107;  305,599;55528,573;12,60618
 739,37; 7190,544;  286,523;55690,383;12,46126
 739,94; 7211,981;  251,830;55706,423;12,55108
 740,51; 7364,725;  352,753;55704,078;12,66812
 741,07; 7257,701;  256,292;55709,349;12,62583
 741,64; 7325,445;  285,215;55927,697;12,65262
 742,21; 7347,805;  260,753;55903,353;12,73674
 742,78; 7333,550;  224,523;55704,931;12,81358
 743,35; 7397,371;  256,446;56020,510;12,80560
 743,92; 7457,270;  292,984;56187,781;12,81745
 744,49; 7468,937;  282,984;56069,821;12,88109
 745,06; 7438,067;  246,984;56056,707;12,88500
 745,63; 7433,888;  240,984;56037,055;12,89142
 746,19; 7469,940;  236,753;56016,326;12,96745
 746,76; 7500,146;  263,677;56017,520;12,97932
 747,33; 7532,891;  245,907;56044,021;13,05955
 747,90; 7586,789;  276,446;56258,908;13,05827
 748,47; 7586,149;  260,292;56098,563;13,11978
 749,04; 7614,894;  267,369;56140,065;13,15048
 749,61; 7680,254;  277,446;56087,874;13,26420
 750,17; 7675,768;  273,677;56126,453;13,25286
 750,74; 7687,974;  266,754;56050,339;13,30359
 751,31; 7699,103;  242,677;56038,379;13,36380
 751,88; 7654,232;  237,215;55875,804;13,33071
 752,45; 7789,592;  254,292;55955,306;13,52812
 753,02; 7770,183;  267,523;55796,423;13,51127
 753,58; 7785,927;  245,523;55712,924;13,59430
 754,15; 7807,364;  249,600;55850,580;13,59286
 754,72; 7817,340;  253,907;55587,620;13,66876
 755,29; 7811,546;  225,215;55477,429;13,73036
 755,86; 7885,983;  243,600;55599,392;13,80593
 756,42; 7927,420;  254,446;55484,202;13,89283
 756,99; 7877,703;  215,600;55437,396;13,87514
 757,56; 7888,755;  226,908;55457,897;13,87237
 758,13; 7931,499;  191,446;55448,784;14,00729
 758,70; 7938,090;  208,754;55384,285;14,00863
 759,26; 7945,373;  206,600;55497,633;13,99643
 759,83; 8076,656;  215,138;55651,904;14,18105
 760,40; 8025,324;  207,292;55360,559;14,17510
 760,97; 8021,299;  192,677;55437,446;14,17079
 761,53; 8018,274;  189,677;54953,794;14,29512
 762,10; 8056,711;  179,523;55044,218;14,35748
 762,67; 8084,456;  222,215;55154,181;14,31269
 763,24; 8000,739;  166,523;54675,760;14,37227
 763,80; 8099,176;  201,754;54842,877;14,45326
 764,37; 8126,690;  204,061;54755,379;14,52326
 764,94; 8071,280;  199,600;54295,573;14,55132
 765,50; 8096,486;  197,369;54383,382;14,57778
 766,07; 8121,000;  246,215;54367,653;14,55021
 766,64; 8087,283;  210,138;54001,770;14,64381
 767,21; 8054,105;  223,831;53891,656;14,59026
 767,77; 8133,234;  239,754;53840,927;14,72632
 768,34; 8145,825;  242,215;53776,737;14,76358
 768,91; 8154,262;  242,292;53575,084;14,83509
 769,47; 8120,545;  247,215;53579,817;14,76269
 770,04; 8180,443;  232,600;53440,011;14,93747
 770,61; 8158,111;  225,215;53255,435;14,95920
 771,18; 8137,701;  208,446;53085,091;14,99576
 771,74; 8207,369;  235,292;53323,285;15,01672
 772,31; 8152,421;  230,215;53058,940;14,99602
 772,88; 8140,243;  214,446;52707,750;15,09868
 773,44; 8176,987;  218,446;52618,482;15,18805
 774,01; 8191,347;  234,446;52727,599;15,15798
 774,58; 8208,246;  223,216;52399,947;15,30381
 775,14; 8271,606;  211,600;52576,064;15,39213
 775,71; 8290,196;  215,985;52494,797;15,44452
 776,27; 8312,864;  268,600;52398,067;15,43132
 776,84; 8381,147;  295,139;52499,492;15,48915
 777,41; 8365,815;  235,139;52180,071;15,65249
 777,97; 8275,098;  231,985;51969,342;15,54605
 778,54; 8329,073;  238,369;51924,766;15,65345
 779,11; 8379,125;  260,293;51930,191;15,71289
 779,67; 8374,485;  214,677;51953,308;15,77121
 780,24; 8370,999;  238,523;51668,887;15,81260
 780,80; 8367,513;  249,523;51699,773;15,77833
 781,37; 8392,565;  243,293;51610,659;15,86469
 781,94; 8385,925;  234,908;51420,238;15,92452
 782,50; 8392,516;  240,293;51404,739;15,93338
 783,07; 8441,645;  254,677;51467,472;15,98618
 783,63; 8407,159;  221,908;51216,358;16,05126
 784,20; 8429,750;  253,523;51172,475;16,05733
 784,77; 8388,725;  231,062;50910,054;16,09674
 785,33; 8398,546;  212,985;50735,940;16,20167
 785,90; 8425,060;  234,600;50656,749;16,24377
 786,46; 8389,651;  250,446;50620,020;16,15897
 787,03; 8431,088;  221,446;50350,599;16,37698
 787,59; 8431,755;  236,600;50371,947;16,34606
 788,16; 8504,654;  240,985;50292,141;16,51045
 788,73; 8472,014;  244,062;50144,565;16,48872
 789,29; 8458,835;  228,677;49801,529;16,60215
 789,86; 8523,734;  253,677;49716,876;16,71961
 790,42; 8466,401;  235,908;49448,378;16,72441
 790,99; 8443,992;  250,831;49178,649;16,74540
 791,55; 8482,352;  224,447;49200,535;16,86110
 792,12; 8541,558;  259,216;49231,883;16,91217
 792,68; 8458,457;  242,216;48849,846;16,90319
 793,25; 8421,586;  241,293;48615,886;16,91031
 793,81; 8544,561;  295,600;48344,542;17,16783
 794,38; 8328,383;  207,370;48147,736;16,93982
 794,94; 8371,281;  218,985;47935,007;17,08503
 795,51; 8370,795;  247,447;47653,431;17,13570
 796,07; 8319,770;  240,139;47466,087;17,10846
 796,64; 8360,746;  244,216;47469,204;17,18694
 797,20; 8331,875;  241,677;47105,552;17,26318
 797,77; 8226,542;  215,908;46680,823;17,24018
 798,33; 8221,748;  226,370;46547,632;17,26071
 798,90; 8280,031;  256,524;46521,903;17,34236
 799,46; 8189,391;  225,601;45897,789;17,43685
 800,03; 8189,905;  238,831;45879,368;17,42108
 800,59; 8204,265;  250,601;45703,177;17,49882
 801,15; 8154,856;  252,985;45521,910;17,45540
 801,72; 8113,524;  240,293;45155,334;17,52916
 802,28; 8117,576;  265,370;44877,221;17,60117
 802,85; 8085,090;  236,524;44621,338;17,68300
 803,41; 8084,680;  237,447;44556,762;17,70613
 803,98; 8002,502;  235,293;44047,418;17,72845
 804,54; 8025,862;  233,524;43920,766;17,83664
 805,11; 8015,991;  241,139;43638,113;17,91565
 805,67; 8040,966;  261,216;43593,461;17,95372
 806,23; 7990,019;  241,216;43168,732;18,05090
 806,80; 7971,917;  247,985;43040,695;18,04964
 807,36; 8011,431;  257,447;43046,812;18,12129
 807,93; 7985,252;  278,985;42722,237;18,15664
 808,49; 7927,689;  222,216;42402,585;18,26791
 809,05; 7918,434;  207,601;42154,087;18,38255
 809,62; 7926,717;  251,524;42141,511;18,32226
 810,18; 7951,384;  246,755;42042,551;18,43398
 810,74; 7853,975;  216,985;41760,822;18,38297
 811,31; 7889,335;  210,601;41524,709;18,58623
 811,87; 7883,310;  234,524;41277,903;18,63586
 812,44; 7924,670;  254,524;41479,250;18,60569
 813,00; 7798,800;  192,293;41034,598;18,62409
 813,56; 7912,852;  243,139;41162,484;18,74349
 814,13; 7912,443;  233,985;41008,448;18,83153
 814,69; 7889,726;  236,062;40900,949;18,82131
 815,25; 7791,932;  207,139;40381,066;18,87989
 815,82; 7872,292;  240,755;40351,491;19,02617
 816,38; 7864,882;  268,601;40127,762;19,05781
 816,94; 7780,781;  215,062;39958,802;19,03625
 817,51; 7713,987;  212,524;39646,535;19,02283
 818,07; 7692,885;  218,909;39392,882;19,07893
 818,63; 7740,938;  231,755;39210,307;19,26491
 819,20; 7719,221;  227,524;39112,270;19,26642
 819,76; 7673,042;  214,909;38788,849;19,33464
 820,32; 7722,479;  256,139;38646,966;19,44824
 820,89; 7644,762;  247,370;38460,391;19,35830
 821,45; 7641,737;  214,986;38189,431;19,55724
 822,01; 7635,790;  233,216;37871,086;19,66789
 822,57; 7577,611;  241,063;37855,280;19,50472
 823,14; 7524,586;  211,293;37486,167;19,61990
 823,70; 7526,485;  219,293;37306,745;19,70260
 824,26; 7490,460;  214,139;37121,939;19,71486
 824,82; 7535,128;  236,524;37027,441;19,83806
 825,39; 7454,411;  214,370;36749,481;19,81667
 825,95; 7482,540;  244,063;36730,752;19,83868
 826,51; 7440,515;  232,755;36361,330;19,95030
 827,08; 7504,029;  261,986;36483,217;19,99392
 827,64; 7425,158;  243,140;36268,334;19,93610
 828,20; 7420,595;  212,370;35898,143;20,19916
 828,76; 7485,955;  253,986;35886,029;20,29625
 829,32; 7454,007;  257,370;35756,454;20,27274
 829,89; 7398,752;  214,293;35706,186;20,24253
 830,45; 7395,420;  239,140;35627,303;20,22224
 831,01; 7361,626;  225,370;35479,190;20,24250
 831,57; 7401,370;  229,986;35345,230;20,42243
 832,14; 7421,576;  211,140;35348,655;20,52062
 832,70; 7310,398;  210,447;35060,695;20,37274
 833,26; 7352,604;  206,678;34902,889;20,59570
 833,82; 7381,503;  235,063;34895,467;20,61845
 834,38; 7372,478;  209,909;34862,200;20,66983
 834,95; 7380,376;  208,063;34716,471;20,78425
 835,51; 7337,967;  186,217;34589,818;20,78780
 836,07; 7420,635;  221,370;34684,397;20,88982
 836,63; 7457,302;  247,909;34621,206;20,97382
 837,19; 7439,355;  234,524;34434,862;21,06655
 837,75; 7388,638;  190,217;34086,287;21,23674
 838,32; 7426,690;  249,371;34296,327;21,08065
 838,88; 7436,204;  242,447;34342,905;21,09578
 839,44; 7441,102;  229,217;34228,561;21,21184
 840,00; 7411,231;  220,217;34125,293;21,20926
 840,56; 7341,822;  212,294;33756,487;21,25414
 841,12; 7375,720;  207,601;33786,296;21,34722
 841,68; 7316,388;  198,140;33638,490;21,28640
 842,25; 7384,056;  209,371;33518,838;21,53948
 842,81; 7371,877;  211,678;33322,032;21,62526
 843,37; 7344,699;  207,601;33416,226;21,49170
 843,93; 7357,443;  215,140;33342,497;21,56014
 844,49; 7434,419;  230,678;33339,999;21,75744
 845,05; 7342,625;  189,140;33131,347;21,71526
 845,61; 7437,446;  237,524;33205,002;21,83947
 846,17; 7390,652;  208,294;33015,658;21,89252
 846,73; 7388,089;  217,217;33016,775;21,86271
 847,29; 7365,988;  200,525;32860,661;21,93948
 847,86; 7408,732;  207,217;32722,009;22,14843
 848,42; 7356,015;  196,140;32543,203;22,13455
 848,98; 7409,760;  216,678;32561,858;22,23850
 849,54; 7405,350;  199,755;32552,283;22,27212
 850,10; 7399,864;  224,755;32341,708;22,34057
 850,66; 7327,301;  201,063;32299,517;22,20119
 851,22; 7326,200;  193,832;32128,403;22,33431
 851,78; 7381,867;  247,832;32229,674;22,30652
 852,34; 7302,919;  222,755;31870,637;22,37168
 852,90; 7284,203;  213,602;31847,831;22,35111
 853,46; 7251,716;  204,294;31624,410;22,42965
 854,02; 7311,692;  213,678;31638,450;22,58732
 854,58; 7244,667;  204,678;31429,105;22,54641
 855,14; 7209,565;  201,986;31338,761;22,50580
 855,70; 7159,464;  176,755;31218,416;22,49464
 856,26; 7212,593;  235,371;31233,534;22,50850
 856,82; 7180,261;  203,371;30950,574;22,69114
 857,38; 7224,774;  242,217;30908,614;22,76941
 857,94; 7165,211;  209,986;30828,577;22,71569
 858,50; 7180,110;  226,294;30618,617;22,88017
 859,06; 7118,316;  202,448;30493,426;22,83144
 859,62; 7148,830;  218,602;30468,390;22,91001
 860,18; 7083,497;  212,986;30324,584;22,81683
 860,74; 7074,319;  181,909;30105,547;23,03333
 861,30; 7039,448;  194,217;29888,125;23,05264
 861,86; 7125,423;  241,679;30023,935;23,11358
 862,42; 7069,937;  212,679;29767,821;23,20157
 862,98; 7076,912;  233,679;29734,476;23,19678
 863,54; 7022,734;  222,756;29541,209;23,19351
 864,10; 7025,017;  220,525;29542,249;23,20632
 864,66; 7021,915;  201,140;29320,905;23,42318
 865,22; 6973,275;  212,602;29224,714;23,30293
 865,78; 6964,712;  228,217;29105,677;23,32787
 866,34; 6967,072;  205,140;29035,333;23,45434
 866,90; 6955,432;  218,679;28876,911;23,50722
 867,45; 6916,561;  216,525;28690,105;23,53071
 868,01; 6955,460;  223,756;28554,145;23,76142
 868,57; 6855,666;  204,910;28341,955;23,63701
 869,13; 6861,103;  194,525;28286,995;23,73084
 869,69; 6830,693;  204,294;28199,343;23,66990
 870,25; 6828,515;  197,602;28030,152;23,82431
 870,81; 6859,029;  210,525;27974,346;23,94665
 871,37; 6838,004;  215,679;27896,617;23,92377
 871,93; 6853,826;  229,910;27765,580;24,05576
 872,49; 6860,416;  239,987;27545,697;24,24559
 873,04; 6747,699;  197,833;27359,506;24,11437
 873,60; 6751,290;  200,602;27265,546;24,20359
 874,16; 6782,342;  224,910;27204,048;24,30557
 874,72; 6768,650;  203,910;27066,048;24,43864
 875,28; 6797,419;  218,910;27009,971;24,55487
 875,84; 6800,342;  216,833;26925,510;24,64933
 876,40; 6785,804;  209,756;26853,587;24,68132
 876,95; 6757,881;  219,833;26916,356;24,49026
 877,51; 6849,573;  234,833;26936,817;24,77247
 878,07; 6821,958;  242,833;26841,817;24,73450
 878,63; 6794,650;  211,910;26853,587;24,70843
 879,19; 6838,881;  230,448;26860,279;24,81590
 879,75; 6843,035;  209,910;26893,740;24,85822
 880,30; 6895,112;  209,756;26889,971;25,05735
 880,86; 6969,419;  243,833;27000,202;25,13639
 881,42; 6893,881;  192,525;27050,202;24,95136
 881,98; 6993,188;  226,756;27168,048;25,11547
 882,54; 6965,573;  211,525;27217,663;25,00931
 883,09; 7038,804;  227,756;27339,279;25,12234
 883,65; 7070,342;  197,602;27335,202;25,32553
 884,21; 7132,958;  238,987;27546,587;25,24561
 884,77; 7102,112;  211,217;27684,202;25,08244
 885,32; 7173,804;  213,756;27806,202;25,22447
 885,88; 7250,035;  241,679;27903,587;25,33576
 886,44; 7301,573;  225,140;27971,202;25,50428
 887,00; 7286,496;  228,140;27985,048;25,42919
 887,56; 7303,727;  213,910;28107,048;25,41778
 888,11; 7332,573;  212,602;28153,740;25,48204
 888,67; 7383,881;  250,371;28319,202;25,41435
 889,23; 7418,881;  220,987;28304,202;25,63059
 889,79; 7380,727;  195,294;28167,279;25,68796
 890,34; 7430,727;  221,448;28126,510;25,83502
 890,90; 7574,265;  274,448;28239,510;26,10335
 891,46; 7451,727;  206,756;28133,894;25,94240
 892,01; 7450,265;  235,910;28142,202;25,85208
 892,57; 7477,958;  242,525;28027,433;26,04087
 893,13; 7438,496;  214,371;27874,510;26,11746
 893,69; 7426,188;  206,679;27834,433;26,13137
 894,24; 7384,342;  209,833;27745,433;26,05540
 894,80; 7392,573;  209,756;27656,048;26,17045
 895,36; 7393,342;  214,679;27516,279;26,29393
 895,91; 7318,958;  217,833;27286,202;26,23403
 896,47; 7380,573;  232,140;27175,510;26,53132
 897,03; 7344,650;  213,679;26974,740;26,64682
 897,58; 7288,342;  228,679;26837,587;26,53120
 898,14; 7222,265;  227,679;26705,740;26,41654
 898,70; 7236,496;  196,140;26521,433;26,74369
 899,25; 7231,881;  210,294;26541,740;26,66616
 899,81; 7245,650;  217,371;26378,202;26,86566
 900,37; 7118,496;  187,525;26079,894;26,76839
 900,92; 7152,881;  213,525;26093,048;26,81408
 901,48; 7136,958;  209,602;26053,279;26,80484
 902,03; 7089,958;  210,140;25818,740;26,86526
 902,59; 7038,650;  213,602;25710,510;26,76814
 903,15; 7062,881;  228,140;25576,202;26,96356
 903,70; 6997,573;  220,602;25382,587;26,93337
 904,26; 7011,958;  197,756;25265,356;27,18330
 904,82; 7005,342;  209,371;25302,202;27,08332
 905,37; 7008,727;  222,140;25079,510;27,30211
 905,93; 6939,881;  211,448;24944,971;27,20370
 906,48; 6962,496;  218,140;24824,279;27,40924
 907,04; 6977,419;  226,833;24824,740;27,44374
 907,60; 6933,419;  205,448;24573,356;27,60997
 908,15; 6839,958;  193,294;24495,202;27,35038
 908,71; 6879,342;  234,140;24481,587;27,40578
 909,26; 6837,727;  212,602;24315,048;27,48736
 909,82; 6815,188;  227,217;24178,433;27,50579
 910,37; 6841,342;  248,217;24143,433;27,59182
 910,93; 6697,342;  211,140;23932,356;27,34346
 911,48; 6754,419;  195,987;23748,740;27,84571
 912,04; 6712,727;  204,371;23688,894;27,71338
 912,60; 6709,035;  218,063;23709,663;27,63103
 913,15; 6654,496;  212,217;23494,202;27,67066
 913,71; 6605,727;  200,602;23282,587;27,74946
 914,26; 6569,881;  192,525;23220,817;27,69357
 914,82; 6591,573;  218,602;23132,510;27,81268
 915,37; 6527,881;  197,217;23068,587;27,67942
 915,93; 6597,265;  254,371;23015,663;27,86702
 916,48; 6478,496;  202,217;22835,894;27,72982
 917,04; 6495,188;  227,910;22721,510;27,86250
 917,59; 6524,188;  232,525;22648,433;28,06785
 918,15; 6438,496;  183,910;22479,740;28,05272
 918,70; 6409,727;  201,294;22344,510;28,03763
 919,26; 6396,188;  216,756;22277,663;28,01078
 919,81; 6331,496;  195,448;22119,125;27,98823
 920,37; 6334,342;  191,063;21986,587;28,18597
 920,92; 6321,265;  227,987;22000,202;27,98649
 921,48; 6272,265;  192,294;21781,971;28,16147
 922,03; 6248,881;  203,063;21755,202;28,05205
 922,59; 6227,958;  198,910;21551,356;28,23587
 923,14; 6261,265;  200,294;21536,971;28,40635
 923,69; 6267,035;  228,987;21373,510;28,55609
 924,25; 6252,419;  231,294;21373,279;28,47947
 924,80; 6197,496;  210,833;21137,125;28,60833
 925,36; 6188,342;  205,371;21097,433;28,63753
 925,91; 6152,804;  207,987;20935,202;28,68122
 926,47; 6164,342;  187,910;20840,663;28,93770
 927,02; 6227,342;  253,063;20835,817;29,02565
 927,57; 6130,573;  199,602;20660,740;28,98652
 928,13; 6121,188;  186,371;20612,663;29,05479
 928,68; 6067,035;  202,448;20522,587;28,86096
 929,24; 6033,265;  168,448;20419,663;28,96032
 929,79; 5996,265;  192,987;20219,971;28,97730
 930,34; 5993,958;  203,910;20070,894;29,14407
 930,90; 5981,727;  199,140;20103,587;29,05173
 931,45; 5966,573;  208,448;20063,971;29,00012
 932,01; 5988,804;  207,294;19824,894;29,47103
 932,56; 5944,727;  221,987;19795,894;29,23658
 933,11; 5984,881;  226,833;19744,663;29,50148
 933,67; 5887,342;  195,833;19569,740;29,37719
 934,22; 5868,342;  203,294;19479,663;29,38856
 934,77; 5870,342;  232,217;19436,202;29,35914
 935,33; 5813,112;  214,525;19295,279;29,34154
 935,88; 5850,419;  217,063;19181,510;29,70483
 936,43; 5814,727;  193,371;19164,663;29,63085
 936,99; 5847,419;  211,063;19027,510;29,95441
 937,54; 5753,265;  184,140;18841,894;29,84885
 938,09; 5752,188;  208,602;18791,740;29,83127
 938,65; 5757,265;  209,294;18645,817;30,09229
 939,20; 5707,573;  183,294;18601,740;29,99319
 939,75; 5676,496;  189,525;18505,356;29,95753
 940,31; 5656,804;  185,448;18393,971;30,04832
 940,86; 5657,342;  209,756;18389,048;29,96589
 941,41; 5735,112;  261,063;18269,817;30,39660
 941,96; 5586,112;  201,910;18149,433;29,99969
 942,52; 5590,419;  202,294;18048,125;30,19263
 943,07; 5548,112;  182,910;17949,125;30,19890
 943,62; 5542,112;  199,525;17862,740;30,24696
 944,18; 5519,419;  198,987;17755,663;30,30433
 944,73; 5545,265;  209,371;17721,510;30,46969
 945,28; 5485,188;  172,910;17468,510;30,71463
 945,83; 5495,881;  192,910;17503,740;30,63383
 946,39; 5515,727;  190,910;17489,740;30,78137
 946,94; 5516,958;  218,063;17365,510;30,90194
 947,49; 5435,573;  202,756;17228,740;30,73430
 948,04; 5473,112;  222,756;17257,663;30,82116
 948,59; 5444,496;  224,448;17127,510;30,88226
 949,15; 5379,496;  181,987;17016,356;30,87439
 949,70; 5382,650;  203,602;16957,587;30,91234
 950,25; 5335,573;  216,063;16872,894;30,73520
 950,80; 5299,804;  170,140;16704,125;31,02497
 951,36; 5275,804;  166,602;16642,279;31,01057
 951,91; 5311,342;  215,756;16653,279;30,99972
 952,46; 5258,265;  188,217;16474,125;31,13150
 953,01; 5257,727;  211,756;16479,279;31,01868
 953,56; 5207,650;  182,217;16339,663;31,10289
 954,11; 5224,804;  208,217;16342,971;31,09181
 954,67; 5193,650;  186,602;16240,433;31,18912
 955,22; 5151,419;  165,140;16065,125;31,36027
 955,77; 5147,342;  227,371;16076,510;31,04251
 956,32; 5181,881;  233,525;15970,125;31,44488
 956,87; 5078,342;  188,217;15816,356;31,29051
 957,42; 5089,650;  199,448;15744,202;31,45886
 957,98; 5024,112;  195,525;15677,125;31,18920
 958,53; 5099,496;  216,679;15685,894;31,56474
 959,08; 5016,650;  190,756;15538,048;31,44460
 959,63; 4972,419;  185,140;15422,356;31,41833
 960,18; 5009,496;  204,063;15400,817;31,62144
 960,73; 4981,035;  202,756;15353,048;31,53919
 961,28; 4942,650;  188,371;15228,510;31,61061
 961,83; 4966,881;  205,525;15224,510;31,70225
 962,39; 4936,881;  184,602;15026,894;32,01850
 962,94; 4920,265;  217,756;14998,510;31,81509
 963,49; 4831,573;  202,756;14846,048;31,61050
 964,04; 4884,958;  212,063;14804,971;32,02168
 964,59; 4831,650;  170,140;14735,356;32,00440
 965,14; 4834,188;  214,140;14637,740;32,03117
 965,69; 4799,650;  204,525;14532,356;32,07132
 966,24; 4816,035;  189,910;14443,894;32,45496
 966,79; 4805,881;  215,217;14397,125;32,36986
 967,34; 4725,265;  169,448;14195,587;32,48091
 967,89; 4719,881;  195,679;14179,048;32,35416
 968,44; 4723,573;  205,294;14128,740;32,45087
 968,99; 4715,650;  210,679;14066,740;32,51264
 969,55; 4707,035;  202,910;13953,817;32,75511
 970,10; 4675,265;  205,756;13867,587;32,71531
 970,65; 4638,035;  216,217;13742,587;32,69035
 971,20; 4589,419;  194,140;13683,510;32,58328
 971,75; 4526,573;  175,833;13469,356;32,72827
 972,30; 4552,573;  200,525;13451,663;32,84282
 972,85; 4516,035;  191,756;13365,125;32,82591
 973,40; 4496,650;  191,756;13249,663;32,96772
 973,95; 4509,035;  202,140;13220,740;33,08262
 974,50; 4501,804;  223,448;13146,894;33,10538
 975,05; 4454,342;  201,756;13000,279;33,22717
 975,60; 4460,496;  215,140;12978,894;33,26103
 976,15; 4394,958;  191,833;12840,663;33,22936
 976,70; 4397,804;  203,063;12794,356;33,31461
 977,25; 4430,112;  212,833;12717,817;33,72478
 977,80; 4356,496;  194,679;12616,433;33,50426
 978,35; 4278,496;  218,448;12468,048;33,14433
 978,89; 4267,035;  186,679;12345,510;33,55878
 979,44; 4283,112;  197,756;12355,971;33,60161
 979,99; 4184,881;  186,910;12160,510;33,38988
 980,54; 4235,496;  227,987;12152,356;33,60773
 981,09; 4188,650;  219,140;12073,433;33,48584
 981,64; 4115,265;  206,833;11907,663;33,40304
 982,19; 4159,188;  235,910;11902,510;33,62830
 982,74; 4076,188;  214,987;11733,971;33,52033
 983,29; 4036,496;  191,756;11599,356;33,70332
 983,84; 4003,419;  209,525;11474,202;33,67957
 984,39; 4090,496;  262,833;11432,587;34,26811
 984,94; 3949,496;  178,294;11322,971;33,83859
 985,49; 3948,188;  231,679;11240,587;33,75911
 986,03; 3932,727;  225,217;11184,587;33,82959
 986,58; 3965,881;  245,448;11041,740;34,46028
 987,13; 3827,804;  207,910;10894,587;33,87296
 987,68; 3828,188;  222,140;10822,125;34,01937
 988,23; 3814,035;  221,063;10802,048;33,95687
 988,78; 3750,804;  193,063;10655,433;34,00511
 989,33; 3716,035;  216,833;10548,125;33,86993
 989,88; 3764,265;  224,756;10489,740;34,48139
 990,42; 3676,650;  210,679;10372,433;34,10800
 990,97; 3619,035;  210,833;10237,356;33,99186
 991,52; 3630,881;  229,140;10154,125;34,27452
 992,07; 3646,035;  237,910;10121,663;34,48209
 992,62; 3573,496;  222,448; 9972,356;34,37005
 993,17; 3554,265;  221,448; 9894,663;34,45408
 993,71; 3544,496;  222,756; 9765,433;34,80931
 994,26; 3460,573;  201,371; 9678,125;34,39154
 994,81; 3475,188;  221,140; 9602,510;34,68628
 995,36; 3395,342;  204,371; 9478,894;34,40577
 995,91; 3390,958;  217,679; 9431,356;34,44096
 996,45; 3351,035;  205,140; 9270,279;34,70321
 997,00; 3301,573;  189,987; 9123,740;34,82955
 997,55; 3307,958;  216,987; 9109,587;34,75891
 998,10; 3283,112;  242,756; 8988,433;34,76410
 998,65; 3244,804;  204,140; 8947,356;34,77741
 999,19; 3212,188;  221,371; 8811,663;34,81625
 999,74; 3192,188;  236,987; 8739,510;34,75676
1000,29; 3155,035;  226,294; 8655,202;34,74638
1000,84; 3128,188;  201,679; 8495,894;35,28374
1001,38; 3072,727;  213,217; 8413,971;34,86886
1001,93; 3052,342;  229,910; 8355,356;34,73573
1002,48; 2996,265;  204,448; 8209,125;34,87733
1003,03; 3011,265;  223,910; 8186,894;35,00391
1003,57; 2995,035;  227,833; 8108,663;35,11307
1004,12; 2993,804;  256,371; 7949,048;35,58492
1004,67; 2909,958;  210,602; 7886,356;35,16731
1005,22; 2841,650;  205,448; 7729,125;35,03874
1005,76; 2805,035;  197,833; 7624,356;35,10663
1006,31; 2810,265;  228,217; 7583,894;35,10279
1006,86; 2791,188;  215,140; 7489,663;35,41192
1007,40; 2736,342;  202,602; 7323,587;35,58132
1007,95; 2739,881;  223,910; 7254,587;35,78562
1008,50; 2679,804;  215,910; 7108,048;35,74934
1009,04; 2652,958;  211,987; 7077,894;35,55205
1009,59; 2608,035;  215,525; 6945,279;35,55122
1010,14; 2572,342;  191,063; 6864,587;35,68248
1010,68; 2565,496;  202,217; 6776,971;35,94475
1011,23; 2507,265;  211,987; 6622,356;35,80572
1011,78; 2504,881;  223,525; 6594,279;35,80982
1012,32; 2515,419;  225,910; 6476,740;36,62729
1012,87; 2487,342;  240,063; 6461,279;36,12283
1013,42; 2391,881;  198,602; 6310,740;35,88398
1013,96; 2446,496;  235,063; 6342,587;36,20834
1014,51; 2365,727;  176,679; 6239,510;36,10604
1015,06; 2358,650;  194,294; 6241,663;35,79004
1015,60; 2413,419;  250,756; 6316,817;35,65185
1016,15; 2372,265;  204,140; 6243,894;35,89757
1016,69; 2389,265;  205,371; 6311,587;35,76510
1017,24; 2366,112;  193,371; 6283,202;35,67817
1017,79; 2432,112;  236,756; 6368,663;35,80217
1018,33; 2423,650;  201,063; 6299,663;36,44421
1018,88; 2457,496;  222,679; 6390,048;36,23615
1019,42; 2410,188;  206,987; 6383,202;35,67236
1019,97; 2411,727;  202,525; 6343,279;35,97607
1020,51; 2493,342;  224,679; 6435,125;36,52980
1021,06; 2415,496;  196,679; 6409,048;35,71612
1021,61; 2404,573;  177,525; 6367,587;35,97780
1022,15; 2380,650;  168,140; 6285,279;36,16903
1022,70; 2423,573;  201,987; 6293,663;36,46921
1023,24; 2416,419;  194,217; 6266,125;36,59808
1023,79; 2397,419;  207,602; 6194,279;36,57818
1024,33; 2350,650;  189,140; 6167,740;36,15411
1024,88; 2355,881;  221,371; 6046,740;36,64162
1025,42; 2312,035;  211,140; 5985,356;36,38406
1025,97; 2279,188;  199,833; 5905,663;36,44265
1026,51; 2225,419;  176,063; 5792,817;36,48648
1027,06; 2249,958;  192,217; 5716,433;37,24946
1027,60; 2215,650;  216,217; 5660,356;36,72634
1028,15; 2181,112;  214,910; 5538,048;36,93689
1028,69; 2103,342;  173,602; 5427,894;36,72693
1029,24; 2085,573;  187,294; 5382,663;36,53790
1029,78; 2055,035;  189,910; 5295,048;36,53427
1030,33; 2007,573;  178,679; 5186,817;36,51844
1030,87; 1985,342;  195,679; 5110,356;36,41467
1031,42; 1974,188;  175,833; 5040,510;36,96763
1031,96; 1956,496;  207,525; 4971,587;36,71177
1032,51; 1895,496;  184,833; 4889,202;36,36329
1033,05; 1906,650;  204,679; 4859,971;36,55992
1033,60; 1830,035;  165,525; 4725,971;36,49883
1034,14; 1821,419;  191,679; 4665,971;36,42454
1034,69; 1837,419;  202,140; 4596,433;37,21370
1035,23; 1811,958;  195,987; 4562,356;37,00949
1035,77; 1792,112;  190,448; 4520,048;36,99334
1036,32; 1742,727;  169,525; 4409,433;37,10463
1036,86; 1733,573;  201,679; 4379,817;36,66452
1037,41; 1706,727;  205,756; 4278,279;36,85605
1037,95; 1653,881;  181,679; 4218,971;36,46508
1038,50; 1650,727;  187,217; 4162,510;36,81514
1039,04; 1687,881;  213,910; 4120,587;37,72954
1039,58; 1622,419;  186,140; 4047,740;37,19388
1040,13; 1605,804;  197,525; 3989,048;37,14283
1040,67; 1621,035;  229,448; 3970,817;37,19458
1041,21; 1604,958;  213,140; 3912,740;37,62075
1041,76; 1525,112;  179,679; 3816,356;36,99621
1042,30; 1531,419;  204,063; 3788,125;37,03496
1042,85; 1509,265;  200,448; 3725,971;37,12406
1043,39; 1482,342;  166,910; 3647,125;37,79745
1043,93; 1499,496;  211,217; 3640,894;37,56269
1044,48; 1485,650;  215,679; 3562,663;37,94374
1045,02; 1461,496;  197,525; 3481,279;38,49165
1045,56; 1474,573;  215,294; 3502,971;38,30300
1046,11; 1424,650;  206,756; 3442,894;37,63418
1046,65; 1407,035;  208,448; 3371,663;37,89140
1047,19; 1380,958;  188,063; 3327,279;37,99976
1047,74; 1341,881;  184,833; 3238,510;37,89032
1048,28; 1365,265;  201,910; 3227,279;38,45335
1048,82; 1380,342;  212,833; 3210,510;38,94715
1049,37; 1328,112;  214,602; 3148,048;37,95910
1049,91; 1318,496;  197,756; 3114,433;38,42525
1050,45; 1288,650;  219,140; 3066,971;37,55524
1050,99; 1281,112;  201,294; 3028,587;38,19263
1051,54; 1258,650;  197,756; 2964,587;38,34330
1052,08; 1268,419;  220,217; 2919,125;38,83801
1052,62; 1246,035;  211,756; 2906,356;38,38339
1053,16; 1199,573;  191,525; 2845,894;37,97693
1053,71; 1209,727;  203,756; 2818,202;38,47741
1054,25; 1209,727;  216,371; 2767,125;38,94362
1054,79; 1183,188;  212,910; 2723,048;38,65440
1055,33; 1142,419;  177,602; 2670,279;38,70607
1055,88; 1166,496;  215,371; 2668,587;38,77055
1056,42; 1146,035;  222,987; 2646,817;38,08220
1056,96; 1148,188;  217,140; 2583,048;39,35268
1057,50; 1127,958;  211,371; 2545,433;39,27002
1058,05; 1092,342;  200,987; 2502,356;38,73154
1058,59; 1092,881;  229,294; 2489,279;38,21205
1059,13; 1055,881;  186,525; 2424,894;38,83880
1059,67; 1070,573;  224,448; 2421,433;38,51301
1060,21; 1058,650;  213,063; 2344,817;39,66624
1060,76; 1048,727;  221,602; 2316,433;39,48410
1061,30; 1049,112;  226,910; 2312,279;39,42716
1061,84; 1024,881;  213,448; 2244,202;39,95722
1062,38;  970,573;  192,063; 2193,048;38,90633
1062,92; 1032,342;  240,910; 2237,279;39,64360
1063,46;  982,419;  224,679; 2158,433;39,18495
1064,01;  968,496;  204,217; 2134,894;39,58606
1064,55;  953,035;  213,140; 2102,048;39,17048
1065,09;  912,727;  185,063; 2060,048;38,80904
1065,63;  971,881;  239,140; 2071,202;39,99540
1066,17;  959,650;  242,217; 2045,971;39,77442
1066,71;  956,188;  226,217; 2023,587;40,61331
1067,25;  903,727;  211,294; 1967,433;39,42928
1067,80;  904,727;  219,679; 1961,433;39,33094
1068,34;  917,881;  242,756; 1928,971;40,03789
1068,88;  872,958;  201,448; 1891,510;39,73285
1069,42;  878,496;  241,294; 1921,433;37,92556
1069,96;  870,265;  200,217; 1850,279;40,60746
1070,50;  889,881;  241,910; 1861,433;40,01000
1071,04;  840,958;  192,756; 1814,817;39,96161
1071,58;  840,035;  210,602; 1809,510;39,36642
1072,12;  838,804;  207,987; 1767,971;40,43741
1072,66;  824,496;  205,602; 1757,356;39,88353
1073,21;  844,188;  228,371; 1752,202;40,41245
1073,75;  801,727;  226,602; 1707,202;38,84405
1074,29;  787,035;  218,371; 1684,433;38,78851
1074,83;  811,342;  233,140; 1701,125;39,38746
1075,37;  803,035;  230,525; 1658,202;40,10078
1075,91;  801,112;  224,987; 1647,663;40,49584
1076,45;  777,265;  217,063; 1628,894;39,67911
1076,99;  778,112;  236,756; 1589,125;40,03017
1077,53;  746,573;  206,525; 1573,971;39,49319
1078,07;  766,265;  222,525; 1573,433;40,25000
1078,61;  746,804;  217,833; 1538,894;40,04137
1079,15;  744,881;  212,525; 1524,663;40,57162
1079,69;  730,727;  216,140; 1491,433;40,35048
1080,23;  756,419;  233,833; 1482,587;41,84864
1080,77;  789,958;  267,910; 1506,048;42,16395
1081,31;  702,188;  213,679; 1440,894;39,80635
1081,85;  726,342;  224,602; 1452,048;40,87677
1082,39;  713,496;  209,294; 1414,663;41,82967
1082,93;  713,958;  221,063; 1410,894;41,42557
1083,47;  681,881;  196,140; 1361,971;41,66474
1084,01;  687,804;  236,140; 1391,587;39,08996
1084,55;  673,035;  209,987; 1330,510;41,32428
1085,09;  671,496;  230,448; 1354,202;39,24775
1085,63;  669,496;  214,371; 1322,894;41,05688
1086,17;  664,958;  212,679; 1282,433;42,27878
1086,71;  636,342;  213,910; 1289,356;39,27976
1087,24;  682,188;  232,140; 1300,663;42,11870
1087,78;  672,958;  224,833; 1273,817;42,71988
1088,32;  624,342;  215,217; 1228,202;40,38808
1088,86;  643,496;  241,987; 1251,202;39,78433
1089,40;  614,035;  217,602; 1222,433;39,45268
1089,94;  592,342;  195,833; 1181,433;40,23028
1090,48;  614,804;  226,833; 1185,279;40,47918
1091,02;  630,727;  232,833; 1181,587;41,93862
1091,56;  591,035;  218,756; 1171,971;39,05506
1092,10;  581,573;  200,217; 1147,971;40,23785
1092,63;  623,496;  234,987; 1154,740;42,24061
1093,17;  597,727;  233,294; 1125,587;40,84230
1093,71;  579,881;  209,294; 1113,279;40,99478
1094,25;  603,496;  235,448; 1131,817;41,05987
1094,79;  567,573;  218,371; 1087,048;40,19929
1095,33;  579,342;  220,679; 1067,279;42,36516
1095,87;  577,804;  228,448; 1063,817;41,82052
1096,40;  540,112;  198,679; 1024,663;41,33645
1096,94;  567,265;  216,987; 1045,894;42,25788
1097,48;  577,650;  219,833; 1024,048;44,49272
1098,02;  555,881;  211,371; 1015,894;42,82160
1098,56;  520,496;  189,679;  980,048;41,85605
1099,10;  509,727;  185,833;  971,894;41,20469
1099,63;  523,958;  200,987;  948,587;43,20106
1100,17;  535,342;  222,602;  979,433;41,32237
1100,71;  562,496;  243,140;  987,433;42,90730

