
Integration time [ms]: 160,000
Averaging Nr. [scans]: 13
Smoothing Nr. [pixels]: 0
Data measured with spectrometer [name]: 2009305U1
Wave   ;Sample   ;Dark     ;Reference;Reflectance
[nm]   ;[counts] ;[counts] ;[counts] ;[%]

 175,72;  210,931;  192,833;  205,653;141,16419
 176,32;  246,722;  215,986;  216,813; 0,00000
 176,92;  275,889;  247,602;  254,971;383,86260
 177,52;  268,423;  255,679;  265,678;127,45271
 178,12;  259,380;  239,756;  224,864; 0,00000
 178,72;  280,909;  257,525;  250,340; 0,00000
 179,32;  275,096;  248,909;  241,998; 0,00000
 179,92;  259,530;  247,063;  242,319; 0,00000
 180,52;  251,875;  235,064;  254,068;88,45694
 181,12;  274,823;  243,833;  252,404;361,54390
 181,73;  287,479;  258,371;  266,338;365,37864
 182,33;  394,706;  327,141;  336,927;690,44113
 182,93;  292,456;  265,064;  266,645;1731,91251
 183,53;  246,904;  233,755;  224,030; 0,00000
 184,13;  262,338;  236,909;  229,431; 0,00000
 184,73;  304,899;  266,448;  273,739;527,37970
 185,33;  281,674;  232,445;  341,197;45,26720
 185,93;  274,826;  226,213;  348,375;39,79381
 186,53;  299,941;  244,675;  370,650;43,87056
 187,13;  318,885;  273,291;  414,063;32,38860
 187,73;  287,217;  243,598;  361,495;36,99795
 188,33;  279,905;  237,983;  370,649;31,60020
 188,93;  311,456;  250,059;  374,130;49,48551
 189,53;  291,335;  248,981;  393,125;29,38277
 190,13;  326,152;  274,058;  409,924;38,34239
 190,73;  267,291;  218,289;  365,019;33,39612
 191,34;  309,385;  256,905;  385,888;40,68750
 191,94;  291,957;  235,829;  359,614;45,34341
 192,54;  294,585;  240,984;  391,391;35,63761
 193,14;  308,581;  258,291;  390,009;38,17994
 193,74;  300,235;  260,214;  377,424;34,14486
 194,34;  295,276;  241,445;  388,106;36,70469
 194,94;  274,153;  209,983;  342,899;48,27820
 195,54;  235,397;  190,137;  332,970;31,68767
 196,14;  271,412;  225,291;  354,341;35,73875
 196,74;  268,548;  223,445;  343,719;37,50039
 197,34;  236,808;  197,522;  345,903;26,47664
 197,94;  270,796;  232,368;  373,573;27,21452
 198,54;  282,401;  228,599;  383,909;34,64164
 199,14;  252,929;  215,368;  380,241;22,78143
 199,74;  252,434;  190,292;  370,197;34,54163
 200,34;  252,737;  195,061;  379,885;31,20604
 200,94;  280,979;  233,599;  425,936;24,63365
 201,54;  276,374;  216,753;  432,596;27,62249
 202,14;  306,453;  230,061;  474,093;31,30419
 202,74;  273,315;  213,907;  473,146;22,91614
 203,34;  265,384;  180,907;  480,577;28,18996
 203,94;  232,670;  170,753;  486,255;19,62483
 204,54;  302,288;  238,445;  563,211;19,65825
 205,14;  264,918;  203,984;  571,733;16,56949
 205,74;  339,605;  236,907;  659,589;24,29671
 206,34;  300,938;  200,215;  679,015;21,03653
 206,94;  316,360;  210,138;  728,140;20,50615
 207,54;  283,357;  191,907;  773,579;15,72188
 208,14;  324,957;  194,522;  845,836;20,02639
 208,74;  334,337;  198,907;  918,683;18,81564
 209,34;  343,696;  202,215;  992,970;17,89192
 209,94;  365,291;  202,753; 1089,013;18,33974
 210,54;  368,622;  195,292; 1187,450;17,47006
 211,14;  386,512;  194,368; 1267,179;17,91028
 211,73;  400,421;  197,830; 1399,958;16,85268
 212,33;  411,704;  214,830; 1495,442;15,37348
 212,93;  421,020;  201,830; 1569,925;16,02153
 213,53;  404,304;  168,522; 1613,023;16,32270
 214,13;  441,329;  193,369; 1705,053;16,40290
 214,73;  408,376;  179,907; 1721,786;14,81759
 215,33;  416,598;  163,830; 1742,628;16,01018
 215,93;  457,266;  194,523; 1862,662;15,75068
 216,53;  434,999;  157,753; 1944,199;15,51943
 217,13;  514,809;  209,061; 2159,512;15,67574
 217,73;  513,276;  196,599; 2334,342;14,81358
 218,33;  505,764;  149,754; 2512,186;15,06967
 218,93;  588,797;  177,292; 2802,474;15,67529
 219,53;  626,500;  179,830; 3052,680;15,54796
 220,13;  643,306;  166,677; 3342,899;15,00618
 220,73;  705,070;  178,292; 3659,770;15,13088
 221,32;  780,414;  192,215; 4073,836;15,15345
 221,92;  873,473;  184,984; 4477,909;16,03775
 222,52;  923,703;  163,446; 4867,162;16,16290
 223,12;  996,525;  187,984; 5286,413;15,85863
 223,72; 1086,799;  189,369; 5644,061;16,45245
 224,32; 1174,489;  186,830; 5997,482;16,99739
 224,92; 1218,006;  168,830; 6323,312;17,04734
 225,52; 1331,403;  197,753; 6670,557;17,51405
 226,12; 1393,908;  180,753; 6972,357;17,86257
 226,72; 1439,054;  160,753; 7292,274;17,92465
 227,31; 1507,878;  151,984; 7646,565;18,09166
 227,91; 1660,791;  194,138; 8071,656;18,61822
 228,51; 1740,041;  165,984; 8435,636;19,03415
 229,11; 1826,627;  184,907; 8840,069;18,96810
 229,71; 1914,186;  170,830; 9126,800;19,46585
 230,31; 2014,427;  168,369; 9555,531;19,66578
 230,91; 2082,952;  158,599; 9813,841;19,93066
 231,51; 2210,869;  163,753;10061,634;20,68237
 232,10; 2326,786;  164,907;10384,972;21,15328
 232,70; 2404,199;  181,445;10581,029;21,37349
 233,30; 2507,982;  195,753;10813,411;21,77720
 233,90; 2532,345;  167,984;10937,933;21,95332
 234,50; 2637,551;  169,984;11059,818;22,65936
 235,10; 2657,468;  171,292;10974,158;23,01404
 235,70; 2741,660;  182,907;11013,347;23,62557
 236,29; 2760,163;  178,907;10902,340;24,07117
 236,89; 2766,884;  160,907;10792,462;24,51172
 237,49; 2803,205;  183,907;10632,310;25,06889
 238,09; 2751,245;  172,753;10341,707;25,35651
 238,69; 2790,763;  207,676;10098,604;26,11572
 239,29; 2678,182;  164,138; 9734,699;26,26852
 239,89; 2636,214;  172,907; 9401,017;26,69352
 240,48; 2560,685;  167,215; 8971,537;27,18518
 241,08; 2499,800;  164,522; 8611,278;27,64704
 241,68; 2439,881;  188,215; 8278,664;27,83117
 242,28; 2321,709;  156,215; 7940,130;27,82012
 242,88; 2307,141;  197,061; 7665,624;28,25283
 243,48; 2235,623;  202,138; 7348,585;28,45450
 244,07; 2145,154;  196,215; 7158,640;27,99225
 244,67; 2085,351;  189,599; 6950,593;28,03955
 245,27; 2033,574;  189,214; 6813,419;27,84274
 245,87; 2010,771;  193,677; 6751,769;27,70766
 246,47; 1948,365;  180,522; 6743,128;26,93813
 247,06; 1897,018;  173,599; 6743,421;26,23235
 247,66; 1895,551;  171,676; 6819,743;25,93046
 248,26; 1922,110;  200,830; 7000,936;25,31254
 248,86; 1941,452;  197,445; 7154,654;25,06762
 249,46; 1914,441;  145,599; 7378,217;24,45646
 250,05; 1948,752;  199,830; 7771,472;23,09832
 250,65; 1965,589;  152,599; 8058,257;22,93281
 251,25; 2010,493;  170,984; 8552,490;21,94724
 251,85; 2079,796;  170,830; 9127,877;21,31246
 252,44; 2119,623;  137,061; 9680,974;20,77306
 253,04; 2223,147;  188,215;10445,847;19,83822
 253,64; 2265,669;  136,830;11140,049;19,34742
 254,24; 2400,324;  193,061;12050,132;18,61559
 254,84; 2454,288;  169,830;13024,525;17,77139
 255,43; 2588,105;  179,676;13965,778;17,46998
 256,03; 2653,183;  176,907;14933,069;16,78130
 256,63; 2770,401;  184,599;15959,061;16,39233
 257,23; 2830,806;  171,753;16835,711;15,95691
 257,82; 2907,601;  182,599;17818,426;15,45152
 258,42; 2892,818;  143,753;18720,590;14,79835
 259,02; 3036,785;  189,522;19585,306;14,67980
 259,62; 3052,878;  171,445;20283,193;14,32711
 260,21; 3078,403;  174,291;20811,251;14,07238
 260,81; 3088,822;  185,907;21379,753;13,69697
 261,41; 3089,868;  151,137;21814,664;13,56534
 262,01; 3129,279;  198,214;22356,130;13,22807
 262,60; 3109,422;  159,060;22637,173;13,12548
 263,20; 3093,674;  176,445;23055,648;12,75057
 263,80; 3120,533;  194,906;23123,820;12,75955
 264,40; 3080,035;  149,752;23365,215;12,62211
 264,99; 3128,711;  181,983;23636,262;12,56371
 265,59; 3096,754;  166,214;23828,529;12,38484
 266,19; 3104,961;  157,752;24024,776;12,34845
 266,78; 3173,127;  197,445;24085,499;12,45678
 267,38; 3161,617;  186,368;24190,233;12,39488
 267,98; 3176,983;  170,906;24143,256;12,53977
 268,58; 3231,442;  186,137;24183,756;12,69003
 269,17; 3221,821;  173,752;24133,851;12,72144
 269,77; 3245,340;  192,522;23966,940;12,84077
 270,37; 3222,272;  161,368;23855,106;12,91862
 270,96; 3296,052;  214,830;23796,071;13,06641
 271,56; 3301,379;  179,676;23480,276;13,39752
 272,16; 3280,210;  169,060;23368,768;13,41030
 272,75; 3352,615;  169,522;23244,494;13,79457
 273,35; 3377,501;  186,753;23207,061;13,86058
 273,95; 3417,736;  180,291;23273,296;14,01916
 274,54; 3467,775;  158,061;23319,855;14,28954
 275,14; 3602,653;  185,830;23690,387;14,53686
 275,74; 3592,704;  157,830;23677,369;14,60435
 276,33; 3762,846;  197,983;24100,569;14,91413
 276,93; 3893,869;  184,138;24473,251;15,27323
 277,53; 3994,668;  181,984;25015,911;15,35272
 278,12; 4137,375;  152,830;25597,349;15,65974
 278,72; 4370,219;  215,676;26084,768;16,05987
 279,32; 4510,155;  184,830;26655,470;16,34009
 279,91; 4647,753;  151,984;27296,689;16,56223
 280,51; 4866,205;  164,061;27885,853;16,96191
 281,11; 5032,347;  165,368;28515,442;17,16743
 281,70; 5254,866;  153,676;28993,081;17,68826
 282,30; 5457,610;  163,599;29674,353;17,93926
 282,90; 5663,270;  168,753;30003,444;18,41654
 283,49; 5924,236;  190,983;30517,786;18,90490
 284,09; 6061,988;  200,214;30896,231;19,09620
 284,69; 6302,002;  194,907;31311,375;19,62657
 285,28; 6525,330;  181,907;31608,199;20,18508
 285,88; 6724,793;  231,060;31904,705;20,50201
 286,47; 6879,842;  181,137;31901,565;21,11795
 287,07; 7071,112;  202,984;31975,438;21,61661
 287,67; 7281,470;  185,830;32122,739;22,21768
 288,26; 7477,201;  169,599;32037,774;22,93072
 288,86; 7684,867;  168,676;32056,294;23,57088
 289,46; 7983,763;  193,984;32185,292;24,34967
 290,05; 8257,912;  172,368;32376,766;25,10695
 290,65; 8535,515;  173,907;32494,359;25,87095
 291,24; 8898,494;  178,138;32665,551;26,84226
 291,84; 9216,632;  184,830;32740,907;27,74229
 292,44; 9560,951;  179,061;33002,715;28,58271
 293,03; 9906,407;  246,907;32988,735;29,50202
 293,63;10178,864;  176,599;33084,504;30,39472
 294,22;10537,358;  190,753;33347,104;31,20550
 294,82;10762,187;  182,060;33256,310;31,98902
 295,41;10889,174;  155,291;33060,774;32,62035
 296,01;11130,927;  208,214;33008,575;33,30059
 296,61;11256,363;  182,753;32641,087;34,11638
 297,20;11257,299;  186,522;32323,950;34,44824
 297,80;11420,533;  194,984;32156,885;35,12166
 298,39;11432,181;  164,060;31774,877;35,64641
 298,99;11557,228;  189,214;31656,241;36,12675
 299,58;11602,770;  192,292;31571,638;36,36302
 300,18;11651,163;  209,445;31366,877;36,72227
 300,78;11588,050;  177,599;30948,409;37,08206
 301,37;11657,692;  193,291;30891,191;37,34588
 301,97;11773,664;  188,061;30939,660;37,67480
 302,56;11733,800;  187,137;30906,361;37,58774
 303,16;11794,002;  173,753;30840,917;37,89150
 303,75;11807,201;  174,368;30857,002;37,91341
 304,35;12054,240;  166,830;31103,257;38,42528
 304,94;12045,202;  179,138;31040,448;38,44965
 305,54;12172,799;  201,215;31020,913;38,84394
 306,13;12046,953;  164,984;31012,753;38,51808
 306,73;12030,995;  168,138;30770,960;38,76393
 307,33;12072,900;  192,369;30714,351;38,92451
 307,92;12144,967;  185,061;30785,136;39,08456
 308,52;12299,597;  165,830;31199,806;39,09833
 309,11;12492,699;  172,137;31705,231;39,07184
 309,71;12620,290;  168,599;31935,792;39,19670
 310,30;12758,100;  160,061;32195,179;39,32572
 310,90;12896,715;  198,061;32541,025;39,26250
 311,49;12902,288;  179,214;32617,051;39,22294
 312,09;12988,338;  152,599;32789,355;39,32909
 312,68;13199,688;  218,291;33185,330;39,37690
 313,28;13211,274;  159,907;33317,674;39,36142
 313,87;13193,475;  153,830;33457,421;39,15387
 314,47;13307,387;  169,214;33719,073;39,16014
 315,06;13316,329;  155,291;33846,369;39,06387
 315,66;13411,646;  156,061;33991,278;39,17689
 316,25;13274,737;  145,291;34000,199;38,78151
 316,85;13213,316;  140,215;34012,972;38,59474
 317,44;13262,269;  163,445;34187,697;38,49849
 318,04;13196,907;  154,368;34156,383;38,35814
 318,63;13094,775;  146,292;34237,622;37,98175
 319,22;13166,999;  171,445;34452,357;37,90901
 319,82;13068,034;  162,137;34418,304;37,67467
 320,41;12967,173;  181,214;34371,699;37,39625
 321,01;12907,484;  184,907;34386,656;37,19861
 321,60;12910,494;  176,214;34477,630;37,12465
 322,20;12736,350;  164,599;34382,000;36,74081
 322,79;12685,955;  198,368;34501,800;36,40332
 323,39;12668,451;  170,907;34565,974;36,33528
 323,98;12539,876;  149,522;34508,529;36,06144
 324,58;12416,839;  154,368;34408,391;35,79863
 325,17;12317,439;  176,599;34190,879;35,69336
 325,76;12161,333;  187,830;34036,681;35,37344
 326,36;11933,374;  143,368;33626,517;35,21176
 326,95;11821,130;  193,753;33357,126;35,06090
 327,55;11578,661;  148,676;32972,948;34,82175
 328,14;11339,982;  161,292;32580,644;34,48154
 328,74;11138,756;  189,830;32167,636;34,23914
 329,33;10961,309;  178,907;31731,391;34,17291
 329,92;10672,467;  156,214;31253,788;33,81696
 330,52;10349,167;  173,753;30573,956;33,47153
 331,11;10168,890;  171,445;30177,215;33,31841
 331,71; 9870,138;  165,522;29557,766;33,01761
 332,30; 9680,817;  177,445;29149,371;32,80200
 332,89; 9482,728;  213,984;28628,725;32,61949
 333,49; 9164,910;  187,907;28086,942;32,17675
 334,08; 9015,804;  175,368;27697,286;32,12144
 334,68; 8698,760;  180,907;27293,964;31,41605
 335,27; 8560,120;  186,215;26952,612;31,28514
 335,86; 8430,582;  224,753;26641,446;31,06304
 336,46; 8260,195;  181,061;26461,399;30,74213
 337,05; 8085,714;  171,599;26265,353;30,32954
 337,65; 7963,924;  153,291;26054,626;30,15533
 338,24; 7906,536;  213,907;26069,851;29,75188
 338,83; 7848,831;  192,984;25957,438;29,71477
 339,43; 7759,428;  167,984;25897,909;29,50434
 340,02; 7649,485;  162,291;25866,857;29,12788
 340,61; 7569,472;  170,138;25836,938;28,82842
 341,21; 7490,526;  208,137;25858,636;28,39083
 341,80; 7437,167;  175,368;25826,808;28,30952
 342,40; 7440,386;  170,292;25890,158;28,26645
 342,99; 7304,575;  165,445;25947,187;27,69064
 343,58; 7304,925;  177,368;26189,622;27,40076
 344,18; 7285,681;  195,522;26373,073;27,08488
 344,77; 7267,068;  164,599;26529,948;26,93865
 345,36; 7295,592;  148,676;26879,818;26,73629
 345,96; 7318,792;  201,984;27219,638;26,34133
 346,55; 7271,989;  151,369;27427,300;26,10587
 347,14; 7257,880;  152,907;27772,144;25,72473
 347,74; 7267,386;  143,292;28192,844;25,39825
 348,33; 7422,159;  164,677;28854,944;25,29597
 348,92; 7484,079;  178,061;29402,688;24,99952
 349,52; 7519,393;  140,215;29849,887;24,83763
 350,11; 7520,774;  175,907;30115,958;24,53191
 350,70; 7488,285;  167,061;30103,798;24,45565
 351,29; 7366,182;  160,291;29828,098;24,28859
 351,89; 7268,534;  176,983;29840,031;23,90702
 352,48; 7225,560;  155,215;29908,351;23,76336
 353,07; 7150,415;  174,599;29796,583;23,54946
 353,67; 7047,230;  189,215;29796,109;23,16358
 354,26; 6947,737;  164,676;29465,729;23,14955
 354,85; 6865,810;  173,907;29381,496;22,91152
 355,45; 6748,005;  158,830;29187,341;22,69898
 356,04; 6668,710;  168,753;29179,958;22,40499
 356,63; 6623,283;  200,676;28979,836;22,31687
 357,22; 6495,932;  176,675;28835,197;22,05018
 357,82; 6375,122;  173,829;28527,954;21,87087
 358,41; 6361,246;  190,291;28522,847;21,78044
 359,00; 6242,977;  155,907;28267,802;21,65301
 359,60; 6171,217;  174,676;28241,266;21,36541
 360,19; 6098,971;  174,292;28045,826;21,25710
 360,78; 6033,903;  177,984;27864,379;21,15089
 361,37; 5925,715;  169,061;27730,181;20,88687
 361,97; 5885,655;  169,676;27624,442;20,81962
 362,56; 5764,104;  167,753;27299,264;20,62676
 363,15; 5717,344;  202,830;27001,114;20,57786
 363,74; 5589,210;  174,291;26660,845;20,44403
 364,34; 5516,692;  194,291;26339,415;20,35715
 364,93; 5359,095;  163,291;25935,873;20,16020
 365,52; 5266,890;  141,445;25588,830;20,14134
 366,11; 5173,988;  173,599;25238,079;19,95010
 366,71; 5100,845;  160,907;24896,203;19,97121
 367,30; 5040,185;  173,522;24575,417;19,94379
 367,89; 4963,371;  207,215;24348,725;19,70115
 368,48; 4829,912;  182,291;24090,525;19,43942
 369,07; 4765,901;  178,138;23657,413;19,53963
 369,67; 4698,646;  203,291;23383,363;19,39319
 370,26; 4637,141;  163,445;23103,863;19,50137
 370,85; 4559,802;  177,137;22920,245;19,27030
 371,44; 4511,820;  163,214;22611,778;19,37142
 372,03; 4443,319;  151,907;22418,770;19,27264
 372,63; 4420,877;  141,984;22051,743;19,52962
 373,22; 4339,628;  162,368;21824,363;19,28382
 373,81; 4263,099;  140,907;21614,122;19,19690
 374,40; 4228,531;  153,522;21310,691;19,26065
 374,99; 4180,443;  157,753;21122,573;19,18781
 375,59; 4121,621;  163,061;20765,855;19,21371
 376,18; 4146,541;  191,522;20688,377;19,29573
 376,77; 4119,950;  184,368;20538,952;19,33511
 377,36; 4116,231;  194,599;20427,029;19,38290
 377,95; 4059,163;  181,291;20167,268;19,40296
 378,55; 4004,945;  164,907;19976,041;19,38323
 379,14; 4029,374;  177,522;19901,675;19,52861
 379,73; 4011,249;  165,676;19853,332;19,53292
 380,32; 4022,973;  183,984;19873,181;19,49795
 380,91; 3978,878;  159,676;19667,575;19,57772
 381,50; 4009,455;  181,137;19730,834;19,58249
 382,10; 3988,281;  165,599;19588,104;19,68171
 382,69; 3995,880;  153,061;19536,843;19,82492
 383,28; 4031,881;  185,214;19485,519;19,93060
 383,87; 3998,552;  170,599;19354,118;19,95438
 384,46; 4010,605;  156,599;19303,219;20,12891
 385,05; 4042,598;  194,368;19336,249;20,10372
 385,64; 4052,065;  173,984;19253,926;20,32544
 386,24; 4034,979;  151,214;19260,693;20,32376
 386,83; 4125,158;  185,676;19307,347;20,60219
 387,42; 4175,613;  185,907;19437,221;20,72433
 388,01; 4221,307;  175,906;19692,501;20,72801
 388,60; 4312,503;  180,060;19935,642;20,91785
 389,19; 4355,210;  162,521;20071,470;21,05932
 389,78; 4430,215;  163,137;20300,531;21,18983
 390,37; 4615,912;  226,829;20795,837;21,33833
 390,96; 4627,057;  171,983;20851,213;21,54371
 391,56; 4697,965;  182,136;20980,634;21,71228
 392,15; 4798,365;  156,367;21348,835;21,90400
 392,74; 4837,930;  147,059;21537,383;21,92987
 393,33; 4988,199;  167,290;21800,272;22,28499
 393,92; 5084,506;  173,905;22148,280;22,34694
 394,51; 5151,662;  169,367;22328,946;22,48370
 395,10; 5276,134;  191,212;22592,145;22,69960
 395,69; 5335,248;  172,828;22659,440;22,95775
 396,28; 5429,228;  187,828;22780,161;23,19991
 396,87; 5485,138;  175,366;22794,544;23,47465
 397,46; 5538,968;  191,750;22963,056;23,48226
 398,06; 5675,838;  198,596;23203,119;23,80941
 398,65; 5669,489;  184,672;23227,508;23,80270
 399,24; 5740,340;  204,056;23470,283;23,79536
 399,83; 5843,395;  175,516;23419,733;24,38404
 400,42; 5929,943;  203,053;23563,588;24,51523
 401,01; 6006,232;  185,975;23697,214;24,75521
 401,60; 6056,060;  194,281;23692,232;24,94591
 402,19; 6108,237;  220,049;23599,757;25,18504
 402,78; 6191,213;  222,354;23670,337;25,45575
 403,37; 6139,013;  208,967;23485,360;25,47666
 403,96; 6199,166;  200,734;23392,403;25,86460
 404,55; 6203,268;  220,577;23298,760;25,92358
 405,14; 6202,082;  199,113;23194,704;26,10487
 405,73; 6232,914;  215,417;23072,266;26,32689
 406,32; 6302,911;  222,569;22959,260;26,74242
 406,91; 6238,529;  202,028;22680,458;26,85464
 407,50; 6262,670;  215,873;22530,604;27,09778
 408,09; 6219,802;  186,103;22248,987;27,34773
 408,68; 6282,120;  196,641;22130,582;27,74458
 409,27; 6271,533;  186,488;21935,551;27,97842
 409,86; 6296,808;  200,644;21860,399;28,14512
 410,45; 6363,285;  232,645;21774,441;28,45928
 411,04; 6384,615;  236,801;21640,738;28,72282
 411,63; 6350,595;  213,187;21399,610;28,96859
 412,22; 6364,273;  217,574;21270,990;29,19574
 412,81; 6333,017;  222,959;20933,498;29,50217
 413,40; 6258,601;  249,652;20594,959;29,53481
 413,99; 6300,415;  267,960;20389,882;29,97952
 414,58; 6148,488;  208,498;19983,338;30,03812
 415,17; 6119,676;  208,267;19843,761;30,10573
 415,76; 6121,532;  205,343;19646,204;30,43172
 416,35; 6123,950;  194,882;19356,030;30,94318
 416,94; 6205,320;  229,805;19554,581;30,92152
 417,53; 6320,803;  215,190;19687,836;31,35482
 418,12; 6342,645;  206,036;19787,445;31,33895
 418,71; 6564,521;  232,114;20191,765;31,72604
 419,30; 6606,606;  216,652;20276,876;31,85385
 419,89; 6712,318;  203,267;20467,311;32,12118
 420,48; 6837,268;  235,114;20775,844;32,14177
 421,07; 6921,332;  229,729;20800,062;32,53036
 421,66; 6976,198;  200,037;20766,724;32,94726
 422,25; 7040,132;  203,115;20757,681;33,26277
 422,84; 7110,261;  231,500;20748,871;33,52652
 423,43; 7034,312;  220,500;20404,088;33,75917
 424,02; 7020,068;  234,961;20179,384;34,02007
 424,60; 6908,296;  206,578;19787,501;34,22576
 425,19; 6856,711;  222,654;19548,224;34,32787
 425,78; 6890,168;  240,654;19501,989;34,52260
 426,37; 6882,733;  236,039;19304,849;34,85636
 426,96; 6872,392;  219,193;19247,266;34,96517
 427,55; 6835,479;  211,116;19035,553;35,19023
 428,14; 6834,415;  206,501;18860,636;35,53053
 428,73; 6804,474;  228,501;18686,169;35,62733
 429,32; 6879,573;  231,962;18637,883;36,11670
 429,91; 6892,934;  247,116;18703,205;36,00881
 430,50; 6877,339;  239,732;18496,159;36,35765
 431,08; 6792,723;  252,117;18415,557;36,00973
 431,67; 6893,240;  296,502;18284,691;36,67261
 432,26; 6832,044;  305,502;18077,559;36,72361
 432,85; 6781,742;  340,656;17763,604;36,96898
 433,44; 6672,591;  336,118;17385,023;37,16645
 434,03; 6577,121;  348,349;17082,008;37,22301
 434,62; 6425,061;  307,425;16701,952;37,31511
 435,21; 6407,156;  328,040;16469,644;37,66116
 435,79; 6385,961;  331,041;16336,814;37,82960
 436,38; 6377,723;  313,734;16279,858;37,98034
 436,97; 6355,816;  312,041;16185,273;38,07526
 437,56; 6307,393;  311,273;15964,310;38,30643
 438,15; 6294,134;  279,273;15853,253;38,62122
 438,74; 6382,413;  296,965;15926,346;38,93595
 439,33; 6372,531;  265,965;15886,494;39,09321
 439,91; 6424,757;  228,581;15945,350;39,42398
 440,50; 6502,336;  284,196;16038,265;39,47006
 441,09; 6600,203;  278,197;16137,216;39,86379
 441,68; 6570,399;  268,735;16097,048;39,81260
 442,27; 6587,271;  249,658;16117,378;39,94028
 442,86; 6604,623;  232,505;16092,763;40,17664
 443,44; 6661,309;  240,351;16162,261;40,32781
 444,03; 6736,116;  298,198;16223,997;40,42446
 444,62; 6659,567;  244,351;16069,566;40,53794
 445,21; 6662,609;  251,659;15914,696;40,93044
 445,80; 6654,392;  284,890;15782,390;41,10019
 446,39; 6586,959;  290,429;15504,817;41,38537
 446,97; 6456,967;  245,814;15352,756;41,11456
 447,56; 6422,438;  247,583;15120,833;41,51651
 448,15; 6364,144;  243,660;14991,139;41,50190
 448,74; 6312,689;  266,429;14672,104;41,97137
 449,33; 6227,137;  235,276;14587,031;41,75002
 449,91; 6166,030;  246,815;14400,616;41,82067
 450,50; 6140,752;  242,430;14179,487;42,32115
 451,09; 6086,791;  255,276;14091,361;42,14715
 451,68; 6085,049;  268,969;13991,513;42,38340
 452,26; 6076,778;  267,507;13882,268;42,66892
 452,85; 6036,163;  251,199;13837,578;42,57914
 453,44; 6054,153;  267,277;13788,136;42,79961
 454,03; 6048,063;  239,354;13776,037;42,91088
 454,61; 6070,423;  236,662;13755,146;43,15396
 455,20; 6166,405;  273,816;13940,687;43,11586
 455,79; 6190,954;  268,662;13927,663;43,35817
 456,38; 6211,881;  268,739;14007,442;43,25839
 456,97; 6285,703;  252,124;14070,310;43,66405
 457,55; 6285,262;  250,047;14089,802;43,60782
 458,14; 6350,425;  276,585;14042,968;44,12081
 458,73; 6284,533;  255,355;14008,120;43,83976
 459,31; 6374,951;  288,278;14014,715;44,34270
 459,90; 6374,672;  290,509;14131,760;43,95675
 460,49; 6470,715;  334,432;14244,717;44,11328
 461,08; 6484,418;  264,971;14325,004;44,23494
 461,66; 6541,150;  267,586;14367,019;44,49515
 462,25; 6564,853;  270,971;14422,905;44,47366
 462,84; 6614,612;  297,202;14494,938;44,49590
 463,43; 6573,212;  226,971;14407,032;44,75468
 464,01; 6586,570;  261,125;14470,259;44,51675
 464,60; 6614,708;  299,894;14402,292;44,77830
 465,19; 6517,022;  242,972;14172,423;45,04162
 465,77; 6470,905;  269,972;14117,024;44,78161
 466,36; 6450,146;  281,433;13996,694;44,97700
 466,95; 6324,757;  256,356;13737,152;45,01516
 467,53; 6206,797;  275,203;13416,862;45,13581
 468,12; 6138,308;  284,434;13175,399;45,41068
 468,71; 6003,776;  266,895;12915,296;45,35657
 469,29; 5840,787;  249,511;12695,642;44,92381
 469,88; 5780,366;  266,357;12500,496;45,07067
 470,47; 5876,522;  329,280;12548,915;45,39613
 471,06; 5800,180;  272,819;12534,273;45,07916
 471,64; 5865,243;  281,280;12691,803;44,99378
 472,23; 5857,896;  242,896;12681,781;45,14070
 472,81; 5882,453;  253,050;12749,243;45,04894
 473,40; 5972,752;  261,127;13004,846;44,81914
 473,99; 6143,235;  346,281;13160,323;45,23907
 474,57; 6146,402;  259,742;13250,487;45,31426
 475,16; 6178,523;  274,742;13372,506;45,07473
 475,75; 6255,577;  290,281;13477,287;45,23616
 476,33; 6319,464;  292,666;13553,813;45,44703
 476,92; 6328,373;  300,973;13603,829;45,30906
 477,51; 6435,299;  285,666;13671,153;45,94254
 478,09; 6384,804;  272,974;13702,109;45,51172
 478,68; 6343,256;  289,666;13595,350;45,49627
 479,27; 6409,531;  311,435;13701,522;45,54187
 479,85; 6398,763;  287,281;13703,038;45,55451
 480,44; 6436,839;  276,974;13868,131;45,32260
 481,02; 6994,873;  281,051;15608,402;43,80288
 481,61; 7882,289;  310,897;17388,639;44,33485
 482,20; 8422,004;  305,436;18436,789;44,76538
 482,78; 8792,129;  331,512;19187,657;44,86928
 483,37; 9069,158;  327,205;19643,013;45,25802
 483,95; 9255,536;  357,975;20013,353;45,26782
 484,54; 9311,403;  370,974;20144,321;45,21454
 485,13; 9257,212;  337,667;20034,163;45,28493
 485,71; 9130,684;  317,975;19790,230;45,25777
 486,30; 9078,573;  351,898;19542,570;45,47353
 486,88; 8935,082;  393,436;19107,604;45,64267
 487,47; 8595,669;  376,898;18360,869;45,70053
 488,05; 8178,678;  358,129;17495,548;45,63435
 488,64; 7639,511;  349,283;16059,475;46,40445
 489,23; 6877,837;  355,591;14183,165;47,16840
 489,81; 5908,445;  354,283;12316,831;46,42959
 490,40; 5550,736;  320,822;11823,952;45,46514
 490,98; 5457,264;  299,745;11561,827;45,79543
 491,57; 5390,460;  322,129;11500,035;45,34240
 492,15; 5351,798;  309,822;11427,977;45,34904
 492,74; 5289,533;  312,667;11319,477;45,21625
 493,32; 5261,420;  325,514;11206,867;45,36114
 493,91; 5207,599;  296,591;11161,517;45,20056
 494,50; 5242,544;  317,207;11123,602;45,57798
 495,08; 5160,777;  292,822;11050,719;45,25005
 495,67; 5188,097;  317,283;11013,507;45,53769
 496,25; 5063,248;  255,130;10847,096;45,39401
 496,84; 5095,956;  280,283;10870,055;45,47475
 497,42; 5036,712;  264,899;10808,134;45,25947
 498,01; 5045,280;  278,206;10786,547;45,36466
 498,59; 5000,982;  246,668;10711,606;45,43089
 499,18; 4963,794;  249,899;10642,047;45,36016
 499,76; 4973,302;  282,437;10534,406;45,75575
 500,35; 4849,412;  272,361;10382,539;45,27171
 500,93; 4828,746;  245,361;10380,776;45,22149
 501,52; 4801,544;  261,284;10274,065;45,34464
 502,10; 4794,515;  270,438;10250,171;45,33264
 502,69; 4684,906;  255,900;10120,749;44,89684
 503,27; 4638,740;  234,207; 9897,576;45,57968
 503,86; 4584,671;  250,669; 9860,824;45,09814
 504,44; 4491,942;  227,438; 9778,525;44,64941
 505,03; 4420,876;  219,361; 9540,802;45,07366
 505,61; 4362,662;  238,515; 9417,662;44,92952
 506,19; 4321,086;  256,054; 9241,075;45,24232
 506,78; 4186,328;  230,362; 9085,577;44,67385
 507,36; 4105,471;  229,361; 8926,057;44,56992
 507,95; 4091,808;  234,900; 8738,415;45,35662
 508,53; 3998,878;  237,516; 8704,375;44,42453
 509,12; 3933,450;  247,054; 8504,879;44,64125
 509,70; 3876,530;  262,439; 8391,822;44,45714
 510,29; 3799,503;  257,670; 8187,741;44,66333
 510,87; 3691,472;  233,131; 8085,205;44,04366
 511,46; 3652,805;  226,131; 7883,685;44,74894
 512,04; 3575,239;  242,285; 7748,083;44,40506
 512,62; 3488,464;  245,054; 7648,102;43,81182
 513,21; 3423,084;  224,208; 7429,407;44,39677
 513,79; 3360,682;  227,824; 7325,385;44,13993
 514,38; 3277,161;  210,747; 7153,170;44,16922
 514,96; 3252,560;  253,824; 7072,624;43,97748
 515,54; 3162,483;  221,670; 6956,391;43,66644
 516,13; 3144,655;  246,824; 6858,308;43,83027
 516,71; 3067,964;  240,901; 6759,824;43,36703
 517,30; 3022,166;  215,132; 6655,856;43,58258
 517,88; 3010,915;  245,978; 6549,899;43,86058
 518,46; 2912,257;  216,825; 6445,769;43,27270
 519,05; 2899,429;  222,517; 6391,915;43,39017
 519,63; 2888,898;  237,056; 6323,787;43,56760
 520,22; 2855,604;  249,979; 6288,022;43,15347
 520,80; 2819,271;  242,287; 6198,368;43,26644
 521,38; 2846,701;  262,748; 6200,291;43,51890
 521,97; 2760,751;  221,595; 6142,052;42,88785
 522,55; 2760,027;  241,133; 6160,067;42,55655
 523,13; 2743,444;  231,441; 6158,127;42,38461
 523,72; 2709,390;  233,517; 6114,658;42,09852
 524,30; 2801,387;  254,210; 6244,255;42,52350
 524,89; 2766,496;  228,672; 6275,014;41,97288
 525,47; 2849,985;  241,826; 6379,471;42,49445
 526,05; 2855,552;  217,210; 6445,512;42,36054
 526,64; 2900,873;  246,672; 6579,212;41,91369
 527,22; 2927,238;  241,133; 6699,623;41,59029
 527,80; 3025,358;  272,749; 6847,730;41,86490
 528,39; 3016,951;  234,364; 6929,961;41,55846
 528,97; 3075,815;  245,057; 7088,668;41,36351
 529,55; 3141,389;  251,749; 7287,682;41,06975
 530,14; 3228,064;  262,288; 7408,121;41,50358
 530,72; 3255,858;  245,518; 7543,700;41,24780
 531,30; 3313,577;  228,134; 7703,083;41,27712
 531,89; 3336,479;  237,903; 7794,836;41,00309
 532,47; 3396,328;  267,442; 7893,471;41,02904
 533,05; 3392,007;  268,595; 7934,621;40,74357
 533,63; 3393,775;  278,595; 7979,036;40,45456
 534,22; 3419,653;  250,365; 7972,022;41,04415
 534,80; 3461,093;  262,442; 8099,771;40,81303
 535,38; 3552,662;  341,672; 8203,953;40,84044
 535,97; 3448,855;  266,903; 8173,981;40,24182
 536,55; 3515,233;  305,211; 8254,394;40,38179
 537,13; 3441,217;  323,441; 8215,447;39,50549
 537,71; 3488,395;  373,903; 8254,101;39,52302
 538,30; 3550,206;  386,826; 8350,242;39,72390
 538,88; 3565,074;  432,134; 8478,329;38,93691
 539,46; 3711,753;  498,826; 8667,939;39,33018
 540,05; 3719,323;  527,519; 8820,864;38,48633
 540,63; 3814,322;  572,519; 8990,574;38,51012
 541,21; 3851,792;  614,673; 9193,347;37,73449
 541,79; 3927,771;  671,058; 9311,562;37,69124
 542,38; 4000,579;  689,519; 9445,133;37,81642
 542,96; 4072,786;  693,058; 9619,609;37,86153
 543,54; 4079,444;  719,596; 9836,509;36,85291
 544,12; 4155,745;  681,058; 9928,388;37,57503
 544,70; 4180,301;  661,365;10039,321;37,52348
 545,29; 4189,248;  673,673;10246,750;36,72357
 545,87; 4184,155;  633,596;10184,716;37,17427
 546,45; 4179,097;  591,365;10217,022;37,27259
 547,03; 4148,580;  572,981;10300,497;36,75758
 547,62; 4187,636;  518,211;10439,230;36,98637
 548,20; 4214,129;  521,442;10550,924;36,81832
 548,78; 4244,294;  485,058;10661,424;36,94085
 549,36; 4283,837;  440,827;10878,890;36,81727
 549,94; 4264,510;  396,904;10967,230;36,58928
 550,53; 4358,020;  394,597;11243,548;36,53278
 551,11; 4392,660;  366,597;11426,754;36,40150
 551,69; 4498,904;  372,443;11750,056;36,26825
 552,27; 4543,107;  335,750;11965,538;36,17742
 552,85; 4637,770;  339,828;12399,722;35,63831
 553,44; 4765,466;  327,827;12632,746;36,06394
 554,02; 4862,283;  348,520;12991,011;35,70311
 554,60; 4946,932;  283,751;13303,900;35,81511
 555,18; 5124,585;  337,674;13660,566;35,92997
 555,76; 5223,909;  296,751;14025,058;35,89050
 556,34; 5335,399;  319,982;14440,574;35,51846
 556,93; 5472,924;  292,827;14817,570;35,66395
 557,51; 5550,079;  272,828;15124,930;35,53202
 558,09; 5718,891;  311,674;15550,738;35,48261
 558,67; 5786,186;  301,982;15980,181;34,97981
 559,25; 5903,315;  313,905;16151,376;35,29232
 559,83; 5928,648;  293,366;16481,564;34,81105
 560,41; 6046,778;  286,058;16862,821;34,75178
 561,00; 6191,593;  297,982;17133,505;35,00700
 561,58; 6211,516;  280,597;17395,894;34,65274
 562,16; 6287,077;  271,904;17779,125;34,35824
 562,74; 6365,930;  263,827;18061,689;34,28560
 563,32; 6471,528;  258,366;18555,839;33,95639
 563,90; 6615,890;  285,982;18895,612;34,01415
 564,48; 6744,003;  285,751;19333,837;33,90499
 565,06; 6881,387;  280,289;19947,851;33,56337
 565,65; 7075,803;  292,059;20622,618;33,36723
 566,23; 7305,856;  322,520;21339,029;33,22786
 566,81; 7459,580;  278,059;22097,728;32,91306
 567,39; 7740,621;  294,136;22907,408;32,92971
 567,97; 7914,158;  308,982;23588,507;32,66895
 568,55; 8174,210;  321,982;24428,159;32,57351
 569,13; 8375,536;  289,366;25136,232;32,54402
 569,71; 8638,726;  276,135;26086,631;32,39996
 570,29; 8916,024;  326,443;27122,260;32,05568
 570,87; 9186,510;  312,058;27695,989;32,40752
 571,45; 9290,254;  314,443;28347,347;32,01884
 572,03; 9425,023;  282,828;28732,112;32,13506
 572,61; 9610,156;  274,520;29528,849;31,91198
 573,20; 9854,781;  299,828;30153,456;32,00600
 573,78;10005,616;  293,828;30820,809;31,81378
 574,36;10138,061;  312,213;31253,624;31,75630
 574,94;10257,271;  364,213;31533,971;31,73929
 575,52;10239,232;  308,213;31827,474;31,50778
 576,10;10374,529;  363,367;32450,122;31,20029
 576,68;10566,760;  358,290;33028,049;31,24746
 577,26;10677,364;  367,521;33736,551;30,89644
 577,84;10830,432;  385,059;34142,922;30,94205
 578,42;10942,879;  422,905;34469,867;30,89842
 579,00;10840,703;  361,905;34548,932;30,65139
 579,58;10919,633;  415,982;34727,896;30,61226
 580,16;10815,402;  384,905;34758,278;30,34470
 580,74;10858,323;  384,213;34964,545;30,28921
 581,32;10788,179;  389,059;35108,920;29,95150
 581,90;10840,733;  427,444;35079,815;30,05073
 582,48;10759,182;  405,982;35241,094;29,72059
 583,06;10740,478;  412,982;35258,837;29,63766
 583,64;10736,711;  409,520;35402,877;29,51186
 584,22;10678,073;  424,675;35244,258;29,44722
 584,80;10519,406;  423,982;34992,377;29,20420
 585,38;10379,532;  435,443;34555,309;29,14457
 585,96;10329,534;  392,059;34740,574;28,93131
 586,54;10259,034;  421,829;34710,153;28,68967
 587,12;10274,714;  387,290;34850,896;28,68947
 587,70;10282,224;  416,751;35114,610;28,43251
 588,28;10235,902;  390,290;35095,402;28,36934
 588,86;10250,918;  391,059;35225,047;28,30528
 589,44;10182,043;  386,290;35307,462;28,05104
 590,02;10246,358;  375,059;35498,642;28,10448
 590,59;10238,211;  368,367;35700,997;27,93408
 591,17;10248,860;  359,291;35892,185;27,83215
 591,75;10220,449;  353,983;35999,092;27,67972
 592,33;10261,183;  364,675;36339,778;27,50932
 592,91;10237,197;  315,906;36533,304;27,39372
 593,49;10322,941;  327,598;36828,725;27,38366
 594,07;10340,964;  342,521;37042,569;27,24368
 594,65;10283,449;  354,598;37044,483;27,06155
 595,23;10303,513;  339,367;37404,855;26,88254
 595,81;10328,858;  345,060;37547,997;26,83605
 596,39;10298,988;  324,598;37683,478;26,69885
 596,97;10297,252;  328,598;37855,211;26,56423
 597,55;10206,255;  325,213;37711,778;26,42939
 598,12;10176,440;  314,291;37800,790;26,30854
 598,70;10125,554;  310,214;38006,764;26,03777
 599,28;10110,510;  331,137;38069,134;25,91386
 599,86;10066,831;  315,598;38174,991;25,75644
 600,44;10021,219;  282,906;38262,318;25,64103
 601,02;10080,075;  340,368;38274,454;25,67534
 601,60; 9956,580;  310,598;38211,478;25,45055
 602,18; 9914,310;  296,983;38197,924;25,37490
 602,75; 9887,244;  294,983;38376,806;25,18856
 603,33; 9852,993;  306,598;38291,535;25,13205
 603,91; 9775,879;  300,445;38330,559;24,91561
 604,49; 9754,245;  326,521;38431,723;24,74130
 605,07; 9654,560;  334,060;38389,059;24,49218
 605,65; 9747,908;  364,983;38516,296;24,59398
 606,23; 9764,665;  413,675;38688,742;24,43102
 606,80; 9731,607;  480,983;38775,483;24,15654
 607,38; 9687,641;  527,522;38761,132;23,95829
 607,96; 9681,245;  578,444;38960,250;23,71645
 608,54; 9722,732;  643,829;38955,049;23,69777
 609,12; 9663,024;  664,521;39056,084;23,43875
 609,70; 9662,129;  711,598;39105,464;23,31240
 610,27; 9636,589;  707,752;39194,796;23,19959
 610,85; 9612,866;  728,060;39233,460;23,07418
 611,43; 9577,851;  725,060;39176,948;23,02303
 612,01; 9366,035;  691,367;38928,974;22,68622
 612,59; 9416,426;  683,675;38959,187;22,81550
 613,16; 9303,018;  643,213;38847,966;22,66683
 613,74; 9284,795;  613,137;38764,905;22,72937
 614,32; 9165,204;  549,214;38724,268;22,56969
 614,90; 9100,302;  499,829;38549,519;22,60327
 615,48; 8962,881;  453,290;38134,209;22,58329
 616,05; 8927,318;  407,290;38243,788;22,51801
 616,63; 8793,908;  421,982;37956,906;22,30436
 617,21; 8727,732;  411,290;37898,211;22,18492
 617,79; 8669,954;  385,213;37770,203;22,16061
 618,36; 8618,384;  404,137;37711,889;22,01754
 618,94; 8449,835;  337,213;37384,847;21,89781
 619,52; 8416,828;  370,367;37017,883;21,95636
 620,10; 8350,617;  356,290;37089,547;21,76319
 620,67; 8258,556;  358,982;36973,199;21,57515
 621,25; 8225,954;  374,137;36797,816;21,55690
 621,83; 8139,307;  358,444;36743,509;21,38477
 622,41; 8183,507;  398,136;36802,043;21,38608
 622,98; 8039,393;  365,675;36487,673;21,24389
 623,56; 7971,605;  363,444;36488,987;21,06034
 624,14; 7944,199;  337,675;36356,652;21,11810
 624,72; 7827,725;  335,675;36237,323;20,86826
 625,29; 7838,176;  327,521;36403,126;20,81921
 625,87; 7788,976;  367,752;36321,989;20,64075
 626,45; 7700,434;  319,674;36112,744;20,62064
 627,02; 7643,501;  316,983;36082,363;20,48495
 627,60; 7569,164;  314,829;36020,701;20,31693
 628,18; 7570,409;  303,752;36171,391;20,25965
 628,76; 7503,544;  305,675;36192,786;20,05698
 629,33; 7510,358;  340,059;36113,721;20,04351
 629,91; 7436,540;  325,598;36022,547;19,92031
 630,49; 7467,264;  328,444;36232,402;19,88310
 631,06; 7488,707;  326,675;36390,638;19,85925
 631,64; 7403,662;  319,059;36324,626;19,67641
 632,22; 7295,959;  274,597;36382,197;19,44566
 632,79; 7335,222;  322,059;36485,337;19,39305
 633,37; 7311,254;  297,675;36621,177;19,30865
 633,95; 7238,050;  288,136;36675,495;19,09980
 634,52; 7255,056;  276,675;36730,705;19,14296
 635,10; 7230,037;  289,367;36741,786;19,04036
 635,68; 7179,893;  286,828;36947,244;18,80247
 636,25; 7138,041;  276,905;36915,262;18,72665
 636,83; 7163,621;  262,213;37121,017;18,72391
 637,41; 7159,953;  274,674;37206,001;18,64346
 637,98; 7157,976;  306,444;37369,365;18,48622
 638,56; 7135,959;  293,213;37423,894;18,42882
 639,13; 7080,372;  268,982;37536,408;18,27706
 639,71; 7145,530;  313,367;37616,102;18,31545
 640,29; 6952,230;  249,290;37483,827;18,00194
 640,86; 7022,985;  263,829;37608,175;18,09955
 641,44; 6946,356;  257,059;37643,369;17,89237
 642,02; 6939,804;  290,675;37552,947;17,84413
 642,59; 6914,252;  267,752;37784,833;17,71593
 643,17; 6891,238;  268,213;37738,797;17,67526
 643,74; 6852,455;  268,521;37719,375;17,58020
 644,32; 6846,671;  289,675;37727,185;17,51451
 644,89; 6776,888;  287,444;37749,917;17,32252
 645,47; 6785,567;  293,136;37742,649;17,33649
 646,05; 6770,937;  283,444;37635,997;17,36827
 646,62; 6667,847;  279,444;37705,499;17,06940
 647,20; 6680,833;  280,829;37790,001;17,06250
 647,77; 6584,357;  255,598;37644,271;16,92694
 648,35; 6607,805;  250,906;37527,465;17,05334
 648,92; 6553,637;  279,367;37684,429;16,77385
 649,50; 6522,316;  250,906;37519,623;16,82755
 650,08; 6444,148;  245,444;37436,201;16,66732
 650,65; 6421,519;  250,059;37720,164;16,47036
 651,23; 6527,736;  235,367;38578,204;16,41081
 651,80; 6667,260;  252,213;39453,014;16,36458
 652,38; 6693,093;  268,521;39722,439;16,28374
 652,95; 6716,771;  226,752;40098,709;16,27715
 653,53; 6733,757;  258,290;40364,211;16,14591
 654,10; 6788,282;  281,444;40538,482;16,16323
 654,68; 6704,729;  244,675;40444,676;16,06979
 655,25; 6666,023;  239,213;40461,716;15,97814
 655,83; 6654,778;  228,136;40508,141;15,95492
 656,40; 6632,149;  271,598;40445,104;15,83270
 656,98; 6556,289;  254,136;40318,683;15,73000
 657,55; 6584,506;  246,829;40238,184;15,84762
 658,13; 6461,261;  248,060;39854,147;15,68749
 658,70; 6437,248;  253,521;39571,803;15,72736
 659,28; 6235,695;  246,060;38705,305;15,57398
 659,85; 6076,835;  262,675;37995,652;15,40870
 660,43; 6043,667;  272,213;38124,539;15,24729
 661,00; 6076,423;  257,675;38183,887;15,34229
 661,58; 6063,793;  241,060;38596,927;15,18082
 662,15; 6079,780;  242,598;38731,659;15,16582
 662,73; 6127,920;  301,983;39005,930;15,05257
 663,30; 6125,829;  253,367;39203,816;15,07675
 663,88; 6117,584;  256,060;39421,702;14,96599
 664,45; 6118,570;  244,367;39620,666;14,91812
 665,03; 6177,710;  254,521;39985,937;14,90807
 665,60; 6262,773;  316,214;40520,746;14,79077
 666,17; 6179,682;  254,598;40428,017;14,74877
 666,75; 6186,899;  242,214;40843,288;14,64170
 667,32; 6250,501;  267,829;41217,482;14,60982
 667,90; 6277,487;  245,598;41383,445;14,66263
 668,47; 6276,858;  271,367;41710,177;14,49243
 669,05; 6272,767;  246,675;41959,987;14,44645
 669,62; 6292,138;  232,675;42068,334;14,48397
 670,19; 6233,816;  233,983;42169,990;14,30712
 670,77; 6275,571;  254,214;42304,492;14,31942
 671,34; 6240,711;  242,829;42208,070;14,29250
 671,92; 6294,390;  232,214;42635,572;14,29645
 672,49; 6249,607;  258,368;42667,920;14,12710
 673,06; 6215,747;  202,444;42635,114;14,17140
 673,64; 6209,964;  231,368;42700,461;14,07752
 674,21; 6185,180;  228,137;42609,886;14,05568
 674,79; 6253,013;  249,060;42890,311;14,08015
 675,36; 6232,153;  255,906;42975,966;13,98932
 675,93; 6146,600;  214,368;42917,237;13,89188
 676,51; 6182,279;  257,060;43025,124;13,85431
 677,08; 6193,496;  251,983;43040,702;13,88570
 677,65; 6169,713;  256,752;43272,204;13,74613
 678,23; 6188,314;  252,675;43462,936;13,73664
 678,80; 6173,223;  246,137;43560,438;13,68390
 679,38; 6190,440;  238,214;43675,940;13,70290
 679,95; 6171,195;  255,983;43972,518;13,53084
 680,52; 6200,566;  243,522;44151,789;13,56702
 681,10; 6285,706;  266,445;44679,675;13,55286
 681,67; 6234,385;  258,752;44925,254;13,37833
 682,24; 6224,832;  222,214;44956,371;13,41842
 682,82; 6276,741;  236,829;45528,796;13,33550
 683,39; 6358,035;  280,214;45801,605;13,35157
 683,96; 6329,406;  252,060;46075,414;13,26255
 684,54; 6335,161;  225,060;46441,070;13,22075
 685,11; 6433,917;  270,675;46745,956;13,26133
 685,68; 6458,211;  238,906;47180,458;13,24904
 686,25; 6348,812;  222,445;47207,498;13,03897
 686,83; 6428,106;  225,829;47329,000;13,16743
 687,40; 6454,015;  224,522;47665,886;13,13093
 687,97; 6490,693;  266,599;48162,003;12,99518
 688,55; 6432,141;  221,214;48141,505;12,96095
 689,12; 6452,666;  205,291;48464,929;12,94534
 689,69; 6449,729;  221,676;48479,431;12,90581
 690,26; 6435,407;  241,676;48570,240;12,81588
 690,84; 6440,547;  231,368;48818,896;12,77937
 691,41; 6516,764;  239,599;48830,320;12,91844
 691,98; 6518,442;  240,752;49118,591;12,84363
 692,56; 6509,429;  229,214;49195,785;12,82551
 693,13; 6541,953;  281,137;49234,749;12,78928
 693,70; 6545,170;  247,522;49411,558;12,80946
 694,27; 6516,848;  224,676;49584,367;12,74759
 694,84; 6510,912;  226,599;49660,792;12,71248
 695,42; 6581,898;  276,291;49738,524;12,74833
 695,99; 6528,576;  240,599;50041,565;12,62622
 696,56; 6530,485;  230,983;49822,989;12,70266
 697,13; 6566,087;  251,522;50241,106;12,63176
 697,71; 6511,765;  224,214;50276,993;12,56184
 698,28; 6553,059;  233,368;50717,956;12,51806
 698,85; 6524,891;  210,676;50624,227;12,52484
 699,42; 6531,031;  210,137;50795,728;12,49544
 699,99; 6604,556;  266,753;50976,999;12,49807
 700,57; 6602,696;  247,906;50926,347;12,53943
 701,14; 6579,374;  226,060;51028,464;12,50593
 701,71; 6615,130;  245,445;51214,043;12,49727
 702,28; 6607,885;  243,445;51274,390;12,47173
 702,85; 6620,486;  254,676;51489,815;12,42470
 703,43; 6655,473;  256,291;51675,163;12,44520
 704,00; 6686,382;  276,907;51821,280;12,43487
 704,57; 6636,906;  255,599;51809,012;12,37805
 705,14; 6679,431;  290,830;52136,437;12,32236
 705,71; 6694,571;  281,599;52095,785;12,37687
 706,28; 6647,557;  260,676;52033,056;12,33646
 706,86; 6702,466;  285,368;52219,096;12,35632
 707,43; 6676,991;  317,060;52161,136;12,26742
 708,00; 6643,131;  284,368;52207,869;12,24641
 708,57; 6630,963;  261,984;52063,293;12,29502
 709,14; 6650,411;  291,830;52260,256;12,23547
 709,71; 6661,704;  259,137;52303,527;12,30213
 710,28; 6664,768;  265,676;52506,952;12,24911
 710,86; 6692,215;  276,137;52649,685;12,25061
 711,43; 6710,201;  282,445;52711,955;12,25981
 712,00; 6698,880;  261,984;52665,534;12,28332
 712,57; 6751,943;  282,214;52900,113;12,29568
 713,14; 6700,929;  260,061;52861,153;12,24474
 713,71; 6745,530;  263,522;52892,808;12,31635
 714,28; 6739,055;  250,599;52935,079;12,31569
 714,85; 6712,195;  243,907;52642,965;12,34428
 715,42; 6709,258;  241,753;52961,775;12,26764
 716,00; 6821,783;  301,061;53003,353;12,37275
 716,57; 6786,153;  241,061;53124,316;12,37649
 717,14; 6767,678;  236,368;53061,972;12,36391
 717,71; 6734,510;  220,138;53154,935;12,30641
 718,28; 6804,650;  271,522;53179,821;12,34802
 718,85; 6742,559;  234,830;53209,631;12,28458
 719,42; 6781,315;  237,522;53375,440;12,31473
 719,99; 6772,301;  220,907;53217,326;12,36196
 720,56; 6847,518;  245,753;53485,367;12,40010
 721,13; 6867,581;  226,830;53548,253;12,45419
 721,70; 6833,028;  214,522;53383,601;12,44804
 722,27; 6853,476;  254,984;53449,179;12,40453
 722,84; 6929,847;  290,368;53625,296;12,44865
 723,41; 6858,987;  219,292;53601,952;12,43793
 723,98; 6890,819;  237,984;53809,223;12,41867
 724,55; 6952,190;  271,753;53838,109;12,47133
 725,12; 6860,791;  194,138;53899,611;12,41336
 725,69; 6904,931;  222,599;53996,343;12,42676
 726,27; 6961,687;  238,676;54020,691;12,50048
 726,84; 6982,057;  237,215;54352,962;12,46373
 727,41; 7031,813;  247,599;54325,310;12,54530
 727,98; 7062,030;  253,522;54627,042;12,52173
 728,55; 7125,246;  270,369;54566,774;12,62492
 729,12; 7084,233;  219,830;54591,199;12,62503
 729,69; 7105,526;  273,292;54819,855;12,52551
 730,26; 7168,205;  249,599;54991,972;12,63848
 730,82; 7125,422;  246,676;54801,858;12,60878
 731,39; 7136,792;  243,445;54894,283;12,61343
 731,96; 7195,548;  232,984;55116,169;12,68615
 732,53; 7272,765;  244,215;55468,824;12,72721
 733,10; 7302,751;  258,984;55492,711;12,75266
 733,67; 7329,198;  244,599;55699,751;12,77537
 734,24; 7265,108;  243,676;55432,099;12,72265
 734,81; 7338,401;  270,369;55555,754;12,78463
 735,38; 7246,618;  249,599;55315,256;12,70668
 735,95; 7289,912;  240,676;55056,219;12,85992
 736,52; 7309,514;  263,676;55354,336;12,78953
 737,09; 7263,038;  261,599;54997,838;12,79123
 737,66; 7361,024;  299,369;55233,109;12,85486
 738,23; 7323,549;  250,215;55200,072;12,87234
 738,80; 7431,458;  305,599;55528,573;12,90379
 739,37; 7389,598;  286,523;55690,383;12,82054
 739,94; 7413,277;  251,830;55706,423;12,91407
 740,51; 7519,417;  352,753;55704,078;12,94759
 741,07; 7417,249;  256,292;55709,349;12,91355
 741,64; 7448,235;  285,215;55927,697;12,87329
 742,21; 7471,221;  260,753;55903,353;12,95854
 742,78; 7521,976;  224,523;55704,931;13,15321
 743,35; 7500,270;  256,446;56020,510;12,99013
 743,92; 7608,410;  292,984;56187,781;13,08785
 744,49; 7667,319;  282,984;56069,821;13,23670
 745,06; 7594,613;  246,984;56056,707;13,16550
 745,63; 7591,292;  240,984;56037,055;13,17352
 746,19; 7639,970;  236,753;56016,326;13,27227
 746,76; 7671,341;  263,677;56017,520;13,28637
 747,33; 7665,942;  245,907;56044,021;13,29800
 747,90; 7686,544;  276,446;56258,908;13,23646
 748,47; 7669,838;  260,292;56098,563;13,26965
 749,04; 7729,901;  267,369;56140,065;13,35631
 749,61; 7713,733;  277,446;56087,874;13,32419
 750,17; 7737,873;  273,677;56126,453;13,36406
 750,74; 7750,090;  266,754;56050,339;13,41494
 751,31; 7742,537;  242,677;56038,379;13,44165
 751,88; 7711,370;  237,215;55875,804;13,43340
 752,45; 7809,356;  254,292;55955,306;13,56360
 753,02; 7802,111;  267,523;55796,423;13,56877
 753,58; 7797,251;  245,523;55712,924;13,61471
 754,15; 7804,622;  249,600;55850,580;13,58793
 754,72; 7801,223;  253,907;55587,620;13,63963
 755,29; 7784,056;  225,215;55477,429;13,68061
 755,86; 7870,965;  243,600;55599,392;13,77880
 756,42; 7919,874;  254,446;55484,202;13,87916
 756,99; 7852,552;  215,600;55437,396;13,82960
 757,56; 7880,385;  226,908;55457,897;13,85722
 758,13; 7901,909;  191,446;55448,784;13,95374
 758,70; 8001,126;  208,754;55384,285;14,12288
 759,26; 8006,497;  206,600;55497,633;14,10698
 759,83; 8060,791;  215,138;55651,904;14,15244
 760,40; 8068,161;  207,292;55360,559;14,25277
 760,97; 8061,840;  192,677;55437,446;14,24418
 761,53; 8065,518;  189,677;54953,794;14,38139
 762,10; 8079,120;  179,523;55044,218;14,39832
 762,67; 8090,644;  222,215;55154,181;14,32395
 763,24; 8071,938;  166,523;54675,760;14,50289
 763,80; 8124,155;  201,754;54842,877;14,49897
 764,37; 8177,372;  204,061;54755,379;14,61616
 764,94; 8068,281;  199,600;54295,573;14,54578
 765,50; 8087,267;  197,369;54383,382;14,56077
 766,07; 8126,561;  246,215;54367,653;14,56049
 766,64; 8116,624;  210,138;54001,770;14,69836
 767,21; 8126,995;  223,831;53891,656;14,72607
 767,77; 8128,750;  239,754;53840,927;14,71795
 768,34; 8176,967;  242,215;53776,737;14,82175
 768,91; 8188,569;  242,292;53575,084;14,89942
 769,47; 8204,478;  247,215;53579,817;14,92007
 770,04; 8195,926;  232,600;53440,011;14,96657
 770,61; 8211,835;  225,215;53255,435;15,06051
 771,18; 8199,975;  208,446;53085,091;15,11353
 771,74; 8280,807;  235,292;53323,285;15,15506
 772,31; 8262,255;  230,215;53058,940;15,20392
 772,88; 8279,856;  214,446;52707,750;15,36465
 773,44; 8227,304;  218,446;52618,482;15,28407
 774,01; 8309,982;  234,446;52727,599;15,38398
 774,58; 8289,661;  223,216;52399,947;15,45985
 775,14; 8325,262;  211,600;52576,064;15,49460
 775,71; 8327,864;  215,985;52494,797;15,51657
 776,27; 8446,542;  268,600;52398,067;15,68775
 776,84; 8498,144;  295,139;52499,492;15,71326
 777,41; 8388,899;  235,139;52180,071;15,69693
 777,97; 8398,193;  231,985;51969,342;15,78397
 778,54; 8415,871;  238,369;51924,766;15,82138
 779,11; 8510,780;  260,293;51930,191;15,96769
 779,67; 8475,766;  214,677;51953,308;15,96697
 780,24; 8488,906;  238,523;51668,887;16,04185
 780,80; 8556,816;  249,523;51699,773;16,14626
 781,37; 8542,417;  243,293;51610,659;16,15641
 781,94; 8496,172;  234,908;51420,238;16,13991
 782,50; 8571,159;  240,293;51404,739;16,28253
 783,07; 8580,760;  254,677;51467,472;16,25782
 783,63; 8598,131;  221,908;51216,358;16,42575
 784,20; 8610,194;  253,523;51172,475;16,41171
 784,77; 8585,026;  231,062;50910,054;16,48408
 785,33; 8585,782;  212,985;50735,940;16,57226
 785,90; 8611,537;  234,600;50656,749;16,61360
 786,46; 8634,523;  250,446;50620,020;16,64512
 787,03; 8599,740;  221,446;50350,599;16,71342
 787,59; 8637,188;  236,600;50371,947;16,75582
 788,16; 8646,558;  240,985;50292,141;16,79396
 788,73; 8682,698;  244,062;50144,565;16,91092
 789,29; 8687,992;  228,677;49801,529;17,06441
 789,86; 8709,747;  253,677;49716,876;17,09568
 790,42; 8707,503;  235,908;49448,378;17,21433
 790,99; 8677,335;  250,831;49178,649;17,22232
 791,55; 8685,090;  224,447;49200,535;17,27505
 792,12; 8717,923;  259,216;49231,883;17,27230
 792,68; 8665,447;  242,216;48849,846;17,32903
 793,25; 8739,587;  241,293;48615,886;17,56768
 793,81; 8756,881;  295,600;48344,542;17,60971
 794,38; 8649,098;  207,370;48147,736;17,60881
 794,94; 8667,161;  218,985;47935,007;17,70511
 795,51; 8720,301;  247,447;47653,431;17,87296
 796,07; 8646,441;  240,139;47466,087;17,80018
 796,64; 8715,735;  244,216;47469,204;17,93864
 797,20; 8669,798;  241,677;47105,552;17,98426
 797,77; 8587,553;  215,908;46680,823;18,01713
 798,33; 8616,232;  226,370;46547,632;18,11233
 798,90; 8656,295;  256,524;46521,903;18,15563
 799,46; 8609,588;  225,601;45897,789;18,35688
 800,03; 8579,344;  238,831;45879,368;18,27435
 800,59; 8581,638;  250,601;45703,177;18,32908
 801,15; 8641,547;  252,985;45521,910;18,53051
 801,72; 8558,533;  240,293;45155,334;18,51994
 802,28; 8576,211;  265,370;44877,221;18,62922
 802,85; 8529,736;  236,524;44621,338;18,68480
 803,41; 8512,184;  237,447;44556,762;18,67072
 803,98; 8509,323;  235,293;44047,418;18,88525
 804,54; 8502,771;  233,524;43920,766;18,92829
 805,11; 8509,757;  241,139;43638,113;19,05344
 805,67; 8523,282;  261,216;43593,461;19,06678
 806,23; 8440,883;  241,216;43168,732;19,10119
 806,80; 8467,639;  247,985;43040,695;19,20807
 807,36; 8504,240;  257,447;43046,812;19,27300
 807,93; 8480,765;  278,985;42722,237;19,32411
 808,49; 8427,366;  222,216;42402,585;19,45253
 809,05; 8415,429;  207,601;42154,087;19,56738
 809,62; 8472,569;  251,524;42141,511;19,62532
 810,18; 8474,555;  246,755;42042,551;19,68571
 810,74; 8420,772;  216,985;41760,822;19,74730
 811,31; 8442,374;  210,601;41524,709;19,92485
 811,87; 8476,745;  234,524;41277,903;20,08173
 812,44; 8513,269;  254,524;41479,250;20,03347
 813,00; 8417,871;  192,293;41034,598;20,13985
 813,56; 8514,395;  243,139;41162,484;20,21356
 814,13; 8493,227;  233,985;41008,448;20,25592
 814,69; 8455,291;  236,062;40900,949;20,21210
 815,25; 8420,507;  207,139;40381,066;20,44452
 815,82; 8469,417;  240,755;40351,491;20,51486
 816,38; 8535,249;  268,601;40127,762;20,73964
 816,94; 8401,235;  215,062;39958,802;20,59739
 817,51; 8374,452;  212,524;39646,535;20,69769
 818,07; 8356,284;  218,909;39392,882;20,77240
 818,63; 8350,347;  231,755;39210,307;20,82836
 819,20; 8336,487;  227,524;39112,270;20,85384
 819,76; 8314,089;  214,909;38788,849;20,99651
 820,32; 8368,767;  256,139;38646,966;21,13168
 820,89; 8296,369;  247,370;38460,391;21,06350
 821,45; 8255,124;  214,986;38189,431;21,17250
 822,01; 8284,418;  233,216;37871,086;21,39122
 822,57; 8260,481;  241,063;37855,280;21,32018
 823,14; 8216,082;  211,293;37486,167;21,47503
 823,70; 8219,222;  219,293;37306,745;21,57045
 824,26; 8225,362;  214,139;37121,939;21,70604
 824,82; 8294,964;  236,524;37027,441;21,90334
 825,39; 8181,104;  214,370;36749,481;21,80569
 825,95; 8238,551;  244,063;36730,752;21,91070
 826,51; 8155,845;  232,755;36361,330;21,93026
 827,08; 8237,370;  261,986;36483,217;22,01853
 827,64; 8207,510;  243,140;36268,334;22,10778
 828,20; 8199,496;  212,370;35898,143;22,38182
 828,76; 8195,790;  253,986;35886,029;22,28838
 829,32; 8167,391;  257,370;35756,454;22,28232
 829,89; 8132,223;  214,293;35706,186;22,30912
 830,45; 8186,748;  239,140;35627,303;22,45838
 831,01; 8188,888;  225,370;35479,190;22,58909
 831,57; 8192,797;  229,986;35345,230;22,67622
 832,14; 8195,091;  211,140;35348,655;22,72201
 832,70; 8245,000;  210,447;35060,695;23,05451
 833,26; 8201,756;  206,678;34902,889;23,04309
 833,82; 8223,126;  235,063;34895,467;23,04665
 834,38; 8222,420;  209,909;34862,200;23,12260
 834,95; 8247,560;  208,063;34716,471;23,29721
 835,51; 8212,931;  186,217;34589,818;23,33103
 836,07; 8263,917;  221,370;34684,397;23,33674
 836,63; 8375,595;  247,909;34621,206;23,64535
 837,19; 8326,889;  234,524;34434,862;23,66165
 837,75; 8295,645;  190,217;34086,287;23,91259
 838,32; 8370,554;  249,371;34296,327;23,85289
 838,88; 8429,540;  242,447;34342,905;24,00875
 839,44; 8422,218;  229,217;34228,561;24,09753
 840,00; 8460,512;  220,217;34125,293;24,30402
 840,56; 8421,267;  212,294;33756,487;24,47212
 841,12; 8428,715;  207,601;33786,296;24,48312
 841,68; 8358,547;  198,140;33638,490;24,40288
 842,25; 8417,764;  209,371;33518,838;24,64282
 842,81; 8440,981;  211,678;33322,032;24,85417
 843,37; 8425,429;  207,601;33416,226;24,74606
 843,93; 8488,723;  215,140;33342,497;24,97508
 844,49; 8489,939;  230,678;33339,999;24,94543
 845,05; 8471,618;  189,140;33131,347;25,14245
 845,61; 8515,912;  237,524;33205,002;25,11077
 846,17; 8527,359;  208,294;33015,658;25,35731
 846,73; 8542,807;  217,217;33016,775;25,38324
 847,29; 8509,716;  200,525;32860,661;25,44139
 847,86; 8560,549;  207,217;32722,009;25,69087
 848,42; 8506,612;  196,140;32543,203;25,69158
 848,98; 8532,290;  216,678;32561,858;25,70897
 849,54; 8568,738;  199,755;32552,283;25,86809
 850,10; 8557,185;  224,755;32341,708;25,94402
 850,66; 8582,325;  201,063;32299,517;26,11111
 851,22; 8578,388;  193,832;32128,403;26,25542
 851,78; 8672,682;  247,832;32229,674;26,34260
 852,34; 8597,053;  222,755;31870,637;26,46085
 852,90; 8568,885;  213,602;31847,831;26,41216
 853,46; 8548,640;  204,294;31624,410;26,55734
 854,02; 8601,627;  213,678;31638,450;26,69215
 854,58; 8586,613;  204,678;31429,105;26,84416
 855,14; 8549,830;  201,986;31338,761;26,81024
 855,70; 8561,431;  176,755;31218,416;27,01104
 856,26; 8595,725;  235,371;31233,534;26,97048
 856,82; 8546,557;  203,371;30950,574;27,13478
 857,38; 8587,082;  242,217;30908,614;27,21176
 857,94; 8548,453;  209,986;30828,577;27,23334
 858,50; 8584,131;  226,294;30618,617;27,49983
 859,06; 8520,732;  202,448;30493,426;27,46126
 859,62; 8541,257;  218,602;30468,390;27,51310
 860,18; 8520,397;  212,986;30324,584;27,58874
 860,74; 8492,460;  181,909;30105,547;27,77253
 861,30; 8421,138;  194,217;29888,125;27,70575
 861,86; 8518,509;  241,679;30023,935;27,79115
 862,42; 8459,572;  212,679;29767,821;27,90341
 862,98; 8542,943;  233,679;29734,476;28,16624
 863,54; 8465,698;  222,756;29541,209;28,11520
 864,10; 8542,531;  220,525;29542,249;28,38171
 864,66; 8467,209;  201,140;29320,905;28,38646
 865,22; 8485,657;  212,602;29224,714;28,51587
 865,78; 8442,104;  228,217;29105,677;28,44394
 866,34; 8511,090;  205,140;29035,333;28,80990
 866,90; 8492,154;  218,679;28876,911;28,86945
 867,45; 8458,909;  216,525;28690,105;28,94748
 868,01; 8478,510;  223,756;28554,145;29,13746
 868,57; 8431,112;  204,910;28341,955;29,23620
 869,13; 8423,713;  194,525;28286,995;29,29322
 869,69; 8434,392;  204,294;28199,343;29,39840
 870,25; 8394,147;  197,602;28030,152;29,44949
 870,81; 8408,903;  210,525;27974,346;29,52900
 871,37; 8442,735;  215,679;27896,617;29,72102
 871,93; 8395,798;  229,910;27765,580;29,65567
 872,49; 8415,322;  239,987;27545,697;29,94002
 873,04; 8317,462;  197,833;27359,506;29,89370
 873,60; 8344,141;  200,602;27265,546;30,08888
 874,16; 8343,665;  224,910;27204,048;30,09272
 874,72; 8355,435;  203,910;27066,048;30,34578
 875,28; 8351,358;  218,910;27009,971;30,35508
 875,84; 8432,588;  216,833;26925,510;30,76062
 876,40; 8386,050;  209,756;26853,587;30,68738
 876,95; 8355,665;  219,833;26916,356;30,47525
 877,51; 8406,742;  234,833;26936,817;30,60413
 878,07; 8386,665;  242,833;26841,817;30,61708
 878,63; 8404,973;  211,910;26853,587;30,75281
 879,19; 8490,204;  230,448;26860,279;31,01693
 879,75; 8492,204;  209,910;26893,740;31,03863
 880,30; 8510,358;  209,756;26889,971;31,11145
 880,86; 8606,358;  243,833;27000,202;31,25433
 881,42; 8585,742;  192,525;27050,202;31,25072
 881,98; 8626,819;  226,756;27168,048;31,17914
 882,54; 8662,896;  211,525;27217,663;31,29426
 883,09; 8707,973;  227,756;27339,279;31,27901
 883,65; 8754,665;  197,602;27335,202;31,53213
 884,21; 8884,281;  238,987;27546,587;31,65893
 884,77; 8905,204;  211,217;27684,202;31,64558
 885,32; 8937,819;  213,756;27806,202;31,61758
 885,88; 9072,665;  241,679;27903,587;31,92472
 886,44; 9080,358;  225,140;27971,202;31,91522
 887,00; 9122,665;  228,140;27985,048;32,04437
 887,56; 9178,281;  213,910;28107,048;32,13827
 888,11; 9209,588;  212,602;28153,740;32,19979
 888,67; 9280,204;  250,371;28319,202;32,17032
 889,23; 9274,204;  220,987;28304,202;32,23711
 889,79; 9266,665;  195,294;28167,279;32,43020
 890,34; 9310,050;  221,448;28126,510;32,56973
 890,90; 9408,742;  274,448;28239,510;32,66324
 891,46; 9373,204;  206,756;28133,894;32,82273
 892,01; 9395,896;  235,910;28142,202;32,82409
 892,57; 9381,896;  242,525;28027,433;32,89329
 893,13; 9367,742;  214,371;27874,510;33,09228
 893,69; 9354,665;  206,679;27834,433;33,11158
 894,24; 9404,358;  209,833;27745,433;33,39141
 894,80; 9364,588;  209,756;27656,048;33,35544
 895,36; 9410,435;  214,679;27516,279;33,68211
 895,91; 9294,819;  217,833;27286,202;33,53356
 896,47; 9326,512;  232,140;27175,510;33,75365
 897,03; 9247,742;  213,679;26974,740;33,75824
 897,58; 9283,665;  228,679;26837,587;34,02991
 898,14; 9227,204;  227,679;26705,740;33,98861
 898,70; 9232,435;  196,140;26521,433;34,32552
 899,25; 9307,819;  210,294;26541,740;34,55004
 899,81; 9277,204;  217,371;26378,202;34,63129
 900,37; 9199,281;  187,525;26079,894;34,80468
 900,92; 9202,665;  213,525;26093,048;34,73457
 901,48; 9204,281;  209,602;26053,279;34,80418
 902,03; 9165,588;  210,140;25818,740;34,97047
 902,59; 9199,896;  213,602;25710,510;35,24464
 903,15; 9125,050;  228,140;25576,202;35,09897
 903,70; 9110,281;  220,602;25382,587;35,32980
 904,26; 9063,127;  197,756;25265,356;35,36586
 904,82; 9107,665;  209,371;25302,202;35,46150
 905,37; 9056,127;  222,140;25079,510;35,53870
 905,93; 9052,819;  211,448;24944,971;35,74651
 906,48; 9040,819;  218,140;24824,279;35,85560
 907,04; 9017,819;  226,833;24824,740;35,73876
 907,60; 8959,204;  205,448;24573,356;35,92330
 908,15; 8954,819;  193,294;24495,202;36,05283
 908,71; 8950,281;  234,140;24481,587;35,94663
 909,26; 8949,050;  212,602;24315,048;36,24714
 909,82; 8955,665;  227,217;24178,433;36,44261
 910,37; 8896,588;  248,217;24143,433;36,19290
 910,93; 8849,358;  211,140;23932,356;36,41558
 911,48; 8785,127;  195,987;23748,740;36,46767
 912,04; 8763,896;  204,371;23688,894;36,44751
 912,60; 8819,973;  218,063;23709,663;36,61696
 913,15; 8712,896;  212,217;23494,202;36,51183
 913,71; 8732,204;  200,602;23282,587;36,96217
 914,26; 8745,127;  192,525;23220,817;37,13954
 914,82; 8761,896;  218,602;23132,510;37,28432
 915,37; 8709,127;  197,217;23068,587;37,21644
 915,93; 8744,742;  254,371;23015,663;37,30180
 916,48; 8652,512;  202,217;22835,894;37,33505
 917,04; 8626,512;  227,910;22721,510;37,33774
 917,59; 8658,819;  232,525;22648,433;37,59069
 918,15; 8630,819;  183,910;22479,740;37,88560
 918,70; 8574,896;  201,294;22344,510;37,81565
 919,26; 8605,742;  216,756;22277,663;38,02648
 919,81; 8509,050;  195,448;22119,125;37,92066
 920,37; 8541,435;  191,063;21986,587;38,31232
 920,92; 8535,281;  227,987;22000,202;38,15548
 921,48; 8421,896;  192,294;21781,971;38,11823
 922,03; 8447,665;  203,063;21755,202;38,25422
 922,59; 8411,435;  198,910;21551,356;38,46175
 923,14; 8397,127;  200,294;21536,971;38,41663
 923,69; 8399,819;  228,987;21373,510;38,64279
 924,25; 8425,973;  231,294;21373,279;38,76022
 924,80; 8279,588;  210,833;21137,125;38,55798
 925,36; 8287,204;  205,371;21097,433;38,68375
 925,91; 8295,127;  207,987;20935,202;39,01701
 926,47; 8248,588;  187,910;20840,663;39,02956
 927,02; 8323,050;  253,063;20835,817;39,20752
 927,57; 8250,512;  199,602;20660,740;39,34732
 928,13; 8271,665;  186,371;20612,663;39,58278
 928,68; 8259,742;  202,448;20522,587;39,65177
 929,24; 8086,819;  168,448;20419,663;39,10072
 929,79; 8087,050;  192,987;20219,971;39,41713
 930,34; 8096,358;  203,910;20070,894;39,72645
 930,90; 8099,204;  199,140;20103,587;39,68994
 931,45; 8117,127;  208,448;20063,971;39,83113
 932,01; 8112,435;  207,294;19824,894;40,29616
 932,56; 8068,127;  221,987;19795,894;40,08469
 933,11; 8123,127;  226,833;19744,663;40,45682
 933,67; 7993,665;  195,833;19569,740;40,24915
 934,22; 8021,819;  203,294;19479,663;40,56015
 934,77; 7982,512;  232,217;19436,202;40,35774
 935,33; 7941,742;  214,525;19295,279;40,49744
 935,88; 7956,512;  217,063;19181,510;40,81030
 936,43; 7938,588;  193,371;19164,663;40,82599
 936,99; 7931,588;  211,063;19027,510;41,03073
 937,54; 7867,588;  184,140;18841,894;41,18099
 938,09; 7908,435;  208,602;18791,740;41,43451
 938,65; 7837,512;  209,294;18645,817;41,37557
 939,20; 7793,588;  183,294;18601,740;41,31887
 939,75; 7749,435;  189,525;18505,356;41,27528
 940,31; 7723,127;  185,448;18393,971;41,39643
 940,86; 7730,742;  209,756;18389,048;41,37117
 941,41; 7803,281;  261,063;18269,817;41,88084
 941,96; 7686,358;  201,910;18149,433;41,70184
 942,52; 7657,588;  202,294;18048,125;41,77611
 943,07; 7631,204;  182,910;17949,125;41,92392
 943,62; 7597,512;  199,525;17862,740;41,88358
 944,18; 7587,973;  198,987;17755,663;42,08648
 944,73; 7633,742;  209,371;17721,510;42,39557
 945,28; 7557,896;  172,910;17468,510;42,69864
 945,83; 7548,819;  192,910;17503,740;42,49311
 946,39; 7537,896;  190,910;17489,740;42,47100
 946,94; 7525,435;  218,063;17365,510;42,61492
 947,49; 7507,512;  202,756;17228,740;42,90357
 948,04; 7549,358;  222,756;17257,663;43,00934
 948,59; 7493,204;  224,448;17127,510;43,00260
 949,15; 7471,588;  181,987;17016,356;43,30190
 949,70; 7398,050;  203,602;16957,587;42,94171
 950,25; 7409,127;  216,063;16872,894;43,18387
 950,80; 7387,819;  170,140;16704,125;43,65360
 951,36; 7289,896;  166,602;16642,279;43,23521
 951,91; 7375,819;  215,756;16653,279;43,55926
 952,46; 7234,435;  188,217;16474,125;43,26573
 953,01; 7338,588;  211,756;16479,279;43,81019
 953,56; 7217,588;  182,217;16339,663;43,54259
 954,11; 7254,665;  208,217;16342,971;43,67249
 954,67; 7187,204;  186,602;16240,433;43,60705
 955,22; 7146,742;  165,140;16065,125;43,90949
 955,77; 7162,588;  227,371;16076,510;43,75769
 956,32; 7192,435;  233,525;15970,125;44,22118
 956,87; 7075,204;  188,217;15816,356;44,06786
 957,42; 7094,127;  199,448;15744,202;44,35373
 957,98; 7079,358;  195,525;15677,125;44,46461
 958,53; 7038,819;  216,679;15685,894;44,10140
 959,08; 7024,665;  190,756;15538,048;44,52844
 959,63; 6950,281;  185,140;15422,356;44,39880
 960,18; 7014,742;  204,063;15400,817;44,81667
 960,73; 7019,204;  202,756;15353,048;44,99219
 961,28; 6912,281;  188,371;15228,510;44,70643
 961,83; 6948,435;  205,525;15224,510;44,89591
 962,39; 6866,435;  184,602;15026,894;45,01887
 962,94; 6817,973;  217,756;14998,510;44,65413
 963,49; 6834,819;  202,756;14846,048;45,29079
 964,04; 6847,819;  212,063;14804,971;45,47247
 964,59; 6811,588;  170,140;14735,356;45,59801
 965,14; 6823,512;  214,140;14637,740;45,82331
 965,69; 6772,588;  204,525;14532,356;45,84130
 966,24; 6709,512;  189,910;14443,894;45,73880
 966,79; 6765,127;  215,217;14397,125;46,18497
 967,34; 6669,204;  169,448;14195,587;46,34031
 967,89; 6691,973;  195,679;14179,048;46,45729
 968,44; 6648,204;  205,294;14128,740;46,27381
 968,99; 6654,665;  210,679;14066,740;46,50662
 969,55; 6618,512;  202,910;13953,817;46,65584
 970,10; 6588,819;  205,756;13867,587;46,72187
 970,65; 6590,127;  216,217;13742,587;47,12210
 971,20; 6528,435;  194,140;13683,510;46,95768
 971,75; 6461,435;  175,833;13469,356;47,28319
 972,30; 6434,896;  200,525;13451,663;47,04782
 972,85; 6395,819;  191,756;13365,125;47,09550
 973,40; 6344,819;  191,756;13249,663;47,12136
 973,95; 6359,742;  202,140;13220,740;47,29850
 974,50; 6379,896;  223,448;13146,894;47,63782
 975,05; 6325,127;  201,756;13000,279;47,84436
 975,60; 6294,588;  215,140;12978,894;47,63057
 976,15; 6240,973;  191,833;12840,663;47,82371
 976,70; 6214,588;  203,063;12794,356;47,74351
 977,25; 6214,127;  212,833;12717,817;47,99122
 977,80; 6107,435;  194,679;12616,433;47,60001
 978,35; 6050,281;  218,448;12468,048;47,60835
 978,89; 6030,742;  186,679;12345,510;48,06435
 979,44; 6044,665;  197,756;12355,971;48,09020
 979,99; 5916,819;  186,910;12160,510;47,85453
 980,54; 5928,204;  227,987;12152,356;47,80309
 981,09; 5893,358;  219,140;12073,433;47,86635
 981,64; 5833,819;  206,833;11907,663;48,09049
 982,19; 5899,281;  235,910;11902,510;48,54346
 982,74; 5808,588;  214,987;11733,971;48,55985
 983,29; 5739,819;  191,756;11599,356;48,63480
 983,84; 5700,358;  209,525;11474,202;48,74381
 984,39; 5742,050;  262,833;11432,587;49,05406
 984,94; 5592,819;  178,294;11322,971;48,58396
 985,49; 5641,127;  231,679;11240,587;49,13701
 986,03; 5585,819;  225,217;11184,587;48,91342
 986,58; 5532,281;  245,448;11041,740;48,96897
 987,13; 5511,127;  207,910;10894,587;49,62457
 987,68; 5436,281;  222,140;10822,125;49,19008
 988,23; 5440,512;  221,063;10802,048;49,32857
 988,78; 5378,588;  193,063;10655,433;49,56358
 989,33; 5362,819;  216,833;10548,125;49,80971
 989,88; 5366,819;  224,756;10489,740;50,09324
 990,42; 5252,358;  210,679;10372,433;49,61426
 990,97; 5235,588;  210,833;10237,356;50,11464
 991,52; 5255,435;  229,140;10154,125;50,64284
 992,07; 5197,665;  237,910;10121,663;50,18089
 992,62; 5125,665;  222,448; 9972,356;50,28988
 993,17; 5064,435;  221,448; 9894,663;50,06594
 993,71; 5020,896;  222,756; 9765,433;50,28086
 994,26; 4950,050;  201,371; 9678,125;50,10871
 994,81; 4976,973;  221,140; 9602,510;50,69444
 995,36; 4896,050;  204,371; 9478,894;50,58674
 995,91; 4927,435;  217,679; 9431,356;51,11701
 996,45; 4865,512;  205,140; 9270,279;51,40982
 997,00; 4790,127;  189,987; 9123,740;51,49168
 997,55; 4802,665;  216,987; 9109,587;51,56736
 998,10; 4735,204;  242,756; 8988,433;51,36764
 998,65; 4730,742;  204,140; 8947,356;51,77274
 999,19; 4671,588;  221,371; 8811,663;51,80519
 999,74; 4652,973;  236,987; 8739,510;51,93737
1000,29; 4605,358;  226,294; 8655,202;51,95292
1000,84; 4554,435;  201,679; 8495,894;52,47942
1001,38; 4498,127;  213,217; 8413,971;52,25019
1001,93; 4496,819;  229,910; 8355,356;52,51293
1002,48; 4452,435;  204,448; 8209,125;53,06881
1003,03; 4418,204;  223,910; 8186,894;52,67239
1003,57; 4376,973;  227,833; 8108,663;52,64852
1004,12; 4385,204;  256,371; 7949,048;53,67225
1004,67; 4318,435;  210,602; 7886,356;53,51699
1005,22; 4264,127;  205,448; 7729,125;53,94542
1005,76; 4196,050;  197,833; 7624,356;53,83700
1006,31; 4187,204;  228,217; 7583,894;53,82219
1006,86; 4119,358;  215,140; 7489,663;53,66974
1007,40; 4059,665;  202,602; 7323,587;54,16475
1007,95; 4069,896;  223,910; 7254,587;54,70293
1008,50; 4013,819;  215,910; 7108,048;55,10495
1009,04; 3973,819;  211,987; 7077,894;54,79003
1009,59; 3907,896;  215,525; 6945,279;54,86636
1010,14; 3833,281;  191,063; 6864,587;54,57713
1010,68; 3814,819;  202,217; 6776,971;54,94657
1011,23; 3767,435;  211,987; 6622,356;55,46401
1011,78; 3736,435;  223,525; 6594,279;55,14119
1012,32; 3701,896;  225,910; 6476,740;55,60839
1012,87; 3683,665;  240,063; 6461,279;55,35256
1013,42; 3587,204;  198,602; 6310,740;55,44053
1013,96; 3622,896;  235,063; 6342,587;55,46983
1014,51; 3537,127;  176,679; 6239,510;55,42705
1015,06; 3491,204;  194,294; 6241,663;54,51808
1015,60; 3612,819;  250,756; 6316,817;55,42416
1016,15; 3570,050;  204,140; 6243,894;55,72925
1016,69; 3567,973;  205,371; 6311,587;55,06851
1017,24; 3581,512;  193,371; 6283,202;55,63604
1017,79; 3616,588;  236,756; 6368,663;55,11878
1018,33; 3575,896;  201,063; 6299,663;55,33783
1018,88; 3628,665;  222,679; 6390,048;55,22592
1019,42; 3621,204;  206,987; 6383,202;55,28009
1019,97; 3604,896;  202,525; 6343,279;55,40641
1020,51; 3654,665;  224,679; 6435,125;55,22931
1021,06; 3603,127;  196,679; 6409,048;54,83332
1021,61; 3581,742;  177,525; 6367,587;54,99489
1022,15; 3589,204;  168,140; 6285,279;55,92588
1022,70; 3607,204;  201,987; 6293,663;55,89951
1023,24; 3548,665;  194,217; 6266,125;55,24537
1023,79; 3564,127;  207,602; 6194,279;56,06658
1024,33; 3541,896;  189,140; 6167,740;56,07928
1024,88; 3514,742;  221,371; 6046,740;56,53498
1025,42; 3487,127;  211,140; 5985,356;56,73475
1025,97; 3384,281;  199,833; 5905,663;55,81042
1026,51; 3339,973;  176,063; 5792,817;56,32986
1027,06; 3325,742;  192,217; 5716,433;56,72344
1027,60; 3283,204;  216,217; 5660,356;56,33557
1028,15; 3213,127;  214,910; 5538,048;56,32424
1028,69; 3122,204;  173,602; 5427,894;56,11797
1029,24; 3111,512;  187,294; 5382,663;56,28507
1029,78; 3076,127;  189,910; 5295,048;56,53553
1030,33; 3009,204;  178,679; 5186,817;56,51851
1030,87; 3028,588;  195,679; 5110,356;57,64183
1031,42; 2949,281;  175,833; 5040,510;57,01197
1031,96; 2957,050;  207,525; 4971,587;57,71389
1032,51; 2894,665;  184,833; 4889,202;57,60247
1033,05; 2897,819;  204,679; 4859,971;57,85116
1033,60; 2781,512;  165,525; 4725,971;57,36251
1034,14; 2770,742;  191,679; 4665,971;57,64182
1034,69; 2751,204;  202,140; 4596,433;58,00851
1035,23; 2706,512;  195,987; 4562,356;57,49686
1035,77; 2694,358;  190,448; 4520,048;57,83235
1036,32; 2626,896;  169,525; 4409,433;57,95813
1036,86; 2635,050;  201,679; 4379,817;58,24056
1037,41; 2587,973;  205,756; 4278,279;58,49488
1037,95; 2525,204;  181,679; 4218,971;58,04695
1038,50; 2520,204;  187,217; 4162,510;58,68717
1039,04; 2495,742;  213,910; 4120,587;58,40853
1039,58; 2433,896;  186,140; 4047,740;58,20789
1040,13; 2419,204;  197,525; 3989,048;58,59595
1040,67; 2405,896;  229,448; 3970,817;58,17250
1041,21; 2383,896;  213,140; 3912,740;58,67542
1041,76; 2319,819;  179,679; 3816,356;58,84879
1042,30; 2292,896;  204,063; 3788,125;58,28116
1042,85; 2238,973;  200,448; 3725,971;57,82192
1043,39; 2215,819;  166,910; 3647,125;58,87307
1043,93; 2221,281;  211,217; 3640,894;58,60795
1044,48; 2184,127;  215,679; 3562,663;58,81258
1045,02; 2139,204;  197,525; 3481,279;59,12985
1045,56; 2172,050;  215,294; 3502,971;59,51788
1046,11; 2131,512;  206,756; 3442,894;59,47693
1046,65; 2071,435;  208,448; 3371,663;58,89534
1047,19; 2028,742;  188,063; 3327,279;58,63500
1047,74; 2008,435;  184,833; 3238,510;59,71823
1048,28; 2018,204;  201,910; 3227,279;60,03546
1048,82; 2000,742;  212,833; 3210,510;59,64317
1049,37; 1963,358;  214,602; 3148,048;59,61438
1049,91; 1965,127;  197,756; 3114,433;60,59537
1050,45; 1929,512;  219,140; 3066,971;60,05874
1050,99; 1899,512;  201,294; 3028,587;60,06515
1051,54; 1854,742;  197,756; 2964,587;59,88753
1052,08; 1862,742;  220,217; 2919,125;60,85888
1052,62; 1874,358;  211,756; 2906,356;61,70125
1053,16; 1817,588;  191,525; 2845,894;61,25988
1053,71; 1784,358;  203,756; 2818,202;60,45647
1054,25; 1783,665;  216,371; 2767,125;61,44435
1054,79; 1759,127;  212,910; 2723,048;61,59889
1055,33; 1694,358;  177,602; 2670,279;60,84847
1055,88; 1727,665;  215,371; 2668,587;61,64539
1056,42; 1714,127;  222,987; 2646,817;61,51999
1056,96; 1675,281;  217,140; 2583,048;61,63133
1057,50; 1658,358;  211,371; 2545,433;61,99436
1058,05; 1601,281;  200,987; 2502,356;60,84614
1058,59; 1632,896;  229,294; 2489,279;62,10670
1059,13; 1564,742;  186,525; 2424,894;61,57238
1059,67; 1569,281;  224,448; 2421,433;61,21266
1060,21; 1535,896;  213,063; 2344,817;62,05373
1060,76; 1542,665;  221,602; 2316,433;63,06302
1061,30; 1527,127;  226,910; 2312,279;62,34950
1061,84; 1501,588;  213,448; 2244,202;63,43164
1062,38; 1443,742;  192,063; 2193,048;62,55315
1062,92; 1484,358;  240,910; 2237,279;62,28548
1063,46; 1423,819;  224,679; 2158,433;62,01101
1064,01; 1397,127;  204,217; 2134,894;61,78712
1064,55; 1406,127;  213,140; 2102,048;63,15748
1065,09; 1352,588;  185,063; 2060,048;62,26851
1065,63; 1385,204;  239,140; 2071,202;62,55595
1066,17; 1375,050;  242,217; 2045,971;62,80417
1066,71; 1349,435;  226,217; 2023,587;62,49230
1067,25; 1313,588;  211,294; 1967,433;62,76807
1067,80; 1318,358;  219,679; 1961,433;63,07888
1068,34; 1318,435;  242,756; 1928,971;63,79249
1068,88; 1260,050;  201,448; 1891,510;62,63689
1069,42; 1301,050;  241,294; 1921,433;63,07550
1069,96; 1254,742;  200,217; 1850,279;63,90822
1070,50; 1287,204;  241,910; 1861,433;64,54334
1071,04; 1202,896;  192,756; 1814,817;62,27510
1071,58; 1206,973;  210,602; 1809,510;62,31574
1072,12; 1199,050;  207,987; 1767,971;63,53034
1072,66; 1175,358;  205,602; 1757,356;62,49418
1073,21; 1204,050;  228,371; 1752,202;64,02803
1073,75; 1170,204;  226,602; 1707,202;63,73105
1074,29; 1160,665;  218,371; 1684,433;64,27385
1074,83; 1158,358;  233,140; 1701,125;63,02636
1075,37; 1166,435;  230,525; 1658,202;65,55472
1075,91; 1147,588;  224,987; 1647,663;64,84971
1076,45; 1094,435;  217,063; 1628,894;62,14422
1076,99; 1124,050;  236,756; 1589,125;65,61035
1077,53; 1083,512;  206,525; 1573,971;64,13317
1078,07; 1103,435;  222,525; 1573,433;65,20872
1078,61; 1063,973;  217,833; 1538,894;64,05004
1079,15; 1053,358;  212,525; 1524,663;64,08109
1079,69; 1043,665;  216,140; 1491,433;64,88905
1080,23; 1064,896;  233,833; 1482,587;66,55142
1080,77; 1096,512;  267,910; 1506,048;66,92320
1081,31; 1012,435;  213,679; 1440,894;65,08684
1081,85; 1032,819;  224,602; 1452,048;65,84544
1082,39;  993,204;  209,294; 1414,663;65,03481
1082,93; 1011,435;  221,063; 1410,894;66,42719
1083,47;  976,435;  196,140; 1361,971;66,93032
1084,01;  988,973;  236,140; 1391,587;65,15515
1084,55;  967,281;  209,987; 1330,510;67,58399
1085,09;  967,281;  230,448; 1354,202;65,56887
1085,63;  961,358;  214,371; 1322,894;67,38575
1086,17;  922,742;  212,679; 1282,433;66,37634
1086,71;  909,896;  213,910; 1289,356;64,71607
1087,24;  943,512;  232,140; 1300,663;66,57518
1087,78;  942,358;  224,833; 1273,817;68,40186
1088,32;  897,819;  215,217; 1228,202;67,38522
1088,86;  915,819;  241,987; 1251,202;66,76798
1089,40;  901,050;  217,602; 1222,433;68,01624
1089,94;  863,358;  195,833; 1181,433;67,72778
1090,48;  865,050;  226,833; 1185,279;66,58875
1091,02;  872,973;  232,833; 1181,587;67,47170
1091,56;  846,435;  218,756; 1171,971;65,84859
1092,10;  809,588;  200,217; 1147,971;64,29635
1092,63;  849,973;  234,987; 1154,740;66,86425
1093,17;  829,896;  233,294; 1125,587;66,86171
1093,71;  807,819;  209,294; 1113,279;66,20964
1094,25;  835,973;  235,448; 1131,817;66,99527
1094,79;  804,127;  218,371; 1087,048;67,43080
1095,33;  799,973;  220,679; 1067,279;68,42597
1095,87;  781,819;  228,448; 1063,817;66,24270
1096,40;  738,204;  198,679; 1024,663;65,31901
1096,94;  770,896;  216,987; 1045,894;66,82404
1097,48;  778,281;  219,833; 1024,048;69,44011
1098,02;  735,973;  211,371; 1015,894;65,20657
1098,56;  706,512;  189,679;  980,048;65,39130
1099,10;  712,665;  185,833;  971,894;67,02181
1099,63;  717,358;  200,987;  948,587;69,07051
1100,17;  733,819;  222,602;  979,433;67,54711
1100,71;  762,204;  243,140;  987,433;69,73919

