
Integration time [ms]: 160,000
Averaging Nr. [scans]: 13
Smoothing Nr. [pixels]: 0
Data measured with spectrometer [name]: 2009305U1
Wave   ;Sample   ;Dark     ;Reference;Reflectance
[nm]   ;[counts] ;[counts] ;[counts] ;[%]

 175,72;  221,978;  192,833;  205,653;227,33133
 176,32;  244,698;  215,986;  216,813; 0,00000
 176,92;  277,660;  247,602;  254,971;407,89390
 177,52;  276,244;  255,679;  265,678;205,67894
 178,12;  255,708;  239,756;  224,864; 0,00000
 178,72;  289,239;  257,525;  250,340; 0,00000
 179,32;  265,152;  248,909;  241,998; 0,00000
 179,92;  277,643;  247,063;  242,319; 0,00000
 180,52;  247,322;  235,064;  254,068;64,50367
 181,12;  285,108;  243,833;  252,404;481,53111
 181,73;  295,536;  258,371;  266,338;466,52110
 182,33;  406,514;  327,141;  336,927;811,10049
 182,93;  295,751;  265,064;  266,645;1940,23408
 183,53;  257,438;  233,755;  224,030; 0,00000
 184,13;  261,292;  236,909;  229,431; 0,00000
 184,73;  301,616;  266,448;  273,739;482,35336
 185,33;  266,120;  232,445;  341,197;30,96483
 185,93;  273,803;  226,213;  348,375;38,95584
 186,53;  298,286;  244,675;  370,650;42,55624
 187,13;  309,421;  273,291;  414,063;25,66558
 187,73;  273,570;  243,598;  361,495;25,42199
 188,33;  276,901;  237,983;  370,649;29,33601
 188,93;  291,691;  250,059;  374,130;33,55527
 189,53;  281,091;  248,981;  393,125;22,27591
 190,13;  325,948;  274,058;  409,924;38,19206
 190,73;  262,401;  218,289;  365,019;30,06316
 191,34;  292,086;  256,905;  385,888;27,27602
 191,94;  274,239;  235,829;  359,614;31,02990
 192,54;  283,791;  240,984;  391,391;28,46120
 193,14;  299,332;  258,291;  390,009;31,15858
 193,74;  291,179;  260,214;  377,424;26,41814
 194,34;  295,342;  241,445;  388,106;36,74951
 194,94;  253,839;  209,983;  342,899;32,99524
 195,54;  230,814;  190,137;  332,970;28,47859
 196,14;  269,413;  225,291;  354,341;34,18984
 196,74;  258,266;  223,445;  343,719;28,95132
 197,34;  234,024;  197,522;  345,903;24,60006
 197,94;  261,699;  232,368;  373,573;20,77199
 198,54;  273,943;  228,599;  383,909;29,19613
 199,14;  251,385;  215,368;  380,241;21,84490
 199,74;  246,570;  190,292;  370,197;31,28237
 200,34;  238,714;  195,061;  379,885;23,61879
 200,94;  276,833;  233,599;  425,936;22,47817
 201,54;  248,324;  216,753;  432,596;14,62673
 202,14;  298,256;  230,061;  474,093;27,94520
 202,74;  251,330;  213,907;  473,146;14,43556
 203,34;  245,836;  180,907;  480,577;21,66673
 203,94;  219,260;  170,753;  486,255;15,37452
 204,54;  289,525;  238,445;  563,211;15,72843
 205,14;  232,531;  203,984;  571,733; 7,76259
 205,74;  297,157;  236,907;  659,589;14,25426
 206,34;  259,525;  200,215;  679,015;12,38718
 206,94;  273,580;  210,138;  728,140;12,24745
 207,54;  238,284;  191,907;  773,579; 7,97303
 208,14;  256,881;  194,522;  845,836; 9,57434
 208,74;  269,829;  198,907;  918,683; 9,85330
 209,34;  277,803;  202,215;  992,970; 9,55899
 209,94;  282,501;  202,753; 1089,013; 8,99827
 210,54;  279,988;  195,292; 1187,450; 8,53656
 211,14;  305,438;  194,368; 1267,179;10,35314
 211,73;  303,805;  197,830; 1399,958; 8,81563
 212,33;  313,109;  214,830; 1495,442; 7,67439
 212,93;  295,689;  201,830; 1569,925; 6,86053
 213,53;  273,399;  168,522; 1613,023; 7,26039
 214,13;  319,104;  193,369; 1705,053; 8,31755
 214,73;  290,949;  179,907; 1721,786; 7,20170
 215,33;  278,963;  163,830; 1742,628; 7,29242
 215,93;  318,848;  194,523; 1862,662; 7,45293
 216,53;  296,464;  157,753; 1944,199; 7,76462
 217,13;  353,627;  209,061; 2159,512; 7,41192
 217,73;  347,449;  196,599; 2334,342; 7,05650
 218,33;  311,771;  149,754; 2512,186; 6,85806
 218,93;  367,628;  177,292; 2802,474; 7,25038
 219,53;  383,187;  179,830; 3052,680; 7,07855
 220,13;  375,857;  166,677; 3342,899; 6,58583
 220,73;  430,026;  178,292; 3659,770; 7,23067
 221,32;  450,982;  192,215; 4073,836; 6,66649
 221,92;  513,755;  184,984; 4477,909; 7,65842
 222,52;  512,844;  163,446; 4867,162; 7,42813
 223,12;  559,015;  187,984; 5286,413; 7,27736
 223,72;  590,278;  189,369; 5644,061; 7,34980
 224,32;  648,542;  186,830; 5997,482; 7,94595
 224,92;  652,065;  168,830; 6323,312; 7,85175
 225,52;  695,227;  197,753; 6670,557; 7,68560
 226,12;  712,664;  180,753; 6972,357; 7,83189
 226,72;  704,777;  160,753; 7292,274; 7,62844
 227,31;  745,530;  151,984; 7646,565; 7,91967
 227,91;  842,984;  194,138; 8071,656; 8,23669
 228,51;  877,837;  165,984; 8435,636; 8,60802
 229,11;  892,690;  184,907; 8840,069; 8,17758
 229,71;  936,872;  170,830; 9126,800; 8,55342
 230,31;  965,043;  168,369; 9555,531; 8,48685
 230,91;  985,324;  158,599; 9813,841; 8,56245
 231,51; 1025,280;  163,753;10061,634; 8,70415
 232,10; 1087,556;  164,907;10384,972; 9,02781
 232,70; 1128,496;  181,445;10581,029; 9,10662
 233,30; 1209,215;  195,753;10813,411; 9,54506
 233,90; 1179,584;  167,984;10937,933; 9,39280
 234,50; 1195,041;  169,984;11059,818; 9,41297
 235,10; 1209,218;  171,292;10974,158; 9,60788
 235,70; 1294,329;  182,907;11013,347;10,26203
 236,29; 1277,758;  178,907;10902,340;10,24719
 236,89; 1237,596;  160,907;10792,462;10,12730
 237,49; 1293,426;  183,907;10632,310;10,61903
 238,09; 1259,909;  172,753;10341,707;10,69093
 238,69; 1294,444;  207,676;10098,604;10,98753
 239,29; 1238,059;  164,138; 9734,699;11,22109
 239,89; 1211,766;  172,907; 9401,017;11,25755
 240,48; 1167,893;  167,215; 8971,537;11,36577
 241,08; 1152,564;  164,522; 8611,278;11,69729
 241,68; 1165,596;  188,215; 8278,664;12,08067
 242,28; 1092,820;  156,215; 7940,130;12,03257
 242,88; 1136,597;  197,061; 7665,624;12,57988
 243,48; 1107,163;  202,138; 7348,585;12,66399
 244,07; 1046,815;  196,215; 7158,640;12,21701
 244,67; 1050,022;  189,599; 6950,593;12,72627
 245,27; 1031,420;  189,214; 6813,419;12,71407
 245,87; 1022,670;  193,677; 6751,769;12,64077
 246,47; 1016,898;  180,522; 6743,128;12,74456
 247,06;  996,820;  173,599; 6743,421;12,53034
 247,66; 1009,481;  171,676; 6819,743;12,60223
 248,26; 1046,355;  200,830; 7000,936;12,43400
 248,86; 1065,499;  197,445; 7154,654;12,47704
 249,46; 1023,094;  145,599; 7378,217;12,13247
 250,05; 1118,061;  199,830; 7771,472;12,12724
 250,65; 1126,493;  152,599; 8058,257;12,31895
 251,25; 1188,432;  170,984; 8552,490;12,13920
 251,85; 1244,281;  170,830; 9127,877;11,98443
 252,44; 1269,505;  137,061; 9680,974;11,86562
 253,04; 1387,410;  188,215;10445,847;11,69077
 253,64; 1377,174;  136,830;11140,049;11,27256
 254,24; 1541,491;  193,061;12050,132;11,37237
 254,84; 1604,402;  169,830;13024,525;11,15991
 255,43; 1698,576;  179,676;13965,778;11,01762
 256,03; 1809,115;  176,907;14933,069;11,06120
 256,63; 1893,273;  184,599;15959,061;10,83190
 257,23; 1961,498;  171,753;16835,711;10,74021
 257,82; 2082,502;  182,599;17818,426;10,77297
 258,42; 2107,484;  143,753;18720,590;10,57086
 259,02; 2245,217;  189,522;19585,306;10,59867
 259,62; 2314,171;  171,445;20283,193;10,65410
 260,21; 2334,975;  174,291;20811,251;10,46997
 260,81; 2401,524;  185,907;21379,753;10,45406
 261,41; 2388,437;  151,137;21814,664;10,32749
 262,01; 2478,616;  198,214;22356,130;10,29159
 262,60; 2473,267;  159,060;22637,173;10,29538
 263,20; 2511,304;  176,445;23055,648;10,20516
 263,80; 2563,500;  194,906;23123,820;10,33016
 264,40; 2526,774;  149,752;23365,215;10,23896
 264,99; 2559,944;  181,983;23636,262;10,13871
 265,59; 2561,317;  166,214;23828,529;10,12202
 266,19; 2590,147;  157,752;24024,776;10,19145
 266,78; 2633,617;  197,445;24085,499;10,19829
 267,38; 2612,169;  186,368;24190,233;10,10588
 267,98; 2616,911;  170,906;24143,256;10,20344
 268,58; 2608,461;  186,137;24183,756;10,09402
 269,17; 2611,002;  173,752;24133,851;10,17212
 269,77; 2586,697;  192,522;23966,940;10,07038
 270,37; 2551,289;  161,368;23855,106;10,08672
 270,96; 2597,340;  214,830;23796,071;10,10341
 271,56; 2514,334;  179,676;23480,276;10,01973
 272,16; 2521,658;  169,060;23368,768;10,14063
 272,75; 2509,421;  169,522;23244,494;10,14042
 273,35; 2512,443;  186,753;23207,061;10,10277
 273,95; 2490,837;  180,291;23273,296;10,00539
 274,54; 2501,714;  158,061;23319,855;10,11862
 275,14; 2549,421;  185,830;23690,387;10,05588
 275,74; 2534,989;  157,830;23677,369;10,10717
 276,33; 2650,442;  197,983;24100,569;10,26022
 276,93; 2666,335;  184,138;24473,251;10,21938
 277,53; 2697,866;  181,984;25015,911;10,13083
 278,12; 2772,478;  152,830;25597,349;10,29553
 278,72; 2916,917;  215,676;26084,768;10,44196
 279,32; 2930,892;  184,830;26655,470;10,37399
 279,91; 3004,963;  151,984;27296,689;10,51026
 280,51; 3116,383;  164,061;27885,853;10,64982
 281,11; 3251,486;  165,368;28515,442;10,88575
 281,70; 3270,667;  153,676;28993,081;10,80810
 282,30; 3363,488;  163,599;29674,353;10,84313
 282,90; 3477,310;  168,753;30003,444;11,08963
 283,49; 3585,397;  190,983;30517,786;11,19278
 284,09; 3720,742;  200,214;30896,231;11,46900
 284,69; 3806,529;  194,907;31311,375;11,60679
 285,28; 3878,018;  181,907;31608,199;11,76121
 285,88; 4043,249;  231,060;31904,705;12,03584
 286,47; 4058,894;  181,137;31901,565;12,22479
 287,07; 4216,553;  202,984;31975,438;12,63223
 287,67; 4316,317;  185,830;32122,739;12,93327
 288,26; 4384,813;  169,599;32037,774;13,22703
 288,86; 4510,535;  168,676;32056,294;13,61613
 289,46; 4683,718;  193,984;32185,292;14,03423
 290,05; 4857,247;  172,368;32376,766;14,54732
 290,65; 4991,383;  173,907;32494,359;14,90535
 291,24; 5204,048;  178,138;32665,551;15,47033
 291,84; 5382,196;  184,830;32740,907;15,96435
 292,44; 5536,982;  179,061;33002,715;16,32335
 293,03; 5881,886;  246,907;32988,735;17,21034
 293,63; 5938,602;  176,599;33084,504;17,50948
 294,22; 6139,493;  190,753;33347,104;17,94148
 294,82; 6261,445;  182,060;33256,310;18,38102
 295,41; 6363,898;  155,291;33060,774;18,86800
 296,01; 6480,200;  208,214;33008,575;19,12170
 296,61; 6579,085;  182,753;32641,087;19,70629
 297,20; 6517,918;  186,522;32323,950;19,70100
 297,80; 6586,860;  194,984;32156,885;19,99842
 298,39; 6604,973;  164,060;31774,877;20,37566
 298,99; 6672,587;  189,214;31656,241;20,60370
 299,58; 6615,528;  192,292;31571,638;20,46963
 300,18; 6636,010;  209,445;31366,877;20,62610
 300,78; 6597,361;  177,599;30948,409;20,86316
 301,37; 6613,301;  193,291;30891,191;20,91352
 301,97; 6654,626;  188,061;30939,660;21,02839
 302,56; 6634,730;  187,137;30906,361;20,98879
 303,16; 6662,794;  173,753;30840,917;21,15957
 303,75; 6662,450;  174,368;30857,002;21,14578
 304,35; 6654,822;  166,830;31103,257;20,97201
 304,94; 6718,527;  179,138;31040,448;21,18960
 305,54; 6727,982;  201,215;31020,913;21,17726
 306,13; 6678,201;  164,984;31012,753;21,11406
 306,73; 6616,035;  168,138;30770,960;21,06962
 307,33; 6677,162;  192,369;30714,351;21,24630
 307,92; 6635,132;  185,061;30785,136;21,07861
 308,52; 6724,492;  165,830;31199,806;21,13381
 309,11; 6811,705;  172,137;31705,231;21,05587
 309,71; 6882,317;  168,599;31935,792;21,13412
 310,30; 6890,754;  160,061;32195,179;21,01036
 310,90; 7007,754;  198,061;32541,025;21,05463
 311,49; 7033,052;  179,214;32617,051;21,12914
 312,09; 7004,026;  152,599;32789,355;20,99298
 312,68; 7142,783;  218,291;33185,330;21,00429
 313,28; 7081,286;  159,907;33317,674;20,87408
 313,87; 7056,306;  153,830;33457,421;20,72592
 314,47; 7114,234;  169,214;33719,073;20,70059
 315,06; 7105,172;  155,291;33846,369;20,62825
 315,66; 7115,026;  156,061;33991,278;20,56722
 316,25; 7056,957;  145,291;34000,199;20,41555
 316,85; 7063,296;  140,215;34012,972;20,43849
 317,44; 7054,784;  163,445;34187,697;20,25420
 318,04; 7049,095;  154,368;34156,383;20,27741
 318,63; 6929,812;  146,292;34237,622;19,89808
 319,22; 6945,651;  171,445;34452,357;19,76087
 319,82; 6929,817;  162,137;34418,304;19,75609
 320,41; 6909,338;  181,214;34371,699;19,67835
 321,01; 6889,984;  184,907;34386,656;19,60449
 321,60; 6846,180;  176,214;34477,630;19,44516
 322,20; 6770,649;  164,599;34382,000;19,30611
 322,79; 6760,872;  198,368;34501,800;19,13075
 323,39; 6727,927;  170,907;34565,974;19,06384
 323,98; 6669,675;  149,522;34508,529;18,97655
 324,58; 6627,423;  154,368;34408,391;18,89721
 325,17; 6565,020;  176,599;34190,879;18,78159
 325,76; 6490,489;  187,830;34036,681;18,62001
 326,36; 6378,961;  143,368;33626,517;18,62308
 326,95; 6344,943;  193,753;33357,126;18,54814
 327,55; 6176,231;  148,676;32972,948;18,36310
 328,14; 6111,116;  161,292;32580,644;18,35269
 328,74; 6013,237;  189,830;32167,636;18,21078
 329,33; 5887,375;  178,907;31731,391;18,09198
 329,92; 5725,683;  156,214;31253,788;17,90966
 330,52; 5622,657;  173,753;30573,956;17,92391
 331,11; 5517,649;  171,445;30177,215;17,81725
 331,71; 5375,271;  165,522;29557,766;17,72491
 332,30; 5279,527;  177,445;29149,371;17,61043
 332,89; 5227,980;  213,984;28628,725;17,64576
 333,49; 5053,182;  187,907;28086,942;17,43887
 334,08; 4935,146;  175,368;27697,286;17,29450
 334,68; 4866,939;  180,907;27293,964;17,28331
 335,27; 4731,154;  186,215;26952,612;16,98002
 335,86; 4713,649;  224,753;26641,446;16,99265
 336,46; 4602,824;  181,061;26461,399;16,82537
 337,05; 4548,864;  171,599;26265,353;16,77515
 337,65; 4463,639;  153,291;26054,626;16,64141
 338,24; 4481,113;  213,907;26069,851;16,50377
 338,83; 4422,621;  192,984;25957,438;16,41656
 339,43; 4380,935;  167,984;25897,909;16,37374
 340,02; 4347,655;  162,291;25866,857;16,28257
 340,61; 4345,395;  170,138;25836,938;16,26715
 341,21; 4324,622;  208,137;25858,636;16,04836
 341,80; 4285,284;  175,368;25826,808;16,02217
 342,40; 4258,781;  170,292;25890,158;15,89623
 342,99; 4286,211;  165,445;25947,187;15,98327
 343,58; 4301,759;  177,368;26189,622;15,85557
 344,18; 4278,093;  195,522;26373,073;15,59569
 344,77; 4325,632;  164,599;26529,948;15,78220
 345,36; 4308,251;  148,676;26879,818;15,56078
 345,96; 4435,160;  201,984;27219,638;15,66818
 346,55; 4382,290;  151,369;27427,300;15,51155
 347,14; 4408,266;  152,907;27772,144;15,40723
 347,74; 4432,615;  143,292;28192,844;15,29195
 348,33; 4580,141;  164,677;28854,944;15,39011
 348,92; 4631,867;  178,061;29402,688;15,23991
 349,52; 4686,536;  140,215;29849,887;15,30249
 350,11; 4716,606;  175,907;30115,958;15,16597
 350,70; 4703,063;  167,061;30103,798;15,15196
 351,29; 4667,062;  160,291;29828,098;15,19078
 351,89; 4658,851;  176,983;29840,031;15,10926
 352,48; 4589,963;  155,215;29908,351;14,90515
 353,07; 4606,739;  174,599;29796,583;14,96233
 353,67; 4611,900;  189,215;29796,109;14,93802
 354,26; 4559,505;  164,676;29465,729;14,99888
 354,85; 4516,781;  173,907;29381,496;14,86899
 355,45; 4470,243;  158,830;29187,341;14,85234
 356,04; 4464,303;  168,753;29179,958;14,80652
 356,63; 4474,152;  200,676;28979,836;14,84920
 357,22; 4412,804;  176,675;28835,197;14,78139
 357,82; 4367,859;  173,829;28527,954;14,79160
 358,41; 4384,503;  190,291;28522,847;14,80351
 359,00; 4307,790;  155,907;28267,802;14,76913
 359,60; 4281,874;  174,676;28241,266;14,63376
 360,19; 4294,438;  174,292;28045,826;14,78263
 360,78; 4278,931;  177,984;27864,379;14,81214
 361,37; 4235,194;  169,061;27730,181;14,75315
 361,97; 4224,793;  169,676;27624,442;14,77018
 362,56; 4167,567;  167,753;27299,264;14,74232
 363,15; 4216,783;  202,830;27001,114;14,97840
 363,74; 4116,888;  174,291;26660,845;14,88528
 364,34; 4093,519;  194,291;26339,415;14,91379
 364,93; 3985,295;  163,291;25935,873;14,82973
 365,52; 3929,188;  141,445;25588,830;14,88460
 366,11; 3917,490;  173,599;25238,079;14,93704
 366,71; 3869,344;  160,907;24896,203;14,99249
 367,30; 3782,312;  173,522;24575,417;14,78897
 367,89; 3827,434;  207,215;24348,725;14,99583
 368,48; 3778,413;  182,291;24090,525;15,04135
 369,07; 3716,140;  178,138;23657,413;15,06862
 369,67; 3699,478;  203,291;23383,363;15,08273
 370,26; 3653,665;  163,445;23103,863;15,21428
 370,85; 3631,949;  177,137;22920,245;15,19059
 371,44; 3579,207;  163,214;22611,778;15,21698
 372,03; 3529,835;  151,907;22418,770;15,17020
 372,63; 3525,290;  141,984;22051,743;15,44201
 373,22; 3515,592;  162,368;21824,363;15,47975
 373,81; 3442,787;  140,907;21614,122;15,37674
 374,40; 3448,278;  153,522;21310,691;15,57276
 374,99; 3464,359;  157,753;21122,573;15,77217
 375,59; 3391,022;  163,061;20765,855;15,66759
 376,18; 3391,661;  191,522;20688,377;15,61283
 376,77; 3399,917;  184,368;20538,952;15,79767
 377,36; 3391,310;  194,599;20427,029;15,79994
 377,95; 3388,638;  181,291;20167,268;16,04798
 378,55; 3343,984;  164,907;19976,041;16,04692
 379,14; 3362,610;  177,522;19901,675;16,14816
 379,73; 3364,547;  165,676;19853,332;16,24810
 380,32; 3373,878;  183,984;19873,181;16,20124
 380,91; 3379,192;  159,676;19667,575;16,50365
 381,50; 3377,906;  181,137;19730,834;16,35201
 382,10; 3381,801;  165,599;19588,104;16,55915
 382,69; 3368,048;  153,061;19536,843;16,58596
 383,28; 3423,048;  185,214;19485,519;16,77608
 383,87; 3390,725;  170,599;19354,118;16,78590
 384,46; 3407,084;  156,599;19303,219;16,97681
 385,05; 3454,514;  194,368;19336,249;17,03148
 385,64; 3467,259;  173,984;19253,926;17,26041
 386,24; 3451,790;  151,214;19260,693;17,27193
 386,83; 3508,871;  185,676;19307,347;17,37921
 387,42; 3513,861;  185,907;19437,221;17,28689
 388,01; 3575,356;  175,906;19692,501;17,41826
 388,60; 3660,618;  180,060;19935,642;17,61810
 389,19; 3714,627;  162,521;20071,470;17,84175
 389,78; 3774,373;  163,137;20300,531;17,93298
 390,37; 3945,985;  226,829;20795,837;18,08136
 390,96; 3950,504;  171,983;20851,213;18,27206
 391,56; 3985,533;  182,136;20980,634;18,28688
 392,15; 4027,747;  156,367;21348,835;18,26772
 392,74; 4089,170;  147,059;21537,383;18,42941
 393,33; 4170,905;  167,290;21800,272;18,50700
 393,92; 4294,589;  173,905;22148,280;18,75222
 394,51; 4310,312;  169,367;22328,946;18,68693
 395,10; 4409,939;  191,212;22592,145;18,83281
 395,69; 4436,532;  172,828;22659,440;18,96108
 396,28; 4462,440;  187,828;22780,161;18,92063
 396,87; 4550,995;  175,366;22794,544;19,34478
 397,46; 4623,968;  191,750;22963,056;19,46405
 398,06; 4673,732;  198,596;23203,119;19,45329
 398,65; 4686,230;  184,672;23227,508;19,53561
 399,24; 4783,526;  204,056;23470,283;19,68291
 399,83; 4742,296;  175,516;23419,733;19,64695
 400,42; 4843,836;  203,053;23563,588;19,86591
 401,01; 4861,978;  185,975;23697,214;19,88837
 401,60; 4936,881;  194,281;23692,232;20,18304
 402,19; 4961,858;  220,049;23599,757;20,28173
 402,78; 4998,258;  222,354;23670,337;20,36808
 403,37; 4951,740;  208,967;23485,360;20,37590
 403,96; 4967,443;  200,734;23392,403;20,55354
 404,55; 4979,380;  220,577;23298,760;20,62036
 405,14; 4947,564;  199,113;23194,704;20,64940
 405,73; 4998,535;  215,417;23072,266;20,92641
 406,32; 5055,049;  222,569;22959,260;21,25411
 406,91; 4956,497;  202,028;22680,458;21,15125
 407,50; 4989,637;  215,873;22530,604;21,39288
 408,09; 4893,394;  186,103;22248,987;21,33579
 408,68; 4940,294;  196,641;22130,582;21,62700
 409,27; 4912,745;  186,488;21935,551;21,73085
 409,86; 4947,099;  200,644;21860,399;21,91371
 410,45; 4954,220;  232,645;21774,441;21,91821
 411,04; 4962,054;  236,801;21640,738;22,07656
 411,63; 4915,942;  213,187;21399,610;22,19702
 412,22; 4924,093;  217,574;21270,990;22,35513
 412,81; 4889,790;  222,959;20933,498;22,53361
 413,40; 4862,302;  249,652;20594,959;22,67181
 413,99; 4837,872;  267,960;20389,882;22,71111
 414,58; 4678,884;  208,498;19983,338;22,60643
 415,17; 4719,437;  208,267;19843,761;22,97457
 415,76; 4647,624;  205,343;19646,204;22,85023
 416,35; 4642,404;  194,882;19356,030;23,21115
 416,94; 4670,288;  229,805;19554,581;22,97819
 417,53; 4764,313;  215,190;19687,836;23,36161
 418,12; 4761,632;  206,036;19787,445;23,26490
 418,71; 4901,566;  232,114;20191,765;23,39446
 419,30; 4944,248;  216,652;20276,876;23,56701
 419,89; 4975,472;  203,267;20467,311;23,55011
 420,48; 5108,452;  235,114;20775,844;23,72524
 421,07; 5144,883;  229,729;20800,062;23,89438
 421,66; 5112,997;  200,037;20766,724;23,88795
 422,25; 5157,596;  203,115;20757,681;24,10404
 422,84; 5191,459;  231,500;20748,871;24,17444
 423,43; 5109,215;  220,500;20404,088;24,22124
 424,02; 5118,647;  234,961;20179,384;24,48647
 424,60; 5045,194;  206,578;19787,501;24,71087
 425,19; 4983,857;  222,654;19548,224;24,63681
 425,78; 4949,617;  240,654;19501,989;24,44775
 426,37; 4919,168;  236,039;19304,849;24,55911
 426,96; 4937,200;  219,193;19247,266;24,79498
 427,55; 4910,118;  211,116;19035,553;24,96224
 428,14; 4858,366;  206,501;18860,636;24,93745
 428,73; 4858,911;  228,501;18686,169;25,08665
 429,32; 4888,247;  231,962;18637,883;25,29776
 429,91; 4934,560;  247,116;18703,205;25,39782
 430,50; 4857,059;  239,732;18496,159;25,29152
 431,08; 4827,234;  252,117;18415,557;25,18860
 431,67; 4853,261;  296,502;18284,691;25,33195
 432,26; 4849,218;  305,502;18077,559;25,56663
 432,85; 4784,732;  340,656;17763,604;25,50703
 433,44; 4682,148;  336,118;17385,023;25,49155
 434,03; 4609,962;  348,349;17082,008;25,46731
 434,62; 4509,420;  307,425;16701,952;25,63047
 435,21; 4480,768;  328,040;16469,644;25,72686
 435,79; 4432,558;  331,041;16336,814;25,62523
 436,38; 4404,009;  313,734;16279,858;25,61846
 436,97; 4401,531;  312,041;16185,273;25,76344
 437,56; 4341,639;  311,273;15964,310;25,74814
 438,15; 4327,604;  279,273;15853,253;25,99420
 438,74; 4364,534;  296,965;15926,346;26,02515
 439,33; 4361,732;  265,965;15886,494;26,22041
 439,91; 4389,743;  228,581;15945,350;26,47594
 440,50; 4445,885;  284,196;16038,265;26,41660
 441,09; 4485,867;  278,197;16137,216;26,53172
 441,68; 4457,689;  268,735;16097,048;26,46494
 442,27; 4492,385;  249,658;16117,378;26,73810
 442,86; 4456,358;  232,505;16092,763;26,63168
 443,44; 4506,262;  240,351;16162,261;26,79271
 444,03; 4632,822;  298,198;16223,997;27,21762
 444,62; 4523,660;  244,351;16069,566;27,04108
 445,21; 4506,341;  251,659;15914,696;27,16383
 445,80; 4514,401;  284,890;15782,390;27,29157
 446,39; 4474,799;  290,429;15504,817;27,50272
 446,97; 4377,521;  245,814;15352,756;27,34972
 447,56; 4287,242;  247,583;15120,833;27,16056
 448,15; 4283,789;  243,660;14991,139;27,39539
 448,74; 4229,556;  266,429;14672,104;27,51087
 449,33; 4201,987;  235,276;14587,031;27,63921
 449,91; 4156,324;  246,815;14400,616;27,62162
 450,50; 4052,437;  242,430;14179,487;27,33724
 451,09; 4063,304;  255,276;14091,361;27,52244
 451,68; 4038,933;  268,969;13991,513;27,47278
 452,26; 4017,548;  267,507;13882,268;27,54394
 452,85; 3988,373;  251,199;13837,578;27,50677
 453,44; 3998,857;  267,277;13788,136;27,59869
 454,03; 3937,686;  239,354;13776,037;27,32082
 454,61; 3979,208;  236,662;13755,146;27,68466
 455,20; 4074,685;  273,816;13940,687;27,81082
 455,79; 4079,013;  268,662;13927,663;27,89627
 456,38; 4087,977;  268,739;14007,442;27,79911
 456,97; 4112,665;  252,124;14070,310;27,93812
 457,55; 4088,625;  250,047;14089,802;27,73588
 458,14; 4136,910;  276,585;14042,968;28,04168
 458,73; 4119,053;  255,355;14008,120;28,09398
 459,31; 4088,526;  288,278;14014,715;27,68561
 459,90; 4154,595;  290,509;14131,760;27,91718
 460,49; 4245,913;  334,432;14244,717;28,11935
 461,08; 4169,216;  264,971;14325,004;27,76839
 461,66; 4176,909;  267,586;14367,019;27,72681
 462,25; 4227,827;  270,971;14422,905;27,95983
 462,84; 4240,182;  297,202;14494,938;27,77190
 463,43; 4207,174;  226,971;14407,032;28,06901
 464,01; 4215,302;  261,125;14470,259;27,82841
 464,60; 4272,835;  299,894;14402,292;28,17209
 465,19; 4107,337;  242,972;14172,423;27,74241
 465,77; 4121,029;  269,972;14117,024;27,81139
 466,36; 4188,335;  281,433;13996,694;28,48580
 466,95; 4026,248;  256,356;13737,152;27,96491
 467,53; 3970,993;  275,203;13416,862;28,12271
 468,12; 3907,022;  284,434;13175,399;28,10177
 468,71; 3823,011;  266,895;12915,296;28,11515
 469,29; 3728,874;  249,511;12695,642;27,95539
 469,88; 3658,862;  266,357;12500,496;27,72983
 470,47; 3763,663;  329,280;12548,915;28,10544
 471,06; 3683,826;  272,819;12534,273;27,81895
 471,64; 3735,984;  281,280;12691,803;27,83689
 472,23; 3699,685;  242,896;12681,781;27,79018
 472,81; 3761,802;  253,050;12749,243;28,07857
 473,40; 3778,979;  261,127;13004,846;27,60460
 473,99; 3953,303;  346,281;13160,323;28,14898
 474,57; 3848,816;  259,742;13250,487;27,62792
 475,16; 3938,441;  274,742;13372,506;27,97194
 475,75; 3980,853;  290,281;13477,287;27,98642
 476,33; 4022,191;  292,666;13553,813;28,12370
 476,92; 4014,186;  300,973;13603,829;27,91290
 477,51; 4023,624;  285,666;13671,153;27,92545
 478,09; 4041,347;  272,974;13702,109;28,06118
 478,68; 4017,921;  289,666;13595,350;28,02002
 479,27; 4053,470;  311,435;13701,522;27,94631
 479,85; 3990,612;  287,281;13703,038;27,60433
 480,44; 4033,842;  276,974;13868,131;27,64200
 481,02; 4362,084;  281,051;15608,402;26,62582
 481,61; 4937,603;  310,897;17388,639;27,09203
 482,20; 5227,431;  305,436;18436,789;27,14632
 482,78; 5477,682;  331,512;19187,657;27,29174
 483,37; 5644,419;  327,205;19643,013;27,52778
 483,95; 5713,366;  357,975;20013,353;27,24644
 484,54; 5807,252;  370,974;20144,321;27,49296
 485,13; 5722,061;  337,667;20034,163;27,33681
 485,71; 5659,411;  317,975;19790,230;27,43101
 486,30; 5619,519;  351,898;19542,570;27,44886
 486,88; 5541,044;  393,436;19107,604;27,50647
 487,47; 5330,337;  376,898;18360,869;27,54363
 488,05; 5083,653;  358,129;17495,548;27,57430
 488,64; 4751,930;  349,283;16059,475;28,02415
 489,23; 4284,992;  355,591;14183,165;28,41714
 489,81; 3635,148;  354,283;12316,831;27,42614
 490,40; 3436,339;  320,822;11823,952;27,08408
 490,98; 3314,968;  299,745;11561,827;26,77323
 491,57; 3319,165;  322,129;11500,035;26,81214
 492,15; 3288,573;  309,822;11427,977;26,79178
 492,74; 3263,310;  312,667;11319,477;26,80742
 493,32; 3256,704;  325,514;11206,867;26,93773
 493,91; 3201,674;  296,591;11161,517;26,73817
 494,50; 3196,314;  317,207;11123,602;26,64262
 495,08; 3164,280;  292,822;11050,719;26,69163
 495,67; 3201,323;  317,283;11013,507;26,96315
 496,25; 3091,070;  255,130;10847,096;26,77444
 496,84; 3097,451;  280,283;10870,055;26,60272
 497,42; 3068,904;  264,899;10808,134;26,59530
 498,01; 3103,743;  278,206;10786,547;26,88851
 498,59; 3033,486;  246,668;10711,606;26,63004
 499,18; 3013,046;  249,899;10642,047;26,58880
 499,76; 3031,571;  282,437;10534,406;26,81566
 500,35; 2958,197;  272,361;10382,539;26,56567
 500,93; 2904,817;  245,361;10380,776;26,23925
 501,52; 2906,908;  261,284;10274,065;26,42247
 502,10; 2948,497;  270,438;10250,171;26,83498
 502,69; 2849,439;  255,900;10120,749;26,29072
 503,27; 2790,862;  234,207; 9897,576;26,45718
 503,86; 2792,177;  250,669; 9860,824;26,44607
 504,44; 2709,319;  227,438; 9778,525;25,98532
 505,03; 2661,481;  219,361; 9540,802;26,19895
 505,61; 2657,157;  238,515; 9417,662;26,34931
 506,19; 2601,333;  256,054; 9241,075;26,10210
 506,78; 2536,405;  230,362; 9085,577;26,04164
 507,36; 2482,970;  229,361; 8926,057;25,91339
 507,95; 2439,146;  234,900; 8738,415;25,92159
 508,53; 2415,896;  237,516; 8704,375;25,72832
 509,12; 2370,348;  247,054; 8504,879;25,71250
 509,70; 2361,050;  262,439; 8391,822;25,81513
 510,29; 2317,793;  257,670; 8187,741;25,97862
 510,87; 2237,342;  233,131; 8085,205;25,52461
 511,46; 2208,697;  226,131; 7883,685;25,89033
 512,04; 2154,803;  242,285; 7748,083;25,48054
 512,62; 2128,652;  245,054; 7648,102;25,44354
 513,21; 2061,495;  224,208; 7429,407;25,49946
 513,79; 2032,443;  227,824; 7325,385;25,42590
 514,38; 1967,252;  210,747; 7153,170;25,30103
 514,96; 1985,094;  253,824; 7072,624;25,38966
 515,54; 1902,731;  221,670; 6956,391;24,96111
 516,13; 1889,759;  246,824; 6858,308;24,84971
 516,71; 1843,977;  240,901; 6759,824;24,59112
 517,30; 1811,293;  215,132; 6655,856;24,78231
 517,88; 1783,606;  245,978; 6549,899;24,39161
 518,46; 1733,233;  216,825; 6445,769;24,34455
 519,05; 1763,205;  222,517; 6391,915;24,97307
 519,63; 1696,204;  237,056; 6323,787;23,97260
 520,22; 1709,473;  249,979; 6288,022;24,17164
 520,80; 1687,854;  242,287; 6198,368;24,27044
 521,38; 1717,732;  262,748; 6200,291;24,50481
 521,97; 1645,134;  221,595; 6142,052;24,04441
 522,55; 1653,110;  241,133; 6160,067;23,85526
 523,13; 1641,155;  231,441; 6158,127;23,78588
 523,72; 1637,701;  233,517; 6114,658;23,87604
 524,30; 1664,226;  254,210; 6244,255;23,53932
 524,89; 1638,437;  228,672; 6275,014;23,31601
 525,47; 1684,626;  241,826; 6379,471;23,50739
 526,05; 1652,123;  217,210; 6445,512;23,03859
 526,64; 1707,427;  246,672; 6579,212;23,06744
 527,22; 1713,741;  241,133; 6699,623;22,80111
 527,80; 1777,717;  272,749; 6847,730;22,88931
 528,39; 1763,624;  234,364; 6929,961;22,83978
 528,97; 1779,993;  245,057; 7088,668;22,42875
 529,55; 1826,863;  251,749; 7287,682;22,38672
 530,14; 1862,119;  262,288; 7408,121;22,38831
 530,72; 1890,024;  245,518; 7543,700;22,53309
 531,30; 1908,115;  228,134; 7703,083;22,47482
 531,89; 1947,407;  237,903; 7794,836;22,62166
 532,47; 1975,263;  267,442; 7893,471;22,39463
 533,05; 1962,685;  268,595; 7934,621;22,09867
 533,63; 1960,091;  278,595; 7979,036;21,83635
 534,22; 1942,576;  250,365; 7972,022;21,91513
 534,80; 1990,526;  262,442; 8099,771;22,04941
 535,38; 2094,134;  341,672; 8203,953;22,28949
 535,97; 1952,310;  266,903; 8173,981;21,31516
 536,55; 2015,376;  305,211; 8254,394;21,51372
 537,13; 1989,943;  323,441; 8215,447;21,11633
 537,71; 1997,639;  373,903; 8254,101;20,60528
 538,30; 2016,747;  386,826; 8350,242;20,46761
 538,88; 2070,751;  432,134; 8478,329;20,36511
 539,46; 2128,349;  498,826; 8667,939;19,94736
 540,05; 2119,988;  527,519; 8820,864;19,20177
 540,63; 2184,120;  572,519; 8990,574;19,14457
 541,21; 2196,490;  614,673; 9193,347;18,43895
 541,79; 2220,013;  671,058; 9311,562;17,92668
 542,38; 2274,607;  689,519; 9445,133;18,10368
 542,96; 2291,612;  693,058; 9619,609;17,90786
 543,54; 2374,195;  719,596; 9836,509;18,14867
 544,12; 2336,603;  681,058; 9928,388;17,90295
 544,70; 2348,169;  661,365;10039,321;17,98690
 545,29; 2401,954;  673,673;10246,750;18,05356
 545,87; 2395,628;  633,596;10184,716;18,44844
 546,45; 2347,305;  591,365;10217,022;18,24229
 547,03; 2362,266;  572,981;10300,497;18,39406
 547,62; 2348,293;  518,211;10439,230;18,44651
 548,20; 2401,855;  521,442;10550,924;18,74885
 548,78; 2388,180;  485,058;10661,424;18,70139
 549,36; 2417,959;  440,827;10878,890;18,94156
 549,94; 2409,900;  396,904;10967,230;19,04385
 550,53; 2473,050;  394,597;11243,548;19,15810
 551,11; 2463,075;  366,597;11426,754;18,95523
 551,69; 2469,203;  372,443;11750,056;18,42883
 552,27; 2524,861;  335,750;11965,538;18,82330
 552,85; 2596,582;  339,828;12399,722;18,71289
 553,44; 2647,164;  327,827;12632,746;18,84886
 554,02; 2675,996;  348,520;12991,011;18,40995
 554,60; 2695,217;  283,751;13303,900;18,52103
 555,18; 2784,097;  337,674;13660,566;18,36255
 555,76; 2843,927;  296,751;14025,058;18,55419
 556,34; 2898,753;  319,982;14440,574;18,26249
 556,93; 2942,407;  292,827;14817,570;18,24183
 557,51; 3002,185;  272,828;15124,930;18,37691
 558,09; 3054,844;  311,674;15550,738;18,00091
 558,67; 3106,264;  301,982;15980,181;17,88651
 559,25; 3166,315;  313,905;16151,376;18,01052
 559,83; 3204,670;  293,366;16481,564;17,98411
 560,41; 3249,777;  286,058;16862,821;17,87875
 561,00; 3324,203;  297,982;17133,505;17,97521
 561,58; 3316,006;  280,597;17395,894;17,73506
 562,16; 3383,868;  271,904;17779,125;17,77531
 562,74; 3422,097;  263,827;18061,689;17,74522
 563,32; 3463,638;  258,366;18555,839;17,51757
 563,90; 3560,733;  285,982;18895,612;17,59708
 564,48; 3586,724;  285,751;19333,837;17,32968
 565,06; 3668,591;  280,289;19947,851;17,22787
 565,65; 3801,427;  292,059;20622,618;17,26154
 566,23; 3956,149;  322,520;21339,029;17,28940
 566,81; 4023,514;  278,059;22097,728;17,16550
 567,39; 4152,315;  294,136;22907,408;17,06157
 567,97; 4271,173;  308,982;23588,507;17,02007
 568,55; 4400,960;  321,982;24428,159;16,92088
 569,13; 4498,581;  289,366;25136,232;16,94063
 569,71; 4610,759;  276,135;26086,631;16,79404
 570,29; 4793,829;  326,443;27122,260;16,67195
 570,87; 4958,931;  312,058;27695,989;16,96934
 571,45; 4988,047;  314,443;28347,347;16,67185
 572,03; 5007,474;  282,828;28732,112;16,60726
 572,61; 5130,228;  274,520;29528,849;16,59825
 573,20; 5225,248;  299,828;30153,456;16,49857
 573,78; 5325,646;  293,828;30820,809;16,48318
 574,36; 5402,739;  312,213;31253,624;16,45215
 574,94; 5462,634;  364,213;31533,971;16,35695
 575,52; 5477,908;  308,213;31827,474;16,40170
 576,10; 5546,109;  363,367;32450,122;16,15228
 576,68; 5613,835;  358,290;33028,049;16,08688
 577,26; 5690,969;  367,521;33736,551;15,95326
 577,84; 5789,765;  385,059;34142,922;16,01021
 578,42; 5875,174;  422,905;34469,867;16,01397
 579,00; 5802,269;  361,905;34548,932;15,91353
 579,58; 5830,212;  415,982;34727,896;15,77945
 580,16; 5790,926;  384,905;34758,278;15,72735
 580,74; 5772,805;  384,213;34964,545;15,58282
 581,32; 5772,309;  389,059;35108,920;15,50481
 581,90; 5748,194;  427,444;35079,815;15,35465
 582,48; 5719,395;  405,982;35241,094;15,25304
 583,06; 5740,729;  412,982;35258,837;15,28947
 583,64; 5732,234;  409,520;35402,877;15,21064
 584,22; 5691,645;  424,675;35244,258;15,12646
 584,80; 5582,222;  423,982;34992,377;14,92184
 585,38; 5539,913;  435,443;34555,309;14,96040
 585,96; 5453,098;  392,059;34740,574;14,73437
 586,54; 5500,162;  421,829;34710,153;14,81068
 587,12; 5409,188;  387,290;34850,896;14,57160
 587,70; 5477,208;  416,751;35114,610;14,58435
 588,28; 5428,849;  390,290;35095,402;14,51820
 588,86; 5415,910;  391,059;35225,047;14,42514
 589,44; 5383,400;  386,290;35307,462;14,30969
 590,02; 5402,014;  375,059;35498,642;14,31219
 590,59; 5410,584;  368,367;35700,997;14,27071
 591,17; 5443,814;  359,291;35892,185;14,30934
 591,75; 5395,207;  353,983;35999,092;14,14282
 592,33; 5436,789;  364,675;36339,778;14,09896
 592,91; 5425,674;  315,906;36533,304;14,10860
 593,49; 5428,076;  327,598;36828,725;13,97348
 594,07; 5468,729;  342,521;37042,569;13,96785
 594,65; 5457,527;  354,598;37044,483;13,90827
 595,23; 5482,959;  339,367;37404,855;13,87704
 595,81; 5472,398;  345,060;37547,997;13,78208
 596,39; 5473,955;  324,598;37683,478;13,78349
 596,97; 5474,505;  328,598;37855,211;13,71269
 597,55; 5430,197;  325,213;37711,778;13,65460
 598,12; 5385,285;  314,291;37800,790;13,52752
 598,70; 5373,934;  310,214;38006,764;13,43285
 599,28; 5427,343;  331,137;38069,134;13,50418
 599,86; 5368,702;  315,598;38174,991;13,34703
 600,44; 5351,481;  282,906;38262,318;13,34558
 601,02; 5376,301;  340,368;38274,454;13,27548
 601,60; 5349,323;  310,598;38211,478;13,29448
 602,18; 5305,729;  296,983;38197,924;13,21536
 602,75; 5263,365;  294,983;38376,806;13,04660
 603,33; 5265,358;  306,598;38291,535;13,05454
 603,91; 5217,962;  300,445;38330,559;12,93059
 604,49; 5269,506;  326,521;38431,723;12,97194
 605,07; 5259,560;  334,060;38389,059;12,94311
 605,65; 5182,339;  364,983;38516,296;12,62697
 606,23; 5199,334;  413,675;38688,742;12,50333
 606,80; 5205,734;  480,983;38775,483;12,33794
 607,38; 5199,810;  527,522;38761,132;12,22037
 607,96; 5216,233;  578,444;38960,250;12,08330
 608,54; 5235,631;  643,829;38955,049;11,98553
 609,12; 5226,604;  664,521;39056,084;11,88303
 609,70; 5207,639;  711,598;39105,464;11,71031
 610,27; 5204,168;  707,752;39194,796;11,68293
 610,85; 5189,329;  728,060;39233,460;11,58609
 611,43; 5143,388;  725,060;39176,948;11,49054
 612,01; 5093,633;  691,367;38928,974;11,51292
 612,59; 5072,861;  683,675;38959,187;11,46735
 613,16; 4999,738;  643,213;38847,966;11,40310
 613,74; 4975,074;  613,137;38764,905;11,43312
 614,32; 4961,617;  549,214;38724,268;11,55834
 614,90; 4940,436;  499,829;38549,519;11,67055
 615,48; 4838,975;  453,290;38134,209;11,63901
 616,05; 4784,334;  407,290;38243,788;11,56831
 616,63; 4773,462;  421,982;37956,906;11,59315
 617,21; 4752,775;  411,290;37898,211;11,58133
 617,79; 4715,678;  385,213;37770,203;11,58343
 618,36; 4685,775;  404,137;37711,889;11,47654
 618,94; 4568,416;  337,213;37384,847;11,42098
 619,52; 4528,705;  370,367;37017,883;11,34685
 620,10; 4509,951;  356,290;37089,547;11,30763
 620,67; 4490,409;  358,982;36973,199;11,28367
 621,25; 4491,162;  374,137;36797,816;11,30315
 621,83; 4428,270;  358,444;36743,509;11,18543
 622,41; 4456,730;  398,136;36802,043;11,14879
 622,98; 4392,961;  365,675;36487,673;11,14912
 623,56; 4379,241;  363,444;36488,987;11,11623
 624,14; 4307,179;  337,675;36356,652;11,02059
 624,72; 4235,700;  335,675;36237,323;10,86308
 625,29; 4265,034;  327,521;36403,126;10,91461
 625,87; 4327,925;  367,752;36321,989;11,01448
 626,45; 4207,851;  319,674;36112,744;10,86293
 627,02; 4182,181;  316,983;36082,363;10,80710
 627,60; 4164,057;  314,829;36020,701;10,78038
 628,18; 4134,296;  303,752;36171,391;10,67967
 628,76; 4090,225;  305,675;36192,786;10,54571
 629,33; 4111,300;  340,059;36113,721;10,54195
 629,91; 4083,566;  325,598;36022,547;10,52742
 630,49; 4094,448;  328,444;36232,402;10,48911
 631,06; 4072,498;  326,675;36390,638;10,38661
 631,64; 4041,884;  319,059;36324,626;10,33958
 632,22; 4023,932;  274,597;36382,197;10,38378
 632,79; 4073,109;  322,059;36485,337;10,37254
 633,37; 4008,834;  297,675;36621,177;10,21696
 633,95; 4035,103;  288,136;36675,495;10,29744
 634,52; 4012,046;  276,675;36730,705;10,24680
 635,10; 3995,424;  289,367;36741,786;10,16683
 635,68; 4008,094;  286,828;36947,244;10,15064
 636,25; 3994,942;  276,905;36915,262;10,14794
 636,83; 3999,995;  262,213;37121,017;10,14081
 637,41; 3997,626;  274,674;37206,001;10,08074
 637,98; 4038,301;  306,444;37369,365;10,06898
 638,56; 4017,120;  293,213;37423,894;10,02919
 639,13; 3998,429;  268,982;37536,408;10,00726
 639,71; 4013,075;  313,367;37616,102; 9,91806
 640,29; 3941,927;  249,290;37483,827; 9,91724
 640,86; 3968,204;  263,829;37608,175; 9,91951
 641,44; 3942,711;  257,059;37643,369; 9,85829
 642,02; 3973,680;  290,675;37552,947; 9,88401
 642,59; 3953,726;  267,752;37784,833; 9,82479
 643,17; 3921,849;  268,213;37738,797; 9,75068
 643,74; 3929,433;  268,521;37719,375; 9,77524
 644,32; 3925,787;  289,675;37727,185; 9,71248
 644,89; 3921,294;  287,444;37749,917; 9,69997
 645,47; 3934,879;  293,136;37742,649; 9,72440
 646,05; 3891,694;  283,444;37635,997; 9,65998
 646,62; 3860,047;  279,444;37705,499; 9,56714
 647,20; 3870,016;  280,829;37790,001; 9,56883
 647,77; 3778,831;  255,598;37644,271; 9,42326
 648,35; 3780,646;  250,906;37527,465; 9,46906
 648,92; 3820,231;  279,367;37684,429; 9,46627
 649,50; 3755,738;  250,906;37519,623; 9,40422
 650,08; 3758,092;  245,444;37436,201; 9,44495
 650,65; 3764,599;  250,059;37720,164; 9,37958
 651,23; 3799,337;  235,367;38578,204; 9,29501
 651,80; 3883,768;  252,213;39453,014; 9,26398
 652,38; 3943,506;  268,521;39722,439; 9,31463
 652,95; 3975,090;  226,752;40098,709; 9,40094
 653,53; 3967,059;  258,290;40364,211; 9,24744
 654,10; 4031,413;  281,444;40538,482; 9,31506
 654,68; 3984,305;  244,675;40444,676; 9,30256
 655,25; 3959,966;  239,213;40461,716; 9,25043
 655,83; 3919,781;  228,136;40508,141; 9,16496
 656,40; 3997,520;  271,598;40445,104; 9,27457
 656,98; 3915,258;  254,136;40318,683; 9,13806
 657,55; 3910,996;  246,829;40238,184; 9,16240
 658,13; 3860,580;  248,060;39854,147; 9,12112
 658,70; 3838,626;  253,521;39571,803; 9,11816
 659,28; 3718,441;  246,060;38705,305; 9,02873
 659,85; 3637,641;  262,675;37995,652; 8,94434
 660,43; 3630,149;  272,213;38124,539; 8,87115
 661,00; 3592,887;  257,675;38183,887; 8,79395
 661,58; 3648,856;  241,060;38596,927; 8,88468
 662,15; 3635,132;  242,598;38731,659; 8,81428
 662,73; 3739,101;  301,983;39005,930; 8,88054
 663,30; 3678,070;  253,367;39203,816; 8,79246
 663,88; 3701,193;  256,060;39421,702; 8,79632
 664,45; 3665,316;  244,367;39620,666; 8,68784
 665,03; 3721,516;  254,521;39985,937; 8,72608
 665,60; 3837,946;  316,214;40520,746; 8,75954
 666,17; 3765,838;  254,598;40428,017; 8,74021
 666,75; 3800,653;  242,214;40843,288; 8,76440
 667,32; 3837,084;  267,829;41217,482; 8,71620
 667,90; 3835,899;  245,598;41383,445; 8,72749
 668,47; 3861,099;  271,367;41710,177; 8,66273
 669,05; 3861,683;  246,675;41959,987; 8,66632
 669,62; 3848,575;  232,675;42068,334; 8,64310
 670,19; 3884,236;  233,983;42169,990; 8,70434
 670,77; 3877,359;  254,214;42304,492; 8,61622
 671,34; 3874,174;  242,829;42208,070; 8,65322
 671,92; 3916,297;  232,214;42635,572; 8,68819
 672,49; 3913,343;  258,368;42667,920; 8,61828
 673,06; 3860,312;  202,444;42635,114; 8,62040
 673,64; 3888,204;  231,368;42700,461; 8,61058
 674,21; 3869,019;  228,137;42609,886; 8,59068
 674,79; 3943,450;  249,060;42890,311; 8,66389
 675,36; 3939,495;  255,906;42975,966; 8,62262
 675,93; 3905,157;  214,368;42917,237; 8,64295
 676,51; 3918,510;  257,060;43025,124; 8,56118
 677,08; 3916,864;  251,983;43040,702; 8,56506
 677,65; 3952,910;  256,752;43272,204; 8,59263
 678,23; 3970,879;  252,675;43462,936; 8,60491
 678,80; 3955,925;  246,137;43560,438; 8,56481
 679,38; 3950,124;  238,214;43675,940; 8,54536
 679,95; 4009,863;  255,983;43972,518; 8,58686
 680,52; 3969,908;  243,522;44151,789; 8,48675
 681,10; 4072,339;  266,445;44679,675; 8,56928
 681,67; 4080,077;  258,752;44925,254; 8,55524
 682,24; 4024,815;  222,214;44956,371; 8,50044
 682,82; 4092,400;  236,829;45528,796; 8,51270
 683,39; 4162,061;  280,214;45801,605; 8,52752
 683,96; 4157,568;  252,060;46075,414; 8,52296
 684,54; 4149,460;  225,060;46441,070; 8,49143
 685,11; 4247,429;  270,675;46745,956; 8,55671
 685,68; 4229,014;  238,906;47180,458; 8,50016
 686,25; 4228,060;  222,445;47207,498; 8,52530
 686,83; 4252,490;  225,829;47329,000; 8,54860
 687,40; 4271,998;  224,522;47665,886; 8,53153
 687,97; 4348,659;  266,599;48162,003; 8,52286
 688,55; 4299,089;  221,214;48141,505; 8,50970
 689,12; 4292,827;  205,291;48464,929; 8,46989
 689,69; 4314,566;  221,676;48479,431; 8,48131
 690,26; 4339,919;  241,676;48570,240; 8,47996
 690,84; 4346,888;  231,368;48818,896; 8,47032
 691,41; 4393,934;  239,599;48830,320; 8,54965
 691,98; 4393,672;  240,752;49118,591; 8,49653
 692,56; 4401,487;  229,214;49195,785; 8,52066
 693,13; 4491,149;  281,137;49234,749; 8,60000
 693,70; 4451,733;  247,522;49411,558; 8,55140
 694,27; 4435,471;  224,676;49584,367; 8,53084
 694,84; 4451,286;  226,599;49660,792; 8,54608
 695,42; 4517,255;  276,291;49738,524; 8,57415
 695,99; 4486,917;  240,599;50041,565; 8,52658
 696,56; 4493,578;  230,983;49822,989; 8,59533
 697,13; 4532,855;  251,522;50241,106; 8,56445
 697,71; 4517,977;  224,214;50276,993; 8,57847
 698,28; 4535,946;  233,368;50717,956; 8,52256
 698,85; 4539,300;  210,676;50624,227; 8,58623
 699,42; 4547,038;  210,137;50795,728; 8,57339
 699,99; 4575,315;  266,753;50976,999; 8,49643
 700,57; 4604,976;  247,906;50926,347; 8,59748
 701,14; 4590,714;  226,060;51028,464; 8,59143
 701,71; 4638,683;  245,445;51214,043; 8,61950
 702,28; 4631,806;  243,445;51274,390; 8,59941
 702,85; 4629,236;  254,676;51489,815; 8,53820
 703,43; 4675,898;  256,291;51675,163; 8,59530
 704,00; 4700,944;  276,907;51821,280; 8,58297
 704,57; 4678,913;  255,599;51809,012; 8,58006
 705,14; 4736,574;  290,830;52136,437; 8,57497
 705,71; 4711,697;  281,599;52095,785; 8,54997
 706,28; 4692,589;  260,676;52033,056; 8,56038
 706,86; 4764,558;  285,368;52219,096; 8,62482
 707,43; 4793,681;  317,060;52161,136; 8,63478
 708,00; 4743,265;  284,368;52207,869; 8,58743
 708,57; 4741,542;  261,984;52063,293; 8,64758
 709,14; 4771,357;  291,830;52260,256; 8,61971
 709,71; 4779,172;  259,137;52303,527; 8,68496
 710,28; 4810,679;  265,676;52506,952; 8,70002
 710,86; 4821,725;  276,137;52649,685; 8,67917
 711,43; 4889,232;  282,445;52711,955; 8,78663
 712,00; 4889,740;  261,984;52665,534; 8,83100
 712,57; 4917,632;  282,214;52900,113; 8,80958
 713,14; 4905,370;  260,061;52861,153; 8,83120
 713,71; 4926,801;  263,522;52892,808; 8,86062
 714,28; 4952,539;  250,599;52935,079; 8,92472
 714,85; 4927,585;  243,907;52642,965; 8,93848
 715,42; 4939,477;  241,753;52961,775; 8,91070
 716,00; 5043,446;  301,061;53003,353; 8,99844
 716,57; 5005,415;  241,061;53124,316; 9,00919
 717,14; 4990,922;  236,368;53061,972; 9,00047
 717,71; 4975,353;  220,138;53154,935; 8,98316
 718,28; 5099,014;  271,522;53179,821; 9,12426
 718,85; 5056,598;  234,830;53209,631; 9,10200
 719,42; 5091,875;  237,522;53375,440; 9,13538
 719,99; 5078,536;  220,907;53217,326; 9,16596
 720,56; 5162,351;  245,753;53485,367; 9,23485
 721,13; 5125,013;  226,830;53548,253; 9,18614
 721,70; 5148,212;  214,522;53383,601; 9,27925
 722,27; 5153,566;  254,984;53449,179; 9,20887
 722,84; 5285,919;  290,368;53625,296; 9,36638
 723,41; 5192,888;  219,292;53601,952; 9,31688
 723,98; 5209,550;  237,984;53809,223; 9,28029
 724,55; 5271,826;  271,753;53838,109; 9,33435
 725,12; 5224,872;  194,138;53899,611; 9,36727
 725,69; 5305,149;  222,599;53996,343; 9,45173
 726,27; 5309,195;  238,676;54020,691; 9,42791
 726,84; 5367,856;  237,215;54352,962; 9,48087
 727,41; 5400,287;  247,599;54325,310; 9,52830
 727,98; 5376,948;  253,522;54627,042; 9,42265
 728,55; 5458,301;  270,369;54566,774; 9,55484
 729,12; 5446,501;  219,830;54591,199; 9,61291
 729,69; 5487,239;  273,292;54819,855; 9,55871
 730,26; 5484,362;  249,599;54991,972; 9,56254
 730,82; 5483,177;  246,676;54801,858; 9,59854
 731,39; 5516,377;  243,445;54894,283; 9,64840
 731,96; 5560,654;  232,984;55116,169; 9,70729
 732,53; 5632,161;  244,215;55468,824; 9,75642
 733,10; 5640,592;  258,984;55492,711; 9,74334
 733,67; 5669,407;  244,599;55699,751; 9,78233
 734,24; 5629,683;  243,676;55432,099; 9,75931
 734,81; 5675,114;  270,369;55555,754; 9,77608
 735,38; 5666,698;  249,599;55315,256; 9,83753
 735,95; 5653,283;  240,676;55056,219; 9,87422
 736,52; 5705,098;  263,676;55354,336; 9,87721
 737,09; 5692,144;  261,599;54997,838; 9,92130
 737,66; 5725,497;  299,369;55233,109; 9,87759
 738,23; 5754,389;  250,215;55200,072;10,01672
 738,80; 5868,666;  305,599;55528,573;10,07383
 739,37; 5822,173;  286,523;55690,383; 9,99145
 739,94; 5816,373;  251,830;55706,423;10,03441
 740,51; 5955,188;  352,753;55704,078;10,12159
 741,07; 5842,080;  256,292;55709,349;10,07300
 741,64; 5901,588;  285,215;55927,697;10,09368
 742,21; 5906,172;  260,753;55903,353;10,14586
 742,78; 5911,218;  224,523;55704,931;10,24992
 743,35; 5966,648;  256,446;56020,510;10,23993
 743,92; 6020,233;  292,984;56187,781;10,24648
 744,49; 6061,125;  282,984;56069,821;10,35753
 745,06; 6018,786;  246,984;56056,707;10,34193
 745,63; 6018,063;  240,984;56037,055;10,35392
 746,19; 6045,570;  236,753;56016,326;10,41388
 746,76; 6082,539;  263,677;56017,520;10,43670
 747,33; 6115,277;  245,907;56044,021;10,51894
 747,90; 6177,323;  276,446;56258,908;10,54058
 748,47; 6150,600;  260,292;56098,563;10,54887
 749,04; 6184,107;  267,369;56140,065;10,58968
 749,61; 6244,076;  277,446;56087,874;10,69089
 750,17; 6229,814;  273,677;56126,453;10,66400
 750,74; 6269,706;  266,754;56050,339;10,76115
 751,31; 6250,829;  242,677;56038,379;10,76813
 751,88; 6264,414;  237,215;55875,804;10,83277
 752,45; 6268,998;  254,292;55955,306;10,79820
 753,02; 6324,044;  267,523;55796,423;10,90697
 753,58; 6256,244;  245,523;55712,924;10,83649
 754,15; 6321,443;  249,600;55850,580;10,92039
 754,72; 6347,412;  253,907;55587,620;11,01228
 755,29; 6285,612;  225,215;55477,429;10,96860
 755,86; 6341,427;  243,600;55599,392;11,01570
 756,42; 6388,011;  254,446;55484,202;11,10555
 756,99; 6414,211;  215,600;55437,396;11,22494
 757,56; 6426,180;  226,908;55457,897;11,22426
 758,13; 6416,534;  191,446;55448,784;11,26563
 758,70; 6481,041;  208,754;55384,285;11,36788
 759,26; 6498,856;  206,600;55497,633;11,38025
 759,83; 6560,518;  215,138;55651,904;11,44616
 760,40; 6526,025;  207,292;55360,559;11,45668
 760,97; 6556,379;  192,677;55437,446;11,51910
 761,53; 6569,963;  189,677;54953,794;11,65049
 762,10; 6539,932;  179,523;55044,218;11,59290
 762,67; 6589,362;  222,215;55154,181;11,59097
 763,24; 6503,793;  166,523;54675,760;11,62605
 763,80; 6571,762;  201,754;54842,877;11,65790
 764,37; 6600,269;  204,061;54755,379;11,72512
 764,94; 6539,469;  199,600;54295,573;11,71967
 765,50; 6566,669;  197,369;54383,382;11,75451
 766,07; 6603,792;  246,215;54367,653;11,74687
 766,64; 6553,991;  210,138;54001,770;11,79338
 767,21; 6600,653;  223,831;53891,656;11,88202
 767,77; 6646,852;  239,754;53840,927;11,95328
 768,34; 6600,129;  242,215;53776,737;11,87629
 768,91; 6681,867;  242,292;53575,084;12,07433
 769,47; 6691,913;  247,215;53579,817;12,08397
 770,04; 6695,651;  232,600;53440,011;12,14690
 770,61; 6653,466;  225,215;53255,435;12,12186
 771,18; 6707,820;  208,446;53085,091;12,29158
 771,74; 6704,789;  235,292;53323,285;12,18636
 772,31; 6760,912;  230,215;53058,940;12,36202
 772,88; 6680,881;  214,446;52707,750;12,31859
 773,44; 6703,311;  218,446;52618,482;12,37569
 774,01; 6725,742;  234,446;52727,599;12,36598
 774,58; 6694,557;  223,216;52399,947;12,40273
 775,14; 6771,526;  211,600;52576,064;12,52744
 775,71; 6745,802;  215,985;52494,797;12,49037
 776,27; 6810,310;  268,600;52398,067;12,54897
 776,84; 6890,356;  295,139;52499,492;12,63346
 777,41; 6795,479;  235,139;52180,071;12,62941
 777,97; 6770,294;  231,985;51969,342;12,63750
 778,54; 6798,186;  238,369;51924,766;12,69157
 779,11; 6848,155;  260,293;51930,191;12,74990
 779,67; 6874,585;  214,677;51953,308;12,87222
 780,24; 6830,016;  238,523;51668,887;12,81634
 780,80; 6898,985;  249,523;51699,773;12,92406
 781,37; 6877,800;  243,293;51610,659;12,91580
 781,94; 6873,076;  234,908;51420,238;12,96889
 782,50; 6916,045;  240,293;51404,739;13,04764
 783,07; 6929,399;  254,677;51467,472;13,03331
 783,63; 6936,676;  221,908;51216,358;13,16764
 784,20; 6966,721;  253,523;51172,475;13,18409
 784,77; 6954,767;  231,062;50910,054;13,26724
 785,33; 6942,890;  212,985;50735,940;13,32049
 785,90; 6958,705;  234,600;50656,749;13,33562
 786,46; 7036,136;  250,446;50620,020;13,47180
 787,03; 6973,028;  221,446;50350,599;13,46837
 787,59; 7038,535;  236,600;50371,947;13,56714
 788,16; 7063,812;  240,985;50292,141;13,63171
 788,73; 7063,396;  244,062;50144,565;13,66586
 789,29; 7047,134;  228,677;49801,529;13,75442
 789,86; 7081,873;  253,677;49716,876;13,80460
 790,42; 7090,226;  235,908;49448,378;13,92801
 790,99; 7032,272;  250,831;49178,649;13,86009
 791,55; 7067,626;  224,447;49200,535;13,97249
 792,12; 7145,595;  259,216;49231,883;14,06168
 792,68; 7087,179;  242,216;48849,846;14,08208
 793,25; 7116,533;  241,293;48615,886;14,21250
 793,81; 7190,348;  295,600;48344,542;14,34943
 794,38; 7001,624;  207,370;48147,736;14,17230
 794,94; 7057,209;  218,985;47935,007;14,33108
 795,51; 7033,024;  247,447;47653,431;14,31376
 796,07; 7042,762;  240,139;47466,087;14,40442
 796,64; 7095,116;  244,216;47469,204;14,50694
 797,20; 7038,777;  241,677;47105,552;14,50392
 797,77; 6992,284;  215,908;46680,823;14,58386
 798,33; 7011,638;  226,370;46547,632;14,64828
 798,90; 7027,530;  256,524;46521,903;14,63515
 799,46; 7002,653;  225,601;45897,789;14,83847
 800,03; 6979,776;  238,831;45879,368;14,76964
 800,59; 6987,821;  250,601;45703,177;14,82253
 801,15; 7005,021;  252,985;45521,910;14,91539
 801,72; 6924,682;  240,293;45155,334;14,88230
 802,28; 6937,728;  265,370;44877,221;14,95647
 802,85; 6930,543;  236,524;44621,338;15,08178
 803,41; 6923,666;  237,447;44556,762;15,08647
 803,98; 6857,251;  235,293;44047,418;15,11444
 804,54; 6874,143;  233,524;43920,766;15,20036
 805,11; 6885,112;  241,139;43638,113;15,30976
 805,67; 6825,157;  261,216;43593,461;15,14794
 806,23; 6767,357;  241,216;43168,732;15,20270
 806,80; 6851,403;  247,985;43040,695;15,43117
 807,36; 6792,757;  257,447;43046,812;15,27321
 807,93; 6786,495;  278,985;42722,237;15,33226
 808,49; 6755,156;  222,216;42402,585;15,48811
 809,05; 6768,125;  207,601;42154,087;15,64022
 809,62; 6747,402;  251,524;42141,511;15,50699
 810,18; 6762,909;  246,755;42042,551;15,59045
 810,74; 6708,724;  216,985;41760,822;15,62624
 811,31; 6728,693;  210,601;41524,709;15,77692
 811,87; 6720,970;  234,524;41277,903;15,80388
 812,44; 6754,785;  254,524;41479,250;15,76787
 813,00; 6675,908;  192,293;41034,598;15,87475
 813,56; 6715,877;  243,139;41162,484;15,81828
 814,13; 6724,154;  233,985;41008,448;15,91724
 814,69; 6691,815;  236,062;40900,949;15,87550
 815,25; 6642,399;  207,139;40381,066;16,01850
 815,82; 6666,830;  240,755;40351,491;16,02084
 816,38; 6718,645;  268,601;40127,762;16,18209
 816,94; 6587,075;  215,062;39958,802;16,03275
 817,51; 6594,352;  212,524;39646,535;16,18356
 818,07; 6595,782;  218,909;39392,882;16,27834
 818,63; 6570,521;  231,755;39210,307;16,26219
 819,20; 6563,490;  227,524;39112,270;16,29422
 819,76; 6506,843;  214,909;38788,849;16,31136
 820,32; 6549,812;  256,139;38646,966;16,39369
 820,89; 6534,627;  247,370;38460,391;16,45318
 821,45; 6484,442;  214,986;38189,431;16,50967
 822,01; 6516,796;  233,216;37871,086;16,69483
 822,57; 6485,534;  241,063;37855,280;16,60136
 823,14; 6431,042;  211,293;37486,167;16,68617
 823,70; 6413,164;  219,293;37306,745;16,70072
 824,26; 6390,133;  214,139;37121,939;16,73357
 824,82; 6434,795;  236,524;37027,441;16,84728
 825,39; 6381,379;  214,370;36749,481;16,87968
 825,95; 6449,579;  244,063;36730,752;17,00762
 826,51; 6415,471;  232,755;36361,330;17,11309
 827,08; 6441,901;  261,986;36483,217;17,06158
 827,64; 6433,793;  243,140;36268,334;17,18423
 828,20; 6349,685;  212,370;35898,143;17,19821
 828,76; 6381,270;  253,986;35886,029;17,19599
 829,32; 6396,700;  257,370;35756,454;17,29433
 829,89; 6320,208;  214,293;35706,186;17,20369
 830,45; 6345,715;  239,140;35627,303;17,25598
 831,01; 6340,222;  225,370;35479,190;17,34522
 831,57; 6345,499;  229,986;35345,230;17,41555
 832,14; 6297,160;  211,140;35348,655;17,32058
 832,70; 6276,360;  210,447;35060,695;17,40565
 833,26; 6261,175;  206,678;34902,889;17,45002
 833,82; 6353,990;  235,063;34895,467;17,65394
 834,38; 6296,652;  209,909;34862,200;17,56520
 834,95; 6297,082;  208,063;34716,471;17,64503
 835,51; 6278,359;  186,217;34589,818;17,70786
 836,07; 6357,712;  221,370;34684,397;17,80558
 836,63; 6395,220;  247,909;34621,206;17,88397
 837,19; 6411,804;  234,524;34434,862;18,06204
 837,75; 6356,927;  190,217;34086,287;18,19299
 838,32; 6411,434;  249,371;34296,327;18,09872
 838,88; 6437,788;  242,447;34342,905;18,16791
 839,44; 6492,295;  229,217;34228,561;18,42118
 840,00; 6482,187;  220,217;34125,293;18,46912
 840,56; 6398,233;  212,294;33756,487;18,44116
 841,12; 6438,818;  207,601;33786,296;18,55705
 841,68; 6373,017;  198,140;33638,490;18,46535
 842,25; 6437,909;  209,371;33518,838;18,69900
 842,81; 6387,725;  211,678;33322,032;18,65292
 843,37; 6411,924;  207,601;33416,226;18,68287
 843,93; 6441,893;  215,140;33342,497;18,79641
 844,49; 6450,555;  230,678;33339,999;18,78588
 845,05; 6421,447;  189,140;33131,347;18,91891
 845,61; 6523,800;  237,524;33205,002;19,06811
 846,17; 6499,461;  208,294;33015,658;19,17608
 846,73; 6456,815;  217,217;33016,775;19,02342
 847,29; 6437,092;  200,525;32860,661;19,09535
 847,86; 6430,830;  207,217;32722,009;19,14087
 848,42; 6418,491;  196,140;32543,203;19,23622
 848,98; 6445,922;  216,678;32561,858;19,25864
 849,54; 6438,814;  199,755;32552,283;19,28461
 850,10; 6499,398;  224,755;32341,708;19,53686
 850,66; 6433,059;  201,063;32299,517;19,41525
 851,22; 6442,721;  193,832;32128,403;19,56779
 851,78; 6511,074;  247,832;32229,674;19,58374
 852,34; 6412,197;  222,755;31870,637;19,55721
 852,90; 6427,320;  213,602;31847,831;19,64239
 853,46; 6423,289;  204,294;31624,410;19,79304
 854,02; 6434,258;  213,678;31638,450;19,79515
 854,58; 6375,457;  204,678;31429,105;19,76267
 855,14; 6357,811;  201,986;31338,761;19,77027
 855,70; 6336,472;  176,755;31218,416;19,84339
 856,26; 6396,057;  235,371;31233,534;19,87436
 856,82; 6367,256;  203,371;30950,574;20,04698
 857,38; 6407,225;  242,217;30908,614;20,10346
 857,94; 6372,271;  209,986;30828,577;20,12596
 858,50; 6416,086;  226,294;30618,617;20,36630
 859,06; 6345,517;  202,448;30493,426;20,28019
 859,62; 6359,793;  218,602;30468,390;20,30160
 860,18; 6324,070;  212,986;30324,584;20,29478
 860,74; 6318,885;  181,909;30105,547;20,50879
 861,30; 6300,547;  194,217;29888,125;20,56425
 861,86; 6396,208;  241,679;30023,935;20,66509
 862,42; 6298,254;  212,679;29767,821;20,59058
 862,98; 6331,761;  233,679;29734,476;20,67091
 863,54; 6312,576;  222,756;29541,209;20,77129
 864,10; 6352,237;  220,525;29542,249;20,91184
 864,66; 6255,745;  201,140;29320,905;20,79208
 865,22; 6298,945;  212,602;29224,714;20,97863
 865,78; 6271,375;  228,217;29105,677;20,92690
 866,34; 6257,575;  205,140;29035,333;20,99339
 866,90; 6267,852;  218,679;28876,911;21,10798
 867,45; 6250,436;  216,525;28690,105;21,19126
 868,01; 6229,097;  223,756;28554,145;21,19753
 868,57; 6152,758;  204,910;28341,955;21,13885
 869,13; 6155,650;  194,525;28286,995;21,21966
 869,69; 6184,543;  204,294;28199,343;21,36181
 870,25; 6107,281;  197,602;28030,152;21,23298
 870,81; 6132,404;  210,525;27974,346;21,32948
 871,37; 6100,219;  215,679;27896,617;21,25846
 871,93; 6089,957;  229,910;27765,580;21,28166
 872,49; 6130,157;  239,987;27545,697;21,57120
 873,04; 6006,049;  197,833;27359,506;21,38387
 873,60; 6028,710;  200,602;27265,546;21,53379
 874,16; 6049,833;  224,910;27204,048;21,59047
 874,72; 6025,833;  203,910;27066,048;21,67334
 875,28; 6014,140;  218,910;27009,971;21,63121
 875,84; 6020,833;  216,833;26925,510;21,73077
 876,40; 6024,294;  209,756;26853,587;21,82321
 876,95; 6018,448;  219,833;26916,356;21,72049
 877,51; 6067,294;  234,833;26936,817;21,84280
 878,07; 6088,833;  242,833;26841,817;21,97828
 878,63; 6048,294;  211,910;26853,587;21,90697
 879,19; 6087,217;  230,448;26860,279;21,99326
 879,75; 6075,063;  209,910;26893,740;21,98018
 880,30; 6134,756;  209,756;26889,971;22,20747
 880,86; 6186,602;  243,833;27000,202;22,21067
 881,42; 6179,833;  192,525;27050,202;22,29272
 881,98; 6235,756;  226,756;27168,048;22,30405
 882,54; 6230,833;  211,525;27217,663;22,28866
 883,09; 6281,987;  227,756;27339,279;22,33084
 883,65; 6297,371;  197,602;27335,202;22,47719
 884,21; 6413,910;  238,987;27546,587;22,61247
 884,77; 6378,833;  211,217;27684,202;22,44975
 885,32; 6420,910;  213,756;27806,202;22,49584
 885,88; 6521,371;  241,679;27903,587;22,70159
 886,44; 6481,987;  225,140;27971,202;22,55039
 887,00; 6534,756;  228,140;27985,048;22,72089
 887,56; 6586,602;  213,910;28107,048;22,84681
 888,11; 6589,294;  212,602;28153,740;22,82188
 888,67; 6666,140;  250,371;28319,202;22,85727
 889,23; 6670,910;  220,987;28304,202;22,96718
 889,79; 6596,910;  195,294;28167,279;22,88581
 890,34; 6668,679;  221,448;28126,510;23,10416
 890,90; 6764,602;  274,448;28239,510;23,20808
 891,46; 6718,833;  206,756;28133,894;23,31810
 892,01; 6692,217;  235,910;28142,202;23,13567
 892,57; 6745,679;  242,525;28027,433;23,40535
 893,13; 6656,294;  214,371;27874,510;23,28955
 893,69; 6659,987;  206,679;27834,433;23,35806
 894,24; 6652,525;  209,833;27745,433;23,39768
 894,80; 6672,371;  209,756;27656,048;23,54641
 895,36; 6640,448;  214,679;27516,279;23,53624
 895,91; 6620,217;  217,833;27286,202;23,65264
 896,47; 6622,448;  232,140;27175,510;23,71755
 897,03; 6552,987;  213,679;26974,740;23,68855
 897,58; 6515,371;  228,679;26837,587;23,62627
 898,14; 6505,448;  227,679;26705,740;23,70932
 898,70; 6483,140;  196,140;26521,433;23,88198
 899,25; 6514,910;  210,294;26541,740;23,94329
 899,81; 6496,602;  217,371;26378,202;24,00241
 900,37; 6444,371;  187,525;26079,894;24,16483
 900,92; 6453,525;  213,525;26093,048;24,11173
 901,48; 6408,756;  209,602;26053,279;23,98712
 902,03; 6424,525;  210,140;25818,740;24,26679
 902,59; 6406,987;  213,602;25710,510;24,29073
 903,15; 6433,987;  228,140;25576,202;24,48253
 903,70; 6337,756;  220,602;25382,587;24,31109
 904,26; 6353,679;  197,756;25265,356;24,55729
 904,82; 6373,679;  209,371;25302,202;24,56601
 905,37; 6336,525;  222,140;25079,510;24,59788
 905,93; 6285,910;  211,448;24944,971;24,55963
 906,48; 6362,987;  218,140;24824,279;24,97282
 907,04; 6318,679;  226,833;24824,740;24,76571
 907,60; 6296,602;  205,448;24573,356;24,99662
 908,15; 6248,910;  193,294;24495,202;24,91827
 908,71; 6272,063;  234,140;24481,587;24,90127
 909,26; 6278,217;  212,602;24315,048;25,16597
 909,82; 6258,987;  227,217;24178,433;25,18356
 910,37; 6317,602;  248,217;24143,433;25,40000
 910,93; 6191,217;  211,140;23932,356;25,20983
 911,48; 6178,140;  195,987;23748,740;25,39896
 912,04; 6128,217;  204,371;23688,894;25,22447
 912,60; 6161,679;  218,063;23709,663;25,30102
 913,15; 6111,371;  212,217;23494,202;25,33785
 913,71; 6015,679;  200,602;23282,587;25,19314
 914,26; 6071,217;  192,525;23220,817;25,52813
 914,82; 6054,833;  218,602;23132,510;25,47026
 915,37; 6049,525;  197,217;23068,587;25,58792
 915,93; 6074,602;  254,371;23015,663;25,57074
 916,48; 6023,140;  202,217;22835,894;25,71797
 917,04; 6009,833;  227,910;22721,510;25,70475
 917,59; 6006,756;  232,525;22648,433;25,75952
 918,15; 5932,987;  183,910;22479,740;25,78543
 918,70; 5926,679;  201,294;22344,510;25,85616
 919,26; 5953,063;  216,756;22277,663;26,00214
 919,81; 5896,987;  195,448;22119,125;26,00631
 920,37; 5890,679;  191,063;21986,587;26,15040
 920,92; 5900,756;  227,987;22000,202;26,05509
 921,48; 5838,217;  192,294;21781,971;26,15103
 922,03; 5830,679;  203,063;21755,202;26,11163
 922,59; 5836,294;  198,910;21551,356;26,40159
 923,14; 5810,063;  200,294;21536,971;26,29167
 923,69; 5845,294;  228,987;21373,510;26,56152
 924,25; 5870,448;  231,294;21373,279;26,67277
 924,80; 5786,910;  210,833;21137,125;26,64627
 925,36; 5743,525;  205,371;21097,433;26,50841
 925,91; 5783,910;  207,987;20935,202;26,90146
 926,47; 5724,294;  187,910;20840,663;26,80700
 927,02; 5834,217;  253,063;20835,817;27,11568
 927,57; 5682,756;  199,602;20660,740;26,79789
 928,13; 5705,679;  186,371;20612,663;27,02060
 928,68; 5666,602;  202,448;20522,587;26,89034
 929,24; 5629,987;  168,448;20419,663;26,96894
 929,79; 5622,448;  192,987;20219,971;27,11073
 930,34; 5618,140;  203,910;20070,894;27,25240
 930,90; 5593,756;  199,140;20103,587;27,10256
 931,45; 5584,602;  208,448;20063,971;27,07636
 932,01; 5576,140;  207,294;19824,894;27,36750
 932,56; 5557,833;  221,987;19795,894;27,25999
 933,11; 5566,602;  226,833;19744,663;27,35842
 933,67; 5514,910;  195,833;19569,740;27,45485
 934,22; 5537,063;  203,294;19479,663;27,66999
 934,77; 5525,987;  232,217;19436,202;27,56599
 935,33; 5463,833;  214,525;19295,279;27,51101
 935,88; 5482,910;  217,063;19181,510;27,76694
 936,43; 5443,525;  193,371;19164,663;27,67420
 936,99; 5454,679;  211,063;19027,510;27,86719
 937,54; 5364,833;  184,140;18841,894;27,76697
 938,09; 5385,140;  208,602;18791,740;27,85610
 938,65; 5402,448;  209,294;18645,817;28,16775
 939,20; 5326,987;  183,294;18601,740;27,92685
 939,75; 5353,910;  189,525;18505,356;28,19629
 940,31; 5298,756;  185,448;18393,971;28,08195
 940,86; 5365,140;  209,756;18389,048;28,35856
 941,41; 5388,448;  261,063;18269,817;28,47162
 941,96; 5298,910;  201,910;18149,433;28,39946
 942,52; 5242,602;  202,294;18048,125;28,24361
 943,07; 5221,756;  182,910;17949,125;28,36196
 943,62; 5204,294;  199,525;17862,740;28,33442
 944,18; 5198,756;  198,987;17755,663;28,47788
 944,73; 5197,910;  209,371;17721,510;28,48618
 945,28; 5111,371;  172,910;17468,510;28,55328
 945,83; 5164,756;  192,910;17503,740;28,72101
 946,39; 5149,525;  190,910;17489,740;28,66445
 946,94; 5162,602;  218,063;17365,510;28,83542
 947,49; 5114,294;  202,756;17228,740;28,84731
 948,04; 5177,371;  222,756;17257,663;29,08507
 948,59; 5122,756;  224,448;17127,510;28,97882
 949,15; 5071,140;  181,987;17016,356;29,04269
 949,70; 5032,833;  203,602;16957,587;28,82437
 950,25; 5035,910;  216,063;16872,894;28,93615
 950,80; 4987,910;  170,140;16704,125;29,13859
 951,36; 5009,063;  166,602;16642,279;29,39158
 951,91; 5056,910;  215,756;16653,279;29,45185
 952,46; 4960,910;  188,217;16474,125;29,30566
 953,01; 5008,140;  211,756;16479,279;29,48442
 953,56; 4985,140;  182,217;16339,663;29,72576
 954,11; 4977,525;  208,217;16342,971;29,55922
 954,67; 4957,294;  186,602;16240,433;29,71685
 955,22; 4924,371;  165,140;16065,125;29,93230
 955,77; 4952,448;  227,371;16076,510;29,81283
 956,32; 4981,525;  233,525;15970,125;30,17170
 956,87; 4866,602;  188,217;15816,356;29,93565
 957,42; 4839,525;  199,448;15744,202;29,84979
 957,98; 4862,448;  195,525;15677,125;30,14497
 958,53; 4889,140;  216,679;15685,894;30,20490
 959,08; 4803,833;  190,756;15538,048;30,05792
 959,63; 4807,371;  185,140;15422,356;30,33514
 960,18; 4833,833;  204,063;15400,817;30,46551
 960,73; 4805,525;  202,756;15353,048;30,38073
 961,28; 4738,525;  188,371;15228,510;30,25340
 961,83; 4756,679;  205,525;15224,510;30,30267
 962,39; 4685,756;  184,602;15026,894;30,32654
 962,94; 4701,679;  217,756;14998,510;30,33623
 963,49; 4646,525;  202,756;14846,048;30,34679
 964,04; 4669,756;  212,063;14804,971;30,54698
 964,59; 4623,756;  170,140;14735,356;30,57707
 965,14; 4627,525;  214,140;14637,740;30,59836
 965,69; 4628,217;  204,525;14532,356;30,87482
 966,24; 4566,140;  189,910;14443,894;30,70181
 966,79; 4606,679;  215,217;14397,125;30,96524
 967,34; 4483,833;  169,448;14195,587;30,75960
 967,89; 4495,679;  195,679;14179,048;30,75081
 968,44; 4478,063;  205,294;14128,740;30,68758
 968,99; 4488,217;  210,679;14066,740;30,87124
 969,55; 4471,679;  202,910;13953,817;31,04355
 970,10; 4428,294;  205,756;13867,587;30,90756
 970,65; 4442,679;  216,217;13742,587;31,24609
 971,20; 4398,910;  194,140;13683,510;31,17098
 971,75; 4365,217;  175,833;13469,356;31,51448
 972,30; 4342,063;  200,525;13451,663;31,25421
 972,85; 4353,217;  191,756;13365,125;31,58996
 973,40; 4295,756;  191,756;13249,663;31,42923
 973,95; 4297,910;  202,140;13220,740;31,46090
 974,50; 4302,833;  223,448;13146,894;31,56576
 975,05; 4267,140;  201,756;13000,279;31,76448
 975,60; 4267,217;  215,140;12978,894;31,74675
 976,15; 4248,140;  191,833;12840,663;32,06864
 976,70; 4244,679;  203,063;12794,356;32,09850
 977,25; 4222,833;  212,833;12717,817;32,06721
 977,80; 4155,217;  194,679;12616,433;31,88389
 978,35; 4129,448;  218,448;12468,048;31,92757
 978,89; 4071,140;  186,679;12345,510;31,94766
 979,44; 4086,833;  197,756;12355,971;31,98723
 979,99; 4061,063;  186,910;12160,510;32,35580
 980,54; 4077,525;  227,987;12152,356;32,28295
 981,09; 4063,294;  219,140;12073,433;32,42837
 981,64; 4019,833;  206,833;11907,663;32,58743
 982,19; 4008,833;  235,910;11902,510;32,33953
 982,74; 3993,833;  214,987;11733,971;32,80538
 983,29; 3919,217;  191,756;11599,356;32,67525
 983,84; 3913,987;  209,525;11474,202;32,88564
 984,39; 4015,679;  262,833;11432,587;33,59829
 984,94; 3856,602;  178,294;11322,971;33,00506
 985,49; 3852,217;  231,679;11240,587;32,88735
 986,03; 3843,525;  225,217;11184,587;33,01566
 986,58; 3826,833;  245,448;11041,740;33,17236
 987,13; 3768,756;  207,910;10894,587;33,32042
 987,68; 3736,217;  222,140;10822,125;33,15172
 988,23; 3738,371;  221,063;10802,048;33,24178
 988,78; 3691,679;  193,063;10655,433;33,43999
 989,33; 3688,525;  216,833;10548,125;33,60366
 989,88; 3662,448;  224,756;10489,740;33,48950
 990,42; 3622,294;  210,679;10372,433;33,57310
 990,97; 3600,140;  210,833;10237,356;33,80342
 991,52; 3561,294;  229,140;10154,125;33,57339
 992,07; 3566,371;  237,910;10121,663;33,67609
 992,62; 3518,679;  222,448; 9972,356;33,80782
 993,17; 3507,679;  221,448; 9894,663;33,97248
 993,71; 3501,679;  222,756; 9765,433;34,36062
 994,26; 3414,063;  201,371; 9678,125;33,90077
 994,81; 3445,756;  221,140; 9602,510;34,37255
 995,36; 3399,987;  204,371; 9478,894;34,45585
 995,91; 3375,448;  217,679; 9431,356;34,27263
 996,45; 3325,833;  205,140; 9270,279;34,42520
 997,00; 3274,294;  189,987; 9123,740;34,52421
 997,55; 3323,294;  216,987; 9109,587;34,93138
 998,10; 3292,140;  242,756; 8988,433;34,86734
 998,65; 3222,833;  204,140; 8947,356;34,52611
 999,19; 3179,756;  221,371; 8811,663;34,43870
 999,74; 3189,140;  236,987; 8739,510;34,72092
1000,29; 3148,140;  226,294; 8655,202;34,66459
1000,84; 3069,371;  201,679; 8495,894;34,57461
1001,38; 3078,294;  213,217; 8413,971;34,93675
1001,93; 3061,448;  229,910; 8355,356;34,84779
1002,48; 2977,833;  204,448; 8209,125;34,64705
1003,03; 2987,448;  223,910; 8186,894;34,70481
1003,57; 2960,679;  227,833; 8108,663;34,67713
1004,12; 2978,987;  256,371; 7949,048;35,39230
1004,67; 2890,679;  210,602; 7886,356;34,91614
1005,22; 2833,294;  205,448; 7729,125;34,92768
1005,76; 2773,294;  197,833; 7624,356;34,67924
1006,31; 2781,371;  228,217; 7583,894;34,70998
1006,86; 2741,448;  215,140; 7489,663;34,72816
1007,40; 2698,448;  202,602; 7323,587;35,04917
1007,95; 2688,448;  223,910; 7254,587;35,05407
1008,50; 2616,679;  215,910; 7108,048;34,83344
1009,04; 2602,756;  211,987; 7077,894;34,82088
1009,59; 2565,987;  215,525; 6945,279;34,92641
1010,14; 2536,448;  191,063; 6864,587;35,14462
1010,68; 2510,987;  202,217; 6776,971;35,11568
1011,23; 2453,371;  211,987; 6622,356;34,96498
1011,78; 2447,910;  223,525; 6594,279;34,91556
1012,32; 2466,063;  225,910; 6476,740;35,83770
1012,87; 2418,525;  240,063; 6461,279;35,01666
1013,42; 2371,140;  198,602; 6310,740;35,54465
1013,96; 2403,756;  235,063; 6342,587;35,50854
1014,51; 2330,910;  176,679; 6239,510;35,53176
1015,06; 2339,756;  194,294; 6241,663;35,47760
1015,60; 2409,525;  250,756; 6316,817;35,58766
1016,15; 2327,602;  204,140; 6243,894;35,15808
1016,69; 2382,140;  205,371; 6311,587;35,64842
1017,24; 2350,602;  193,371; 6283,202;35,42349
1017,79; 2418,756;  236,756; 6368,663;35,58436
1018,33; 2382,371;  201,063; 6299,663;35,76735
1018,88; 2388,910;  222,679; 6390,048;35,12406
1019,42; 2392,679;  206,987; 6383,202;35,38886
1019,97; 2388,448;  202,525; 6343,279;35,59698
1020,51; 2466,448;  224,679; 6435,125;36,09675
1021,06; 2383,833;  196,679; 6409,048;35,20644
1021,61; 2370,140;  177,525; 6367,587;35,42154
1022,15; 2371,140;  168,140; 6285,279;36,01357
1022,70; 2361,602;  201,987; 6293,663;35,45190
1023,24; 2355,987;  194,217; 6266,125;35,60280
1023,79; 2320,525;  207,602; 6194,279;35,29375
1024,33; 2329,679;  189,140; 6167,740;35,80334
1024,88; 2320,987;  221,371; 6046,740;36,04261
1025,42; 2283,217;  211,140; 5985,356;35,88500
1025,97; 2221,063;  199,833; 5905,663;35,42395
1026,51; 2189,448;  176,063; 5792,817;35,84605
1027,06; 2183,371;  192,217; 5716,433;36,04410
1027,60; 2149,448;  216,217; 5660,356;35,51032
1028,15; 2148,525;  214,910; 5538,048;36,32472
1028,69; 2062,371;  173,602; 5427,894;35,94717
1029,24; 2047,833;  187,294; 5382,663;35,81148
1029,78; 2016,987;  189,910; 5295,048;35,78898
1030,33; 1990,679;  178,679; 5186,817;36,18111
1030,87; 1978,602;  195,679; 5110,356;36,27752
1031,42; 1914,679;  175,833; 5040,510;35,74433
1031,96; 1943,602;  207,525; 4971,587;36,44111
1032,51; 1926,602;  184,833; 4889,202;37,02450
1033,05; 1901,140;  204,679; 4859,971;36,44157
1033,60; 1847,371;  165,525; 4725,971;36,87898
1034,14; 1842,987;  191,679; 4665,971;36,90657
1034,69; 1835,756;  202,140; 4596,433;37,17585
1035,23; 1791,525;  195,987; 4562,356;36,54154
1035,77; 1801,679;  190,448; 4520,048;37,21431
1036,32; 1731,140;  169,525; 4409,433;36,83135
1036,86; 1744,679;  201,679; 4379,817;36,93032
1037,41; 1731,140;  205,756; 4278,279;37,45552
1037,95; 1678,602;  181,679; 4218,971;37,07740
1038,50; 1670,602;  187,217; 4162,510;37,31511
1039,04; 1695,833;  213,910; 4120,587;37,93308
1039,58; 1630,063;  186,140; 4047,740;37,39183
1040,13; 1629,679;  197,525; 3989,048;37,77252
1040,67; 1637,294;  229,448; 3970,817;37,62917
1041,21; 1622,987;  213,140; 3912,740;38,10807
1041,76; 1550,294;  179,679; 3816,356;37,68868
1042,30; 1574,910;  204,063; 3788,125;38,24840
1042,85; 1533,371;  200,448; 3725,971;37,80781
1043,39; 1510,602;  166,910; 3647,125;38,60946
1043,93; 1522,140;  211,217; 3640,894;38,22293
1044,48; 1489,063;  215,679; 3562,663;38,04573
1045,02; 1452,448;  197,525; 3481,279;38,21611
1045,56; 1465,756;  215,294; 3502,971;38,03481
1046,11; 1424,833;  206,756; 3442,894;37,63983
1046,65; 1424,140;  208,448; 3371,663;38,43217
1047,19; 1395,833;  188,063; 3327,279;38,47360
1047,74; 1373,910;  184,833; 3238,510;38,93919
1048,28; 1379,987;  201,910; 3227,279;38,93994
1048,82; 1375,294;  212,833; 3210,510;38,77875
1049,37; 1370,371;  214,602; 3148,048;39,39971
1049,91; 1337,140;  197,756; 3114,433;39,06448
1050,45; 1312,371;  219,140; 3066,971;38,38819
1050,99; 1305,448;  201,294; 3028,587;39,05340
1051,54; 1274,371;  197,756; 2964,587;38,91150
1052,08; 1302,448;  220,217; 2919,125;40,09884
1052,62; 1266,063;  211,756; 2906,356;39,12669
1053,16; 1224,910;  191,525; 2845,894;38,93146
1053,71; 1242,140;  203,756; 2818,202;39,71719
1054,25; 1225,140;  216,371; 2767,125;39,54789
1054,79; 1206,987;  212,910; 2723,048;39,60247
1055,33; 1155,679;  177,602; 2670,279;39,23801
1055,88; 1179,833;  215,371; 2668,587;39,31418
1056,42; 1173,679;  222,987; 2646,817;39,22272
1056,96; 1174,294;  217,140; 2583,048;40,45609
1057,50; 1125,602;  211,371; 2545,433;39,16909
1058,05; 1113,602;  200,987; 2502,356;39,65532
1058,59; 1136,756;  229,294; 2489,279;40,15344
1059,13; 1087,140;  186,525; 2424,894;40,23534
1059,67; 1108,756;  224,448; 2421,433;40,25097
1060,21; 1071,217;  213,063; 2344,817;40,25577
1060,76; 1079,448;  221,602; 2316,433;40,95062
1061,30; 1069,987;  226,910; 2312,279;40,42818
1061,84; 1043,910;  213,448; 2244,202;40,89425
1062,38; 1000,756;  192,063; 2193,048;40,41472
1062,92; 1069,371;  240,910; 2237,279;41,49841
1063,46; 1010,910;  224,679; 2158,433;40,65827
1064,01;  986,371;  204,217; 2134,894;40,51190
1064,55; 1006,140;  213,140; 2102,048;41,98194
1065,09;  939,448;  185,063; 2060,048;40,23418
1065,63;  975,217;  239,140; 2071,202;40,17752
1066,17;  975,371;  242,217; 2045,971;40,64600
1066,71;  954,987;  226,217; 2023,587;40,54644
1067,25;  936,448;  211,294; 1967,433;41,29252
1067,80;  918,833;  219,679; 1961,433;40,14080
1068,34;  951,756;  242,756; 1928,971;42,04682
1068,88;  880,910;  201,448; 1891,510;40,20336
1069,42;  920,679;  241,294; 1921,433;40,43623
1069,96;  880,833;  200,217; 1850,279;41,24788
1070,50;  917,063;  241,910; 1861,433;41,68844
1071,04;  855,217;  192,756; 1814,817;40,84072
1071,58;  843,140;  210,602; 1809,510;39,56066
1072,12;  852,910;  207,987; 1767,971;41,34163
1072,66;  845,987;  205,602; 1757,356;41,26844
1073,21;  852,602;  228,371; 1752,202;40,96457
1073,75;  836,217;  226,602; 1707,202;41,17354
1074,29;  815,448;  218,371; 1684,433;40,72659
1074,83;  834,140;  233,140; 1701,125;40,94048
1075,37;  830,371;  230,525; 1658,202;42,01554
1075,91;  812,679;  224,987; 1647,663;41,30891
1076,45;  806,294;  217,063; 1628,894;41,73523
1076,99;  798,987;  236,756; 1589,125;41,57376
1077,53;  758,063;  206,525; 1573,971;40,33347
1078,07;  774,910;  222,525; 1573,433;40,88989
1078,61;  772,756;  217,833; 1538,894;42,00585
1079,15;  759,679;  212,525; 1524,663;41,69940
1079,69;  739,756;  216,140; 1491,433;41,05846
1080,23;  775,217;  233,833; 1482,587;43,35399
1080,77;  803,833;  267,910; 1506,048;43,28458
1081,31;  718,294;  213,679; 1440,894;41,11873
1081,85;  741,371;  224,602; 1452,048;42,10117
1082,39;  713,987;  209,294; 1414,663;41,87035
1082,93;  730,217;  221,063; 1410,894;42,79212
1083,47;  697,371;  196,140; 1361,971;42,99344
1084,01;  723,371;  236,140; 1391,587;42,16819
1084,55;  697,217;  209,987; 1330,510;43,48244
1085,09;  696,987;  230,448; 1354,202;41,51607
1085,63;  692,063;  214,371; 1322,894;43,09268
1086,17;  688,679;  212,679; 1282,433;44,49622
1086,71;  667,217;  213,910; 1289,356;42,15066
1087,24;  686,756;  232,140; 1300,663;42,54615
1087,78;  700,140;  224,833; 1273,817;45,31122
1088,32;  645,987;  215,217; 1228,202;42,52476
1088,86;  675,525;  241,987; 1251,202;42,95797
1089,40;  658,602;  217,602; 1222,433;43,88799
1089,94;  628,910;  195,833; 1181,433;43,94043
1090,48;  621,448;  226,833; 1185,279;41,17241
1091,02;  655,448;  232,833; 1181,587;44,54426
1091,56;  633,448;  218,756; 1171,971;43,50458
1092,10;  614,294;  200,217; 1147,971;43,69034
1092,63;  641,217;  234,987; 1154,740;44,16734
1093,17;  632,987;  233,294; 1125,587;44,79388
1093,71;  601,833;  209,294; 1113,279;43,42314
1094,25;  621,987;  235,448; 1131,817;43,12268
1094,79;  599,756;  218,371; 1087,048;43,90408
1095,33;  601,063;  220,679; 1067,279;44,93085
1095,87;  593,679;  228,448; 1063,817;43,72088
1096,40;  548,525;  198,679; 1024,663;42,35504
1096,94;  590,217;  216,987; 1045,894;45,02682
1097,48;  583,602;  219,833; 1024,048;45,23281
1098,02;  565,140;  211,371; 1015,894;43,97254
1098,56;  536,525;  189,679;  980,048;43,88407
1099,10;  531,294;  185,833;  971,894;43,94841
1099,63;  533,448;  200,987;  948,587;44,47051
1100,17;  558,140;  222,602;  979,433;44,33467
1100,71;  580,756;  243,140;  987,433;45,36059

