
Integration time [ms]: 160,000
Averaging Nr. [scans]: 13
Smoothing Nr. [pixels]: 0
Data measured with spectrometer [name]: 2009305U1
Wave   ;Sample   ;Dark     ;Reference;Reflectance
[nm]   ;[counts] ;[counts] ;[counts] ;[%]

 175,72;  207,304;  192,833;  205,653;112,87875
 176,32;  230,040;  215,986;  216,813; 0,00000
 176,92;  267,169;  247,602;  254,971;265,53020
 177,52;  273,203;  255,679;  265,678;175,26849
 178,12;  245,662;  239,756;  224,864; 0,00000
 178,72;  273,680;  257,525;  250,340; 0,00000
 179,32;  263,264;  248,909;  241,998; 0,00000
 179,92;  255,950;  247,063;  242,319; 0,00000
 180,52;  251,293;  235,064;  254,068;85,39844
 181,12;  259,255;  243,833;  252,404;179,92052
 181,73;  279,906;  258,371;  266,338;270,31647
 182,33;  380,293;  327,141;  336,927;543,15385
 182,93;  282,019;  265,064;  266,645;1072,03892
 183,53;  252,739;  233,755;  224,030; 0,00000
 184,13;  235,580;  236,909;  229,431; 0,00000
 184,73;  294,159;  266,448;  273,739;380,07363
 185,33;  255,122;  232,445;  341,197;20,85241
 185,93;  273,409;  226,213;  348,375;38,63388
 186,53;  289,549;  244,675;  370,650;35,62146
 187,13;  308,691;  273,291;  414,063;25,14701
 187,73;  261,706;  243,598;  361,495;15,35884
 188,33;  261,304;  237,983;  370,649;17,57944
 188,93;  279,135;  250,059;  374,130;23,43493
 189,53;  279,393;  248,981;  393,125;21,09820
 190,13;  311,319;  274,058;  409,924;27,42511
 190,73;  263,519;  218,289;  365,019;30,82524
 191,34;  281,179;  256,905;  385,888;18,81965
 191,94;  275,143;  235,829;  359,614;31,76005
 192,54;  287,317;  240,984;  391,391;30,80507
 193,14;  291,609;  258,291;  390,009;25,29505
 193,74;  290,006;  260,214;  377,424;25,41788
 194,34;  281,295;  241,445;  388,106;27,17167
 194,94;  245,194;  209,983;  342,899;26,49106
 195,54;  218,352;  190,137;  332,970;19,75357
 196,14;  256,197;  225,291;  354,341;23,94871
 196,74;  251,358;  223,445;  343,719;23,20796
 197,34;  223,764;  197,522;  345,903;17,68577
 197,94;  246,198;  232,368;  373,573; 9,79426
 198,54;  266,189;  228,599;  383,909;24,20339
 199,14;  247,717;  215,368;  380,241;19,62012
 199,74;  237,593;  190,292;  370,197;26,29251
 200,34;  225,728;  195,061;  379,885;16,59268
 200,94;  264,584;  233,599;  425,936;16,10983
 201,54;  236,129;  216,753;  432,596; 8,97692
 202,14;  278,867;  230,061;  474,093;19,99979
 202,74;  246,279;  213,907;  473,146;12,48739
 203,34;  232,494;  180,907;  480,577;17,21445
 203,94;  199,787;  170,753;  486,255; 9,20255
 204,54;  284,404;  238,445;  563,211;14,15131
 205,14;  226,017;  203,984;  571,733; 5,99131
 205,74;  292,818;  236,907;  659,589;13,22758
 206,34;  247,214;  200,215;  679,015; 9,81599
 206,94;  265,279;  210,138;  728,140;10,64502
 207,54;  242,130;  191,907;  773,579; 8,63431
 208,14;  251,258;  194,522;  845,836; 8,71091
 208,74;  265,241;  198,907;  918,683; 9,21598
 209,34;  267,669;  202,215;  992,970; 8,27742
 209,94;  298,755;  202,753; 1089,013;10,83221
 210,54;  287,892;  195,292; 1187,450; 9,33324
 211,14;  294,771;  194,368; 1267,179; 9,35883
 211,73;  286,846;  197,830; 1399,958; 7,40492
 212,33;  318,015;  214,830; 1495,442; 8,05752
 212,93;  311,027;  201,830; 1569,925; 7,98167
 213,53;  279,733;  168,522; 1613,023; 7,69891
 214,13;  319,123;  193,369; 1705,053; 8,31882
 214,73;  295,328;  179,907; 1721,786; 7,48576
 215,33;  270,985;  163,830; 1742,628; 6,78715
 215,93;  319,511;  194,523; 1862,662; 7,49271
 216,53;  271,805;  157,753; 1944,199; 6,38429
 217,13;  340,530;  209,061; 2159,512; 6,74045
 217,73;  323,803;  196,599; 2334,342; 5,95035
 218,33;  301,781;  149,754; 2512,186; 6,43523
 218,93;  358,262;  177,292; 2802,474; 6,89361
 219,53;  367,504;  179,830; 3052,680; 6,53266
 220,13;  357,775;  166,677; 3342,899; 6,01653
 220,73;  402,738;  178,292; 3659,770; 6,44688
 221,32;  434,857;  192,215; 4073,836; 6,25105
 221,92;  465,754;  184,984; 4477,909; 6,54028
 222,52;  460,732;  163,446; 4867,162; 6,32025
 223,12;  512,284;  187,984; 5286,413; 6,36079
 223,72;  559,776;  189,369; 5644,061; 6,79062
 224,32;  597,267;  186,830; 5997,482; 7,06352
 224,92;  569,329;  168,830; 6323,312; 6,50742
 225,52;  635,002;  197,753; 6670,557; 6,75517
 226,12;  643,031;  180,753; 6972,357; 6,80660
 226,72;  659,994;  160,753; 7292,274; 7,00049
 227,31;  661,595;  151,984; 7646,565; 6,79972
 227,91;  740,304;  194,138; 8071,656; 6,93323
 228,51;  753,351;  165,984; 8435,636; 7,10268
 229,11;  799,219;  184,907; 8840,069; 7,09763
 229,71;  820,212;  170,830; 9126,800; 7,25083
 230,31;  848,446;  168,369; 9555,531; 7,24476
 230,91;  874,551;  158,599; 9813,841; 7,41517
 231,51;  918,864;  163,753;10061,634; 7,62902
 232,10;  958,643;  164,907;10384,972; 7,76644
 232,70; 1011,757;  181,445;10581,029; 7,98409
 233,30; 1054,113;  195,753;10813,411; 8,08426
 233,90; 1051,559;  167,984;10937,933; 8,20408
 234,50; 1095,011;  169,984;11059,818; 8,49441
 235,10; 1122,406;  171,292;10974,158; 8,80427
 235,70; 1179,805;  182,907;11013,347; 9,20459
 236,29; 1180,558;  178,907;10902,340; 9,34077
 236,89; 1198,126;  160,907;10792,462; 9,75605
 237,49; 1234,639;  183,907;10632,310;10,05638
 238,09; 1222,291;  172,753;10341,707;10,32100
 238,69; 1238,227;  207,676;10098,604;10,41916
 239,29; 1200,678;  164,138; 9734,699;10,83050
 239,89; 1203,218;  172,907; 9401,017;11,16493
 240,48; 1165,660;  167,215; 8971,537;11,34040
 241,08; 1155,879;  164,522; 8611,278;11,73654
 241,68; 1168,820;  188,215; 8278,664;12,12053
 242,28; 1133,645;  156,215; 7940,130;12,55705
 242,88; 1166,615;  197,061; 7665,624;12,98180
 243,48; 1148,147;  202,138; 7348,585;13,23747
 244,07; 1106,289;  196,215; 7158,640;13,07123
 244,67; 1131,626;  189,599; 6950,593;13,93326
 245,27; 1137,077;  189,214; 6813,419;14,30908
 245,87; 1149,771;  193,677; 6751,769;14,57885
 246,47; 1120,785;  180,522; 6743,128;14,32758
 247,06; 1134,824;  173,599; 6743,421;14,63091
 247,66; 1138,858;  171,676; 6819,743;14,54832
 248,26; 1199,852;  200,830; 7000,936;14,69127
 248,86; 1208,461;  197,445; 7154,654;14,53191
 249,46; 1217,450;  145,599; 7378,217;14,81967
 250,05; 1300,138;  199,830; 7771,472;14,53196
 250,65; 1329,311;  152,599; 8058,257;14,88442
 251,25; 1396,596;  170,984; 8552,490;14,62281
 251,85; 1467,811;  170,830; 9127,877;14,48001
 252,44; 1519,303;  137,061; 9680,974;14,48297
 253,04; 1628,046;  188,215;10445,847;14,03668
 253,64; 1667,998;  136,830;11140,049;13,91564
 254,24; 1835,646;  193,061;12050,132;13,85321
 254,84; 1883,680;  169,830;13024,525;13,33248
 255,43; 1990,525;  179,676;13965,778;13,13532
 256,03; 2096,319;  176,907;14933,069;13,00753
 256,63; 2206,419;  184,599;15959,061;12,81704
 257,23; 2290,410;  171,753;16835,711;12,71401
 257,82; 2377,599;  182,599;17818,426;12,44626
 258,42; 2437,828;  143,753;18720,590;12,34912
 259,02; 2532,393;  189,522;19585,306;12,07928
 259,62; 2532,294;  171,445;20283,193;11,73866
 260,21; 2578,695;  174,291;20811,251;11,65096
 260,81; 2581,663;  185,907;21379,753;11,30401
 261,41; 2575,617;  151,137;21814,664;11,19153
 262,01; 2643,137;  198,214;22356,130;11,03409
 262,60; 2573,333;  159,060;22637,173;10,74055
 263,20; 2577,424;  176,445;23055,648;10,49415
 263,80; 2541,407;  194,906;23123,820;10,23381
 264,40; 2512,135;  149,752;23365,215;10,17590
 264,99; 2500,470;  181,983;23636,262; 9,88513
 265,59; 2467,349;  166,214;23828,529; 9,72489
 266,19; 2441,745;  157,752;24024,776; 9,56966
 266,78; 2449,470;  197,445;24085,499; 9,42741
 267,38; 2364,345;  186,368;24190,233; 9,07345
 267,98; 2333,069;  170,906;24143,256; 9,01940
 268,58; 2303,561;  186,137;24183,756; 8,82348
 269,17; 2284,443;  173,752;24133,851; 8,80919
 269,77; 2244,315;  192,522;23966,940; 8,63026
 270,37; 2176,125;  161,368;23855,106; 8,50333
 270,96; 2201,976;  214,830;23796,071; 8,42681
 271,56; 2115,173;  179,676;23480,276; 8,30664
 272,16; 2092,149;  169,060;23368,768; 8,28928
 272,75; 2060,140;  169,522;23244,494; 8,19337
 273,35; 2053,305;  186,753;23207,061; 8,10829
 273,95; 2016,478;  180,291;23273,296; 7,95127
 274,54; 2027,946;  158,061;23319,855; 8,07315
 275,14; 2047,204;  185,830;23690,387; 7,91921
 275,74; 1998,864;  157,830;23677,369; 7,82768
 276,33; 2093,139;  197,983;24100,569; 7,92866
 276,93; 2104,712;  184,138;24473,251; 7,90714
 277,53; 2145,050;  181,984;25015,911; 7,90477
 278,12; 2162,616;  152,830;25597,349; 7,89870
 278,72; 2256,490;  215,676;26084,768; 7,88900
 279,32; 2289,084;  184,830;26655,470; 7,94939
 279,91; 2352,857;  151,984;27296,689; 8,10793
 280,51; 2440,795;  164,061;27885,853; 8,21280
 281,11; 2481,688;  165,368;28515,442; 8,17042
 281,70; 2518,490;  153,676;28993,081; 8,19994
 282,30; 2627,634;  163,599;29674,353; 8,34962
 282,90; 2684,843;  168,753;30003,444; 8,43344
 283,49; 2802,720;  190,983;30517,786; 8,61198
 284,09; 2880,645;  200,214;30896,231; 8,73218
 284,69; 2959,723;  194,907;31311,375; 8,88538
 285,28; 3045,230;  181,907;31608,199; 9,11123
 285,88; 3191,665;  231,060;31904,705; 9,34722
 286,47; 3213,966;  181,137;31901,565; 9,56112
 287,07; 3318,899;  202,984;31975,438; 9,80697
 287,67; 3410,147;  185,830;32122,739;10,09589
 288,26; 3526,931;  169,599;32037,774;10,53506
 288,86; 3614,590;  168,676;32056,294;10,80643
 289,46; 3826,994;  193,984;32185,292;11,35624
 290,05; 3953,719;  172,368;32376,766;11,74172
 290,65; 4128,307;  173,907;32494,359;12,23498
 291,24; 4298,852;  178,138;32665,551;12,68403
 291,84; 4500,111;  184,830;32740,907;13,25492
 292,44; 4710,960;  179,061;33002,715;13,80681
 293,03; 4955,306;  246,907;32988,735;14,38038
 293,63; 5071,597;  176,599;33084,504;14,87484
 294,22; 5299,311;  190,753;33347,104;15,40748
 294,82; 5489,111;  182,060;33256,310;16,04587
 295,41; 5565,259;  155,291;33060,774;16,44093
 296,01; 5727,390;  208,214;33008,575;16,82657
 296,61; 5822,968;  182,753;32641,087;17,37678
 297,20; 5845,719;  186,522;32323,950;17,60936
 297,80; 5954,169;  194,984;32156,885;18,01891
 298,39; 5976,119;  164,060;31774,877;18,38630
 298,99; 6066,145;  189,214;31656,241;18,67647
 299,58; 6093,442;  192,292;31571,638;18,80584
 300,18; 6174,941;  209,445;31366,877;19,14630
 300,78; 6127,925;  177,599;30948,409;19,33757
 301,37; 6281,065;  193,291;30891,191;19,83124
 301,97; 6300,287;  188,061;30939,660;19,87612
 302,56; 6340,729;  187,137;30906,361;20,03173
 303,16; 6342,264;  173,753;30840,917;20,11438
 303,75; 6434,930;  174,368;30857,002;20,40425
 304,35; 6535,324;  166,830;31103,257;20,58574
 304,94; 6552,032;  179,138;31040,448;20,65011
 305,54; 6625,087;  201,215;31020,913;20,84340
 306,13; 6597,161;  164,984;31012,753;20,85135
 306,73; 6607,322;  168,138;30770,960;21,04115
 307,33; 6657,148;  192,369;30714,351;21,18073
 307,92; 6676,475;  185,061;30785,136;21,21372
 308,52; 6779,657;  165,830;31199,806;21,31157
 309,11; 6945,668;  172,137;31705,231;21,48071
 309,71; 7047,914;  168,599;31935,792;21,65541
 310,30; 7156,945;  160,061;32195,179;21,84129
 310,90; 7245,176;  198,061;32541,025;21,78871
 311,49; 7276,862;  179,214;32617,051;21,88077
 312,09; 7332,187;  152,599;32789,355;21,99847
 312,68; 7497,656;  218,291;33185,330;22,08074
 313,28; 7525,859;  159,907;33317,674;22,21486
 313,87; 7512,115;  153,830;33457,421;22,09457
 314,47; 7625,034;  169,214;33719,073;22,22310
 315,06; 7637,205;  155,291;33846,369;22,20740
 315,66; 7726,803;  156,061;33991,278;22,37533
 316,25; 7675,655;  145,291;34000,199;22,24305
 316,85; 7713,456;  140,215;34012,972;22,35791
 317,44; 7758,821;  163,445;34187,697;22,32342
 318,04; 7778,550;  154,368;34156,383;22,42274
 318,63; 7758,176;  146,292;34237,622;22,32792
 319,22; 7796,576;  171,445;34452,357;22,24308
 319,82; 7827,338;  162,137;34418,304;22,37612
 320,41; 7763,798;  181,214;34371,699;22,17747
 321,01; 7765,920;  184,907;34386,656;22,16557
 321,60; 7801,468;  176,214;34477,630;22,23014
 322,20; 7745,681;  164,599;34382,000;22,15563
 322,79; 7753,905;  198,368;34501,800;22,02560
 323,39; 7796,126;  170,907;34565,974;22,16951
 323,98; 7715,934;  149,522;34508,529;22,02162
 324,58; 7684,049;  154,368;34408,391;21,98189
 325,17; 7621,638;  176,599;34190,879;21,88798
 325,76; 7605,916;  187,830;34036,681;21,91533
 326,36; 7462,743;  143,368;33626,517;21,85988
 326,95; 7430,382;  193,753;33357,126;21,82115
 327,55; 7288,216;  148,676;32972,948;21,75079
 328,14; 7228,652;  161,292;32580,644;21,79982
 328,74; 7190,160;  189,830;32167,636;21,89122
 329,33; 7038,467;  178,907;31731,391;21,74016
 329,92; 6916,798;  156,214;31253,788;21,73991
 330,52; 6787,651;  173,753;30573,956;21,75610
 331,11; 6638,553;  171,445;30177,215;21,55288
 331,71; 6493,472;  165,522;29557,766;21,52932
 332,30; 6416,416;  177,445;29149,371;21,53454
 332,89; 6307,230;  213,984;28628,725;21,44396
 333,49; 6151,005;  187,907;28086,942;21,37385
 334,08; 6048,670;  175,368;27697,286;21,34045
 334,68; 5901,769;  180,907;27293,964;21,10003
 335,27; 5835,064;  186,215;26952,612;21,10426
 335,86; 5791,476;  224,753;26641,446;21,07275
 336,46; 5678,194;  181,061;26461,399;20,91728
 337,05; 5637,614;  171,599;26265,353;20,94760
 337,65; 5563,315;  153,291;26054,626;20,88705
 338,24; 5582,142;  213,907;26069,851;20,76209
 338,83; 5517,572;  192,984;25957,438;20,66641
 339,43; 5513,246;  167,984;25897,909;20,77450
 340,02; 5466,510;  162,291;25866,857;20,63532
 340,61; 5434,197;  170,138;25836,938;20,50922
 341,21; 5471,776;  208,137;25858,636;20,52061
 341,80; 5434,116;  175,368;25826,808;20,50079
 342,40; 5416,466;  170,292;25890,158;20,39736
 342,99; 5396,076;  165,445;25947,187;20,28812
 343,58; 5448,621;  177,368;26189,622;20,26450
 344,18; 5478,258;  195,522;26373,073;20,18040
 344,77; 5510,948;  164,599;26529,948;20,27794
 345,36; 5537,921;  148,676;26879,818;20,16092
 345,96; 5613,636;  201,984;27219,638;20,03006
 346,55; 5639,332;  151,369;27427,300;20,12017
 347,14; 5646,796;  152,907;27772,144;19,89153
 347,74; 5744,770;  143,292;28192,844;19,96994
 348,33; 5878,611;  164,677;28854,944;19,91593
 348,92; 5955,692;  178,061;29402,688;19,76973
 349,52; 6049,605;  140,215;29849,887;19,89046
 350,11; 6071,081;  175,907;30115,958;19,68993
 350,70; 6103,636;  167,061;30103,798;19,83040
 351,29; 6001,840;  160,291;29828,098;19,68986
 351,89; 6014,968;  176,983;29840,031;19,68100
 352,48; 5960,690;  155,215;29908,351;19,51215
 353,07; 5983,340;  174,599;29796,583;19,60956
 353,67; 5924,183;  189,215;29796,109;19,37038
 354,26; 5861,342;  164,676;29465,729;19,44185
 354,85; 5822,863;  173,907;29381,496;19,34071
 355,45; 5755,772;  158,830;29187,341;19,28085
 356,04; 5711,746;  168,753;29179,958;19,10639
 356,63; 5716,666;  200,676;28979,836;19,16661
 357,22; 5639,948;  176,675;28835,197;19,06334
 357,82; 5576,065;  173,829;28527,954;19,05273
 358,41; 5567,086;  190,291;28522,847;18,97744
 359,00; 5489,177;  155,907;28267,802;18,97158
 359,60; 5489,057;  174,676;28241,266;18,93490
 360,19; 5456,336;  174,292;28045,826;18,95139
 360,78; 5424,377;  177,984;27864,379;18,94936
 361,37; 5330,638;  169,061;27730,181;18,72775
 361,97; 5338,918;  169,676;27624,442;18,82822
 362,56; 5245,889;  167,753;27299,264;18,71675
 363,15; 5279,540;  202,830;27001,114;18,94416
 363,74; 5143,841;  174,291;26660,845;18,76254
 364,34; 5090,985;  194,291;26339,415;18,72890
 364,93; 4958,314;  163,291;25935,873;18,60513
 365,52; 4879,014;  141,445;25588,830;18,61711
 366,11; 4847,800;  173,599;25238,079;18,64870
 366,71; 4768,346;  160,907;24896,203;18,62698
 367,30; 4726,983;  173,522;24575,417;18,66027
 367,89; 4680,364;  207,215;24348,725;18,52887
 368,48; 4624,286;  182,291;24090,525;18,57935
 369,07; 4513,405;  178,138;23657,413;18,46423
 369,67; 4516,038;  203,291;23383,363;18,60541
 370,26; 4433,466;  163,445;23103,863;18,61353
 370,85; 4388,699;  177,137;22920,245;18,51797
 371,44; 4375,873;  163,214;22611,778;18,76583
 372,03; 4286,762;  151,907;22418,770;18,56955
 372,63; 4241,420;  141,984;22051,743;18,71055
 373,22; 4181,553;  162,368;21824,363;18,55408
 373,81; 4104,076;  140,907;21614,122;18,45634
 374,40; 4096,737;  153,522;21310,691;18,63772
 374,99; 4050,041;  157,753;21122,573;18,56581
 375,59; 3995,331;  163,061;20765,855;18,60073
 376,18; 3999,724;  191,522;20688,377;18,57945
 376,77; 3983,271;  184,368;20538,952;18,66362
 377,36; 3986,753;  194,599;20427,029;18,74295
 377,95; 3921,175;  181,291;20167,268;18,71254
 378,55; 3889,612;  164,907;19976,041;18,80107
 379,14; 3890,361;  177,522;19901,675;18,82382
 379,73; 3846,236;  165,676;19853,332;18,69476
 380,32; 3900,234;  183,984;19873,181;18,87456
 380,91; 3816,216;  159,676;19667,575;18,74389
 381,50; 3869,227;  181,137;19730,834;18,86520
 382,10; 3806,849;  165,599;19588,104;18,74758
 382,69; 3816,338;  153,061;19536,843;18,89867
 383,28; 3865,209;  185,214;19485,519;19,06703
 383,87; 3829,887;  170,599;19354,118;19,07516
 384,46; 3820,518;  156,599;19303,219;19,13612
 385,05; 3831,450;  194,368;19336,249;19,00065
 385,64; 3851,415;  173,984;19253,926;19,27381
 386,24; 3837,765;  151,214;19260,693;19,29174
 386,83; 3881,775;  185,676;19307,347;19,32938
 387,42; 3906,552;  185,907;19437,221;19,32671
 388,01; 3969,759;  175,906;19692,501;19,43911
 388,60; 4011,585;  180,060;19935,642;19,39464
 389,19; 4059,385;  162,521;20071,470;19,57343
 389,78; 4128,965;  163,137;20300,531;19,69385
 390,37; 4271,442;  226,829;20795,837;19,66363
 390,96; 4237,174;  171,983;20851,213;19,65833
 391,56; 4275,538;  182,136;20980,634;19,68124
 392,15; 4381,100;  156,367;21348,835;19,93507
 392,74; 4402,394;  147,059;21537,383;19,89374
 393,33; 4479,764;  167,290;21800,272;19,93472
 393,92; 4593,460;  173,905;22148,280;20,11231
 394,51; 4643,172;  169,367;22328,946;20,18903
 395,10; 4692,674;  191,212;22592,145;20,09498
 395,69; 4739,407;  172,828;22659,440;20,30799
 396,28; 4783,058;  187,828;22780,161;20,33978
 396,87; 4832,007;  175,366;22794,544;20,58714
 397,46; 4888,037;  191,750;22963,056;20,62370
 398,06; 4940,026;  198,596;23203,119;20,61086
 398,65; 4983,999;  184,672;23227,508;20,82785
 399,24; 5005,327;  204,056;23470,283;20,63622
 399,83; 5016,810;  175,516;23419,733;20,82795
 400,42; 5092,728;  203,053;23563,588;20,93135
 401,01; 5123,283;  185,975;23697,214;20,99978
 401,60; 5140,535;  194,281;23692,232;21,04972
 402,19; 5194,558;  220,049;23599,757;21,27704
 402,78; 5207,157;  222,354;23670,337;21,25898
 403,37; 5203,508;  208,967;23485,360;21,45754
 403,96; 5177,070;  200,734;23392,403;21,45743
 404,55; 5200,616;  220,577;23298,760;21,57899
 405,14; 5161,435;  199,113;23194,704;21,57945
 405,73; 5151,509;  215,417;23072,266;21,59568
 406,32; 5225,635;  222,569;22959,260;22,00437
 406,91; 5122,522;  202,028;22680,458;21,88985
 407,50; 5161,117;  215,873;22530,604;22,16134
 408,09; 5103,648;  186,103;22248,987;22,28877
 408,68; 5109,046;  196,641;22130,582;22,39637
 409,27; 5073,120;  186,488;21935,551;22,46824
 409,86; 5072,210;  200,644;21860,399;22,49133
 410,45; 5127,736;  232,645;21774,441;22,72369
 411,04; 5074,352;  236,801;21640,738;22,60122
 411,63; 5054,086;  213,187;21399,610;22,84906
 412,22; 5051,042;  217,574;21270,990;22,95812
 412,81; 5036,926;  222,959;20933,498;23,24404
 413,40; 4979,818;  249,652;20594,959;23,24942
 413,99; 4962,206;  267,960;20389,882;23,32902
 414,58; 4837,032;  208,498;19983,338;23,40618
 415,17; 4784,648;  208,267;19843,761;23,30668
 415,76; 4767,355;  205,343;19646,204;23,46610
 416,35; 4718,836;  194,882;19356,030;23,61004
 416,94; 4771,220;  229,805;19554,581;23,50048
 417,53; 4843,206;  215,190;19687,836;23,76675
 418,12; 4857,878;  206,036;19787,445;23,75642
 418,71; 5015,001;  232,114;20191,765;23,96278
 419,30; 5033,481;  216,652;20276,876;24,01184
 419,89; 5096,601;  203,267;20467,311;24,14786
 420,48; 5220,962;  235,114;20775,844;24,27298
 421,07; 5199,982;  229,729;20800,062;24,16224
 421,66; 5222,792;  200,037;20766,724;24,42180
 422,25; 5289,793;  203,115;20757,681;24,74719
 422,84; 5298,551;  231,500;20748,871;24,69639
 423,43; 5229,289;  220,500;20404,088;24,81615
 424,02; 5212,771;  234,961;20179,384;24,95841
 424,60; 5116,307;  206,578;19787,501;25,07404
 425,19; 5080,440;  222,654;19548,224;25,13657
 425,78; 5067,883;  240,654;19501,989;25,06176
 426,37; 5074,913;  236,039;19304,849;25,37586
 426,96; 5076,405;  219,193;19247,266;25,52656
 427,55; 4996,307;  211,116;19035,553;25,42010
 428,14; 4945,360;  206,501;18860,636;25,40380
 428,73; 4945,906;  228,501;18686,169;25,55797
 429,32; 4985,155;  231,962;18637,883;25,82426
 429,91; 4971,704;  247,116;18703,205;25,59907
 430,50; 4960,001;  239,732;18496,159;25,85538
 431,08; 4962,590;  252,117;18415,557;25,93382
 431,67; 4966,342;  296,502;18284,691;25,96059
 432,26; 4934,333;  305,502;18077,559;26,04556
 432,85; 4903,785;  340,656;17763,604;26,19034
 433,44; 4798,367;  336,118;17385,023;26,17323
 434,03; 4723,788;  348,349;17082,008;26,14753
 434,62; 4600,635;  307,425;16701,952;26,18685
 435,21; 4572,812;  328,040;16469,644;26,29709
 435,79; 4557,723;  331,041;16336,814;26,40724
 436,38; 4512,475;  313,734;16279,858;26,29781
 436,97; 4527,525;  312,041;16185,273;26,55718
 437,56; 4491,275;  311,273;15964,310;26,70410
 438,15; 4452,042;  279,273;15853,253;26,79321
 438,74; 4501,191;  296,965;15926,346;26,89950
 439,33; 4496,482;  265,965;15886,494;27,08306
 439,91; 4538,360;  228,581;15945,350;27,42153
 440,50; 4558,496;  284,196;16038,265;27,13140
 441,09; 4594,945;  278,197;16137,216;27,21952
 441,68; 4587,924;  268,735;16097,048;27,28774
 442,27; 4616,806;  249,658;16117,378;27,52221
 442,86; 4591,621;  232,505;16092,763;27,48452
 443,44; 4600,403;  240,351;16162,261;27,38397
 444,03; 4742,466;  298,198;16223,997;27,90609
 444,62; 4621,997;  244,351;16069,566;27,66247
 445,21; 4600,158;  251,659;15914,696;27,76281
 445,80; 4632,517;  284,890;15782,390;28,05373
 446,39; 4566,392;  290,429;15504,817;28,10473
 446,97; 4461,554;  245,814;15352,756;27,90598
 447,56; 4409,971;  247,583;15120,833;27,98573
 448,15; 4384,593;  243,660;14991,139;28,07892
 448,74; 4359,889;  266,429;14672,104;28,41561
 449,33; 4287,731;  235,276;14587,031;28,23665
 449,91; 4235,367;  246,815;14400,616;28,18007
 450,50; 4183,573;  242,430;14179,487;28,27816
 451,09; 4164,739;  255,276;14091,361;28,25555
 451,68; 4167,948;  268,969;13991,513;28,41295
 452,26; 4151,295;  267,507;13882,268;28,52630
 452,85; 4108,681;  251,199;13837,578;28,39227
 453,44; 4130,975;  267,277;13788,136;28,57583
 454,03; 4097,716;  239,354;13776,037;28,50301
 454,61; 4092,164;  236,662;13755,146;28,52023
 455,20; 4153,911;  273,816;13940,687;28,39052
 455,79; 4181,230;  268,662;13927,663;28,64461
 456,38; 4230,756;  268,739;14007,442;28,83836
 456,97; 4247,002;  252,124;14070,310;28,91029
 457,55; 4238,760;  250,047;14089,802;28,82069
 458,14; 4243,723;  276,585;14042,968;28,81758
 458,73; 4216,949;  255,355;14008,120;28,80580
 459,31; 4248,199;  288,278;14014,715;28,84886
 459,90; 4311,229;  290,509;14131,760;29,04882
 460,49; 4369,876;  334,432;14244,717;29,01051
 461,08; 4320,855;  264,971;14325,004;28,84691
 461,66; 4326,662;  267,586;14367,019;28,78893
 462,25; 4389,897;  270,971;14422,905;29,10504
 462,84; 4407,968;  297,202;14494,938;28,95367
 463,43; 4370,783;  226,971;14407,032;29,22280
 464,01; 4397,262;  261,125;14470,259;29,10900
 464,60; 4436,316;  299,894;14402,292;29,33134
 465,19; 4315,585;  242,972;14172,423;29,23743
 465,77; 4288,855;  269,972;14117,024;29,02338
 466,36; 4320,098;  281,433;13996,694;29,44650
 466,95; 4197,233;  256,356;13737,152;29,23327
 467,53; 4152,162;  275,203;13416,862;29,50129
 468,12; 4065,950;  284,434;13175,399;29,33462
 468,71; 3969,097;  266,895;12915,296;29,27012
 469,29; 3902,408;  249,511;12695,642;29,34966
 469,88; 3840,057;  266,357;12500,496;29,21089
 470,47; 3906,948;  329,280;12548,915;29,27802
 471,06; 3834,416;  272,819;12534,273;29,04710
 471,64; 3903,900;  281,280;12691,803;29,18990
 472,23; 3875,165;  242,896;12681,781;29,20092
 472,81; 3883,958;  253,050;12749,243;29,05612
 473,40; 3946,764;  261,127;13004,846;28,92121
 473,99; 4095,933;  346,281;13160,323;29,26206
 474,57; 4031,681;  259,742;13250,487;29,03558
 475,16; 4097,507;  274,742;13372,506;29,18639
 475,75; 4154,054;  290,281;13477,287;29,29985
 476,33; 4169,342;  292,666;13553,813;29,23334
 476,92; 4199,729;  300,973;13603,829;29,30766
 477,51; 4212,413;  285,666;13671,153;29,33585
 478,09; 4189,981;  272,974;13702,109;29,16798
 478,68; 4196,689;  289,666;13595,350;29,36356
 479,27; 4250,515;  311,435;13701,522;29,41788
 479,85; 4188,613;  287,281;13703,038;29,08022
 480,44; 4233,434;  276,974;13868,131;29,11055
 481,02; 4676,325;  281,051;15608,402;28,67602
 481,61; 5250,171;  310,897;17388,639;28,92229
 482,20; 5585,517;  305,436;18436,789;29,12127
 482,78; 5840,515;  331,512;19187,657;29,21595
 483,37; 6008,821;  327,205;19643,013;29,41433
 483,95; 6144,292;  357,975;20013,353;29,43885
 484,54; 6173,597;  370,974;20144,321;29,34568
 485,13; 6122,240;  337,667;20034,163;29,36854
 485,71; 6039,378;  317,975;19790,230;29,38234
 486,30; 5995,716;  351,898;19542,570;29,40918
 486,88; 5905,303;  393,436;19107,604;29,45291
 487,47; 5681,582;  376,898;18360,869;29,49673
 488,05; 5463,795;  358,129;17495,548;29,79250
 488,64; 5062,944;  349,283;16059,475;30,00384
 489,23; 4561,197;  355,591;14183,165;30,41464
 489,81; 3907,337;  354,283;12316,831;29,70148
 490,40; 3714,056;  320,822;11823,952;29,49836
 490,98; 3595,278;  299,745;11561,827;29,26220
 491,57; 3597,056;  322,129;11500,035;29,29821
 492,15; 3575,490;  309,822;11427,977;29,37239
 492,74; 3523,139;  312,667;11319,477;29,16805
 493,32; 3507,788;  325,514;11206,867;29,24520
 493,91; 3475,180;  296,591;11161,517;29,25550
 494,50; 3443,498;  317,207;11123,602;28,93001
 495,08; 3426,315;  292,822;11050,719;29,12737
 495,67; 3443,760;  317,283;11013,507;29,22972
 496,25; 3365,147;  255,130;10847,096;29,36204
 496,84; 3356,431;  280,283;10870,055;29,04829
 497,42; 3382,886;  264,899;10808,134;29,57334
 498,01; 3338,711;  278,206;10786,547;29,12452
 498,59; 3326,691;  246,668;10711,606;29,43183
 499,18; 3274,932;  249,899;10642,047;29,10883
 499,76; 3315,801;  282,437;10534,406;29,58811
 500,35; 3200,512;  272,361;10382,539;28,96241
 500,93; 3218,495;  245,361;10380,776;29,33412
 501,52; 3200,038;  261,284;10274,065;29,35003
 502,10; 3187,698;  270,438;10250,171;29,23184
 502,69; 3136,454;  255,900;10120,749;29,20019
 503,27; 3037,812;  234,207; 9897,576;29,01271
 503,86; 3053,591;  250,669; 9860,824;29,16625
 504,44; 2976,856;  227,438; 9778,525;28,78643
 505,03; 2907,940;  219,361; 9540,802;28,84295
 505,61; 2877,245;  238,515; 9417,662;28,74701
 506,19; 2839,180;  256,054; 9241,075;28,74925
 506,78; 2796,338;  230,362; 9085,577;28,97700
 507,36; 2730,204;  229,361; 8926,057;28,75623
 507,95; 2679,049;  234,900; 8738,415;28,74280
 508,53; 2672,446;  237,516; 8704,375;28,75837
 509,12; 2638,799;  247,054; 8504,879;28,96338
 509,70; 2593,024;  262,439; 8391,822;28,66866
 510,29; 2534,965;  257,670; 8187,741;28,71720
 510,87; 2439,969;  233,131; 8085,205;28,10517
 511,46; 2424,310;  226,131; 7883,685;28,70602
 512,04; 2407,611;  242,285; 7748,083;28,84872
 512,62; 2358,802;  245,054; 7648,102;28,55240
 513,21; 2284,356;  224,208; 7429,407;28,59251
 513,79; 2245,123;  227,824; 7325,385;28,42242
 514,38; 2183,967;  210,747; 7153,170;28,42265
 514,96; 2213,355;  253,824; 7072,624;28,73718
 515,54; 2147,815;  221,670; 6956,391;28,60022
 516,13; 2115,681;  246,824; 6858,308;28,26684
 516,71; 2053,165;  240,901; 6759,824;27,80004
 517,30; 2026,134;  215,132; 6655,856;28,11799
 517,88; 2031,836;  245,978; 6549,899;28,32931
 518,46; 1981,751;  216,825; 6445,769;28,33428
 519,05; 1966,847;  222,517; 6391,915;28,27391
 519,63; 1948,015;  237,056; 6323,787;28,10965
 520,22; 1952,374;  249,979; 6288,022;28,19449
 520,80; 1893,288;  242,287; 6198,368;27,71958
 521,38; 1927,368;  262,748; 6200,291;28,03550
 521,97; 1859,691;  221,595; 6142,052;27,66841
 522,55; 1876,899;  241,133; 6160,067;27,63616
 523,13; 1858,152;  231,441; 6158,127;27,44722
 523,72; 1839,529;  233,517; 6114,658;27,30783
 524,30; 1915,195;  254,210; 6244,255;27,72908
 524,89; 1897,912;  228,672; 6275,014;27,60744
 525,47; 1943,351;  241,826; 6379,471;27,72277
 526,05; 1908,302;  217,210; 6445,512;27,15173
 526,64; 1952,741;  246,672; 6579,212;26,94130
 527,22; 1979,005;  241,133; 6699,623;26,90834
 527,80; 2036,188;  272,749; 6847,730;26,82045
 528,39; 2038,225;  234,364; 6929,961;26,94100
 528,97; 2078,069;  245,057; 7088,668;26,78428
 529,55; 2123,859;  251,749; 7287,682;26,60785
 530,14; 2196,472;  262,288; 7408,121;27,06731
 530,72; 2171,407;  245,518; 7543,700;26,38861
 531,30; 2193,847;  228,134; 7703,083;26,29735
 531,89; 2236,755;  237,903; 7794,836;26,45057
 532,47; 2300,133;  267,442; 7893,471;26,65465
 533,05; 2277,081;  268,595; 7934,621;26,19984
 533,63; 2289,184;  278,595; 7979,036;26,11004
 534,22; 2302,130;  250,365; 7972,022;26,57156
 534,80; 2316,651;  262,442; 8099,771;26,21057
 535,38; 2419,167;  341,672; 8203,953;26,42357
 535,97; 2314,871;  266,903; 8173,981;25,90044
 536,55; 2345,571;  305,211; 8254,394;25,66754
 537,13; 2358,910;  323,441; 8215,447;25,79152
 537,71; 2392,766;  373,903; 8254,101;25,61945
 538,30; 2426,900;  386,826; 8350,242;25,61807
 538,88; 2453,604;  432,134; 8478,329;25,12330
 539,46; 2553,936;  498,826; 8667,939;25,15707
 540,05; 2602,010;  527,519; 8820,864;25,01393
 540,63; 2657,602;  572,519; 8990,574;24,76917
 541,21; 2694,637;  614,673; 9193,347;24,24575
 541,79; 2744,776;  671,058; 9311,562;23,99997
 542,38; 2815,020;  689,519; 9445,133;24,27587
 542,96; 2863,877;  693,058; 9619,609;24,31868
 543,54; 2933,270;  719,596; 9836,509;24,28096
 544,12; 2925,049;  681,058; 9928,388;24,26637
 544,70; 2943,044;  661,365;10039,321;24,33024
 545,29; 2977,289;  673,673;10246,750;24,06348
 545,87; 2948,622;  633,596;10184,716;24,23827
 546,45; 2912,721;  591,365;10217,022;24,11634
 547,03; 2898,735;  572,981;10300,497;23,90903
 547,62; 2920,820;  518,211;10439,230;24,21736
 548,20; 2978,279;  521,442;10550,924;24,49615
 548,78; 2956,205;  485,058;10661,424;24,28319
 549,36; 2970,455;  440,827;10878,890;24,23464
 549,94; 2963,877;  396,904;10967,230;24,28471
 550,53; 3007,560;  394,597;11243,548;24,08495
 551,11; 3049,237;  366,597;11426,754;24,25499
 551,69; 3087,933;  372,443;11750,056;23,86696
 552,27; 3126,622;  335,750;11965,538;23,99762
 552,85; 3170,591;  339,828;12399,722;23,47254
 553,44; 3241,741;  327,827;12632,746;23,68088
 554,02; 3365,173;  348,520;12991,011;23,86123
 554,60; 3360,373;  283,751;13303,900;23,62970
 555,18; 3487,132;  337,674;13660,566;23,63945
 555,76; 3535,566;  296,751;14025,058;23,59224
 556,34; 3609,413;  319,982;14440,574;23,29528
 556,93; 3676,438;  292,827;14817,570;23,29550
 557,51; 3756,382;  272,828;15124,930;23,45496
 558,09; 3871,954;  311,674;15550,738;23,36285
 558,67; 3900,663;  301,982;15980,181;22,95341
 559,25; 4006,500;  313,905;16151,376;23,31556
 559,83; 4032,585;  293,366;16481,564;23,09843
 560,41; 4091,526;  286,058;16862,821;22,95664
 561,00; 4179,294;  297,982;17133,505;23,05430
 561,58; 4212,219;  280,597;17395,894;22,97139
 562,16; 4272,952;  271,904;17779,125;22,85370
 562,74; 4336,658;  263,827;18061,689;22,88382
 563,32; 4407,016;  258,366;18555,839;22,67335
 563,90; 4505,055;  285,982;18895,612;22,67145
 564,48; 4579,638;  285,751;19333,837;22,54235
 565,06; 4730,919;  280,289;19947,851;22,62929
 565,65; 4851,530;  292,059;20622,618;22,42669
 566,23; 5032,316;  322,520;21339,029;22,40998
 566,81; 5153,162;  278,059;22097,728;22,34270
 567,39; 5319,912;  294,136;22907,408;22,22490
 567,97; 5473,659;  308,982;23588,507;22,18549
 568,55; 5684,033;  321,982;24428,159;22,24347
 569,13; 5777,208;  289,366;25136,232;22,08666
 569,71; 5985,383;  276,135;26086,631;22,11987
 570,29; 6208,247;  326,443;27122,260;21,95045
 570,87; 6317,102;  312,058;27695,989;21,92908
 571,45; 6468,833;  314,443;28347,347;21,95417
 572,03; 6584,216;  282,828;28732,112;22,14955
 572,61; 6655,456;  274,520;29528,849;21,81194
 573,20; 6825,673;  299,828;30153,456;21,85947
 573,78; 6958,716;  293,828;30820,809;21,83278
 574,36; 7023,590;  312,213;31253,624;21,69060
 574,94; 7121,135;  364,213;31533,971;21,67781
 575,52; 7142,582;  308,213;31827,474;21,68315
 576,10; 7264,037;  363,367;32450,122;21,50629
 576,68; 7358,347;  358,290;33028,049;21,42672
 577,26; 7499,388;  367,521;33736,551;21,37271
 577,84; 7576,227;  385,059;34142,922;21,30220
 578,42; 7698,967;  422,905;34469,867;21,37066
 579,00; 7635,878;  361,905;34548,932;21,27700
 579,58; 7583,327;  415,982;34727,896;20,88879
 580,16; 7632,018;  384,905;34758,278;21,08351
 580,74; 7655,508;  384,213;34964,545;21,02726
 581,32; 7640,801;  389,059;35108,920;20,88644
 581,90; 7604,365;  427,444;35079,815;20,71120
 582,48; 7637,872;  405,982;35241,094;20,76035
 583,06; 7612,534;  412,982;35258,837;20,66114
 583,64; 7604,581;  409,520;35402,877;20,56122
 584,22; 7550,847;  424,675;35244,258;20,46599
 584,80; 7463,859;  423,982;34992,377;20,36507
 585,38; 7324,653;  435,443;34555,309;20,19120
 585,96; 7341,467;  392,059;34740,574;20,23205
 586,54; 7290,835;  421,829;34710,153;20,03308
 587,12; 7262,728;  387,290;34850,896;19,94985
 587,70; 7309,803;  416,751;35114,610;19,86593
 588,28; 7277,236;  390,290;35095,402;19,84418
 588,86; 7263,901;  391,059;35225,047;19,73027
 589,44; 7240,485;  386,290;35307,462;19,62762
 590,02; 7279,960;  375,059;35498,642;19,65887
 590,59; 7245,259;  368,367;35700,997;19,46329
 591,17; 7248,915;  359,291;35892,185;19,38943
 591,75; 7243,653;  353,983;35999,092;19,32851
 592,33; 7250,713;  364,675;36339,778;19,14112
 592,91; 7323,252;  315,906;36533,304;19,34801
 593,49; 7328,241;  327,598;36828,725;19,17925
 594,07; 7341,126;  342,521;37042,569;19,06974
 594,65; 7310,195;  354,598;37044,483;18,95781
 595,23; 7344,446;  339,367;37404,855;18,89919
 595,81; 7382,640;  345,060;37547,997;18,91673
 596,39; 7355,500;  324,598;37683,478;18,81989
 596,97; 7347,698;  328,598;37855,211;18,70433
 597,55; 7300,850;  325,213;37711,778;18,65814
 598,12; 7253,358;  314,291;37800,790;18,51084
 598,70; 7248,502;  310,214;38006,764;18,40563
 599,28; 7260,524;  331,137;38069,134;18,36183
 599,86; 7269,272;  315,598;38174,991;18,36710
 600,44; 7211,497;  282,906;38262,318;18,24302
 601,02; 7241,246;  340,368;38274,454;18,19176
 601,60; 7207,306;  310,598;38211,478;18,19670
 602,18; 7149,652;  296,983;38197,924;18,08047
 602,75; 7137,149;  294,983;38376,806;17,96701
 603,33; 7130,924;  306,598;38291,535;17,96587
 603,91; 7071,625;  300,445;38330,559;17,80479
 604,49; 7111,838;  326,521;38431,723;17,80680
 605,07; 7066,238;  334,060;38389,059;17,69065
 605,65; 7043,809;  364,983;38516,296;17,50615
 606,23; 7117,785;  413,675;38688,742;17,51561
 606,80; 7071,211;  480,983;38775,483;17,20933
 607,38; 7043,175;  527,522;38761,132;17,04169
 607,96; 7044,404;  578,444;38960,250;16,84642
 608,54; 7047,640;  643,829;38955,049;16,71524
 609,12; 7043,542;  664,521;39056,084;16,61568
 609,70; 7027,058;  711,598;39105,464;16,44914
 610,27; 7024,576;  707,752;39194,796;16,41286
 610,85; 7007,751;  728,060;39233,460;16,30860
 611,43; 6975,340;  725,060;39176,948;16,25481
 612,01; 6874,548;  691,367;38928,974;16,17042
 612,59; 6876,819;  683,675;38959,187;16,18043
 613,16; 6843,400;  643,213;38847,966;16,22884
 613,74; 6755,485;  613,137;38764,905;16,09977
 614,32; 6732,316;  549,214;38724,268;16,19671
 614,90; 6629,872;  499,829;38549,519;16,11063
 615,48; 6554,473;  453,290;38134,209;16,19170
 616,05; 6538,311;  407,290;38243,788;16,20399
 616,63; 6463,148;  421,982;37956,906;16,09479
 617,21; 6427,722;  411,290;37898,211;16,04942
 617,79; 6409,530;  385,213;37770,203;16,11427
 618,36; 6354,300;  404,137;37711,889;15,94886
 618,94; 6261,987;  337,213;37384,847;15,99231
 619,52; 6182,307;  370,367;37017,883;15,85903
 620,10; 6140,041;  356,290;37089,547;15,74527
 620,67; 6113,017;  358,982;36973,199;15,71530
 621,25; 6095,760;  374,137;36797,816;15,70853
 621,83; 6062,379;  358,444;36743,509;15,67658
 622,41; 6046,072;  398,136;36802,043;15,51464
 622,98; 5928,418;  365,675;36487,673;15,39988
 623,56; 5930,398;  363,444;36488,987;15,41002
 624,14; 5851,377;  337,675;36356,652;15,30777
 624,72; 5843,041;  335,675;36237,323;15,34015
 625,29; 5806,036;  327,521;36403,126;15,18620
 625,87; 5814,930;  367,752;36321,989;15,15031
 626,45; 5765,017;  319,674;36112,744;15,21340
 627,02; 5719,721;  316,983;36082,363;15,10606
 627,60; 5646,920;  314,829;36020,701;14,93337
 628,18; 5635,619;  303,752;36171,391;14,86540
 628,76; 5622,216;  305,675;36192,786;14,81463
 629,33; 5592,269;  340,059;36113,721;14,68178
 629,91; 5604,272;  325,598;36022,547;14,78746
 630,49; 5591,350;  328,444;36232,402;14,65829
 631,06; 5579,483;  326,675;36390,638;14,56526
 631,64; 5507,200;  319,059;36324,626;14,40927
 632,22; 5474,655;  274,597;36382,197;14,40156
 632,79; 5556,600;  322,059;36485,337;14,47474
 633,37; 5523,209;  297,675;36621,177;14,38610
 633,95; 5506,733;  288,136;36675,495;14,34179
 634,52; 5497,157;  276,675;36730,705;14,32073
 635,10; 5518,059;  289,367;36741,786;14,34388
 635,68; 5482,662;  286,828;36947,244;14,17287
 636,25; 5475,929;  276,905;36915,262;14,19011
 636,83; 5476,985;  262,213;37121,017;14,14797
 637,41; 5500,743;  274,674;37206,001;14,15077
 637,98; 5500,883;  306,444;37369,365;14,01519
 638,56; 5461,272;  293,213;37423,894;13,91857
 639,13; 5443,350;  268,982;37536,408;13,88442
 639,71; 5511,752;  313,367;37616,102;13,93567
 640,29; 5399,450;  249,290;37483,827;13,83167
 640,86; 5398,801;  263,829;37608,175;13,75034
 641,44; 5366,691;  257,059;37643,369;13,66712
 642,02; 5404,043;  290,675;37552,947;13,72264
 642,59; 5354,856;  267,752;37784,833;13,55944
 643,17; 5328,208;  268,213;37738,797;13,50391
 643,74; 5340,406;  268,521;37719,375;13,54278
 644,32; 5320,065;  289,675;37727,185;13,43677
 644,89; 5309,109;  287,444;37749,917;13,40452
 645,47; 5299,230;  293,136;37742,649;13,36758
 646,05; 5294,428;  283,444;37635,997;13,41537
 646,62; 5208,549;  279,444;37705,499;13,17025
 647,20; 5269,901;  280,829;37790,001;13,30094
 647,77; 5218,637;  255,598;37644,271;13,27418
 648,35; 5161,451;  250,906;37527,465;13,17328
 648,92; 5167,879;  279,367;37684,429;13,06912
 649,50; 5093,462;  250,906;37519,623;12,99362
 650,08; 5091,583;  245,444;37436,201;13,03049
 650,65; 5116,242;  250,059;37720,164;12,98684
 651,23; 5197,825;  235,367;38578,204;12,94233
 651,80; 5312,561;  252,213;39453,014;12,90879
 652,38; 5338,297;  268,521;39722,439;12,84987
 652,95; 5372,726;  226,752;40098,709;12,90625
 653,53; 5385,847;  258,290;40364,211;12,78504
 654,10; 5415,814;  281,444;40538,482;12,75397
 654,68; 5361,627;  244,675;40444,676;12,72874
 655,25; 5298,056;  239,213;40461,716;12,57715
 655,83; 5317,254;  228,136;40508,141;12,63435
 656,40; 5350,144;  271,598;40445,104;12,64153
 656,98; 5305,496;  254,136;40318,683;12,60805
 657,55; 5249,078;  246,829;40238,184;12,50833
 658,13; 5224,584;  248,060;39854,147;12,56505
 658,70; 5148,012;  253,521;39571,803;12,44839
 659,28; 5018,826;  246,060;38705,305;12,40993
 659,85; 4885,947;  262,675;37995,652;12,25260
 660,43; 4886,144;  272,213;38124,539;12,18929
 661,00; 4896,419;  257,675;38183,887;12,23097
 661,58; 4900,617;  241,060;38596,927;12,14823
 662,15; 4880,430;  242,598;38731,659;12,04974
 662,73; 4971,321;  301,983;39005,930;12,06424
 663,30; 4945,749;  253,367;39203,816;12,04705
 663,88; 4946,870;  256,060;39421,702;11,97685
 664,45; 4953,222;  244,367;39620,666;11,95860
 665,03; 5022,035;  254,521;39985,937;11,99936
 665,60; 5074,925;  316,214;40520,746;11,83626
 666,17; 5010,585;  254,598;40428,017;11,83864
 666,75; 5064,706;  242,214;40843,288;11,87775
 667,32; 5087,981;  267,829;41217,482;11,77092
 667,90; 5135,332;  245,598;41383,445;11,88622
 668,47; 5141,530;  271,367;41710,177;11,75266
 669,05; 5180,651;  246,675;41959,987;11,82830
 669,62; 5133,157;  232,675;42068,334;11,71365
 670,19; 5165,278;  233,983;42169,990;11,75909
 670,77; 5199,476;  254,214;42304,492;11,76035
 671,34; 5146,520;  242,829;42208,070;11,68512
 671,92; 5204,102;  232,214;42635,572;11,72522
 672,49; 5210,685;  258,368;42667,920;11,67736
 673,06; 5154,882;  202,444;42635,114;11,67129
 673,64; 5138,080;  231,368;42700,461;11,55361
 674,21; 5124,740;  228,137;42609,886;11,55356
 674,79; 5180,245;  249,060;42890,311;11,56435
 675,36; 5187,520;  255,906;42975,966;11,54402
 675,93; 5117,487;  214,368;42917,237;11,48194
 676,51; 5184,993;  257,060;43025,124;11,52246
 677,08; 5152,652;  251,983;43040,702;11,45318
 677,65; 5132,619;  256,752;43272,204;11,33515
 678,23; 5180,586;  252,675;43462,936;11,40449
 678,80; 5149,784;  246,137;43560,438;11,32108
 679,38; 5142,828;  238,214;43675,940;11,29114
 679,95; 5187,257;  255,983;43972,518;11,28011
 680,52; 5208,686;  243,522;44151,789;11,30804
 681,10; 5231,730;  266,445;44679,675;11,17974
 681,67; 5301,004;  258,752;44925,254;11,28867
 682,24; 5275,279;  222,214;44956,371;11,29577
 682,82; 5299,708;  236,829;45528,796;11,17831
 683,39; 5388,367;  280,214;45801,605;11,22144
 683,96; 5393,565;  252,060;46075,414;11,22027
 684,54; 5386,609;  225,060;46441,070;11,16831
 685,11; 5478,422;  270,675;46745,956;11,20541
 685,68; 5480,082;  238,906;47180,458;11,16532
 686,25; 5458,357;  222,445;47207,498;11,14378
 686,83; 5497,093;  225,829;47329,000;11,19089
 687,40; 5523,522;  224,522;47665,886;11,16958
 687,97; 5557,489;  266,599;48162,003;11,04676
 688,55; 5542,379;  221,214;48141,505;11,10420
 689,12; 5531,192;  205,291;48464,929;11,03593
 689,69; 5554,236;  221,676;48479,431;11,05016
 690,26; 5573,819;  241,676;48570,240;11,03311
 690,84; 5594,478;  231,368;48818,896;11,03804
 691,41; 5595,599;  239,599;48830,320;11,02268
 691,98; 5632,720;  240,752;49118,591;11,03152
 692,56; 5590,456;  229,214;49195,785;10,94878
 693,13; 5668,731;  281,137;49234,749;11,00551
 693,70; 5624,929;  247,522;49411,558;10,93768
 694,27; 5611,973;  224,676;49584,367;10,91437
 694,84; 5628,863;  226,599;49660,792;10,92819
 695,42; 5661,677;  276,291;49738,524;10,88787
 695,99; 5659,259;  240,599;50041,565;10,88063
 696,56; 5627,611;  230,983;49822,989;10,88205
 697,13; 5686,578;  251,522;50241,106;10,87238
 697,71; 5669,622;  224,214;50276,993;10,87933
 698,28; 5708,897;  233,368;50717,956;10,84594
 698,85; 5661,556;  210,676;50624,227;10,81233
 699,42; 5701,446;  210,137;50795,728;10,85548
 699,99; 5739,336;  266,753;50976,999;10,79187
 700,57; 5694,304;  247,906;50926,347;10,74697
 701,14; 5728,655;  226,060;51028,464;10,83137
 701,71; 5782,622;  245,445;51214,043;10,86390
 702,28; 5768,666;  243,445;51274,390;10,82720
 702,85; 5760,480;  254,676;51489,815;10,74615
 703,43; 5829,755;  256,291;51675,163;10,83933
 704,00; 5843,568;  276,907;51821,280;10,79975
 704,57; 5818,073;  255,599;51809,012;10,78973
 705,14; 5823,194;  290,830;52136,437;10,67085
 705,71; 5849,469;  281,599;52095,785;10,74584
 706,28; 5840,129;  260,676;52033,056;10,77689
 706,86; 5892,711;  285,368;52219,096;10,79711
 707,43; 5875,370;  317,060;52161,136;10,72121
 708,00; 5879,876;  284,368;52207,869;10,77645
 708,57; 5842,458;  261,984;52063,293;10,77285
 709,14; 5893,041;  291,830;52260,256;10,77810
 709,71; 5890,470;  259,137;52303,527;10,82025
 710,28; 5921,514;  265,676;52506,952;10,82638
 710,86; 5911,865;  276,137;52649,685;10,76064
 711,43; 5994,986;  282,445;52711,955;10,89566
 712,00; 5933,877;  261,984;52665,534;10,82349
 712,57; 5991,305;  282,214;52900,113;10,85009
 713,14; 5943,195;  260,061;52861,153;10,80421
 713,71; 5922,470;  263,522;52892,808;10,75247
 714,28; 5930,130;  250,599;52935,079;10,78027
 714,85; 5921,712;  243,907;52642,965;10,83570
 715,42; 5929,987;  241,753;52961,775;10,78951
 716,00; 6051,800;  301,061;53003,353;10,91174
 716,57; 5968,536;  241,061;53124,316;10,83041
 717,14; 5933,734;  236,368;53061,972;10,78524
 717,71; 5951,932;  220,138;53154,935;10,82803
 718,28; 6005,361;  271,522;53179,821;10,83731
 718,85; 5975,097;  234,830;53209,631;10,83584
 719,42; 6023,218;  237,522;53375,440;10,88807
 719,99; 5957,954;  220,907;53217,326;10,82535
 720,56; 6041,999;  245,753;53485,367;10,88709
 721,13; 6034,966;  226,830;53548,253;10,89269
 721,70; 6000,933;  214,522;53383,601;10,88304
 722,27; 6050,823;  254,984;53449,179;10,89562
 722,84; 6145,021;  290,368;53625,296;10,97715
 723,41; 6048,373;  219,292;53601,952;10,91943
 723,98; 6041,955;  237,984;53809,223;10,83412
 724,55; 6158,768;  271,753;53838,109;10,99014
 725,12; 6069,274;  194,138;53899,611;10,93955
 725,69; 6123,626;  222,599;53996,343;10,97381
 726,27; 6114,977;  238,676;54020,691;10,92615
 726,84; 6153,867;  237,215;54352,962;10,93333
 727,41; 6179,296;  247,599;54325,310;10,96884
 727,98; 6237,879;  253,522;54627,042;11,00601
 728,55; 6269,461;  270,369;54566,774;11,04878
 729,12; 6218,659;  219,830;54591,199;11,03307
 729,69; 6264,241;  273,292;54819,855;10,98318
 730,26; 6293,901;  249,599;54991,972;11,04136
 730,82; 6248,176;  246,676;54801,858;11,00079
 731,39; 6288,451;  243,445;54894,283;11,06114
 731,96; 6316,725;  232,984;55116,169;11,08489
 732,53; 6357,923;  244,215;55468,824;11,07062
 733,10; 6346,890;  258,984;55492,711;11,02208
 733,67; 6446,550;  244,599;55699,751;11,18372
 734,24; 6362,286;  243,676;55432,099;11,08676
 734,81; 6421,099;  270,369;55555,754;11,12542
 735,38; 6375,913;  249,599;55315,256;11,12547
 735,95; 6369,803;  240,676;55056,219;11,18137
 736,52; 6373,847;  263,676;55354,336;11,09112
 737,09; 6393,583;  261,599;54997,838;11,20279
 737,66; 6452,781;  299,369;55233,109;11,20152
 738,23; 6430,671;  250,215;55200,072;11,24745
 738,80; 6513,561;  305,599;55528,573;11,24163
 739,37; 6469,682;  286,523;55690,383;11,16016
 739,94; 6453,726;  251,830;55706,423;11,18374
 740,51; 6610,232;  352,753;55704,078;11,30502
 741,07; 6493,122;  256,292;55709,349;11,24704
 741,64; 6542,320;  285,215;55927,697;11,24519
 742,21; 6547,518;  260,753;55903,353;11,29847
 742,78; 6505,177;  224,523;55704,931;11,32049
 743,35; 6530,144;  256,446;56020,510;11,25043
 743,92; 6617,804;  292,984;56187,781;11,31558
 744,49; 6610,617;  282,984;56069,821;11,34252
 745,06; 6616,353;  246,984;56056,707;11,41265
 745,63; 6538,782;  240,984;56037,055;11,28717
 746,19; 6560,518;  236,753;56016,326;11,33706
 746,76; 6590,178;  263,677;56017,520;11,34720
 747,33; 6612,222;  245,907;56044,021;11,40955
 747,90; 6649,881;  276,446;56258,908;11,38470
 748,47; 6641,310;  260,292;56098,563;11,42768
 749,04; 6694,892;  267,369;56140,065;11,50387
 749,61; 6681,398;  277,446;56087,874;11,47447
 750,17; 6669,519;  273,677;56126,453;11,45125
 750,74; 6725,871;  266,754;56050,339;11,57888
 751,31; 6671,684;  242,677;56038,379;11,52241
 751,88; 6671,113;  237,215;55875,804;11,56373
 752,45; 6721,926;  254,292;55955,306;11,61134
 753,02; 6697,431;  267,523;55796,423;11,57939
 753,58; 6719,322;  245,523;55712,924;11,67136
 754,15; 6675,904;  249,600;55850,580;11,55790
 754,72; 6700,640;  253,907;55587,620;11,65064
 755,29; 6646,223;  225,215;55477,429;11,62127
 755,86; 6695,267;  243,600;55599,392;11,65491
 756,42; 6759,619;  254,446;55484,202;11,77838
 756,99; 6692,663;  215,600;55437,396;11,72918
 757,56; 6676,707;  226,908;55457,897;11,67786
 758,13; 6685,366;  191,446;55448,784;11,75214
 758,70; 6752,026;  208,754;55384,285;11,85901
 759,26; 6783,070;  206,600;55497,633;11,89428
 759,83; 6743,344;  215,138;55651,904;11,77595
 760,40; 6781,619;  207,292;55360,559;11,92010
 760,97; 6782,202;  192,677;55437,446;11,92787
 761,53; 6783,784;  189,677;54953,794;12,04093
 762,10; 6776,828;  179,523;55044,218;12,02468
 762,67; 6795,718;  222,215;55154,181;11,96663
 763,24; 6740,839;  166,523;54675,760;12,06092
 763,80; 6774,191;  201,754;54842,877;12,02837
 764,37; 6726,466;  204,061;54755,379;11,95646
 764,94; 6743,433;  199,600;54295,573;12,09671
 765,50; 6717,323;  197,369;54383,382;12,03254
 766,07; 6795,367;  246,215;54367,653;12,10085
 766,64; 6763,334;  210,138;54001,770;12,18256
 767,21; 6718,301;  223,831;53891,656;12,10124
 767,77; 6739,730;  239,754;53840,927;12,12656
 768,34; 6742,697;  242,215;53776,737;12,14260
 768,91; 6753,433;  242,292;53575,084;12,20851
 769,47; 6764,939;  247,215;53579,817;12,22090
 770,04; 6761,060;  232,600;53440,011;12,26983
 770,61; 6737,258;  225,215;53255,435;12,27987
 771,18; 6712,302;  208,446;53085,091;12,30005
 771,74; 6747,807;  235,292;53323,285;12,26740
 772,31; 6717,621;  230,215;53058,940;12,28007
 772,88; 6689,742;  214,446;52707,750;12,33547
 773,44; 6702,709;  218,446;52618,482;12,37454
 774,01; 6698,368;  234,446;52727,599;12,31384
 774,58; 6724,874;  223,216;52399,947;12,46084
 775,14; 6738,302;  211,600;52576,064;12,46399
 775,71; 6702,193;  215,985;52494,797;12,40695
 776,27; 6752,698;  268,600;52398,067;12,43845
 776,84; 6839,204;  295,139;52499,492;12,53548
 777,41; 6773,555;  235,139;52180,071;12,58721
 777,97; 6743,061;  231,985;51969,342;12,58486
 778,54; 6751,336;  238,369;51924,766;12,60093
 779,11; 6808,380;  260,293;51930,191;12,67292
 779,67; 6765,962;  214,677;51953,308;12,66227
 780,24; 6766,160;  238,523;51668,887;12,69219
 780,80; 6774,127;  249,523;51699,773;12,68138
 781,37; 6800,864;  243,293;51610,659;12,76603
 781,94; 6795,292;  234,908;51420,238;12,81692
 782,50; 6784,644;  240,293;51404,739;12,79082
 783,07; 6760,150;  254,677;51467,472;12,70283
 783,63; 6775,578;  221,908;51216,358;12,85173
 784,20; 6763,007;  253,523;51172,475;12,78401
 784,77; 6771,282;  231,062;50910,054;12,90519
 785,33; 6766,864;  212,985;50735,940;12,97208
 785,90; 6763,908;  234,600;50656,749;12,94929
 786,46; 6791,183;  250,446;50620,020;12,98549
 787,03; 6765,304;  221,446;50350,599;13,05400
 787,59; 6752,887;  236,600;50371,947;12,99739
 788,16; 6782,546;  240,985;50292,141;13,06975
 788,73; 6775,359;  244,062;50144,565;13,08864
 789,29; 6747,249;  228,677;49801,529;13,14948
 789,86; 6736,832;  253,677;49716,876;13,10703
 790,42; 6726,799;  235,908;49448,378;13,18952
 790,99; 6718,920;  250,831;49178,649;13,21966
 791,55; 6726,425;  224,447;49200,535;13,27582
 792,12; 6729,316;  259,216;49231,883;13,21166
 792,68; 6675,898;  242,216;48849,846;13,23595
 793,25; 6731,173;  241,293;48615,886;13,41589
 793,81; 6751,602;  295,600;48344,542;13,43630
 794,38; 6598,492;  207,370;48147,736;13,33140
 794,94; 6651,305;  218,985;47935,007;13,48042
 795,51; 6660,118;  247,447;47653,431;13,52714
 796,07; 6598,085;  240,139;47466,087;13,46282
 796,64; 6628,053;  244,216;47469,204;13,51792
 797,20; 6587,020;  241,677;47105,552;13,53994
 797,77; 6518,910;  215,908;46680,823;13,56508
 798,33; 6534,262;  226,370;46547,632;13,61770
 798,90; 6582,844;  256,524;46521,903;13,67398
 799,46; 6542,196;  225,601;45897,789;13,83029
 800,03; 6494,009;  238,831;45879,368;13,70531
 800,59; 6499,515;  250,601;45703,177;13,74821
 801,15; 6500,559;  252,985;45521,910;13,80102
 801,72; 6454,757;  240,293;45155,334;13,83604
 802,28; 6423,031;  265,370;44877,221;13,80275
 802,85; 6437,614;  236,524;44621,338;13,97120
 803,41; 6427,889;  237,447;44556,762;13,96782
 803,98; 6384,317;  235,293;44047,418;14,03498
 804,54; 6382,823;  233,524;43920,766;14,07573
 805,11; 6379,021;  241,139;43638,113;14,14357
 805,67; 6373,603;  261,216;43593,461;14,10586
 806,23; 6306,416;  241,216;43168,732;14,12893
 806,80; 6346,768;  247,985;43040,695;14,25192
 807,36; 6368,966;  257,447;43046,812;14,28280
 807,93; 6340,318;  278,985;42722,237;14,28103
 808,49; 6264,823;  222,216;42402,585;14,32564
 809,05; 6276,637;  207,601;42154,087;14,46852
 809,62; 6285,758;  251,524;42141,511;14,40495
 810,18; 6260,494;  246,755;42042,551;14,38838
 810,74; 6223,769;  216,985;41760,822;14,45890
 811,31; 6234,967;  210,601;41524,709;14,58186
 811,87; 6231,703;  234,524;41277,903;14,61181
 812,44; 6282,670;  254,524;41479,250;14,62265
 813,00; 6192,099;  192,293;41034,598;14,69017
 813,56; 6236,297;  243,139;41162,484;14,64627
 814,13; 6241,648;  233,985;41008,448;14,73389
 814,69; 6222,615;  236,062;40900,949;14,72168
 815,25; 6122,506;  207,139;40381,066;14,72439
 815,82; 6202,011;  240,755;40351,491;14,86200
 816,38; 6213,440;  268,601;40127,762;14,91461
 816,94; 6096,945;  215,062;39958,802;14,79952
 817,51; 6096,143;  212,524;39646,535;14,92016
 818,07; 6066,649;  218,909;39392,882;14,92762
 818,63; 6053,308;  231,755;39210,307;14,93527
 819,20; 6061,660;  227,524;39112,270;15,00366
 819,76; 6014,396;  214,909;38788,849;15,03473
 820,32; 6039,748;  256,139;38646,966;15,06508
 820,89; 6015,946;  247,370;38460,391;15,09584
 821,45; 5971,605;  214,986;38189,431;15,15919
 822,01; 5950,495;  233,216;37871,086;15,19023
 822,57; 5990,924;  241,063;37855,280;15,28640
 823,14; 5901,660;  211,293;37486,167;15,26596
 823,70; 5903,628;  219,293;37306,745;15,32684
 824,26; 5867,979;  214,139;37121,939;15,31882
 824,82; 5926,485;  236,524;37027,441;15,46567
 825,39; 5826,452;  214,370;36749,481;15,36079
 825,95; 5847,188;  244,063;36730,752;15,35663
 826,51; 5845,925;  232,755;36361,330;15,53665
 827,08; 5879,815;  261,986;36483,217;15,50977
 827,64; 5869,090;  243,140;36268,334;15,61671
 828,20; 5816,980;  212,370;35898,143;15,70545
 828,76; 5861,332;  253,986;35886,029;15,73681
 829,32; 5855,145;  257,370;35756,454;15,76879
 829,89; 5826,112;  214,293;35706,186;15,81155
 830,45; 5852,156;  239,140;35627,303;15,86128
 831,01; 5837,046;  225,370;35479,190;15,91792
 831,57; 5812,398;  229,986;35345,230;15,89740
 832,14; 5796,980;  211,140;35348,655;15,89709
 832,70; 5796,640;  210,447;35060,695;16,02913
 833,26; 5793,915;  206,678;34902,889;16,10330
 833,82; 5793,959;  235,063;34895,467;16,03817
 834,38; 5811,695;  209,909;34862,200;16,16570
 834,95; 5795,508;  208,063;34716,471;16,19155
 835,51; 5756,783;  186,217;34589,818;16,19181
 836,07; 5811,750;  221,370;34684,397;16,22138
 836,63; 5849,717;  247,909;34621,206;16,29698
 837,19; 5809,069;  234,524;34434,862;16,29968
 837,75; 5745,882;  190,217;34086,287;16,39029
 838,32; 5815,388;  249,371;34296,327;16,34806
 838,88; 5868,893;  242,447;34342,905;16,49962
 839,44; 5830,860;  229,217;34228,561;16,47574
 840,00; 5854,520;  220,217;34125,293;16,61787
 840,56; 5782,641;  212,294;33756,487;16,60600
 841,12; 5768,223;  207,601;33786,296;16,55997
 841,68; 5760,652;  198,140;33638,490;16,63413
 842,25; 5800,234;  209,371;33518,838;16,78461
 842,81; 5758,278;  211,678;33322,032;16,75186
 843,37; 5736,323;  207,601;33416,226;16,64845
 843,93; 5794,751;  215,140;33342,497;16,84291
 844,49; 5854,872;  230,678;33339,999;16,98674
 845,05; 5778,608;  189,140;33131,347;16,96750
 845,61; 5843,960;  237,524;33205,002;17,00596
 846,17; 5790,850;  208,294;33015,658;17,01617
 846,73; 5863,741;  217,217;33016,775;17,21524
 847,29; 5790,169;  200,525;32860,661;17,11458
 847,86; 5788,521;  207,217;32722,009;17,16543
 848,42; 5788,873;  196,140;32543,203;17,28977
 848,98; 5800,147;  216,678;32561,858;17,26214
 849,54; 5805,345;  199,755;32552,283;17,32659
 850,10; 5826,620;  224,755;32341,708;17,44208
 850,66; 5788,972;  201,063;32299,517;17,40865
 851,22; 5796,247;  193,832;32128,403;17,54342
 851,78; 5852,060;  247,832;32229,674;17,52315
 852,34; 5807,950;  222,755;31870,637;17,64793
 852,90; 5843,994;  213,602;31847,831;17,79842
 853,46; 5792,577;  204,294;31624,410;17,78568
 854,02; 5808,467;  213,678;31638,450;17,80375
 854,58; 5771,203;  204,678;31429,105;17,82747
 855,14; 5765,247;  201,986;31338,761;17,86717
 855,70; 5762,291;  176,755;31218,416;17,99368
 856,26; 5774,874;  235,371;31233,534;17,87042
 856,82; 5787,764;  203,371;30950,574;18,16228
 857,38; 5801,346;  242,217;30908,614;18,12776
 857,94; 5725,390;  209,986;30828,577;18,01325
 858,50; 5748,973;  226,294;30618,617;18,17130
 859,06; 5695,094;  202,448;30493,426;18,13294
 859,62; 5738,522;  218,602;30468,390;18,24780
 860,18; 5673,105;  212,986;30324,584;18,13294
 860,74; 5658,303;  181,909;30105,547;18,30123
 861,30; 5624,578;  194,217;29888,125;18,28779
 861,86; 5740,545;  241,679;30023,935;18,46356
 862,42; 5640,743;  212,679;29767,821;18,36589
 862,98; 5700,479;  233,679;29734,476;18,53103
 863,54; 5643,677;  222,756;29541,209;18,48979
 864,10; 5637,029;  220,525;29542,249;18,47266
 864,66; 5606,150;  201,140;29320,905;18,56131
 865,22; 5611,886;  212,602;29224,714;18,61045
 865,78; 5591,930;  228,217;29105,677;18,57405
 866,34; 5604,282;  205,140;29035,333;18,72739
 866,90; 5594,556;  218,679;28876,911;18,75858
 867,45; 5548,985;  216,525;28690,105;18,72775
 868,01; 5610,798;  223,756;28554,145;19,01507
 868,57; 5533,612;  204,910;28341,955;18,93839
 869,13; 5521,271;  194,525;28286,995;18,96147
 869,69; 5529,854;  204,294;28199,343;19,02322
 870,25; 5519,359;  197,602;28030,152;19,12062
 870,81; 5528,865;  210,525;27974,346;19,15565
 871,37; 5525,755;  215,679;27896,617;19,18315
 871,93; 5495,183;  229,910;27765,580;19,12165
 872,49; 5553,920;  239,987;27545,697;19,46089
 873,04; 5469,502;  197,833;27359,506;19,40849
 873,60; 5468,546;  200,602;27265,546;19,46409
 874,16; 5469,052;  224,910;27204,048;19,43777
 874,72; 5445,283;  203,910;27066,048;19,51212
 875,28; 5508,437;  218,910;27009,971;19,74363
 875,84; 5497,975;  216,833;26925,510;19,77313
 876,40; 5440,821;  209,756;26853,587;19,63331
 876,95; 5459,898;  219,833;26916,356;19,62827
 877,51; 5481,975;  234,833;26936,817;19,65076
 878,07; 5500,052;  242,833;26841,817;19,76474
 878,63; 5518,052;  211,910;26853,587;19,91670
 879,19; 5504,437;  230,448;26860,279;19,80481
 879,75; 5518,821;  209,910;26893,740;19,89561
 880,30; 5570,437;  209,756;26889,971;20,09234
 880,86; 5605,898;  243,833;27000,202;20,04033
 881,42; 5551,898;  192,525;27050,202;19,95472
 881,98; 5617,283;  226,756;27168,048;20,00842
 882,54; 5656,129;  211,525;27217,663;20,16062
 883,09; 5716,283;  227,756;27339,279;20,24426
 883,65; 5735,052;  197,602;27335,202;20,40508
 884,21; 5855,744;  238,987;27546,587;20,56848
 884,77; 5801,283;  211,217;27684,202;20,34750
 885,32; 5880,129;  213,756;27806,202;20,53596
 885,88; 5916,821;  241,679;27903,587;20,51609
 886,44; 5956,283;  225,140;27971,202;20,65570
 887,00; 5983,898;  228,140;27985,048;20,73631
 887,56; 6027,590;  213,910;28107,048;20,84269
 888,11; 6046,206;  212,602;28153,740;20,87819
 888,67; 6121,283;  250,371;28319,202;20,91612
 889,23; 6095,821;  220,987;28304,202;20,91938
 889,79; 6072,513;  195,294;28167,279;21,01109
 890,34; 6059,744;  221,448;28126,510;20,92200
 890,90; 6210,821;  274,448;28239,510;21,22782
 891,46; 6089,590;  206,756;28133,894;21,06494
 892,01; 6130,360;  235,910;28142,202;21,12230
 892,57; 6143,513;  242,525;28027,433;21,23811
 893,13; 6072,129;  214,371;27874,510;21,17762
 893,69; 6068,052;  206,679;27834,433;21,21553
 894,24; 6063,360;  209,833;27745,433;21,25803
 894,80; 6060,437;  209,756;27656,048;21,31683
 895,36; 6045,360;  214,679;27516,279;21,35655
 895,91; 6003,206;  217,833;27286,202;21,37319
 896,47; 6020,283;  232,140;27175,510;21,48262
 897,03; 5985,975;  213,679;26974,740;21,56976
 897,58; 5970,667;  228,679;26837,587;21,57920
 898,14; 5946,975;  227,679;26705,740;21,60013
 898,70; 5851,513;  196,140;26521,433;21,48266
 899,25; 5957,513;  210,294;26541,740;21,82645
 899,81; 5936,821;  217,371;26378,202;21,86265
 900,37; 5843,052;  187,525;26079,894;21,84245
 900,92; 5862,052;  213,525;26093,048;21,82624
 901,48; 5862,129;  209,602;26053,279;21,87199
 902,03; 5827,590;  210,140;25818,740;21,93580
 902,59; 5846,667;  213,602;25710,510;22,09313
 903,15; 5797,513;  228,140;25576,202;21,97159
 903,70; 5760,821;  220,602;25382,587;22,01821
 904,26; 5724,206;  197,756;25265,356;22,04619
 904,82; 5744,744;  209,371;25302,202;22,05958
 905,37; 5770,437;  222,140;25079,510;22,32053
 905,93; 5698,667;  211,448;24944,971;22,18535
 906,48; 5721,437;  218,140;24824,279;22,36554
 907,04; 5741,283;  226,833;24824,740;22,41837
 907,60; 5685,206;  205,448;24573,356;22,48760
 908,15; 5656,513;  193,294;24495,202;22,48062
 908,71; 5697,283;  234,140;24481,587;22,53079
 909,26; 5670,821;  212,602;24315,048;22,64591
 909,82; 5690,283;  227,217;24178,433;22,80914
 910,37; 5660,744;  248,217;24143,433;22,65109
 910,93; 5600,513;  211,140;23932,356;22,71963
 911,48; 5591,667;  195,987;23748,740;22,90892
 912,04; 5576,667;  204,371;23688,894;22,87590
 912,60; 5602,052;  218,063;23709,663;22,91878
 913,15; 5544,437;  212,217;23494,202;22,90277
 913,71; 5549,821;  200,602;23282,587;23,17487
 914,26; 5510,283;  192,525;23220,817;23,09228
 914,82; 5543,590;  218,602;23132,510;23,23911
 915,37; 5477,283;  197,217;23068,587;23,08592
 915,93; 5550,513;  254,371;23015,663;23,26820
 916,48; 5438,052;  202,217;22835,894;23,13294
 917,04; 5479,898;  227,910;22721,510;23,34881
 917,59; 5479,052;  232,525;22648,433;23,40537
 918,15; 5380,206;  183,910;22479,740;23,30613
 918,70; 5399,360;  201,294;22344,510;23,47475
 919,26; 5448,437;  216,756;22277,663;23,71471
 919,81; 5375,206;  195,448;22119,125;23,62632
 920,37; 5354,821;  191,063;21986,587;23,69183
 920,92; 5408,667;  227,987;22000,202;23,79492
 921,48; 5332,744;  192,294;21781,971;23,80976
 922,03; 5352,129;  203,063;21755,202;23,89120
 922,59; 5320,744;  198,910;21551,356;23,98711
 923,14; 5348,667;  200,294;21536,971;24,12922
 923,69; 5325,590;  228,987;21373,510;24,10366
 924,25; 5319,206;  231,294;21373,279;24,06544
 924,80; 5228,667;  210,833;21137,125;23,97861
 925,36; 5245,129;  205,371;21097,433;24,12284
 925,91; 5233,821;  207,987;20935,202;24,24751
 926,47; 5198,283;  187,910;20840,663;24,26007
 927,02; 5272,283;  253,063;20835,817;24,38556
 927,57; 5205,975;  199,602;20660,740;24,46772
 928,13; 5161,052;  186,371;20612,663;24,35430
 928,68; 5141,744;  202,448;20522,587;24,30739
 929,24; 5100,821;  168,448;20419,663;24,35594
 929,79; 5094,437;  192,987;20219,971;24,47423
 930,34; 5066,513;  203,910;20070,894;24,47580
 930,90; 5051,360;  199,140;20103,587;24,37756
 931,45; 5095,437;  208,448;20063,971;24,61274
 932,01; 5067,513;  207,294;19824,894;24,77479
 932,56; 5056,898;  221,987;19795,894;24,70080
 933,11; 5033,975;  226,833;19744,663;24,62949
 933,67; 4979,283;  195,833;19569,740;24,69017
 934,22; 5017,052;  203,294;19479,663;24,97233
 934,77; 4999,667;  232,217;19436,202;24,82532
 935,33; 4951,667;  214,525;19295,279;24,82681
 935,88; 5003,052;  217,063;19181,510;25,23664
 936,43; 4950,206;  193,371;19164,663;25,07386
 936,99; 4931,898;  211,063;19027,510;25,08887
 937,54; 4890,360;  184,140;18841,894;25,22393
 938,09; 4938,821;  208,602;18791,740;25,45436
 938,65; 4862,129;  209,294;18645,817;25,23705
 939,20; 4868,129;  183,294;18601,740;25,43556
 939,75; 4833,437;  189,525;18505,356;25,35463
 940,31; 4843,129;  185,448;18393,971;25,57967
 940,86; 4847,206;  209,756;18389,048;25,50952
 941,41; 4880,590;  261,063;18269,817;25,65156
 941,96; 4839,744;  201,910;18149,433;25,84108
 942,52; 4817,898;  202,294;18048,125;25,86377
 943,07; 4752,898;  182,910;17949,125;25,72291
 943,62; 4762,590;  199,525;17862,740;25,83372
 944,18; 4741,975;  198,987;17755,663;25,87613
 944,73; 4732,975;  209,371;17721,510;25,83125
 945,28; 4702,437;  172,910;17468,510;26,18890
 945,83; 4704,744;  192,910;17503,740;26,06365
 946,39; 4713,590;  190,910;17489,740;26,14443
 946,94; 4708,821;  218,063;17365,510;26,18908
 947,49; 4636,129;  202,756;17228,740;26,03886
 948,04; 4698,206;  222,756;17257,663;26,27223
 948,59; 4659,513;  224,448;17127,510;26,23824
 949,15; 4633,360;  181,987;17016,356;26,44217
 949,70; 4631,513;  203,602;16957,587;26,42901
 950,25; 4571,744;  216,063;16872,894;26,14952
 950,80; 4534,283;  170,140;16704,125;26,39498
 951,36; 4511,206;  166,602;16642,279;26,36980
 951,91; 4570,513;  215,756;16653,279;26,49279
 952,46; 4504,283;  188,217;16474,125;26,50184
 953,01; 4513,129;  211,756;16479,279;26,44148
 953,56; 4475,975;  182,217;16339,663;26,57448
 954,11; 4534,052;  208,217;16342,971;26,81066
 954,67; 4507,667;  186,602;16240,433;26,91610
 955,22; 4435,129;  165,140;16065,125;26,85530
 955,77; 4485,975;  227,371;16076,510;26,86962
 956,32; 4484,590;  233,525;15970,125;27,01387
 956,87; 4421,360;  188,217;15816,356;27,08667
 957,42; 4380,360;  199,448;15744,202;26,89596
 957,98; 4399,744;  195,525;15677,125;27,15623
 958,53; 4394,821;  216,679;15685,894;27,00940
 959,08; 4382,283;  190,756;15538,048;27,31118
 959,63; 4368,975;  185,140;15422,356;27,45800
 960,18; 4346,667;  204,063;15400,817;27,25979
 960,73; 4311,821;  202,756;15353,048;27,12202
 961,28; 4260,206;  188,371;15228,510;27,07312
 961,83; 4348,437;  205,525;15224,510;27,58450
 962,39; 4229,975;  184,602;15026,894;27,25572
 962,94; 4255,129;  217,756;14998,510;27,31507
 963,49; 4228,360;  202,756;14846,048;27,49111
 964,04; 4240,360;  212,063;14804,971;27,60448
 964,59; 4185,744;  170,140;14735,356;27,56982
 965,14; 4215,206;  214,140;14637,740;27,73971
 965,69; 4180,129;  204,525;14532,356;27,74742
 966,24; 4153,821;  189,910;14443,894;27,80915
 966,79; 4178,744;  215,217;14397,125;27,94777
 967,34; 4092,129;  169,448;14195,587;27,96693
 967,89; 4107,513;  195,679;14179,048;27,97491
 968,44; 4088,513;  205,294;14128,740;27,88979
 968,99; 4075,206;  210,679;14066,740;27,89052
 969,55; 4065,206;  202,910;13953,817;28,08757
 970,10; 4040,898;  205,756;13867,587;28,07195
 970,65; 4037,206;  216,217;13742,587;28,24844
 971,20; 4004,898;  194,140;13683,510;28,25008
 971,75; 3960,360;  175,833;13469,356;28,46895
 972,30; 3972,206;  200,525;13451,663;28,46307
 972,85; 3909,590;  191,756;13365,125;28,22235
 973,40; 3902,206;  191,756;13249,663;28,41535
 973,95; 3914,437;  202,140;13220,740;28,51533
 974,50; 3917,129;  223,448;13146,894;28,58124
 975,05; 3856,052;  201,756;13000,279;28,55248
 975,60; 3863,975;  215,140;12978,894;28,58747
 976,15; 3832,744;  191,833;12840,663;28,78457
 976,70; 3807,898;  203,063;12794,356;28,62958
 977,25; 3819,360;  212,833;12717,817;28,84071
 977,80; 3767,975;  194,679;12616,433;28,76644
 978,35; 3729,052;  218,448;12468,048;28,65893
 978,89; 3691,437;  186,679;12345,510;28,82479
 979,44; 3691,898;  197,756;12355,971;28,73894
 979,99; 3634,821;  186,910;12160,510;28,79595
 980,54; 3659,206;  227,987;12152,356;28,77485
 981,09; 3633,744;  219,140;12073,433;28,80479
 981,64; 3625,437;  206,833;11907,663;29,21676
 982,19; 3616,437;  235,910;11902,510;28,97611
 982,74; 3586,206;  214,987;11733,971;29,26664
 983,29; 3526,975;  191,756;11599,356;29,23682
 983,84; 3519,052;  209,525;11474,202;29,37969
 984,39; 3595,821;  262,833;11432,587;29,83941
 984,94; 3446,744;  178,294;11322,971;29,32745
 985,49; 3469,283;  231,679;11240,587;29,40895
 986,03; 3462,129;  225,217;11184,587;29,53556
 986,58; 3434,206;  245,448;11041,740;29,53567
 987,13; 3360,052;  207,910;10894,587;29,49600
 987,68; 3338,821;  222,140;10822,125;29,40269
 988,23; 3327,360;  221,063;10802,048;29,35734
 988,78; 3295,437;  193,063;10655,433;29,65268
 989,33; 3277,129;  216,833;10548,125;29,62162
 989,88; 3277,744;  224,756;10489,740;29,74177
 990,42; 3205,206;  210,679;10372,433;29,46860
 990,97; 3205,513;  210,833;10237,356;29,86759
 991,52; 3183,052;  229,140;10154,125;29,76238
 992,07; 3164,590;  237,910;10121,663;29,61102
 992,62; 3117,513;  222,448; 9972,356;29,69326
 993,17; 3095,283;  221,448; 9894,663;29,70920
 993,71; 3068,206;  222,756; 9765,433;29,81815
 994,26; 3015,590;  201,371; 9678,125;29,69603
 994,81; 3026,052;  221,140; 9602,510;29,89874
 995,36; 2965,129;  204,371; 9478,894;29,76711
 995,91; 2948,667;  217,679; 9431,356;29,64059
 996,45; 2955,975;  205,140; 9270,279;30,34520
 997,00; 2902,744;  189,987; 9123,740;30,36526
 997,55; 2875,667;  216,987; 9109,587;29,89768
 998,10; 2886,513;  242,756; 8988,433;30,22931
 998,65; 2843,667;  204,140; 8947,356;30,18943
 999,19; 2822,206;  221,371; 8811,663;30,27644
 999,74; 2813,052;  236,987; 8739,510;30,29766
1000,29; 2765,667;  226,294; 8655,202;30,12695
1000,84; 2708,667;  201,679; 8495,894;30,22575
1001,38; 2720,513;  213,217; 8413,971;30,57397
1001,93; 2700,129;  229,910; 8355,356;30,40103
1002,48; 2637,667;  204,448; 8209,125;30,39747
1003,03; 2643,206;  223,910; 8186,894;30,38178
1003,57; 2625,052;  227,833; 8108,663;30,41836
1004,12; 2625,744;  256,371; 7949,048;30,80037
1004,67; 2592,513;  210,602; 7886,356;31,03163
1005,22; 2497,360;  205,448; 7729,125;30,46265
1005,76; 2479,975;  197,833; 7624,356;30,72962
1006,31; 2502,744;  228,217; 7583,894;30,92206
1006,86; 2438,513;  215,140; 7489,663;30,56383
1007,40; 2393,744;  202,602; 7323,587;30,77022
1007,95; 2392,667;  223,910; 7254,587;30,84707
1008,50; 2373,206;  215,910; 7108,048;31,30082
1009,04; 2328,744;  211,987; 7077,894;30,82998
1009,59; 2288,283;  215,525; 6945,279;30,79990
1010,14; 2265,975;  191,063; 6864,587;31,09170
1010,68; 2223,590;  202,217; 6776,971;30,74447
1011,23; 2212,744;  211,987; 6622,356;31,21127
1011,78; 2202,437;  223,525; 6594,279;31,06244
1012,32; 2175,590;  225,910; 6476,740;31,19075
1012,87; 2198,513;  240,063; 6461,279;31,48018
1013,42; 2130,744;  198,602; 6310,740;31,61156
1013,96; 2155,744;  235,063; 6342,587;31,44779
1014,51; 2089,667;  176,679; 6239,510;31,55273
1015,06; 2077,975;  194,294; 6241,663;31,14876
1015,60; 2153,590;  250,756; 6316,817;31,36853
1016,15; 2084,744;  204,140; 6243,894;31,13709
1016,69; 2145,821;  205,371; 6311,587;31,77828
1017,24; 2126,360;  193,371; 6283,202;31,74125
1017,79; 2163,052;  236,756; 6368,663;31,41430
1018,33; 2143,975;  201,063; 6299,663;31,85832
1018,88; 2165,052;  222,679; 6390,048;31,49435
1019,42; 2169,821;  206,987; 6383,202;31,78054
1019,97; 2140,744;  202,525; 6343,279;31,56321
1020,51; 2200,283;  224,679; 6435,125;31,81098
1021,06; 2162,437;  196,679; 6409,048;31,64264
1021,61; 2133,360;  177,525; 6367,587;31,59637
1022,15; 2106,052;  168,140; 6285,279;31,68003
1022,70; 2134,283;  201,987; 6293,663;31,72027
1023,24; 2110,052;  194,217; 6266,125;31,55243
1023,79; 2109,437;  207,602; 6194,279;31,76778
1024,33; 2106,513;  189,140; 6167,740;32,07060
1024,88; 2090,129;  221,371; 6046,740;32,07964
1025,42; 2048,360;  211,140; 5985,356;31,81764
1025,97; 2019,129;  199,833; 5905,663;31,88486
1026,51; 1979,052;  176,063; 5792,817;32,10019
1027,06; 1973,283;  192,217; 5716,433;32,24106
1027,60; 1965,898;  216,217; 5660,356;32,13880
1028,15; 1965,898;  214,910; 5538,048;32,89391
1028,69; 1872,206;  173,602; 5427,894;32,32793
1029,24; 1886,821;  187,294; 5382,663;32,71234
1029,78; 1844,975;  189,910; 5295,048;32,41960
1030,33; 1813,744;  178,679; 5186,817;32,64817
1030,87; 1807,052;  195,679; 5110,356;32,78696
1031,42; 1754,206;  175,833; 5040,510;32,44559
1031,96; 1779,590;  207,525; 4971,587;32,99843
1032,51; 1727,898;  184,833; 4889,202;32,80069
1033,05; 1740,513;  204,679; 4859,971;32,99115
1033,60; 1673,590;  165,525; 4725,971;33,06837
1034,14; 1669,667;  191,679; 4665,971;33,03290
1034,69; 1665,898;  202,140; 4596,433;33,31043
1035,23; 1650,744;  195,987; 4562,356;33,31733
1035,77; 1635,283;  190,448; 4520,048;33,37109
1036,32; 1582,437;  169,525; 4409,433;33,32411
1036,86; 1597,667;  201,679; 4379,817;33,41173
1037,41; 1580,513;  205,756; 4278,279;33,75690
1037,95; 1556,667;  181,679; 4218,971;34,05719
1038,50; 1515,898;  187,217; 4162,510;33,42347
1039,04; 1535,283;  213,910; 4120,587;33,82345
1039,58; 1462,206;  186,140; 4047,740;33,04499
1040,13; 1476,129;  197,525; 3989,048;33,72270
1040,67; 1482,360;  229,448; 3970,817;33,48805
1041,21; 1490,975;  213,140; 3912,740;34,53980
1041,76; 1410,975;  179,679; 3816,356;33,85773
1042,30; 1417,898;  204,063; 3788,125;33,86757
1042,85; 1386,437;  200,448; 3725,971;33,64007
1043,39; 1359,744;  166,910; 3647,125;34,27474
1043,93; 1377,283;  211,217; 3640,894;33,99928
1044,48; 1363,667;  215,679; 3562,663;34,29919
1045,02; 1324,513;  197,525; 3481,279;34,32013
1045,56; 1342,206;  215,294; 3502,971;34,27683
1046,11; 1299,360;  206,756; 3442,894;33,76258
1046,65; 1281,744;  208,448; 3371,663;33,93054
1047,19; 1257,052;  188,063; 3327,279;34,05273
1047,74; 1233,821;  184,833; 3238,510;34,35165
1048,28; 1231,206;  201,910; 3227,279;34,02217
1048,82; 1262,975;  212,833; 3210,510;35,03187
1049,37; 1235,437;  214,602; 3148,048;34,79984
1049,91; 1197,975;  197,756; 3114,433;34,29311
1050,45; 1199,975;  219,140; 3066,971;34,44146
1050,99; 1166,360;  201,294; 3028,587;34,13391
1051,54; 1131,590;  197,756; 2964,587;33,75106
1052,08; 1154,283;  220,217; 2919,125;34,60902
1052,62; 1148,975;  211,756; 2906,356;34,78139
1053,16; 1100,360;  191,525; 2845,894;34,23919
1053,71; 1118,590;  203,756; 2818,202;34,99153
1054,25; 1102,052;  216,371; 2767,125;34,72231
1054,79; 1105,821;  212,910; 2723,048;35,57220
1055,33; 1038,975;  177,602; 2670,279;34,55615
1055,88; 1061,590;  215,371; 2668,587;34,49429
1056,42; 1060,052;  222,987; 2646,817;34,53481
1056,96; 1038,360;  217,140; 2583,048;34,71054
1057,50; 1030,667;  211,371; 2545,433;35,10174
1058,05;  998,206;  200,987; 2502,356;34,64108
1058,59; 1014,513;  229,294; 2489,279;34,74445
1059,13;  982,898;  186,525; 2424,894;35,57827
1059,67;  981,590;  224,448; 2421,433;34,46280
1060,21;  948,898;  213,063; 2344,817;34,51780
1060,76;  963,206;  221,602; 2316,433;35,40161
1061,30;  958,283;  226,910; 2312,279;35,07163
1061,84;  918,052;  213,448; 2244,202;34,69666
1062,38;  903,052;  192,063; 2193,048;35,53193
1062,92;  954,052;  240,910; 2237,279;35,72196
1063,46;  909,667;  224,679; 2158,433;35,42273
1064,01;  869,898;  204,217; 2134,894;34,47914
1064,55;  885,590;  213,140; 2102,048;35,59994
1065,09;  848,975;  185,063; 2060,048;35,40891
1065,63;  880,206;  239,140; 2071,202;34,99148
1066,17;  884,975;  242,217; 2045,971;35,63445
1066,71;  863,821;  226,217; 2023,587;35,47428
1067,25;  841,052;  211,294; 1967,433;35,86037
1067,80;  859,744;  219,679; 1961,433;36,74833
1068,34;  845,667;  242,756; 1928,971;35,75531
1068,88;  802,360;  201,448; 1891,510;35,55560
1069,42;  831,898;  241,294; 1921,433;35,15209
1069,96;  798,360;  200,217; 1850,279;36,24970
1070,50;  832,821;  241,910; 1861,433;36,48676
1071,04;  773,821;  192,756; 1814,817;35,82265
1071,58;  769,898;  210,602; 1809,510;34,97989
1072,12;  783,513;  207,987; 1767,971;36,89312
1072,66;  766,975;  205,602; 1757,356;36,17668
1073,21;  782,898;  228,371; 1752,202;36,39032
1073,75;  753,821;  226,602; 1707,202;35,60849
1074,29;  729,898;  218,371; 1684,433;34,89123
1074,83;  752,437;  233,140; 1701,125;35,37477
1075,37;  748,437;  230,525; 1658,202;36,27652
1075,91;  739,975;  224,987; 1647,663;36,19855
1076,45;  717,283;  217,063; 1628,894;35,43054
1076,99;  727,360;  236,756; 1589,125;36,27736
1077,53;  706,821;  206,525; 1573,971;36,58617
1078,07;  707,129;  222,525; 1573,433;35,87246
1078,61;  699,052;  217,833; 1538,894;36,42671
1079,15;  694,129;  212,525; 1524,663;36,70374
1079,69;  672,975;  216,140; 1491,433;35,82195
1080,23;  696,975;  233,833; 1482,587;37,08836
1080,77;  720,437;  267,910; 1506,048;36,54898
1081,31;  668,360;  213,679; 1440,894;37,04979
1081,85;  684,437;  224,602; 1452,048;37,46271
1082,39;  646,821;  209,294; 1414,663;36,29817
1082,93;  659,052;  221,063; 1410,894;36,81099
1083,47;  631,129;  196,140; 1361,971;37,31146
1084,01;  663,052;  236,140; 1391,587;36,94777
1084,55;  635,975;  209,987; 1330,510;38,01693
1085,09;  648,129;  230,448; 1354,202;37,16835
1085,63;  616,360;  214,371; 1322,894;36,26343
1086,17;  597,898;  212,679; 1282,433;36,01008
1086,71;  605,744;  213,910; 1289,356;36,43461
1087,24;  626,360;  232,140; 1300,663;36,89384
1087,78;  630,437;  224,833; 1273,817;38,66633
1088,32;  578,898;  215,217; 1228,202;35,90190
1088,86;  610,975;  241,987; 1251,202;36,56191
1089,40;  596,129;  217,602; 1222,433;37,67071
1089,94;  567,129;  195,833; 1181,433;37,67209
1090,48;  583,129;  226,833; 1185,279;37,17435
1091,02;  595,975;  232,833; 1181,587;38,27571
1091,56;  568,667;  218,756; 1171,971;36,70855
1092,10;  544,744;  200,217; 1147,971;36,35194
1092,63;  585,437;  234,987; 1154,740;38,10259
1093,17;  572,975;  233,294; 1125,587;38,06833
1093,71;  553,052;  209,294; 1113,279;38,02694
1094,25;  569,821;  235,448; 1131,817;37,30305
1094,79;  547,975;  218,371; 1087,048;37,94320
1095,33;  544,744;  220,679; 1067,279;38,27845
1095,87;  551,821;  228,448; 1063,817;38,71020
1096,40;  512,052;  198,679; 1024,663;37,93934
1096,94;  537,360;  216,987; 1045,894;38,65003
1097,48;  529,206;  219,833; 1024,048;38,46893
1098,02;  511,975;  211,371; 1015,894;37,36423
1098,56;  488,283;  189,679;  980,048;37,78030
1099,10;  494,821;  185,833;  971,894;39,30843
1099,63;  489,052;  200,987;  948,587;38,53202
1100,17;  507,513;  222,602;  979,433;37,64534
1100,71;  524,206;  243,140;  987,433;37,76277

