
Integration time [ms]: 160,000
Averaging Nr. [scans]: 13
Smoothing Nr. [pixels]: 0
Data measured with spectrometer [name]: 2009305U1
Wave   ;Sample   ;Dark     ;Reference;Reflectance
[nm]   ;[counts] ;[counts] ;[counts] ;[%]

 175,72;  202,427;  192,833;  205,653;74,83599
 176,32;  240,475;  215,986;  216,813; 0,00000
 176,92;  275,157;  247,602;  254,971;373,92357
 177,52;  269,275;  255,679;  265,678;135,97366
 178,12;  253,507;  239,756;  224,864; 0,00000
 178,72;  269,413;  257,525;  250,340; 0,00000
 179,32;  265,619;  248,909;  241,998; 0,00000
 179,92;  278,262;  247,063;  242,319; 0,00000
 180,52;  258,160;  235,064;  254,068;121,53317
 181,12;  269,307;  243,833;  252,404;297,18583
 181,73;  288,940;  258,371;  266,338;383,72139
 182,33;  398,100;  327,141;  336,927;725,12255
 182,93;  291,696;  265,064;  266,645;1683,86939
 183,53;  256,293;  233,755;  224,030; 0,00000
 184,13;  248,999;  236,909;  229,431; 0,00000
 184,73;  306,627;  266,448;  273,739;551,08856
 185,33;  269,891;  232,445;  341,197;34,43307
 185,93;  272,303;  226,213;  348,375;37,72845
 186,53;  289,475;  244,675;  370,650;35,56209
 187,13;  307,837;  273,291;  414,063;24,54063
 187,73;  282,515;  243,598;  361,495;33,00920
 188,33;  285,150;  237,983;  370,649;35,55335
 188,93;  296,719;  250,059;  374,130;37,60734
 189,53;  288,692;  248,981;  393,125;27,54951
 190,13;  324,760;  274,058;  409,924;37,31801
 190,73;  267,163;  218,289;  365,019;33,30844
 191,34;  304,049;  256,905;  385,888;36,55060
 191,94;  282,772;  235,829;  359,614;37,92325
 192,54;  287,546;  240,984;  391,391;30,95759
 193,14;  305,244;  258,291;  390,009;35,64661
 193,74;  307,087;  260,214;  377,424;39,99038
 194,34;  296,972;  241,445;  388,106;37,86096
 194,94;  268,589;  209,983;  342,899;44,09203
 195,54;  238,914;  190,137;  332,970;34,14962
 196,14;  270,296;  225,291;  354,341;34,87403
 196,74;  259,416;  223,445;  343,719;29,90813
 197,34;  230,264;  197,522;  345,903;22,06637
 197,94;  273,051;  232,368;  373,573;28,81122
 198,54;  287,440;  228,599;  383,909;37,88599
 199,14;  252,934;  215,368;  380,241;22,78445
 199,74;  237,127;  190,292;  370,197;26,03367
 200,34;  240,329;  195,061;  379,885;24,49265
 200,94;  275,542;  233,599;  425,936;21,80684
 201,54;  260,258;  216,753;  432,596;20,15589
 202,14;  290,608;  230,061;  474,093;24,81128
 202,74;  264,864;  213,907;  473,146;19,65647
 203,34;  247,149;  180,907;  480,577;22,10499
 203,94;  225,269;  170,753;  486,255;17,27906
 204,54;  302,605;  238,445;  563,211;19,75570
 205,14;  247,078;  203,984;  571,733;11,71828
 205,74;  312,070;  236,907;  659,589;17,78226
 206,34;  275,174;  200,215;  679,015;15,65569
 206,94;  287,240;  210,138;  728,140;14,88460
 207,54;  266,526;  191,907;  773,579;12,82839
 208,14;  289,103;  194,522;  845,836;14,52143
 208,74;  298,353;  198,907;  918,683;13,81625
 209,34;  303,842;  202,215;  992,970;12,85198
 209,94;  311,445;  202,753; 1089,013;12,26413
 210,54;  302,585;  195,292; 1187,450;10,81411
 211,14;  319,981;  194,368; 1267,179;11,70873
 211,73;  343,166;  197,830; 1399,958;12,08988
 212,33;  374,117;  214,830; 1495,442;12,43838
 212,93;  350,504;  201,830; 1569,925;10,86723
 213,53;  332,162;  168,522; 1613,023;11,32846
 214,13;  371,568;  193,369; 1705,053;11,78811
 214,73;  333,916;  179,907; 1721,786; 9,98841
 215,33;  319,368;  163,830; 1742,628; 9,85168
 215,93;  375,586;  194,523; 1862,662;10,85418
 216,53;  333,568;  157,753; 1944,199; 9,84163
 217,13;  410,538;  209,061; 2159,512;10,32975
 217,73;  395,511;  196,599; 2334,342; 9,30476
 218,33;  367,904;  149,754; 2512,186; 9,23412
 218,93;  446,745;  177,292; 2802,474;10,26415
 219,53;  449,405;  179,830; 3052,680; 9,38352
 220,13;  454,401;  166,677; 3342,899; 9,05870
 220,73;  499,986;  178,292; 3659,770; 9,24018
 221,32;  535,276;  192,215; 4073,836; 8,83809
 221,92;  583,964;  184,984; 4477,909; 9,29389
 222,52;  603,544;  163,446; 4867,162; 9,35639
 223,12;  675,509;  187,984; 5286,413; 9,56226
 223,72;  704,703;  189,369; 5644,061; 9,44754
 224,32;  758,227;  186,830; 5997,482; 9,83361
 224,92;  781,284;  168,830; 6323,312; 9,95134
 225,52;  851,588;  197,753; 6670,557;10,10126
 226,12;  864,873;  180,753; 6972,357;10,07302
 226,72;  898,877;  160,753; 7292,274;10,35016
 227,31;  925,626;  151,984; 7646,565;10,32269
 227,91; 1030,917;  194,138; 8071,656;10,62238
 228,51; 1056,433;  165,984; 8435,636;10,76767
 229,11; 1127,922;  184,907; 8840,069;10,89540
 229,71; 1166,829;  170,830; 9126,800;11,12106
 230,31; 1214,049;  168,369; 9555,531;11,13947
 230,91; 1279,017;  158,599; 9813,841;11,60425
 231,51; 1331,338;  163,753;10061,634;11,79631
 232,10; 1412,462;  164,907;10384,972;12,20691
 232,70; 1501,511;  181,445;10581,029;12,69345
 233,30; 1578,697;  195,753;10813,411;13,02494
 233,90; 1636,600;  167,984;10937,933;13,63624
 234,50; 1667,251;  169,984;11059,818;13,74921
 235,10; 1706,361;  171,292;10974,158;14,20983
 235,70; 1783,329;  182,907;11013,347;14,77708
 236,29; 1788,802;  178,907;10902,340;15,01287
 236,89; 1803,243;  160,907;10792,462;15,44775
 237,49; 1846,247;  183,907;10632,310;15,90999
 238,09; 1826,866;  172,753;10341,707;16,26631
 238,69; 1866,797;  207,676;10098,604;16,77417
 239,29; 1854,975;  164,138; 9734,699;17,66707
 239,89; 1823,724;  172,907; 9401,017;17,88901
 240,48; 1783,154;  167,215; 8971,537;18,35393
 241,08; 1751,913;  164,522; 8611,278;18,79290
 241,68; 1741,418;  188,215; 8278,664;19,19798
 242,28; 1679,895;  156,215; 7940,130;19,57473
 242,88; 1690,762;  197,061; 7665,624;19,99984
 243,48; 1647,361;  202,138; 7348,585;20,22296
 244,07; 1602,282;  196,215; 7158,640;20,19508
 244,67; 1630,798;  189,599; 6950,593;21,31636
 245,27; 1574,781;  189,214; 6813,419;20,91672
 245,87; 1582,332;  193,677; 6751,769;21,17468
 246,47; 1549,570;  180,522; 6743,128;20,86135
 247,06; 1545,427;  173,599; 6743,421;20,88074
 247,66; 1555,313;  171,676; 6819,743;20,81262
 248,26; 1609,605;  200,830; 7000,936;20,71697
 248,86; 1605,111;  197,445; 7154,654;20,23320
 249,46; 1615,836;  145,599; 7378,217;20,32786
 250,05; 1671,690;  199,830; 7771,472;19,43911
 250,65; 1686,044;  152,599; 8058,257;19,39680
 251,25; 1769,535;  170,984; 8552,490;19,07237
 251,85; 1854,002;  170,830; 9127,877;18,79160
 252,44; 1885,179;  137,061; 9680,974;18,31658
 253,04; 2022,063;  188,215;10445,847;17,87789
 253,64; 2073,835;  136,830;11140,049;17,60398
 254,24; 2230,496;  193,061;12050,132;17,18330
 254,84; 2299,144;  169,830;13024,525;16,56448
 255,43; 2415,269;  179,676;13965,778;16,21628
 256,03; 2549,262;  176,907;14933,069;16,07705
 256,63; 2615,992;  184,599;15959,061;15,41348
 257,23; 2692,236;  171,753;16835,711;15,12536
 257,82; 2798,117;  182,599;17818,426;14,83071
 258,42; 2841,148;  143,753;18720,590;14,52021
 259,02; 2956,167;  189,522;19585,306;14,26416
 259,62; 2966,003;  171,445;20283,193;13,89515
 260,21; 3004,189;  174,291;20811,251;13,71276
 260,81; 3015,254;  185,907;21379,753;13,34985
 261,41; 2967,322;  151,137;21814,664;12,99966
 262,01; 3016,595;  198,214;22356,130;12,71952
 262,60; 2947,851;  159,060;22637,173;12,40669
 263,20; 2984,193;  176,445;23055,648;12,27205
 263,80; 2961,622;  194,906;23123,820;12,06649
 264,40; 2922,948;  149,752;23365,215;11,94547
 264,99; 2896,426;  181,983;23636,262;11,57334
 265,59; 2840,514;  166,214;23828,529;11,30194
 266,19; 2824,970;  157,752;24024,776;11,17532
 266,78; 2866,434;  197,445;24085,499;11,17291
 267,38; 2803,813;  186,368;24190,233;10,90427
 267,98; 2789,591;  170,906;24143,256;10,92377
 268,58; 2766,947;  186,137;24183,756;10,75444
 269,17; 2742,882;  173,752;24133,851;10,72254
 269,77; 2709,346;  192,522;23966,940;10,58627
 270,37; 2665,222;  161,368;23855,106;10,56758
 270,96; 2687,645;  214,830;23796,071;10,48637
 271,56; 2630,896;  179,676;23480,276;10,51999
 272,16; 2603,905;  169,060;23368,768;10,49515
 272,75; 2610,764;  169,522;23244,494;10,57961
 273,35; 2594,775;  186,753;23207,061;10,46042
 273,95; 2630,958;  180,291;23273,296;10,61216
 274,54; 2637,486;  158,061;23319,855;10,70481
 275,14; 2703,614;  185,830;23690,387;10,71190
 275,74; 2680,243;  157,830;23677,369;10,72476
 276,33; 2778,547;  197,983;24100,569;10,79617
 276,93; 2825,246;  184,138;24473,251;10,87363
 277,53; 2922,072;  181,984;25015,911;11,03365
 278,12; 2951,328;  152,830;25597,349;10,99843
 278,72; 3193,097;  215,676;26084,768;11,50957
 279,32; 3206,198;  184,830;26655,470;11,41404
 279,91; 3293,361;  151,984;27296,689;11,57271
 280,51; 3421,911;  164,061;27885,853;11,75195
 281,11; 3581,111;  165,368;28515,442;12,04844
 281,70; 3686,028;  153,676;28993,081;12,24835
 282,30; 3838,665;  163,599;29674,353;12,45331
 282,90; 3945,789;  168,753;30003,444;12,65988
 283,49; 4091,045;  190,983;30517,786;12,86012
 284,09; 4270,006;  200,214;30896,231;13,25837
 284,69; 4413,129;  194,907;31311,375;13,55624
 285,28; 4563,966;  181,907;31608,199;13,94393
 285,88; 4752,952;  231,060;31904,705;14,27651
 286,47; 4787,518;  181,137;31901,565;14,52181
 287,07; 4981,312;  202,984;31975,438;15,03922
 287,67; 5153,207;  185,830;32122,739;15,55372
 288,26; 5278,791;  169,599;32037,774;16,03227
 288,86; 5464,036;  168,676;32056,294;16,60632
 289,46; 5713,595;  193,984;32185,292;17,25347
 290,05; 5941,649;  172,368;32376,766;17,91458
 290,65; 6206,359;  173,907;32494,359;18,66451
 291,24; 6490,529;  178,138;32665,551;19,43027
 291,84; 6754,300;  184,830;32740,907;20,17894
 292,44; 7051,136;  179,061;33002,715;20,93635
 293,03; 7380,442;  246,907;32988,735;21,78722
 293,63; 7602,153;  176,599;33084,504;22,56465
 294,22; 7915,044;  190,753;33347,104;23,29656
 294,82; 8081,095;  182,060;33256,310;23,88273
 295,41; 8273,105;  155,291;33060,774;24,67010
 296,01; 8463,793;  208,214;33008,575;25,16917
 296,61; 8590,248;  182,753;32641,087;25,90242
 297,20; 8630,076;  186,522;32323,950;26,27327
 297,80; 8789,630;  194,984;32156,885;26,89029
 298,39; 8787,310;  164,060;31774,877;27,27943
 298,99; 8910,204;  189,214;31656,241;27,71469
 299,58; 8990,681;  192,292;31571,638;28,03879
 300,18; 9021,970;  209,445;31366,877;28,28386
 300,78; 9048,289;  177,599;30948,409;28,82826
 301,37; 9099,582;  193,291;30891,191;29,01270
 301,97; 9192,344;  188,061;30939,660;29,28070
 302,56; 9234,178;  187,137;30906,361;29,45075
 303,16; 9270,408;  173,753;30840,917;29,66252
 303,75; 9364,498;  174,368;30857,002;29,95222
 304,35; 9487,998;  166,830;31103,257;30,13007
 304,94; 9564,875;  179,138;31040,448;30,41264
 305,54; 9613,814;  201,215;31020,913;30,54086
 306,13; 9598,011;  164,984;31012,753;30,57928
 306,73; 9559,106;  168,138;30770,960;30,68661
 307,33; 9603,185;  192,369;30714,351;30,83291
 307,92; 9704,846;  185,061;30785,136;31,11033
 308,52; 9823,242;  165,830;31199,806;31,11883
 309,11;10027,808;  172,137;31705,231;31,25501
 309,71;10120,144;  168,599;31935,792;31,32648
 310,30;10208,680;  160,061;32195,179;31,36751
 310,90;10445,603;  198,061;32541,025;31,68399
 311,49;10425,493;  179,214;32617,051;31,58743
 312,09;10484,374;  152,599;32789,355;31,65687
 312,68;10717,931;  218,291;33185,330;31,84890
 313,28;10687,615;  159,907;33317,674;31,75035
 313,87;10715,754;  153,830;33457,421;31,71407
 314,47;10847,009;  169,214;33719,073;31,82665
 315,06;10873,973;  155,291;33846,369;31,81460
 315,66;10896,220;  156,061;33991,278;31,74255
 316,25;10775,748;  145,291;34000,199;31,40005
 316,85;10826,424;  140,215;34012,972;31,54809
 317,44;10876,676;  163,445;34187,697;31,48704
 318,04;10845,655;  154,368;34156,383;31,44310
 318,63;10855,885;  146,292;34237,622;31,41442
 319,22;10849,386;  171,445;34452,357;31,14836
 319,82;10798,445;  162,137;34418,304;31,04932
 320,41;10801,476;  181,214;34371,699;31,06204
 321,01;10754,533;  184,907;34386,656;30,90376
 321,60;10731,976;  176,214;34477,630;30,77354
 322,20;10643,147;  164,599;34382,000;30,62345
 322,79;10707,367;  198,368;34501,800;30,63542
 323,39;10593,839;  170,907;34565,974;30,30357
 323,98;10512,353;  149,522;34508,529;30,16045
 324,58;10491,405;  154,368;34408,391;30,17759
 325,17;10382,982;  176,599;34190,879;30,00617
 325,76;10272,617;  187,830;34036,681;29,79359
 326,36;10104,041;  143,368;33626,517;29,74832
 326,95;10008,912;  193,753;33357,126;29,59638
 327,55; 9809,923;  148,676;32972,948;29,43324
 328,14; 9681,683;  161,292;32580,644;29,36638
 328,74; 9582,830;  189,830;32167,636;29,37350
 329,33; 9366,443;  178,907;31731,391;29,11827
 329,92; 9214,416;  156,214;31253,788;29,12832
 330,52; 8926,475;  173,753;30573,956;28,79165
 331,11; 8733,678;  171,445;30177,215;28,53529
 331,71; 8558,746;  165,522;29557,766;28,55591
 332,30; 8372,029;  177,445;29149,371;28,28457
 332,89; 8267,949;  213,984;28628,725;28,34432
 333,49; 7986,845;  187,907;28086,942;27,95415
 334,08; 7811,990;  175,368;27697,286;27,74742
 334,68; 7663,482;  180,907;27293,964;27,59768
 335,27; 7493,252;  186,215;26952,612;27,29929
 335,86; 7432,217;  224,753;26641,446;27,28375
 336,46; 7258,398;  181,061;26461,399;26,93016
 337,05; 7203,504;  171,599;26265,353;26,94862
 337,65; 7059,492;  153,291;26054,626;26,66349
 338,24; 7058,092;  213,907;26069,851;26,47045
 338,83; 6967,613;  192,984;25957,438;26,29448
 339,43; 6884,818;  167,984;25897,909;26,10514
 340,02; 6838,582;  162,291;25866,857;25,97317
 340,61; 6813,424;  170,138;25836,938;25,88280
 341,21; 6774,677;  208,137;25858,636;25,60005
 341,80; 6730,740;  175,368;25826,808;25,55557
 342,40; 6639,380;  170,292;25890,158;25,15211
 342,99; 6654,180;  165,445;25947,187;25,16795
 343,58; 6646,828;  177,368;26189,622;24,87081
 344,18; 6650,573;  195,522;26373,073;24,65872
 344,77; 6656,706;  164,599;26529,948;24,62363
 345,36; 6670,527;  148,676;26879,818;24,39795
 345,96; 6700,540;  201,984;27219,638;24,05300
 346,55; 6723,909;  151,369;27427,300;24,09648
 347,14; 6761,487;  152,907;27772,144;23,92745
 347,74; 6818,038;  143,292;28192,844;23,79627
 348,33; 6900,060;  164,677;28854,944;23,47620
 348,92; 6981,052;  178,061;29402,688;23,27828
 349,52; 7050,327;  140,215;29849,887;23,25879
 350,11; 7069,884;  175,907;30115,958;23,02594
 350,70; 7015,933;  167,061;30103,798;22,87782
 351,29; 6913,953;  160,291;29828,098;22,76428
 351,89; 6869,105;  176,983;29840,031;22,56047
 352,48; 6879,980;  155,215;29908,351;22,60187
 353,07; 6810,158;  174,599;29796,583;22,40079
 353,67; 6733,422;  189,215;29796,109;22,10366
 354,26; 6655,959;  164,676;29465,729;22,15375
 354,85; 6538,608;  173,907;29381,496;21,79126
 355,45; 6443,283;  158,830;29187,341;21,64924
 356,04; 6423,133;  168,753;29179,958;21,55850
 356,63; 6374,443;  200,676;28979,836;21,45221
 357,22; 6281,808;  176,675;28835,197;21,30303
 357,82; 6171,419;  173,829;28527,954;21,15244
 358,41; 6144,230;  190,291;28522,847;21,01448
 359,00; 6066,443;  155,907;28267,802;21,02504
 359,60; 6014,159;  174,676;28241,266;20,80582
 360,19; 5942,302;  174,292;28045,826;20,69499
 360,78; 5878,241;  177,984;27864,379;20,58866
 361,37; 5816,973;  169,061;27730,181;20,49232
 361,97; 5776,726;  169,676;27624,442;20,42287
 362,56; 5687,527;  167,753;27299,264;20,34451
 363,15; 5650,228;  202,830;27001,114;20,32742
 363,74; 5513,290;  174,291;26660,845;20,15739
 364,34; 5455,163;  194,291;26339,415;20,12181
 364,93; 5322,993;  163,291;25935,873;20,02012
 365,52; 5184,986;  141,445;25588,830;19,81948
 366,11; 5126,915;  173,599;25238,079;19,76229
 366,71; 5044,463;  160,907;24896,203;19,74327
 367,30; 4966,199;  173,522;24575,417;19,64059
 367,89; 4942,481;  207,215;24348,725;19,61462
 368,48; 4842,600;  182,291;24090,525;19,49249
 369,07; 4763,395;  178,138;23657,413;19,52895
 369,67; 4711,548;  203,291;23383,363;19,44885
 370,26; 4621,705;  163,445;23103,863;19,43408
 370,85; 4558,899;  177,137;22920,245;19,26633
 371,44; 4487,128;  163,214;22611,778;19,26143
 372,03; 4418,634;  151,907;22418,770;19,16178
 372,63; 4390,192;  141,984;22051,743;19,38957
 373,22; 4319,901;  162,368;21824,363;19,19275
 373,81; 4271,812;  140,907;21614,122;19,23748
 374,40; 4231,308;  153,522;21310,691;19,27378
 374,99; 4173,025;  157,753;21122,573;19,15243
 375,59; 4113,333;  163,061;20765,855;19,17348
 376,18; 4135,961;  191,522;20688,377;19,24412
 376,77; 4076,709;  184,368;20538,952;19,12267
 377,36; 4086,177;  194,599;20427,029;19,23436
 377,95; 3994,389;  181,291;20167,268;19,07887
 378,55; 3970,456;  164,907;19976,041;19,20914
 379,14; 3981,782;  177,522;19901,675;19,28732
 379,73; 3945,622;  165,676;19853,332;19,19958
 380,32; 4002,197;  183,984;19873,181;19,39243
 380,91; 3963,633;  159,676;19667,575;19,49957
 381,50; 4025,874;  181,137;19730,834;19,66648
 382,10; 3953,121;  165,599;19588,104;19,50069
 382,69; 3975,829;  153,061;19536,843;19,72148
 383,28; 3977,515;  185,214;19485,519;19,64892
 383,87; 3960,726;  170,599;19354,118;19,75720
 384,46; 3969,740;  156,599;19303,219;19,91548
 385,05; 3997,095;  194,368;19336,249;19,86600
 385,64; 4001,222;  173,984;19253,926;20,05896
 386,24; 3978,276;  151,214;19260,693;20,02703
 386,83; 4088,010;  185,676;19307,347;20,40791
 387,42; 4093,687;  185,907;19437,221;20,29877
 388,01; 4122,721;  175,906;19692,501;20,22287
 388,60; 4204,083;  180,060;19935,642;20,36904
 389,19; 4289,142;  162,521;20071,470;20,72747
 389,78; 4368,500;  163,137;20300,531;20,88336
 390,37; 4513,572;  226,829;20795,837;20,84078
 390,96; 4547,898;  171,983;20851,213;21,16092
 391,56; 4593,865;  182,136;20980,634;21,21177
 392,15; 4677,164;  156,367;21348,835;21,33209
 392,74; 4713,394;  147,059;21537,383;21,34766
 393,33; 4807,810;  167,290;21800,272;21,45113
 393,92; 4961,138;  173,905;22148,280;21,78553
 394,51; 5001,664;  169,367;22328,946;21,80681
 395,10; 5119,491;  191,212;22592,145;22,00033
 395,69; 5162,410;  172,828;22659,440;22,18912
 396,28; 5241,992;  187,828;22780,161;22,37115
 396,87; 5280,449;  175,366;22794,544;22,56971
 397,46; 5332,668;  191,750;22963,056;22,57630
 398,06; 5425,891;  198,596;23203,119;22,72290
 398,65; 5414,466;  184,672;23227,508;22,69597
 399,24; 5524,558;  204,056;23470,283;22,86792
 399,83; 5571,774;  175,516;23419,733;23,21549
 400,42; 5684,251;  203,053;23563,588;23,46349
 401,01; 5705,720;  185,975;23697,214;23,47705
 401,60; 5762,517;  194,281;23692,232;23,69669
 402,19; 5822,312;  220,049;23599,757;23,96208
 402,78; 5819,016;  222,354;23670,337;23,86842
 403,37; 5809,637;  208,967;23485,360;24,06159
 403,96; 5867,032;  200,734;23392,403;24,43248
 404,55; 5892,379;  220,577;23298,760;24,57647
 405,14; 5902,451;  199,113;23194,704;24,80188
 405,73; 5895,542;  215,417;23072,266;24,85086
 406,32; 5936,440;  222,569;22959,260;25,13062
 406,91; 5925,970;  202,028;22680,458;25,46415
 407,50; 5938,119;  215,873;22530,604;25,64336
 408,09; 5898,077;  186,103;22248,987;25,88952
 408,68; 5932,554;  196,641;22130,582;26,15086
 409,27; 5927,102;  186,488;21935,551;26,39476
 409,86; 5945,046;  200,644;21860,399;26,52109
 410,45; 6003,416;  232,645;21774,441;26,78872
 411,04; 6004,158;  236,801;21640,738;26,94531
 411,63; 5984,148;  213,187;21399,610;27,23896
 412,22; 5925,167;  217,574;21270,990;27,11006
 412,81; 5920,266;  222,959;20933,498;27,50921
 413,40; 5900,258;  249,652;20594,959;27,77351
 413,99; 5883,361;  267,960;20389,882;27,90688
 414,58; 5736,346;  208,498;19983,338;27,95394
 415,17; 5753,613;  208,267;19843,761;28,24144
 415,76; 5703,307;  205,343;19646,204;28,28046
 416,35; 5714,149;  194,882;19356,030;28,80447
 416,94; 5755,166;  229,805;19554,581;28,59211
 417,53; 5827,557;  215,190;19687,836;28,82180
 418,12; 5917,542;  206,036;19787,445;29,16800
 418,71; 6067,397;  232,114;20191,765;29,23540
 419,30; 6097,392;  216,652;20276,876;29,31542
 419,89; 6192,103;  203,267;20467,311;29,55400
 420,48; 6346,755;  235,114;20775,844;29,75377
 421,07; 6362,821;  229,729;20800,062;29,81523
 421,66; 6398,946;  200,037;20766,724;30,14053
 422,25; 6467,118;  203,115;20757,681;30,47499
 422,84; 6487,629;  231,500;20748,871;30,49186
 423,43; 6415,153;  220,500;20404,088;30,69153
 424,02; 6409,988;  234,961;20179,384;30,96117
 424,60; 6319,989;  206,578;19787,501;31,22126
 425,19; 6228,870;  222,654;19548,224;31,07912
 425,78; 6302,457;  240,654;19501,989;31,47135
 426,37; 6252,010;  236,039;19304,849;31,54875
 426,96; 6260,203;  219,193;19247,266;31,74788
 427,55; 6246,724;  211,116;19035,553;32,06262
 428,14; 6207,623;  206,501;18860,636;32,17046
 428,73; 6217,898;  228,501;18686,169;32,44937
 429,32; 6225,721;  231,962;18637,883;32,56430
 429,91; 6293,806;  247,116;18703,205;32,76257
 430,50; 6238,770;  239,732;18496,159;32,85987
 431,08; 6213,791;  252,117;18415,557;32,82238
 431,67; 6226,646;  296,502;18284,691;32,96688
 432,26; 6235,411;  305,502;18077,559;33,36647
 432,85; 6171,839;  340,656;17763,604;33,46841
 433,44; 6062,896;  336,118;17385,023;33,59030
 434,03; 5970,265;  348,349;17082,008;33,59645
 434,62; 5831,737;  307,425;16701,952;33,69608
 435,21; 5800,693;  328,040;16469,644;33,90402
 435,79; 5774,654;  331,041;16336,814;34,01031
 436,38; 5729,415;  313,734;16279,858;33,91982
 436,97; 5732,476;  312,041;16185,273;34,14827
 437,56; 5665,934;  311,273;15964,310;34,20845
 438,15; 5659,227;  279,273;15853,253;34,54451
 438,74; 5706,164;  296,965;15926,346;34,60917
 439,33; 5731,406;  265,965;15886,494;34,98883
 439,91; 5757,474;  228,581;15945,350;35,17831
 440,50; 5797,961;  284,196;16038,265;34,99899
 441,09; 5872,862;  278,197;16137,216;35,27750
 441,68; 5875,546;  268,735;16097,048;35,42266
 442,27; 5871,657;  249,658;16117,378;35,43041
 442,86; 5838,650;  232,505;16092,763;35,34712
 443,44; 5956,731;  240,351;16162,261;35,90260
 444,03; 6022,826;  298,198;16223,997;35,94563
 444,62; 5921,970;  244,351;16069,566;35,87704
 445,21; 5919,219;  251,659;15914,696;36,18430
 445,80; 5856,608;  284,890;15782,390;35,95236
 446,39; 5830,525;  290,429;15504,817;36,41353
 446,97; 5718,339;  245,814;15352,756;36,22523
 447,56; 5654,223;  247,583;15120,833;36,35143
 448,15; 5645,827;  243,660;14991,139;36,63113
 448,74; 5595,501;  266,429;14672,104;36,99286
 449,33; 5516,959;  235,276;14587,031;36,80165
 449,91; 5461,461;  246,815;14400,616;36,84273
 450,50; 5395,924;  242,430;14179,487;36,97692
 451,09; 5367,012;  255,276;14091,361;36,94496
 451,68; 5366,096;  268,969;13991,513;37,14419
 452,26; 5368,414;  267,507;13882,268;37,46601
 452,85; 5294,169;  251,199;13837,578;37,11784
 453,44; 5328,846;  267,277;13788,136;37,43526
 454,03; 5315,709;  239,354;13776,037;37,50073
 454,61; 5324,248;  236,662;13755,146;37,63430
 455,20; 5413,740;  273,816;13940,687;37,60864
 455,79; 5388,246;  268,662;13927,663;37,48140
 456,38; 5469,276;  268,739;14007,442;37,85319
 456,97; 5466,919;  252,124;14070,310;37,73864
 457,55; 5447,807;  250,047;14089,802;37,55673
 458,14; 5473,529;  276,585;14042,968;37,75097
 458,73; 5469,594;  255,355;14008,120;37,91411
 459,31; 5490,204;  288,278;14014,715;37,89714
 459,90; 5538,877;  290,509;14131,760;37,91831
 460,49; 5597,902;  334,432;14244,717;37,83870
 461,08; 5573,885;  264,971;14325,004;37,75890
 461,66; 5587,336;  267,586;14367,019;37,73024
 462,25; 5654,773;  270,971;14422,905;38,04287
 462,84; 5675,518;  297,202;14494,938;37,88151
 463,43; 5663,151;  226,971;14407,032;38,33678
 464,01; 5641,263;  261,125;14470,259;37,86394
 464,60; 5689,104;  299,894;14402,292;38,21485
 465,19; 5563,428;  242,972;14172,423;38,19573
 465,77; 5546,592;  269,972;14117,024;38,10645
 466,36; 5576,468;  281,433;13996,694;38,60689
 466,95; 5422,516;  256,356;13737,152;38,32237
 467,53; 5331,829;  275,203;13416,862;38,47783
 468,12; 5209,618;  284,434;13175,399;38,20649
 468,71; 5134,927;  266,895;12915,296;38,48734
 469,29; 5014,071;  249,511;12695,642;38,28146
 469,88; 4907,564;  266,357;12500,496;37,93653
 470,47; 5017,237;  329,280;12548,915;38,36413
 471,06; 4970,346;  272,819;12534,273;38,31134
 471,64; 5020,000;  281,280;12691,803;38,18308
 472,23; 5004,605;  242,896;12681,781;38,28084
 472,81; 5030,715;  253,050;12749,243;38,23296
 473,40; 5092,070;  261,127;13004,846;37,90842
 473,99; 5244,089;  346,281;13160,323;38,22220
 474,57; 5195,806;  259,742;13250,487;37,99677
 475,16; 5267,825;  274,742;13372,506;38,12164
 475,75; 5347,463;  290,281;13477,287;38,34973
 476,33; 5355,439;  292,666;13553,813;38,17749
 476,92; 5399,966;  300,973;13603,829;38,33006
 477,51; 5437,646;  285,666;13671,153;38,48930
 478,09; 5448,070;  272,974;13702,109;38,53634
 478,68; 5408,697;  289,666;13595,350;38,47251
 479,27; 5426,254;  311,435;13701,522;38,19855
 479,85; 5427,982;  287,281;13703,038;38,31838
 480,44; 5465,143;  276,974;13868,131;38,17312
 481,02; 5913,901;  281,051;15608,402;36,75031
 481,61; 6671,524;  310,897;17388,639;37,24513
 482,20; 7138,412;  305,436;18436,789;37,68597
 482,78; 7487,614;  331,512;19187,657;37,95103
 483,37; 7717,301;  327,205;19643,013;38,25931
 483,95; 7797,795;  357,975;20013,353;37,85132
 484,54; 7903,276;  370,974;20144,321;38,09321
 485,13; 7842,008;  337,667;20034,163;38,09988
 485,71; 7729,612;  317,975;19790,230;38,06255
 486,30; 7668,652;  351,898;19542,570;38,12662
 486,88; 7535,119;  393,436;19107,604;38,16191
 487,47; 7271,895;  376,898;18360,869;38,33968
 488,05; 6929,989;  358,129;17495,548;38,34801
 488,64; 6447,524;  349,283;16059,475;38,81710
 489,23; 5767,955;  355,591;14183,165;39,14182
 489,81; 4956,442;  354,283;12316,831;38,47140
 490,40; 4651,242;  320,822;11823,952;37,64558
 490,98; 4518,862;  299,745;11561,827;37,46303
 491,57; 4512,712;  322,129;11500,035;37,48988
 492,15; 4468,756;  309,822;11427,977;37,40669
 492,74; 4461,753;  312,667;11319,477;37,69563
 493,32; 4397,184;  325,514;11206,867;37,41878
 493,91; 4376,023;  296,591;11161,517;37,54680
 494,50; 4365,177;  317,207;11123,602;37,45902
 495,08; 4310,268;  292,822;11050,719;37,34416
 495,67; 4333,005;  317,283;11013,507;37,54336
 496,25; 4239,627;  255,130;10847,096;37,61811
 496,84; 4250,645;  280,283;10870,055;37,49242
 497,42; 4195,579;  264,899;10808,134;37,28153
 498,01; 4216,706;  278,206;10786,547;37,47974
 498,59; 4161,982;  246,668;10711,606;37,41363
 499,18; 4120,510;  249,899;10642,047;37,24554
 499,76; 4154,831;  282,437;10534,406;37,77219
 500,35; 4072,903;  272,361;10382,539;37,59125
 500,93; 4034,393;  245,361;10380,776;37,38408
 501,52; 3997,701;  261,284;10274,065;37,31648
 502,10; 4006,365;  270,438;10250,171;37,43514
 502,69; 3930,052;  255,900;10120,749;37,24489
 503,27; 3843,363;  234,207; 9897,576;37,34884
 503,86; 3835,624;  250,669; 9860,824;37,30383
 504,44; 3746,041;  227,438; 9778,525;36,83982
 505,03; 3670,051;  219,361; 9540,802;37,01885
 505,61; 3630,720;  238,515; 9417,662;36,95556
 506,19; 3585,039;  256,054; 9241,075;37,05038
 506,78; 3488,476;  230,362; 9085,577;36,79316
 507,36; 3446,430;  229,361; 8926,057;36,99185
 507,95; 3374,872;  234,900; 8738,415;36,92558
 508,53; 3335,185;  237,516; 8704,375;36,58582
 509,12; 3283,929;  247,054; 8504,879;36,77572
 509,70; 3247,195;  262,439; 8391,822;36,71566
 510,29; 3210,384;  257,670; 8187,741;37,23440
 510,87; 3117,473;  233,131; 8085,205;36,73350
 511,46; 3058,844;  226,131; 7883,685;36,99240
 512,04; 2965,410;  242,285; 7748,083;36,28028
 512,62; 2947,884;  245,054; 7648,102;36,50969
 513,21; 2853,340;  224,208; 7429,407;36,48937
 513,79; 2814,804;  227,824; 7325,385;36,44886
 514,38; 2753,459;  210,747; 7153,170;36,62571
 514,96; 2729,722;  253,824; 7072,624;36,30987
 515,54; 2668,659;  221,670; 6956,391;36,33393
 516,13; 2647,042;  246,824; 6858,308;36,30376
 516,71; 2569,154;  240,901; 6759,824;35,71530
 517,30; 2529,867;  215,132; 6655,856;35,93904
 517,88; 2516,469;  245,978; 6549,899;36,01713
 518,46; 2451,297;  216,825; 6445,769;35,87241
 519,05; 2435,079;  222,517; 6391,915;35,86349
 519,63; 2403,129;  237,056; 6323,787;35,58681
 520,22; 2406,812;  249,979; 6288,022;35,72073
 520,80; 2379,539;  242,287; 6198,368;35,88354
 521,38; 2381,258;  262,748; 6200,291;35,67990
 521,97; 2331,936;  221,595; 6142,052;35,64491
 522,55; 2335,983;  241,133; 6160,067;35,39236
 523,13; 2314,796;  231,441; 6158,127;35,15211
 523,72; 2313,823;  233,517; 6114,658;35,37249
 524,30; 2367,047;  254,210; 6244,255;35,27247
 524,89; 2345,125;  228,672; 6275,014;35,00387
 525,47; 2398,993;  241,826; 6379,471;35,14650
 526,05; 2395,770;  217,210; 6445,512;34,97840
 526,64; 2467,578;  246,672; 6579,212;35,07133
 527,22; 2504,636;  241,133; 6699,623;35,04693
 527,80; 2556,382;  272,749; 6847,730;34,73216
 528,39; 2532,523;  234,364; 6929,961;34,32343
 528,97; 2579,730;  245,057; 7088,668;34,11464
 529,55; 2666,355;  251,749; 7287,682;34,31821
 530,14; 2741,973;  262,288; 7408,121;34,70114
 530,72; 2749,308;  245,518; 7543,700;34,30704
 531,30; 2770,931;  228,134; 7703,083;34,01759
 531,89; 2830,065;  237,903; 7794,836;34,30178
 532,47; 2869,794;  267,442; 7893,471;34,12460
 533,05; 2852,958;  268,595; 7934,621;33,71189
 533,63; 2896,139;  278,595; 7979,036;33,99213
 534,22; 2889,785;  250,365; 7972,022;34,18204
 534,80; 2940,639;  262,442; 8099,771;34,17232
 535,38; 2982,227;  341,672; 8203,953;33,58510
 535,97; 2892,007;  266,903; 8173,981;33,19942
 536,55; 2979,146;  305,211; 8254,394;33,63786
 537,13; 2909,043;  323,441; 8215,447;32,76229
 537,71; 2949,008;  373,903; 8254,101;32,67817
 538,30; 2969,138;  386,826; 8350,242;32,42719
 538,88; 2994,893;  432,134; 8478,329;31,85056
 539,46; 3079,532;  498,826; 8667,939;31,59102
 540,05; 3126,800;  527,519; 8820,864;31,34177
 540,63; 3217,023;  572,519; 8990,574;31,41467
 541,21; 3257,110;  614,673; 9193,347;30,80239
 541,79; 3296,321;  671,058; 9311,562;30,38322
 542,38; 3367,918;  689,519; 9445,133;30,59065
 542,96; 3403,926;  693,058; 9619,609;30,36860
 543,54; 3470,469;  719,596; 9836,509;30,17329
 544,12; 3484,195;  681,058; 9928,388;30,31293
 544,70; 3509,354;  661,365;10039,321;30,36897
 545,29; 3575,891;  673,673;10246,750;30,31646
 545,87; 3581,705;  633,596;10184,716;30,86663
 546,45; 3540,137;  591,365;10217,022;30,63450
 547,03; 3506,171;  572,981;10300,497;30,15353
 547,62; 3542,634;  518,211;10439,230;30,48500
 548,20; 3621,132;  521,442;10550,924;30,90578
 548,78; 3597,352;  485,058;10661,424;30,58355
 549,36; 3630,612;  440,827;10878,890;30,55917
 549,94; 3656,319;  396,904;10967,230;30,83553
 550,53; 3741,837;  394,597;11243,548;30,85312
 551,11; 3751,746;  366,597;11426,754;30,60670
 551,69; 3837,456;  372,443;11750,056;30,45466
 552,27; 3882,825;  335,750;11965,538;30,49991
 552,85; 3965,398;  339,828;12399,722;30,06304
 553,44; 4070,098;  327,827;12632,746;30,41280
 554,02; 4177,412;  348,520;12991,011;30,28590
 554,60; 4205,463;  283,751;13303,900;30,12034
 555,18; 4344,054;  337,674;13660,566;30,07140
 555,76; 4451,422;  296,751;14025,058;30,26354
 556,34; 4558,528;  319,982;14440,574;30,01677
 556,93; 4611,769;  292,827;14817,570;29,73506
 557,51; 4684,972;  272,828;15124,930;29,70721
 558,09; 4814,508;  311,674;15550,738;29,54797
 558,67; 4927,079;  301,982;15980,181;29,50018
 559,25; 4976,792;  313,905;16151,376;29,44212
 559,83; 5036,016;  293,366;16481,564;29,29696
 560,41; 5123,247;  286,058;16862,821;29,18054
 561,00; 5187,868;  297,982;17133,505;29,04505
 561,58; 5287,609;  280,597;17395,894;29,25460
 562,16; 5341,776;  271,904;17779,125;28,95874
 562,74; 5418,750;  263,827;18061,689;28,96372
 563,32; 5560,899;  258,366;18555,839;28,97959
 563,90; 5599,935;  285,982;18895,612;28,55485
 564,48; 5695,273;  285,751;19333,837;28,39930
 565,06; 5859,986;  280,289;19947,851;28,37005
 565,65; 6021,667;  292,059;20622,618;28,18224
 566,23; 6260,051;  322,520;21339,029;28,25175
 566,81; 6397,137;  278,059;22097,728;28,04386
 567,39; 6616,344;  294,136;22907,408;27,95796
 567,97; 6778,078;  308,982;23588,507;27,78878
 568,55; 7001,127;  321,982;24428,159;27,70719
 569,13; 7101,727;  289,366;25136,232;27,41738
 569,71; 7350,428;  276,135;26086,631;27,40859
 570,29; 7617,334;  326,443;27122,260;27,20907
 570,87; 7853,775;  312,058;27695,989;27,54066
 571,45; 7968,538;  314,443;28347,347;27,30396
 572,03; 7993,181;  282,828;28732,112;27,10210
 572,61; 8156,924;  274,520;29528,849;26,94440
 573,20; 8326,129;  299,828;30153,456;26,88551
 573,78; 8463,294;  293,828;30820,809;26,76146
 574,36; 8528,233;  312,213;31253,624;26,55348
 574,94; 8694,941;  364,213;31533,971;26,72696
 575,52; 8631,204;  308,213;31827,474;26,40605
 576,10; 8833,564;  363,367;32450,122;26,39780
 576,68; 8925,382;  358,290;33028,049;26,22331
 577,26; 9102,114;  367,521;33736,551;26,17575
 577,84; 9174,901;  385,059;34142,922;26,03791
 578,42; 9256,967;  422,905;34469,867;25,94670
 579,00; 9189,227;  361,905;34548,932;25,82068
 579,58; 9210,529;  415,982;34727,896;25,63118
 580,16; 9167,236;  384,905;34758,278;25,54981
 580,74; 9213,298;  384,213;34964,545;25,53210
 581,32; 9213,748;  389,059;35108,920;25,41683
 581,90; 9169,032;  427,444;35079,815;25,22652
 582,48; 9122,861;  405,982;35241,094;25,02326
 583,06; 9136,061;  412,982;35258,837;25,03333
 583,64; 9135,537;  409,520;35402,877;24,93621
 584,22; 9044,475;  424,675;35244,258;24,75561
 584,80; 8984,412;  423,982;34992,377;24,76375
 585,38; 8861,823;  435,443;34555,309;24,69640
 585,96; 8783,803;  392,059;34740,574;24,43117
 586,54; 8784,926;  421,829;34710,153;24,39051
 587,12; 8771,818;  387,290;34850,896;24,32864
 587,70; 8804,481;  416,751;35114,610;24,17362
 588,28; 8769,547;  390,290;35095,402;24,14416
 588,86; 8796,761;  391,059;35225,047;24,13075
 589,44; 8766,950;  386,290;35307,462;23,99879
 590,02; 8739,539;  375,059;35498,642;23,81443
 590,59; 8724,184;  368,367;35700,997;23,64901
 591,17; 8757,753;  359,291;35892,185;23,63574
 591,75; 8744,445;  353,983;35999,092;23,53889
 592,33; 8816,918;  364,675;36339,778;23,49470
 592,91; 8775,747;  315,906;36533,304;23,35850
 593,49; 8827,181;  327,598;36828,725;23,28581
 594,07; 8871,747;  342,521;37042,569;23,24037
 594,65; 8878,634;  354,598;37044,483;23,23266
 595,23; 8914,239;  339,367;37404,855;23,13438
 595,81; 8871,465;  345,060;37547,997;22,91864
 596,39; 8880,354;  324,598;37683,478;22,90153
 596,97; 8893,958;  328,598;37855,211;22,82476
 597,55; 8857,014;  325,213;37711,778;22,82050
 598,12; 8811,562;  314,291;37800,790;22,66755
 598,70; 8799,460;  310,214;38006,764;22,51996
 599,28; 8786,567;  331,137;38069,134;22,40561
 599,86; 8729,976;  315,598;38174,991;22,22534
 600,44; 8718,858;  282,906;38262,318;22,21191
 601,02; 8774,442;  340,368;38274,454;22,23350
 601,60; 8694,341;  310,598;38211,478;22,12018
 602,18; 8609,058;  296,983;38197,924;21,93105
 602,75; 8551,557;  294,983;38376,806;21,68114
 603,33; 8576,971;  306,598;38291,535;21,77277
 603,91; 8506,164;  300,445;38330,559;21,57690
 604,49; 8538,215;  326,521;38431,723;21,55006
 605,07; 8497,175;  334,060;38389,059;21,45083
 605,65; 8423,298;  364,983;38516,296;21,12199
 606,23; 8461,350;  413,675;38688,742;21,02589
 606,80; 8458,076;  480,983;38775,483;20,83091
 607,38; 8443,876;  527,522;38761,132;20,70522
 607,96; 8433,333;  578,444;38960,250;20,46514
 608,54; 8431,201;  643,829;38955,049;20,32661
 609,12; 8425,952;  664,521;39056,084;20,21650
 609,70; 8368,896;  711,598;39105,464;19,94407
 610,27; 8364,693;  707,752;39194,796;19,89485
 610,85; 8288,258;  728,060;39233,460;19,63413
 611,43; 8286,296;  725,060;39176,948;19,66415
 612,01; 8130,899;  691,367;38928,974;19,45606
 612,59; 8155,271;  683,675;38959,187;19,52056
 613,16; 8101,495;  643,213;38847,966;19,52187
 613,74; 7989,924;  613,137;38764,905;19,33537
 614,32; 7921,819;  549,214;38724,268;19,31263
 614,90; 7902,118;  499,829;38549,519;19,45427
 615,48; 7734,332;  453,290;38134,209;19,32289
 616,05; 7718,199;  407,290;38243,788;19,32237
 616,63; 7647,989;  421,982;37956,906;19,25142
 617,21; 7613,298;  411,290;37898,211;19,21206
 617,79; 7502,163;  385,213;37770,203;19,03692
 618,36; 7530,539;  404,137;37711,889;19,10167
 618,94; 7390,270;  337,213;37384,847;19,03781
 619,52; 7267,506;  370,367;37017,883;18,82021
 620,10; 7271,386;  356,290;37089,547;18,82516
 620,67; 7199,481;  358,982;36973,199;18,68263
 621,25; 7138,870;  374,137;36797,816;18,57235
 621,83; 7079,588;  358,444;36743,509;18,47226
 622,41; 7108,104;  398,136;36802,043;18,43200
 622,98; 6969,709;  365,675;36487,673;18,28258
 623,56; 6931,326;  363,444;36488,987;18,18072
 624,14; 6865,300;  337,675;36356,652;18,12274
 624,72; 6783,087;  335,675;36237,323;17,95854
 625,29; 6785,818;  327,521;36403,126;17,90212
 625,87; 6769,029;  367,752;36321,989;17,80396
 626,45; 6670,412;  319,674;36112,744;17,74293
 627,02; 6627,159;  316,983;36082,363;17,64325
 627,60; 6571,116;  314,829;36020,701;17,52173
 628,18; 6541,875;  303,752;36171,391;17,39206
 628,76; 6520,233;  305,675;36192,786;17,31696
 629,33; 6500,294;  340,059;36113,721;17,22003
 629,91; 6454,232;  325,598;36022,547;17,16851
 630,49; 6480,072;  328,444;36232,402;17,13357
 631,06; 6463,151;  326,675;36390,638;17,01554
 631,64; 6442,859;  319,059;36324,626;17,00793
 632,22; 6319,451;  274,597;36382,197;16,74122
 632,79; 6384,019;  322,059;36485,337;16,76275
 633,37; 6387,420;  297,675;36621,177;16,76530
 633,95; 6383,035;  288,136;36675,495;16,75004
 634,52; 6335,498;  276,675;36730,705;16,62045
 635,10; 6344,745;  289,367;36741,786;16,61173
 635,68; 6311,307;  286,828;36947,244;16,43320
 636,25; 6305,704;  276,905;36915,262;16,45488
 636,83; 6313,233;  262,213;37121,017;16,41676
 637,41; 6308,162;  274,674;37206,001;16,33705
 637,98; 6332,197;  306,444;37369,365;16,25817
 638,56; 6272,422;  293,213;37423,894;16,10315
 639,13; 6294,542;  268,982;37536,408;16,16844
 639,71; 6335,740;  313,367;37616,102;16,14459
 640,29; 6177,670;  249,290;37483,827;15,92172
 640,86; 6206,958;  263,829;37608,175;15,91440
 641,44; 6175,016;  257,059;37643,369;15,82921
 642,02; 6209,459;  290,675;37552,947;15,88412
 642,59; 6124,286;  267,752;37784,833;15,61031
 643,17; 6134,574;  268,213;37738,797;15,65591
 643,74; 6098,555;  268,521;37719,375;15,56716
 644,32; 6048,382;  289,675;37727,185;15,38219
 644,89; 6029,979;  287,444;37749,917;15,32877
 645,47; 6008,960;  293,136;37742,649;15,26274
 646,05; 5997,325;  283,444;37635,997;15,29716
 646,62; 5963,153;  279,444;37705,499;15,18650
 647,20; 5904,903;  280,829;37790,001;14,99386
 647,77; 5863,191;  255,598;37644,271;14,99811
 648,35; 5839,634;  250,906;37527,465;14,99261
 648,92; 5813,692;  279,367;37684,429;14,79566
 649,50; 5763,442;  250,906;37519,623;14,79132
 650,08; 5724,192;  245,444;37436,201;14,73148
 650,65; 5697,712;  250,059;37720,164;14,53866
 651,23; 5763,308;  235,367;38578,204;14,41714
 651,80; 5879,366;  252,213;39453,014;14,35469
 652,38; 5955,270;  268,521;39722,439;14,41365
 652,95; 5940,482;  226,752;40098,709;14,33020
 653,53; 5938,078;  258,290;40364,211;14,16197
 654,10; 5996,597;  281,444;40538,482;14,19666
 654,68; 5894,194;  244,675;40444,676;14,05353
 655,25; 5909,021;  239,213;40461,716;14,09611
 655,83; 5898,540;  228,136;40508,141;14,07747
 656,40; 5891,521;  271,598;40445,104;13,98913
 656,98; 5823,502;  254,136;40318,683;13,90098
 657,55; 5797,022;  246,829;40238,184;13,87848
 658,13; 5695,464;  248,060;39854,147;13,75396
 658,70; 5665,137;  253,521;39571,803;13,76361
 659,28; 5559,888;  246,060;38705,305;13,81678
 659,85; 5432,253;  262,675;37995,652;13,70043
 660,43; 5435,003;  272,213;38124,539;13,63929
 661,00; 5400,600;  257,675;38183,887;13,56034
 661,58; 5410,350;  241,060;38596,927;13,47718
 662,15; 5421,408;  242,598;38731,659;13,45528
 662,73; 5519,158;  301,983;39005,930;13,47970
 663,30; 5458,678;  253,367;39203,816;13,36393
 663,88; 5452,735;  256,060;39421,702;13,26846
 664,45; 5423,639;  244,367;39620,666;13,15327
 665,03; 5453,005;  254,521;39985,937;13,08406
 665,60; 5601,140;  316,214;40520,746;13,14510
 666,17; 5524,582;  254,598;40428,017;13,11809
 666,75; 5561,410;  242,214;40843,288;13,10112
 667,32; 5612,006;  267,829;41217,482;13,05060
 667,90; 5585,448;  245,598;41383,445;12,98038
 668,47; 5638,352;  271,367;41710,177;12,95159
 669,05; 5689,180;  246,675;41959,987;13,04740
 669,62; 5639,776;  232,675;42068,334;12,92462
 670,19; 5629,526;  233,983;42169,990;12,86613
 670,77; 5675,199;  254,214;42304,492;12,89168
 671,34; 5603,873;  242,829;42208,070;12,77496
 671,92; 5645,161;  232,214;42635,572;12,76537
 672,49; 5658,681;  258,368;42667,920;12,73372
 673,06; 5627,354;  202,444;42635,114;12,78475
 673,64; 5625,335;  231,368;42700,461;12,70092
 674,21; 5591,701;  228,137;42609,886;12,65536
 674,79; 5638,989;  249,060;42890,311;12,64018
 675,36; 5672,124;  255,906;42975,966;12,67840
 675,93; 5604,567;  214,368;42917,237;12,62257
 676,51; 5627,624;  257,060;43025,124;12,55742
 677,08; 5614,990;  251,983;43040,702;12,53369
 677,65; 5633,817;  256,752;43272,204;12,50031
 678,23; 5615,029;  252,675;43462,936;12,40991
 678,80; 5590,702;  246,137;43560,438;12,33903
 679,38; 5618,375;  238,214;43675,940;12,38592
 679,95; 5668,741;  255,983;43972,518;12,38149
 680,52; 5682,337;  243,522;44151,789;12,38677
 681,10; 5695,857;  266,445;44679,675;12,22476
 681,67; 5704,761;  258,752;44925,254;12,19260
 682,24; 5701,973;  222,214;44956,371;12,24961
 682,82; 5719,954;  236,829;45528,796;12,10617
 683,39; 5835,011;  280,214;45801,605;12,20261
 683,96; 5805,762;  252,060;46075,414;12,11981
 684,54; 5825,204;  225,060;46441,070;12,11733
 685,11; 5897,877;  270,675;46745,956;12,10795
 685,68; 5911,012;  238,906;47180,458;12,08334
 686,25; 5876,839;  222,445;47207,498;12,03445
 686,83; 5925,282;  225,829;47329,000;12,09993
 687,40; 5934,109;  224,522;47665,886;12,03504
 687,97; 6031,321;  266,599;48162,003;12,03607
 688,55; 5960,686;  221,214;48141,505;11,97712
 689,12; 5972,052;  205,291;48464,929;11,94945
 689,69; 6005,571;  221,676;48479,431;11,98542
 690,26; 5993,706;  241,676;48570,240;11,90193
 690,84; 6005,610;  231,368;48818,896;11,88421
 691,41; 6043,053;  239,599;48830,320;11,94354
 691,98; 6060,111;  240,752;49118,591;11,90592
 692,56; 5997,015;  229,214;49195,785;11,77906
 693,13; 6041,919;  281,137;49234,749;11,76784
 693,70; 6098,746;  247,522;49411,558;11,90143
 694,27; 5996,573;  224,676;49584,367;11,69354
 694,84; 6036,862;  226,599;49660,792;11,75353
 695,42; 6115,381;  276,291;49738,524;11,80515
 695,99; 6048,208;  240,599;50041,565;11,66164
 696,56; 6041,497;  230,983;49822,989;11,71663
 697,13; 6111,324;  251,522;50241,106;11,72205
 697,71; 6069,151;  224,214;50276,993;11,67755
 698,28; 6131,747;  233,368;50717,956;11,68353
 698,85; 6050,498;  210,676;50624,227;11,58383
 699,42; 6124,171;  210,137;50795,728;11,69114
 699,99; 6152,998;  266,753;50976,999;11,60761
 700,57; 6137,210;  247,906;50926,347;11,62092
 701,14; 6166,498;  226,060;51028,464;11,69322
 701,71; 6166,479;  245,445;51214,043;11,61702
 702,28; 6182,537;  243,445;51274,390;11,63822
 702,85; 6203,518;  254,676;51489,815;11,61086
 703,43; 6241,807;  256,291;51675,163;11,64070
 704,00; 6260,403;  276,907;51821,280;11,60844
 704,57; 6254,923;  255,599;51809,012;11,63710
 705,14; 6282,750;  290,830;52136,437;11,55724
 705,71; 6298,885;  281,599;52095,785;11,61320
 706,28; 6242,404;  260,676;52033,056;11,55390
 706,86; 6297,385;  285,368;52219,096;11,57632
 707,43; 6339,135;  317,060;52161,136;11,61574
 708,00; 6303,809;  284,368;52207,869;11,59290
 708,57; 6288,866;  261,984;52063,293;11,63461
 709,14; 6316,694;  291,830;52260,256;11,59332
 709,71; 6308,828;  259,137;52303,527;11,62410
 710,28; 6349,425;  265,676;52506,952;11,64548
 710,86; 6348,021;  276,137;52649,685;11,59342
 711,43; 6379,156;  282,445;52711,955;11,62840
 712,00; 6374,137;  261,984;52665,534;11,66362
 712,57; 6444,733;  282,214;52900,113;11,71183
 713,14; 6390,253;  260,061;52861,153;11,65412
 713,71; 6387,003;  263,522;52892,808;11,63512
 714,28; 6393,907;  250,599;52935,079;11,66056
 714,85; 6387,196;  243,907;52642,965;11,72404
 715,42; 6417,253;  241,753;52961,775;11,71377
 716,00; 6506,388;  301,061;53003,353;11,77430
 716,57; 6446,985;  241,061;53124,316;11,73514
 717,14; 6414,735;  236,368;53061,972;11,69578
 717,71; 6420,639;  220,138;53154,935;11,71347
 718,28; 6449,004;  271,522;53179,821;11,67583
 718,85; 6451,293;  234,830;53209,631;11,73476
 719,42; 6492,813;  237,522;53375,440;11,77180
 719,99; 6447,717;  220,907;53217,326;11,74949
 720,56; 6519,390;  245,753;53485,367;11,78378
 721,13; 6487,525;  226,830;53548,253;11,74142
 721,70; 6507,813;  214,522;53383,601;11,83637
 722,27; 6507,640;  254,984;53449,179;11,75440
 722,84; 6617,391;  290,368;53625,296;11,86281
 723,41; 6543,141;  219,292;53601,952;11,84626
 723,98; 6572,353;  237,984;53809,223;11,82420
 724,55; 6653,718;  271,753;53838,109;11,91413
 725,12; 6541,930;  194,138;53899,611;11,81964
 725,69; 6621,449;  222,599;53996,343;11,89958
 726,27; 6656,507;  238,676;54020,691;11,93304
 726,84; 6714,719;  237,215;54352,962;11,96972
 727,41; 6733,777;  247,599;54325,310;11,99418
 727,98; 6804,681;  253,522;54627,042;12,04844
 728,55; 6830,508;  270,369;54566,774;12,08209
 729,12; 6775,412;  219,830;54591,199;12,05705
 729,69; 6826,547;  273,292;54819,855;12,01406
 730,26; 6873,066;  249,599;54991,972;12,09934
 730,82; 6831,663;  246,676;54801,858;12,07032
 731,39; 6890,874;  243,445;54894,283;12,16345
 731,96; 6943,778;  232,984;55116,169;12,22741
 732,53; 6978,990;  244,215;55468,824;12,19524
 733,10; 7020,279;  258,984;55492,711;12,24124
 733,67; 7008,644;  244,599;55699,751;12,19733
 734,24; 6998,702;  243,676;55432,099;12,23993
 734,81; 7052,606;  270,369;55555,754;12,26769
 735,38; 6986,895;  249,599;55315,256;12,23502
 735,95; 7011,799;  240,676;55056,219;12,35256
 736,52; 7030,626;  263,676;55354,336;12,28330
 737,09; 7018,146;  261,599;54997,838;12,34383
 737,66; 7060,357;  299,369;55233,109;12,30753
 738,23; 7055,031;  250,215;55200,072;12,38368
 738,80; 7205,089;  305,599;55528,573;12,49387
 739,37; 7124,993;  286,523;55690,383;12,34295
 739,94; 7172,435;  251,830;55706,423;12,47977
 740,51; 7318,339;  352,753;55704,078;12,58432
 741,07; 7146,628;  256,292;55709,349;12,42553
 741,64; 7267,609;  285,215;55927,697;12,54867
 742,21; 7238,821;  260,753;55903,353;12,54087
 742,78; 7221,417;  224,523;55704,931;12,61147
 743,35; 7271,936;  256,446;56020,510;12,58067
 743,92; 7360,379;  292,984;56187,781;12,64410
 744,49; 7390,052;  282,984;56069,821;12,73969
 745,06; 7343,187;  246,984;56056,707;12,71499
 745,63; 7374,706;  240,984;56037,055;12,78535
 746,19; 7406,226;  236,753;56016,326;12,85322
 746,76; 7423,745;  263,677;56017,520;12,84229
 747,33; 7441,803;  245,907;56044,021;12,89631
 747,90; 7483,015;  276,446;56258,908;12,87290
 748,47; 7482,227;  260,292;56098,563;12,93366
 749,04; 7494,900;  267,369;56140,065;12,93571
 749,61; 7586,496;  277,446;56087,874;13,09621
 750,17; 7628,323;  273,677;56126,453;13,16792
 750,74; 7614,227;  266,754;56050,339;13,17139
 751,31; 7540,208;  242,677;56038,379;13,07902
 751,88; 7580,728;  237,215;55875,804;13,19860
 752,45; 7643,709;  254,292;55955,306;13,26622
 753,02; 7679,613;  267,523;55796,423;13,34817
 753,58; 7690,055;  245,523;55712,924;13,42146
 754,15; 7702,113;  249,600;55850,580;13,40356
 754,72; 7697,940;  253,907;55587,620;13,45298
 755,29; 7684,306;  225,215;55477,429;13,50008
 755,86; 7733,133;  243,600;55599,392;13,52981
 756,42; 7794,268;  254,446;55484,202;13,65174
 756,99; 7749,403;  215,600;55437,396;13,64281
 757,56; 7795,768;  226,908;55457,897;13,70401
 758,13; 7699,518;  191,446;55448,784;13,58747
 758,70; 7844,192;  208,754;55384,285;13,83845
 759,26; 7848,173;  206,600;55497,633;13,82064
 759,83; 7880,923;  215,138;55651,904;13,82798
 760,40; 7870,519;  207,292;55360,559;13,89442
 760,97; 7849,654;  192,677;55437,446;13,86009
 761,53; 7831,097;  189,677;54953,794;13,95333
 762,10; 7828,924;  179,523;55044,218;13,94230
 762,67; 7897,597;  222,215;55154,181;13,97252
 763,24; 7815,963;  166,523;54675,760;14,03329
 763,80; 7892,097;  201,754;54842,877;14,07428
 764,37; 7876,386;  204,061;54755,379;14,06442
 764,94; 7822,290;  199,600;54295,573;14,09105
 765,50; 7867,656;  197,369;54383,382;14,15547
 766,07; 7972,867;  246,215;54367,653;14,27651
 766,64; 7869,387;  210,138;54001,770;14,23874
 767,21; 7880,599;  223,831;53891,656;14,26696
 767,77; 7898,887;  239,754;53840,927;14,28912
 768,34; 7951,253;  242,215;53776,737;14,40012
 768,91; 7941,388;  242,292;53575,084;14,43595
 769,47; 7940,676;  247,215;53579,817;14,42544
 770,04; 7972,273;  232,600;53440,011;14,54623
 770,61; 7902,792;  225,215;53255,435;14,47774
 771,18; 7898,696;  208,446;53085,091;14,54376
 771,74; 7981,908;  235,292;53323,285;14,59203
 772,31; 7955,273;  230,215;53058,940;14,62284
 772,88; 7973,639;  214,446;52707,750;14,78130
 773,44; 7945,774;  218,446;52618,482;14,74680
 774,01; 8021,447;  234,446;52727,599;14,83432
 774,58; 8005,274;  223,216;52399,947;14,91481
 775,14; 7985,794;  211,600;52576,064;14,84632
 775,71; 8007,544;  215,985;52494,797;14,90386
 776,27; 8124,986;  268,600;52398,067;15,07091
 776,84; 8202,198;  295,139;52499,492;15,14636
 777,41; 8081,487;  235,139;52180,071;15,10513
 777,97; 8062,314;  231,985;51969,342;15,13477
 778,54; 8159,603;  238,369;51924,766;15,32557
 779,11; 8188,584;  260,293;51930,191;15,34412
 779,67; 8183,872;  214,677;51953,308;15,40279
 780,24; 8154,853;  238,523;51668,887;15,39233
 780,80; 8202,450;  249,523;51699,773;15,45751
 781,37; 8247,892;  243,293;51610,659;15,58304
 781,94; 8186,796;  234,908;51420,238;15,53548
 782,50; 8231,777;  240,293;51404,739;15,61921
 783,07; 8233,450;  254,677;51467,472;15,57965
 783,63; 8238,277;  221,908;51216,358;15,72008
 784,20; 8317,951;  253,523;51172,475;15,83777
 784,77; 8254,701;  231,062;50910,054;15,83228
 785,33; 8236,143;  212,985;50735,940;15,88022
 785,90; 8289,586;  234,600;50656,749;15,97509
 786,46; 8296,567;  250,446;50620,020;15,97417
 787,03; 8311,009;  221,446;50350,599;16,13744
 787,59; 8310,375;  236,600;50371,947;16,10396
 788,16; 8382,510;  240,985;50292,141;16,26641
 788,73; 8374,183;  244,062;50144,565;16,29266
 789,29; 8283,087;  228,677;49801,529;16,24762
 789,86; 8390,376;  253,677;49716,876;16,45000
 790,42; 8344,895;  235,908;49448,378;16,47750
 790,99; 8326,261;  250,831;49178,649;16,50478
 791,55; 8324,165;  224,447;49200,535;16,53811
 792,12; 8401,915;  259,216;49231,883;16,62703
 792,68; 8315,973;  242,216;48849,846;16,61006
 793,25; 8348,646;  241,293;48615,886;16,75953
 793,81; 8395,781;  295,600;48344,542;16,85819
 794,38; 8255,147;  207,370;48147,736;16,78706
 794,94; 8311,051;  218,985;47935,007;16,95880
 795,51; 8297,647;  247,447;47653,431;16,98140
 796,07; 8264,090;  240,139;47466,087;16,99055
 796,64; 8322,840;  244,216;47469,204;17,10667
 797,20; 8303,975;  241,677;47105,552;17,20365
 797,77; 8204,494;  215,908;46680,823;17,19273
 798,33; 8240,936;  226,370;46547,632;17,30213
 798,90; 8259,533;  256,524;46521,903;17,29805
 799,46; 8213,052;  225,601;45897,789;17,48866
 800,03; 8220,264;  238,831;45879,368;17,48760
 800,59; 8216,553;  250,601;45703,177;17,52585
 801,15; 8257,226;  252,985;45521,910;17,68154
 801,72; 8179,284;  240,293;45155,334;17,67557
 802,28; 8152,496;  265,370;44877,221;17,67944
 802,85; 8141,707;  236,524;44621,338;17,81056
 803,41; 8156,381;  237,447;44556,762;17,86791
 803,98; 8080,438;  235,293;44047,418;17,90633
 804,54; 8098,958;  233,524;43920,766;18,00396
 805,11; 8092,631;  241,139;43638,113;18,09226
 805,67; 8084,689;  261,216;43593,461;18,05462
 806,23; 8019,516;  241,216;43168,732;18,11961
 806,80; 8047,497;  247,985;43040,695;18,22626
 807,36; 8069,555;  257,447;43046,812;18,25713
 807,93; 8040,151;  278,985;42722,237;18,28598
 808,49; 8006,979;  222,216;42402,585;18,45589
 809,05; 8009,575;  207,601;42154,087;18,59983
 809,62; 8012,787;  251,524;42141,511;18,52773
 810,18; 8024,768;  246,755;42042,551;18,60956
 810,74; 7965,595;  216,985;41760,822;18,65165
 811,31; 7931,730;  210,601;41524,709;18,68884
 811,87; 7974,172;  234,524;41277,903;18,85724
 812,44; 8056,076;  254,524;41479,250;18,92445
 813,00; 7976,596;  192,293;41034,598;19,05941
 813,56; 8021,807;  243,139;41162,484;19,00976
 814,13; 8034,250;  233,985;41008,448;19,13027
 814,69; 8000,308;  236,062;40900,949;19,09324
 815,25; 7933,058;  207,139;40381,066;19,23118
 815,82; 7987,423;  240,755;40351,491;19,31320
 816,38; 8030,327;  268,601;40127,762;19,47288
 816,94; 7956,462;  215,062;39958,802;19,47829
 817,51; 7911,982;  212,524;39646,535;19,52492
 818,07; 7906,193;  218,909;39392,882;19,62345
 818,63; 7936,098;  231,755;39210,307;19,76559
 819,20; 7896,309;  227,524;39112,270;19,72183
 819,76; 7855,136;  214,909;38788,849;19,80671
 820,32; 7885,733;  256,139;38646,966;19,87348
 820,89; 7858,329;  247,370;38460,391;19,91719
 821,45; 7844,772;  214,986;38189,431;20,09190
 822,01; 7836,060;  233,216;37871,086;20,19998
 822,57; 7812,041;  241,063;37855,280;20,12797
 823,14; 7762,638;  211,293;37486,167;20,25854
 823,70; 7705,465;  219,293;37306,745;20,18519
 824,26; 7709,830;  214,139;37121,939;20,30923
 824,82; 7776,811;  236,524;37027,441;20,49497
 825,39; 7688,638;  214,370;36749,481;20,45777
 825,95; 7740,696;  244,063;36730,752;20,54622
 826,51; 7663,293;  232,755;36361,330;20,56693
 827,08; 7767,966;  261,986;36483,217;20,72260
 827,64; 7724,793;  243,140;36268,334;20,76784
 828,20; 7684,928;  212,370;35898,143;20,93988
 828,76; 7724,140;  253,986;35886,029;20,96471
 829,32; 7738,659;  257,370;35756,454;21,07460
 829,89; 7645,255;  214,293;35706,186;20,93707
 830,45; 7684,775;  239,140;35627,303;21,03990
 831,01; 7684,602;  225,370;35479,190;21,15865
 831,57; 7703,967;  229,986;35345,230;21,28415
 832,14; 7669,718;  211,140;35348,655;21,22682
 832,70; 7721,237;  210,447;35060,695;21,55161
 833,26; 7661,833;  206,678;34902,889;21,48694
 833,82; 7719,199;  235,063;34895,467;21,59276
 834,38; 7737,180;  209,909;34862,200;21,72229
 834,95; 7740,469;  208,063;34716,471;21,82774
 835,51; 7693,296;  186,217;34589,818;21,82062
 836,07; 7792,584;  221,370;34684,397;21,96909
 836,63; 7866,565;  247,909;34621,206;22,16446
 837,19; 7829,008;  234,524;34434,862;22,20587
 837,75; 7747,604;  190,217;34086,287;22,29576
 838,32; 7825,355;  249,371;34296,327;22,25158
 838,88; 7860,720;  242,447;34342,905;22,34068
 839,44; 7833,932;  229,217;34228,561;22,36724
 840,00; 7862,605;  220,217;34125,293;22,54054
 840,56; 7838,817;  212,294;33756,487;22,73575
 841,12; 7848,490;  207,601;33786,296;22,75517
 841,68; 7835,625;  198,140;33638,490;22,83913
 842,25; 7813,375;  209,371;33518,838;22,82836
 842,81; 7808,818;  211,678;33322,032;22,94491
 843,37; 7834,952;  207,601;33416,226;22,96798
 843,93; 7871,164;  215,140;33342,497;23,11088
 844,49; 7899,607;  230,678;33339,999;23,16245
 845,05; 7824,126;  189,140;33131,347;23,17691
 845,61; 7892,799;  237,524;33205,002;23,22069
 846,17; 7873,242;  208,294;33015,658;23,36350
 846,73; 7912,531;  217,217;33016,775;23,46164
 847,29; 7865,742;  200,525;32860,661;23,46964
 847,86; 7874,031;  207,217;32722,009;23,57947
 848,42; 7820,473;  196,140;32543,203;23,57040
 848,98; 7834,147;  216,678;32561,858;23,55055
 849,54; 7882,282;  199,755;32552,283;23,74629
 850,10; 7885,801;  224,755;32341,708;23,85359
 850,66; 7846,397;  201,063;32299,517;23,81839
 851,22; 7833,224;  193,832;32128,403;23,92201
 851,78; 7886,975;  247,832;32229,674;23,88587
 852,34; 7859,494;  222,755;31870,637;24,13033
 852,90; 7804,552;  213,602;31847,831;23,99600
 853,46; 7770,148;  204,294;31624,410;24,07965
 854,02; 7833,899;  213,678;31638,450;24,24909
 854,58; 7769,495;  204,678;31429,105;24,22724
 855,14; 7742,091;  201,986;31338,761;24,21608
 855,70; 7777,303;  176,755;31218,416;24,48499
 856,26; 7807,361;  235,371;31233,534;24,42722
 856,82; 7766,419;  203,371;30950,574;24,59752
 857,38; 7811,631;  242,217;30908,614;24,68309
 857,94; 7748,304;  209,986;30828,577;24,62007
 858,50; 7790,516;  226,294;30618,617;24,88859
 859,06; 7744,727;  202,448;30493,426;24,89942
 859,62; 7795,477;  218,602;30468,390;25,04770
 860,18; 7765,997;  212,986;30324,584;25,08339
 860,74; 7718,593;  181,909;30105,547;25,18639
 861,30; 7750,190;  194,217;29888,125;25,44620
 861,86; 7803,786;  241,679;30023,935;25,39132
 862,42; 7715,382;  212,679;29767,821;25,38544
 862,98; 7753,594;  233,679;29734,476;25,49055
 863,54; 7696,498;  222,756;29541,209;25,49160
 864,10; 7755,248;  220,525;29542,249;25,69673
 864,66; 7703,999;  201,140;29320,905;25,76552
 865,22; 7711,672;  212,602;29224,714;25,84807
 865,78; 7706,037;  228,217;29105,677;25,89501
 866,34; 7721,941;  205,140;29035,333;26,07267
 866,90; 7719,922;  218,679;28876,911;26,17483
 867,45; 7687,442;  216,525;28690,105;26,23807
 868,01; 7678,192;  223,756;28554,145;26,31251
 868,57; 7637,481;  204,910;28341,955;26,41561
 869,13; 7667,539;  194,525;28286,995;26,60148
 869,69; 7695,750;  204,294;28199,343;26,75993
 870,25; 7649,039;  197,602;28030,152;26,77238
 870,81; 7698,712;  210,525;27974,346;26,97103
 871,37; 7733,462;  215,679;27896,617;27,15870
 871,93; 7714,674;  229,910;27765,580;27,18207
 872,49; 7710,271;  239,987;27545,697;27,35796
 873,04; 7616,867;  197,833;27359,506;27,31435
 873,60; 7622,079;  200,602;27265,546;27,42099
 874,16; 7619,213;  224,910;27204,048;27,40749
 874,72; 7662,367;  203,910;27066,048;27,76569
 875,28; 7614,675;  218,910;27009,971;27,60535
 875,84; 7634,598;  216,833;26925,510;27,77287
 876,40; 7628,367;  209,756;26853,587;27,84364
 876,95; 7635,675;  219,833;26916,356;27,77831
 877,51; 7691,983;  234,833;26936,817;27,92732
 878,07; 7730,060;  242,833;26841,817;28,14854
 878,63; 7666,444;  211,910;26853,587;27,98073
 879,19; 7733,675;  230,448;26860,279;28,17602
 879,75; 7768,675;  209,910;26893,740;28,32714
 880,30; 7680,598;  209,756;26889,971;28,00143
 880,86; 7799,598;  243,833;27000,202;28,23913
 881,42; 7852,598;  192,525;27050,202;28,52098
 881,98; 7846,521;  226,756;27168,048;28,28285
 882,54; 7883,906;  211,525;27217,663;28,40977
 883,09; 7965,367;  227,756;27339,279;28,53994
 883,65; 8009,598;  197,602;27335,202;28,78661
 884,21; 8071,675;  238,987;27546,587;28,68318
 884,77; 8042,521;  211,217;27684,202;28,50547
 885,32; 8155,906;  213,756;27806,202;28,78378
 885,88; 8220,983;  241,679;27903,587;28,84582
 886,44; 8225,906;  225,140;27971,202;28,83568
 887,00; 8247,906;  228,140;27985,048;28,89286
 887,56; 8307,060;  213,910;28107,048;29,01484
 888,11; 8387,444;  212,602;28153,740;29,25737
 888,67; 8430,983;  250,371;28319,202;29,14482
 889,23; 8463,983;  220,987;28304,202;29,35204
 889,79; 8410,367;  195,294;28167,279;29,36893
 890,34; 8397,444;  221,448;28126,510;29,29933
 890,90; 8538,213;  274,448;28239,510;29,55032
 891,46; 8464,983;  206,756;28133,894;29,57062
 892,01; 8453,598;  235,910;28142,202;29,44744
 892,57; 8515,444;  242,525;28027,433;29,77487
 893,13; 8496,752;  214,371;27874,510;29,94338
 893,69; 8484,290;  206,679;27834,433;29,96122
 894,24; 8416,137;  209,833;27745,433;29,80252
 894,80; 8492,367;  209,756;27656,048;30,17752
 895,36; 8400,829;  214,679;27516,279;29,98414
 895,91; 8425,137;  217,833;27286,202;30,32064
 896,47; 8427,060;  232,140;27175,510;30,41535
 897,03; 8343,213;  213,679;26974,740;30,37822
 897,58; 8415,752;  228,679;26837,587;30,76817
 898,14; 8354,444;  227,679;26705,740;30,69245
 898,70; 8343,444;  196,140;26521,433;30,94858
 899,25; 8366,983;  210,294;26541,740;30,97699
 899,81; 8353,983;  217,371;26378,202;31,10227
 900,37; 8310,213;  187,525;26079,894;31,37097
 900,92; 8355,290;  213,525;26093,048;31,46026
 901,48; 8293,598;  209,602;26053,279;31,28036
 902,03; 8227,752;  210,140;25818,740;31,30828
 902,59; 8221,598;  213,602;25710,510;31,40772
 903,15; 8240,598;  228,140;25576,202;31,60975
 903,70; 8164,829;  220,602;25382,587;31,57234
 904,26; 8203,444;  197,756;25265,356;31,93640
 904,82; 8176,983;  209,371;25302,202;31,75254
 905,37; 8169,675;  222,140;25079,510;31,97255
 905,93; 8118,598;  211,448;24944,971;31,96936
 906,48; 8113,367;  218,140;24824,279;32,08641
 907,04; 8136,290;  226,833;24824,740;32,15500
 907,60; 8098,598;  205,448;24573,356;32,39158
 908,15; 8033,829;  193,294;24495,202;32,26304
 908,71; 8060,290;  234,140;24481,587;32,27618
 909,26; 8023,060;  212,602;24315,048;32,40525
 909,82; 8040,675;  227,217;24178,433;32,62238
 910,37; 8041,752;  248,217;24143,433;32,61546
 910,93; 7941,367;  211,140;23932,356;32,58782
 911,48; 7873,598;  195,987;23748,740;32,59751
 912,04; 7889,598;  204,371;23688,894;32,72465
 912,60; 7912,675;  218,063;23709,663;32,75474
 913,15; 7850,060;  212,217;23494,202;32,80580
 913,71; 7804,137;  200,602;23282,587;32,94142
 914,26; 7760,060;  192,525;23220,817;32,86190
 914,82; 7789,290;  218,602;23132,510;33,03971
 915,37; 7792,137;  197,217;23068,587;33,20710
 915,93; 7819,906;  254,371;23015,663;33,23860
 916,48; 7753,906;  202,217;22835,894;33,36483
 917,04; 7736,752;  227,910;22721,510;33,38213
 917,59; 7719,060;  232,525;22648,433;33,39831
 918,15; 7610,598;  183,910;22479,740;33,30976
 918,70; 7660,137;  201,294;22344,510;33,68455
 919,26; 7652,060;  216,756;22277,663;33,70353
 919,81; 7606,367;  195,448;22119,125;33,80327
 920,37; 7615,444;  191,063;21986,587;34,06379
 920,92; 7598,367;  227,987;22000,202;33,85223
 921,48; 7498,213;  192,294;21781,971;33,83987
 922,03; 7502,598;  203,063;21755,202;33,86919
 922,59; 7495,213;  198,910;21551,356;34,17081
 923,14; 7509,752;  200,294;21536,971;34,25771
 923,69; 7500,367;  228,987;21373,510;34,38896
 924,25; 7496,983;  231,294;21373,279;34,36616
 924,80; 7399,675;  210,833;21137,125;34,35316
 925,36; 7364,675;  205,371;21097,433;34,26806
 925,91; 7423,675;  207,987;20935,202;34,81263
 926,47; 7394,675;  187,910;20840,663;34,89494
 927,02; 7433,137;  253,063;20835,817;34,88393
 927,57; 7384,213;  199,602;20660,740;35,11345
 928,13; 7389,752;  186,371;20612,663;35,26524
 928,68; 7340,983;  202,448;20522,587;35,13034
 929,24; 7265,290;  168,448;20419,663;35,04403
 929,79; 7269,983;  192,987;20219,971;35,33730
 930,34; 7255,060;  203,910;20070,894;35,49180
 930,90; 7247,906;  199,140;20103,587;35,41302
 931,45; 7286,137;  208,448;20063,971;35,64594
 932,01; 7244,444;  207,294;19824,894;35,87162
 932,56; 7205,213;  221,987;19795,894;35,67620
 933,11; 7230,521;  226,833;19744,663;35,88354
 933,67; 7130,829;  195,833;19569,740;35,79555
 934,22; 7117,675;  203,294;19479,663;35,86973
 934,77; 7107,983;  232,217;19436,202;35,80385
 935,33; 7035,906;  214,525;19295,279;35,75006
 935,88; 7010,290;  217,063;19181,510;35,82086
 936,43; 6976,906;  193,371;19164,663;35,75684
 936,99; 7001,675;  211,063;19027,510;36,08870
 937,54; 6918,367;  184,140;18841,894;36,09345
 938,09; 6953,829;  208,602;18791,740;36,29757
 938,65; 6913,675;  209,294;18645,817;36,36467
 939,20; 6873,137;  183,294;18601,740;36,32143
 939,75; 6797,983;  189,525;18505,356;36,08058
 940,31; 6781,444;  185,448;18393,971;36,22477
 940,86; 6818,675;  209,756;18389,048;36,35411
 941,41; 6839,752;  261,063;18269,817;36,53050
 941,96; 6733,983;  201,910;18149,433;36,39540
 942,52; 6753,213;  202,294;18048,125;36,70840
 943,07; 6681,906;  182,910;17949,125;36,58064
 943,62; 6661,444;  199,525;17862,740;36,58405
 944,18; 6632,367;  198,987;17755,663;36,64350
 944,73; 6643,983;  209,371;17721,510;36,74372
 945,28; 6547,675;  172,910;17468,510;36,85773
 945,83; 6578,598;  192,910;17503,740;36,88840
 946,39; 6586,213;  190,910;17489,740;36,96957
 946,94; 6605,060;  218,063;17365,510;37,24751
 947,49; 6535,290;  202,756;17228,740;37,19335
 948,04; 6566,367;  222,756;17257,663;37,23890
 948,59; 6540,675;  224,448;17127,510;37,36735
 949,15; 6453,213;  181,987;17016,356;37,25252
 949,70; 6431,983;  203,602;16957,587;37,17552
 950,25; 6444,829;  216,063;16872,894;37,39466
 950,80; 6410,060;  170,140;16704,125;37,73996
 951,36; 6359,290;  166,602;16642,279;37,58685
 951,91; 6431,906;  215,756;16653,279;37,81683
 952,46; 6371,521;  188,217;16474,125;37,96720
 953,01; 6407,137;  211,756;16479,279;38,08435
 953,56; 6338,906;  182,217;16339,663;38,10434
 954,11; 6371,829;  208,217;16342,971;38,20084
 954,67; 6304,290;  186,602;16240,433;38,10734
 955,22; 6255,444;  165,140;16065,125;38,30383
 955,77; 6328,444;  227,371;16076,510;38,49467
 956,32; 6317,060;  233,525;15970,125;38,65851
 956,87; 6213,367;  188,217;15816,356;38,55322
 957,42; 6239,983;  199,448;15744,202;38,85899
 957,98; 6232,598;  195,525;15677,125;38,99515
 958,53; 6237,060;  216,679;15685,894;38,91846
 959,08; 6177,906;  190,756;15538,048;39,01112
 959,63; 6135,675;  185,140;15422,356;39,05264
 960,18; 6123,444;  204,063;15400,817;38,95161
 960,73; 6110,137;  202,756;15353,048;38,99186
 961,28; 6092,752;  188,371;15228,510;39,25749
 961,83; 6127,521;  205,525;15224,510;39,43007
 962,39; 6060,829;  184,602;15026,894;39,59110
 962,94; 6039,829;  217,756;14998,510;39,38955
 963,49; 6053,213;  202,756;14846,048;39,95316
 964,04; 6048,675;  212,063;14804,971;39,99622
 964,59; 5965,829;  170,140;14735,356;39,79130
 965,14; 6004,367;  214,140;14637,740;40,14412
 965,69; 5985,060;  204,525;14532,356;40,34480
 966,24; 5946,983;  189,910;14443,894;40,38922
 966,79; 5959,060;  215,217;14397,125;40,50120
 967,34; 5861,675;  169,448;14195,587;40,58299
 967,89; 5872,367;  195,679;14179,048;40,59600
 968,44; 5838,367;  205,294;14128,740;40,45746
 968,99; 5835,521;  210,679;14066,740;40,59481
 969,55; 5839,598;  202,910;13953,817;40,99139
 970,10; 5806,060;  205,756;13867,587;40,99234
 970,65; 5782,983;  216,217;13742,587;41,15491
 971,20; 5743,060;  194,140;13683,510;41,13550
 971,75; 5691,444;  175,833;13469,356;41,49097
 972,30; 5687,675;  200,525;13451,663;41,40889
 972,85; 5631,521;  191,756;13365,125;41,29365
 973,40; 5594,675;  191,756;13249,663;41,37661
 973,95; 5599,829;  202,140;13220,740;41,46136
 974,50; 5604,444;  223,448;13146,894;41,63747
 975,05; 5525,752;  201,756;13000,279;41,59852
 975,60; 5532,675;  215,140;12978,894;41,66121
 976,15; 5447,906;  191,833;12840,663;41,55383
 976,70; 5452,521;  203,063;12794,356;41,69117
 977,25; 5460,906;  212,833;12717,817;41,96785
 977,80; 5361,213;  194,679;12616,433;41,59263
 978,35; 5322,598;  218,448;12468,048;41,66789
 978,89; 5268,906;  186,679;12345,510;41,79865
 979,44; 5313,290;  197,756;12355,971;42,07472
 979,99; 5236,675;  186,910;12160,510;42,17416
 980,54; 5272,444;  227,987;12152,356;42,30377
 981,09; 5231,290;  219,140;12073,433;42,28131
 981,64; 5156,060;  206,833;11907,663;42,29808
 982,19; 5182,521;  235,910;11902,510;42,39977
 982,74; 5129,829;  214,987;11733,971;42,66732
 983,29; 5052,290;  191,756;11599,356;42,60786
 983,84; 5036,829;  209,525;11474,202;42,85346
 984,39; 5099,521;  262,833;11432,587;43,30166
 984,94; 4981,752;  178,294;11322,971;43,10091
 985,49; 4975,906;  231,679;11240,587;43,09444
 986,03; 4926,521;  225,217;11184,587;42,89758
 986,58; 4926,367;  245,448;11041,740;43,35673
 987,13; 4856,521;  207,910;10894,587;43,49913
 987,68; 4839,060;  222,140;10822,125;43,55591
 988,23; 4802,906;  221,063;10802,048;43,30261
 988,78; 4753,290;  193,063;10655,433;43,58694
 989,33; 4740,598;  216,833;10548,125;43,78702
 989,88; 4767,675;  224,756;10489,740;44,25646
 990,42; 4643,213;  210,679;10372,433;43,61978
 990,97; 4643,598;  210,833;10237,356;44,21039
 991,52; 4611,829;  229,140;10154,125;44,15814
 992,07; 4621,829;  237,910;10121,663;44,35480
 992,62; 4512,060;  222,448; 9972,356;43,99643
 993,17; 4482,367;  221,448; 9894,663;44,04863
 993,71; 4469,906;  222,756; 9765,433;44,50690
 994,26; 4397,829;  201,371; 9678,125;44,28159
 994,81; 4427,983;  221,140; 9602,510;44,84252
 995,36; 4344,137;  204,371; 9478,894;44,63588
 995,91; 4338,675;  217,679; 9431,356;44,72694
 996,45; 4278,367;  205,140; 9270,279;44,93287
 997,00; 4230,906;  189,987; 9123,740;45,23204
 997,55; 4233,752;  216,987; 9109,587;45,16975
 998,10; 4238,752;  242,756; 8988,433;45,69110
 998,65; 4169,137;  204,140; 8947,356;45,34940
 999,19; 4172,983;  221,371; 8811,663;46,00090
 999,74; 4133,367;  236,987; 8739,510;45,82617
1000,29; 4081,829;  226,294; 8655,202;45,74181
1000,84; 4010,521;  201,679; 8495,894;45,92167
1001,38; 3988,675;  213,217; 8413,971;46,03793
1001,93; 3963,598;  229,910; 8355,356;45,95057
1002,48; 3887,213;  204,448; 8209,125;46,00767
1003,03; 3929,367;  223,910; 8186,894;46,53353
1003,57; 3845,444;  227,833; 8108,663;45,90394
1004,12; 3862,521;  256,371; 7949,048;46,87770
1004,67; 3777,444;  210,602; 7886,356;46,46895
1005,22; 3713,675;  205,448; 7729,125;46,62915
1005,76; 3628,137;  197,833; 7624,356;46,18990
1006,31; 3614,598;  228,217; 7583,894;46,03765
1006,86; 3573,829;  215,140; 7489,663;46,17057
1007,40; 3557,060;  202,602; 7323,587;47,10666
1007,95; 3529,213;  223,910; 7254,587;47,01260
1008,50; 3475,983;  215,910; 7108,048;47,30133
1009,04; 3462,675;  211,987; 7077,894;47,34536
1009,59; 3401,137;  215,525; 6945,279;47,33623
1010,14; 3325,521;  191,063; 6864,587;46,96856
1010,68; 3296,752;  202,217; 6776,971;47,06693
1011,23; 3258,367;  211,987; 6622,356;47,52270
1011,78; 3271,290;  223,525; 6594,279;47,83995
1012,32; 3237,675;  225,910; 6476,740;48,18184
1012,87; 3212,367;  240,063; 6461,279;47,77690
1013,42; 3122,290;  198,602; 6310,740;47,83413
1013,96; 3150,137;  235,063; 6342,587;47,72922
1014,51; 3098,906;  176,679; 6239,510;48,19905
1015,06; 3082,444;  194,294; 6241,663;47,75878
1015,60; 3150,829;  250,756; 6316,817;47,80817
1016,15; 3098,906;  204,140; 6243,894;47,92853
1016,69; 3086,137;  205,371; 6311,587;47,17759
1017,24; 3107,983;  193,371; 6283,202;47,86030
1017,79; 3174,290;  236,756; 6368,663;47,90572
1018,33; 3133,829;  201,063; 6299,663;48,08916
1018,88; 3177,598;  222,679; 6390,048;47,91215
1019,42; 3172,983;  206,987; 6383,202;48,02287
1019,97; 3150,983;  202,525; 6343,279;48,01459
1020,51; 3195,598;  224,679; 6435,125;47,83745
1021,06; 3156,290;  196,679; 6409,048;47,64063
1021,61; 3135,983;  177,525; 6367,587;47,79367
1022,15; 3122,213;  168,140; 6285,279;48,29175
1022,70; 3107,213;  201,987; 6293,663;47,69174
1023,24; 3129,752;  194,217; 6266,125;48,34617
1023,79; 3076,906;  207,602; 6194,279;47,92816
1024,33; 3070,675;  189,140; 6167,740;48,19748
1024,88; 3059,444;  221,371; 6046,740;48,71920
1025,42; 3050,290;  211,140; 5985,356;49,16945
1025,97; 2979,444;  199,833; 5905,663;48,71528
1026,51; 2876,290;  176,063; 5792,817;48,07451
1027,06; 2908,213;  192,217; 5716,433;49,16528
1027,60; 2865,675;  216,217; 5660,356;48,66624
1028,15; 2825,752;  214,910; 5538,048;49,04705
1028,69; 2765,598;  173,602; 5427,894;49,33102
1029,24; 2763,983;  187,294; 5382,663;49,59587
1029,78; 2720,060;  189,910; 5295,048;49,56085
1030,33; 2666,675;  178,679; 5186,817;49,67906
1030,87; 2654,906;  195,679; 5110,356;50,03842
1031,42; 2599,675;  175,833; 5040,510;49,82535
1031,96; 2625,829;  207,525; 4971,587;50,76139
1032,51; 2550,983;  184,833; 4889,202;50,29686
1033,05; 2547,213;  204,679; 4859,971;50,31982
1033,60; 2478,137;  165,525; 4725,971;50,71020
1034,14; 2437,137;  191,679; 4665,971;50,18576
1034,69; 2428,213;  202,140; 4596,433;50,65828
1035,23; 2409,213;  195,987; 4562,356;50,68804
1035,77; 2393,367;  190,448; 4520,048;50,88043
1036,32; 2308,752;  169,525; 4409,433;50,45456
1036,86; 2320,675;  201,679; 4379,817;50,71627
1037,41; 2263,290;  205,756; 4278,279;50,52236
1037,95; 2239,444;  181,679; 4218,971;50,96895
1038,50; 2227,983;  187,217; 4162,510;51,33623
1039,04; 2215,983;  213,910; 4120,587;51,24747
1039,58; 2145,829;  186,140; 4047,740;50,74810
1040,13; 2138,906;  197,525; 3989,048;51,20319
1040,67; 2154,675;  229,448; 3970,817;51,45782
1041,21; 2132,060;  213,140; 3912,740;51,86829
1041,76; 2069,137;  179,679; 3816,356;51,95561
1042,30; 2035,290;  204,063; 3788,125;51,09362
1042,85; 2008,675;  200,448; 3725,971;51,28961
1043,39; 2005,829;  166,910; 3647,125;52,83924
1043,93; 2012,598;  211,217; 3640,894;52,52334
1044,48; 1948,290;  215,679; 3562,663;51,76634
1045,02; 1930,060;  197,525; 3481,279;52,76079
1045,56; 1942,367;  215,294; 3502,971;52,53172
1046,11; 1884,983;  206,756; 3442,894;51,85893
1046,65; 1869,367;  208,448; 3371,663;52,50731
1047,19; 1839,444;  188,063; 3327,279;52,60489
1047,74; 1798,290;  184,833; 3238,510;52,83656
1048,28; 1808,290;  201,910; 3227,279;53,09702
1048,82; 1822,444;  212,833; 3210,510;53,69530
1049,37; 1751,983;  214,602; 3148,048;52,40869
1049,91; 1752,290;  197,756; 3114,433;53,29814
1050,45; 1730,598;  219,140; 3066,971;53,07400
1050,99; 1713,521;  201,294; 3028,587;53,48676
1051,54; 1654,752;  197,756; 2964,587;52,65939
1052,08; 1675,752;  220,217; 2919,125;53,93051
1052,62; 1661,983;  211,756; 2906,356;53,81975
1053,16; 1595,521;  191,525; 2845,894;52,89378
1053,71; 1589,675;  203,756; 2818,202;53,01005
1054,25; 1606,983;  216,371; 2767,125;54,51767
1054,79; 1579,444;  212,910; 2723,048;54,44061
1055,33; 1510,598;  177,602; 2670,279;53,47649
1055,88; 1524,290;  215,371; 2668,587;53,35525
1056,42; 1515,521;  222,987; 2646,817;53,32611
1056,96; 1487,675;  217,140; 2583,048;53,70178
1057,50; 1486,444;  211,371; 2545,433;54,62894
1058,05; 1454,906;  200,987; 2502,356;54,48579
1058,59; 1447,367;  229,294; 2489,279;53,89741
1059,13; 1380,829;  186,525; 2424,894;53,35598
1059,67; 1400,290;  224,448; 2421,433;53,52073
1060,21; 1367,598;  213,063; 2344,817;54,15891
1060,76; 1372,906;  221,602; 2316,433;54,95928
1061,30; 1371,290;  226,910; 2312,279;54,87665
1061,84; 1341,444;  213,448; 2244,202;55,54569
1062,38; 1298,675;  192,063; 2193,048;55,30335
1062,92; 1335,137;  240,910; 2237,279;54,81085
1063,46; 1277,752;  224,679; 2158,433;54,45745
1064,01; 1240,752;  204,217; 2134,894;53,68763
1064,55; 1270,213;  213,140; 2102,048;55,96214
1065,09; 1207,752;  185,063; 2060,048;54,54383
1065,63; 1263,983;  239,140; 2071,202;55,93929
1066,17; 1228,444;  242,217; 2045,971;54,67636
1066,71; 1212,598;  226,217; 2023,587;54,87914
1067,25; 1165,444;  211,294; 1967,433;54,33228
1067,80; 1173,983;  219,679; 1961,433;54,78982
1068,34; 1191,521;  242,756; 1928,971;56,26597
1068,88; 1136,367;  201,448; 1891,510;55,31865
1069,42; 1184,213;  241,294; 1921,433;56,12152
1069,96; 1089,290;  200,217; 1850,279;53,88121
1070,50; 1160,829;  241,910; 1861,433;56,74011
1071,04; 1092,906;  192,756; 1814,817;55,49420
1071,58; 1084,060;  210,602; 1809,510;54,62840
1072,12; 1080,752;  207,987; 1767,971;55,94705
1072,66; 1069,675;  205,602; 1757,356;55,68364
1073,21; 1063,983;  228,371; 1752,202;54,83624
1073,75; 1040,675;  226,602; 1707,202;54,98265
1074,29; 1042,598;  218,371; 1684,433;56,22049
1074,83; 1037,137;  233,140; 1701,125;54,76870
1075,37; 1055,752;  230,525; 1658,202;57,80208
1075,91; 1027,521;  224,987; 1647,663;56,41018
1076,45; 1000,367;  217,063; 1628,894;55,48143
1076,99; 1012,213;  236,756; 1589,125;57,34068
1077,53;  958,213;  206,525; 1573,971;54,97024
1078,07;  966,906;  222,525; 1573,433;55,10227
1078,61;  948,752;  217,833; 1538,894;55,32817
1079,15;  947,367;  212,525; 1524,663;56,00341
1079,69;  924,521;  216,140; 1491,433;55,54654
1080,23;  949,906;  233,833; 1482,587;57,34301
1080,77;  978,829;  267,910; 1506,048;57,41839
1081,31;  913,521;  213,679; 1440,894;57,02685
1081,85;  914,906;  224,602; 1452,048;56,23903
1082,39;  900,983;  209,294; 1414,663;57,38395
1082,93;  902,290;  221,063; 1410,894;57,25410
1083,47;  862,521;  196,140; 1361,971;57,15931
1084,01;  880,906;  236,140; 1391,587;55,80229
1084,55;  857,906;  209,987; 1330,510;57,82293
1085,09;  858,598;  230,448; 1354,202;55,89747
1085,63;  838,906;  214,371; 1322,894;56,33934
1086,17;  828,983;  212,679; 1282,433;57,61174
1086,71;  806,752;  213,910; 1289,356;55,12524
1087,24;  841,137;  232,140; 1300,663;56,99420
1087,78;  833,444;  224,833; 1273,817;58,01911
1088,32;  787,444;  215,217; 1228,202;56,48920
1088,86;  809,752;  241,987; 1251,202;56,25810
1089,40;  798,137;  217,602; 1222,433;57,77437
1089,94;  745,367;  195,833; 1181,433;55,75635
1090,48;  766,598;  226,833; 1185,279;56,31671
1091,02;  784,444;  232,833; 1181,587;58,14064
1091,56;  761,521;  218,756; 1171,971;56,94048
1092,10;  739,521;  200,217; 1147,971;56,90337
1092,63;  765,060;  234,987; 1154,740;57,63206
1093,17;  747,675;  233,294; 1125,587;57,64711
1093,71;  725,367;  209,294; 1113,279;57,08870
1094,25;  760,213;  235,448; 1131,817;58,54344
1094,79;  711,290;  218,371; 1087,048;56,74368
1095,33;  723,060;  220,679; 1067,279;59,34098
1095,87;  715,060;  228,448; 1063,817;58,25107
1096,40;  680,444;  198,679; 1024,663;58,32619
1096,94;  695,829;  216,987; 1045,894;57,76787
1097,48;  695,906;  219,833; 1024,048;59,19721
1098,02;  683,444;  211,371; 1015,894;58,67738
1098,56;  646,367;  189,679;  980,048;57,78166
1099,10;  642,906;  185,833;  971,894;58,14724
1099,63;  647,444;  200,987;  948,587;59,71879
1100,17;  663,983;  222,602;  979,433;58,31961
1100,71;  687,444;  243,140;  987,433;59,69481

