
Integration time [ms]: 160,000
Averaging Nr. [scans]: 13
Smoothing Nr. [pixels]: 0
Data measured with spectrometer [name]: 2009305U1
Wave   ;Sample   ;Dark     ;Reference;Reflectance
[nm]   ;[counts] ;[counts] ;[counts] ;[%]

 175,72;  211,837;  227,877;  205,653; 0,00000
 176,32;  249,129;  238,108;  216,813; 0,00000
 176,92;  285,204;  281,492;  254,971; 0,00000
 177,52;  267,206;  278,185;  265,678; 0,00000
 178,12;  256,765;  254,723;  224,864; 0,00000
 178,72;  287,605;  289,108;  250,340; 0,00000
 179,32;  270,505;  256,954;  241,998; 0,00000
 179,92;  264,024;  281,338;  242,319; 0,00000
 180,52;  264,863;  263,262;  254,068; 0,00000
 181,12;  273,970;  276,108;  252,404; 0,00000
 181,73;  301,653;  303,108;  266,338; 0,00000
 182,33;  410,785;  411,031;  336,927; 0,00000
 182,93;  290,401;  290,415;  266,645; 0,00000
 183,53;  255,840;  263,569;  224,030; 0,00000
 184,13;  262,040;  262,185;  229,431; 0,00000
 184,73;  312,984;  312,338;  273,739; 0,00000
 185,33;  277,351;  253,262;  341,197;27,39440
 185,93;  287,300;  255,338;  348,375;34,35340
 186,53;  297,887;  269,646;  370,650;27,96024
 187,13;  320,003;  297,108;  414,063;19,57593
 187,73;  287,248;  262,415;  361,495;25,06372
 188,33;  281,010;  251,877;  370,649;24,52878
 188,93;  291,604;  275,338;  374,130;16,46474
 189,53;  291,967;  265,800;  393,125;20,55164
 190,13;  342,160;  302,646;  409,924;36,83266
 190,73;  263,139;  238,877;  365,019;19,23358
 191,34;  309,821;  276,877;  385,888;30,22136
 191,94;  285,385;  247,108;  359,614;34,02209
 192,54;  291,298;  267,185;  391,391;19,41414
 193,14;  303,740;  296,723;  390,009; 7,52234
 193,74;  315,165;  284,415;  377,424;33,06109
 194,34;  295,182;  278,954;  388,106;14,86766
 194,94;  263,474;  235,415;  342,899;26,10514
 195,54;  228,285;  211,569;  332,970;13,76942
 196,14;  258,068;  238,877;  354,341;16,62079
 196,74;  261,844;  246,108;  343,719;16,12095
 197,34;  244,731;  215,262;  345,903;22,55766
 197,94;  281,979;  246,185;  373,573;28,09848
 198,54;  277,982;  261,954;  383,909;13,14273
 199,14;  268,548;  224,646;  380,241;28,21535
 199,74;  238,429;  210,185;  370,197;17,65163
 200,34;  244,369;  199,492;  379,885;24,87729
 200,94;  281,585;  263,338;  425,936;11,22171
 201,54;  264,144;  221,262;  432,596;20,29131
 202,14;  313,737;  272,031;  474,093;20,64007
 202,74;  257,332;  234,108;  473,146; 9,71579
 203,34;  253,558;  206,415;  480,577;17,19535
 203,94;  222,375;  182,723;  486,255;13,06347
 204,54;  293,129;  258,723;  563,211;11,29965
 205,14;  260,308;  204,108;  571,733;15,28745
 205,74;  317,026;  269,031;  659,589;12,28893
 206,34;  281,692;  225,185;  679,015;12,45133
 206,94;  304,564;  235,108;  728,140;14,08748
 207,54;  269,057;  197,108;  773,579;12,48094
 208,14;  293,218;  207,108;  845,836;13,48159
 208,74;  288,980;  218,954;  918,683;10,00766
 209,34;  294,672;  219,569;  992,970; 9,71066
 209,94;  306,823;  224,800; 1089,013; 9,49105
 210,54;  324,972;  228,723; 1187,450;10,03921
 211,14;  330,598;  227,262; 1267,179; 9,93702
 211,73;  341,148;  221,800; 1399,958;10,13002
 212,33;  366,088;  238,569; 1495,442;10,14570
 212,93;  345,987;  234,569; 1569,925; 8,34364
 213,53;  339,939;  193,492; 1613,023;10,31654
 214,13;  379,434;  242,338; 1705,053; 9,37270
 214,73;  335,121;  199,031; 1721,786; 8,93712
 215,33;  336,515;  188,800; 1742,628; 9,50653
 215,93;  379,322;  226,262; 1862,662; 9,35351
 216,53;  345,907;  174,800; 1944,199; 9,67035
 217,13;  396,229;  229,569; 2159,512; 8,63547
 217,73;  396,009;  219,646; 2334,342; 8,33985
 218,33;  362,049;  168,569; 2512,186; 8,25559
 218,93;  423,804;  210,569; 2802,474; 8,22694
 219,53;  460,853;  210,262; 3052,680; 8,81614
 220,13;  454,337;  168,492; 3342,899; 9,00466
 220,73;  478,201;  204,954; 3659,770; 7,90917
 221,32;  534,288;  208,492; 4073,836; 8,42863
 221,92;  567,453;  212,262; 4477,909; 8,32678
 222,52;  582,183;  185,800; 4867,162; 8,46725
 223,12;  632,750;  196,723; 5286,413; 8,56687
 223,72;  673,170;  213,569; 5644,061; 8,46334
 224,32;  712,217;  210,415; 5997,482; 8,67109
 224,92;  740,815;  198,646; 6323,312; 8,85222
 225,52;  795,291;  211,492; 6670,557; 9,03844
 226,12;  827,415;  200,492; 6972,357; 9,25776
 226,72;  823,668;  178,415; 7292,274; 9,07035
 227,31;  858,265;  174,800; 7646,565; 9,14731
 227,91;  973,798;  218,262; 8071,656; 9,62051
 228,51; 1001,761;  198,800; 8435,636; 9,74842
 229,11; 1039,724;  200,492; 8840,069; 9,71381
 229,71; 1098,010;  192,646; 9126,800;10,13374
 230,31; 1137,221;  178,877; 9555,531;10,22054
 230,91; 1191,341;  176,262; 9813,841;10,53251
 231,51; 1235,914;  182,492;10061,634;10,66309
 232,10; 1308,374;  191,877;10384,972;10,95347
 232,70; 1388,259;  209,031;10581,029;11,36935
 233,30; 1475,293;  218,492;10813,411;11,86230
 233,90; 1492,276;  187,569;10937,933;12,13639
 234,50; 1531,213;  204,954;11059,818;12,21811
 235,10; 1579,507;  186,646;10974,158;12,91179
 235,70; 1665,446;  216,185;11013,347;13,42261
 236,29; 1688,978;  200,646;10902,340;13,90744
 236,89; 1664,089;  180,185;10792,462;13,98290
 237,49; 1740,099;  211,800;10632,310;14,66626
 238,09; 1734,154;  186,031;10341,707;15,24392
 238,69; 1804,257;  246,338;10098,604;15,81280
 239,29; 1757,977;  197,415; 9734,699;16,36275
 239,89; 1731,030;  198,800; 9401,017;16,65066
 240,48; 1690,829;  184,492; 8971,537;17,14270
 241,08; 1678,238;  203,723; 8611,278;17,53798
 241,68; 1679,157;  206,031; 8278,664;18,24839
 242,28; 1643,504;  185,492; 7940,130;18,80180
 242,88; 1643,316;  243,262; 7665,624;18,86265
 243,48; 1624,833;  239,723; 7348,585;19,48427
 244,07; 1555,549;  199,415; 7158,640;19,48686
 244,67; 1557,212;  215,646; 6950,593;19,91947
 245,27; 1545,917;  214,185; 6813,419;20,18010
 245,87; 1552,678;  215,338; 6751,769;20,45978
 246,47; 1538,858;  202,415; 6743,128;20,43267
 247,06; 1517,738;  191,185; 6743,421;20,24580
 247,66; 1531,970;  191,723; 6819,743;20,22092
 248,26; 1568,102;  225,185; 7000,936;19,81947
 248,86; 1603,928;  208,415; 7154,654;20,09019
 249,46; 1596,417;  158,723; 7378,217;19,91406
 250,05; 1669,066;  211,492; 7771,472;19,28012
 250,65; 1694,432;  192,800; 8058,257;19,09148
 251,25; 1757,638;  195,031; 8552,490;18,69715
 251,85; 1828,388;  215,185; 9127,877;18,10006
 252,44; 1868,578;  171,108; 9680,974;17,84957
 253,04; 1993,970;  211,492;10445,847;17,41662
 253,64; 2032,324;  161,646;11140,049;17,03962
 254,24; 2235,723;  201,800;12050,132;17,16632
 254,84; 2253,802;  194,262;13024,525;16,05221
 255,43; 2340,811;  188,800;13965,778;15,62034
 256,03; 2457,814;  200,262;14933,069;15,32330
 256,63; 2573,763;  204,569;15959,061;15,03821
 257,23; 2608,997;  180,492;16835,711;14,58104
 257,82; 2740,524;  212,031;17818,426;14,36122
 258,42; 2733,689;  156,415;18720,590;13,88305
 259,02; 2845,003;  213,108;19585,306;13,58594
 259,62; 2848,424;  187,185;20283,193;13,24263
 260,21; 2875,510;  196,800;20811,251;12,99433
 260,81; 2826,806;  192,185;21379,753;12,43475
 261,41; 2799,750;  179,646;21814,664;12,11048
 262,01; 2811,677;  212,569;22356,130;11,73753
 262,60; 2740,304;  166,338;22637,173;11,45470
 263,20; 2732,950;  195,800;23055,648;11,09872
 263,80; 2659,863;  212,492;23123,820;10,68193
 264,40; 2606,854;  173,646;23365,215;10,49178
 264,99; 2572,373;  209,800;23636,262;10,08506
 265,59; 2517,384;  192,415;23828,529; 9,83651
 266,19; 2476,360;  191,185;24024,776; 9,58805
 266,78; 2467,218;  237,185;24085,499; 9,35091
 267,38; 2418,880;  203,877;24190,233; 9,23443
 267,98; 2363,135;  191,954;24143,256; 9,06498
 268,58; 2329,093;  206,954;24183,756; 8,85080
 269,17; 2276,994;  196,877;24133,851; 8,68997
 269,77; 2282,617;  199,954;23966,940; 8,76284
 270,37; 2209,329;  171,338;23855,106; 8,60501
 270,96; 2221,438;  221,723;23796,071; 8,48259
 271,56; 2162,284;  193,954;23480,276; 8,45273
 272,16; 2151,191;  182,262;23368,768; 8,49170
 272,75; 2133,578;  185,723;23244,494; 8,44735
 273,35; 2124,092;  201,262;23207,061; 8,35802
 273,95; 2122,691;  201,646;23273,296; 8,32643
 274,54; 2119,021;  182,569;23319,855; 8,36940
 275,14; 2184,615;  224,185;23690,387; 8,35427
 275,74; 2161,756;  163,954;23677,369; 8,49644
 276,33; 2251,744;  222,877;24100,569; 8,49691
 276,93; 2296,133;  209,877;24473,251; 8,59837
 277,53; 2361,475;  205,262;25015,911; 8,69068
 278,12; 2407,532;  172,262;25597,349; 8,79159
 278,72; 2557,437;  252,954;26084,768; 8,92110
 279,32; 2581,091;  208,569;26655,470; 8,97089
 279,91; 2679,441;  179,492;27296,689; 9,21905
 280,51; 2787,844;  197,108;27885,853; 9,35664
 281,11; 2908,654;  186,723;28515,442; 9,60838
 281,70; 2965,128;  169,262;28993,081; 9,69985
 282,30; 3133,592;  192,646;29674,353; 9,97549
 282,90; 3200,412;  185,800;30003,444;10,11016
 283,49; 3364,589;  197,877;30517,786;10,44433
 284,09; 3501,578;  227,262;30896,231;10,67632
 284,69; 3620,568;  239,185;31311,375;10,88234
 285,28; 3735,543;  214,108;31608,199;11,21687
 285,88; 3927,934;  273,338;31904,705;11,55371
 286,47; 3948,761;  186,492;31901,565;11,86271
 287,07; 4106,440;  227,646;31975,438;12,21752
 287,67; 4270,910;  216,646;32122,739;12,70686
 288,26; 4370,233;  194,108;32037,774;13,11446
 288,86; 4538,836;  188,569;32056,294;13,65101
 289,46; 4770,897;  202,108;32185,292;14,28497
 290,05; 4972,141;  177,185;32376,766;14,89136
 290,65; 5187,004;  188,031;32494,359;15,47367
 291,24; 5431,795;  199,954;32665,551;16,11503
 291,84; 5694,225;  207,185;32740,907;16,86570
 292,44; 5913,051;  195,415;33002,715;17,42794
 293,03; 6287,632;  282,723;32988,735;18,36026
 293,63; 6464,702;  204,415;33084,504;19,03975
 294,22; 6699,125;  217,338;33347,104;19,56484
 294,82; 6899,377;  192,954;33256,310;20,28355
 295,41; 7034,667;  177,646;33060,774;20,85270
 296,01; 7215,254;  222,108;33008,575;21,32937
 296,61; 7335,827;  226,569;32641,087;21,93233
 297,20; 7417,215;  200,262;32323,950;22,46614
 297,80; 7544,782;  211,492;32156,885;22,95570
 298,39; 7613,311;  187,415;31774,877;23,50900
 298,99; 7759,687;  228,338;31656,241;23,96389
 299,58; 7776,715;  217,108;31571,638;24,11010
 300,18; 7874,144;  219,492;31366,877;24,57558
 300,78; 7843,137;  197,723;30948,409;24,86258
 301,37; 7992,477;  222,031;30891,191;25,33635
 301,97; 8044,648;  212,415;30939,660;25,48954
 302,56; 8075,894;  193,723;30906,361;25,66426
 303,16; 8174,236;  181,800;30840,917;26,06871
 303,75; 8228,707;  196,646;30857,002;26,19689
 304,35; 8357,937;  195,185;31103,257;26,40977
 304,94; 8443,402;  194,262;31040,448;26,74282
 305,54; 8514,519;  213,492;31020,913;26,94489
 306,13; 8504,016;  177,492;31012,753;27,00325
 306,73; 8525,409;  173,031;30770,960;27,29720
 307,33; 8570,975;  213,262;30714,351;27,40136
 307,92; 8683,957;  218,800;30785,136;27,69438
 308,52; 8858,079;  177,031;31199,806;27,98282
 309,11; 8982,207;  194,108;31705,231;27,88888
 309,71; 9133,532;  179,108;31935,792;28,19697
 310,30; 9223,186;  182,415;32195,179;28,24114
 310,90; 9410,647;  241,338;32541,025;28,38823
 311,49; 9455,242;  207,877;32617,051;28,53317
 312,09; 9527,623;  166,954;32789,355;28,69399
 312,68; 9700,708;  274,492;33185,330;28,64168
 313,28; 9746,957;  176,031;33317,674;28,87885
 313,87; 9768,038;  166,108;33457,421;28,84215
 314,47; 9924,839;  190,877;33719,073;29,03217
 315,06; 9889,078;  167,492;33846,369;28,86553
 315,66; 9979,161;  184,108;33991,278;28,97330
 316,25; 9947,871;  156,338;34000,199;28,93149
 316,85; 9942,975;  164,185;34012,972;28,88963
 317,44;10043,142;  182,338;34187,697;28,99779
 318,04; 9993,122;  175,954;34156,383;28,89065
 318,63; 9977,726;  174,185;34237,622;28,78025
 319,22;10015,806;  187,646;34452,357;28,68304
 319,82;10072,875;  188,877;34418,304;28,87573
 320,41; 9997,039;  203,877;34371,699;28,66195
 321,01; 9944,721;  215,723;34386,656;28,47156
 321,60; 9982,706;  201,185;34477,630;28,53715
 322,20; 9906,404;  176,800;34382,000;28,44481
 322,79; 9933,780;  219,800;34501,800;28,33551
 323,39; 9883,795;  180,569;34565,974;28,21903
 323,98; 9836,211;  170,262;34508,529;28,14921
 324,58; 9819,857;  188,415;34408,391;28,14567
 325,17; 9725,865;  194,185;34190,879;28,03708
 325,76; 9675,985;  203,569;34036,681;27,99747
 326,36; 9552,233;  179,031;33626,517;28,02364
 326,95; 9480,247;  209,877;33357,126;27,96724
 327,55; 9293,899;  169,723;32972,948;27,81487
 328,14; 9158,897;  186,800;32580,644;27,69692
 328,74; 9016,090;  207,338;32167,636;27,56154
 329,33; 8868,334;  191,723;31731,391;27,51015
 329,92; 8667,654;  175,723;31253,788;27,32451
 330,52; 8461,062;  200,492;30573,956;27,19667
 331,11; 8334,407;  175,108;30177,215;27,19575
 331,71; 8108,826;  192,262;29557,766;26,95872
 332,30; 7979,556;  211,723;29149,371;26,84335
 332,89; 7926,006;  275,800;28628,725;26,98207
 333,49; 7654,794;  211,800;28086,942;26,70119
 334,08; 7492,582;  184,185;27697,286;26,56334
 334,68; 7345,455;  190,569;27293,964;26,39848
 335,27; 7225,274;  203,492;26952,612;26,25052
 335,86; 7151,099;  270,031;26641,446;26,09291
 336,46; 7004,413;  205,492;26461,399;25,89482
 337,05; 6919,774;  198,492;26265,353;25,78478
 337,65; 6857,925;  166,262;26054,626;25,84815
 338,24; 6816,338;  232,031;26069,851;25,48322
 338,83; 6739,084;  229,108;25957,438;25,30275
 339,43; 6673,779;  177,185;25897,909;25,25821
 340,02; 6618,407;  186,415;25866,857;25,04627
 340,61; 6597,377;  195,800;25836,938;24,96604
 341,21; 6577,321;  224,338;25858,636;24,78313
 341,80; 6533,795;  199,108;25826,808;24,71813
 342,40; 6504,884;  188,415;25890,158;24,57603
 342,99; 6498,852;  192,262;25947,187;24,48693
 343,58; 6502,718;  196,646;26189,622;24,26068
 344,18; 6483,064;  217,800;26373,073;23,95411
 344,77; 6490,765;  191,262;26529,948;23,91730
 345,36; 6518,324;  177,646;26879,818;23,74592
 345,96; 6671,967;  209,723;27219,638;23,92545
 346,55; 6633,703;  176,569;27427,300;23,69527
 347,14; 6670,680;  175,338;27772,144;23,53657
 347,74; 6695,613;  162,108;28192,844;23,30836
 348,33; 6847,735;  192,723;28854,944;23,21876
 348,92; 6974,625;  205,031;29402,688;23,18540
 349,52; 6967,330;  164,262;29849,887;22,91705
 350,11; 6990,112;  192,800;30115,958;22,71589
 350,70; 6993,659;  186,031;30103,798;22,75446
 351,29; 6898,047;  164,338;29828,098;22,70012
 351,89; 6898,121;  203,646;29840,031;22,58870
 352,48; 6817,247;  167,800;29908,351;22,35819
 353,07; 6784,019;  194,492;29796,583;22,26034
 353,67; 6738,672;  210,338;29796,109;22,06579
 354,26; 6638,766;  197,877;29465,729;22,00670
 354,85; 6575,232;  194,800;29381,496;21,86075
 355,45; 6459,739;  160,569;29187,341;21,70124
 356,04; 6433,673;  196,185;29179,958;21,52062
 356,63; 6367,539;  217,031;28979,836;21,38355
 357,22; 6273,456;  201,646;28835,197;21,20523
 357,82; 6197,709;  188,031;28527,954;21,20570
 358,41; 6147,299;  232,492;28522,847;20,90750
 359,00; 6024,019;  182,646;28267,802;20,79879
 359,60; 5993,868;  193,108;28241,266;20,68143
 360,19; 5939,438;  221,646;28045,826;20,54972
 360,78; 5859,600;  188,031;27864,379;20,49248
 361,37; 5782,327;  184,723;27730,181;20,32133
 361,97; 5794,116;  189,185;27624,442;20,42967
 362,56; 5647,683;  182,262;27299,264;20,15496
 363,15; 5660,828;  260,185;27001,114;20,19617
 363,74; 5506,806;  194,031;26660,845;20,07335
 364,34; 5417,129;  205,569;26339,415;19,94180
 364,93; 5292,243;  189,569;25935,873;19,81905
 365,52; 5165,561;  165,108;25588,830;19,66845
 366,11; 5133,182;  183,492;25238,079;19,75562
 366,71; 5041,191;  172,338;24896,203;19,69293
 367,30; 4938,921;  181,877;24575,417;19,50125
 367,89; 4891,265;  222,415;24348,725;19,35169
 368,48; 4803,185;  210,954;24090,525;19,23079
 369,07; 4685,812;  191,031;23657,413;19,15413
 369,67; 4635,498;  217,108;23383,363;19,07253
 370,26; 4567,575;  179,954;23103,863;19,13994
 370,85; 4518,552;  189,338;22920,245;19,04549
 371,44; 4473,524;  202,185;22611,778;19,06032
 372,03; 4361,753;  173,262;22418,770;18,82848
 372,63; 4282,214;  161,492;22051,743;18,82446
 373,22; 4249,946;  187,415;21824,363;18,77590
 373,81; 4173,158;  171,646;21614,122;18,66162
 374,40; 4123,059;  177,723;21310,691;18,66911
 374,99; 4077,630;  176,569;21122,573;18,62437
 375,59; 4024,406;  177,877;20765,855;18,68338
 376,18; 4038,248;  213,723;20688,377;18,67931
 376,77; 3986,554;  216,646;20538,952;18,55059
 377,36; 3986,756;  227,569;20427,029;18,61033
 377,95; 3936,800;  209,800;20167,268;18,67471
 378,55; 3884,721;  175,338;19976,041;18,73359
 379,14; 3880,517;  218,031;19901,675;18,60675
 379,73; 3832,101;  199,800;19853,332;18,48167
 380,32; 3873,048;  193,646;19873,181;18,69659
 380,91; 3818,205;  171,031;19667,575;18,70677
 381,50; 3805,103;  202,723;19730,834;18,44715
 382,10; 3767,894;  188,185;19588,104;18,45219
 382,69; 3757,413;  163,262;19536,843;18,55182
 383,28; 3801,570;  216,646;19485,519;18,60474
 383,87; 3777,014;  186,108;19354,118;18,73385
 384,46; 3744,096;  171,185;19303,219;18,67502
 385,05; 3771,171;  209,569;19336,249;18,62112
 385,64; 3820,874;  190,262;19253,926;19,04467
 386,24; 3776,487;  179,338;19260,693;18,85164
 386,83; 3835,011;  205,723;19307,347;18,99989
 387,42; 3864,868;  205,108;19437,221;19,02942
 388,01; 3937,542;  200,800;19692,501;19,17094
 388,60; 3969,110;  194,185;19935,642;19,12182
 389,19; 4036,285;  187,800;20071,470;19,35500
 389,78; 4100,911;  189,877;20300,531;19,44757
 390,37; 4240,699;  253,954;20795,837;19,40789
 390,96; 4260,194;  186,954;20851,213;19,71152
 391,56; 4276,065;  199,569;20980,634;19,61639
 392,15; 4359,466;  172,415;21348,835;19,77223
 392,74; 4378,741;  154,108;21537,383;19,75672
 393,33; 4499,341;  189,800;21800,272;19,94191
 393,92; 4598,370;  191,108;22148,280;20,07208
 394,51; 4654,663;  172,108;22328,946;20,23103
 395,10; 4759,283;  212,338;22592,145;20,31718
 395,69; 4805,998;  208,338;22659,440;20,47855
 396,28; 4814,986;  202,031;22780,161;20,43108
 396,87; 4901,207;  201,569;22794,544;20,80132
 397,46; 4966,779;  223,723;22963,056;20,85838
 398,06; 5002,329;  221,646;23203,119;20,80233
 398,65; 5026,100;  188,108;23227,508;20,99878
 399,24; 5136,610;  223,800;23470,283;21,13356
 399,83; 5160,091;  171,800;23419,733;21,45692
 400,42; 5241,810;  221,108;23563,588;21,50886
 401,01; 5273,413;  186,185;23697,214;21,63762
 401,60; 5330,736;  199,492;23692,232;21,84183
 402,19; 5373,347;  217,415;23599,757;22,05054
 402,78; 5415,547;  213,185;23670,337;22,17815
 403,37; 5386,742;  197,569;23485,360;22,28280
 403,96; 5438,489;  205,415;23392,403;22,56901
 404,55; 5450,536;  205,338;23298,760;22,71295
 405,14; 5413,594;  175,185;23194,704;22,75638
 405,73; 5490,731;  203,877;23072,266;23,11861
 406,32; 5467,035;  212,646;22959,260;23,09965
 406,91; 5473,405;  198,646;22680,458;23,46234
 407,50; 5457,414;  209,954;22530,604;23,50944
 408,09; 5483,235;  180,800;22248,987;24,02751
 408,68; 5476,261;  191,338;22130,582;24,08890
 409,27; 5468,992;  172,338;21935,551;24,33764
 409,86; 5475,823;  191,954;21860,399;24,38509
 410,45; 5532,034;  227,185;21774,441;24,61960
 411,04; 5529,208;  220,646;21640,738;24,78309
 411,63; 5502,856;  203,877;21399,610;25,00022
 412,22; 5469,814;  217,877;21270,990;24,94613
 412,81; 5488,565;  225,492;20933,498;25,41564
 413,40; 5446,008;  223,262;20594,959;25,63727
 413,99; 5456,972;  277,569;20389,882;25,75240
 414,58; 5320,385;  184,569;19983,338;25,94008
 415,17; 5307,524;  202,262;19843,761;25,99222
 415,76; 5298,153;  190,492;19646,204;26,25275
 416,35; 5287,369;  184,031;19356,030;26,61871
 416,94; 5374,753;  230,415;19554,581;26,62126
 417,53; 5464,200;  196,415;19687,836;27,02617
 418,12; 5483,767;  197,262;19787,445;26,98548
 418,71; 5660,593;  214,569;20191,765;27,26120
 419,30; 5720,650;  194,800;20276,876;27,51633
 419,89; 5816,188;  193,415;20467,311;27,73405
 420,48; 5914,945;  214,646;20775,844;27,72357
 421,07; 5991,687;  209,800;20800,062;28,08069
 421,66; 6029,018;  186,185;20766,724;28,39009
 422,25; 6075,253;  194,031;20757,681;28,60009
 422,84; 6148,587;  220,492;20748,871;28,87756
 423,43; 6062,704;  209,338;20404,088;28,98459
 424,02; 6066,831;  227,954;20179,384;29,26546
 424,60; 5976,408;  201,262;19787,501;29,48574
 425,19; 5982,357;  222,800;19548,224;29,80300
 425,78; 5942,219;  217,108;19501,989;29,68705
 426,37; 5965,795;  226,877;19304,849;30,08138
 426,96; 5973,907;  223,338;19247,266;30,22808
 427,55; 5934,257;  198,877;19035,553;30,44794
 428,14; 5869,628;  194,492;18860,636;30,40336
 428,73; 5907,711;  210,569;18686,169;30,83603
 429,32; 5927,231;  239,877;18637,883;30,91288
 429,91; 5976,219;  237,800;18703,205;31,07660
 430,50; 6012,169;  227,262;18496,159;31,66534
 431,08; 5946,101;  221,031;18415,557;31,46589
 431,67; 5963,800;  257,031;18284,691;31,65563
 432,26; 5974,188;  260,185;18077,559;32,06984
 432,85; 5898,509;  288,108;17763,604;32,10439
 433,44; 5800,960;  283,723;17385,023;32,26209
 434,03; 5758,799;  295,415;17082,008;32,54611
 434,62; 5648,939;  261,800;16701,952;32,76818
 435,21; 5594,568;  273,646;16469,644;32,85331
 435,79; 5580,454;  279,415;16336,814;33,01306
 436,38; 5584,461;  256,800;16279,858;33,24996
 436,97; 5530,634;  260,800;16185,273;33,09268
 437,56; 5494,578;  255,492;15964,310;33,35124
 438,15; 5539,292;  241,262;15853,253;33,93565
 438,74; 5541,414;  260,031;15926,346;33,71172
 439,33; 5623,561;  240,492;15886,494;34,40540
 439,91; 5593,972;  227,569;15945,350;34,14224
 440,50; 5726,285;  278,338;16038,265;34,56835
 441,09; 5726,246;  266,338;16137,216;34,40205
 441,68; 5717,519;  241,185;16097,048;34,53823
 442,27; 5779,507;  233,108;16117,378;34,91756
 442,86; 5743,258;  215,723;16092,763;34,81464
 443,44; 5870,758;  227,262;16162,261;35,41573
 444,03; 5940,654;  310,031;16223,997;35,38164
 444,62; 5848,568;  218,415;16069,566;35,51889
 445,21; 5834,345;  233,646;15914,696;35,71635
 445,80; 5843,432;  285,492;15782,390;35,86486
 446,39; 5827,402;  318,185;15504,817;36,27675
 446,97; 5719,106;  227,954;15352,756;36,30561
 447,56; 5678,813;  220,877;15120,833;36,63055
 448,15; 5604,446;  224,954;14991,139;36,43116
 448,74; 5542,395;  254,262;14672,104;36,67770
 449,33; 5508,057;  224,800;14587,031;36,78577
 449,91; 5435,263;  232,031;14400,616;36,72372
 450,50; 5354,401;  233,262;14179,487;36,72061
 451,09; 5383,838;  240,877;14091,361;37,13199
 451,68; 5367,647;  268,569;13991,513;37,15732
 452,26; 5349,912;  260,031;13882,268;37,36450
 452,85; 5265,746;  228,108;13837,578;37,01568
 453,44; 5290,489;  246,108;13788,136;37,24982
 454,03; 5308,660;  219,954;13776,037;37,53818
 454,61; 5316,941;  221,723;13755,146;37,64914
 455,20; 5450,839;  253,185;13940,687;37,97372
 455,79; 5427,889;  253,800;13927,663;37,83926
 456,38; 5478,006;  268,954;14007,442;37,91576
 456,97; 5490,792;  234,569;14070,310;37,99018
 457,55; 5512,357;  237,108;14089,802;38,08104
 458,14; 5540,531;  271,415;14042,968;38,26087
 458,73; 5524,732;  249,415;14008,120;38,34167
 459,31; 5574,333;  270,800;14014,715;38,58823
 459,90; 5605,521;  294,569;14131,760;38,38172
 460,49; 5711,468;  352,415;14244,717;38,57570
 461,08; 5674,433;  248,262;14325,004;38,54706
 461,66; 5714,245;  258,415;14367,019;38,67023
 462,25; 5761,751;  262,185;14422,905;38,83677
 462,84; 5770,423;  276,723;14494,938;38,63846
 463,43; 5760,017;  213,877;14407,032;39,07616
 464,01; 5788,475;  250,492;14470,259;38,94566
 464,60; 5843,139;  311,415;14402,292;39,25748
 465,19; 5671,724;  219,031;14172,423;39,07790
 465,77; 5681,758;  244,877;14117,024;39,19278
 466,36; 5682,795;  277,492;13996,694;39,39954
 466,95; 5565,966;  249,877;13737,152;39,41559
 467,53; 5475,770;  260,492;13416,862;39,64071
 468,12; 5403,754;  281,646;13175,399;39,72550
 468,71; 5280,424;  257,646;12915,296;39,68176
 469,29; 5169,558;  247,185;12695,642;39,54203
 469,88; 5080,560;  249,185;12500,496;39,43558
 470,47; 5149,626;  321,723;12548,915;39,48497
 471,06; 5096,954;  261,954;12534,273;39,39761
 471,64; 5142,749;  272,031;12691,803;39,21745
 472,23; 5118,216;  233,185;12681,781;39,24162
 472,81; 5167,614;  225,877;12749,243;39,46014
 473,40; 5273,364;  249,415;13004,846;39,38674
 473,99; 5421,304;  365,415;13160,323;39,51485
 474,57; 5357,805;  263,185;13250,487;39,22770
 475,16; 5449,447;  260,646;13372,506;39,57334
 475,75; 5533,601;  284,877;13477,287;39,78594
 476,33; 5564,399;  283,877;13553,813;39,79313
 476,92; 5587,836;  277,800;13603,829;39,84710
 477,51; 5646,378;  282,338;13671,153;40,06359
 478,09; 5664,722;  268,800;13702,109;40,16822
 478,68; 5658,740;  280,492;13595,350;40,39283
 479,27; 5672,228;  305,415;13701,522;40,06248
 479,85; 5646,267;  274,338;13703,038;40,00334
 480,44; 5727,725;  260,031;13868,131;40,17971
 481,02; 6179,252;  283,338;15608,402;38,47236
 481,61; 6981,790;  303,569;17388,639;39,08805
 482,20; 7552,912;  290,492;18436,789;40,02150
 482,78; 7825,076;  310,108;19187,657;39,80902
 483,37; 8053,948;  306,185;19643,013;40,06740
 483,95; 8235,242;  343,646;20013,353;40,12056
 484,54; 8261,877;  334,031;20144,321;40,01883
 485,13; 8246,490;  304,338;20034,163;40,25455
 485,71; 8172,087;  288,954;19790,230;40,42368
 486,30; 8033,815;  330,262;19542,570;40,09697
 486,88; 7934,999;  394,031;19107,604;40,29679
 487,47; 7630,338;  347,569;18360,869;40,42995
 488,05; 7309,497;  325,646;17495,548;40,67496
 488,64; 6781,775;  321,877;16059,475;41,04755
 489,23; 6079,647;  336,492;14183,165;41,47678
 489,81; 5203,387;  342,031;12316,831;40,59656
 490,40; 4921,611;  286,800;11823,952;40,17292
 490,98; 4794,999;  283,031;11561,827;40,00399
 491,57; 4735,380;  304,031;11500,035;39,57973
 492,15; 4693,785;  291,031;11427,977;39,53287
 492,74; 4692,168;  302,415;11319,477;39,84505
 493,32; 4642,337;  306,415;11206,867;39,77744
 493,91; 4598,039;  285,569;11161,517;39,65144
 494,50; 4585,874;  294,877;11123,602;39,62606
 495,08; 4538,596;  277,800;11050,719;39,55099
 495,67; 4563,510;  310,569;11013,507;39,73620
 496,25; 4475,951;  253,492;10847,096;39,85856
 496,84; 4467,395;  252,954;10870,055;39,69484
 497,42; 4443,916;  260,185;10808,134;39,66393
 498,01; 4445,492;  291,646;10786,547;39,57965
 498,59; 4363,137;  250,954;10711,606;39,31096
 499,18; 4384,736;  251,262;10642,047;39,78019
 499,76; 4379,226;  291,031;10534,406;39,91062
 500,35; 4288,981;  271,954;10382,539;39,73090
 500,93; 4241,588;  262,108;10380,776;39,32810
 501,52; 4243,170;  252,415;10274,065;39,82133
 502,10; 4235,621;  278,262;10250,171;39,68507
 502,69; 4134,582;  248,185;10120,749;39,36563
 503,27; 4089,356;  240,723; 9897,576;39,85390
 503,86; 4025,894;  270,954; 9860,824;39,15527
 504,44; 3975,742;  226,415; 9778,525;39,25130
 505,03; 3880,520;  226,492; 9540,802;39,23026
 505,61; 3857,620;  247,031; 9417,662;39,37121
 506,19; 3814,287;  265,877; 9241,075;39,53573
 506,78; 3712,409;  232,185; 9085,577;39,30950
 507,36; 3673,225;  248,415; 8926,057;39,46706
 507,95; 3566,778;  243,185; 8738,415;39,12305
 508,53; 3527,433;  244,185; 8704,375;38,80821
 509,12; 3473,871;  253,031; 8504,879;39,03174
 509,70; 3425,390;  264,954; 8391,822;38,88873
 510,29; 3371,386;  275,108; 8187,741;39,13082
 510,87; 3254,800;  243,185; 8085,205;38,40356
 511,46; 3191,120;  227,492; 7883,685;38,70890
 512,04; 3148,563;  236,877; 7748,083;38,76456
 512,62; 3085,387;  242,569; 7648,102;38,38775
 513,21; 2992,252;  234,185; 7429,407;38,33193
 513,79; 2953,278;  243,415; 7325,385;38,26425
 514,38; 2890,827;  219,646; 7153,170;38,52558
 514,96; 2883,573;  275,185; 7072,624;38,37311
 515,54; 2783,200;  218,800; 6956,391;38,06109
 516,13; 2763,327;  261,800; 6858,308;37,92199
 516,71; 2715,751;  240,338; 6759,824;37,96944
 517,30; 2661,716;  218,646; 6655,856;37,95231
 517,88; 2629,483;  247,415; 6549,899;37,79570
 518,46; 2572,859;  231,569; 6445,769;37,67645
 519,05; 2523,075;  234,185; 6391,915;37,17100
 519,63; 2527,795;  244,877; 6323,787;37,55473
 520,22; 2506,871;  258,569; 6288,022;37,28865
 520,80; 2464,346;  242,031; 6198,368;37,31010
 521,38; 2475,388;  299,954; 6200,291;36,86965
 521,97; 2434,177;  231,185; 6142,052;37,27020
 522,55; 2450,304;  240,338; 6160,067;37,33222
 523,13; 2441,266;  232,415; 6158,127;37,27570
 523,72; 2392,318;  235,646; 6114,658;36,68426
 524,30; 2480,881;  270,800; 6244,255;36,99837
 524,89; 2399,345;  221,723; 6275,014;35,97418
 525,47; 2483,320;  244,723; 6379,471;36,49044
 526,05; 2467,147;  224,800; 6445,512;36,04648
 526,64; 2517,506;  263,569; 6579,212;35,68816
 527,22; 2579,814;  254,569; 6699,623;36,07798
 527,80; 2638,785;  288,031; 6847,730;35,83630
 528,39; 2623,226;  240,569; 6929,961;35,61843
 528,97; 2708,248;  241,800; 7088,668;36,02301
 529,55; 2741,437;  260,646; 7287,682;35,30352
 530,14; 2834,386;  269,800; 7408,121;35,92702
 530,72; 2841,822;  233,877; 7543,700;35,67726
 531,30; 2881,170;  218,569; 7703,083;35,57480
 531,89; 2933,306;  248,723; 7794,836;35,57570
 532,47; 2992,132;  280,800; 7893,471;35,61604
 533,05; 3008,057;  273,569; 7934,621;35,69337
 533,63; 2992,140;  267,185; 7979,036;35,33465
 534,22; 3013,705;  247,185; 7972,022;35,81332
 534,80; 3025,481;  276,569; 8099,771;35,13793
 535,38; 3133,056;  380,723; 8203,953;35,18155
 535,97; 3020,493;  253,031; 8173,981;34,93851
 536,55; 3055,965;  307,338; 8254,394;34,58673
 537,13; 3048,294;  304,723; 8215,447;34,68167
 537,71; 3066,126;  353,723; 8254,101;34,33258
 538,30; 3096,079;  361,031; 8350,242;34,23427
 538,88; 3154,286;  396,877; 8478,329;34,12022
 539,46; 3223,916;  455,800; 8667,939;33,70761
 540,05; 3275,324;  468,262; 8820,864;33,60704
 540,63; 3358,386;  498,415; 8990,574;33,67778
 541,21; 3407,376;  525,569; 9193,347;33,24736
 541,79; 3450,436;  560,415; 9311,562;33,02447
 542,38; 3523,617;  597,954; 9445,133;33,06888
 542,96; 3594,683;  593,185; 9619,609;33,25235
 543,54; 3640,525;  615,723; 9836,509;32,80416
 544,12; 3644,204;  598,646; 9928,388;32,64354
 544,70; 3682,866;  568,262;10039,321;32,88549
 545,29; 3712,662;  589,338;10246,750;32,34120
 545,87; 3709,974;  577,262;10184,716;32,60710
 546,45; 3664,538;  524,569;10217,022;32,39602
 547,03; 3718,029;  518,954;10300,497;32,70522
 547,62; 3686,808;  477,877;10439,230;32,21380
 548,20; 3755,985;  481,185;10550,924;32,52120
 548,78; 3737,042;  438,262;10661,424;32,26771
 549,36; 3777,179;  407,338;10878,890;32,18091
 549,94; 3795,605;  376,569;10967,230;32,28350
 550,53; 3823,456;  380,954;11243,548;31,69135
 551,11; 3830,528;  341,031;11426,754;31,47740
 551,69; 3942,878;  357,954;11750,056;31,46850
 552,27; 3951,361;  306,031;11965,538;31,26487
 552,85; 4053,185;  328,108;12399,722;30,85815
 553,44; 4155,987;  316,569;12632,746;31,17378
 554,02; 4256,480;  329,108;12991,011;31,01723
 554,60; 4278,995;  274,262;13303,900;30,73557
 555,18; 4422,008;  312,877;13660,566;30,78533
 555,76; 4500,873;  300,492;14025,058;30,60484
 556,34; 4617,556;  305,262;14440,574;30,50724
 556,93; 4665,096;  291,415;14817,570;30,10901
 557,51; 4779,609;  264,723;15124,930;30,38239
 558,09; 4877,685;  296,954;15550,738;30,03013
 558,67; 4990,617;  285,954;15980,181;29,97703
 559,25; 5073,542;  301,954;16151,376;30,10576
 559,83; 5108,245;  280,800;16481,564;29,79764
 560,41; 5191,084;  268,723;16862,821;29,66332
 561,00; 5280,327;  278,108;17133,505;29,67726
 561,58; 5335,226;  284,492;17395,894;29,51677
 562,16; 5393,170;  267,569;17779,125;29,26982
 562,74; 5512,737;  247,954;18061,689;29,55463
 563,32; 5550,132;  237,262;18555,839;29,00264
 563,90; 5674,626;  277,185;18895,612;28,98978
 564,48; 5784,919;  270,415;19333,837;28,92715
 565,06; 5922,928;  268,262;19947,851;28,73366
 565,65; 6103,591;  274,262;20622,618;28,64767
 566,23; 6276,123;  327,800;21339,029;28,31021
 566,81; 6439,815;  268,262;22097,728;28,27166
 567,39; 6680,844;  277,646;22907,408;28,29547
 567,97; 6862,728;  298,723;23588,507;28,18405
 568,55; 7077,369;  324,262;24428,159;28,01666
 569,13; 7195,407;  278,492;25136,232;27,82600
 569,71; 7461,519;  264,646;26086,631;27,87111
 570,29; 7740,975;  317,877;27122,260;27,69360
 570,87; 7936,819;  312,262;27695,989;27,84339
 571,45; 8023,162;  296,954;28347,347;27,54403
 572,03; 8117,263;  264,877;28732,112;27,58394
 572,61; 8304,402;  237,492;29528,849;27,54024
 573,20; 8506,756;  283,954;30153,456;27,52909
 573,78; 8588,757;  271,031;30820,809;27,22680
 574,36; 8716,507;  277,185;31253,624;27,24432
 574,94; 8909,220;  353,723;31533,971;27,43884
 575,52; 8811,820;  263,800;31827,474;27,08183
 576,10; 8943,337;  331,646;32450,122;26,81227
 576,68; 9088,236;  317,262;33028,049;26,81371
 577,26; 9256,568;  336,723;33736,551;26,70626
 577,84; 9374,698;  322,800;34142,922;26,76483
 578,42; 9441,807;  393,185;34469,867;26,55371
 579,00; 9359,688;  319,031;34548,932;26,41158
 579,58; 9411,803;  374,877;34727,896;26,30606
 580,16; 9387,200;  318,723;34758,278;26,33157
 580,74; 9395,016;  327,338;34964,545;26,17901
 581,32; 9411,613;  325,185;35108,920;26,12263
 581,90; 9325,002;  350,185;35079,815;25,84196
 582,48; 9279,208;  331,415;35241,094;25,63127
 583,06; 9303,865;  334,800;35258,837;25,68164
 583,64; 9301,741;  313,569;35402,877;25,61513
 584,22; 9200,821;  350,877;35244,258;25,36282
 584,80; 9126,091;  335,569;34992,377;25,36449
 585,38; 8995,861;  363,954;34555,309;25,24588
 585,96; 8906,312;  313,415;34740,574;24,95964
 586,54; 8875,462;  346,108;34710,153;24,82058
 587,12; 8830,656;  313,185;34850,896;24,66137
 587,70; 8899,589;  351,723;35114,610;24,58906
 588,28; 8818,160;  320,569;35095,402;24,43604
 588,86; 8851,025;  316,415;35225,047;24,44842
 589,44; 8803,003;  311,031;35307,462;24,26525
 590,02; 8791,185;  316,877;35498,642;24,08722
 590,59; 8765,802;  290,031;35700,997;23,93544
 591,17; 8796,365;  299,569;35892,185;23,87236
 591,75; 8756,263;  283,646;35999,092;23,72256
 592,33; 8799,564;  306,338;36339,778;23,57040
 592,91; 8751,796;  250,723;36533,304;23,43018
 593,49; 8795,284;  275,492;36828,725;23,30790
 594,07; 8821,009;  287,800;37042,569;23,21660
 594,65; 8796,304;  307,108;37044,483;23,10779
 595,23; 8815,047;  299,415;37404,855;22,94982
 595,81; 8824,761;  268,185;37547,997;22,95230
 596,39; 8817,713;  262,723;37683,478;22,86162
 596,97; 8780,548;  268,800;37855,211;22,64581
 597,55; 8746,095;  281,031;37711,778;22,61527
 598,12; 8668,152;  260,646;37800,790;22,39604
 598,70; 8675,088;  262,185;38006,764;22,28904
 599,28; 8647,807;  281,569;38069,134;22,14019
 599,86; 8599,461;  263,800;38174,991;21,98734
 600,44; 8531,518;  227,492;38262,318;21,83269
 601,02; 8554,702;  290,569;38274,454;21,75694
 601,60; 8489,692;  274,569;38211,478;21,65470
 602,18; 8456,584;  237,108;38197,924;21,65253
 602,75; 8397,560;  244,415;38376,806;21,38115
 603,33; 8389,363;  259,108;38291,535;21,37717
 603,91; 8365,439;  232,031;38330,559;21,34835
 604,49; 8352,135;  273,492;38431,723;21,17143
 605,07; 8302,767;  269,338;38389,059;21,07420
 605,65; 8279,319;  277,108;38516,296;20,92673
 606,23; 8272,300;  308,877;38688,742;20,74896
 606,80; 8269,696;  339,569;38775,483;20,63208
 607,38; 8293,260;  352,800;38761,132;20,67379
 607,96; 8232,652;  390,338;38960,250;20,33272
 608,54; 8253,148;  440,954;38955,049;20,28399
 609,12; 8228,877;  432,338;39056,084;20,18587
 609,70; 8203,160;  458,108;39105,464;20,04031
 610,27; 8132,878;  444,954;39194,796;19,83988
 610,85; 8195,456;  479,877;39233,460;19,90933
 611,43; 8070,079;  457,492;39176,948;19,66088
 612,01; 8013,590;  413,108;38928,974;19,73338
 612,59; 7968,305;  448,031;38959,187;19,52752
 613,16; 7933,454;  412,800;38847,966;19,56712
 613,74; 7827,466;  382,954;38764,905;19,39587
 614,32; 7758,372;  379,954;38724,268;19,24254
 614,90; 7683,058;  359,262;38549,519;19,17713
 615,48; 7561,950;  313,031;38134,209;19,16630
 616,05; 7437,798;  297,723;38243,788;18,81638
 616,63; 7415,877;  316,262;37956,906;18,86157
 617,21; 7351,330;  304,569;37898,211;18,74456
 617,79; 7302,748;  296,338;37770,203;18,69679
 618,36; 7218,133;  301,646;37711,889;18,48822
 618,94; 7089,870;  247,185;37384,847;18,42519
 619,52; 7023,755;  273,569;37017,883;18,37070
 620,10; 6946,844;  255,646;37089,547;18,16587
 620,67; 6916,058;  265,877;36973,199;18,11677
 621,25; 6848,145;  294,569;36797,816;17,95340
 621,83; 6787,109;  263,954;36743,509;17,88168
 622,41; 6787,790;  313,723;36802,043;17,74285
 622,98; 6707,372;  275,492;36487,673;17,76165
 623,56; 6618,476;  289,800;36488,987;17,48292
 624,14; 6584,980;  264,262;36356,652;17,51261
 624,72; 6528,843;  273,646;36237,323;17,39310
 625,29; 6517,580;  261,185;36403,126;17,31062
 625,87; 6496,381;  296,800;36321,989;17,20902
 626,45; 6413,673;  237,492;36112,744;17,21571
 627,02; 6338,573;  263,415;36082,363;16,96074
 627,60; 6308,243;  236,262;36020,701;16,96822
 628,18; 6267,954;  218,031;36171,391;16,82714
 628,76; 6243,034;  220,646;36192,786;16,74181
 629,33; 6242,866;  263,108;36113,721;16,67965
 629,91; 6187,921;  243,646;36022,547;16,61391
 630,49; 6198,754;  267,492;36232,402;16,49180
 631,06; 6187,936;  248,877;36390,638;16,43268
 631,64; 6124,335;  254,569;36324,626;16,27324
 632,22; 6042,160;  219,492;36382,197;16,10131
 632,79; 6089,340;  248,415;36485,337;16,11871
 633,37; 6050,027;  219,108;36621,177;16,01810
 633,95; 6061,072;  256,338;36675,495;15,93868
 634,52; 6044,184;  225,492;36730,705;15,93934
 635,10; 5999,069;  235,185;36741,786;15,78861
 635,68; 5967,246;  237,954;36947,244;15,60720
 636,25; 5944,377;  215,492;36915,262;15,61014
 636,83; 5917,188;  218,185;37121,017;15,44327
 637,41; 5907,365;  252,569;37206,001;15,30249
 637,98; 5909,952;  260,723;37369,365;15,22348
 638,56; 5928,136;  241,723;37423,894;15,29339
 639,13; 5852,061;  220,877;37536,408;15,09073
 639,71; 5937,211;  300,646;37616,102;15,10517
 640,29; 5785,678;  193,569;37483,827;14,99617
 640,86; 5808,345;  206,492;37608,175;14,97754
 641,44; 5760,320;  219,031;37643,369;14,80664
 642,02; 5738,217;  246,185;37552,947;14,72128
 642,59; 5736,346;  226,338;37784,833;14,67047
 643,17; 5673,243;  221,877;37738,797;14,53042
 643,74; 5698,833;  212,646;37719,375;14,62721
 644,32; 5646,961;  249,492;37727,185;14,40182
 644,89; 5599,936;  258,877;37749,917;14,24623
 645,47; 5580,064;  252,723;37742,649;14,21006
 646,05; 5592,116;  249,108;37635,997;14,29113
 646,62; 5536,167;  230,185;37705,499;14,15861
 647,20; 5557,526;  240,262;37790,001;14,16059
 647,77; 5483,193;  195,569;37644,271;14,11964
 648,35; 5438,475;  203,262;37527,465;14,02632
 648,92; 5411,834;  220,877;37684,429;13,85602
 649,50; 5394,809;  188,954;37519,623;13,94525
 650,08; 5304,552;  195,646;37436,201;13,71866
 650,65; 5340,142;  197,954;37720,164;13,70439
 651,23; 5389,271;  179,800;38578,204;13,56689
 651,80; 5493,399;  188,262;39453,014;13,51120
 652,38; 5528,912;  209,723;39722,439;13,46197
 652,95; 5540,963;  180,415;40098,709;13,42880
 653,53; 5572,784;  211,877;40364,211;13,35142
 654,10; 5617,066;  243,108;40538,482;13,33642
 654,68; 5540,348;  201,646;40444,676;13,26615
 655,25; 5489,861;  191,492;40461,716;13,15704
 655,83; 5470,220;  191,262;40508,141;13,09367
 656,40; 5511,349;  231,492;40445,104;13,12953
 656,98; 5453,708;  194,800;40318,683;13,10668
 657,55; 5369,221;  206,646;40238,184;12,89627
 658,13; 5330,426;  202,954;39854,147;12,93144
 658,70; 5298,708;  217,108;39571,803;12,91231
 659,28; 5132,144;  200,800;38705,305;12,80719
 659,85; 5023,580;  232,415;37995,652;12,68738
 660,43; 5018,478;  226,877;38124,539;12,64353
 661,00; 4980,068;  193,492;38183,887;12,59944
 661,58; 4995,196;  196,877;38596,927;12,49561
 662,15; 4960,094;  188,877;38731,659;12,37901
 662,73; 5030,760;  276,800;39005,930;12,27490
 663,30; 5005,812;  205,031;39203,816;12,31008
 663,88; 4982,171;  206,338;39421,702;12,17847
 664,45; 4973,684;  188,877;39620,666;12,13439
 665,03; 5009,966;  205,723;39985,937;12,07697
 665,60; 5140,633;  310,723;40520,746;12,01171
 666,17; 5046,069;  197,415;40428,017;12,05215
 666,75; 5036,274;  202,108;40843,288;11,89475
 667,32; 5126,479;  227,646;41217,482;11,95134
 667,90; 5107,300;  203,723;41383,445;11,90775
 668,47; 5115,582;  209,338;41710,177;11,82204
 669,05; 5118,249;  195,646;41959,987;11,78662
 669,62; 5117,608;  187,877;42068,334;11,77096
 670,19; 5100,198;  170,569;42169,990;11,73737
 670,77; 5110,173;  195,415;42304,492;11,67149
 671,34; 5065,378;  186,569;42208,070;11,61027
 671,92; 5087,045;  174,569;42635,572;11,56938
 672,49; 5080,558;  210,185;42667,920;11,47111
 673,06; 5068,917;  160,800;42635,114;11,55549
 673,64; 5049,430;  175,723;42700,461;11,46087
 674,21; 5055,789;  175,800;42609,886;11,50016
 674,79; 5062,148;  209,338;42890,311;11,36996
 675,36; 5070,969;  205,877;42975,966;11,37499
 675,93; 5044,174;  175,031;42917,237;11,39188
 676,51; 5053,994;  199,108;43025,124;11,33630
 677,08; 5057,661;  187,415;43040,702;11,36493
 677,65; 5030,482;  206,646;43272,204;11,20115
 678,23; 5028,072;  187,569;43462,936;11,18535
 678,80; 5010,815;  179,569;43560,438;11,13681
 679,38; 5017,405;  191,262;43675,940;11,09849
 679,95; 5032,995;  196,723;43972,518;11,04782
 680,52; 5049,047;  204,415;44151,789;11,02371
 681,10; 5100,867;  207,954;44679,675;11,00230
 681,67; 5062,303;  202,262;44925,254;10,86699
 682,24; 5060,278;  170,569;44956,371;10,91799
 682,82; 5096,791;  188,723;45528,796;10,82501
 683,39; 5199,534;  247,569;45801,605;10,87053
 683,96; 5137,432;  187,415;46075,414;10,78717
 684,54; 5155,330;  166,262;46441,070;10,78139
 685,11; 5223,535;  241,492;46745,956;10,71304
 685,68; 5216,586;  193,877;47180,458;10,68967
 686,25; 5179,176;  171,415;47207,498;10,64664
 686,83; 5233,920;  181,569;47329,000;10,71607
 687,40; 5255,971;  173,569;47665,886;10,70152
 687,97; 5340,484;  226,262;48162,003;10,66891
 688,55; 5243,843;  170,877;48141,505;10,57515
 689,12; 5262,433;  147,569;48464,929;10,58598
 689,69; 5282,408;  157,031;48479,431;10,60663
 690,26; 5302,844;  172,646;48570,240;10,60011
 690,84; 5299,741;  189,646;48818,896;10,50827
 691,41; 5306,716;  203,954;48830,320;10,49382
 691,98; 5331,152;  199,954;49118,591;10,48925
 692,56; 5290,896;  192,646;49195,785;10,40392
 693,13; 5368,716;  225,415;49234,749;10,49453
 693,70; 5316,922;  197,877;49411,558;10,40167
 694,27; 5308,050;  179,492;49584,367;10,38067
 694,84; 5328,332;  171,954;49660,792;10,41928
 695,42; 5359,691;  233,338;49738,524;10,35518
 695,99; 5364,281;  179,569;50041,565;10,39812
 696,56; 5341,486;  198,031;49822,989;10,36465
 697,13; 5387,230;  209,031;50241,106;10,34976
 697,71; 5347,820;  191,108;50276,993;10,29574
 698,28; 5384,410;  185,954;50717,956;10,28745
 698,85; 5337,153;  158,800;50624,227;10,26119
 699,42; 5370,666;  155,415;50795,728;10,29862
 699,99; 5407,410;  196,723;50976,999;10,26124
 700,57; 5404,462;  185,415;50926,347;10,28567
 701,14; 5406,821;  169,569;51028,464;10,29761
 701,71; 5439,718;  204,108;51214,043;10,26390
 702,28; 5415,847;  173,954;51274,390;10,25802
 702,85; 5413,590;  172,800;51489,815;10,21258
 703,43; 5457,796;  187,569;51675,163;10,23592
 704,00; 5465,155;  204,877;51821,280;10,19110
 704,57; 5443,052;  176,954;51809,012;10,19928
 705,14; 5509,950;  198,954;52136,437;10,22575
 705,71; 5465,924;  206,646;52095,785;10,13561
 706,28; 5441,283;  172,800;52033,056;10,15900
 706,86; 5489,643;  202,954;52219,096;10,16355
 707,43; 5548,155;  228,646;52161,136;10,24312
 708,00; 5502,130;  204,646;52207,869;10,18684
 708,57; 5396,104;  166,800;52063,293;10,07641
 709,14; 5460,617;  196,185;52260,256;10,11145
 709,71; 5432,900;  189,492;52303,527;10,06141
 710,28; 5490,182;  192,877;52506,952;10,12596
 710,86; 5478,079;  184,031;52649,685;10,09050
 711,43; 5545,131;  208,954;52711,955;10,16357
 712,00; 5520,413;  181,646;52665,534;10,17220
 712,57; 5572,311;  207,954;52900,113;10,18056
 713,14; 5561,439;  194,877;52861,153;10,18975
 713,71; 5528,029;  206,108;52892,808;10,10107
 714,28; 5522,542;  194,723;52935,079;10,10198
 714,85; 5541,670;  185,877;52642,965;10,20986
 715,42; 5538,183;  183,338;52961,775;10,14589
 716,00; 5599,542;  283,569;53003,353;10,08345
 716,57; 5570,209;  199,031;53124,316;10,14860
 717,14; 5550,876;  198,262;53061,972;10,12531
 717,71; 5547,312;  184,262;53154,935;10,12456
 718,28; 5606,748;  238,338;53179,821;10,14027
 718,85; 5536,722;  175,646;53209,631;10,10876
 719,42; 5611,312;  200,262;53375,440;10,17590
 719,99; 5600,056;  177,800;53217,326;10,22305
 720,56; 5654,877;  214,262;53485,367;10,21307
 721,13; 5632,236;  177,338;53548,253;10,22073
 721,70; 5580,902;  175,338;53383,601;10,15926
 722,27; 5620,031;  204,338;53449,179;10,17130
 722,84; 5724,159;  278,492;53625,296;10,20805
 723,41; 5651,595;  175,800;53601,952;10,24928
 723,98; 5661,185;  185,108;53809,223;10,21197
 724,55; 5731,083;  231,031;53838,109;10,25994
 725,12; 5634,365;  148,492;53899,611;10,20606
 725,69; 5701,878;  182,338;53996,343;10,25670
 726,27; 5711,391;  198,723;54020,691;10,24241
 726,84; 5811,134;  193,031;54352,962;10,37317
 727,41; 5838,263;  219,262;54325,310;10,38516
 727,98; 5850,237;  209,031;54627,042;10,36643
 728,55; 5905,750;  226,954;54566,774;10,45052
 729,12; 5850,263;  194,338;54591,199;10,39752
 729,69; 5875,853;  222,415;54819,855;10,35477
 730,26; 5910,981;  196,800;54991,972;10,42826
 730,82; 5855,494;  196,185;54801,858;10,36396
 731,39; 5906,084;  193,646;54894,283;10,44309
 731,96; 5937,982;  177,185;55116,169;10,48581
 732,53; 5945,802;  205,108;55468,824;10,38782
 733,10; 6021,777;  205,954;55492,711;10,51938
 733,67; 6046,136;  202,415;55699,751;10,52973
 734,24; 5965,495;  172,108;55432,099;10,48387
 734,81; 6050,623;  220,185;55555,754;10,53651
 735,38; 6003,752;  200,492;55315,256;10,52941
 735,95; 5974,572;  186,108;55056,219;10,54939
 736,52; 6002,624;  194,723;55354,336;10,52926
 737,09; 6038,752;  204,338;54997,838;10,64800
 737,66; 6115,111;  252,338;55233,109;10,66332
 738,23; 6079,855;  177,646;55200,072;10,72692
 738,80; 6183,368;  271,492;55528,573;10,69886
 739,37; 6146,342;  228,492;55690,383;10,67012
 739,94; 6172,163;  193,031;55706,423;10,77061
 740,51; 6287,907;  347,646;55704,078;10,73093
 741,07; 6188,497;  203,877;55709,349;10,78204
 741,64; 6229,163;  232,262;55927,697;10,76731
 742,21; 6235,907;  201,185;55903,353;10,83391
 742,78; 6224,959;  165,954;55704,931;10,90946
 743,35; 6250,087;  190,877;56020,510;10,85304
 743,92; 6338,061;  227,031;56187,781;10,92021
 744,49; 6366,113;  232,954;56069,821;10,98407
 745,06; 6337,780;  198,108;56056,707;10,99145
 745,63; 6301,831;  175,031;56037,055;10,96774
 746,19; 6376,806;  187,646;56016,326;11,08599
 746,76; 6376,242;  194,646;56017,520;11,07359
 747,33; 6401,755;  189,723;56044,021;11,12185
 747,90; 6454,575;  212,646;56258,908;11,13710
 748,47; 6410,704;  196,262;56098,563;11,11661
 749,04; 6443,986;  212,031;56140,065;11,14281
 749,61; 6569,345;  237,338;56087,874;11,33741
 750,17; 6523,089;  220,338;56126,453;11,27381
 750,74; 6542,755;  208,877;56050,339;11,34261
 751,31; 6515,884;  176,031;56038,379;11,34906
 751,88; 6508,704;  176,723;55875,804;11,36820
 752,45; 6562,294;  199,954;55955,306;11,41117
 753,02; 6588,576;  217,031;55796,423;11,46386
 753,58; 6558,243;  182,723;55712,924;11,48118
 754,15; 6594,833;  197,338;55850,580;11,49528
 754,72; 6596,808;  187,338;55587,620;11,56938
 755,29; 6574,090;  180,031;55477,429;11,56304
 755,86; 6652,757;  197,646;55599,392;11,65146
 756,42; 6657,270;  222,262;55484,202;11,64456
 756,99; 6638,936;  175,569;55437,396;11,69590
 757,56; 6600,603;  191,185;55457,897;11,59725
 758,13; 6610,270;  151,185;55448,784;11,68059
 758,70; 6710,783;  198,338;55384,285;11,80091
 759,26; 6743,988;  188,800;55497,633;11,85197
 759,83; 6760,270;  212,954;55651,904;11,80996
 760,40; 6754,014;  189,723;55360,559;11,89812
 760,97; 6767,219;  179,108;55437,446;11,92238
 761,53; 6777,501;  178,262;54953,794;12,04779
 762,10; 6764,861;  163,108;55044,218;12,02919
 762,67; 6831,604;  200,492;55154,181;12,06673
 763,24; 6822,348;  155,262;54675,760;12,22859
 763,80; 6829,553;  194,492;54842,877;12,14137
 764,37; 6772,836;  184,031;54755,379;12,07374
 764,94; 6780,810;  154,723;54295,573;12,23861
 765,50; 6799,554;  174,492;54383,382;12,22136
 766,07; 6889,528;  208,723;54367,653;12,33556
 766,64; 6828,118;  176,723;54001,770;12,35743
 767,21; 6842,785;  171,800;53891,656;12,41810
 767,77; 6872,913;  197,108;53840,927;12,44469
 768,34; 6908,734;  194,262;53776,737;12,53110
 768,91; 6883,170;  202,877;53575,084;12,51643
 769,47; 6937,606;  203,338;53579,817;12,61655
 770,04; 6933,427;  197,185;53440,011;12,65192
 770,61; 6895,555;  179,338;53255,435;12,65394
 771,18; 6950,606;  173,338;53085,091;12,80862
 771,74; 6990,196;  182,338;53323,285;12,81095
 772,31; 6972,248;  194,338;53058,940;12,82126
 772,88; 6956,299;  171,031;52707,750;12,91529
 773,44; 6971,735;  173,338;52618,482;12,96287
 774,01; 7009,325;  208,492;52727,599;12,94925
 774,58; 6972,992;  170,108;52399,947;13,02490
 775,14; 6979,812;  174,262;52576,064;12,98725
 775,71; 7028,018;  171,108;52494,797;13,10479
 776,27; 7114,377;  242,723;52398,067;13,17536
 776,84; 7178,044;  297,338;52499,492;13,18088
 777,41; 7083,172;  195,262;52180,071;13,24985
 777,97; 7060,762;  178,262;51969,342;13,28897
 778,54; 7102,429;  199,262;51924,766;13,34577
 779,11; 7147,095;  234,262;51930,191;13,37210
 779,67; 7141,531;  187,723;51953,308;13,43327
 780,24; 7145,275;  202,338;51668,887;13,49019
 780,80; 7136,557;  211,492;51699,773;13,44979
 781,37; 7182,840;  207,492;51610,659;13,56988
 781,94; 7162,122;  197,569;51420,238;13,59662
 782,50; 7156,788;  197,800;51404,739;13,58993
 783,07; 7256,994;  227,954;51467,472;13,71801
 783,63; 7206,122;  190,262;51216,358;13,74955
 784,20; 7262,712;  232,338;51172,475;13,80125
 784,77; 7222,994;  190,800;50910,054;13,86494
 785,33; 7209,430;  168,723;50735,940;13,92346
 785,90; 7270,251;  190,954;50656,749;14,02791
 786,46; 7236,764;  220,569;50620,020;13,92117
 787,03; 7276,431;  197,338;50350,599;14,11492
 787,59; 7289,559;  199,031;50371,947;14,13218
 788,16; 7298,533;  218,877;50292,141;14,13860
 788,73; 7303,893;  214,415;50144,565;14,19879
 789,29; 7293,867;  198,569;49801,529;14,30418
 789,86; 7347,149;  230,108;49716,876;14,38171
 790,42; 7296,431;  202,723;49448,378;14,40474
 790,99; 7295,714;  224,185;49178,649;14,44512
 791,55; 7301,457;  199,108;49200,535;14,49417
 792,12; 7360,509;  235,723;49231,883;14,54152
 792,68; 7327,406;  213,800;48849,846;14,62620
 793,25; 7359,458;  216,262;48615,886;14,75878
 793,81; 7381,509;  310,492;48344,542;14,72084
 794,38; 7264,945;  187,185;48147,736;14,75746
 794,94; 7304,381;  199,800;47935,007;14,88331
 795,51; 7283,740;  220,108;47653,431;14,89171
 796,07; 7268,715;  217,415;47466,087;14,92380
 796,64; 7324,382;  234,185;47469,204;15,01047
 797,20; 7298,971;  216,185;47105,552;15,10532
 797,77; 7235,869;  184,108;46680,823;15,16615
 798,33; 7273,382;  219,646;46547,632;15,22565
 798,90; 7294,895;  241,569;46521,903;15,24044
 799,46; 7251,100;  203,800;45897,789;15,42282
 800,03; 7227,152;  213,723;45879,368;15,35822
 800,59; 7223,972;  234,262;45703,177;15,37250
 801,15; 7256,947;  243,954;45521,910;15,48876
 801,72; 7202,152;  221,646;45155,334;15,53513
 802,28; 7182,050;  241,646;44877,221;15,54904
 802,85; 7145,255;  219,646;44621,338;15,59762
 803,41; 7126,922;  222,492;44556,762;15,57357
 803,98; 7122,512;  212,492;44047,418;15,76373
 804,54; 7127,255;  221,415;43920,766;15,80307
 805,11; 7076,153;  224,954;43638,113;15,78139
 805,67; 7172,358;  243,415;43593,461;15,98370
 806,23; 7077,871;  224,415;43168,732;15,95894
 806,80; 7106,769;  246,877;43040,695;16,03010
 807,36; 7111,589;  241,800;43046,812;16,04903
 807,93; 7171,410;  261,877;42722,237;16,27290
 808,49; 7122,384;  208,492;42402,585;16,38592
 809,05; 7054,513;  209,723;42154,087;16,31874
 809,62; 7119,026;  224,954;42141,511;16,44713
 810,18; 7142,231;  222,954;42042,551;16,54554
 810,74; 7062,282;  197,262;41760,822;16,51692
 811,31; 7108,488;  203,492;41524,709;16,71053
 811,87; 7152,154;  229,031;41277,903;16,86556
 812,44; 7166,590;  252,185;41479,250;16,77152
 813,00; 7055,026;  177,262;41034,598;16,83361
 813,56; 7150,463;  230,415;41162,484;16,90617
 814,13; 7185,206;  226,800;41008,448;17,06259
 814,69; 7157,719;  219,031;40900,949;17,05595
 815,25; 7085,694;  183,492;40381,066;17,17069
 815,82; 7097,130;  243,723;40351,491;17,08748
 816,38; 7151,335;  281,262;40127,762;17,24135
 816,94; 7048,617;  210,492;39958,802;17,20356
 817,51; 7044,361;  197,646;39646,535;17,35591
 818,07; 7020,258;  208,262;39392,882;17,38436
 818,63; 6992,618;  238,031;39210,307;17,33177
 819,20; 7065,438;  237,415;39112,270;17,56411
 819,76; 6989,490;  208,031;38788,849;17,57728
 820,32; 7030,926;  252,800;38646,966;17,65405
 820,89; 6966,592;  236,954;38460,391;17,60605
 821,45; 6918,875;  211,877;38189,431;17,66043
 822,01; 6943,157;  238,415;37871,086;17,81628
 822,57; 6992,362;  240,569;37855,280;17,94987
 823,14; 6900,490;  193,492;37486,167;17,98476
 823,70; 6856,542;  213,415;37306,745;17,90922
 824,26; 6867,055;  218,185;37121,939;18,01679
 824,82; 6891,952;  248,415;37027,441;18,06339
 825,39; 6813,927;  216,800;36749,481;18,05815
 825,95; 6903,132;  235,031;36730,752;18,27091
 826,51; 6865,184;  235,031;36361,330;18,35270
 827,08; 6912,235;  261,723;36483,217;18,36068
 827,64; 6877,748;  240,262;36268,334;18,42310
 828,20; 6846,492;  211,954;35898,143;18,59133
 828,76; 6905,158;  246,646;35886,029;18,68302
 829,32; 6920,518;  263,877;35756,454;18,75502
 829,89; 6817,492;  200,338;35706,186;18,63680
 830,45; 6859,390;  224,800;35627,303;18,74045
 831,01; 6898,518;  241,185;35479,190;18,89248
 831,57; 6829,031;  213,108;35345,230;18,83155
 832,14; 6846,621;  210,338;35348,655;18,88617
 832,70; 6830,057;  201,800;35060,695;19,01454
 833,26; 6813,108;  193,338;34902,889;19,07190
 833,82; 6841,544;  213,031;34895,467;19,11202
 834,38; 6864,903;  200,031;34862,200;19,22809
 834,95; 6865,724;  205,723;34716,471;19,29834
 835,51; 6840,237;  173,569;34589,818;19,37070
 836,07; 6943,442;  212,338;34684,397;19,52626
 836,63; 6930,032;  241,108;34621,206;19,45580
 837,19; 6919,314;  227,954;34434,862;19,56143
 837,75; 6905,289;  171,646;34086,287;19,85468
 838,32; 6950,648;  245,569;34296,327;19,69142
 838,88; 6963,238;  234,415;34342,905;19,72771
 839,44; 7003,289;  241,646;34228,561;19,89484
 840,00; 6966,571;  229,338;34125,293;19,87622
 840,56; 6962,238;  209,492;33756,487;20,12921
 841,12; 6945,905;  200,569;33786,296;20,08394
 841,68; 6946,264;  186,954;33638,490;20,20628
 842,25; 6939,623;  219,108;33518,838;20,18189
 842,81; 6921,367;  194,415;33322,032;20,30617
 843,37; 6944,880;  188,492;33416,226;20,33358
 843,93; 6976,777;  199,185;33342,497;20,44935
 844,49; 7031,290;  226,415;33339,999;20,55010
 845,05; 6967,342;  174,108;33131,347;20,61227
 845,61; 7006,701;  232,185;33205,002;20,54576
 846,17; 6975,445;  206,492;33015,658;20,63128
 846,73; 7014,958;  210,800;33016,775;20,74060
 847,29; 6958,932;  201,262;32860,661;20,69135
 847,86; 6981,368;  198,185;32722,009;20,85605
 848,42; 6984,804;  213,646;32543,203;20,94417
 848,98; 7007,856;  225,646;32561,858;20,97404
 849,54; 7000,830;  196,185;32552,283;21,03049
 850,10; 7036,881;  232,338;32341,708;21,19177
 850,66; 6989,702;  196,877;32299,517;21,15971
 851,22; 6962,753;  192,262;32128,403;21,20009
 851,78; 7068,113;  243,954;32229,674;21,33502
 852,34; 7037,933;  221,415;31870,637;21,53771
 852,90; 7057,215;  201,646;31847,831;21,66318
 853,46; 7036,267;  198,877;31624,410;21,75744
 854,02; 7002,934;  214,646;31638,450;21,60237
 854,58; 7015,754;  221,877;31429,105;21,77020
 855,14; 7011,575;  209,646;31338,761;21,85070
 855,70; 7010,319;  178,723;31218,416;22,00922
 856,26; 7020,139;  224,338;31233,534;21,91544
 856,82; 7020,960;  207,031;30950,574;22,16377
 857,38; 7077,396;  256,338;30908,614;22,25302
 857,94; 7052,909;  207,108;30828,577;22,35621
 858,50; 7010,422;  244,338;30618,617;22,27570
 859,06; 6967,473;  208,338;30493,426;22,31836
 859,62; 7021,832;  236,415;30468,390;22,44451
 860,18; 7029,730;  216,108;30324,584;22,63025
 860,74; 6946,012;  179,877;30105,547;22,60980
 861,30; 6969,448;  185,108;29888,125;22,84058
 861,86; 7069,423;  284,415;30023,935;22,81478
 862,42; 6973,474;  210,954;29767,821;22,87969
 862,98; 7031,141;  250,415;29734,476;22,99794
 863,54; 6956,654;  218,492;29541,209;22,97932
 864,10; 6973,090;  211,723;29542,249;23,05232
 864,66; 6913,064;  187,108;29320,905;23,08644
 865,22; 6955,808;  215,646;29224,714;23,23467
 865,78; 6904,783;  210,262;29105,677;23,16811
 866,34; 6907,372;  200,262;29035,333;23,26025
 866,90; 6912,193;  221,569;28876,911;23,34861
 867,45; 6871,937;  215,800;28690,105;23,37594
 868,01; 6870,065;  227,262;28554,145;23,45053
 868,57; 6855,732;  213,954;28341,955;23,61269
 869,13; 6807,706;  189,800;28286,995;23,55362
 869,69; 6926,373;  211,415;28199,343;23,99234
 870,25; 6817,655;  185,954;28030,152;23,81718
 870,81; 6850,399;  208,954;27974,346;23,91987
 871,37; 6844,912;  229,492;27896,617;23,91076
 871,93; 6888,887;  237,723;27765,580;24,16157
 872,49; 6844,707;  274,031;27545,697;24,09342
 873,04; 6768,605;  198,108;27359,506;24,19057
 873,60; 6801,887;  185,723;27265,546;24,43208
 874,16; 6805,246;  228,262;27204,048;24,38107
 874,72; 6804,862;  192,877;27066,048;24,60441
 875,28; 6822,323;  205,262;27009,971;24,68619
 875,84; 6818,631;  223,569;26925,510;24,69881
 876,40; 6806,554;  206,262;26853,587;24,76906
 876,95; 6808,862;  227,569;26916,356;24,65939
 877,51; 6902,708;  243,569;26936,817;24,94690
 878,07; 6921,246;  257,262;26841,817;25,06713
 878,63; 6896,015;  215,877;26853,587;25,07775
 879,19; 6934,092;  229,723;26860,279;25,17548
 879,75; 6936,246;  207,646;26893,740;25,21388
 880,30; 6945,323;  205,569;26889,971;25,25728
 880,86; 7038,477;  259,877;27000,202;25,34973
 881,42; 7044,246;  203,954;27050,202;25,47951
 881,98; 7120,631;  220,262;27168,048;25,60644
 882,54; 7121,323;  207,492;27217,663;25,59714
 883,09; 7177,169;  222,954;27339,279;25,64586
 883,65; 7204,246;  210,800;27335,202;25,78286
 884,21; 7316,169;  245,723;27546,587;25,89825
 884,77; 7326,323;  202,877;27684,202;25,92104
 885,32; 7354,785;  209,646;27806,202;25,89141
 885,88; 7430,092;  253,800;27903,587;25,95424
 886,44; 7423,323;  217,877;27971,202;25,96246
 887,00; 7491,554;  248,415;27985,048;26,11398
 887,56; 7509,938;  222,569;28107,048;26,13414
 888,11; 7533,708;  227,877;28153,740;26,16152
 888,67; 7618,323;  244,569;28319,202;26,26483
 889,23; 7626,862;  221,185;28304,202;26,37066
 889,79; 7553,785;  199,954;28167,279;26,29437
 890,34; 7605,631;  225,569;28126,510;26,45094
 890,90; 7730,554;  308,108;28239,510;26,57384
 891,46; 7651,862;  215,031;28133,894;26,63730
 892,01; 7714,400;  234,492;28142,202;26,80230
 892,57; 7688,862;  260,723;28027,433;26,75196
 893,13; 7667,631;  233,800;27874,510;26,89450
 893,69; 7684,323;  204,108;27834,433;27,07248
 894,24; 7679,477;  224,800;27745,433;27,08759
 894,80; 7693,785;  230,338;27656,048;27,21332
 895,36; 7665,708;  232,492;27516,279;27,24408
 895,91; 7615,323;  224,338;27286,202;27,31144
 896,47; 7629,785;  246,338;27175,510;27,41802
 897,03; 7592,092;  219,415;26974,740;27,55592
 897,58; 7586,862;  239,415;26837,587;27,62388
 898,14; 7577,631;  240,031;26705,740;27,72493
 898,70; 7512,400;  210,800;26521,433;27,75152
 899,25; 7589,708;  230,569;26541,740;27,96963
 899,81; 7539,246;  242,723;26378,202;27,91808
 900,37; 7507,938;  188,723;26079,894;28,26916
 900,92; 7534,015;  222,262;26093,048;28,26259
 901,48; 7504,477;  203,492;26053,279;28,24389
 902,03; 7459,785;  219,877;25818,740;28,28215
 902,59; 7458,862;  217,723;25710,510;28,40466
 903,15; 7456,169;  236,877;25576,202;28,49047
 903,70; 7378,554;  222,262;25382,587;28,44277
 904,26; 7386,323;  215,031;25265,356;28,62754
 904,82; 7405,554;  209,031;25302,202;28,67921
 905,37; 7388,246;  222,569;25079,510;28,82767
 905,93; 7348,708;  226,031;24944,971;28,81465
 906,48; 7374,631;  244,492;24824,279;29,00814
 907,04; 7347,092;  243,877;24824,740;28,89734
 907,60; 7337,862;  235,877;24573,356;29,18127
 908,15; 7298,169;  198,108;24495,202;29,22185
 908,71; 7330,169;  242,262;24481,587;29,24136
 909,26; 7308,708;  221,492;24315,048;29,41540
 909,82; 7256,631;  240,877;24178,433;29,30856
 910,37; 7272,631;  276,723;24143,433;29,31241
 910,93; 7223,246;  207,800;23932,356;29,57040
 911,48; 7169,938;  217,108;23748,740;29,54674
 912,04; 7213,477;  224,646;23688,894;29,78502
 912,60; 7179,246;  240,954;23709,663;29,56401
 913,15; 7161,862;  230,877;23494,202;29,79361
 913,71; 7105,708;  212,877;23282,587;29,87827
 914,26; 7095,862;  195,569;23220,817;29,96837
 914,82; 7099,169;  231,262;23132,510;29,98923
 915,37; 7087,092;  217,800;23068,587;30,06151
 915,93; 7120,631;  275,877;23015,663;30,10034
 916,48; 7045,477;  210,031;22835,894;30,21076
 917,04; 7040,169;  245,031;22721,510;30,23222
 917,59; 7059,400;  256,723;22648,433;30,38034
 918,15; 6954,862;  190,954;22479,740;30,34668
 918,70; 6945,862;  214,492;22344,510;30,41737
 919,26; 6910,400;  222,492;22277,663;30,32354
 919,81; 6890,246;  204,569;22119,125;30,50793
 920,37; 6886,477;  217,108;21986,587;30,63633
 920,92; 6951,862;  239,108;22000,202;30,84750
 921,48; 6813,323;  211,108;21781,971;30,60710
 922,03; 6839,092;  224,569;21755,202;30,72145
 922,59; 6847,092;  225,646;21551,356;31,04912
 923,14; 6833,785;  237,954;21536,971;30,96777
 923,69; 6844,246;  249,108;21373,510;31,22047
 924,25; 6835,785;  246,800;21373,279;31,18828
 924,80; 6792,785;  217,723;21137,125;31,43045
 925,36; 6763,631;  212,646;21097,433;31,36726
 925,91; 6762,708;  217,415;20935,202;31,59262
 926,47; 6734,785;  196,723;20840,663;31,67061
 927,02; 6805,938;  295,877;20835,817;31,69465
 927,57; 6728,477;  216,415;20660,740;31,85266
 928,13; 6730,477;  210,877;20612,663;31,95602
 928,68; 6695,246;  231,800;20522,587;31,85409
 929,24; 6657,400;  206,877;20419,663;31,91308
 929,79; 6650,785;  208,031;20219,971;32,19455
 930,34; 6630,785;  217,646;20070,894;32,30272
 930,90; 6641,862;  215,877;20103,587;32,31134
 931,45; 6632,092;  230,954;20063,971;32,27516
 932,01; 6630,631;  221,723;19824,894;32,69322
 932,56; 6585,708;  245,646;19795,894;32,42957
 933,11; 6623,785;  256,415;19744,663;32,67287
 933,67; 6544,631;  217,415;19569,740;32,69486
 934,22; 6572,938;  227,108;19479,663;32,96098
 934,77; 6570,477;  253,108;19436,202;32,93196
 935,33; 6493,554;  223,723;19295,279;32,87530
 935,88; 6541,631;  243,877;19181,510;33,25523
 936,43; 6530,400;  226,954;19164,663;33,28516
 936,99; 6499,015;  229,569;19027,510;33,35177
 937,54; 6393,400;  206,108;18841,894;33,20113
 938,09; 6470,477;  225,338;18791,740;33,63677
 938,65; 6433,400;  235,723;18645,817;33,66456
 939,20; 6414,938;  209,800;18601,740;33,73836
 939,75; 6376,554;  211,415;18505,356;33,70044
 940,31; 6367,400;  206,569;18393,971;33,87417
 940,86; 6361,938;  225,569;18389,048;33,78411
 941,41; 6422,785;  328,415;18269,817;33,96819
 941,96; 6301,554;  211,415;18149,433;33,95101
 942,52; 6298,785;  216,415;18048,125;34,10985
 943,07; 6223,400;  201,723;17949,125;33,92991
 943,62; 6239,323;  210,723;17862,740;34,15247
 944,18; 6210,015;  197,723;17755,663;34,24258
 944,73; 6225,092;  236,954;17721,510;34,24816
 945,28; 6096,477;  197,262;17468,510;34,15628
 945,83; 6145,708;  213,031;17503,740;34,31136
 946,39; 6144,169;  211,723;17489,740;34,33523
 946,94; 6125,631;  249,262;17365,510;34,33211
 947,49; 6102,631;  212,723;17228,740;34,61390
 948,04; 6099,785;  263,185;17257,663;34,34410
 948,59; 6075,477;  244,877;17127,510;34,53608
 949,15; 6045,169;  216,569;17016,356;34,69449
 949,70; 6022,092;  216,800;16957,587;34,67754
 950,25; 5968,708;  229,569;16872,894;34,48312
 950,80; 5959,785;  183,646;16704,125;34,96351
 951,36; 5942,631;  182,262;16642,279;34,99613
 951,91; 5973,169;  232,338;16653,279;34,96043
 952,46; 5900,015;  221,415;16474,125;34,93940
 953,01; 5965,938;  228,338;16479,279;35,30626
 953,56; 5837,169;  196,646;16339,663;34,94095
 954,11; 5858,785;  216,646;16342,971;34,98713
 954,67; 5817,015;  216,185;16240,433;34,95222
 955,22; 5804,938;  194,646;16065,125;35,35049
 955,77; 5824,092;  242,646;16076,510;35,25006
 956,32; 5841,554;  275,569;15970,125;35,46443
 956,87; 5791,862;  211,954;15816,356;35,75855
 957,42; 5813,938;  220,492;15744,202;36,03163
 957,98; 5764,323;  210,646;15677,125;35,90783
 958,53; 5774,938;  240,262;15685,894;35,83328
 959,08; 5709,169;  204,108;15538,048;35,90115
 959,63; 5698,938;  210,415;15422,356;36,08036
 960,18; 5687,938;  225,415;15400,817;35,99590
 960,73; 5668,477;  226,646;15353,048;35,97571
 961,28; 5664,400;  197,031;15228,510;36,37280
 961,83; 5648,785;  236,031;15224,510;36,11276
 962,39; 5629,246;  196,492;15026,894;36,63255
 962,94; 5600,938;  216,723;14998,510;36,42466
 963,49; 5598,400;  226,492;14846,048;36,74467
 964,04; 5587,708;  221,954;14804,971;36,79454
 964,59; 5503,323;  189,262;14735,356;36,53257
 965,14; 5525,015;  237,569;14637,740;36,71794
 965,69; 5469,400;  222,723;14532,356;36,66535
 966,24; 5472,323;  207,338;14443,894;36,98215
 966,79; 5419,554;  243,338;14397,125;36,57124
 967,34; 5358,708;  196,108;14195,587;36,87709
 967,89; 5371,323;  198,415;14179,048;37,00053
 968,44; 5353,938;  225,800;14128,740;36,88528
 968,99; 5360,785;  220,800;14066,740;37,12268
 969,55; 5309,554;  217,800;13953,817;37,06863
 970,10; 5285,862;  229,338;13867,587;37,07605
 970,65; 5279,862;  239,954;13742,587;37,32537
 971,20; 5192,938;  204,185;13683,510;37,01041
 971,75; 5166,938;  192,492;13469,356;37,46703
 972,30; 5156,246;  224,954;13451,663;37,28283
 972,85; 5153,785;  209,108;13365,125;37,58491
 973,40; 5069,015;  208,415;13249,663;37,27097
 973,95; 5084,400;  229,492;13220,740;37,37060
 974,50; 5064,631;  246,262;13146,894;37,34987
 975,05; 5042,246;  226,262;13000,279;37,70141
 975,60; 5004,862;  227,031;12978,894;37,46771
 976,15; 4994,169;  202,338;12840,663;37,91508
 976,70; 4972,400;  219,877;12794,356;37,79499
 977,25; 4967,554;  240,262;12717,817;37,88636
 977,80; 4916,938;  219,492;12616,433;37,89198
 978,35; 4897,477;  227,415;12468,048;38,15213
 978,89; 4848,554;  199,723;12345,510;38,27525
 979,44; 4869,015;  230,262;12355,971;38,25552
 979,99; 4786,092;  211,338;12160,510;38,28511
 980,54; 4828,400;  236,262;12152,356;38,53728
 981,09; 4815,785;  248,185;12073,433;38,62583
 981,64; 4720,554;  227,338;11907,663;38,46824
 982,19; 4751,323;  269,800;11902,510;38,52519
 982,74; 4700,477;  237,108;11733,971;38,82249
 983,29; 4584,785;  206,031;11599,356;38,43262
 983,84; 4606,477;  212,492;11474,202;39,01703
 984,39; 4669,631;  322,492;11432,587;39,12783
 984,94; 4519,323;  202,723;11322,971;38,81748
 985,49; 4522,554;  253,415;11240,587;38,85567
 986,03; 4531,708;  248,646;11184,587;39,16500
 986,58; 4505,015;  290,185;11041,740;39,20205
 987,13; 4458,477;  223,954;10894,587;39,68390
 987,68; 4396,015;  241,338;10822,125;39,26624
 988,23; 4413,400;  242,492;10802,048;39,49889
 988,78; 4323,400;  219,415;10655,433;39,32520
 989,33; 4344,554;  258,415;10548,125;39,71092
 989,88; 4313,246;  271,108;10489,740;39,55655
 990,42; 4235,862;  220,108;10372,433;39,55502
 990,97; 4220,708;  220,338;10237,356;39,93573
 991,52; 4211,477;  247,492;10154,125;40,01344
 992,07; 4212,938;  271,569;10121,663;40,01352
 992,62; 4128,785;  235,723; 9972,356;39,98365
 993,17; 4100,015;  247,723; 9894,663;39,93279
 993,71; 4053,092;  248,108; 9765,433;39,97956
 994,26; 4041,092;  221,185; 9678,125;40,39264
 994,81; 4032,092;  246,723; 9602,510;40,46019
 995,36; 3981,477;  223,569; 9478,894;40,60266
 995,91; 3951,323;  242,338; 9431,356;40,36323
 996,45; 3899,015;  232,569; 9270,279;40,56831
 997,00; 3834,862;  211,108; 9123,740;40,65862
 997,55; 3855,015;  243,185; 9109,587;40,73615
 998,10; 3818,708;  261,646; 8988,433;40,76027
 998,65; 3774,477;  229,108; 8947,356;40,66607
 999,19; 3781,477;  251,262; 8811,663;41,23890
 999,74; 3728,631;  284,800; 8739,510;40,73269
1000,29; 3699,169;  250,723; 8655,202;41,03105
1000,84; 3637,862;  238,954; 8495,894;41,16425
1001,38; 3613,169;  246,415; 8413,971;41,22107
1001,93; 3624,785;  248,415; 8355,356;41,64789
1002,48; 3526,169;  214,800; 8209,125;41,42150
1003,03; 3534,631;  245,108; 8186,894;41,42044
1003,57; 3489,477;  244,492; 8108,663;41,26289
1004,12; 3521,708;  289,108; 7949,048;42,20137
1004,67; 3420,554;  243,954; 7886,356;41,56547
1005,22; 3366,092;  219,262; 7729,125;41,90264
1005,76; 3294,631;  211,108; 7624,356;41,59476
1006,31; 3298,938;  240,800; 7583,894;41,64646
1006,86; 3261,631;  229,569; 7489,663;41,76339
1007,40; 3225,169;  219,723; 7323,587;42,30721
1007,95; 3190,554;  232,954; 7254,587;42,12126
1008,50; 3152,477;  231,031; 7108,048;42,48130
1009,04; 3115,554;  234,569; 7077,894;42,09919
1009,59; 3075,246;  237,415; 6945,279;42,30603
1010,14; 3009,092;  221,338; 6864,587;41,96372
1010,68; 2982,092;  247,338; 6776,971;41,88220
1011,23; 2941,708;  233,415; 6622,356;42,39032
1011,78; 2931,015;  242,646; 6594,279;42,32564
1012,32; 2904,400;  276,800; 6476,740;42,38105
1012,87; 2903,477;  273,646; 6461,279;42,50140
1013,42; 2818,554;  213,415; 6310,740;42,72592
1013,96; 2826,246;  259,954; 6342,587;42,19049
1014,51; 2771,246;  195,492; 6239,510;42,61659
1015,06; 2778,554;  206,954; 6241,663;42,61348
1015,60; 2850,708;  276,492; 6316,817;42,61717
1016,15; 2777,092;  223,800; 6243,894;42,41283
1016,69; 2815,015;  234,185; 6311,587;42,46602
1017,24; 2810,477;  208,415; 6283,202;42,83379
1017,79; 2879,862;  275,646; 6368,663;42,74098
1018,33; 2837,938;  233,415; 6299,663;42,93466
1018,88; 2883,708;  264,262; 6390,048;42,76098
1019,42; 2853,631;  231,338; 6383,202;42,62598
1019,97; 2857,169;  221,031; 6343,279;43,05834
1020,51; 2915,631;  265,262; 6435,125;42,95669
1021,06; 2850,246;  210,954; 6409,048;42,58232
1021,61; 2818,092;  199,338; 6367,587;42,45539
1022,15; 2780,631;  179,646; 6285,279;42,59976
1022,70; 2836,092;  232,415; 6293,663;42,95612
1023,24; 2821,708;  212,415; 6266,125;43,10237
1023,79; 2799,938;  227,262; 6194,279;43,11496
1024,33; 2782,323;  218,338; 6167,740;43,09651
1024,88; 2778,400;  243,569; 6046,740;43,68010
1025,42; 2710,631;  234,723; 5985,356;43,05453
1025,97; 2655,862;  229,877; 5905,663;42,74270
1026,51; 2601,631;  190,723; 5792,817;43,03583
1027,06; 2585,862;  214,877; 5716,433;43,09662
1027,60; 2558,938;  241,262; 5660,356;42,76871
1028,15; 2558,938;  246,569; 5538,048;43,69987
1028,69; 2443,554;  187,646; 5427,894;43,04964
1029,24; 2447,938;  201,262; 5382,663;43,36041
1029,78; 2417,708;  199,492; 5295,048;43,53235
1030,33; 2366,631;  205,646; 5186,817;43,38306
1030,87; 2341,246;  223,031; 5110,356;43,34100
1031,42; 2287,169;  197,185; 5040,510;43,15186
1031,96; 2294,015;  229,415; 4971,587;43,53702
1032,51; 2250,554;  220,185; 4889,202;43,48601
1033,05; 2258,938;  231,723; 4859,971;43,80092
1033,60; 2169,554;  188,723; 4725,971;43,65710
1034,14; 2141,631;  220,800; 4665,971;43,21163
1034,69; 2164,477;  227,877; 4596,433;44,33044
1035,23; 2124,554;  217,338; 4562,356;43,89431
1035,77; 2080,246;  216,492; 4520,048;43,30730
1036,32; 2036,708;  194,492; 4409,433;43,70680
1036,86; 2058,708;  228,800; 4379,817;44,08335
1037,41; 2033,631;  233,415; 4278,279;44,50621
1037,95; 1966,631;  195,800; 4218,971;44,01580
1038,50; 1971,554;  212,031; 4162,510;44,53949
1039,04; 1972,015;  234,108; 4120,587;44,71677
1039,58; 1898,631;  201,954; 4047,740;44,11781
1040,13; 1888,554;  217,031; 3989,048;44,31377
1040,67; 1902,015;  245,800; 3970,817;44,46195
1041,21; 1877,785;  250,415; 3912,740;44,43541
1041,76; 1839,092;  201,031; 3816,356;45,30883
1042,30; 1796,323;  222,569; 3788,125;44,13769
1042,85; 1767,477;  217,723; 3725,971;44,17458
1043,39; 1772,246;  204,415; 3647,125;45,54060
1043,93; 1767,092;  239,723; 3640,894;44,90716
1044,48; 1715,169;  232,492; 3562,663;44,52254
1045,02; 1693,785;  216,031; 3481,279;45,25702
1045,56; 1716,938;  258,646; 3502,971;44,94902
1046,11; 1678,323;  228,877; 3442,894;45,09765
1046,65; 1655,708;  229,185; 3371,663;45,39483
1047,19; 1626,554;  206,877; 3327,279;45,49660
1047,74; 1582,169;  195,646; 3238,510;45,56639
1048,28; 1586,092;  231,646; 3227,279;45,21403
1048,82; 1604,938;  269,262; 3210,510;45,41191
1049,37; 1580,477;  245,646; 3148,048;45,99056
1049,91; 1567,323;  247,108; 3114,433;46,04345
1050,45; 1543,477;  248,723; 3066,971;45,94180
1050,99; 1517,169;  237,877; 3028,587;45,84111
1051,54; 1470,323;  215,800; 2964,587;45,63916
1052,08; 1497,015;  241,415; 2919,125;46,89082
1052,62; 1452,631;  248,877; 2906,356;45,29684
1053,16; 1425,323;  224,262; 2845,894;45,81349
1053,71; 1442,862;  242,723; 2818,202;46,59865
1054,25; 1431,708;  230,415; 2767,125;47,35632
1054,79; 1396,477;  235,877; 2723,048;46,66346
1055,33; 1347,631;  208,877; 2670,279;46,26444
1055,88; 1378,015;  229,262; 2668,587;47,09310
1056,42; 1364,631;  255,492; 2646,817;46,38175
1056,96; 1359,400;  249,877; 2583,048;47,55429
1057,50; 1326,477;  241,031; 2545,433;47,10316
1058,05; 1304,400;  232,954; 2502,356;47,21271
1058,59; 1306,862;  256,185; 2489,279;47,05027
1059,13; 1253,631;  210,800; 2424,894;47,09966
1059,67; 1275,092;  240,262; 2421,433;47,44381
1060,21; 1247,015;  241,646; 2344,817;47,80254
1060,76; 1226,092;  238,800; 2316,433;47,52006
1061,30; 1236,477;  262,569; 2312,279;47,51442
1061,84; 1192,323;  237,877; 2244,202;47,57186
1062,38; 1156,708;  220,185; 2193,048;47,47024
1062,92; 1201,631;  275,415; 2237,279;47,21100
1063,46; 1174,862;  240,338; 2158,433;48,72144
1064,01; 1137,246;  228,031; 2134,894;47,68120
1064,55; 1130,092;  238,646; 2102,048;47,83971
1065,09; 1089,015;  217,492; 2060,048;47,29969
1065,63; 1128,938;  252,954; 2071,202;48,17740
1066,17; 1124,938;  280,877; 2045,971;47,81963
1066,71; 1095,785;  265,262; 2023,587;47,23376
1067,25; 1060,015;  235,031; 1967,433;47,62086
1067,80; 1054,477;  238,954; 1961,433;47,34590
1068,34; 1084,938;  278,031; 1928,971;48,87564
1068,88; 1017,477;  230,185; 1891,510;47,38942
1069,42; 1042,323;  263,877; 1921,433;46,96350
1069,96; 1016,708;  237,262; 1850,279;48,32224
1070,50; 1032,862;  275,031; 1861,433;47,77041
1071,04;  989,323;  229,877; 1814,817;47,91639
1071,58;  980,862;  238,031; 1809,510;47,26954
1072,12;  967,554;  238,185; 1767,971;47,67784
1072,66;  966,631;  238,415; 1757,356;47,94233
1073,21;  981,092;  249,185; 1752,202;48,69589
1073,75;  939,631;  241,108; 1707,202;47,64517
1074,29;  946,938;  243,646; 1684,433;48,81308
1074,83;  944,092;  267,723; 1701,125;47,18629
1075,37;  937,938;  267,185; 1658,202;48,22038
1075,91;  933,015;  255,031; 1647,663;48,68366
1076,45;  915,246;  249,954; 1628,894;48,24663
1076,99;  911,400;  252,492; 1589,125;49,29609
1077,53;  879,246;  238,723; 1573,971;47,97034
1078,07;  887,785;  252,185; 1573,433;48,10603
1078,61;  859,554;  249,723; 1538,894;47,30410
1079,15;  862,015;  250,185; 1524,663;48,00635
1079,69;  836,938;  241,415; 1491,433;47,64119
1080,23;  861,323;  269,031; 1482,587;48,80635
1080,77;  905,631;  316,646; 1506,048;49,51939
1081,31;  827,092;  234,569; 1440,894;49,11803
1081,85;  836,246;  273,646; 1452,048;47,74262
1082,39;  803,862;  239,723; 1414,663;48,01422
1082,93;  829,938;  264,877; 1410,894;49,30654
1083,47;  776,169;  223,185; 1361,971;48,55911
1084,01;  797,785;  257,569; 1391,587;47,63731
1084,55;  772,400;  233,723; 1330,510;49,11411
1085,09;  779,938;  261,108; 1354,202;47,46441
1085,63;  772,554;  254,723; 1322,894;48,47826
1086,17;  752,323;  237,031; 1282,433;49,29131
1086,71;  740,400;  236,954; 1289,356;47,83782
1087,24;  768,631;  275,569; 1300,663;48,09914
1087,78;  779,169;  263,800; 1273,817;51,02578
1088,32;  728,246;  233,569; 1228,202;49,73463
1088,86;  754,554;  267,262; 1251,202;49,52458
1089,40;  744,092;  249,646; 1222,433;50,82782
1089,94;  706,862;  228,185; 1181,433;50,21536
1090,48;  710,631;  255,492; 1185,279;48,95086
1091,02;  730,015;  266,185; 1181,587;50,66963
1091,56;  702,554;  243,646; 1171,971;49,43395
1092,10;  667,477;  236,800; 1147,971;47,26630
1092,63;  705,631;  275,800; 1154,740;48,90329
1093,17;  696,169;  260,185; 1125,587;50,37944
1093,71;  677,862;  237,954; 1113,279;50,25650
1094,25;  697,938;  265,492; 1131,817;49,91731
1094,79;  660,708;  249,646; 1087,048;49,08772
1095,33;  677,323;  240,569; 1067,279;52,83038
1095,87;  653,938;  246,569; 1063,817;49,84646
1096,40;  634,323;  236,954; 1024,663;50,44616
1096,94;  666,246;  250,185; 1045,894;52,28811
1097,48;  654,938;  261,415; 1024,048;51,60060
1098,02;  615,477;  236,954; 1015,894;48,59461
1098,56;  595,246;  214,877;  980,048;49,71035
1099,10;  592,862;  219,569;  971,894;49,61849
1099,63;  601,477;  226,569;  948,587;51,92503
1100,17;  618,631;  253,646;  979,433;50,28815
1100,71;  643,015;  282,723;  987,433;51,12635

