
Integration time [ms]: 160,000
Averaging Nr. [scans]: 13
Smoothing Nr. [pixels]: 0
Data measured with spectrometer [name]: 2009305U1
Wave   ;Sample   ;Dark     ;Reference;Reflectance
[nm]   ;[counts] ;[counts] ;[counts] ;[%]

 175,72;  215,363;  192,833;  205,653;175,73611
 176,32;  233,791;  215,986;  216,813; 0,00000
 176,92;  274,494;  247,602;  254,971;364,92754
 177,52;  269,344;  255,679;  265,678;136,66862
 178,12;  250,274;  239,756;  224,864; 0,00000
 178,72;  284,725;  257,525;  250,340; 0,00000
 179,32;  260,936;  248,909;  241,998; 0,00000
 179,92;  257,616;  247,063;  242,319; 0,00000
 180,52;  261,784;  235,064;  254,068;140,59785
 181,12;  274,256;  243,833;  252,404;354,92388
 181,73;  297,324;  258,371;  266,338;488,96814
 182,33;  405,390;  327,141;  336,927;799,61635
 182,93;  294,616;  265,064;  266,645;1868,47907
 183,53;  240,804;  233,755;  224,030; 0,00000
 184,13;  257,467;  236,909;  229,431; 0,00000
 184,73;  312,099;  266,448;  273,739;626,13008
 185,33;  279,747;  232,445;  341,197;43,49568
 185,93;  293,606;  226,213;  348,375;55,16701
 186,53;  302,124;  244,675;  370,650;45,60302
 187,13;  321,253;  273,291;  414,063;34,07062
 187,73;  290,172;  243,598;  361,495;39,50418
 188,33;  285,081;  237,983;  370,649;35,50142
 188,93;  291,576;  250,059;  374,130;33,46186
 189,53;  297,844;  248,981;  393,125;33,89888
 190,13;  328,624;  274,058;  409,924;40,16170
 190,73;  271,776;  218,289;  365,019;36,45260
 191,34;  303,325;  256,905;  385,888;35,98914
 191,94;  283,909;  235,829;  359,614;38,84209
 192,54;  292,482;  240,984;  391,391;34,23894
 193,14;  309,143;  258,291;  390,009;38,60688
 193,74;  300,104;  260,214;  377,424;34,03280
 194,34;  306,819;  241,445;  388,106;44,57483
 194,94;  253,184;  209,983;  342,899;32,50255
 195,54;  242,221;  190,137;  332,970;36,46478
 196,14;  251,169;  225,291;  354,341;20,05262
 196,74;  268,468;  223,445;  343,719;37,43400
 197,34;  243,994;  197,522;  345,903;31,31957
 197,94;  275,153;  232,368;  373,573;30,29953
 198,54;  293,314;  228,599;  383,909;41,66815
 199,14;  251,046;  215,368;  380,241;21,63973
 199,74;  249,313;  190,292;  370,197;32,80689
 200,34;  240,254;  195,061;  379,885;24,45215
 200,94;  274,000;  233,599;  425,936;21,00516
 201,54;  254,102;  216,753;  432,596;17,30375
 202,14;  296,010;  230,061;  474,093;27,02474
 202,74;  272,292;  213,907;  473,146;22,52166
 203,34;  242,299;  180,907;  480,577;20,48651
 203,94;  214,265;  170,753;  486,255;13,79125
 204,54;  296,227;  238,445;  563,211;17,79188
 205,14;  253,345;  203,984;  571,733;13,42258
 205,74;  314,382;  236,907;  659,589;18,32928
 206,34;  269,658;  200,215;  679,015;14,50359
 206,94;  296,142;  210,138;  728,140;16,60313
 207,54;  261,945;  191,907;  773,579;12,04073
 208,14;  295,646;  194,522;  845,836;15,52614
 208,74;  304,863;  198,907;  918,683;14,72068
 209,34;  305,325;  202,215;  992,970;13,03947
 209,94;  321,245;  202,753; 1089,013;13,36987
 210,54;  333,632;  195,292; 1187,450;13,94340
 211,14;  339,404;  194,368; 1267,179;13,51926
 211,73;  350,104;  197,830; 1399,958;12,66708
 212,33;  377,426;  214,830; 1495,442;12,69673
 212,93;  362,561;  201,830; 1569,925;11,74851
 213,53;  337,821;  168,522; 1613,023;11,72026
 214,13;  386,718;  193,369; 1705,053;12,79031
 214,73;  353,856;  179,907; 1721,786;11,28164
 215,33;  351,168;  163,830; 1742,628;11,86586
 215,93;  396,754;  194,523; 1862,662;12,12319
 216,53;  356,481;  157,753; 1944,199;11,12420
 217,13;  412,890;  209,061; 2159,512;10,45034
 217,73;  422,902;  196,599; 2334,342;10,58607
 218,33;  376,642;  149,754; 2512,186; 9,60400
 218,93;  448,179;  177,292; 2802,474;10,31878
 219,53;  473,985;  179,830; 3052,680;10,23912
 220,13;  466,240;  166,677; 3342,899; 9,43144
 220,73;  525,854;  178,292; 3659,770; 9,98320
 221,32;  555,170;  192,215; 4073,836; 9,35062
 221,92;  612,202;  184,984; 4477,909; 9,95166
 222,52;  622,693;  163,446; 4867,162; 9,76349
 223,12;  677,953;  187,984; 5286,413; 9,61020
 223,72;  727,758;  189,369; 5644,061; 9,87021
 224,32;  757,421;  186,830; 5997,482; 9,81974
 224,92;  799,480;  168,830; 6323,312;10,24700
 225,52;  868,255;  197,753; 6670,557;10,35875
 226,12;  880,999;  180,753; 6972,357;10,31047
 226,72;  906,712;  160,753; 7292,274;10,46002
 227,31;  942,771;  151,984; 7646,565;10,55145
 227,91; 1040,530;  194,138; 8071,656;10,74440
 228,51; 1074,793;  165,984; 8435,636;10,98969
 229,11; 1147,691;  184,907; 8840,069;11,12381
 229,71; 1202,584;  170,830; 9126,800;11,52030
 230,31; 1246,582;  168,369; 9555,531;11,48604
 230,91; 1323,215;  158,599; 9813,841;12,06200
 231,51; 1358,808;  163,753;10061,634;12,07384
 232,10; 1452,352;  164,907;10384,972;12,59722
 232,70; 1555,665;  181,445;10581,029;13,21418
 233,30; 1631,186;  195,753;10813,411;13,51930
 233,90; 1656,322;  167,984;10937,933;13,81936
 234,50; 1707,876;  169,984;11059,818;14,12227
 235,10; 1770,326;  171,292;10974,158;14,80195
 235,70; 1854,870;  182,907;11013,347;15,43763
 236,29; 1864,167;  178,907;10902,340;15,71568
 236,89; 1893,579;  160,907;10792,462;16,29745
 237,49; 1951,221;  183,907;10632,310;16,91468
 238,09; 1930,042;  172,753;10341,707;17,28093
 238,69; 1998,589;  207,676;10098,604;18,10663
 239,29; 1963,865;  164,138; 9734,699;18,80482
 239,89; 1950,443;  172,907; 9401,017;19,26219
 240,48; 1910,948;  167,215; 8971,537;19,80542
 241,08; 1885,201;  164,522; 8611,278;20,37089
 241,68; 1867,430;  188,215; 8278,664;20,75553
 242,28; 1832,011;  156,215; 7940,130;21,52897
 242,88; 1813,446;  197,061; 7665,624;21,64251
 243,48; 1794,339;  202,138; 7348,585;22,27962
 244,07; 1770,358;  196,215; 7158,640;22,60912
 244,67; 1723,487;  189,599; 6950,593;22,68731
 245,27; 1722,335;  189,214; 6813,419;23,14422
 245,87; 1730,806;  193,677; 6751,769;23,43867
 246,47; 1728,430;  180,522; 6743,128;23,58679
 247,06; 1711,317;  173,599; 6743,421;23,40578
 247,66; 1708,706;  171,676; 6819,743;23,11994
 248,26; 1772,522;  200,830; 7000,936;23,11276
 248,86; 1796,809;  197,445; 7154,654;22,98858
 249,46; 1782,926;  145,599; 7378,217;22,63809
 250,05; 1876,338;  199,830; 7771,472;22,14193
 250,65; 1891,003;  152,599; 8058,257;21,98937
 251,25; 1965,985;  170,984; 8552,490;21,41622
 251,85; 2056,570;  170,830; 9127,877;21,05315
 252,44; 2111,768;  137,061; 9680,974;20,69075
 253,04; 2247,931;  188,215;10445,847;20,07985
 253,64; 2293,124;  136,830;11140,049;19,59694
 254,24; 2455,995;  193,061;12050,132;19,08510
 254,84; 2534,157;  169,830;13024,525;18,39271
 255,43; 2642,079;  179,676;13965,778;17,86149
 256,03; 2795,539;  176,907;14933,069;17,74602
 256,63; 2871,561;  184,599;15959,061;17,03362
 257,23; 2934,333;  171,753;16835,711;16,57818
 257,82; 3027,547;  182,599;17818,426;16,13164
 258,42; 3012,863;  143,753;18720,590;15,44456
 259,02; 3192,887;  189,522;19585,306;15,48463
 259,62; 3165,673;  171,445;20283,193;14,88795
 260,21; 3175,546;  174,291;20811,251;14,54310
 260,81; 3134,774;  185,907;21379,753;13,91379
 261,41; 3122,079;  151,137;21814,664;13,71403
 262,01; 3135,385;  198,214;22356,130;13,25563
 262,60; 3070,795;  159,060;22637,173;12,95364
 263,20; 3030,214;  176,445;23055,648;12,47320
 263,80; 2997,033;  194,906;23123,820;12,22093
 264,40; 2900,947;  149,752;23365,215;11,85070
 264,99; 2878,772;  181,983;23636,262;11,49807
 265,59; 2791,621;  166,214;23828,529;11,09531
 266,19; 2763,607;  157,752;24024,776;10,91822
 266,78; 2758,229;  197,445;24085,499;10,71994
 267,38; 2665,734;  186,368;24190,233;10,32903
 267,98; 2660,223;  170,906;24143,256;10,38412
 268,58; 2600,716;  186,137;24183,756;10,06175
 269,17; 2576,995;  173,752;24133,851;10,03019
 269,77; 2522,028;  192,522;23966,940; 9,79837
 270,37; 2473,035;  161,368;23855,106; 9,75645
 270,96; 2509,154;  214,830;23796,071; 9,72945
 271,56; 2440,389;  179,676;23480,276; 9,70238
 272,16; 2399,212;  169,060;23368,768; 9,61285
 272,75; 2422,677;  169,522;23244,494; 9,76450
 273,35; 2394,731;  186,753;23207,061; 9,59144
 273,95; 2389,020;  180,291;23273,296; 9,56449
 274,54; 2380,371;  158,061;23319,855; 9,59472
 275,14; 2495,947;  185,830;23690,387; 9,82838
 275,74; 2433,008;  157,830;23677,369; 9,67357
 276,33; 2541,539;  197,983;24100,569; 9,80461
 276,93; 2591,253;  184,138;24473,251; 9,91026
 277,53; 2672,434;  181,984;25015,911;10,02842
 278,12; 2732,946;  152,830;25597,349;10,14017
 278,72; 2878,780;  215,676;26084,768;10,29454
 279,32; 2950,510;  184,830;26655,470;10,44810
 279,91; 3024,628;  151,984;27296,689;10,58270
 280,51; 3189,957;  164,061;27885,853;10,91523
 281,11; 3310,918;  165,368;28515,442;11,09538
 281,70; 3398,314;  153,676;28993,081;11,25071
 282,30; 3517,312;  163,599;29674,353;11,36438
 282,90; 3673,747;  168,753;30003,444;11,74805
 283,49; 3817,843;  190,983;30517,786;11,95926
 284,09; 3970,148;  200,214;30896,231;12,28151
 284,69; 4088,140;  194,907;31311,375;12,51181
 285,28; 4225,189;  181,907;31608,199;12,86592
 285,88; 4435,109;  231,060;31904,705;13,27302
 286,47; 4493,250;  181,137;31901,565;13,59412
 287,07; 4679,936;  202,984;31975,438;14,09067
 287,67; 4822,339;  185,830;32122,739;14,51771
 288,26; 4978,421;  169,599;32037,774;15,08973
 288,86; 5176,174;  168,676;32056,294;15,70358
 289,46; 5364,237;  193,984;32185,292;16,16143
 290,05; 5632,334;  172,368;32376,766;16,95410
 290,65; 5882,492;  173,907;32494,359;17,66246
 291,24; 6170,753;  178,138;32665,551;18,44596
 291,84; 6450,869;  184,830;32740,907;19,24691
 292,44; 6702,866;  179,061;33002,715;19,87532
 293,03; 7087,975;  246,907;32988,735;20,89397
 293,63; 7287,730;  176,599;33084,504;21,60919
 294,22; 7540,696;  190,753;33347,104;22,16753
 294,82; 7800,240;  182,060;33256,310;23,03357
 295,41; 7898,237;  155,291;33060,774;23,53087
 296,01; 8170,428;  208,214;33008,575;24,27477
 296,61; 8269,093;  182,753;32641,087;24,91298
 297,20; 8342,313;  186,522;32323,950;25,37786
 297,80; 8482,669;  194,984;32156,885;25,92989
 298,39; 8563,339;  164,060;31774,877;26,57090
 298,99; 8665,479;  189,214;31656,241;26,93697
 299,58; 8744,836;  192,292;31571,638;27,25533
 300,18; 8734,876;  209,445;31366,877;27,36243
 300,78; 8801,020;  177,599;30948,409;28,02468
 301,37; 8910,567;  193,291;30891,191;28,39698
 301,97; 9023,989;  188,061;30939,660;28,73323
 302,56; 9064,075;  187,137;30906,361;28,89701
 303,16; 9096,800;  173,753;30840,917;29,09642
 303,75; 9163,745;  174,368;30857,002;29,29793
 304,35; 9356,909;  166,830;31103,257;29,70633
 304,94; 9379,359;  179,138;31040,448;29,81151
 305,54; 9391,401;  201,215;31020,913;29,81920
 306,13; 9521,989;  164,984;31012,753;30,33284
 306,73; 9548,532;  168,138;30770,960;30,65206
 307,33; 9560,866;  192,369;30714,351;30,69426
 307,92; 9623,839;  185,061;30785,136;30,84560
 308,52; 9770,873;  165,830;31199,806;30,95009
 309,11; 9984,380;  172,137;31705,231;31,11729
 309,71;10112,317;  168,599;31935,792;31,30185
 310,30;10241,297;  160,061;32195,179;31,46933
 310,90;10452,374;  198,061;32541,025;31,70493
 311,49;10465,353;  179,214;32617,051;31,71031
 312,09;10551,048;  152,599;32789,355;31,86116
 312,68;10778,898;  218,291;33185,330;32,03384
 313,28;10768,992;  159,907;33317,674;31,99578
 313,87;10792,072;  153,830;33457,421;31,94323
 314,47;10949,860;  169,214;33719,073;32,13321
 315,06;10973,345;  155,291;33846,369;32,10955
 315,66;11094,663;  156,061;33991,278;32,32904
 316,25;11011,974;  145,291;34000,199;32,09781
 316,85;11003,400;  140,215;34012,972;32,07057
 317,44;11087,854;  163,445;34187,697;32,10771
 318,04;11042,611;  154,368;34156,383;32,02235
 318,63;11013,695;  146,292;34237,622;31,87732
 319,22;11046,294;  171,445;34452,357;31,72275
 319,82;11073,674;  162,137;34418,304;31,85277
 320,41;11033,066;  181,214;34371,699;31,73939
 321,01;11014,606;  184,907;34386,656;31,66417
 321,60;11009,583;  176,214;34477,630;31,58286
 322,20;10894,209;  164,599;34382,000;31,35717
 322,79;10876,507;  198,368;34501,800;31,12849
 323,39;10883,689;  170,907;34565,974;31,14628
 323,98;10807,709;  149,522;34508,529;31,02007
 324,58;10820,498;  154,368;34408,391;31,13833
 325,17;10705,892;  176,599;34190,879;30,95551
 325,76;10616,249;  187,830;34036,681;30,80878
 326,36;10421,964;  143,368;33626,517;30,69782
 326,95;10274,201;  193,753;33357,126;30,39633
 327,55;10165,313;  148,676;32972,948;30,51595
 328,14; 9985,093;  161,292;32580,644;30,30227
 328,74; 9879,501;  189,830;32167,636;30,30124
 329,33; 9677,219;  178,907;31731,391;30,10321
 329,92; 9533,442;  156,214;31253,788;30,15421
 330,52; 9265,489;  173,753;30573,956;29,90683
 331,11; 9095,130;  171,445;30177,215;29,73990
 331,71; 8907,397;  165,522;29557,766;29,74211
 332,30; 8709,128;  177,445;29149,371;29,44810
 332,89; 8631,428;  213,984;28628,725;29,62351
 333,49; 8322,825;  187,907;28086,942;29,15842
 334,08; 8144,535;  175,368;27697,286;28,95571
 334,68; 7982,408;  180,907;27293,964;28,77396
 335,27; 7813,472;  186,215;26952,612;28,49564
 335,86; 7758,822;  224,753;26641,446;28,52011
 336,46; 7572,458;  181,061;26461,399;28,12520
 337,05; 7503,728;  171,599;26265,353;28,09917
 337,65; 7435,032;  153,291;26054,626;28,11338
 338,24; 7383,836;  213,907;26069,851;27,73029
 338,83; 7302,120;  192,984;25957,438;27,59281
 339,43; 7210,652;  167,984;25897,909;27,37151
 340,02; 7178,740;  162,291;25866,857;27,29651
 340,61; 7157,105;  170,138;25836,938;27,22181
 341,21; 7078,809;  208,137;25858,636;26,78572
 341,80; 7030,902;  175,368;25826,808;26,72573
 342,40; 7048,158;  170,292;25890,158;26,74145
 342,99; 7055,198;  165,445;25947,187;26,72338
 343,58; 6997,219;  177,368;26189,622;26,21784
 344,18; 7006,719;  195,522;26373,073;26,01923
 344,77; 7029,944;  164,599;26529,948;26,03927
 345,36; 7035,432;  148,676;26879,818;25,76304
 345,96; 7132,160;  201,984;27219,638;25,65055
 346,55; 7109,136;  151,369;27427,300;25,50882
 347,14; 7155,031;  152,907;27772,144;25,35234
 347,74; 7192,669;  143,292;28192,844;25,13187
 348,33; 7360,174;  164,677;28854,944;25,07993
 348,92; 7455,762;  178,061;29402,688;24,90263
 349,52; 7483,619;  140,215;29849,887;24,71722
 350,11; 7550,598;  175,907;30115,958;24,63153
 350,70; 7521,309;  167,061;30103,798;24,56596
 351,29; 7340,519;  160,291;29828,098;24,20209
 351,89; 7351,910;  176,983;29840,031;24,18810
 352,48; 7276,359;  155,215;29908,351;23,93410
 353,07; 7208,679;  174,599;29796,583;23,74615
 353,67; 7122,271;  189,215;29796,109;23,41703
 354,26; 7066,117;  164,676;29465,729;23,55356
 354,85; 6962,273;  173,907;29381,496;23,24179
 355,45; 6862,461;  158,830;29187,341;23,09326
 356,04; 6796,795;  168,753;29179,958;22,84649
 356,63; 6752,417;  200,676;28979,836;22,76557
 357,22; 6618,547;  176,675;28835,197;22,47803
 357,82; 6561,110;  173,829;28527,954;22,52681
 358,41; 6548,794;  190,291;28522,847;22,44239
 359,00; 6365,584;  155,907;28267,802;22,08915
 359,60; 6371,443;  174,676;28241,266;22,07880
 360,19; 6282,793;  174,292;28045,826;21,91663
 360,78; 6223,783;  177,984;27864,379;21,83672
 361,37; 6125,742;  169,061;27730,181;21,61263
 361,97; 6068,687;  169,676;27624,442;21,48629
 362,56; 5970,400;  167,753;27299,264;21,38711
 363,15; 5982,396;  202,830;27001,114;21,56693
 363,74; 5762,674;  174,291;26660,845;21,09894
 364,34; 5675,616;  194,291;26339,415;20,96500
 364,93; 5544,574;  163,291;25935,873;20,87987
 365,52; 5496,207;  141,445;25588,830;21,04248
 366,11; 5396,362;  173,599;25238,079;20,83731
 366,71; 5263,679;  160,907;24896,203;20,62952
 367,30; 5219,260;  173,522;24575,417;20,67765
 367,89; 5166,844;  207,215;24348,725;20,54399
 368,48; 5067,976;  182,291;24090,525;20,43516
 369,07; 4943,078;  178,138;23657,413;20,29424
 369,67; 4911,905;  203,291;23383,363;20,31320
 370,26; 4812,073;  163,445;23103,863;20,26392
 370,85; 4747,890;  177,137;22920,245;20,09731
 371,44; 4705,326;  163,214;22611,778;20,23342
 372,03; 4635,087;  151,907;22418,770;20,13387
 372,63; 4576,784;  141,984;22051,743;20,24121
 373,22; 4509,288;  162,368;21824,363;20,06703
 373,81; 4443,728;  140,907;21614,122;20,03808
 374,40; 4405,486;  153,522;21310,691;20,09704
 374,99; 4361,274;  157,753;21122,573;20,05036
 375,59; 4270,601;  163,061;20765,855;19,93681
 376,18; 4266,354;  191,522;20688,377;19,88028
 376,77; 4247,509;  184,368;20538,952;19,96180
 377,36; 4219,402;  194,599;20427,029;19,89283
 377,95; 4198,442;  181,291;20167,268;20,09985
 378,55; 4128,222;  164,907;19976,041;20,00549
 379,14; 4159,470;  177,522;19901,675;20,18818
 379,73; 4117,283;  165,676;19853,332;20,07149
 380,32; 4152,080;  183,984;19873,181;20,15367
 380,91; 4107,304;  159,676;19667,575;20,23605
 381,50; 4144,897;  181,137;19730,834;20,27530
 382,10; 4107,542;  165,599;19588,104;20,29575
 382,69; 4079,290;  153,061;19536,843;20,25523
 383,28; 4117,365;  185,214;19485,519;20,37352
 383,87; 4055,193;  170,599;19354,118;20,24964
 384,46; 4103,421;  156,599;19303,219;20,61368
 385,05; 4119,349;  194,368;19336,249;20,50468
 385,64; 4114,054;  173,984;19253,926;20,65033
 386,24; 4111,350;  151,214;19260,693;20,72341
 386,83; 4192,488;  185,676;19307,347;20,95430
 387,42; 4215,895;  185,907;19437,221;20,93357
 388,01; 4253,474;  175,906;19692,501;20,89282
 388,60; 4310,821;  180,060;19935,642;20,90933
 389,19; 4397,592;  162,521;20071,470;21,27220
 389,78; 4449,528;  163,137;20300,531;21,28573
 390,37; 4621,712;  226,829;20795,837;21,36653
 390,96; 4664,287;  171,983;20851,213;21,72375
 391,56; 4674,676;  182,136;20980,634;21,60031
 392,15; 4767,084;  156,367;21348,835;21,75640
 392,74; 4802,494;  147,059;21537,383;21,76421
 393,33; 4941,720;  167,290;21800,272;22,07014
 393,92; 5072,886;  173,905;22148,280;22,29406
 394,51; 5119,658;  169,367;22328,946;22,33928
 395,10; 5229,781;  191,212;22592,145;22,49267
 395,69; 5269,883;  172,828;22659,440;22,66706
 396,28; 5326,554;  187,828;22780,161;22,74544
 396,87; 5374,527;  175,366;22794,544;22,98563
 397,46; 5434,550;  191,750;22963,056;23,02371
 398,06; 5539,778;  198,596;23203,119;23,21797
 398,65; 5566,133;  184,672;23227,508;23,35416
 399,24; 5654,560;  204,056;23470,283;23,42668
 399,83; 5658,992;  175,516;23419,733;23,59071
 400,42; 5777,669;  203,053;23563,588;23,86339
 401,01; 5847,221;  185,975;23697,214;24,07889
 401,60; 5905,785;  194,281;23692,232;24,30639
 402,19; 5897,804;  220,049;23599,757;24,28497
 402,78; 5958,768;  222,354;23670,337;24,46442
 403,37; 5979,423;  208,967;23485,360;24,79102
 403,96; 5952,386;  200,734;23392,403;24,80051
 404,55; 6011,408;  220,577;23298,760;25,09223
 405,14; 5964,835;  199,113;23194,704;25,07316
 405,73; 6001,556;  215,417;23072,266;25,31468
 406,32; 6055,556;  222,569;22959,260;25,65451
 406,91; 6042,380;  202,028;22680,458;25,98203
 407,50; 6062,654;  215,873;22530,604;26,20144
 408,09; 5999,060;  186,103;22248,987;26,34722
 408,68; 6003,140;  196,641;22130,582;26,47267
 409,27; 5998,361;  186,488;21935,551;26,72241
 409,86; 6041,181;  200,644;21860,399;26,96493
 410,45; 6071,754;  232,645;21774,441;27,10595
 411,04; 6075,754;  236,801;21640,738;27,27981
 411,63; 6017,246;  213,187;21399,610;27,39518
 412,22; 6035,271;  217,574;21270,990;27,63303
 412,81; 6021,815;  222,959;20933,498;27,99954
 413,40; 5963,057;  249,652;20594,959;28,08217
 413,99; 6018,550;  267,960;20389,882;28,57873
 414,58; 5818,431;  208,498;19983,338;28,36904
 415,17; 5806,466;  208,267;19843,761;28,51061
 415,76; 5783,607;  205,343;19646,204;28,69350
 416,35; 5780,914;  194,882;19356,030;29,15291
 416,94; 5854,290;  229,805;19554,581;29,10505
 417,53; 5972,605;  215,190;19687,836;29,56668
 418,12; 6014,333;  206,036;19787,445;29,66230
 418,71; 6159,873;  232,114;20191,765;29,69871
 419,30; 6235,372;  216,652;20276,876;30,00325
 419,89; 6330,685;  203,267;20467,311;30,23788
 420,48; 6507,610;  235,114;20775,844;30,53687
 421,07; 6557,204;  229,729;20800,062;30,76020
 421,66; 6533,242;  200,037;20766,724;30,79351
 422,25; 6575,810;  203,115;20757,681;31,00379
 422,84; 6616,150;  231,500;20748,871;31,11826
 423,43; 6597,640;  220,500;20404,088;31,59567
 424,02; 6599,156;  234,961;20179,384;31,90965
 424,60; 6469,842;  206,578;19787,501;31,98657
 425,19; 6396,005;  222,654;19548,224;31,94395
 425,78; 6451,023;  240,654;19501,989;32,24267
 426,37; 6414,611;  236,039;19304,849;32,40145
 426,96; 6408,569;  219,193;19247,266;32,52760
 427,55; 6405,168;  211,116;19035,553;32,90431
 428,14; 6351,546;  206,501;18860,636;32,94200
 428,73; 6325,615;  228,501;18686,169;33,03296
 429,32; 6362,891;  231,962;18637,883;33,30955
 429,91; 6414,816;  247,116;18703,205;33,41824
 430,50; 6391,391;  239,732;18496,159;33,69585
 431,08; 6348,332;  252,117;18415,557;33,56311
 431,67; 6415,193;  296,502;18284,691;34,01505
 432,26; 6410,820;  305,502;18077,559;34,35347
 432,85; 6320,600;  340,656;17763,604;34,32223
 433,44; 6216,063;  336,118;17385,023;34,48870
 434,03; 6115,765;  348,349;17082,008;34,46596
 434,62; 6019,735;  307,425;16701,952;34,84279
 435,21; 5995,352;  328,040;16469,644;35,10997
 435,79; 5960,952;  331,041;16336,814;35,17425
 436,38; 5937,206;  313,734;16279,858;35,22127
 436,97; 5900,766;  312,041;16185,273;35,20849
 437,56; 5882,503;  311,273;15964,310;35,59201
 438,15; 5884,364;  279,273;15853,253;35,99010
 438,74; 5918,413;  296,965;15926,346;35,96718
 439,33; 5917,326;  265,965;15886,494;36,17906
 439,91; 5955,978;  228,581;15945,350;36,44131
 440,50; 6022,292;  284,196;16038,265;36,42294
 441,09; 6123,575;  278,197;16137,216;36,85838
 441,68; 6079,630;  268,735;16097,048;36,71203
 442,27; 6108,536;  249,658;16117,378;36,92325
 442,86; 6141,778;  232,505;16092,763;37,25837
 443,44; 6170,042;  240,351;16162,261;37,24234
 444,03; 6294,252;  298,198;16223,997;37,64994
 444,62; 6189,628;  244,351;16069,566;37,56838
 445,21; 6129,709;  251,659;15914,696;37,52816
 445,80; 6212,197;  284,890;15782,390;38,24686
 446,39; 6135,856;  290,429;15504,817;38,42039
 446,97; 6017,271;  245,814;15352,756;38,20401
 447,56; 5926,608;  247,583;15120,833;38,18281
 448,15; 5875,842;  243,660;14991,139;38,19081
 448,74; 5893,023;  266,429;14672,104;39,05818
 449,33; 5784,157;  235,276;14587,031;38,66343
 449,91; 5723,379;  246,815;14400,616;38,69324
 450,50; 5659,976;  242,430;14179,487;38,87152
 451,09; 5643,414;  255,276;14091,361;38,94265
 451,68; 5646,538;  268,969;13991,513;39,18784
 452,26; 5601,194;  267,507;13882,268;39,17577
 452,85; 5553,332;  251,199;13837,578;39,02535
 453,44; 5598,790;  267,277;13788,136;39,43176
 454,03; 5620,563;  239,354;13776,037;39,75279
 454,61; 5634,781;  236,662;13755,146;39,93139
 455,20; 5716,225;  273,816;13940,687;39,82191
 455,79; 5729,108;  268,662;13927,663;39,97691
 456,38; 5750,481;  268,739;14007,442;39,89999
 456,97; 5792,648;  252,124;14070,310;40,09588
 457,55; 5816,992;  250,047;14089,802;40,22430
 458,14; 5842,845;  276,585;14042,968;40,43371
 458,73; 5803,829;  255,355;14008,120;40,34443
 459,31; 5824,136;  288,278;14014,715;40,32990
 459,90; 5897,163;  290,509;14131,760;40,50685
 460,49; 6005,336;  334,432;14244,717;40,76771
 461,08; 5980,703;  264,971;14325,004;40,65234
 461,66; 6023,278;  267,586;14367,019;40,82215
 462,25; 6058,490;  270,971;14422,905;40,89560
 462,84; 6087,387;  297,202;14494,938;40,78246
 463,43; 6064,463;  226,971;14407,032;41,16690
 464,01; 6126,388;  261,125;14470,259;41,27812
 464,60; 6126,656;  299,894;14402,292;41,31753
 465,19; 6014,487;  242,972;14172,423;41,43390
 465,77; 6032,682;  269,972;14117,024;41,61687
 466,36; 6037,856;  281,433;13996,694;41,97093
 466,95; 5866,413;  256,356;13737,152;41,61518
 467,53; 5774,318;  275,203;13416,862;41,84491
 468,12; 5694,842;  284,434;13175,399;41,97055
 468,71; 5554,496;  266,895;12915,296;41,80451
 469,29; 5489,109;  249,511;12695,642;42,09821
 469,88; 5419,502;  266,357;12500,496;42,12103
 470,47; 5475,965;  329,280;12548,915;42,11816
 471,06; 5369,602;  272,819;12534,273;41,56752
 471,64; 5482,009;  281,280;12691,803;41,90579
 472,23; 5462,654;  242,896;12681,781;41,96323
 472,81; 5519,732;  253,050;12749,243;42,14630
 473,40; 5580,648;  261,127;13004,846;41,74230
 473,99; 5693,050;  346,281;13160,323;41,72586
 474,57; 5710,627;  259,742;13250,487;41,95975
 475,16; 5788,952;  274,742;13372,506;42,10039
 475,75; 5826,201;  290,281;13477,287;41,98011
 476,33; 5897,394;  292,666;13553,813;42,26428
 476,92; 5884,737;  300,973;13603,829;41,97418
 477,51; 5936,831;  285,666;13671,153;42,21859
 478,09; 5962,635;  272,974;13702,109;42,36804
 478,68; 5939,042;  289,666;13595,350;42,45837
 479,27; 5941,060;  311,435;13701,522;42,04323
 479,85; 5977,261;  287,281;13703,038;42,41266
 480,44; 5992,340;  276,974;13868,131;42,05209
 481,02; 6525,337;  281,051;15608,402;40,73950
 481,61; 7416,871;  310,897;17388,639;41,60956
 482,20; 7943,227;  305,436;18436,789;42,12477
 482,78; 8331,303;  331,512;19187,657;42,42538
 483,37; 8568,123;  327,205;19643,013;42,66411
 483,95; 8676,112;  357,975;20013,353;42,31990
 484,54; 8782,725;  370,974;20144,321;42,54086
 485,13; 8721,447;  337,667;20034,163;42,56483
 485,71; 8659,656;  317,975;19790,230;42,83880
 486,30; 8542,538;  351,898;19542,570;42,68032
 486,88; 8479,802;  393,436;19107,604;43,20986
 487,47; 8131,297;  376,898;18360,869;43,11839
 488,05; 7759,846;  358,129;17495,548;43,19039
 488,64; 7216,903;  349,283;16059,475;43,71443
 489,23; 6527,921;  355,591;14183,165;44,63784
 489,81; 5565,203;  354,283;12316,831;43,56029
 490,40; 5226,813;  320,822;11823,952;42,64919
 490,98; 5142,513;  299,745;11561,827;43,00065
 491,57; 5046,271;  322,129;11500,035;42,26321
 492,15; 5057,070;  309,822;11427,977;42,69817
 492,74; 4976,133;  312,667;11319,477;42,36892
 493,32; 4953,543;  325,514;11206,867;42,53174
 493,91; 4886,329;  296,591;11161,517;42,24362
 494,50; 4867,951;  317,207;11123,602;42,11159
 495,08; 4808,442;  292,822;11050,719;41,97493
 495,67; 4822,415;  317,283;11013,507;42,11890
 496,25; 4738,096;  255,130;10847,096;42,32421
 496,84; 4766,684;  280,283;10870,055;42,36541
 497,42; 4714,988;  264,899;10808,134;42,20800
 498,01; 4719,320;  278,206;10786,547;42,26275
 498,59; 4641,979;  246,668;10711,606;42,00035
 499,18; 4632,413;  249,899;10642,047;42,17139
 499,76; 4637,371;  282,437;10534,406;42,47900
 500,35; 4558,062;  272,361;10382,539;42,38997
 500,93; 4501,967;  245,361;10380,776;41,99735
 501,52; 4473,627;  261,284;10274,065;42,06966
 502,10; 4482,479;  270,438;10250,171;42,20595
 502,69; 4382,369;  255,900;10120,749;41,83003
 503,27; 4312,818;  234,207; 9897,576;42,20693
 503,86; 4283,602;  250,669; 9860,824;41,96532
 504,44; 4220,687;  227,438; 9778,525;41,80936
 505,03; 4104,157;  219,361; 9540,802;41,67592
 505,61; 4086,562;  238,515; 9417,662;41,92161
 506,19; 4023,385;  256,054; 9241,075;41,92901
 506,78; 3942,058;  230,362; 9085,577;41,91537
 507,36; 3877,630;  229,361; 8926,057;41,95006
 507,95; 3806,356;  234,900; 8738,415;41,99976
 508,53; 3750,543;  237,516; 8704,375;41,49151
 509,12; 3683,678;  247,054; 8504,879;41,61657
 509,70; 3613,815;  262,439; 8391,822;41,22547
 510,29; 3565,587;  257,670; 8187,741;41,71358
 510,87; 3444,064;  233,131; 8085,205;40,89280
 511,46; 3394,234;  226,131; 7883,685;41,37225
 512,04; 3325,221;  242,285; 7748,083;41,07406
 512,62; 3274,346;  245,054; 7648,102;40,91953
 513,21; 3191,915;  224,208; 7429,407;41,18841
 513,79; 3136,192;  227,824; 7325,385;40,97700
 514,38; 3060,118;  210,747; 7153,170;41,04289
 514,96; 3059,248;  253,824; 7072,624;41,14249
 515,54; 2924,341;  221,670; 6956,391;40,13041
 516,13; 2939,623;  246,824; 6858,308;40,72912
 516,71; 2834,517;  240,901; 6759,824;39,78595
 517,30; 2824,028;  215,132; 6655,856;40,50625
 517,88; 2802,487;  245,978; 6549,899;40,55426
 518,46; 2723,251;  216,825; 6445,769;40,23838
 519,05; 2710,703;  222,517; 6391,915;40,33110
 519,63; 2685,575;  237,056; 6323,787;40,22716
 520,22; 2653,047;  249,979; 6288,022;39,79878
 520,80; 2638,293;  242,287; 6198,368;40,22789
 521,38; 2667,402;  262,748; 6200,291;40,49913
 521,97; 2558,129;  221,595; 6142,052;39,46544
 522,55; 2585,718;  241,133; 6160,067;39,61161
 523,13; 2549,069;  231,441; 6158,127;39,10495
 523,72; 2593,710;  233,517; 6114,658;40,13154
 524,30; 2647,381;  254,210; 6244,255;39,95247
 524,89; 2591,452;  228,672; 6275,014;39,07785
 525,47; 2652,977;  241,826; 6379,471;39,28462
 526,05; 2647,498;  217,210; 6445,512;39,02007
 526,64; 2697,706;  246,672; 6579,212;38,70539
 527,22; 2752,548;  241,133; 6699,623;38,88547
 527,80; 2813,215;  272,749; 6847,730;38,63838
 528,39; 2799,584;  234,364; 6929,961;38,31203
 528,97; 2878,296;  245,057; 7088,668;38,47733
 529,55; 2936,779;  251,749; 7287,682;38,16168
 530,14; 3022,594;  262,288; 7408,121;38,62819
 530,72; 3030,793;  245,518; 7543,700;38,16395
 531,30; 3058,763;  228,134; 7703,083;37,86821
 531,89; 3102,745;  237,903; 7794,836;37,91012
 532,47; 3188,882;  267,442; 7893,471;38,30880
 533,05; 3166,410;  268,595; 7934,621;37,80075
 533,63; 3178,738;  278,595; 7979,036;37,66203
 534,22; 3180,534;  250,365; 7972,022;37,94741
 534,80; 3196,779;  262,442; 8099,771;37,44053
 535,38; 3315,882;  341,672; 8203,953;37,82884
 535,97; 3197,782;  266,903; 8173,981;37,06652
 536,55; 3225,881;  305,211; 8254,394;36,74176
 537,13; 3200,117;  323,441; 8215,447;36,45051
 537,71; 3225,641;  373,903; 8254,101;36,18866
 538,30; 3261,680;  386,826; 8350,242;36,10076
 538,88; 3311,208;  432,134; 8478,329;35,78181
 539,46; 3383,214;  498,826; 8667,939;35,30846
 540,05; 3417,320;  527,519; 8820,864;34,84482
 540,63; 3506,920;  572,519; 8990,574;34,85843
 541,21; 3585,070;  614,673; 9193,347;34,62537
 541,79; 3613,437;  671,058; 9311,562;34,05333
 542,38; 3667,766;  689,519; 9445,133;34,01529
 542,96; 3751,922;  693,058; 9619,609;34,26703
 543,54; 3826,987;  719,596; 9836,509;34,08381
 544,12; 3830,592;  681,058; 9928,388;34,05885
 544,70; 3828,413;  661,365;10039,321;33,77120
 545,29; 3885,657;  673,673;10246,750;33,55226
 545,87; 3894,129;  633,596;10184,716;34,13771
 546,45; 3853,840;  591,365;10217,022;33,89353
 547,03; 3848,412;  572,981;10300,497;33,67182
 547,62; 3877,426;  518,211;10439,230;33,85957
 548,20; 3930,377;  521,442;10550,924;33,98914
 548,78; 3893,682;  485,058;10661,424;33,49550
 549,36; 3980,126;  440,827;10878,890;33,90762
 549,94; 3982,918;  396,904;10967,230;33,92529
 550,53; 4042,323;  394,597;11243,548;33,62285
 551,11; 4086,095;  366,597;11426,754;33,62970
 551,69; 4168,901;  372,443;11750,056;33,36779
 552,27; 4216,224;  335,750;11965,538;33,36668
 552,85; 4318,521;  339,828;12399,722;32,99111
 553,44; 4422,087;  327,827;12632,746;33,27336
 554,02; 4495,505;  348,520;12991,011;32,80196
 554,60; 4553,409;  283,751;13303,900;32,79270
 555,18; 4728,877;  337,674;13660,566;32,95984
 555,76; 4773,668;  296,751;14025,058;32,61085
 556,34; 4918,592;  319,982;14440,574;32,56669
 556,93; 4992,120;  292,827;14817,570;32,35371
 557,51; 5092,722;  272,828;15124,930;32,45261
 558,09; 5199,785;  311,674;15550,738;32,07619
 558,67; 5291,197;  301,982;15980,181;31,82263
 559,25; 5405,196;  313,905;16151,376;32,14713
 559,83; 5475,829;  293,366;16481,564;32,01384
 560,41; 5546,195;  286,058;16862,821;31,73199
 561,00; 5599,138;  297,982;17133,505;31,48792
 561,58; 5721,490;  280,597;17395,894;31,78965
 562,16; 5764,275;  271,904;17779,125;31,37203
 562,74; 5829,993;  263,827;18061,689;31,27435
 563,32; 5928,409;  258,366;18555,839;30,98812
 563,90; 6029,437;  285,982;18895,612;30,86281
 564,48; 6132,720;  285,751;19333,837;30,69584
 565,06; 6256,969;  280,289;19947,851;30,38851
 565,65; 6427,107;  292,059;20622,618;30,17649
 566,23; 6664,550;  322,520;21339,029;30,17642
 566,81; 6828,622;  278,059;22097,728;30,02137
 567,39; 7068,892;  294,136;22907,408;29,95920
 567,97; 7199,229;  308,982;23588,507;29,59789
 568,55; 7468,876;  321,982;24428,159;29,64756
 569,13; 7593,603;  289,366;25136,232;29,39701
 569,71; 7849,548;  276,135;26086,631;29,34237
 570,29; 8100,229;  326,443;27122,260;29,01119
 570,87; 8291,307;  312,058;27695,989;29,13844
 571,45; 8428,588;  314,443;28347,347;28,94507
 572,03; 8476,928;  282,828;28732,112;28,80248
 572,61; 8655,601;  274,520;29528,849;28,64903
 573,20; 8779,793;  299,828;30153,456;28,40514
 573,78; 8946,879;  293,828;30820,809;28,34559
 574,36; 9034,473;  312,213;31253,624;28,18960
 574,94; 9174,811;  364,213;31533,971;28,26649
 575,52; 9104,344;  308,213;31827,474;27,90716
 576,10; 9311,550;  363,367;32450,122;27,88747
 576,68; 9386,286;  358,290;33028,049;27,63411
 577,26; 9544,405;  367,521;33736,551;27,50120
 577,84; 9665,435;  385,059;34142,922;27,49101
 578,42; 9661,477;  422,905;34469,867;27,13479
 579,00; 9662,042;  361,905;34548,932;27,20370
 579,58; 9681,701;  415,982;34727,896;27,00438
 580,16; 9596,564;  384,905;34758,278;26,79882
 580,74; 9663,150;  384,213;34964,545;26,83299
 581,32; 9581,435;  389,059;35108,920;26,47584
 581,90; 9565,519;  427,444;35079,815;26,37071
 582,48; 9524,650;  405,982;35241,094;26,17666
 583,06; 9501,840;  412,982;35258,837;26,08304
 583,64; 9469,947;  409,520;35402,877;25,89185
 584,22; 9435,656;  424,675;35244,258;25,87906
 584,80; 9343,608;  423,982;34992,377;25,80283
 585,38; 9193,204;  435,443;34555,309;25,66763
 585,96; 9112,590;  392,059;34740,574;25,38838
 586,54; 9100,294;  421,829;34710,153;25,31026
 587,12; 9087,793;  387,290;34850,896;25,24548
 587,70; 9050,792;  416,751;35114,610;24,88350
 588,28; 9049,834;  390,290;35095,402;24,95178
 588,86; 9100,086;  391,059;35225,047;25,00152
 589,44; 8982,614;  386,290;35307,462;24,61637
 590,02; 9004,870;  375,059;35498,642;24,56985
 590,59; 9059,326;  368,367;35700,997;24,59755
 591,17; 9026,065;  359,291;35892,185;24,39085
 591,75; 8986,418;  353,983;35999,092;24,21773
 592,33; 9033,561;  364,675;36339,778;24,09690
 592,91; 9027,570;  315,906;36533,304;24,05381
 593,49; 9055,140;  327,598;36828,725;23,91033
 594,07; 9060,096;  342,521;37042,569;23,75358
 594,65; 9054,445;  354,598;37044,483;23,71184
 595,23; 9065,654;  339,367;37404,855;23,54289
 595,81; 9085,448;  345,060;37547,997;23,49381
 596,39; 9054,401;  324,598;37683,478;23,36741
 596,97; 9041,860;  328,598;37855,211;23,21889
 597,55; 8980,009;  325,213;37711,778;23,14948
 598,12; 8941,703;  314,291;37800,790;23,01472
 598,70; 8900,633;  310,214;38006,764;22,78834
 599,28; 8883,506;  331,137;38069,134;22,66249
 599,86; 8815,775;  315,598;38174,991;22,45196
 600,44; 8793,758;  282,906;38262,318;22,40912
 601,02; 8818,263;  340,368;38274,454;22,34902
 601,60; 8716,462;  310,598;38211,478;22,17855
 602,18; 8682,904;  296,983;38197,924;22,12589
 602,75; 8658,708;  294,983;38376,806;21,96251
 603,33; 8680,831;  306,598;38291,535;22,04619
 603,91; 8568,841;  300,445;38330,559;21,74171
 604,49; 8540,834;  326,521;38431,723;21,55693
 605,07; 8526,536;  334,060;38389,059;21,52799
 605,65; 8510,714;  364,983;38516,296;21,35112
 606,23; 8525,900;  413,675;38688,742;21,19454
 606,80; 8506,229;  480,983;38775,483;20,95666
 607,38; 8411,275;  527,522;38761,132;20,61996
 607,96; 8434,569;  578,444;38960,250;20,46836
 608,54; 8462,543;  643,829;38955,049;20,40842
 609,12; 8424,410;  664,521;39056,084;20,21248
 609,70; 8425,319;  711,598;39105,464;20,09102
 610,27; 8384,332;  707,752;39194,796;19,94588
 610,85; 8356,230;  728,060;39233,460;19,81065
 611,43; 8311,932;  725,060;39176,948;19,73082
 612,01; 8242,512;  691,367;38928,974;19,74795
 612,59; 8163,310;  683,675;38959,187;19,54157
 613,16; 8081,597;  643,213;38847,966;19,46979
 613,74; 8037,089;  613,137;38764,905;19,45900
 614,32; 7966,921;  549,214;38724,268;19,43077
 614,90; 7899,522;  499,829;38549,519;19,44745
 615,48; 7740,402;  453,290;38134,209;19,33900
 616,05; 7689,632;  407,290;38243,788;19,24687
 616,63; 7592,246;  421,982;37956,906;19,10291
 617,21; 7592,477;  411,290;37898,211;19,15651
 617,79; 7464,975;  385,213;37770,203;18,93744
 618,36; 7447,441;  404,137;37711,889;18,87893
 618,94; 7294,553;  337,213;37384,847;18,77945
 619,52; 7212,740;  370,367;37017,883;18,67077
 620,10; 7136,762;  356,290;37089,547;18,45867
 620,67; 7098,580;  358,982;36973,199;18,40705
 621,25; 7044,299;  374,137;36797,816;18,31271
 621,83; 6963,639;  358,444;36743,509;18,15359
 622,41; 6985,012;  398,136;36802,043;18,09387
 622,98; 6859,971;  365,675;36487,673;17,97878
 623,56; 6848,535;  363,444;36488,987;17,95154
 624,14; 6700,292;  337,675;36356,652;17,66462
 624,72; 6664,527;  335,675;36237,323;17,62830
 625,29; 6670,177;  327,521;36403,126;17,58157
 625,87; 6621,685;  367,752;36321,989;17,39415
 626,45; 6543,499;  319,674;36112,744;17,38835
 627,02; 6485,416;  316,983;36082,363;17,24694
 627,60; 6416,483;  314,829;36020,701;17,08866
 628,18; 6414,563;  303,752;36171,391;17,03712
 628,76; 6345,787;  305,675;36192,786;16,83087
 629,33; 6338,546;  340,059;36113,721;16,76789
 629,91; 6308,992;  325,598;36022,547;16,76164
 630,49; 6328,895;  328,444;36232,402;16,71251
 631,06; 6289,536;  326,675;36390,638;16,53413
 631,64; 6263,624;  319,059;36324,626;16,51013
 632,22; 6201,752;  274,597;36382,197;16,41526
 632,79; 6260,317;  322,059;36485,337;16,42069
 633,37; 6167,642;  297,675;36621,177;16,16025
 633,95; 6148,898;  288,136;36675,495;16,10659
 634,52; 6148,867;  276,675;36730,705;16,10848
 635,10; 6118,602;  289,367;36741,786;15,99135
 635,68; 6136,992;  286,828;36947,244;15,95771
 636,25; 6093,501;  276,905;36915,262;15,87570
 636,83; 6116,403;  262,213;37121,017;15,88274
 637,41; 6106,033;  274,674;37206,001;15,78973
 637,98; 6120,233;  306,444;37369,365;15,68627
 638,56; 6049,412;  293,213;37423,894;15,50254
 639,13; 6051,967;  268,982;37536,408;15,51753
 639,71; 6108,888;  313,367;37616,102;15,53645
 640,29; 5933,279;  249,290;37483,827;15,26537
 640,86; 5990,254;  263,829;37608,175;15,33412
 641,44; 5913,691;  257,059;37643,369;15,13022
 642,02; 5935,281;  290,675;37552,947;15,14831
 642,59; 5916,409;  267,752;37784,833;15,05623
 643,17; 5867,615;  268,213;37738,797;14,94346
 643,74; 5889,436;  268,521;37719,375;15,00878
 644,32; 5817,257;  289,675;37727,185;14,76482
 644,89; 5800,232;  287,444;37749,917;14,71549
 645,47; 5791,361;  293,136;37742,649;14,68170
 646,05; 5724,951;  283,444;37635,997;14,56797
 646,62; 5671,541;  279,444;37705,499;14,40734
 647,20; 5689,747;  280,829;37790,001;14,42025
 647,77; 5615,029;  255,598;37644,271;14,33437
 648,35; 5576,312;  250,906;37527,465;14,28621
 648,92; 5579,441;  279,367;37684,429;14,16940
 649,50; 5473,646;  250,906;37519,623;14,01374
 650,08; 5458,313;  245,444;37436,201;14,01657
 650,65; 5467,673;  250,059;37720,164;13,92474
 651,23; 5497,725;  235,367;38578,204;13,72449
 651,80; 5633,776;  252,213;39453,014;13,72820
 652,38; 5655,751;  268,521;39722,439;13,65449
 652,95; 5689,034;  226,752;40098,709;13,69956
 653,53; 5705,470;  258,290;40364,211;13,58198
 654,10; 5728,676;  281,444;40538,482;13,53113
 654,68; 5625,420;  244,675;40444,676;13,38494
 655,25; 5645,472;  239,213;40461,716;13,44088
 655,83; 5620,062;  228,136;40508,141;13,38611
 656,40; 5612,960;  271,598;40445,104;13,29573
 656,98; 5563,704;  254,136;40318,683;13,25253
 657,55; 5499,063;  246,829;40238,184;13,13342
 658,13; 5447,038;  248,060;39854,147;13,12672
 658,70; 5414,551;  253,521;39571,803;13,12629
 659,28; 5264,526;  246,060;38705,305;13,04879
 659,85; 5119,347;  262,675;37995,652;12,87116
 660,43; 5123,399;  272,213;38124,539;12,81608
 661,00; 5052,912;  257,675;38183,887;12,64360
 661,58; 5097,426;  241,060;38596,927;12,66134
 662,15; 5075,016;  242,598;38731,659;12,55530
 662,73; 5189,837;  301,983;39005,930;12,62883
 663,30; 5144,119;  253,367;39203,816;12,55634
 663,88; 5154,787;  256,060;39421,702;12,50771
 664,45; 5131,761;  244,367;39620,666;12,41202
 665,03; 5172,121;  254,521;39985,937;12,37711
 665,60; 5293,557;  316,214;40520,746;12,38006
 666,17; 5179,071;  254,598;40428,017;12,25804
 666,75; 5178,507;  242,214;40843,288;12,15804
 667,32; 5258,636;  267,829;41217,482;12,18767
 667,90; 5251,072;  245,598;41383,445;12,16756
 668,47; 5240,047;  271,367;41710,177;11,99040
 669,05; 5250,868;  246,675;41959,987;11,99663
 669,62; 5226,381;  232,675;42068,334;11,93648
 670,19; 5211,356;  233,983;42169,990;11,86897
 670,77; 5267,254;  254,214;42304,492;11,92154
 671,34; 5232,690;  242,829;42208,070;11,89046
 671,92; 5211,819;  232,214;42635,572;11,74342
 672,49; 5262,256;  258,368;42667,920;11,79896
 673,06; 5168,538;  202,444;42635,114;11,70347
 673,64; 5175,667;  231,368;42700,461;11,64211
 674,21; 5133,719;  228,137;42609,886;11,57475
 674,79; 5224,693;  249,060;42890,311;11,66859
 675,36; 5184,976;  255,906;42975,966;11,53807
 675,93; 5092,951;  214,368;42917,237;11,42449
 676,51; 5146,541;  257,060;43025,124;11,43255
 677,08; 5131,054;  251,983;43040,702;11,40270
 677,65; 5152,568;  256,752;43272,204;11,38153
 678,23; 5163,235;  252,675;43462,936;11,36434
 678,80; 5087,056;  246,137;43560,438;11,17626
 679,38; 5114,492;  238,214;43675,940;11,22591
 679,95; 5145,852;  255,983;43972,518;11,18540
 680,52; 5127,596;  243,522;44151,789;11,12336
 681,10; 5192,571;  266,445;44679,675;11,09157
 681,67; 5235,622;  258,752;44925,254;11,14229
 682,24; 5150,443;  222,214;44956,371;11,01670
 682,82; 5216,341;  236,829;45528,796;10,99425
 683,39; 5300,085;  280,214;45801,605;11,02750
 683,96; 5273,445;  252,060;46075,414;10,95813
 684,54; 5279,343;  225,060;46441,070;10,93622
 685,11; 5380,395;  270,675;46745,956;10,99449
 685,68; 5368,985;  238,906;47180,458;10,92865
 686,25; 5344,883;  222,445;47207,498;10,90227
 686,83; 5368,858;  225,829;47329,000;10,91865
 687,40; 5356,525;  224,522;47665,886;10,81757
 687,97; 5458,500;  266,599;48162,003;10,84008
 688,55; 5376,321;  221,214;48141,505;10,75767
 689,12; 5373,911;  205,291;48464,929;10,71003
 689,69; 5351,732;  221,676;48479,431;10,63053
 690,26; 5409,322;  241,676;48570,240;10,69274
 690,84; 5388,297;  231,368;48818,896;10,61369
 691,41; 5462,272;  239,599;48830,320;10,74829
 691,98; 5433,323;  240,752;49118,591;10,62357
 692,56; 5419,144;  229,214;49195,785;10,59893
 693,13; 5480,350;  281,137;49234,749;10,62069
 693,70; 5479,171;  247,522;49411,558;10,64121
 694,27; 5424,607;  224,676;49584,367;10,53477
 694,84; 5400,044;  226,599;49660,792;10,46532
 695,42; 5506,096;  276,291;49738,524;10,57333
 695,99; 5430,070;  240,599;50041,565;10,42042
 696,56; 5451,430;  230,983;49822,989;10,52679
 697,13; 5509,789;  251,522;50241,106;10,51873
 697,71; 5509,457;  224,214;50276,993;10,55934
 698,28; 5489,970;  233,368;50717,956;10,41229
 698,85; 5478,945;  210,676;50624,227;10,45011
 699,42; 5479,304;  210,137;50795,728;10,41634
 699,99; 5544,894;  266,753;50976,999;10,40843
 700,57; 5535,331;  247,906;50926,347;10,43328
 701,14; 5509,998;  226,060;51028,464;10,40096
 701,71; 5529,819;  245,445;51214,043;10,36790
 702,28; 5541,717;  243,445;51274,390;10,38247
 702,85; 5531,076;  254,676;51489,815;10,29840
 703,43; 5547,897;  256,291;51675,163;10,29118
 704,00; 5571,641;  276,907;51821,280;10,27219
 704,57; 5512,693;  255,599;51809,012;10,19737
 705,14; 5604,822;  290,830;52136,437;10,24965
 705,71; 5612,720;  281,599;52095,785;10,28892
 706,28; 5554,541;  260,676;52033,056;10,22527
 706,86; 5600,208;  285,368;52219,096;10,23389
 707,43; 5620,029;  317,060;52161,136;10,22869
 708,00; 5568,081;  284,368;52207,869;10,17596
 708,57; 5492,671;  261,984;52063,293;10,09760
 709,14; 5576,800;  291,830;52260,256;10,16958
 709,71; 5574,236;  259,137;52303,527;10,21263
 710,28; 5615,519;  265,676;52506,952;10,24064
 710,86; 5631,647;  276,137;52649,685;10,22560
 711,43; 5648,161;  282,445;52711,955;10,23415
 712,00; 5640,289;  261,984;52665,534;10,26325
 712,57; 5640,495;  282,214;52900,113;10,18338
 713,14; 5622,778;  260,061;52861,153;10,19507
 713,71; 5673,906;  263,522;52892,808;10,28018
 714,28; 5656,804;  250,599;52935,079;10,26148
 714,85; 5602,317;  243,907;52642,965;10,22616
 715,42; 5629,369;  241,753;52961,775;10,21930
 716,00; 5715,344;  301,061;53003,353;10,27334
 716,57; 5668,319;  241,061;53124,316;10,26272
 717,14; 5657,601;  236,368;53061,972;10,26251
 717,71; 5642,192;  220,138;53154,935;10,24289
 718,28; 5709,013;  271,522;53179,821;10,27720
 718,85; 5636,449;  234,830;53209,631;10,19658
 719,42; 5710,039;  237,522;53375,440;10,29870
 719,99; 5692,322;  220,907;53217,326;10,32412
 720,56; 5734,912;  245,753;53485,367;10,31029
 721,13; 5686,964;  226,830;53548,253;10,24004
 721,70; 5706,093;  214,522;53383,601;10,32850
 722,27; 5669,375;  254,984;53449,179;10,17854
 722,84; 5784,119;  290,368;53625,296;10,30047
 723,41; 5704,632;  219,292;53601,952;10,27551
 723,98; 5764,223;  237,984;53809,223;10,31568
 724,55; 5780,659;  271,753;53838,109;10,28427
 725,12; 5737,249;  194,138;53899,611;10,32132
 725,69; 5795,840;  222,599;53996,343;10,36424
 726,27; 5808,738;  238,676;54020,691;10,35674
 726,84; 5856,866;  237,215;54352,962;10,38450
 727,41; 5881,226;  247,599;54325,310;10,41765
 727,98; 5874,277;  253,522;54627,042;10,33730
 728,55; 5949,868;  270,369;54566,774;10,46018
 729,12; 5888,304;  219,830;54591,199;10,42548
 729,69; 5938,125;  273,292;54819,855;10,38532
 730,26; 5967,715;  249,599;54991,972;10,44550
 730,82; 5938,229;  246,676;54801,858;10,43265
 731,39; 5970,434;  243,445;54894,283;10,47923
 731,96; 6007,332;  232,984;55116,169;10,52116
 732,53; 6050,999;  244,215;55468,824;10,51485
 733,10; 6074,205;  258,984;55492,711;10,52839
 733,67; 6127,795;  244,599;55699,751;10,60893
 734,24; 6033,924;  243,676;55432,099;10,49178
 734,81; 6130,976;  270,369;55555,754;10,60064
 735,38; 6094,797;  249,599;55315,256;10,61496
 735,95; 6081,156;  240,676;55056,219;10,65479
 736,52; 6112,131;  263,676;55354,336;10,61605
 737,09; 6111,106;  261,599;54997,838;10,68672
 737,66; 6182,004;  299,369;55233,109;10,70860
 738,23; 6122,132;  250,215;55200,072;10,68596
 738,80; 6196,646;  305,599;55528,573;10,66775
 739,37; 6207,005;  286,523;55690,383;10,68605
 739,94; 6208,211;  251,830;55706,423;10,74100
 740,51; 6364,416;  352,753;55704,078;10,86092
 741,07; 6249,007;  256,292;55709,349;10,80682
 741,64; 6304,828;  285,215;55927,697;10,81838
 742,21; 6270,572;  260,753;55903,353;10,80075
 742,78; 6266,008;  224,523;55704,931;10,88940
 743,35; 6322,291;  256,446;56020,510;10,87770
 743,92; 6351,804;  292,984;56187,781;10,83968
 744,49; 6398,394;  282,984;56069,821;10,96210
 745,06; 6353,138;  246,984;56056,707;10,94102
 745,63; 6386,036;  240,984;56037,055;11,01341
 746,19; 6389,242;  236,753;56016,326;11,03000
 746,76; 6454,371;  263,677;56017,520;11,10362
 747,33; 6435,499;  245,907;56044,021;11,09283
 747,90; 6470,089;  276,446;56258,908;11,06354
 748,47; 6474,680;  260,292;56098,563;11,12926
 749,04; 6498,655;  267,369;56140,065;11,15265
 749,61; 6594,937;  277,446;56087,874;11,31955
 750,17; 6563,066;  273,677;56126,453;11,26066
 750,74; 6573,810;  266,754;56050,339;11,30629
 751,31; 6531,862;  242,677;56038,379;11,27181
 751,88; 6536,298;  237,215;55875,804;11,32143
 752,45; 6580,811;  254,292;55955,306;11,35800
 753,02; 6620,555;  267,523;55796,423;11,44095
 753,58; 6601,146;  245,523;55712,924;11,45830
 754,15; 6636,890;  249,600;55850,580;11,48773
 754,72; 6658,634;  253,907;55587,620;11,57473
 755,29; 6632,147;  225,215;55477,429;11,59579
 755,86; 6701,584;  243,600;55599,392;11,66632
 756,42; 6680,635;  254,446;55484,202;11,63538
 756,99; 6647,687;  215,600;55437,396;11,64773
 757,56; 6673,123;  226,908;55457,897;11,67138
 758,13; 6629,175;  191,446;55448,784;11,65045
 758,70; 6742,765;  208,754;55384,285;11,84223
 759,26; 6750,433;  206,600;55497,633;11,83525
 759,83; 6749,023;  215,138;55651,904;11,78619
 760,40; 6777,536;  207,292;55360,559;11,91270
 760,97; 6758,742;  192,677;55437,446;11,88541
 761,53; 6765,332;  189,677;54953,794;12,00723
 762,10; 6754,307;  179,523;55044,218;11,98363
 762,67; 6821,897;  222,215;55154,181;12,01428
 763,24; 6745,487;  166,523;54675,760;12,06945
 763,80; 6823,924;  201,754;54842,877;12,11939
 764,37; 6805,822;  204,061;54755,379;12,10193
 764,94; 6757,643;  199,600;54295,573;12,12298
 765,50; 6772,002;  197,369;54383,382;12,13345
 766,07; 6881,285;  246,215;54367,653;12,25960
 766,64; 6819,798;  210,138;54001,770;12,28752
 767,21; 6828,157;  223,831;53891,656;12,30593
 767,77; 6847,902;  239,754;53840,927;12,32836
 768,34; 6860,415;  242,215;53776,737;12,36249
 768,91; 6870,082;  242,292;53575,084;12,42723
 769,47; 6880,903;  247,215;53579,817;12,43833
 770,04; 6862,801;  232,600;53440,011;12,46105
 770,61; 6897,699;  225,215;53255,435;12,58242
 771,18; 6887,058;  208,446;53085,091;12,63055
 771,74; 6933,033;  235,292;53323,285;12,61630
 772,31; 6956,239;  230,215;53058,940;12,73175
 772,88; 6894,291;  214,446;52707,750;12,72514
 773,44; 6924,958;  218,446;52618,482;12,79868
 774,01; 6971,317;  234,446;52727,599;12,83381
 774,58; 6914,600;  223,216;52399,947;12,82446
 775,14; 6993,498;  211,600;52576,064;12,95134
 775,71; 6951,780;  215,985;52494,797;12,88437
 776,27; 7060,370;  268,600;52398,067;13,02866
 776,84; 7079,807;  295,139;52499,492;12,99636
 777,41; 7048,089;  235,139;52180,071;13,11572
 777,97; 6968,218;  231,985;51969,342;13,02006
 778,54; 7012,578;  238,369;51924,766;13,10637
 779,11; 7078,860;  260,293;51930,191;13,19640
 779,67; 7055,989;  214,677;51953,308;13,22283
 780,24; 7072,810;  238,523;51668,887;13,28843
 780,80; 7074,708;  249,523;51699,773;13,26560
 781,37; 7057,144;  243,293;51610,659;13,26494
 781,94; 7103,196;  234,908;51420,238;13,41847
 782,50; 7150,940;  240,293;51404,739;13,50674
 783,07; 7130,684;  254,677;51467,472;13,42635
 783,63; 7159,120;  221,908;51216,358;13,60386
 784,20; 7159,557;  253,523;51172,475;13,56280
 784,77; 7122,070;  231,062;50910,054;13,59737
 785,33; 7112,660;  212,985;50735,940;13,65652
 785,90; 7156,789;  234,600;50656,749;13,72847
 786,46; 7194,764;  250,446;50620,020;13,78673
 787,03; 7217,893;  221,446;50350,599;13,95684
 787,59; 7236,944;  236,600;50371,947;13,96289
 788,16; 7259,842;  240,985;50292,141;14,02337
 788,73; 7259,971;  244,062;50144,565;14,05980
 789,29; 7223,023;  228,677;49801,529;14,10923
 789,86; 7301,536;  253,677;49716,876;14,24869
 790,42; 7262,511;  235,908;49448,378;14,27809
 790,99; 7248,101;  250,831;49178,649;14,30121
 791,55; 7227,538;  224,447;49200,535;14,29900
 792,12; 7326,589;  259,216;49231,883;14,43126
 792,68; 7291,410;  242,216;48849,846;14,50224
 793,25; 7257,693;  241,293;48615,886;14,50431
 793,81; 7332,745;  295,600;48344,542;14,64578
 794,38; 7220,796;  207,370;48147,736;14,62948
 794,94; 7228,848;  218,985;47935,007;14,69080
 795,51; 7239,746;  247,447;47653,431;14,74982
 796,07; 7254,798;  240,139;47466,087;14,85340
 796,64; 7290,773;  244,216;47469,204;14,92125
 797,20; 7268,978;  241,677;47105,552;14,99513
 797,77; 7207,953;  215,908;46680,823;15,04801
 798,33; 7196,159;  226,370;46547,632;15,04663
 798,90; 7276,595;  256,524;46521,903;15,17349
 799,46; 7212,108;  225,601;45897,789;15,29707
 800,03; 7225,699;  238,831;45879,368;15,30847
 800,59; 7202,981;  250,601;45703,177;15,29590
 801,15; 7207,879;  252,985;45521,910;15,36351
 801,72; 7149,316;  240,293;45155,334;15,38243
 802,28; 7136,521;  265,370;44877,221;15,40208
 802,85; 7090,804;  236,524;44621,338;15,44285
 803,41; 7104,163;  237,447;44556,762;15,49373
 803,98; 7055,907;  235,293;44047,418;15,56787
 804,54; 7085,728;  233,524;43920,766;15,68468
 805,11; 7073,472;  241,139;43638,113;15,74380
 805,67; 7122,678;  261,216;43593,461;15,83454
 806,23; 7051,037;  241,216;43168,732;15,86353
 806,80; 7016,166;  247,985;43040,695;15,81620
 807,36; 7039,064;  257,447;43046,812;15,84884
 807,93; 7069,731;  278,985;42722,237;15,99959
 808,49; 6992,783;  222,216;42402,585;16,05146
 809,05; 6973,835;  207,601;42154,087;16,13063
 809,62; 7009,348;  251,524;42141,511;16,13231
 810,18; 7027,169;  246,755;42042,551;16,22272
 810,74; 7003,144;  216,985;41760,822;16,33493
 811,31; 6973,888;  210,601;41524,709;16,37041
 811,87; 6962,786;  234,524;41277,903;16,39305
 812,44; 7016,068;  254,524;41479,250;16,40167
 813,00; 6978,813;  192,293;41034,598;16,61640
 813,56; 7031,326;  243,139;41162,484;16,58919
 814,13; 7032,608;  233,985;41008,448;16,67373
 814,69; 7018,429;  236,062;40900,949;16,67868
 815,25; 6926,173;  207,139;40381,066;16,72486
 815,82; 6991,841;  240,755;40351,491;16,83112
 816,38; 7025,816;  268,601;40127,762;16,95273
 816,94; 6950,637;  215,062;39958,802;16,94751
 817,51; 6936,611;  212,524;39646,535;17,05149
 818,07; 6906,740;  218,909;39392,882;17,07213
 818,63; 6905,023;  231,755;39210,307;17,12036
 819,20; 6911,074;  227,524;39112,270;17,18810
 819,76; 6867,588;  214,909;38788,849;17,24656
 820,32; 6865,793;  256,139;38646,966;17,21675
 820,89; 6882,230;  247,370;38460,391;17,36282
 821,45; 6807,051;  214,986;38189,431;17,35921
 822,01; 6831,026;  233,216;37871,086;17,52971
 822,57; 6864,923;  241,063;37855,280;17,60999
 823,14; 6758,514;  211,293;37486,167;17,56470
 823,70; 6811,950;  219,293;37306,745;17,77598
 824,26; 6778,310;  214,139;37121,939;17,78532
 824,82; 6828,284;  236,524;37027,441;17,91681
 825,39; 6784,798;  214,370;36749,481;17,98387
 825,95; 6802,311;  244,063;36730,752;17,97436
 826,51; 6755,132;  232,755;36361,330;18,05324
 827,08; 6813,645;  261,986;36483,217;18,08790
 827,64; 6825,851;  243,140;36268,334;18,27252
 828,20; 6759,057;  212,370;35898,143;18,34537
 828,76; 6799,416;  253,986;35886,029;18,36951
 829,32; 6762,699;  257,370;35756,454;18,32534
 829,89; 6720,135;  214,293;35706,186;18,33050
 830,45; 6801,110;  239,140;35627,303;18,54284
 831,01; 6758,008;  225,370;35479,190;18,53030
 831,57; 6768,290;  229,986;35345,230;18,61956
 832,14; 6759,188;  211,140;35348,655;18,63549
 832,70; 6770,394;  210,447;35060,695;18,82324
 833,26; 6741,907;  206,678;34902,889;18,83557
 833,82; 6739,190;  235,063;34895,467;18,76529
 834,38; 6797,934;  209,909;34862,200;19,01180
 834,95; 6771,909;  208,063;34716,471;19,02100
 835,51; 6789,960;  186,217;34589,818;19,19492
 836,07; 6839,781;  221,370;34684,397;19,20438
 836,63; 6880,141;  247,909;34621,206;19,29472
 837,19; 6870,885;  234,524;34434,862;19,40437
 837,75; 6790,629;  190,217;34086,287;19,47250
 838,32; 6880,142;  249,371;34296,327;19,47537
 838,88; 6871,963;  242,447;34342,905;19,44113
 839,44; 6850,784;  229,217;34228,561;19,47557
 840,00; 6925,990;  220,217;34125,293;19,77808
 840,56; 6839,811;  212,294;33756,487;19,75757
 841,12; 6864,940;  207,601;33786,296;19,82608
 841,68; 6856,222;  198,140;33638,490;19,91032
 842,25; 6869,120;  209,371;33518,838;19,99356
 842,81; 6897,326;  211,678;33322,032;20,19201
 843,37; 6891,762;  207,601;33416,226;20,12779
 843,93; 6936,199;  215,140;33342,497;20,28854
 844,49; 6926,943;  230,678;33339,999;20,22471
 845,05; 6879,148;  189,140;33131,347;20,30832
 845,61; 6964,738;  237,524;33205,002;20,40561
 846,17; 6937,021;  208,294;33015,658;20,50981
 846,73; 6977,380;  217,217;33016,775;20,61053
 847,29; 6940,817;  200,525;32860,661;20,63767
 847,86; 6941,484;  207,217;32722,009;20,71140
 848,42; 6917,228;  196,140;32543,203;20,77805
 848,98; 6940,280;  216,678;32561,858;20,78703
 849,54; 6983,639;  199,755;32552,283;20,96864
 850,10; 6941,614;  224,755;32341,708;20,91375
 850,66; 6927,435;  201,063;32299,517;20,95544
 851,22; 6910,564;  193,832;32128,403;21,03279
 851,78; 6983,077;  247,832;32229,674;21,05959
 852,34; 6934,821;  222,755;31870,637;21,20858
 852,90; 6920,873;  213,602;31847,831;21,20258
 853,46; 6912,925;  204,294;31624,410;21,35139
 854,02; 6959,669;  213,678;31638,450;21,46711
 854,58; 6915,721;  204,678;31429,105;21,49292
 855,14; 6888,234;  201,986;31338,761;21,47380
 855,70; 6907,747;  176,755;31218,416;21,68374
 856,26; 6950,722;  235,371;31233,534;21,66371
 856,82; 6923,928;  203,371;30950,574;21,85746
 857,38; 6941,287;  242,217;30908,614;21,84499
 857,94; 6944,185;  209,986;30828,577;21,99382
 858,50; 6944,852;  226,294;30618,617;22,10610
 859,06; 6865,212;  202,448;30493,426;21,99587
 859,62; 6905,264;  218,602;30468,390;22,10482
 860,18; 6895,392;  212,986;30324,584;22,19213
 860,74; 6901,598;  181,909;30105,547;22,45612
 861,30; 6885,111;  194,217;29888,125;22,53288
 861,86; 6978,471;  241,679;30023,935;22,62015
 862,42; 6895,984;  212,679;29767,821;22,61300
 862,98; 6977,113;  233,679;29734,476;22,85848
 863,54; 6925,087;  222,756;29541,209;22,86046
 864,10; 6950,601;  220,525;29542,249;22,95252
 864,66; 6884,729;  201,140;29320,905;22,95207
 865,22; 6866,935;  212,602;29224,714;22,93640
 865,78; 6873,756;  228,217;29105,677;23,01289
 866,34; 6829,731;  205,140;29035,333;22,97796
 866,90; 6881,167;  218,679;28876,911;23,24808
 867,45; 6825,065;  216,525;28690,105;23,20938
 868,01; 6776,194;  223,756;28554,145;23,12866
 868,57; 6786,246;  204,910;28341,955;23,39029
 869,13; 6735,605;  194,525;28286,995;23,28411
 869,69; 6770,580;  204,294;28199,343;23,45517
 870,25; 6742,401;  197,602;28030,152;23,51491
 870,81; 6755,299;  210,525;27974,346;23,57303
 871,37; 6767,735;  215,679;27896,617;23,66992
 871,93; 6775,556;  229,910;27765,580;23,77152
 872,49; 6726,762;  239,987;27545,697;23,75611
 873,04; 6714,506;  197,833;27359,506;23,99216
 873,60; 6718,173;  200,602;27265,546;24,08123
 874,16; 6696,533;  224,910;27204,048;23,98751
 874,72; 6662,917;  203,910;27066,048;24,04502
 875,28; 6685,302;  218,910;27009,971;24,13638
 875,84; 6735,917;  216,833;26925,510;24,40812
 876,40; 6708,840;  209,756;26853,587;24,39246
 876,95; 6704,917;  219,833;26916,356;24,29187
 877,51; 6775,302;  234,833;26936,817;24,49432
 878,07; 6769,379;  242,833;26841,817;24,53682
 878,63; 6771,840;  211,910;26853,587;24,62281
 879,19; 6790,456;  230,448;26860,279;24,63406
 879,75; 6813,533;  209,910;26893,740;24,74766
 880,30; 6857,148;  209,756;26889,971;24,91506
 880,86; 6925,610;  243,833;27000,202;24,97266
 881,42; 6920,456;  192,525;27050,202;25,05031
 881,98; 6938,917;  226,756;27168,048;24,91403
 882,54; 6960,071;  211,525;27217,663;24,98893
 883,09; 7036,533;  227,756;27339,279;25,11396
 883,65; 7093,379;  197,602;27335,202;25,41042
 884,21; 7181,840;  238,987;27546,587;25,42462
 884,77; 7161,379;  211,217;27684,202;25,29817
 885,32; 7235,763;  213,756;27806,202;25,44902
 885,88; 7288,379;  241,679;27903,587;25,47438
 886,44; 7303,994;  225,140;27971,202;25,51300
 887,00; 7369,917;  228,140;27985,048;25,72973
 887,56; 7371,763;  213,910;28107,048;25,66170
 888,11; 7472,533;  212,602;28153,740;25,98295
 888,67; 7502,456;  250,371;28319,202;25,83679
 889,23; 7553,379;  220,987;28304,202;26,10952
 889,79; 7502,379;  195,294;28167,279;26,12287
 890,34; 7539,533;  221,448;28126,510;26,22494
 890,90; 7662,687;  274,448;28239,510;26,41953
 891,46; 7607,225;  206,756;28133,894;26,49920
 892,01; 7617,917;  235,910;28142,202;26,45284
 892,57; 7638,302;  242,525;28027,433;26,61796
 893,13; 7565,379;  214,371;27874,510;26,57618
 893,69; 7576,533;  206,679;27834,433;26,67554
 894,24; 7570,763;  209,833;27745,433;26,73241
 894,80; 7536,071;  209,756;27656,048;26,69328
 895,36; 7577,533;  214,679;27516,279;26,96858
 895,91; 7560,533;  217,833;27286,202;27,12650
 896,47; 7551,225;  232,140;27175,510;27,16470
 897,03; 7532,302;  213,679;26974,740;27,34803
 897,58; 7521,225;  228,679;26837,587;27,40641
 898,14; 7518,302;  227,679;26705,740;27,53458
 898,70; 7460,533;  196,140;26521,433;27,59473
 899,25; 7525,148;  210,294;26541,740;27,77992
 899,81; 7492,533;  217,371;26378,202;27,80937
 900,37; 7465,225;  187,525;26079,894;28,10751
 900,92; 7492,917;  213,525;26093,048;28,12800
 901,48; 7433,379;  209,602;26053,279;27,95182
 902,03; 7393,917;  210,140;25818,740;28,05220
 902,59; 7434,071;  213,602;25710,510;28,31900
 903,15; 7432,610;  228,140;25576,202;28,42217
 903,70; 7364,302;  220,602;25382,587;28,39084
 904,26; 7341,379;  197,756;25265,356;28,49744
 904,82; 7356,917;  209,371;25302,202;28,48442
 905,37; 7334,533;  222,140;25079,510;28,61281
 905,93; 7349,917;  211,448;24944,971;28,86151
 906,48; 7391,917;  218,140;24824,279;29,15442
 907,04; 7338,917;  226,833;24824,740;28,91337
 907,60; 7348,610;  205,448;24573,356;29,31381
 908,15; 7298,302;  193,294;24495,202;29,23642
 908,71; 7333,533;  234,140;24481,587;29,27893
 909,26; 7307,302;  212,602;24315,048;29,43560
 909,82; 7255,533;  227,217;24178,433;29,34430
 910,37; 7299,917;  248,217;24143,433;29,51093
 910,93; 7273,225;  211,140;23932,356;29,77118
 911,48; 7166,763;  195,987;23748,740;29,59644
 912,04; 7154,302;  204,371;23688,894;29,59366
 912,60; 7186,763;  218,063;23709,663;29,66465
 913,15; 7187,994;  212,217;23494,202;29,96212
 913,71; 7135,225;  200,602;23282,587;30,04344
 914,26; 7087,225;  192,525;23220,817;29,94013
 914,82; 7119,994;  218,602;23132,510;30,11879
 915,37; 7087,610;  197,217;23068,587;30,12672
 915,93; 7138,148;  254,371;23015,663;30,24335
 916,48; 7057,533;  202,217;22835,894;30,28812
 917,04; 7069,763;  227,910;22721,510;30,41689
 917,59; 7059,225;  232,525;22648,433;30,45471
 918,15; 6950,763;  183,910;22479,740;30,35031
 918,70; 6975,533;  201,294;22344,510;30,59284
 919,26; 6943,225;  216,756;22277,663;30,49045
 919,81; 6920,917;  195,448;22119,125;30,67674
 920,37; 6917,379;  191,063;21986,587;30,86100
 920,92; 6931,917;  227,987;22000,202;30,79122
 921,48; 6850,302;  192,294;21781,971;30,83885
 922,03; 6906,687;  203,063;21755,202;31,10421
 922,59; 6828,763;  198,910;21551,356;31,04962
 923,14; 6845,687;  200,294;21536,971;31,14540
 923,69; 6816,071;  228,987;21373,510;31,15268
 924,25; 6822,302;  231,294;21373,279;31,17497
 924,80; 6760,840;  210,833;21137,125;31,30037
 925,36; 6744,840;  205,371;21097,433;31,30122
 925,91; 6759,302;  207,987;20935,202;31,60731
 926,47; 6739,148;  187,910;20840,663;31,72090
 927,02; 6823,763;  253,063;20835,817;31,92333
 927,57; 6695,840;  199,602;20660,740;31,74915
 928,13; 6724,994;  186,371;20612,663;32,01082
 928,68; 6706,379;  202,448;20522,587;32,00732
 929,24; 6638,687;  168,448;20419,663;31,94988
 929,79; 6695,302;  192,987;20219,971;32,46777
 930,34; 6588,071;  203,910;20070,894;32,13453
 930,90; 6628,610;  199,140;20103,587;32,30167
 931,45; 6665,763;  208,448;20063,971;32,52151
 932,01; 6639,610;  207,294;19824,894;32,78849
 932,56; 6614,225;  221,987;19795,894;32,65694
 933,11; 6638,148;  226,833;19744,663;32,84850
 933,67; 6540,379;  195,833;19569,740;32,74789
 934,22; 6556,610;  203,294;19479,663;32,95909
 934,77; 6532,302;  232,217;19436,202;32,80613
 935,33; 6524,071;  214,525;19295,279;33,06759
 935,88; 6528,840;  217,063;19181,510;33,28216
 936,43; 6532,379;  193,371;19164,663;33,41368
 936,99; 6481,071;  211,063;19027,510;33,32195
 937,54; 6463,917;  184,140;18841,894;33,65773
 938,09; 6475,687;  208,602;18791,740;33,72458
 938,65; 6428,533;  209,294;18645,817;33,73325
 939,20; 6418,687;  183,294;18601,740;33,85406
 939,75; 6402,763;  189,525;18505,356;33,92278
 940,31; 6394,071;  185,448;18393,971;34,09735
 940,86; 6437,610;  209,756;18389,048;34,25796
 941,41; 6481,533;  261,063;18269,817;34,54136
 941,96; 6358,071;  201,910;18149,433;34,30090
 942,52; 6339,610;  202,294;18048,125;34,39075
 943,07; 6269,994;  182,910;17949,125;34,26213
 943,62; 6308,379;  199,525;17862,740;34,58517
 944,18; 6261,456;  198,987;17755,663;34,53085
 944,73; 6293,840;  209,371;17721,510;34,74430
 945,28; 6212,917;  172,910;17468,510;34,92222
 945,83; 6231,148;  192,910;17503,740;34,88127
 946,39; 6233,994;  190,910;17489,740;34,93349
 946,94; 6195,456;  218,063;17365,510;34,85879
 947,49; 6156,994;  202,756;17228,740;34,97148
 948,04; 6174,763;  222,756;17257,663;34,94006
 948,59; 6120,148;  224,448;17127,510;34,87948
 949,15; 6176,763;  181,987;17016,356;35,61034
 949,70; 6165,148;  203,602;16957,587;35,58286
 950,25; 6099,379;  216,063;16872,894;35,32074
 950,80; 6103,840;  170,140;16704,125;35,88790
 951,36; 6065,763;  166,602;16642,279;35,80528
 951,91; 6082,994;  215,756;16653,279;35,69418
 952,46; 6017,763;  188,217;16474,125;35,79503
 953,01; 6046,687;  211,756;16479,279;35,86859
 953,56; 5987,148;  182,217;16339,663;35,92728
 954,11; 5967,148;  208,217;16342,971;35,69271
 954,67; 5996,379;  186,602;16240,433;36,18935
 955,22; 5908,840;  165,140;16065,125;36,12393
 955,77; 5976,687;  227,371;16076,510;36,27525
 956,32; 6000,071;  233,525;15970,125;36,64417
 956,87; 5869,917;  188,217;15816,356;36,35558
 957,42; 5872,610;  199,448;15744,202;36,49567
 957,98; 5881,917;  195,525;15677,125;36,73000
 958,53; 5912,533;  216,679;15685,894;36,82057
 959,08; 5837,533;  190,756;15538,048;36,79331
 959,63; 5814,994;  185,140;15422,356;36,94805
 960,18; 5826,225;  204,063;15400,817;36,99581
 960,73; 5821,840;  202,756;15353,048;37,08895
 961,28; 5770,917;  188,371;15228,510;37,11765
 961,83; 5804,148;  205,525;15224,510;37,27697
 962,39; 5698,840;  184,602;15026,894;37,15220
 962,94; 5722,225;  217,756;14998,510;37,24079
 963,49; 5681,148;  202,756;14846,048;37,41230
 964,04; 5663,225;  212,063;14804,971;37,35487
 964,59; 5646,302;  170,140;14735,356;37,59753
 965,14; 5680,687;  214,140;14637,740;37,90001
 965,69; 5625,610;  204,525;14532,356;37,83605
 966,24; 5584,994;  189,910;14443,894;37,84966
 966,79; 5595,917;  215,217;14397,125;37,94059
 967,34; 5493,763;  169,448;14195,587;37,95995
 967,89; 5515,302;  195,679;14179,048;38,04250
 968,44; 5494,840;  205,294;14128,740;37,99021
 968,99; 5502,225;  210,679;14066,740;38,18940
 969,55; 5471,379;  202,910;13953,817;38,31361
 970,10; 5461,148;  205,756;13867,587;38,46770
 970,65; 5443,456;  216,217;13742,587;38,64480
 971,20; 5347,763;  194,140;13683,510;38,20507
 971,75; 5342,225;  175,833;13469,356;38,86398
 972,30; 5336,225;  200,525;13451,663;38,75667
 972,85; 5315,148;  191,756;13365,125;38,89204
 973,40; 5277,840;  191,756;13249,663;38,95023
 973,95; 5270,610;  202,140;13220,740;38,93252
 974,50; 5273,687;  223,448;13146,894;39,07811
 975,05; 5224,302;  201,756;13000,279;39,24317
 975,60; 5202,610;  215,140;12978,894;39,07525
 976,15; 5149,071;  191,833;12840,663;39,19128
 976,70; 5164,302;  203,063;12794,356;39,40214
 977,25; 5146,379;  212,833;12717,817;39,45264
 977,80; 5068,456;  194,679;12616,433;39,23582
 978,35; 5055,533;  218,448;12468,048;39,48769
 978,89; 5008,533;  186,679;12345,510;39,65722
 979,44; 4986,994;  197,756;12355,971;39,39097
 979,99; 4950,533;  186,910;12160,510;39,78438
 980,54; 4924,840;  227,987;12152,356;39,38870
 981,09; 4917,456;  219,140;12073,433;39,63387
 981,64; 4871,533;  206,833;11907,663;39,86640
 982,19; 4882,379;  235,910;11902,510;39,82711
 982,74; 4879,456;  214,987;11733,971;40,49375
 983,29; 4781,225;  191,756;11599,356;40,23168
 983,84; 4746,840;  209,525;11474,202;40,27914
 984,39; 4873,302;  262,833;11432,587;41,27637
 984,94; 4690,840;  178,294;11322,971;40,49060
 985,49; 4698,302;  231,679;11240,587;40,57281
 986,03; 4714,610;  225,217;11184,587;40,96397
 986,58; 4667,379;  245,448;11041,740;40,95786
 987,13; 4586,840;  207,910;10894,587;40,97561
 987,68; 4589,456;  222,140;10822,125;41,20115
 988,23; 4555,148;  221,063;10802,048;40,96107
 988,78; 4499,148;  193,063;10655,433;41,15783
 989,33; 4504,302;  216,833;10548,125;41,49983
 989,88; 4502,687;  224,756;10489,740;41,67498
 990,42; 4408,379;  210,679;10372,433;41,30881
 990,97; 4396,687;  210,833;10237,356;41,74781
 991,52; 4373,533;  229,140;10154,125;41,75717
 992,07; 4369,225;  237,910;10121,663;41,79905
 992,62; 4270,071;  222,448; 9972,356;41,51448
 993,17; 4256,533;  221,448; 9894,663;41,71400
 993,71; 4274,148;  222,756; 9765,433;42,45551
 994,26; 4156,994;  201,371; 9678,125;41,74027
 994,81; 4171,610;  221,140; 9602,510;42,10973
 995,36; 4128,994;  204,371; 9478,894;42,31617
 995,91; 4088,533;  217,679; 9431,356;42,01204
 996,45; 4065,456;  205,140; 9270,279;42,58419
 997,00; 4002,456;  189,987; 9123,740;42,67489
 997,55; 4015,379;  216,987; 9109,587;42,71408
 998,10; 3985,071;  242,756; 8988,433;42,79046
 998,65; 3917,533;  204,140; 8947,356;42,47170
 999,19; 3910,610;  221,371; 8811,663;42,94660
 999,74; 3881,994;  236,987; 8739,510;42,86972
1000,29; 3829,994;  226,294; 8655,202;42,75406
1000,84; 3769,456;  201,679; 8495,894;43,01524
1001,38; 3734,302;  213,217; 8413,971;42,93611
1001,93; 3728,071;  229,910; 8355,356;43,05193
1002,48; 3649,763;  204,448; 8209,125;43,04128
1003,03; 3678,917;  223,910; 8186,894;43,38835
1003,57; 3603,994;  227,833; 8108,663;42,84017
1004,12; 3628,148;  256,371; 7949,048;43,83100
1004,67; 3546,533;  210,602; 7886,356;43,46063
1005,22; 3477,071;  205,448; 7729,125;43,48436
1005,76; 3452,225;  197,833; 7624,356;43,82121
1006,31; 3461,917;  228,217; 7583,894;43,96196
1006,86; 3394,687;  215,140; 7489,663;43,70797
1007,40; 3345,071;  202,602; 7323,587;44,12970
1007,95; 3337,302;  223,910; 7254,587;44,28297
1008,50; 3299,917;  215,910; 7108,048;44,74675
1009,04; 3249,071;  211,987; 7077,894;44,23428
1009,59; 3175,379;  215,525; 6945,279;43,98161
1010,14; 3167,071;  191,063; 6864,587;44,59425
1010,68; 3126,225;  202,217; 6776,971;44,47326
1011,23; 3083,302;  211,987; 6622,356;44,79173
1011,78; 3044,687;  223,525; 6594,279;44,28301
1012,32; 3060,994;  225,910; 6476,740;45,35533
1012,87; 3045,379;  240,063; 6461,279;45,09272
1013,42; 2938,379;  198,602; 6310,740;44,82518
1013,96; 3008,917;  235,063; 6342,587;45,41700
1014,51; 2930,379;  176,679; 6239,510;45,41938
1015,06; 2925,610;  194,294; 6241,663;45,16535
1015,60; 2980,763;  250,756; 6316,817;45,00462
1016,15; 2952,763;  204,140; 6243,894;45,50886
1016,69; 2959,994;  205,371; 6311,587;45,11179
1017,24; 2953,148;  193,371; 6283,202;45,31779
1017,79; 3004,148;  236,756; 6368,663;45,13102
1018,33; 2981,148;  201,063; 6299,663;45,58562
1018,88; 3022,917;  222,679; 6390,048;45,40410
1019,42; 3004,456;  206,987; 6383,202;45,29423
1019,97; 3008,840;  202,525; 6343,279;45,69985
1020,51; 3081,148;  224,679; 6435,125;45,99459
1021,06; 3021,302;  196,679; 6409,048;45,46773
1021,61; 2975,840;  177,525; 6367,587;45,20658
1022,15; 2967,994;  168,140; 6285,279;45,77065
1022,70; 3018,917;  201,987; 6293,663;46,24229
1023,24; 2973,840;  194,217; 6266,125;45,77841
1023,79; 2963,533;  207,602; 6194,279;46,03440
1024,33; 2937,917;  189,140; 6167,740;45,97693
1024,88; 2921,994;  221,371; 6046,740;46,35969
1025,42; 2900,687;  211,140; 5985,356;46,57856
1025,97; 2829,379;  199,833; 5905,663;46,08525
1026,51; 2776,456;  176,063; 5792,817;46,29707
1027,06; 2777,148;  192,217; 5716,433;46,79272
1027,60; 2756,533;  216,217; 5660,356;46,66148
1028,15; 2740,302;  214,910; 5538,048;47,44179
1028,69; 2639,994;  173,602; 5427,894;46,94052
1029,24; 2626,610;  187,294; 5382,663;46,95172
1029,78; 2595,148;  189,910; 5295,048;47,11407
1030,33; 2527,533;  178,679; 5186,817;46,90074
1030,87; 2529,994;  195,679; 5110,356;47,49682
1031,42; 2486,533;  175,833; 5040,510;47,49956
1031,96; 2495,917;  207,525; 4971,587;48,03448
1032,51; 2461,533;  184,833; 4889,202;48,39544
1033,05; 2435,687;  204,679; 4859,971;47,92412
1033,60; 2364,763;  165,525; 4725,971;48,22420
1034,14; 2350,917;  191,679; 4665,971;48,25877
1034,69; 2343,071;  202,140; 4596,433;48,72072
1035,23; 2294,840;  195,987; 4562,356;48,06863
1035,77; 2258,071;  190,448; 4520,048;47,75552
1036,32; 2247,225;  169,525; 4409,433;49,00343
1036,86; 2264,687;  201,679; 4379,817;49,37624
1037,41; 2229,225;  205,756; 4278,279;49,68589
1037,95; 2171,225;  181,679; 4218,971;49,27922
1038,50; 2138,225;  187,217; 4162,510;49,07835
1039,04; 2143,763;  213,910; 4120,587;49,39886
1039,58; 2096,610;  186,140; 4047,740;49,47351
1040,13; 2057,148;  197,525; 3989,048;49,04686
1040,67; 2079,687;  229,448; 3970,817;49,45351
1041,21; 2060,610;  213,140; 3912,740;49,93700
1041,76; 2000,763;  179,679; 3816,356;50,07551
1042,30; 1994,840;  204,063; 3788,125;49,96502
1042,85; 1957,610;  200,448; 3725,971;49,84116
1043,39; 1922,994;  166,910; 3647,125;50,45908
1043,93; 1936,763;  211,217; 3640,894;50,31221
1044,48; 1892,379;  215,679; 3562,663;50,09584
1045,02; 1859,994;  197,525; 3481,279;50,62710
1045,56; 1852,302;  215,294; 3502,971;49,79223
1046,11; 1835,148;  206,756; 3442,894;50,31899
1046,65; 1780,379;  208,448; 3371,663;49,69408
1047,19; 1772,456;  188,063; 3327,279;50,47097
1047,74; 1729,225;  184,833; 3238,510;50,57484
1048,28; 1732,225;  201,910; 3227,279;50,58276
1048,82; 1726,071;  212,833; 3210,510;50,48037
1049,37; 1704,917;  214,602; 3148,048;50,80425
1049,91; 1682,840;  197,756; 3114,433;50,91701
1050,45; 1679,302;  219,140; 3066,971;51,27276
1050,99; 1642,763;  201,294; 3028,587;50,98409
1051,54; 1600,687;  197,756; 2964,587;50,70533
1052,08; 1606,840;  220,217; 2919,125;51,37720
1052,62; 1603,687;  211,756; 2906,356;51,65630
1053,16; 1548,071;  191,525; 2845,894;51,10616
1053,71; 1557,225;  203,756; 2818,202;51,76887
1054,25; 1541,533;  216,371; 2767,125;51,95176
1054,79; 1507,994;  212,910; 2723,048;51,59415
1055,33; 1461,379;  177,602; 2670,279;51,50194
1055,88; 1495,225;  215,371; 2668,587;52,17046
1056,42; 1476,071;  222,987; 2646,817;51,69852
1056,96; 1459,225;  217,140; 2583,048;52,49928
1057,50; 1443,456;  211,371; 2545,433;52,78715
1058,05; 1394,994;  200,987; 2502,356;51,88249
1058,59; 1402,148;  229,294; 2489,279;51,89654
1059,13; 1339,763;  186,525; 2424,894;51,52137
1059,67; 1366,610;  224,448; 2421,433;51,98769
1060,21; 1348,379;  213,063; 2344,817;53,25734
1060,76; 1323,994;  221,602; 2316,433;52,62441
1061,30; 1330,533;  226,910; 2312,279;52,92219
1061,84; 1285,456;  213,448; 2244,202;52,78866
1062,38; 1251,302;  192,063; 2193,048;52,93586
1062,92; 1297,456;  240,910; 2237,279;52,92338
1063,46; 1255,302;  224,679; 2158,433;53,29650
1064,01; 1219,917;  204,217; 2134,894;52,60849
1064,55; 1220,994;  213,140; 2102,048;53,35644
1065,09; 1187,917;  185,063; 2060,048;53,48598
1065,63; 1210,148;  239,140; 2071,202;53,00082
1066,17; 1230,994;  242,217; 2045,971;54,81773
1066,71; 1189,225;  226,217; 2023,587;53,57873
1067,25; 1151,917;  211,294; 1967,433;53,56201
1067,80; 1148,994;  219,679; 1961,433;53,35515
1068,34; 1165,379;  242,756; 1928,971;54,71561
1068,88; 1112,071;  201,448; 1891,510;53,88106
1069,42; 1122,302;  241,294; 1921,433;52,43661
1069,96; 1097,763;  200,217; 1850,279;54,39471
1070,50; 1143,302;  241,910; 1861,433;55,65789
1071,04; 1063,148;  192,756; 1814,817;53,65964
1071,58; 1076,148;  210,602; 1809,510;54,13359
1072,12; 1050,917;  207,987; 1767,971;54,03456
1072,66; 1033,071;  205,602; 1757,356;53,32477
1073,21; 1053,840;  228,371; 1752,202;54,17066
1073,75; 1034,533;  226,602; 1707,202;54,56779
1074,29; 1011,533;  218,371; 1684,433;54,10152
1074,83; 1029,456;  233,140; 1701,125;54,24549
1075,37; 1013,610;  230,525; 1658,202;54,85027
1075,91; 1002,840;  224,987; 1647,663;54,67537
1076,45;  975,148;  217,063; 1628,894;53,69515
1076,99;  980,379;  236,756; 1589,125;54,98669
1077,53;  946,917;  206,525; 1573,971;54,14417
1078,07;  945,610;  222,525; 1573,433;53,52583
1078,61;  918,456;  217,833; 1538,894;53,03486
1079,15;  898,302;  212,525; 1524,663;52,26407
1079,69;  907,763;  216,140; 1491,433;54,23251
1080,23;  939,917;  233,833; 1482,587;56,54314
1080,77;  965,610;  267,910; 1506,048;56,35073
1081,31;  868,302;  213,679; 1440,894;53,34215
1081,85;  905,687;  224,602; 1452,048;55,48794
1082,39;  868,071;  209,294; 1414,663;54,65354
1082,93;  881,533;  221,063; 1410,894;55,50951
1083,47;  842,148;  196,140; 1361,971;55,41179
1084,01;  873,840;  236,140; 1391,587;55,19080
1084,55;  841,533;  209,987; 1330,510;56,36173
1085,09;  850,533;  230,448; 1354,202;55,17975
1085,63;  836,917;  214,371; 1322,894;56,15996
1086,17;  828,071;  212,679; 1282,433;57,52653
1086,71;  799,225;  213,910; 1289,356;54,42535
1087,24;  822,071;  232,140; 1300,663;55,20992
1087,78;  813,071;  224,833; 1273,817;56,07694
1088,32;  769,302;  215,217; 1228,202;54,69823
1088,86;  800,071;  241,987; 1251,202;55,29886
1089,40;  783,071;  217,602; 1222,433;56,27507
1089,94;  751,763;  195,833; 1181,433;56,40531
1090,48;  769,533;  226,833; 1185,279;56,62290
1091,02;  770,533;  232,833; 1181,587;56,67434
1091,56;  750,225;  218,756; 1171,971;55,75542
1092,10;  731,071;  200,217; 1147,971;56,01178
1092,63;  768,456;  234,987; 1154,740;58,00130
1093,17;  740,456;  233,294; 1125,587;56,83805
1093,71;  712,456;  209,294; 1113,279;55,66041
1094,25;  742,840;  235,448; 1131,817;56,60528
1094,79;  708,687;  218,371; 1087,048;56,44393
1095,33;  707,302;  220,679; 1067,279;57,47969
1095,87;  698,148;  228,448; 1063,817;56,22663
1096,40;  662,225;  198,679; 1024,663;56,12043
1096,94;  676,456;  216,987; 1045,894;55,43069
1097,48;  694,225;  219,833; 1024,048;58,98822
1098,02;  675,071;  211,371; 1015,894;57,63663
1098,56;  638,763;  189,679;  980,048;56,81960
1099,10;  640,763;  185,833;  971,894;57,87470
1099,63;  641,533;  200,987;  948,587;58,92806
1100,17;  661,994;  222,602;  979,433;58,05688
1100,71;  681,763;  243,140;  987,433;58,93156

