
Integration time [ms]: 120,000
Averaging Nr. [scans]: 13
Smoothing Nr. [pixels]: 0
Data measured with spectrometer [name]: 2009305U1
Wave   ;Sample   ;Dark     ;Reference;Reflectance
[nm]   ;[counts] ;[counts] ;[counts] ;[%]

 175,72;  199,842;  199,367;  201,210;25,78291
 176,32;  225,849;  225,756;  219,328; 0,00000
 176,92;  244,328;  255,907;  246,710; 0,00000
 177,52;  246,110;  245,445;  250,375;13,50238
 178,12;  226,845;  235,602;  226,981; 0,00000
 178,72;  266,159;  257,604;  244,166; 0,00000
 179,32;  249,297;  247,603;  236,744; 0,00000
 179,92;  242,186;  242,678;  249,242;-7,48829
 180,52;  240,349;  239,133;  248,600;12,84663
 181,12;  256,688;  245,062;  255,534;111,01392
 181,73;  278,796;  272,446;  268,053; 0,00000
 182,33;  341,696;  349,212;  348,449; 0,00000
 182,93;  270,056;  263,137;  267,348;164,32123
 183,53;  231,576;  240,912;  227,369; 0,00000
 184,13;  240,041;  238,065;  222,491; 0,00000
 184,73;  270,781;  267,297;  280,043;27,33028
 185,33;  263,530;  221,788;  346,648;33,43057
 185,93;  276,200;  236,561;  360,994;31,85581
 186,53;  283,460;  243,867;  375,754;30,02027
 187,13;  310,468;  269,940;  408,596;29,22893
 187,73;  271,670;  238,638;  359,540;27,32149
 188,33;  275,510;  238,178;  367,522;28,86266
 188,93;  282,139;  244,108;  362,517;32,11902
 189,53;  287,640;  238,728;  382,767;33,95745
 190,13;  332,910;  272,121;  405,031;45,73668
 190,73;  258,277;  212,654;  349,527;33,33265
 191,34;  292,626;  255,186;  390,399;27,68958
 191,94;  265,228;  234,873;  360,941;24,07872
 192,54;  278,921;  251,783;  382,499;20,76051
 193,14;  280,491;  264,094;  400,643;12,00787
 193,74;  288,347;  244,249;  370,951;34,80479
 194,34;  275,707;  251,247;  384,143;18,40512
 194,94;  249,514;  219,402;  350,692;22,93509
 195,54;  227,435;  191,711;  319,487;27,95782
 196,14;  251,819;  222,323;  363,474;20,89631
 196,74;  252,142;  214,558;  342,295;29,42253
 197,34;  223,738;  188,782;  355,030;21,02639
 197,94;  253,780;  229,017;  373,022;17,19584
 198,54;  262,728;  235,246;  381,583;18,77988
 199,14;  246,678;  217,012;  372,202;19,11566
 199,74;  239,963;  195,396;  375,153;24,79248
 200,34;  226,803;  199,011;  374,423;15,84388
 200,94;  261,970;  224,629;  416,410;19,47050
 201,54;  247,638;  200,705;  424,908;20,93321
 202,14;  284,064;  225,010;  469,177;24,18593
 202,74;  246,890;  216,627;  454,731;12,71002
 203,34;  237,555;  190,932;  467,397;16,86412
 203,94;  217,797;  172,472;  459,546;15,78870
 204,54;  272,164;  242,709;  553,332; 9,48258
 205,14;  243,202;  201,627;  574,772;11,14182
 205,74;  289,524;  245,701;  650,495;10,82588
 206,34;  245,304;  198,241;  660,027;10,19154
 206,94;  262,794;  210,242;  711,575;10,48245
 207,54;  239,540;  178,472;  729,451;11,08349
 208,14;  279,290;  202,779;  823,445;12,32723
 208,74;  274,976;  212,628;  891,888; 9,17894
 209,34;  289,713;  204,550;  946,837;11,47309
 209,94;  288,668;  201,396; 1047,583;10,31356
 210,54;  298,353;  205,625; 1152,866; 9,78926
 211,14;  302,945;  214,320; 1238,912; 8,64977
 211,73;  314,946;  208,782; 1328,136; 9,48438
 212,33;  325,685;  223,860; 1427,690; 8,45841
 212,93;  319,637;  202,474; 1539,295; 8,76434
 213,53;  292,261;  173,089; 1603,070; 8,33385
 214,13;  322,313;  189,854; 1643,863; 9,10998
 214,73;  322,295;  186,010; 1688,946; 9,06790
 215,33;  311,053;  162,089; 1719,660; 9,56388
 215,93;  344,619;  208,240; 1823,042; 8,44557
 216,53;  311,977;  172,628; 1898,194; 8,07556
 217,13;  364,624;  211,856; 2087,079; 8,14669
 217,73;  380,266;  191,240; 2237,251; 9,23877
 218,33;  349,127;  151,084; 2432,120; 8,68217
 218,93;  405,362;  171,465; 2720,612; 9,17549
 219,53;  447,258;  184,238; 2985,609; 9,38900
 220,13;  427,882;  162,852; 3274,004; 8,51869
 220,73;  485,777;  183,012; 3603,176; 8,85235
 221,32;  526,592;  183,858; 3989,504; 9,00593
 221,92;  576,090;  191,391; 4316,721; 9,32529
 222,52;  590,953;  167,855; 4778,519; 9,17652
 223,12;  640,962;  183,470; 5205,602; 9,10952
 223,72;  674,324;  190,162; 5596,784; 8,95498
 224,32;  728,898;  185,547; 5902,726; 9,50384
 224,92;  742,179;  178,393; 6247,482; 9,28947
 225,52;  815,386;  194,780; 6616,372; 9,66437
 226,12;  849,095;  188,394; 6909,775; 9,82984
 226,72;  879,276;  170,241; 7263,556; 9,99583
 227,31;  908,634;  154,702; 7620,773;10,09810
 227,91;  995,256;  185,473; 8058,419;10,28564
 228,51; 1046,549;  181,398; 8425,164;10,49460
 229,11; 1106,897;  174,318; 8783,211;10,83274
 229,71; 1147,787;  172,243; 9114,715;10,90911
 230,31; 1209,187;  157,084; 9557,723;11,19182
 230,91; 1236,899;  154,938; 9871,907;11,13476
 231,51; 1309,162;  162,547;10198,468;11,42510
 232,10; 1381,308;  165,853;10460,826;11,80630
 232,70; 1439,707;  181,401;10708,989;11,95246
 233,30; 1511,149;  201,086;10994,574;12,13753
 233,90; 1568,968;  173,625;11139,637;12,72425
 234,50; 1606,533;  174,163;11208,422;12,98112
 235,10; 1688,871;  178,008;11279,251;13,60985
 235,70; 1750,419;  193,088;11310,500;14,00803
 236,29; 1792,855;  192,320;11293,172;14,41812
 236,89; 1818,333;  157,014;11171,587;15,08291
 237,49; 1866,158;  193,163;11084,037;15,36144
 238,09; 1894,227;  186,703;10862,104;15,99495
 238,69; 1928,258;  204,708;10634,656;16,52501
 239,29; 1890,572;  168,318;10347,427;16,91949
 239,89; 1895,975;  189,476; 9968,601;17,45043
 240,48; 1874,277;  178,318; 9619,090;17,96420
 241,08; 1871,305;  170,857; 9309,792;18,60663
 241,68; 1869,580;  195,703; 8972,205;19,07226
 242,28; 1830,077;  173,702; 8609,460;19,63516
 242,88; 1837,137;  206,084; 8287,737;20,18217
 243,48; 1824,489;  211,471; 8055,164;20,56452
 244,07; 1803,459;  184,396; 7804,098;21,24838
 244,67; 1803,168;  196,395; 7653,116;21,54799
 245,27; 1792,792;  183,474; 7484,213;22,04322
 245,87; 1802,174;  201,931; 7425,522;22,15301
 246,47; 1787,127;  191,397; 7383,920;22,18595
 247,06; 1785,327;  178,318; 7432,997;22,15135
 247,66; 1817,340;  178,241; 7471,662;22,47367
 248,26; 1897,000;  193,013; 7559,551;23,13145
 248,86; 1916,389;  197,090; 7755,975;22,74541
 249,46; 1924,954;  150,394; 7976,132;22,67594
 250,05; 2019,015;  195,549; 8360,035;22,33412
 250,65; 2040,983;  171,090; 8672,998;21,99380
 251,25; 2158,903;  178,627; 9102,398;22,19102
 251,85; 2233,165;  169,168; 9690,542;21,67751
 252,44; 2329,488;  149,704;10259,413;21,56129
 253,04; 2477,931;  193,935;10957,484;21,21973
 253,64; 2542,083;  142,937;11691,199;20,77495
 254,24; 2766,115;  193,857;12584,853;20,75909
 254,84; 2866,954;  173,394;13426,209;20,32444
 255,43; 2999,456;  176,704;14386,975;19,86416
 256,03; 3129,168;  182,860;15409,436;19,34978
 256,63; 3306,152;  185,091;16354,420;19,30235
 257,23; 3390,197;  175,091;17187,520;18,89857
 257,82; 3551,498;  184,862;18201,196;18,68658
 258,42; 3571,653;  156,401;18984,882;18,13875
 259,02; 3745,632;  196,089;19968,257;17,95222
 259,62; 3806,477;  171,556;20554,982;17,83273
 260,21; 3831,271;  179,243;21120,920;17,43904
 260,81; 3885,602;  184,087;21516,643;17,35148
 261,41; 3874,792;  159,247;22081,841;16,94848
 262,01; 3955,999;  208,249;22389,814;16,89579
 262,60; 3914,351;  168,860;22801,367;16,54916
 263,20; 3910,878;  180,475;23094,987;16,27966
 263,80; 3903,162;  211,787;23255,126;16,01927
 264,40; 3870,577;  165,402;23488,030;15,88661
 264,99; 3897,845;  187,403;23606,197;15,84387
 265,59; 3817,360;  171,021;23725,628;15,48037
 266,19; 3812,447;  172,480;23841,923;15,37834
 266,78; 3847,173;  209,558;23990,045;15,29664
 267,38; 3753,074;  186,713;24057,143;14,94050
 267,98; 3757,743;  172,327;23937,177;15,08705
 268,58; 3736,355;  187,097;24060,744;14,86684
 269,17; 3682,828;  177,407;24038,120;14,69118
 269,77; 3681,230;  192,246;23890,723;14,72240
 270,37; 3624,393;  161,249;23782,432;14,66118
 270,96; 3631,100;  217,939;23620,689;14,58444
 271,56; 3547,202;  181,553;23328,714;14,54022
 272,16; 3515,336;  173,401;23234,957;14,49137
 272,75; 3463,996;  189,247;23105,519;14,29006
 273,35; 3487,122;  179,554;23147,125;14,40103
 273,95; 3483,281;  191,170;23028,547;14,41545
 274,54; 3487,716;  169,472;22991,808;14,53946
 275,14; 3551,448;  192,016;23368,981;14,49470
 275,74; 3512,530;  158,863;23437,401;14,40669
 276,33; 3667,189;  198,400;23862,202;14,65863
 276,93; 3714,354;  190,241;24179,939;14,69011
 277,53; 3804,909;  182,474;24671,969;14,79179
 278,12; 3860,889;  168,091;25195,215;14,75518
 278,72; 4064,194;  215,474;25701,148;15,10150
 279,32; 4107,941;  182,705;26290,712;15,03461
 279,91; 4254,304;  157,167;26942,659;15,29610
 280,51; 4408,004;  181,320;27484,902;15,48033
 281,11; 4562,969;  177,782;28238,337;15,62758
 281,70; 4632,522;  165,321;28575,381;15,72401
 282,30; 4858,894;  174,168;29251,406;16,11132
 282,90; 4966,853;  171,245;29646,808;16,26978
 283,49; 5182,869;  187,016;30125,845;16,68687
 284,09; 5298,924;  214,475;30539,081;16,76674
 284,69; 5459,539;  203,551;30825,626;17,16405
 285,28; 5644,332;  187,014;31285,592;17,54845
 285,88; 5862,295;  230,632;31502,898;18,00849
 286,47; 6012,645;  184,091;31491,088;18,61742
 287,07; 6161,348;  211,859;31560,377;18,97854
 287,67; 6384,258;  200,471;31682,010;19,64258
 288,26; 6519,729;  183,321;31593,413;20,17316
 288,86; 6776,119;  185,014;31644,371;20,95118
 289,46; 7087,720;  197,475;31830,099;21,78209
 290,05; 7373,925;  184,011;31907,755;22,66414
 290,65; 7691,121;  192,784;32116,362;23,48840
 291,24; 8052,769;  189,936;32198,166;24,56504
 291,84; 8357,152;  196,399;32430,574;25,31708
 292,44; 8729,859;  184,163;32404,428;26,52274
 293,03; 9139,832;  245,166;32636,736;27,45982
 293,63; 9411,134;  180,399;32677,333;28,40494
 294,22; 9701,906;  212,398;32881,229;29,04759
 294,82; 9973,365;  175,787;32821,732;30,01162
 295,41;10128,906;  161,706;32530,227;30,79288
 296,01;10382,232;  212,632;32616,480;31,38393
 296,61;10474,778;  203,782;32301,478;31,99917
 297,20;10499,331;  187,017;31857,916;32,56085
 297,80;10641,164;  201,780;31718,224;33,12361
 298,39;10641,858;  164,091;31387,234;33,55769
 298,99;10752,204;  198,862;31271,011;33,96399
 299,58;10763,037;  197,087;31089,088;34,20287
 300,18;10825,432;  211,242;30981,163;34,49534
 300,78;10786,560;  175,627;30502,681;34,98834
 301,37;10864,688;  197,788;30505,846;35,19493
 301,97;10911,385;  202,321;30524,777;35,31727
 302,56;10923,958;  179,861;30472,897;35,46722
 303,16;10992,076;  168,477;30344,875;35,86776
 303,75;11029,921;  174,319;30307,096;36,02589
 304,35;11141,894;  175,009;30563,144;36,08937
 304,94;11165,711;  175,090;30548,326;36,18522
 305,54;11197,669;  192,089;30566,350;36,23324
 306,13;11108,632;  153,162;30458,630;36,15014
 306,73;11066,819;  163,317;30244,984;36,24633
 307,33;11121,430;  194,625;30193,402;36,42417
 307,92;11137,859;  185,782;30187,442;36,50490
 308,52;11327,108;  176,169;30645,159;36,59766
 309,11;11470,427;  177,709;31087,998;36,53385
 309,71;11562,397;  151,633;31335,629;36,59173
 310,30;11689,814;  164,474;31545,803;36,72674
 310,90;11751,584;  210,474;31962,419;36,34772
 311,49;11850,742;  192,397;31993,843;36,65980
 312,09;11864,382;  149,319;32159,023;36,59847
 312,68;12031,800;  223,858;32632,224;36,43486
 313,28;12084,629;  162,166;32659,212;36,68783
 313,87;12061,629;  159,474;32804,594;36,45922
 314,47;12147,191;  176,786;33047,500;36,41663
 315,06;12110,619;  165,012;33274,746;36,07884
 315,66;12160,767;  162,473;33451,869;36,04239
 316,25;12095,841;  154,015;33282,066;36,04747
 316,85;12052,681;  138,857;33424,711;35,79245
 317,44;12081,716;  172,632;33580,068;35,64800
 318,04;11988,726;  158,245;33614,899;35,36062
 318,63;11978,909;  156,471;33675,337;35,27100
 319,22;12024,668;  173,169;33864,059;35,17716
 319,82;11956,481;  177,399;33755,089;35,08009
 320,41;11848,483;  189,399;33746,544;34,74397
 321,01;11842,794;  185,627;33856,727;34,62069
 321,60;11796,192;  180,937;33851,252;34,49702
 322,20;11702,877;  167,628;33793,375;34,30481
 322,79;11650,248;  203,935;33908,638;33,96058
 323,39;11588,370;  174,547;33981,034;33,76223
 323,98;11456,592;  165,781;33895,119;33,47475
 324,58;11389,045;  174,708;33830,512;33,32066
 325,17;11297,026;  169,092;33600,660;33,28571
 325,76;11222,779;  192,705;33369,630;33,24622
 326,36;11001,523;  154,473;33078,283;32,94591
 326,95;10820,006;  191,783;32733,968;32,65983
 327,55;10685,785;  165,783;32425,201;32,61064
 328,14;10516,187;  171,087;32043,814;32,45753
 328,74;10362,519;  203,092;31628,869;32,32832
 329,33;10143,826;  191,319;31264,703;32,02904
 329,92; 9952,983;  164,863;30700,624;32,05461
 330,52; 9644,938;  196,856;30046,883;31,65183
 331,11; 9476,590;  180,783;29735,836;31,45251
 331,71; 9210,919;  174,013;29028,197;31,31922
 332,30; 9041,942;  192,782;28617,941;31,13143
 332,89; 8883,908;  235,396;28174,204;30,95519
 333,49; 8657,250;  191,167;27643,783;30,83889
 334,08; 8430,694;  184,706;27155,386;30,57390
 334,68; 8242,581;  188,091;26778,753;30,29067
 335,27; 8154,032;  192,318;26484,664;30,28149
 335,86; 7964,513;  233,629;26222,067;29,74740
 336,46; 7845,050;  187,702;25950,213;29,72283
 337,05; 7760,947;  175,937;25747,899;29,66143
 337,65; 7607,364;  164,399;25580,260;29,28472
 338,24; 7630,013;  225,243;25590,752;29,19228
 338,83; 7541,786;  205,935;25485,563;29,01883
 339,43; 7468,858;  165,861;25399,076;28,94200
 340,02; 7402,949;  176,938;25302,350;28,75977
 340,61; 7397,529;  177,936;25345,701;28,68587
 341,21; 7348,903;  209,630;25352,100;28,39527
 341,80; 7281,744;  180,322;25279,680;28,29324
 342,40; 7254,404;  179,779;25354,617;28,10197
 342,99; 7235,754;  180,627;25419,589;27,95332
 343,58; 7210,903;  180,473;25663,242;27,58896
 344,18; 7255,310;  203,242;25691,216;27,66822
 344,77; 7282,986;  176,169;26001,830;27,51843
 345,36; 7302,929;  163,398;26304,276;27,31175
 345,96; 7362,161;  197,473;26551,948;27,18585
 346,55; 7397,926;  165,701;26789,582;27,16443
 347,14; 7398,675;  164,318;27178,061;26,78028
 347,74; 7486,905;  153,853;27512,051;26,80386
 348,33; 7625,005;  170,930;28140,175;26,65097
 348,92; 7781,175;  187,928;28804,118;26,53479
 349,52; 7827,298;  150,160;29140,367;26,48183
 350,11; 7825,040;  177,246;29451,624;26,12453
 350,70; 7849,258;  180,859;29516,180;26,14050
 351,29; 7734,607;  167,635;29154,031;26,10525
 351,89; 7722,414;  193,632;29199,722;25,95586
 352,48; 7634,063;  159,859;29261,813;25,68283
 353,07; 7641,190;  187,625;29154,014;25,73177
 353,67; 7585,903;  189,774;29179,138;25,51325
 354,26; 7474,150;  180,779;28879,722;25,41338
 354,85; 7437,183;  185,934;28696,078;25,43393
 355,45; 7324,772;  166,553;28576,230;25,19641
 356,04; 7328,905;  168,933;28524,296;25,25086
 356,63; 7241,562;  213,013;28310,978;25,01444
 357,22; 7154,045;  187,095;28175,834;24,89197
 357,82; 7059,668;  181,787;28021,075;24,70566
 358,41; 7086,285;  200,705;27875,267;24,88054
 359,00; 7016,718;  163,707;27671,506;24,91297
 359,60; 6909,845;  195,628;27578,553;24,51972
 360,19; 6882,904;  192,702;27441,913;24,55191
 360,78; 6851,567;  189,552;27286,631;24,58573
 361,37; 6780,775;  176,552;27106,120;24,52406
 361,97; 6695,892;  181,090;26957,568;24,33032
 362,56; 6641,511;  176,708;26732,782;24,34397
 363,15; 6612,215;  219,168;26501,376;24,32462
 363,74; 6505,643;  190,247;26212,342;24,26936
 364,34; 6355,266;  212,477;25794,587;24,01205
 364,93; 6249,692;  172,016;25461,255;24,03266
 365,52; 6129,205;  157,245;24992,913;24,04590
 366,11; 6067,886;  176,246;24824,090;23,90327
 366,71; 6018,361;  168,707;24301,443;24,23950
 367,30; 5908,517;  179,014;24066,801;23,98507
 367,89; 5880,423;  213,934;23886,774;23,93667
 368,48; 5773,060;  197,632;23577,551;23,84708
 369,07; 5705,488;  182,089;23119,488;24,08032
 369,67; 5663,150;  206,401;22871,368;24,07570
 370,26; 5562,597;  173,089;22684,697;23,94102
 370,85; 5472,653;  185,091;22379,637;23,82370
 371,44; 5450,888;  189,629;22159,296;23,94783
 372,03; 5396,049;  157,169;21982,709;24,00344
 372,63; 5275,535;  148,860;21682,503;23,80775
 373,22; 5291,032;  172,705;21387,373;24,12636
 373,81; 5200,101;  163,014;21114,669;24,04148
 374,40; 5151,123;  176,087;20814,167;24,10610
 374,99; 5078,839;  162,630;20626,227;24,02417
 375,59; 5032,563;  161,703;20293,039;24,19541
 376,18; 5042,961;  201,783;20229,866;24,17195
 376,77; 5011,204;  197,398;20013,148;24,29283
 377,36; 5024,997;  207,091;19956,193;24,39557
 377,95; 4969,008;  189,553;19697,806;24,49965
 378,55; 4907,871;  164,473;19494,265;24,53931
 379,14; 4947,753;  187,398;19459,225;24,70111
 379,73; 4923,885;  185,399;19364,323;24,70674
 380,32; 5010,598;  188,475;19387,460;25,11655
 380,91; 4924,747;  160,862;19250,281;24,95563
 381,50; 4980,104;  200,092;19202,887;25,15425
 382,10; 4952,983;  171,782;19127,075;25,22356
 382,69; 4954,404;  163,937;19091,627;25,30931
 383,28; 4996,732;  196,323;19038,857;25,47645
 383,87; 4995,936;  176,323;18915,536;25,71940
 384,46; 4958,790;  168,864;18834,483;25,66176
 385,05; 5039,398;  207,400;18890,457;25,86299
 385,64; 5051,501;  177,400;18790,090;26,18698
 386,24; 5101,066;  167,633;18801,351;26,47584
 386,83; 5104,732;  196,403;18866,412;26,28991
 387,42; 5187,379;  204,399;18935,530;26,60266
 388,01; 5295,418;  191,405;19100,470;26,99241
 388,60; 5354,355;  190,786;19335,115;26,97179
 389,19; 5436,218;  169,484;19517,465;27,22110
 389,78; 5577,014;  172,099;19768,868;27,58064
 390,37; 5772,059;  246,711;20183,877;27,71381
 390,96; 5822,587;  191,710;20323,341;27,97029
 391,56; 5878,758;  195,331;20505,843;27,98269
 392,15; 6002,931;  181,483;20752,908;28,29871
 392,74; 6066,636;  166,873;20901,909;28,45311
 393,33; 6226,089;  186,409;21188,506;28,75751
 393,92; 6408,164;  190,029;21509,312;29,16672
 394,51; 6457,609;  170,024;21736,419;29,15455
 395,10; 6642,832;  212,803;22042,452;29,45548
 395,69; 6696,225;  191,187;22122,616;29,66080
 396,28; 6801,007;  200,651;22251,062;29,93303
 396,87; 6860,258;  204,195;22282,151;30,14801
 397,46; 6993,910;  207,352;22401,568;30,57805
 398,06; 7121,938;  225,202;22623,436;30,79143
 398,65; 7199,250;  209,057;22629,751;31,17742
 399,24; 7314,832;  215,982;22851,413;31,36167
 399,83; 7344,667;  188,380;22869,414;31,55185
 400,42; 7487,848;  239,008;22968,947;31,89115
 401,01; 7620,321;  202,715;23059,918;32,45194
 401,60; 7721,100;  213,657;23082,619;32,82809
 402,19; 7778,914;  226,364;23042,330;33,10204
 402,78; 7811,705;  235,388;23103,118;33,13104
 403,37; 7869,276;  224,641;22892,190;33,72502
 403,96; 7867,536;  215,744;22811,308;33,86413
 404,55; 7931,425;  235,850;22680,716;34,28657
 405,14; 7936,147;  217,415;22574,140;34,52532
 405,73; 8005,025;  232,908;22489,875;34,91993
 406,32; 8047,245;  225,467;22375,514;35,31269
 406,91; 7998,357;  218,491;22120,881;35,52063
 407,50; 8079,127;  244,196;22018,862;35,98186
 408,09; 8054,519;  220,205;21788,528;36,32324
 408,68; 8139,185;  235,749;21581,774;37,02533
 409,27; 8080,607;  222,280;21316,509;37,25345
 409,86; 8144,091;  236,261;21262,321;37,60966
 410,45; 8210,403;  259,322;21223,677;37,92667
 411,04; 8276,474;  263,998;21107,186;38,44170
 411,63; 8242,262;  251,362;20869,553;38,75655
 412,22; 8216,981;  258,189;20708,485;38,91774
 412,81; 8205,143;  261,028;20506,157;39,23964
 413,40; 8128,144;  263,943;20181,033;39,48469
 413,99; 8173,085;  315,638;19847,751;40,22835
 414,58; 8012,272;  239,097;19457,705;40,44609
 415,17; 8000,813;  250,720;19335,723;40,60829
 415,76; 8022,593;  245,420;19198,747;41,03329
 416,35; 7995,058;  226,186;18910,163;41,58040
 416,94; 8120,251;  275,803;18988,474;41,92052
 417,53; 8255,567;  248,874;19218,989;42,20688
 418,12; 8378,755;  234,103;19311,174;42,69341
 418,71; 8600,949;  262,327;19599,129;43,12307
 419,30; 8648,976;  248,025;19691,097;43,20794
 419,89; 8843,539;  229,947;19850,891;43,89999
 420,48; 9062,709;  270,788;20126,664;44,27869
 421,07; 9146,540;  259,325;20203,168;44,56119
 421,66; 9237,950;  218,168;20198,096;45,14422
 422,25; 9270,658;  250,852;20168,625;45,28522
 422,84; 9352,109;  268,235;20115,708;45,76841
 423,43; 9284,344;  255,931;19971,839;45,79253
 424,02; 9214,559;  280,853;19667,343;46,08213
 424,60; 9142,501;  242,382;19256,615;46,80767
 425,19; 9125,191;  250,002;18993,347;47,35115
 425,78; 9111,186;  259,078;18966,848;47,31781
 426,37; 9155,950;  252,921;18853,025;47,86548
 426,96; 9149,696;  252,691;18707,129;48,21066
 427,55; 9108,960;  242,378;18590,378;48,32452
 428,14; 9121,939;  240,145;18369,770;48,99050
 428,73; 9109,339;  240,841;18209,283;49,35597
 429,32; 9157,403;  253,383;18195,555;49,62621
 429,91; 9237,452;  268,303;18148,841;50,16152
 430,50; 9216,036;  259,300;18042,462;50,36639
 431,08; 9217,132;  252,220;17888,222;50,83301
 431,67; 9247,029;  268,218;17778,113;51,27850
 432,26; 9216,957;  280,216;17600,826;51,59600
 432,85; 9099,773;  297,062;17227,997;51,99188
 433,44; 8962,162;  290,444;16938,796;52,08755
 434,03; 8854,114;  304,362;16547,694;52,63546
 434,62; 8685,596;  273,136;16235,630;52,70141
 435,21; 8698,790;  284,985;16025,625;53,45275
 435,79; 8649,451;  284,441;15837,233;53,78462
 436,38; 8594,386;  272,513;15748,582;53,77252
 436,97; 8626,118;  277,358;15692,184;54,16058
 437,56; 8532,610;  272,121;15432,523;54,48727
 438,15; 8530,920;  256,353;15429,664;54,53370
 438,74; 8614,770;  282,814;15443,710;54,95688
 439,33; 8639,975;  278,200;15443,536;55,13742
 439,91; 8746,989;  260,658;15510,490;55,64868
 440,50; 8807,386;  301,273;15572,614;55,69984
 441,09; 8908,933;  286,116;15669,149;56,05408
 441,68; 8923,370;  281,958;15611,784;56,36993
 442,27; 8976,133;  254,190;15706,152;56,44554
 442,86; 8946,288;  250,874;15671,181;56,38937
 443,44; 9094,933;  254,722;15717,952;57,16924
 444,03; 9179,500;  318,027;15775,020;57,32986
 444,62; 9122,640;  259,720;15659,436;57,55249
 445,21; 9056,212;  279,028;15439,637;57,89467
 445,80; 9050,653;  296,947;15382,317;58,02778
 446,39; 8959,247;  335,871;15154,108;58,19435
 446,97; 8848,162;  247,019;14969,146;58,42324
 447,56; 8755,867;  259,246;14708,029;58,80509
 448,15; 8674,479;  270,327;14556,611;58,82672
 448,74; 8531,333;  271,096;14339,389;58,71528
 449,33; 8479,836;  269,939;14177,201;59,03317
 449,91; 8424,761;  259,857;13991,854;59,45897
 450,50; 8320,107;  254,397;13799,557;59,54680
 451,09; 8241,925;  281,165;13712,086;59,27188
 451,68; 8239,479;  295,548;13567,186;59,85644
 452,26; 8218,141;  283,238;13571,341;59,71434
 452,85; 8124,717;  263,163;13478,042;59,49017
 453,44; 8213,129;  273,003;13462,104;60,20218
 454,03; 8172,170;  249,083;13412,481;60,19029
 454,61; 8167,083;  252,618;13336,700;60,48927
 455,20; 8299,234;  279,308;13576,177;60,31440
 455,79; 8312,515;  287,619;13517,327;60,65815
 456,38; 8367,310;  284,381;13622,395;60,60069
 456,97; 8434,742;  262,382;13692,718;60,85000
 457,55; 8436,634;  266,303;13687,877;60,87461
 458,14; 8469,874;  286,691;13656,047;61,20851
 458,73; 8424,896;  272,533;13611,242;61,11808
 459,31; 8464,361;  306,529;13687,120;60,96765
 459,90; 8496,531;  305,916;13723,689;61,04303
 460,49; 8584,546;  349,610;13797,880;61,23417
 461,08; 8547,503;  273,143;13841,129;60,98444
 461,66; 8634,841;  287,837;13918,743;61,23587
 462,25; 8663,125;  287,372;14048,376;60,86585
 462,84; 8770,457;  308,373;14088,955;61,40585
 463,43; 8694,132;  245,983;13996,374;61,43934
 464,01; 8715,387;  286,366;14022,631;61,36327
 464,60; 8660,252;  328,062;13987,653;60,99882
 465,19; 8571,549;  259,673;13771,336;61,51631
 465,77; 8542,672;  273,132;13717,491;61,50937
 466,36; 8484,530;  303,675;13654,496;61,27604
 466,95; 8308,756;  288,367;13353,613;61,38720
 467,53; 8124,538;  286,437;13079,249;61,26957
 468,12; 7999,754;  312,206;12851,900;61,30571
 468,71; 7817,991;  289,518;12647,946;60,91773
 469,29; 7677,237;  271,206;12355,877;61,28451
 469,88; 7533,307;  285,896;12091,771;61,38818
 470,47; 7608,157;  337,508;12267,262;60,94551
 471,06; 7514,153;  284,508;12222,069;60,56216
 471,64; 7591,751;  292,355;12293,976;60,82009
 472,23; 7592,185;  262,887;12259,632;61,09405
 472,81; 7629,303;  267,121;12430,549;60,52719
 473,40; 7733,216;  272,194;12516,918;60,93255
 473,99; 7857,397;  363,425;12752,162;60,49020
 474,57; 7822,836;  273,502;12829,496;60,12534
 475,16; 7918,256;  283,658;12991,147;60,07952
 475,75; 7993,882;  304,192;13034,424;60,40495
 476,33; 8040,127;  309,881;13192,991;60,00295
 476,92; 8058,550;  313,040;13218,628;60,01672
 477,51; 8058,228;  295,882;13283,571;59,76696
 478,09; 8062,744;  295,267;13288,675;59,78014
 478,68; 8007,290;  296,650;13265,457;59,45528
 479,27; 8056,095;  321,038;13287,262;59,65543
 479,85; 7999,847;  290,420;13273,311;59,38144
 480,44; 8059,750;  282,265;13375,157;59,40234
 481,02; 8781,158;  292,570;14655,804;59,09942
 481,61; 9926,639;  315,186;16558,497;59,17176
 482,20;10537,303;  287,108;17714,415;58,81686
 482,78;11016,497;  325,727;18474,950;58,90484
 483,37;11301,727;  302,951;19007,156;58,80376
 483,95;11436,604;  331,642;19267,754;58,64436
 484,54;11564,916;  322,341;19431,978;58,83196
 485,13;11480,373;  297,101;19327,279;58,76599
 485,71;11355,981;  272,486;19101,497;58,86392
 486,30;11140,574;  314,333;18843,755;58,42730
 486,88;10947,441;  342,870;18545,273;58,25918
 487,47;10508,309;  332,254;17848,251;58,09578
 488,05;10024,302;  307,945;16993,143;58,23339
 488,64; 9256,420;  304,173;15833,648;57,64681
 489,23; 8253,269;  311,175;14052,710;57,79627
 489,81; 6975,472;  317,866;12031,241;56,83764
 490,40; 6641,394;  276,327;11411,322;57,16273
 490,98; 6483,958;  266,018;11156,729;57,09397
 491,57; 6383,260;  291,790;11113,093;56,29147
 492,15; 6365,876;  277,018;11057,999;56,47777
 492,74; 6273,121;  290,252;10988,286;55,92494
 493,32; 6179,768;  297,480;10826,863;55,86546
 493,91; 6140,050;  282,940;10718,905;56,12428
 494,50; 6066,156;  292,781;10726,344;55,33465
 495,08; 6018,274;  275,012;10688,785;55,15063
 495,67; 6007,634;  295,325;10617,771;55,33872
 496,25; 5892,151;  250,399;10529,013;54,88825
 496,84; 5891,843;  249,940;10536,335;54,84820
 497,42; 5848,000;  256,167;10475,061;54,72053
 498,01; 5800,344;  284,632;10432,783;54,35189
 498,59; 5751,031;  243,628;10363,810;54,42000
 499,18; 5717,063;  244,632;10314,491;54,34467
 499,76; 5616,757;  281,937;10266,240;53,43207
 500,35; 5505,145;  269,164;10053,502;53,51390
 500,93; 5437,158;  259,013;10050,485;52,88424
 501,52; 5413,117;  257,628; 9999,353;52,92173
 502,10; 5349,947;  273,700; 9961,534;52,39816
 502,69; 5275,302;  263,006; 9810,764;52,49710
 503,27; 5120,459;  254,165; 9620,612;51,95453
 503,86; 5086,950;  266,392; 9592,890;51,68670
 504,44; 4962,867;  245,159; 9443,246;51,29009
 505,03; 4845,419;  226,852; 9248,753;51,19284
 505,61; 4801,171;  247,314; 9122,277;51,31128
 506,19; 4681,374;  267,698; 9008,575;50,49465
 506,78; 4548,119;  247,463; 8795,823;50,30972
 507,36; 4467,894;  246,083; 8640,334;50,29408
 507,95; 4409,162;  252,616; 8517,473;50,29181
 508,53; 4322,115;  251,925; 8379,551;50,07846
 509,12; 4269,869;  254,385; 8286,437;49,99324
 509,70; 4209,085;  278,769; 8112,475;50,17185
 510,29; 4095,340;  270,537; 8021,348;49,34714
 510,87; 3996,242;  229,925; 7807,845;49,70119
 511,46; 3873,697;  239,078; 7679,425;48,85013
 512,04; 3826,355;  247,692; 7493,692;49,38812
 512,62; 3730,521;  240,540; 7373,530;48,92732
 513,21; 3601,874;  237,229; 7254,078;47,95094
 513,79; 3563,277;  248,223; 7137,901;48,11624
 514,38; 3466,067;  226,610; 6969,435;48,04303
 514,96; 3444,104;  283,456; 6906,219;47,72400
 515,54; 3317,143;  226,609; 6790,595;47,08319
 516,13; 3289,301;  250,531; 6667,100;47,35817
 516,71; 3193,130;  239,144; 6551,994;46,79321
 517,30; 3130,267;  229,835; 6464,656;46,51989
 517,88; 3101,760;  261,450; 6313,709;46,92975
 518,46; 3011,420;  235,526; 6240,509;46,22650
 519,05; 2988,308;  236,832; 6207,312;46,08468
 519,63; 2969,722;  243,217; 6170,397;46,00003
 520,22; 2921,354;  258,599; 6088,779;45,67193
 520,80; 2851,766;  254,137; 6067,179;44,68622
 521,38; 2853,706;  274,909; 6032,898;44,78642
 521,97; 2820,039;  244,750; 5945,368;45,17561
 522,55; 2787,383;  246,904; 5916,924;44,80547
 523,13; 2774,001;  224,595; 5935,666;44,63972
 523,72; 2747,759;  232,295; 5921,485;44,21480
 524,30; 2820,565;  263,825; 6064,306;44,07807
 524,89; 2800,220;  217,750; 6061,384;44,19288
 525,47; 2838,812;  255,516; 6150,397;43,82271
 526,05; 2824,676;  223,977; 6207,640;43,46333
 526,64; 2860,077;  256,669; 6333,656;42,84045
 527,22; 2901,283;  247,286; 6469,016;42,65690
 527,80; 2948,992;  277,130; 6582,265;42,37596
 528,39; 2962,483;  241,437; 6703,483;42,10812
 528,97; 3042,389;  244,822; 6830,623;42,47877
 529,55; 3070,336;  255,980; 6979,680;41,85725
 530,14; 3142,970;  267,820; 7196,272;41,49772
 530,72; 3176,905;  242,284; 7259,573;41,81987
 531,30; 3187,228;  221,435; 7394,904;41,34391
 531,89; 3212,354;  240,974; 7508,044;40,88829
 532,47; 3284,570;  272,204; 7562,005;41,32303
 533,05; 3259,322;  260,746; 7587,853;40,92442
 533,63; 3268,167;  268,973; 7645,153;40,66054
 534,22; 3273,977;  238,126; 7700,443;40,68241
 534,80; 3310,258;  266,124; 7805,718;40,37531
 535,38; 3377,910;  331,050; 7840,825;40,57192
 535,97; 3284,113;  235,050; 7799,815;40,30612
 536,55; 3320,068;  286,277; 7874,241;39,98161
 537,13; 3288,527;  271,974; 7805,898;40,03960
 537,71; 3330,500;  292,051; 7843,959;40,23419
 538,30; 3339,437;  297,356; 7913,603;39,94199
 538,88; 3403,119;  318,583; 7974,974;40,28708
 539,46; 3475,525;  348,124; 8120,659;40,23657
 540,05; 3519,161;  341,123; 8268,180;40,09103
 540,63; 3585,795;  362,046; 8399,421;40,10947
 541,21; 3644,191;  373,352; 8540,785;40,04733
 541,79; 3692,394;  375,813; 8589,463;40,37889
 542,38; 3753,135;  403,123; 8794,472;39,92221
 542,96; 3783,337;  399,273; 8890,296;39,85461
 543,54; 3879,024;  411,121; 9079,968;40,00420
 544,12; 3879,823;  389,582; 9192,412;39,64908
 544,70; 3879,807;  370,350; 9301,148;39,29612
 545,29; 3942,125;  400,046; 9415,391;39,28945
 545,87; 3922,317;  379,736; 9524,694;38,73808
 546,45; 3866,090;  363,200; 9524,141;38,23723
 547,03; 3910,848;  363,276; 9650,453;38,19861
 547,62; 3915,688;  334,428; 9783,727;37,89974
 548,20; 3948,708;  366,196; 9943,787;37,40515
 548,78; 3956,878;  346,268;10122,949;36,93083
 549,36; 3989,575;  333,038;10321,448;36,60780
 549,94; 4011,049;  306,120;10458,221;36,49421
 550,53; 4046,938;  305,731;10679,085;36,06555
 551,11; 4097,238;  291,652;10862,522;36,00069
 551,69; 4155,698;  319,807;11201,777;35,24996
 552,27; 4235,469;  279,578;11366,380;35,68108
 552,85; 4327,492;  288,806;11774,571;35,16253
 553,44; 4423,399;  297,730;12027,551;35,17248
 554,02; 4522,805;  303,037;12408,837;34,85741
 554,60; 4562,482;  253,421;12637,877;34,79411
 555,18; 4724,933;  293,192;13091,204;34,62835
 555,76; 4786,588;  286,499;13377,805;34,37464
 556,34; 4919,086;  289,727;13811,270;34,23691
 556,93; 5007,299;  271,653;14095,042;34,25821
 557,51; 5082,321;  267,957;14407,850;34,04809
 558,09; 5192,412;  284,884;14838,598;33,72011
 558,67; 5286,052;  291,340;15164,843;33,58127
 559,25; 5408,270;  297,418;15412,407;33,81314
 559,83; 5472,706;  276,724;15755,295;33,56887
 560,41; 5555,213;  266,189;16038,406;33,53380
 561,00; 5669,233;  278,033;16408,395;33,42268
 561,58; 5697,693;  276,804;16638,876;33,13082
 562,16; 5766,202;  266,267;16939,350;32,98691
 562,74; 5888,846;  243,576;17211,742;33,26977
 563,32; 5948,575;  238,185;17707,499;32,68812
 563,90; 6068,527;  284,725;18030,889;32,59184
 564,48; 6169,341;  274,574;18412,619;32,49946
 565,06; 6367,744;  274,417;18993,226;32,55190
 565,65; 6550,458;  276,798;19581,421;32,49823
 566,23; 6794,273;  323,263;20293,455;32,40334
 566,81; 6924,754;  270,187;21011,379;32,08382
 567,39; 7249,307;  269,954;21884,100;32,29067
 567,97; 7351,709;  296,648;22466,052;31,82341
 568,55; 7632,851;  303,570;23252,828;31,93690
 569,13; 7790,970;  271,494;23927,188;31,78717
 569,71; 8017,994;  270,575;24770,938;31,62165
 570,29; 8341,693;  309,422;25747,738;31,57548
 570,87; 8556,859;  304,806;26417,021;31,60227
 571,45; 8696,789;  293,802;27018,865;31,44235
 572,03; 8771,098;  254,492;27443,923;31,32322
 572,61; 8953,860;  236,570;28178,139;31,19828
 573,20; 9146,891;  270,342;28727,675;31,19248
 573,78; 9331,588;  267,185;29297,852;31,22354
 574,36; 9429,472;  274,647;29835,019;30,96992
 574,94; 9549,427;  322,491;30149,054;30,93530
 575,52; 9570,495;  266,719;30401,728;30,87365
 576,10; 9722,520;  312,259;30958,384;30,70620
 576,68; 9854,827;  283,646;31489,479;30,67113
 577,26;10000,525;  304,641;32155,945;30,44109
 577,84;10114,109;  304,955;32562,763;30,40862
 578,42;10209,553;  338,798;32821,046;30,38815
 579,00;10158,448;  292,185;32897,435;30,25974
 579,58;10233,341;  335,107;33194,204;30,12327
 580,16;10145,765;  285,567;33231,117;29,92877
 580,74;10256,878;  293,643;33486,983;30,01576
 581,32;10264,793;  295,952;33498,279;30,02453
 581,90;10178,543;  316,567;33401,814;29,80778
 582,48;10174,086;  306,644;33580,547;29,65520
 583,06;10183,590;  303,953;33715,137;29,56985
 583,64;10173,708;  304,337;33817,501;29,44924
 584,22;10091,969;  308,872;33593,393;29,39233
 584,80;10021,250;  306,567;33493,857;29,27230
 585,38; 9858,887;  316,957;33014,939;29,18201
 585,96; 9876,968;  290,339;33115,968;29,20471
 586,54; 9823,613;  315,257;33142,402;28,96492
 587,12; 9830,194;  286,643;33261,684;28,94174
 587,70; 9847,465;  322,415;33417,296;28,78104
 588,28; 9782,447;  293,797;33512,887;28,56385
 588,86; 9792,333;  315,565;33559,181;28,50703
 589,44; 9772,509;  286,485;33686,526;28,40123
 590,02; 9814,538;  294,948;33847,456;28,37222
 590,59; 9860,391;  277,565;34073,560;28,35492
 591,17; 9828,839;  278,790;34254,717;28,10828
 591,75; 9853,114;  289,638;34368,300;28,06294
 592,33; 9889,242;  299,946;34616,203;27,94389
 592,91; 9844,125;  260,098;34877,277;27,68576
 593,49; 9952,653;  267,250;35155,822;27,76096
 594,07; 9981,200;  285,250;35247,979;27,73225
 594,65; 9963,151;  293,872;35265,943;27,64857
 595,23;10066,212;  287,102;35782,677;27,55022
 595,81;10065,528;  280,870;35891,995;27,47641
 596,39; 9995,152;  280,178;36002,463;27,19584
 596,97;10089,329;  281,098;36137,032;27,35455
 597,55;10014,313;  269,025;36135,876;27,17074
 598,12; 9989,353;  255,480;36050,216;27,19359
 598,70; 9958,034;  251,867;36166,466;27,02569
 599,28; 9998,921;  286,636;36410,910;26,88576
 599,86; 9998,668;  276,405;36415,935;26,90202
 600,44; 9956,807;  242,020;36518,589;26,77978
 601,02;10001,109;  304,016;36599,693;26,71694
 601,60; 9963,105;  278,407;36513,219;26,72761
 602,18; 9932,267;  252,634;36569,364;26,65337
 602,75; 9862,953;  251,870;36674,052;26,38799
 603,33; 9894,794;  266,713;36676,078;26,44397
 603,91; 9898,921;  249,479;36557,357;26,57672
 604,49; 9842,147;  282,636;36709,255;26,24320
 605,07; 9842,752;  277,561;36687,964;26,27049
 605,65; 9814,553;  264,327;36806,465;26,13483
 606,23; 9862,939;  313,719;36928,100;26,08052
 606,80; 9801,465;  326,024;36852,423;25,94135
 607,38; 9877,297;  330,480;36920,811;26,09109
 607,96; 9866,628;  352,563;36923,119;26,01564
 608,54; 9813,218;  400,789;36975,220;25,73500
 609,12; 9843,351;  370,255;36985,175;25,87223
 609,70; 9815,098;  408,867;36987,034;25,71542
 610,27; 9794,845;  389,332;37116,226;25,60933
 610,85; 9781,578;  414,483;37177,734;25,47951
 611,43; 9773,867;  415,790;37126,344;25,49152
 612,01; 9693,327;  380,023;36804,749;25,56863
 612,59; 9649,315;  385,483;36923,296;25,35410
 613,16; 9611,535;  357,026;36835,176;25,37001
 613,74; 9536,604;  345,482;36636,445;25,32620
 614,32; 9517,250;  349,327;36775,891;25,16823
 614,90; 9441,737;  342,099;36710,308;25,02086
 615,48; 9322,711;  303,641;36428,537;24,96636
 616,05; 9267,160;  293,180;36473,178;24,80371
 616,63; 9184,071;  306,489;36237,049;24,70761
 617,21; 9152,601;  300,871;36071,257;24,74597
 617,79; 9077,129;  289,716;36073,952;24,55666
 618,36; 8991,725;  294,023;36043,027;24,32991
 618,94; 8875,480;  253,640;35701,231;24,32278
 619,52; 8787,971;  273,027;35440,617;24,21247
 620,10; 8759,035;  280,870;35417,478;24,12915
 620,67; 8767,342;  267,719;35289,877;24,26927
 621,25; 8733,783;  281,176;35215,250;24,19588
 621,83; 8641,493;  277,717;35104,123;24,01562
 622,41; 8666,973;  318,718;35169,208;23,95449
 622,98; 8565,695;  285,258;34881,437;23,93454
 623,56; 8554,153;  291,258;34852,317;23,90811
 624,14; 8471,090;  273,637;34762,026;23,76873
 624,72; 8410,285;  280,025;34551,095;23,72339
 625,29; 8380,348;  260,643;34700,915;23,57619
 625,87; 8402,310;  309,947;34734,658;23,50743
 626,45; 8247,593;  267,105;34526,648;23,29420
 627,02; 8280,025;  262,562;34389,940;23,49276
 627,60; 8222,508;  259,328;34348,900;23,35958
 628,18; 8144,351;  228,255;34507,559;23,09293
 628,76; 8179,885;  243,489;34482,919;23,17911
 629,33; 8164,653;  273,564;34508,850;23,04958
 629,91; 8121,419;  259,793;34450,709;22,99332
 630,49; 8160,554;  281,257;34644,335;22,92954
 631,06; 8209,011;  270,258;34736,138;23,03366
 631,64; 8110,936;  283,489;34727,591;22,72507
 632,22; 7981,422;  242,952;34666,247;22,48033
 632,79; 8089,540;  273,875;34886,691;22,58026
 633,37; 8095,485;  243,100;34957,868;22,61973
 633,95; 8060,575;  263,644;35037,100;22,42208
 634,52; 8056,140;  250,179;35102,176;22,39746
 635,10; 8051,252;  258,332;35160,892;22,32765
 635,68; 7976,590;  262,337;35351,600;21,98465
 636,25; 7964,448;  256,570;35312,591;21,98732
 636,83; 7963,962;  239,181;35536,457;21,88492
 637,41; 7976,799;  246,260;35649,470;21,83570
 637,98; 7986,021;  280,415;35813,464;21,68574
 638,56; 7943,344;  261,032;35863,420;21,57808
 639,13; 7941,343;  250,566;35983,644;21,52285
 639,71; 8025,848;  295,411;36098,826;21,59134
 640,29; 7876,012;  223,950;35829,166;21,49141
 640,86; 7927,167;  242,334;36022,891;21,47768
 641,44; 7859,862;  243,642;35942,309;21,33475
 642,02; 7854,940;  263,872;36014,111;21,23361
 642,59; 7883,865;  239,488;36149,452;21,28762
 643,17; 7820,021;  250,795;36167,870;21,07417
 643,74; 7789,023;  238,488;36055,057;21,08112
 644,32; 7818,410;  273,795;36101,860;21,05783
 644,89; 7771,181;  262,410;36213,508;20,88607
 645,47; 7773,952;  280,180;36109,849;20,91499
 646,05; 7709,569;  269,410;35997,113;20,82462
 646,62; 7686,340;  246,333;36063,223;20,77234
 647,20; 7689,958;  261,333;36173,257;20,68568
 647,77; 7639,498;  226,102;36047,751;20,69529
 648,35; 7575,731;  224,179;35928,246;20,59024
 648,92; 7577,810;  248,025;35983,972;20,51096
 649,50; 7514,119;  215,256;35896,466;20,45576
 650,08; 7457,890;  222,333;35842,269;20,31322
 650,65; 7500,815;  233,948;36071,379;20,27731
 651,23; 7607,663;  212,102;36791,874;20,21763
 651,80; 7778,127;  208,409;37547,292;20,27302
 652,38; 7834,898;  236,332;38124,248;20,05538
 652,95; 7847,054;  212,255;38341,666;20,02338
 653,53; 7882,133;  251,409;38661,776;19,86631
 654,10; 7903,673;  271,716;38817,501;19,79972
 654,68; 7822,906;  219,255;38746,996;19,73552
 655,25; 7799,984;  210,024;38777,491;19,67970
 655,83; 7792,909;  230,485;38822,293;19,59593
 656,40; 7772,757;  250,255;38881,173;19,47275
 656,98; 7710,682;  240,254;38771,206;19,38812
 657,55; 7669,377;  232,024;38593,008;19,38781
 658,13; 7601,686;  229,331;38352,734;19,33813
 658,70; 7438,457;  243,716;38070,844;19,02006
 659,28; 7258,536;  218,177;37349,724;18,96059
 659,85; 7071,923;  240,639;36492,603;18,84390
 660,43; 7060,848;  245,254;36565,328;18,76536
 661,00; 7037,619;  232,254;36679,054;18,67205
 661,58; 7068,467;  220,484;36902,087;18,66871
 662,15; 7059,623;  217,100;37110,043;18,54697
 662,73; 7118,625;  281,023;37463,154;18,38948
 663,30; 7136,319;  233,253;37635,418;18,45633
 663,88; 7149,705;  239,869;37755,528;18,41854
 664,45; 7121,707;  221,561;37949,099;18,28942
 665,03; 7179,017;  226,945;38348,440;18,23662
 665,60; 7289,942;  300,714;38749,935;18,17781
 666,17; 7266,636;  236,330;38886,276;18,18969
 666,75; 7281,330;  212,253;39211,771;18,12606
 667,32; 7326,640;  247,868;39461,650;18,05174
 667,90; 7346,565;  228,868;39882,914;17,94948
 668,47; 7424,028;  238,252;39993,640;18,07497
 669,05; 7386,723;  227,714;40352,365;17,84192
 669,62; 7338,878;  206,329;40477,552;17,71128
 670,19; 7343,034;  220,406;40517,893;17,67512
 670,77; 7373,113;  227,790;40714,388;17,64861
 671,34; 7360,038;  228,175;40605,344;17,66311
 671,92; 7345,809;  209,021;41044,839;17,47678
 672,49; 7331,426;  234,482;41051,949;17,38703
 673,06; 7316,582;  191,021;41052,675;17,43826
 673,64; 7250,584;  208,328;40988,862;17,26867
 674,21; 7249,509;  210,559;40926,357;17,28801
 674,79; 7279,819;  236,405;41194,621;17,19658
 675,36; 7275,359;  235,943;41250,423;17,16324
 675,93; 7261,053;  199,636;41132,533;17,25120
 676,51; 7228,286;  236,866;41321,259;17,01722
 677,08; 7182,903;  234,789;41338,753;16,90376
 677,65; 7195,059;  228,405;41471,479;16,89169
 678,23; 7240,830;  236,789;41757,281;16,86888
 678,80; 7199,601;  214,097;41897,392;16,75852
 679,38; 7198,295;  218,943;41844,579;16,76696
 679,95; 7249,682;  234,327;42190,920;16,72051
 680,52; 7234,684;  214,019;42441,491;16,62582
 681,10; 7335,686;  231,789;42843,140;16,67137
 681,67; 7341,765;  228,558;43113,635;16,58667
 682,24; 7313,305;  205,096;43231,514;16,52057
 682,82; 7383,153;  211,327;43692,316;16,49416
 683,39; 7456,616;  255,404;44154,657;16,40395
 683,96; 7453,003;  222,404;44354,998;16,38381
 684,54; 7514,236;  199,788;44630,878;16,46245
 685,11; 7514,161;  247,865;45047,603;16,21950
 685,68; 7586,624;  219,249;45371,021;16,31691
 686,25; 7496,011;  198,788;45460,131;16,12242
 686,83; 7530,012;  203,095;45672,011;16,11412
 687,40; 7546,784;  204,557;46053,967;16,01379
 687,97; 7622,401;  251,864;46372,615;15,98096
 688,55; 7565,557;  199,480;46325,803;15,96936
 689,12; 7572,251;  188,403;46733,759;15,86377
 689,69; 7561,407;  207,864;46718,946;15,81030
 690,26; 7540,101;  209,018;46824,287;15,72678
 690,84; 7574,257;  207,402;46982,397;15,74956
 691,41; 7599,258;  224,325;47179,892;15,70620
 691,98; 7608,799;  222,325;47401,387;15,65625
 692,56; 7580,339;  207,787;47425,727;15,61388
 693,13; 7653,880;  269,710;47502,761;15,63348
 693,70; 7583,805;  246,479;47615,178;15,48982
 694,27; 7579,345;  201,402;47872,981;15,47661
 694,84; 7578,116;  206,709;47895,630;15,45727
 695,42; 7613,041;  261,017;48015,047;15,39561
 695,99; 7599,428;  214,324;48159,158;15,40333
 696,56; 7558,199;  210,170;48051,268;15,35924
 697,13; 7570,739;  229,478;48427,070;15,23159
 697,71; 7557,433;  201,170;48350,796;15,27792
 698,28; 7559,281;  218,170;48842,137;15,09772
 698,85; 7546,129;  183,247;48825,324;15,13686
 699,42; 7517,208;  186,555;49061,665;14,99875
 699,99; 7628,826;  238,631;49096,467;15,12591
 700,57; 7547,751;  228,093;49009,808;15,00492
 701,14; 7550,522;  215,862;49303,533;14,94196
 701,71; 7552,677;  230,862;49503,028;14,85994
 702,28; 7527,833;  207,169;49507,831;14,84902
 702,85; 7518,220;  213,477;49539,018;14,80925
 703,43; 7551,914;  236,169;49730,513;14,78097
 704,00; 7532,762;  243,323;50007,546;14,64795
 704,57; 7537,995;  205,554;50037,964;14,71420
 705,14; 7573,766;  244,477;50252,151;14,65633
 705,71; 7558,999;  240,707;50277,645;14,62578
 706,28; 7549,616;  215,169;50219,140;14,66773
 706,86; 7547,233;  242,322;50484,096;14,53952
 707,43; 7550,850;  264,015;50264,437;14,57355
 708,00; 7549,314;  243,861;50394,317;14,56707
 708,57; 7488,854;  207,168;50184,888;14,56986
 709,14; 7502,779;  247,553;50384,460;14,47083
 709,71; 7521,550;  221,014;50475,109;14,52725
 710,28; 7567,783;  215,860;50505,450;14,61917
 710,86; 7570,939;  229,937;50795,868;14,51768
 711,43; 7547,787;  236,014;50801,978;14,45987
 712,00; 7552,096;  231,168;50950,242;14,43427
 712,57; 7561,175;  240,091;51036,429;14,41262
 713,14; 7529,177;  226,014;51236,077;14,31710
 713,71; 7479,871;  245,398;51095,418;14,22708
 714,28; 7515,258;  218,013;51142,528;14,32953
 714,85; 7453,568;  214,398;50832,869;14,30144
 715,42; 7430,800;  235,090;51035,672;14,16462
 716,00; 7519,494;  278,475;51226,859;14,21246
 716,57; 7475,727;  236,090;51323,815;14,17099
 717,14; 7404,498;  216,475;51228,233;14,09092
 717,71; 7419,731;  215,782;51300,420;14,10199
 718,28; 7511,733;  252,244;51358,223;14,20477
 718,85; 7450,581;  217,397;51450,025;14,11831
 719,42; 7497,890;  228,243;51566,289;14,16035
 719,99; 7429,585;  203,705;51394,168;14,11568
 720,56; 7467,356;  243,397;51582,817;14,07098
 721,13; 7493,050;  223,551;51631,619;14,14078
 721,70; 7421,283;  210,704;51691,114;14,00645
 722,27; 7483,054;  233,858;51740,609;14,07426
 722,84; 7518,440;  274,627;51812,027;14,05545
 723,41; 7457,904;  209,704;51816,214;14,04513
 723,98; 7529,290;  223,858;51948,093;14,12381
 724,55; 7490,523;  255,396;52100,434;13,95529
 725,12; 7428,525;  178,088;52060,621;13,97472
 725,69; 7509,296;  219,935;52150,424;14,03677
 726,27; 7518,375;  224,781;52283,765;14,01025
 726,84; 7551,069;  227,550;52673,721;13,96388
 727,41; 7536,686;  241,242;52479,139;13,96581
 727,98; 7554,688;  239,165;52867,480;13,90036
 728,55; 7568,075;  264,703;52763,974;13,91138
 729,12; 7578,846;  200,549;52815,008;14,02333
 729,69; 7617,233;  231,165;53077,656;13,97646
 730,26; 7600,004;  241,395;53171,074;13,90261
 730,82; 7600,313;  218,857;53050,492;13,97166
 731,39; 7597,546;  222,549;53244,602;13,90930
 731,96; 7646,625;  205,318;53546,328;13,95044
 732,53; 7668,550;  234,626;53700,822;13,90397
 733,10; 7705,398;  241,933;53755,009;13,94699
 733,67; 7748,015;  238,010;54009,812;13,96644
 734,24; 7729,402;  219,548;53652,307;14,05477
 734,81; 7727,019;  235,933;53708,801;14,00913
 735,38; 7769,252;  229,164;53513,835;14,15058
 735,95; 7652,869;  232,010;53483,099;13,93560
 736,52; 7727,025;  241,625;53648,209;14,01587
 737,09; 7695,565;  242,856;53214,627;14,06921
 737,66; 7772,490;  281,394;53397,506;14,10325
 738,23; 7768,569;  220,625;53476,462;14,17299
 738,80; 7828,032;  290,086;53824,188;14,08064
 739,37; 7824,957;  261,086;53941,144;14,09065
 739,94; 7861,728;  234,009;54042,870;14,17558
 740,51; 7972,576;  338,778;54148,441;14,18667
 741,07; 7906,425;  230,778;53999,090;14,27541
 741,64; 7958,888;  265,393;54255,123;14,24992
 742,21; 7955,659;  229,316;54330,772;14,28121
 742,78; 7950,815;  209,085;54132,113;14,35700
 743,35; 7977,509;  231,470;54277,684;14,33225
 743,92; 8058,280;  255,316;54489,871;14,38744
 744,49; 8038,974;  250,162;54356,597;14,39535
 745,06; 8038,515;  225,085;54370,553;14,43044
 745,63; 8031,440;  214,392;54328,586;14,44547
 746,19; 8050,288;  223,546;54427,774;14,43936
 746,76; 8094,290;  222,546;54333,730;14,54735
 747,33; 8083,446;  224,238;54334,148;14,52452
 747,90; 8142,371;  251,700;54508,642;14,54315
 748,47; 8163,142;  238,238;54440,291;14,62104
 749,04; 8214,682;  235,930;54483,478;14,70804
 749,61; 8218,299;  267,161;54444,050;14,67625
 750,17; 8278,917;  242,853;54527,468;14,80357
 750,74; 8289,688;  238,776;54345,270;14,87975
 751,31; 8229,459;  228,391;54361,611;14,78033
 751,88; 8207,076;  198,699;54214,567;14,82597
 752,45; 8336,617;  228,237;54398,677;14,96827
 753,02; 8308,542;  246,160;54202,018;14,94255
 753,58; 8275,236;  219,930;54067,359;14,95950
 754,15; 8366,699;  223,929;54271,931;15,06581
 754,72; 8319,317;  231,545;54015,810;15,03743
 755,29; 8297,318;  216,237;53872,767;15,06076
 755,86; 8368,090;  255,237;54140,723;15,05573
 756,42; 8417,707;  266,698;53871,833;15,20565
 756,99; 8314,247;  234,698;53809,020;15,08101
 757,56; 8378,249;  236,006;53812,592;15,19739
 758,13; 8387,713;  214,698;53721,317;15,27477
 758,70; 8452,561;  238,390;53789,428;15,33896
 759,26; 8461,870;  245,852;54000,153;15,28439
 759,83; 8464,641;  244,390;53969,879;15,30047
 760,40; 8516,951;  229,313;53809,450;15,46774
 760,97; 8495,338;  221,467;53900,176;15,41369
 761,53; 8497,955;  218,082;53645,824;15,49733
 762,10; 8516,880;  210,313;53506,627;15,58563
 762,67; 8591,420;  240,082;53474,045;15,68799
 763,24; 8470,114;  189,389;53076,155;15,65746
 763,80; 8554,655;  212,851;53248,188;15,72877
 764,37; 8592,041;  205,620;53086,914;15,85896
 764,94; 8514,582;  190,927;52708,101;15,84939
 765,50; 8597,430;  198,158;52698,288;15,99857
 766,07; 8638,432;  233,466;52787,552;15,99298
 766,64; 8627,357;  201,004;52487,354;16,11578
 767,21; 8595,205;  203,312;52438,003;16,06575
 767,77; 8689,207;  225,773;52262,959;16,26420
 768,34; 8724,747;  226,465;52173,069;16,35965
 768,91; 8721,826;  235,542;52122,256;16,35541
 769,47; 8759,366;  226,542;52000,136;16,48103
 770,04; 8810,676;  225,773;52026,631;16,57290
 770,61; 8799,216;  214,850;51767,587;16,65162
 771,18; 8836,218;  201,311;51739,851;16,75427
 771,74; 8896,835;  215,772;51852,192;16,81190
 772,31; 8899,914;  221,003;51524,994;16,91664
 772,88; 8846,531;  186,080;51376,720;16,91804
 773,44; 8851,533;  194,311;51195,138;16,97467
 774,01; 8889,920;  215,772;51253,786;16,99547
 774,58; 8848,922;  199,695;50900,050;17,05950
 775,14; 8946,231;  197,003;51071,776;17,19758
 775,71; 8964,387;  194,002;50906,655;17,29427
 776,27; 9029,004;  253,695;50873,073;17,33587
 776,84; 9042,545;  279,771;50870,952;17,32075
 777,41; 9039,393;  213,464;50779,678;17,45420
 777,97; 8996,856;  203,541;50504,557;17,48139
 778,54; 9099,012;  211,310;50500,744;17,67310
 779,11; 9113,629;  240,310;50489,931;17,65848
 779,67; 9134,862;  199,694;50397,118;17,80005
 780,24; 9154,710;  216,386;50146,921;17,90152
 780,80; 9180,481;  225,232;50239,185;17,90550
 781,37; 9220,560;  227,078;50205,680;17,99466
 781,94; 9240,485;  230,540;50028,405;18,09304
 782,50; 9293,872;  225,232;49973,208;18,22916
 783,07; 9356,489;  246,463;50038,779;18,29605
 783,63; 9326,491;  222,232;49775,274;18,37275
 784,20; 9382,031;  252,847;49683,076;18,46883
 784,77; 9327,418;  233,155;49473,648;18,46907
 785,33; 9354,958;  195,770;49296,143;18,65401
 785,90; 9410,960;  228,308;49341,868;18,69677
 786,46; 9459,885;  234,231;49229,825;18,82956
 787,03; 9482,195;  218,770;48978,473;18,99812
 787,59; 9509,658;  215,693;48921,430;19,08187
 788,16; 9543,352;  228,154;48972,232;19,11042
 788,73; 9534,893;  240,539;48678,958;19,18798
 789,29; 9509,202;  221,000;48366,145;19,29208
 789,86; 9596,281;  238,154;48340,716;19,45453
 790,42; 9577,668;  230,846;48199,288;19,48536
 790,99; 9504,669;  242,230;47832,321;19,46296
 791,55; 9588,979;  219,846;47772,278;19,70274
 792,12; 9651,289;  247,615;47871,772;19,74560
 792,68; 9573,983;  230,846;47489,190;19,77034
 793,25; 9600,754;  247,769;47265,916;19,89229
 793,81; 9619,217;  289,922;47025,026;19,96207
 794,38; 9570,296;  198,691;46739,751;20,13621
 794,94; 9574,606;  217,922;46609,631;20,16887
 795,51; 9571,069;  231,768;46388,818;20,23375
 796,07; 9576,610;  228,691;46062,082;20,39543
 796,64; 9655,458;  246,153;46212,115;20,47016
 797,20; 9540,460;  252,614;45746,456;20,41561
 797,77; 9535,154;  207,768;45441,797;20,62029
 798,33; 9483,079;  231,537;45332,753;20,51284
 798,90; 9560,850;  252,998;45271,017;20,67584
 799,46; 9485,390;  229,537;44749,589;20,79030
 800,03; 9532,623;  231,921;44613,084;20,95642
 800,59; 9507,779;  247,844;44461,117;20,94379
 801,15; 9592,165;  245,844;44196,996;21,26525
 801,72; 9468,321;  238,613;43995,645;21,09309
 802,28; 9506,400;  269,305;43689,986;21,27349
 802,85; 9473,402;  225,613;43550,096;21,34541
 803,41; 9488,173;  232,536;43278,360;21,50182
 803,98; 9449,329;  234,690;42964,778;21,56476
 804,54; 9406,177;  235,459;42625,042;21,63437
 805,11; 9468,256;  238,689;42554,767;21,81102
 805,67; 9432,334;  260,305;42446,108;21,74198
 806,23; 9408,106;  254,997;42039,218;21,90566
 806,80; 9412,569;  271,612;41902,329;21,95724
 807,36; 9432,802;  288,381;41830,362;22,01248
 807,93; 9476,881;  314,227;41628,395;22,17799
 808,49; 9426,344;  266,381;41288,582;22,32928
 809,05; 9444,961;  242,304;41086,077;22,53136
 809,62; 9497,271;  279,073;41038,110;22,61633
 810,18; 9519,888;  278,996;40963,374;22,71361
 810,74; 9440,582;  251,612;40680,100;22,72895
 811,31; 9508,661;  256,611;40545,056;22,96452
 811,87; 9533,048;  272,304;40354,551;23,10435
 812,44; 9541,204;  294,765;40426,892;23,03999
 813,00; 9470,052;  225,688;40041,540;23,21780
 813,56; 9580,746;  258,380;40120,189;23,38671
 814,13; 9594,363;  255,688;40001,607;23,49594
 814,69; 9644,134;  250,611;39831,563;23,73243
 815,25; 9548,059;  209,226;39348,827;23,86032
 815,82; 9607,061;  250,457;39325,322;23,94533
 816,38; 9625,294;  268,687;39154,586;24,06170
 816,94; 9566,450;  221,149;38876,542;24,17593
 817,51; 9562,451;  226,226;38633,344;24,30858
 818,07; 9577,607;  222,303;38416,378;24,49413
 818,63; 9648,609;  240,687;38299,180;24,71964
 819,20; 9653,073;  228,841;38152,675;24,85042
 819,76; 9555,613;  227,533;37711,477;24,88553
 820,32; 9656,153;  258,071;37677,126;25,11577
 820,89; 9589,386;  253,610;37484,005;25,07568
 821,45; 9572,773;  222,610;37227,269;25,26753
 822,01; 9584,159;  246,148;36943,072;25,44630
 822,57; 9575,084;  249,763;36777,643;25,52932
 823,14; 9556,009;  213,994;36625,600;25,65670
 823,70; 9537,703;  230,686;36392,787;25,73694
 824,26; 9525,859;  225,840;36202,205;25,85036
 824,82; 9574,784;  262,763;36070,392;26,00569
 825,39; 9515,478;  239,609;35731,271;26,13535
 825,95; 9597,865;  259,686;35843,304;26,24292
 826,51; 9466,174;  245,609;35495,568;26,15766
 827,08; 9596,099;  275,301;35474,986;26,47978
 827,64; 9620,794;  256,762;35282,789;26,73449
 828,20; 9537,180;  224,531;34993,206;26,78459
 828,76; 9572,490;  266,608;35001,240;26,79136
 829,32; 9569,030;  267,839;34856,811;26,89063
 829,89; 9566,263;  220,608;34750,152;27,06568
 830,45; 9604,188;  241,839;34674,493;27,19032
 831,01; 9566,113;  244,839;34472,373;27,23326
 831,57; 9581,268;  239,762;34292,867;27,43217
 832,14; 9551,193;  233,761;34290,131;27,35885
 832,70; 9562,195;  224,223;34085,857;27,57685
 833,26; 9589,966;  200,838;34015,352;27,76656
 833,82; 9673,199;  227,607;33939,000;28,01899
 834,38; 9604,278;  219,223;33978,956;27,79955
 834,95; 9654,049;  221,299;33795,836;28,09495
 835,51; 9608,743;  182,684;33652,638;28,16275
 836,07; 9687,284;  223,222;33708,902;28,26301
 836,63; 9787,824;  244,915;33736,012;28,49387
 837,19; 9797,903;  230,684;33579,584;28,68826
 837,75; 9783,597;  196,530;33227,848;29,02417
 838,32; 9841,445;  244,530;33375,189;28,96687
 838,88; 9894,909;  242,145;33419,992;29,09400
 839,44; 9957,295;  228,683;33228,486;29,48082
 840,00;10033,682;  230,683;33257,904;29,68157
 840,56; 9892,299;  210,683;32965,245;29,55807
 841,12; 9993,916;  215,837;32906,278;29,91113
 841,68; 9950,918;  207,452;32713,542;29,97428
 842,25;10041,843;  214,914;32718,575;30,23330
 842,81; 9972,076;  218,683;32580,839;30,13827
 843,37;10027,385;  192,759;32476,796;30,46281
 843,93;10079,849;  214,452;32417,137;30,63532
 844,49;10119,620;  224,759;32451,708;30,70368
 845,05;10057,391;  185,144;32263,665;30,77526
 845,61;10140,547;  225,913;32317,390;30,89491
 846,17;10164,087;  204,682;32156,193;31,17037
 846,73;10193,935;  218,605;32059,303;31,32887
 847,29;10162,783;  202,528;31971,567;31,35208
 847,86;10236,939;  208,836;31895,446;31,64776
 848,42;10179,710;  204,220;31730,018;31,64231
 848,98;10260,404;  222,451;31670,820;31,91884
 849,54;10313,406;  211,297;31660,161;32,12234
 850,10;10345,870;  223,989;31587,348;32,27295
 850,66;10353,564;  198,758;31425,228;32,51987
 851,22;10298,874;  207,220;31381,030;32,37222
 851,78;10379,029;  246,681;31377,679;32,54746
 852,34;10393,801;  222,373;31200,020;32,83473
 852,90;10401,187;  213,835;31026,514;33,06221
 853,46;10350,497;  206,604;30884,548;33,06575
 854,02;10416,422;  227,604;30839,735;33,28360
 854,58;10393,116;  216,911;30544,306;33,55450
 855,14;10406,425;  203,988;30446,570;33,73534
 855,70;10400,043;  182,142;30402,450;33,81137
 856,26;10430,429;  235,449;30334,945;33,87093
 856,82;10431,585;  209,988;30196,901;34,08686
 857,38;10483,972;  240,603;30006,857;34,41269
 857,94;10420,281;  213,064;29920,044;34,35966
 858,50;10468,129;  225,372;29844,539;34,58152
 859,06;10368,900;  209,987;29667,188;34,48703
 859,62;10438,056;  229,910;29628,913;34,72276
 860,18;10387,058;  213,756;29529,639;34,70236
 860,74;10394,214;  179,064;29364,133;35,00129
 861,30;10335,985;  192,141;29145,705;35,03487
 861,86;10465,679;  246,833;29210,200;35,28197
 862,42;10420,373;  218,141;29024,618;35,41645
 862,98;10483,298;  250,371;29015,805;35,57369
 863,54;10415,685;  224,910;28788,838;35,67708
 864,10;10464,379;  209,217;28827,948;35,83374
 864,66;10391,843;  197,217;28585,135;35,91185
 865,22;10434,460;  207,448;28484,399;36,16731
 865,78;10460,154;  226,294;28377,279;36,35347
 866,34;10492,925;  207,909;28300,543;36,61108
 866,90;10469,235;  214,678;28146,883;36,71231
 867,45;10398,391;  218,986;28005,532;36,63429
 868,01;10373,239;  215,678;27845,873;36,76254
 868,57;10403,164;  207,216;27667,445;37,12987
 869,13;10408,781;  197,755;27565,401;37,31057
 869,69;10388,398;  201,139;27460,050;37,37222
 870,25;10400,708;  197,985;27297,467;37,64914
 870,81;10397,633;  213,601;27341,962;37,54017
 871,37;10413,019;  224,370;27238,918;37,71542
 871,93;10401,790;  229,370;27039,721;37,94214
 872,49;10371,023;  241,831;26879,754;38,02546
 873,04;10294,871;  212,677;26689,710;38,07902
 873,60;10297,873;  203,523;26594,590;38,24912
 874,16;10286,644;  229,600;26500,623;38,28189
 874,72;10310,798;  219,600;26365,623;38,59554
 875,28;10319,952;  226,446;26294,777;38,71942
 875,84;10378,029;  226,754;26307,008;38,92322
 876,40;10341,413;  215,446;26184,008;38,99318
 876,95;10371,029;  225,831;26199,238;39,05994
 877,51;10438,029;  250,446;26209,777;39,24440
 878,07;10461,183;  263,908;26152,008;39,38982
 878,63;10441,260;  221,523;26173,623;39,37923
 879,19;10504,337;  235,446;26166,700;39,60044
 879,75;10546,260;  215,062;26286,469;39,62654
 880,30;10589,260;  210,138;26209,546;39,92061
 880,86;10747,952;  257,215;26399,085;40,13002
 881,42;10823,798;  200,523;26385,931;40,56945
 881,98;10910,875;  223,985;26436,700;40,76987
 882,54;10943,721;  210,215;26591,315;40,68635
 883,09;11049,490;  227,754;26712,931;40,85960
 883,65;11056,644;  208,369;26662,162;41,00839
 884,21;11269,875;  238,677;26968,315;41,26954
 884,77;11264,337;  205,985;27043,854;41,20428
 885,32;11386,029;  211,138;27153,008;41,47778
 885,88;11560,106;  251,908;27338,162;41,74884
 886,44;11558,567;  215,523;27357,238;41,79192
 887,00;11609,260;  241,138;27384,238;41,88218
 887,56;11741,029;  217,754;27633,546;42,03152
 888,11;11761,798;  224,138;27667,238;42,04211
 888,67;11959,952;  254,677;27790,162;42,50978
 889,23;11968,106;  224,677;27684,238;42,76626
 889,79;11986,721;  209,600;27597,315;43,00147
 890,34;11943,567;  230,831;27563,315;42,85281
 890,90;12063,106;  289,446;27654,469;43,02448
 891,46;12020,106;  215,677;27548,700;43,18743
 892,01;12073,490;  249,831;27563,315;43,28873
 892,57;12116,413;  264,985;27512,008;43,49623
 893,13;12047,260;  227,985;27334,008;43,60387
 893,69;12087,029;  221,523;27247,085;43,90475
 894,24;12058,952;  221,446;27147,700;43,96269
 894,80;12001,567;  231,677;27109,546;43,79027
 895,36;12030,875;  226,831;26944,931;44,17995
 895,91;11994,490;  237,831;26765,546;44,31840
 896,47;12009,952;  235,754;26641,854;44,58893
 897,03;11962,337;  222,138;26417,931;44,81711
 897,58;11947,798;  239,292;26371,546;44,80481
 898,14;11926,337;  239,908;26102,085;45,18734
 898,70;11834,644;  196,062;25975,623;45,14655
 899,25;11921,337;  227,138;26007,469;45,36093
 899,81;11946,875;  234,831;25813,008;45,78921
 900,37;11791,952;  197,138;25594,854;45,65298
 900,92;11959,875;  224,062;25630,469;46,19234
 901,48;11879,952;  227,600;25507,700;46,09298
 902,03;11918,260;  217,369;25371,238;46,51726
 902,59;11905,260;  219,292;25184,777;46,80849
 903,15;11871,260;  244,523;25105,085;46,76780
 903,70;11799,952;  226,908;24962,392;46,78721
 904,26;11785,413;  211,369;24736,085;47,19339
 904,82;11819,567;  217,446;24759,008;47,27540
 905,37;11816,644;  230,369;24602,315;47,53939
 905,93;11796,875;  214,677;24481,546;47,72844
 906,48;11854,183;  230,677;24444,392;48,00381
 907,04;11811,952;  243,908;24365,469;47,95728
 907,60;11757,337;  223,062;24186,392;48,13302
 908,15;11826,106;  202,600;24058,238;48,72435
 908,71;11777,567;  250,446;24057,008;48,41993
 909,26;11759,567;  216,600;23861,085;48,81886
 909,82;11763,567;  241,523;23778,700;48,95253
 910,37;11742,798;  268,215;23713,238;48,94251
 910,93;11726,875;  207,985;23470,854;49,51621
 911,48;11665,798;  212,523;23372,469;49,45294
 912,04;11607,721;  212,985;23241,162;49,48171
 912,60;11653,260;  236,215;23225,469;49,66253
 913,15;11593,875;  222,985;23105,085;49,69339
 913,71;11526,413;  214,523;22942,162;49,77152
 914,26;11565,644;  199,062;22828,469;50,22925
 914,82;11615,644;  226,369;22799,315;50,45542
 915,37;11608,644;  203,754;22660,700;50,78558
 915,93;11599,644;  264,831;22581,546;50,79069
 916,48;11558,721;  214,138;22423,854;51,07937
 917,04;11518,260;  236,831;22315,085;51,09747
 917,59;11570,490;  251,215;22244,008;51,46811
 918,15;11552,952;  190,292;22087,546;51,89080
 918,70;11494,413;  210,062;22020,854;51,73747
 919,26;11555,721;  223,908;21945,392;52,16869
 919,81;11482,106;  200,908;21733,085;52,39228
 920,37;11492,490;  216,600;21702,238;52,48106
 920,92;11486,952;  225,985;21595,162;52,69724
 921,48;11427,875;  202,523;21404,469;52,94491
 922,03;11491,260;  211,908;21374,085;53,29958
 922,59;11435,490;  212,754;21256,469;53,33059
 923,14;11406,183;  217,600;21057,238;53,68895
 923,69;11417,260;  235,677;21082,008;53,63813
 924,25;11450,413;  232,523;21048,777;53,89005
 924,80;11337,106;  216,138;20815,315;53,98744
 925,36;11318,337;  209,908;20740,238;54,10740
 925,91;11312,183;  210,985;20602,469;54,44036
 926,47;11267,260;  193,062;20510,623;54,50555
 927,02;11304,183;  268,677;20542,315;54,43278
 927,57;11175,260;  217,754;20345,085;54,44093
 928,13;11269,337;  206,908;20256,546;55,17520
 928,68;11252,875;  218,754;20164,469;55,32076
 929,24;11130,337;  198,831;19953,854;55,33532
 929,79;11112,644;  200,600;19865,162;55,49091
 930,34;11143,567;  212,831;19771,008;55,88832
 930,90;11091,183;  209,292;19729,854;55,74579
 931,45;11136,875;  227,677;19726,238;55,94873
 932,01;11135,567;  234,062;19541,008;56,46416
 932,56;11052,952;  237,831;19432,700;56,34381
 933,11;11153,952;  241,677;19462,008;56,77465
 933,67;11026,490;  210,908;19195,931;56,96903
 934,22;11045,490;  225,215;19179,008;57,08765
 934,77;11017,106;  249,600;19092,931;57,14226
 935,33;11001,183;  230,985;18953,931;57,52406
 935,88;10952,875;  234,138;18875,392;57,50008
 936,43;10966,875;  212,292;18820,546;57,79469
 936,99;10917,798;  236,754;18663,854;57,96378
 937,54;10876,106;  200,754;18533,085;58,23238
 938,09;10900,644;  226,062;18477,162;58,48734
 938,65;10866,721;  224,062;18332,623;58,77142
 939,20;10825,798;  202,369;18299,700;58,70163
 939,75;10851,029;  203,908;18184,700;59,21386
 940,31;10827,413;  202,677;18131,700;59,25999
 940,86;10850,183;  225,831;18075,469;59,52138
 941,41;10811,183;  295,138;17973,931;59,48395
 941,96;10807,721;  205,446;17839,777;60,12292
 942,52;10754,490;  216,446;17722,315;60,19721
 943,07;10714,183;  191,446;17594,392;60,46526
 943,62;10698,644;  205,754;17644,392;60,17035
 944,18;10711,644;  189,292;17523,469;60,70292
 944,73;10662,490;  213,369;17411,238;60,75823
 945,28;10585,952;  188,062;17223,392;61,03721
 945,83;10662,567;  207,062;17259,931;61,31230
 946,39;10673,721;  212,215;17216,392;61,52315
 946,94;10658,029;  231,215;17129,931;61,70181
 947,49;10586,798;  207,677;16966,392;61,93268
 948,04;10661,183;  242,985;16981,238;62,24185
 948,59;10598,952;  235,523;16942,162;62,03180
 949,15;10568,106;  195,985;16785,700;62,52139
 949,70;10508,875;  199,446;16701,315;62,47431
 950,25;10513,413;  235,677;16621,469;62,72346
 950,80;10450,106;  190,138;16583,162;62,58740
 951,36;10392,260;  188,292;16425,315;62,84383
 951,91;10465,106;  226,215;16437,315;63,15975
 952,46;10378,029;  207,446;16188,546;63,64132
 953,01;10444,952;  234,754;16304,469;63,53689
 953,56;10304,413;  193,600;16058,238;63,73176
 954,11;10344,721;  220,523;16058,931;63,92182
 954,67;10307,337;  204,677;16010,623;63,91683
 955,22;10252,490;  196,677;15883,315;64,10432
 955,77;10318,567;  235,600;15884,392;64,43288
 956,32;10235,260;  257,523;15756,777;64,37559
 956,87;10218,106;  203,677;15636,931;64,88864
 957,42;10184,183;  210,062;15562,008;64,96975
 957,98;10236,567;  196,754;15473,008;65,72170
 958,53;10221,952;  241,985;15453,854;65,60645
 959,08;10079,106;  197,369;15352,162;65,20536
 959,63;10126,490;  200,677;15265,469;65,88749
 960,18;10148,644;  224,831;15204,931;66,24664
 960,73;10101,798;  215,292;15211,700;65,92583
 961,28; 9994,490;  194,062;15081,854;65,82862
 961,83;10062,875;  230,062;15074,162;66,24055
 962,39; 9954,567;  197,908;14905,700;66,33667
 962,94; 9966,721;  217,600;14842,315;66,66195
 963,49; 9891,029;  212,754;14774,854;66,46208
 964,04; 9866,413;  228,446;14689,931;66,64577
 964,59; 9824,798;  180,446;14573,469;67,00713
 965,14; 9806,952;  228,062;14576,623;66,75854
 965,69; 9775,260;  214,062;14483,469;67,00487
 966,24; 9754,952;  208,215;14355,238;67,48230
 966,79; 9706,798;  223,677;14240,854;67,65357
 967,34; 9602,798;  187,908;14094,854;67,69919
 967,89; 9621,952;  204,677;14130,162;67,62619
 968,44; 9604,490;  217,677;14059,315;67,81577
 968,99; 9569,260;  213,985;13975,546;67,98120
 969,55; 9530,183;  215,138;13860,315;68,26620
 970,10; 9482,029;  224,062;13775,085;68,31932
 970,65; 9445,490;  235,138;13690,392;68,45171
 971,20; 9446,721;  202,138;13569,931;69,15564
 971,75; 9339,106;  185,831;13423,623;69,14503
 972,30; 9324,183;  216,600;13417,777;68,99069
 972,85; 9284,029;  197,985;13269,008;69,51288
 973,40; 9197,029;  199,446;13147,238;69,49125
 973,95; 9198,644;  224,215;13138,085;69,49450
 974,50; 9174,106;  240,831;13084,392;69,55450
 975,05; 9136,490;  223,908;12990,085;69,81403
 975,60; 9146,413;  230,292;12966,162;70,00795
 976,15; 9024,721;  213,062;12785,085;70,08943
 976,70; 9008,490;  226,908;12814,623;69,76312
 977,25; 8990,183;  221,985;12686,623;70,34458
 977,80; 8929,106;  206,292;12593,008;70,42071
 978,35; 8824,260;  232,446;12351,392;70,89571
 978,89; 8794,106;  202,754;12336,162;70,80741
 979,44; 8767,952;  218,677;12324,238;70,62270
 979,99; 8694,029;  198,985;12127,623;71,21554
 980,54; 8676,721;  235,600;12066,392;71,34874
 981,09; 8589,952;  226,754;11967,392;71,23291
 981,64; 8519,567;  222,831;11863,469;71,27390
 982,19; 8547,644;  260,908;11851,700;71,49413
 982,74; 8438,490;  235,215;11680,931;71,67114
 983,29; 8386,490;  209,677;11525,854;72,25774
 983,84; 8335,029;  220,600;11475,546;72,09656
 984,39; 8329,260;  270,292;11416,700;72,30103
 984,94; 8263,413;  196,215;11263,777;72,89047
 985,49; 8268,798;  242,908;11262,777;72,83109
 986,03; 8171,644;  242,292;11163,623;72,60426
 986,58; 8084,337;  260,446;11040,085;72,58027
 987,13; 8034,029;  221,600;10910,315;73,09044
 987,68; 7944,337;  235,523;10817,700;72,84714
 988,23; 7928,567;  228,600;10769,546;73,04816
 988,78; 7802,567;  207,215;10610,931;73,00615
 989,33; 7829,413;  226,215;10552,546;73,62923
 989,88; 7757,721;  244,831;10479,085;73,40926
 990,42; 7623,413;  214,369;10321,315;73,30646
 990,97; 7530,029;  210,369;10193,469;73,32051
 991,52; 7540,798;  239,985;10182,854;73,42763
 992,07; 7562,490;  251,369;10057,854;74,55395
 992,62; 7470,875;  234,600; 9944,623;74,52377
 993,17; 7383,490;  221,369; 9880,315;74,15013
 993,71; 7344,106;  239,908; 9767,162;74,56711
 994,26; 7215,952;  207,831; 9650,315;74,21904
 994,81; 7260,798;  247,292; 9592,085;75,05256
 995,36; 7141,644;  208,600; 9446,315;75,05150
 995,91; 7102,721;  238,985; 9414,546;74,80454
 996,45; 7027,644;  224,369; 9305,700;74,91496
 997,00; 6949,644;  203,985; 9167,238;75,25905
 997,55; 6954,644;  229,600; 9091,008;75,89138
 998,10; 6921,260;  250,369; 9026,238;76,01401
 998,65; 6848,875;  225,677; 8964,546;75,79010
 999,19; 6783,952;  241,523; 8825,931;76,21293
 999,74; 6750,490;  249,292; 8730,162;76,65721
1000,29; 6691,413;  225,292; 8654,777;76,70838
1000,84; 6600,490;  224,600; 8491,623;77,12438
1001,38; 6551,952;  225,062; 8448,623;76,93613
1001,93; 6556,337;  242,600; 8393,315;77,46236
1002,48; 6420,183;  214,908; 8219,238;77,52397
1003,03; 6416,413;  239,908; 8191,008;77,68115
1003,57; 6373,490;  230,754; 8082,777;78,23126
1004,12; 6330,106;  261,523; 7982,623;78,59738
1004,67; 6242,490;  216,292; 7882,469;78,60761
1005,22; 6171,260;  209,138; 7761,392;78,94493
1005,76; 6064,798;  220,600; 7639,546;78,77397
1006,31; 6107,183;  244,831; 7597,931;79,72626
1006,86; 5958,952;  220,908; 7509,392;78,72753
1007,40; 5915,798;  204,754; 7361,392;79,80065
1007,95; 5821,952;  231,831; 7264,469;79,48825
1008,50; 5732,183;  221,292; 7180,777;79,18532
1009,04; 5686,721;  230,062; 7104,546;79,37554
1009,59; 5584,183;  232,062; 6995,623;79,13170
1010,14; 5525,567;  215,138; 6868,931;79,81056
1010,68; 5447,337;  219,446; 6735,238;80,23415
1011,23; 5323,567;  208,138; 6665,623;79,21705
1011,78; 5294,567;  241,446; 6605,392;79,40232
1012,32; 5219,413;  239,677; 6510,315;79,41355
1012,87; 5203,413;  244,523; 6474,546;79,59666
1013,42; 5130,952;  218,138; 6358,085;80,01395
1013,96; 5136,106;  249,062; 6372,623;79,80722
1014,51; 5059,798;  186,985; 6227,700;80,66617
1015,06; 5051,490;  193,215; 6267,238;79,98447
1015,60; 5112,798;  253,292; 6321,854;80,07673
1016,15; 5075,413;  212,523; 6297,008;79,92280
1016,69; 5129,106;  222,908; 6268,931;81,14752
1017,24; 5103,567;  201,985; 6294,085;80,45801
1017,79; 5183,567;  259,138; 6356,700;80,76063
1018,33; 5148,798;  213,523; 6365,238;80,22600
1018,88; 5183,337;  232,908; 6403,315;80,22855
1019,42; 5203,106;  236,215; 6433,315;80,14862
1019,97; 5249,798;  210,908; 6430,777;81,01280
1020,51; 5267,644;  240,292; 6474,700;80,63881
1021,06; 5253,337;  196,446; 6474,469;80,54909
1021,61; 5239,106;  193,985; 6414,469;81,10495
1022,15; 5214,567;  187,138; 6364,700;81,38209
1022,70; 5201,490;  217,754; 6381,546;80,85504
1023,24; 5184,413;  201,062; 6333,162;81,26664
1023,79; 5158,952;  220,831; 6275,469;81,55931
1024,33; 5088,644;  210,908; 6235,777;80,96004
1024,88; 5050,721;  228,600; 6156,546;81,34556
1025,42; 4974,183;  225,985; 6038,008;81,69613
1025,97; 4922,798;  204,215; 6005,777;81,33298
1026,51; 4832,337;  184,677; 5869,085;81,76155
1027,06; 4752,029;  208,985; 5820,469;80,95976
1027,60; 4693,413;  222,138; 5718,085;81,35587
1028,15; 4671,106;  227,292; 5619,700;82,40871
1028,69; 4545,260;  185,138; 5476,085;82,40721
1029,24; 4562,260;  206,292; 5465,392;82,82724
1029,78; 4433,644;  209,292; 5330,238;82,49163
1030,33; 4368,106;  189,138; 5289,315;81,93769
1030,87; 4344,183;  203,292; 5192,238;83,00130
1031,42; 4251,644;  192,831; 5093,777;82,81694
1031,96; 4235,260;  228,523; 5075,008;82,67305
1032,51; 4113,337;  210,523; 4987,931;81,69312
1033,05; 4130,952;  215,831; 4922,931;83,17480
1033,60; 4017,413;  184,369; 4792,546;83,17919
1034,14; 3993,029;  211,369; 4728,854;83,71162
1034,69; 3984,260;  202,908; 4713,469;83,83329
1035,23; 3940,952;  214,215; 4646,315;84,08512
1035,77; 3891,875;  208,215; 4557,008;84,70535
1036,32; 3791,413;  186,292; 4480,931;83,94469
1036,86; 3735,337;  215,138; 4463,469;82,86073
1037,41; 3736,413;  228,908; 4383,854;84,41760
1037,95; 3687,029;  189,215; 4319,315;84,69077
1038,50; 3635,721;  198,908; 4265,238;84,51879
1039,04; 3625,644;  220,446; 4205,162;85,45649
1039,58; 3493,029;  202,754; 4117,777;84,04229
1040,13; 3533,952;  212,215; 4069,469;86,11662
1040,67; 3487,029;  232,523; 4062,469;84,97524
1041,21; 3443,567;  232,523; 4000,623;85,21653
1041,76; 3396,798;  188,523; 3890,777;86,65735
1042,30; 3369,721;  208,523; 3877,315;86,16454
1042,85; 3311,260;  202,754; 3770,008;87,14002
1043,39; 3237,337;  191,138; 3719,777;86,32786
1043,93; 3207,260;  221,446; 3699,469;85,84801
1044,48; 3192,490;  220,062; 3634,392;87,05744
1045,02; 3155,721;  204,292; 3567,854;87,74713
1045,56; 3143,029;  233,138; 3559,777;87,47240
1046,11; 3092,875;  217,677; 3487,469;87,93213
1046,65; 3045,567;  219,600; 3430,315;88,01675
1047,19; 2998,721;  197,908; 3382,469;87,94974
1047,74; 2961,567;  190,138; 3327,469;88,33716
1048,28; 2935,875;  209,754; 3278,623;88,83145
1048,82; 2926,644;  231,908; 3266,315;88,80601
1049,37; 2863,106;  220,446; 3212,162;88,33259
1049,91; 2826,952;  222,369; 3174,623;88,22353
1050,45; 2814,337;  232,292; 3158,931;88,22560
1050,99; 2771,798;  223,908; 3066,623;89,62875
1051,54; 2753,644;  203,600; 3017,008;90,63899
1052,08; 2739,413;  236,754; 3011,238;90,20268
1052,62; 2695,798;  233,985; 2986,777;89,42968
1053,16; 2625,567;  205,523; 2905,085;89,64583
1053,71; 2639,260;  217,908; 2889,085;90,64738
1054,25; 2585,106;  229,600; 2849,700;89,90137
1054,79; 2557,337;  227,985; 2805,931;90,35689
1055,33; 2497,721;  204,677; 2740,623;90,42165
1055,88; 2497,644;  227,138; 2722,854;90,97615
1056,42; 2486,413;  233,831; 2695,085;91,52175
1056,96; 2441,413;  235,523; 2679,085;90,27358
1057,50; 2434,798;  213,292; 2614,854;92,50255
1058,05; 2392,644;  223,215; 2565,777;92,60926
1058,59; 2364,721;  241,523; 2556,854;91,70172
1059,13; 2289,644;  216,831; 2477,085;91,70711
1059,67; 2310,644;  234,831; 2472,392;92,77123
1060,21; 2231,490;  221,600; 2421,931;91,34492
1060,76; 2230,798;  233,908; 2404,085;92,01510
1061,30; 2239,644;  246,677; 2375,085;93,63654
1061,84; 2159,644;  225,600; 2325,931;92,08284
1062,38; 2126,875;  209,985; 2267,777;93,15276
1062,92; 2152,029;  262,446; 2283,469;93,49634
1063,46; 2120,952;  241,138; 2234,931;94,28331
1064,01; 2059,644;  217,754; 2177,623;93,98027
1064,55; 2075,183;  235,062; 2157,315;95,72727
1065,09; 2012,029;  199,677; 2090,777;95,83586
1065,63; 2041,798;  252,754; 2136,238;94,98587
1066,17; 2019,413;  242,138; 2112,085;95,04418
1066,71; 1991,567;  240,369; 2068,162;95,80947
1067,25; 1933,798;  219,138; 2016,546;95,39625
1067,80; 1928,798;  246,215; 2015,546;95,09712
1068,34; 1959,952;  260,831; 2015,085;96,85720
1068,88; 1893,337;  218,600; 1943,777;97,07622
1069,42; 1910,337;  242,062; 1964,238;96,87013
1069,96; 1872,644;  225,292; 1904,469;98,10473
1070,50; 1878,183;  265,600; 1926,162;97,11069
1071,04; 1806,183;  223,292; 1867,238;96,28602
1071,58; 1773,029;  218,600; 1823,008;96,88490
1072,12; 1777,183;  225,215; 1800,546;98,51692
1072,66; 1761,260;  230,215; 1802,008;97,40754
1073,21; 1763,260;  251,292; 1795,085;97,93852
1073,75; 1730,106;  230,369; 1747,162;98,87554
1074,29; 1691,721;  231,062; 1734,700;97,14168
1074,83; 1697,567;  250,138; 1732,315;97,65561
1075,37; 1666,337;  245,292; 1701,238;97,60280
1075,91; 1645,337;  246,446; 1703,162;96,03045
1076,45; 1638,952;  234,523; 1666,700;98,06252
1076,99; 1611,644;  241,523; 1617,777;99,55439
1077,53; 1567,490;  221,523; 1593,777;98,08443
1078,07; 1595,413;  239,292; 1594,085;100,09808
1078,61; 1544,106;  243,985; 1577,162;97,52053
1079,15; 1542,721;  222,292; 1544,700;99,85036
1079,69; 1541,183;  228,908; 1521,085;101,55537
1080,23; 1518,798;  247,754; 1553,315;97,35613
1080,77; 1543,952;  269,677; 1548,854;99,61679
1081,31; 1465,337;  222,062; 1496,931;97,52177
1081,85; 1477,721;  251,292; 1477,931;99,98291
1082,39; 1438,644;  226,600; 1441,854;99,73589
1082,93; 1423,490;  233,908; 1462,315;96,83940
1083,47; 1403,413;  217,369; 1416,469;98,91120
1084,01; 1423,567;  242,446; 1398,162;102,19827
1084,55; 1379,337;  228,215; 1371,008;100,72882
1085,09; 1394,644;  239,523; 1392,162;100,21539
1085,63; 1367,490;  245,369; 1349,008;101,67471
1086,17; 1346,721;  227,677; 1330,623;101,45955
1086,71; 1305,644;  226,754; 1326,700;98,08575
1087,24; 1336,952;  250,523; 1336,623;100,03028
1087,78; 1322,183;  245,908; 1316,238;100,55536
1088,32; 1285,029;  230,292; 1277,392;100,72930
1088,86; 1307,106;  251,369; 1288,931;101,75170
1089,40; 1274,413;  239,138; 1259,008;101,51056
1089,94; 1236,260;  210,985; 1224,392;101,17103
1090,48; 1245,183;  239,446; 1222,546;102,30257
1091,02; 1229,029;  249,292; 1227,931;100,11220
1091,56; 1225,260;  244,754; 1193,854;103,30901
1092,10; 1169,106;  222,446; 1164,085;100,53324
1092,63; 1201,029;  246,369; 1180,700;102,17577
1093,17; 1189,490;  246,908; 1168,392;102,28957
1093,71; 1155,644;  230,985; 1153,315;100,25250
1094,25; 1165,721;  252,369; 1150,162;101,73310
1094,79; 1147,029;  233,754; 1130,546;101,83796
1095,33; 1115,644;  243,523; 1106,931;101,00919
1095,87; 1099,337;  228,523; 1106,085;99,23104
1096,40; 1088,413;  222,369; 1067,700;102,45034
1096,94; 1094,875;  227,908; 1073,469;102,53154
1097,48; 1092,337;  237,292; 1059,546;103,98787
1098,02; 1057,644;  233,062; 1044,931;101,56595
1098,56; 1036,644;  201,600; 1000,931;104,46792
1099,10; 1008,952;  204,600; 1016,008;99,13043
1099,63; 1030,952;  209,062; 1000,162;103,89210
1100,17; 1019,798;  238,215; 1007,700;101,57223
1100,71; 1029,952;  255,831; 1016,700;101,74168

