
Integration time [ms]: 120,000
Averaging Nr. [scans]: 13
Smoothing Nr. [pixels]: 0
Data measured with spectrometer [name]: 2009305U1
Wave   ;Sample   ;Dark     ;Reference;Reflectance
[nm]   ;[counts] ;[counts] ;[counts] ;[%]

 175,72;  196,081;  198,725;  209,729;-24,02314
 176,32;  226,990;  233,791;  221,495; 0,00000
 176,92;  252,685;  251,952;  246,144; 0,00000
 177,52;  262,451;  249,569;  261,381;109,05911
 178,12;  234,750;  210,945;  220,620;246,03560
 178,72;  267,100;  248,635;  250,038;1315,76036
 179,32;  270,593;  255,406;  241,911; 0,00000
 179,92;  259,815;  255,641;  248,129; 0,00000
 180,52;  237,750;  233,115;  240,492;62,82766
 181,12;  252,077;  249,103;  245,056; 0,00000
 181,73;  268,096;  265,873;  272,598;33,05300
 182,33;  353,076;  349,879;  341,303; 0,00000
 182,93;  268,706;  259,492;  262,580;298,33796
 183,53;  243,384;  241,402;  230,123; 0,00000
 184,13;  242,138;  231,942;  223,284; 0,00000
 184,73;  282,297;  262,785;  270,840;242,24042
 185,33;  249,049;  235,800;  340,235;12,68632
 185,93;  262,968;  233,331;  341,231;27,46706
 186,53;  283,100;  252,412;  358,480;28,93247
 187,13;  310,083;  259,651;  408,456;33,89138
 187,73;  260,963;  235,102;  356,651;21,27655
 188,33;  268,933;  242,097;  355,217;23,72280
 188,93;  273,500;  252,084;  372,324;17,81117
 189,53;  275,130;  250,458;  375,462;19,73657
 190,13;  318,609;  288,441;  393,447;28,72975
 190,73;  255,142;  221,607;  354,699;25,19676
 191,34;  292,805;  261,772;  383,107;25,57613
 191,94;  259,861;  243,170;  355,212;14,89724
 192,54;  275,307;  244,657;  378,976;22,81860
 193,14;  291,424;  261,650;  386,945;23,76267
 193,74;  282,067;  256,803;  371,292;22,06689
 194,34;  281,309;  254,345;  379,723;21,50651
 194,94;  245,141;  215,650;  345,606;22,69264
 195,54;  228,411;  198,339;  325,621;23,62607
 196,14;  253,937;  226,731;  350,792;21,92978
 196,74;  250,987;  216,030;  338,690;28,49954
 197,34;  229,333;  203,967;  338,400;18,86902
 197,94;  268,854;  224,267;  375,503;29,48183
 198,54;  257,232;  232,346;  384,669;16,33743
 199,14;  244,545;  223,046;  367,104;14,92383
 199,74;  229,059;  202,354;  368,520;16,07127
 200,34;  223,657;  194,509;  366,971;16,90076
 200,94;  267,734;  234,889;  406,748;19,11183
 201,54;  247,446;  216,814;  407,160;16,09253
 202,14;  276,583;  240,665;  454,320;16,81104
 202,74;  243,146;  228,200;  447,857; 6,80427
 203,34;  237,031;  181,976;  463,089;19,58450
 203,94;  217,768;  166,204;  459,631;17,57280
 204,54;  284,077;  236,729;  542,983;15,46025
 205,14;  241,609;  194,585;  536,212;13,76482
 205,74;  290,465;  237,668;  639,180;13,14937
 206,34;  251,287;  204,050;  630,780;11,06948
 206,94;  274,945;  210,433;  685,452;13,58083
 207,54;  239,219;  177,588;  721,425;11,33277
 208,14;  263,881;  208,358;  795,906; 9,44989
 208,74;  274,311;  208,200;  848,241;10,32927
 209,34;  276,806;  207,355;  912,599; 9,84778
 209,94;  285,303;  216,431; 1015,259; 8,62162
 210,54;  292,851;  207,205; 1109,050; 9,49672
 211,14;  305,968;  214,662; 1195,427; 9,30966
 211,73;  318,223;  208,506; 1299,988;10,05213
 212,33;  335,220;  222,812; 1397,255; 9,57122
 212,93;  314,668;  208,738; 1479,640; 8,33504
 213,53;  300,671;  184,046; 1538,349; 8,61146
 214,13;  327,217;  193,748; 1630,932; 9,28684
 214,73;  308,583;  179,434; 1625,550; 8,93070
 215,33;  289,765;  163,585; 1674,567; 8,35084
 215,93;  346,257;  208,899; 1774,717; 8,77229
 216,53;  314,627;  168,430; 1832,838; 8,78374
 217,13;  385,352;  229,436; 2022,497; 8,69550
 217,73;  376,131;  197,822; 2208,241; 8,86923
 218,33;  363,173;  156,057; 2364,675; 9,37763
 218,93;  417,923;  181,834; 2630,757; 9,64053
 219,53;  448,225;  180,903; 2889,476; 9,86948
 220,13;  442,058;  168,059; 3125,529; 9,26465
 220,73;  517,023;  190,893; 3430,322;10,06752
 221,32;  555,311;  184,508; 3811,856;10,22245
 221,92;  595,196;  193,366; 4182,543;10,07300
 222,52;  608,505;  172,284; 4562,289; 9,93670
 223,12;  660,816;  184,900; 4945,153; 9,99772
 223,72;  706,946;  200,285; 5311,646; 9,91245
 224,32;  750,360;  192,747; 5676,679;10,16812
 224,92;  783,103;  183,362; 5950,894;10,39857
 225,52;  865,766;  207,356; 6276,099;10,84920
 226,12;  870,979;  187,051; 6571,650;10,71214
 226,72;  886,475;  160,666; 6841,878;10,86342
 227,31;  939,448;  156,666; 7219,939;11,08243
 227,91; 1006,030;  190,894; 7541,280;11,08970
 228,51; 1062,996;  186,812; 7911,520;11,34261
 229,11; 1126,408;  181,820; 8271,138;11,67698
 229,71; 1156,667;  176,122; 8541,977;11,72079
 230,31; 1216,628;  169,748; 8933,640;11,94537
 230,91; 1264,222;  158,502; 9183,125;12,25225
 231,51; 1289,181;  167,360; 9538,918;11,97049
 232,10; 1364,353;  169,980; 9825,075;12,37039
 232,70; 1429,847;  177,422;10037,261;12,70230
 233,30; 1521,330;  204,206;10330,930;13,00642
 233,90; 1511,150;  173,898;10431,145;13,03715
 234,50; 1565,707;  173,514;10561,102;13,40246
 235,10; 1587,949;  170,439;10679,048;13,48904
 235,70; 1655,195;  196,355;10707,048;13,87958
 236,29; 1672,040;  189,507;10660,055;14,15907
 236,89; 1696,264;  164,349;10563,896;14,73060
 237,49; 1731,196;  187,436;10546,988;14,90181
 238,09; 1741,363;  169,434;10299,934;15,51680
 238,69; 1741,836;  199,577;10085,824;15,60004
 239,29; 1692,871;  173,126; 9816,008;15,76028
 239,89; 1687,598;  193,964; 9557,989;15,95077
 240,48; 1657,568;  169,819; 9189,380;16,49470
 241,08; 1620,226;  173,895; 8870,359;16,63126
 241,68; 1618,020;  202,973; 8542,428;16,96810
 242,28; 1580,648;  173,206; 8296,267;17,32650
 242,88; 1591,500;  210,364; 8015,271;17,69575
 243,48; 1545,836;  214,359; 7813,649;17,52108
 244,07; 1507,850;  190,279; 7524,495;17,96472
 244,67; 1511,370;  193,589; 7335,200;18,45215
 245,27; 1516,685;  198,121; 7224,988;18,76460
 245,87; 1504,777;  202,978; 7137,422;18,77294
 246,47; 1474,480;  186,737; 7152,619;18,48644
 247,06; 1489,704;  178,433; 7115,577;18,90217
 247,66; 1494,316;  190,742; 7171,967;18,67256
 248,26; 1561,113;  211,199; 7383,422;18,82142
 248,86; 1591,508;  187,583; 7554,528;19,05708
 249,46; 1591,821;  151,745; 7751,040;18,95013
 250,05; 1680,233;  205,203; 8059,625;18,77961
 250,65; 1721,269;  156,351; 8391,138;19,00374
 251,25; 1807,750;  175,510; 8846,420;18,82432
 251,85; 1902,482;  188,657; 9377,235;18,65169
 252,44; 1955,747;  152,046;10031,610;18,25689
 253,04; 2133,485;  201,662;10746,245;18,32052
 253,64; 2195,763;  153,197;11314,012;18,30123
 254,24; 2374,949;  191,741;12220,363;18,15011
 254,84; 2516,360;  166,745;13137,194;18,11514
 255,43; 2661,172;  180,354;13986,565;17,96886
 256,03; 2815,459;  179,120;14914,490;17,89123
 256,63; 3012,007;  182,657;15992,265;17,89640
 257,23; 3129,202;  178,195;16766,067;17,79015
 257,82; 3284,856;  187,423;17744,651;17,64192
 258,42; 3356,650;  152,113;18540,057;17,42738
 259,02; 3556,804;  195,508;19439,475;17,46675
 259,62; 3653,180;  174,574;20014,745;17,53315
 260,21; 3757,298;  187,584;20539,271;17,54014
 260,81; 3822,720;  174,128;20993,664;17,52485
 261,41; 3869,620;  166,037;21535,894;17,33087
 262,01; 4003,566;  206,264;21932,846;17,47768
 262,60; 3991,971;  161,657;22263,375;17,33039
 263,20; 4080,004;  174,198;22619,064;17,40178
 263,80; 4094,116;  197,880;22817,691;17,22489
 264,40; 4108,443;  155,342;23010,849;17,29606
 264,99; 4142,267;  195,802;23187,520;17,16472
 265,59; 4115,999;  168,336;23290,435;17,07312
 266,19; 4147,707;  175,572;23408,876;17,09673
 266,78; 4212,930;  207,185;23564,540;17,14982
 267,38; 4147,699;  185,875;23535,671;16,96728
 267,98; 4157,496;  178,493;23588,757;16,99683
 268,58; 4169,058;  189,029;23610,424;16,99313
 269,17; 4157,042;  178,179;23588,237;16,99638
 269,77; 4124,332;  192,578;23479,767;16,88376
 270,37; 4076,663;  161,110;23253,673;16,95591
 270,96; 4111,689;  219,115;23179,220;16,95364
 271,56; 4037,212;  181,041;22949,788;16,93625
 272,16; 3998,245;  181,652;22839,153;16,84472
 272,75; 3971,671;  179,345;22647,263;16,87885
 273,35; 3976,936;  185,962;22752,668;16,79897
 273,95; 3953,185;  182,345;22634,525;16,79498
 274,54; 3966,859;  162,280;22661,239;16,91002
 275,14; 4012,258;  199,500;23009,838;16,71504
 275,74; 4032,361;  157,729;22979,523;16,97777
 276,33; 4122,062;  206,040;23339,167;16,92820
 276,93; 4170,714;  185,666;23789,475;16,88307
 277,53; 4269,015;  184,200;24196,394;17,01142
 278,12; 4339,579;  159,196;24656,393;17,06474
 278,72; 4492,999;  210,968;25209,099;17,12940
 279,32; 4600,367;  177,353;25795,343;17,26527
 279,91; 4698,513;  173,275;26468,338;17,20946
 280,51; 4866,261;  180,661;27006,795;17,46655
 281,11; 4996,948;  181,582;27679,169;17,51196
 281,70; 5070,508;  155,889;28143,812;17,55978
 282,30; 5259,212;  175,887;28664,557;17,84332
 282,90; 5384,942;  184,733;29140,880;17,95891
 283,49; 5568,680;  191,654;29639,315;18,25960
 284,09; 5722,070;  209,735;30013,118;18,49567
 284,69; 5837,814;  208,352;30383,634;18,65587
 285,28; 6016,094;  198,581;30659,164;19,09850
 285,88; 6197,898;  234,268;31004,553;19,38114
 286,47; 6209,197;  178,656;30948,156;19,59909
 287,07; 6405,238;  220,122;30971,081;20,11357
 287,67; 6571,298;  205,282;31249,572;20,50624
 288,26; 6785,621;  173,583;31154,111;21,34256
 288,86; 6961,570;  177,427;31163,873;21,89390
 289,46; 7239,002;  194,890;31354,786;22,60634
 290,05; 7458,159;  176,971;31383,773;23,33205
 290,65; 7754,449;  191,425;31591,261;24,08619
 291,24; 8093,344;  197,814;31745,730;25,02710
 291,84; 8384,161;  198,734;31851,188;25,86033
 292,44; 8668,507;  193,513;31994,544;26,65006
 293,03; 8967,023;  249,968;32153,222;27,32340
 293,63; 9241,993;  186,964;32285,480;28,21012
 294,22; 9519,884;  208,736;32427,446;28,89982
 294,82; 9743,074;  179,111;32457,635;29,62949
 295,41; 9760,123;  168,197;32179,428;29,96425
 296,01; 9973,458;  220,882;32137,119;30,55678
 296,61;10051,740;  209,660;31938,498;31,01935
 297,20;10055,167;  198,652;31498,260;31,49086
 297,80;10170,539;  189,818;31371,885;32,00789
 298,39;10087,867;  168,349;31012,542;32,16008
 298,99;10176,176;  196,577;30953,082;32,44712
 299,58;10166,394;  210,666;30637,168;32,72058
 300,18;10173,508;  218,664;30536,651;32,83478
 300,78;10075,352;  187,969;30175,812;32,97130
 301,37;10167,273;  210,801;30210,608;33,18845
 301,97;10144,745;  192,736;30210,385;33,15386
 302,56;10170,746;  180,117;30097,031;33,39458
 303,16;10114,648;  178,501;30021,826;33,29437
 303,75;10117,704;  188,816;30056,938;33,24242
 304,35;10262,751;  181,592;30296,229;33,47594
 304,94;10231,760;  192,275;30223,710;33,42992
 305,54;10213,388;  202,738;30212,702;33,35775
 306,13;10154,484;  162,515;30220,877;33,24189
 306,73;10079,622;  171,667;29981,020;33,23774
 307,33;10080,552;  197,897;30003,878;33,15662
 307,92;10046,050;  200,276;30009,930;33,02881
 308,52;10133,837;  164,039;30460,332;32,90765
 309,11;10328,121;  184,805;30865,317;33,06110
 309,71;10415,272;  165,957;31097,892;33,13506
 310,30;10432,316;  168,199;31341,744;32,92573
 310,90;10538,932;  214,660;31732,359;32,75706
 311,49;10586,172;  187,198;31844,388;32,84870
 312,09;10561,226;  150,125;31981,436;32,70711
 312,68;10676,056;  221,508;32445,118;32,44375
 313,28;10626,280;  164,968;32508,776;32,34410
 313,87;10618,673;  155,737;32612,835;32,23620
 314,47;10752,872;  179,883;32880,460;32,33273
 315,06;10725,500;  164,892;33020,392;32,14259
 315,66;10739,995;  163,895;33161,590;32,05103
 316,25;10611,176;  153,271;33134,720;31,70845
 316,85;10638,445;  150,895;33146,514;31,78468
 317,44;10606,175;  168,882;33320,627;31,48339
 318,04;10532,430;  157,041;33358,819;31,24950
 318,63;10494,404;  156,129;33413,451;31,08571
 319,22;10488,461;  181,886;33687,260;30,76096
 319,82;10407,169;  176,965;33726,732;30,49262
 320,41;10266,425;  188,887;33581,370;30,17906
 321,01;10280,337;  194,740;33730,664;30,07401
 321,60;10256,261;  183,350;33856,364;29,91390
 322,20;10152,449;  167,276;33758,639;29,72542
 322,79;10130,436;  207,430;33929,362;29,42597
 323,39;10115,157;  173,438;34018,334;29,37435
 323,98; 9966,773;  164,200;33942,472;29,02035
 324,58; 9916,543;  173,116;33789,917;28,98380
 325,17; 9858,204;  185,502;33722,475;28,84191
 325,76; 9760,902;  194,121;33481,634;28,73985
 326,36; 9540,606;  166,894;33169,218;28,40319
 326,95; 9435,071;  201,197;32821,858;28,30683
 327,55; 9312,322;  172,273;32580,839;28,20257
 328,14; 9099,478;  161,050;32147,564;27,94437
 328,74; 8975,847;  198,502;31792,923;27,78131
 329,33; 8800,835;  195,278;31370,401;27,60392
 329,92; 8599,059;  154,959;30887,103;27,47644
 330,52; 8376,840;  189,204;30203,412;27,27920
 331,11; 8238,966;  187,197;29806,103;27,18456
 331,71; 8046,051;  178,967;29282,569;27,03131
 332,30; 7847,760;  195,506;28842,479;26,71226
 332,89; 7742,537;  236,124;28405,815;26,64713
 333,49; 7514,469;  194,351;27811,673;26,50553
 334,08; 7366,232;  177,196;27493,100;26,31813
 334,68; 7160,271;  192,581;27000,316;25,99134
 335,27; 7065,154;  191,512;26650,986;25,97800
 335,86; 6950,351;  222,889;26456,564;25,64438
 336,46; 6853,015;  194,436;26199,541;25,60489
 337,05; 6715,248;  176,966;26018,241;25,30170
 337,65; 6624,438;  160,811;25875,670;25,13576
 338,24; 6714,964;  224,123;25891,948;25,28785
 338,83; 6613,197;  200,738;25754,918;25,09358
 339,43; 6534,883;  173,348;25758,583;24,86409
 340,02; 6501,981;  175,578;25570,534;24,91205
 340,61; 6456,948;  177,122;25648,038;24,65489
 341,21; 6438,078;  210,963;25690,769;24,43941
 341,80; 6435,359;  189,657;25615,084;24,56479
 342,40; 6407,611;  180,589;25697,459;24,40355
 342,99; 6436,306;  179,355;25775,661;24,44474
 343,58; 6447,681;  181,355;25977,863;24,29137
 344,18; 6419,313;  197,971;26092,927;24,02530
 344,77; 6481,711;  165,732;26394,318;24,08052
 345,36; 6496,456;  166,658;26652,242;23,89903
 345,96; 6577,323;  207,432;26959,571;23,81077
 346,55; 6617,556;  170,207;27168,889;23,88024
 347,14; 6703,034;  163,435;27487,598;23,93339
 347,74; 6759,091;  144,827;27869,864;23,85665
 348,33; 6860,201;  178,596;28420,892;23,65815
 348,92; 6996,790;  181,599;29109,307;23,55939
 349,52; 7084,394;  159,597;29486,131;23,61273
 350,11; 7125,387;  177,654;29780,485;23,46983
 350,70; 7185,063;  172,122;29801,438;23,66893
 351,29; 7074,442;  170,031;29587,678;23,47030
 351,89; 7115,800;  198,574;29521,502;23,58982
 352,48; 7077,562;  154,891;29577,683;23,52826
 353,07; 7073,079;  190,436;29611,494;23,39359
 353,67; 7030,280;  195,061;29508,263;23,31789
 354,26; 6999,971;  186,127;29303,183;23,40155
 354,85; 6903,408;  183,049;29206,884;23,15462
 355,45; 6909,240;  160,580;28976,851;23,41962
 356,04; 6885,326;  177,667;28863,558;23,38313
 356,63; 6895,855;  201,736;28756,951;23,44272
 357,22; 6841,547;  182,033;28529,688;23,49229
 357,82; 6785,380;  178,573;28303,126;23,49124
 358,41; 6790,336;  197,198;28225,802;23,52289
 359,00; 6727,896;  169,194;28039,475;23,53296
 359,60; 6823,028;  190,200;27965,671;23,88017
 360,19; 6762,471;  189,283;27739,961;23,85854
 360,78; 6732,873;  188,811;27658,808;23,82258
 361,37; 6703,464;  176,735;27434,916;23,94411
 361,97; 6747,718;  189,428;27383,861;24,11629
 362,56; 6637,707;  173,116;27056,561;24,04673
 363,15; 6638,525;  215,273;26861,468;24,10570
 363,74; 6589,861;  191,806;26488,153;24,33058
 364,34; 6510,908;  201,425;26092,628;24,36922
 364,93; 6433,818;  181,423;25766,867;24,43731
 365,52; 6334,120;  158,350;25396,410;24,47007
 366,11; 6338,371;  179,348;25099,599;24,71493
 366,71; 6264,153;  171,271;24664,030;24,87626
 367,30; 6250,276;  181,274;24351,150;25,10978
 367,89; 6224,650;  218,356;24117,806;25,13151
 368,48; 6186,965;  193,114;23831,370;25,35657
 369,07; 6161,140;  180,045;23481,745;25,66806
 369,67; 6135,816;  211,038;23145,589;25,83342
 370,26; 6060,244;  176,584;22904,962;25,88685
 370,85; 6044,492;  189,581;22579,595;26,14965
 371,44; 6014,177;  185,197;22472,583;26,15372
 372,03; 6003,536;  164,425;22167,136;26,53815
 372,63; 5989,598;  157,812;21893,705;26,83021
 373,22; 5955,380;  178,276;21618,236;26,94550
 373,81; 5899,633;  160,581;21348,164;27,08686
 374,40; 5900,953;  189,357;21109,918;27,30135
 374,99; 5875,305;  173,119;20805,236;27,63743
 375,59; 5843,629;  172,818;20548,239;27,83162
 376,18; 5885,500;  201,657;20421,884;28,10969
 376,77; 5890,104;  195,044;20284,216;28,34890
 377,36; 5916,453;  210,812;20218,225;28,51763
 377,95; 5904,950;  197,579;19936,400;28,91445
 378,55; 5892,261;  170,740;19722,664;29,26321
 379,14; 5933,209;  197,196;19652,640;29,48281
 379,73; 5991,901;  190,195;19586,848;29,91086
 380,32; 6042,654;  193,428;19698,446;29,98831
 380,91; 6027,417;  180,730;19479,572;30,29553
 381,50; 6087,913;  201,731;19462,208;30,56093
 382,10; 6067,192;  173,582;19341,830;30,74673
 382,69; 6169,169;  153,196;19281,655;31,45038
 383,28; 6195,071;  205,655;19266,811;31,42211
 383,87; 6199,507;  175,116;19108,719;31,81851
 384,46; 6246,805;  165,112;19057,158;32,19182
 385,05; 6367,669;  219,270;19032,316;32,68157
 385,64; 6372,986;  181,194;19079,829;32,76317
 386,24; 6369,931;  165,265;19008,018;32,92866
 386,83; 6583,375;  200,649;19082,215;33,80401
 387,42; 6590,322;  206,964;19161,969;33,67637
 388,01; 6768,421;  193,645;19331,088;34,35556
 388,60; 6918,362;  194,266;19613,654;34,62568
 389,19; 7038,291;  170,485;19711,863;35,14494
 389,78; 7279,839;  180,564;20001,915;35,81630
 390,37; 7475,568;  238,340;20408,716;35,88048
 390,96; 7575,147;  193,188;20570,771;36,22588
 391,56; 7707,469;  191,407;20731,732;36,59174
 392,15; 7832,513;  188,103;21012,597;36,70874
 392,74; 7987,517;  164,630;21139,528;37,29643
 393,33; 8150,425;  186,714;21382,297;37,57250
 393,92; 8384,169;  192,780;21783,988;37,93854
 394,51; 8561,180;  170,175;21988,050;38,45931
 395,10; 8764,282;  212,461;22189,538;38,91245
 395,69; 8840,576;  206,155;22317,361;39,04998
 396,28; 8982,739;  205,150;22429,043;39,49618
 396,87; 9067,499;  208,293;22506,720;39,73018
 397,46; 9186,464;  212,979;22584,582;40,11105
 398,06; 9378,595;  224,355;22908,699;40,35488
 398,65; 9449,532;  211,721;22862,365;40,78388
 399,24; 9621,620;  227,025;23077,241;41,11382
 399,83; 9682,510;  208,688;23078,877;41,42433
 400,42; 9926,398;  248,124;23183,898;42,19729
 401,01; 9995,552;  221,325;23296,255;42,35864
 401,60;10063,065;  244,208;23371,456;42,45580
 402,19;10136,510;  257,022;23296,956;42,87985
 402,78;10228,302;  257,588;23374,469;43,13174
 403,37;10243,382;  233,156;23158,178;43,66506
 403,96;10319,480;  244,024;23048,728;44,18148
 404,55;10321,211;  262,271;22963,326;44,31045
 405,14;10294,318;  238,215;22846,319;44,48008
 405,73;10337,316;  260,611;22788,222;44,73046
 406,32;10442,700;  259,029;22622,115;45,53786
 406,91;10361,829;  257,594;22411,638;45,60899
 407,50;10389,614;  264,260;22245,873;46,06283
 408,09;10309,621;  226,473;21951,682;46,41220
 408,68;10339,064;  254,536;21879,207;46,63436
 409,27;10328,200;  246,476;21712,453;46,96606
 409,86;10307,424;  256,439;21553,202;47,19489
 410,45;10436,090;  293,934;21550,876;47,71221
 411,04;10397,505;  292,352;21485,723;47,68073
 411,63;10343,048;  286,935;21190,695;48,10672
 412,22;10308,649;  280,668;20981,662;48,44203
 412,81;10239,637;  302,989;20780,234;48,52531
 413,40;10130,795;  310,469;20416,348;48,84306
 413,99;10089,498;  342,848;20183,307;49,12512
 414,58; 9941,101;  277,159;19746,662;49,63631
 415,17; 9854,689;  279,605;19575,189;49,62319
 415,76; 9829,203;  270,666;19419,040;49,91827
 416,35; 9788,722;  276,443;19110,200;50,50654
 416,94; 9876,049;  310,670;19268,010;50,45739
 417,53;10024,044;  280,221;19408,256;50,94001
 418,12;10127,494;  269,533;19521,995;51,20364
 418,71;10352,132;  298,316;19861,765;51,39082
 419,30;10448,620;  287,073;20065,109;51,37794
 419,89;10566,528;  272,460;20163,447;51,75242
 420,48;10767,429;  294,085;20362,535;52,18810
 421,07;10866,220;  290,165;20498,503;52,33511
 421,66;10928,449;  266,558;20466,188;52,78260
 422,25;10888,961;  271,189;20540,583;52,38327
 422,84;10979,755;  299,962;20440,598;53,02610
 423,43;10819,461;  287,647;20178,320;52,94850
 424,02;10787,022;  302,727;19996,442;53,23675
 424,60;10596,187;  280,439;19584,206;53,43904
 425,19;10461,153;  296,044;19327,453;53,41228
 425,78;10451,443;  293,661;19228,750;53,64528
 426,37;10413,583;  300,437;19061,951;53,90368
 426,96;10459,020;  276,206;18925,136;54,60267
 427,55;10330,073;  275,294;18888,508;54,01957
 428,14;10232,223;  267,837;18586,022;54,39614
 428,73;10200,119;  288,366;18469,381;54,51705
 429,32;10208,203;  285,513;18413,992;54,73537
 429,91;10279,072;  320,982;18460,799;54,89631
 430,50;10225,125;  300,065;18279,640;55,20186
 431,08;10139,614;  307,455;18121,157;55,19436
 431,67;10101,985;  330,460;18059,181;55,11692
 432,26;10055,315;  352,773;17866,633;55,39922
 432,85; 9926,765;  372,079;17525,688;55,70074
 433,44; 9752,293;  388,471;17227,983;55,60626
 434,03; 9605,122;  402,711;16826,982;56,02934
 434,62; 9372,259;  359,087;16459,216;55,98199
 435,21; 9286,772;  365,618;16298,030;55,99374
 435,79; 9152,736;  376,323;16109,888;55,78147
 436,38; 9157,704;  368,410;15986,717;56,27559
 436,97; 9092,804;  351,796;15943,277;56,06272
 437,56; 8956,884;  366,118;15775,296;55,75097
 438,15; 8884,318;  330,960;15658,418;55,80416
 438,74; 8926,919;  358,116;15673,578;55,94871
 439,33; 8917,687;  334,421;15641,739;56,07296
 439,91; 8897,850;  308,120;15728,245;55,70467
 440,50; 9014,009;  353,275;15720,771;56,35748
 441,09; 9040,914;  352,437;15858,362;56,03327
 441,68; 9020,861;  330,291;15871,755;55,91861
 442,27; 9024,130;  309,595;15870,416;56,00305
 442,86; 8999,442;  286,691;15851,837;55,97604
 443,44; 9016,057;  306,610;15894,282;55,87394
 444,03; 9082,112;  376,999;16005,300;55,70095
 444,62; 8994,099;  300,075;15815,177;56,03588
 445,21; 8891,775;  324,227;15685,782;55,77266
 445,80; 8852,784;  356,622;15621,797;55,65715
 446,39; 8725,784;  367,697;15356,081;55,76376
 446,97; 8559,636;  300,708;15192,640;55,45907
 447,56; 8464,466;  305,024;14946,971;55,72648
 448,15; 8359,339;  323,939;14810,409;55,46831
 448,74; 8260,642;  331,940;14558,368;55,73221
 449,33; 8142,301;  323,946;14452,718;55,33641
 449,91; 8000,181;  318,033;14243,239;55,16721
 450,50; 7892,935;  307,954;13988,738;55,44259
 451,09; 7813,200;  335,493;13900,297;55,12580
 451,68; 7794,550;  356,497;13844,731;55,14475
 452,26; 7718,466;  340,040;13735,304;55,08235
 452,85; 7617,537;  319,499;13610,323;54,91035
 453,44; 7603,709;  341,974;13683,567;54,42930
 454,03; 7576,461;  314,351;13625,594;54,55621
 454,61; 7564,267;  311,590;13609,495;54,54000
 455,20; 7637,363;  338,979;13743,391;54,44763
 455,79; 7636,357;  348,740;13741,725;54,41369
 456,38; 7643,582;  342,063;13817,793;54,18273
 456,97; 7649,963;  330,061;13863,829;54,08621
 457,55; 7650,632;  329,759;13876,516;54,04152
 458,14; 7669,194;  356,290;13890,729;54,03183
 458,73; 7567,883;  341,529;13835,213;53,55360
 459,31; 7573,710;  366,306;13850,064;53,45249
 459,90; 7623,550;  383,302;13974,214;53,27272
 460,49; 7685,211;  420,299;14008,495;53,46488
 461,08; 7615,957;  340,310;14107,021;52,84957
 461,66; 7672,271;  341,306;14143,370;53,11499
 462,25; 7659,842;  349,006;14205,437;52,76132
 462,84; 7739,361;  376,465;14250,179;53,07084
 463,43; 7601,201;  301,938;14247,046;52,34282
 464,01; 7647,024;  339,172;14309,864;52,30845
 464,60; 7623,974;  396,704;14200,171;52,35837
 465,19; 7461,695;  339,251;13997,782;52,14648
 465,77; 7392,918;  340,871;13977,125;51,71543
 466,36; 7360,214;  371,245;13839,631;51,89166
 466,95; 7177,965;  353,477;13528,774;51,79760
 467,53; 7005,646;  350,645;13289,085;51,43589
 468,12; 6844,540;  372,646;13030,152;51,13087
 468,71; 6703,202;  349,714;12788,109;51,07964
 469,29; 6567,779;  337,032;12597,465;50,81996
 469,88; 6375,881;  341,805;12287,066;50,51440
 470,47; 6467,717;  410,505;12431,822;50,38726
 471,06; 6381,707;  365,120;12397,793;50,00208
 471,64; 6402,486;  375,118;12462,030;49,86690
 472,23; 6375,582;  332,518;12524,681;49,56515
 472,81; 6408,248;  330,972;12651,188;49,32768
 473,40; 6470,686;  343,056;12714,206;49,53161
 473,99; 6583,251;  441,364;12943,375;49,12719
 474,57; 6560,158;  349,979;13036,466;48,95113
 475,16; 6634,952;  370,204;13165,595;48,96097
 475,75; 6661,596;  376,600;13294,845;48,65209
 476,33; 6658,690;  383,837;13411,872;48,16424
 476,92; 6667,081;  386,288;13452,566;48,06872
 477,51; 6689,594;  371,757;13544,460;47,96158
 478,09; 6647,877;  368,526;13511,952;47,77560
 478,68; 6650,548;  375,529;13454,486;47,97798
 479,27; 6651,804;  407,139;13495,077;47,71313
 479,85; 6563,109;  381,605;13495,561;47,13684
 480,44; 6602,284;  364,993;13660,405;46,91311
 481,02; 7117,090;  382,306;14973,490;46,15653
 481,61; 8017,369;  404,380;16859,203;46,26600
 482,20; 8575,079;  382,844;18027,106;46,43002
 482,78; 8902,122;  415,453;18824,862;46,09963
 483,37; 9119,482;  404,160;19388,819;45,90719
 483,95; 9253,032;  414,546;19540,072;46,21304
 484,54; 9301,042;  429,918;19769,660;45,86992
 485,13; 9213,259;  405,860;19637,609;45,79614
 485,71; 9098,511;  383,088;19561,922;45,44293
 486,30; 8978,256;  414,396;19225,799;45,52483
 486,88; 8813,102;  453,937;18897,130;45,32385
 487,47; 8476,563;  439,784;18158,769;45,35688
 488,05; 8045,521;  423,480;17350,736;45,02821
 488,64; 7458,487;  419,870;16087,163;44,92555
 489,23; 6609,468;  438,174;14340,035;44,39186
 489,81; 5634,494;  428,406;12265,536;43,98100
 490,40; 5298,016;  387,177;11679,649;43,48772
 490,98; 5162,163;  377,333;11388,277;43,45522
 491,57; 5099,679;  389,405;11305,362;43,15035
 492,15; 5035,530;  379,719;11271,497;42,74611
 492,74; 4974,871;  391,249;11185,046;42,46533
 493,32; 4920,903;  401,179;11096,090;42,26051
 493,91; 4857,590;  371,029;10997,172;42,22191
 494,50; 4824,103;  396,040;10987,804;41,80666
 495,08; 4747,381;  367,578;10899,848;41,58461
 495,67; 4786,263;  393,490;10870,398;41,92814
 496,25; 4662,089;  329,188;10741,795;41,61206
 496,84; 4645,785;  352,951;10758,565;41,25498
 497,42; 4606,373;  346,344;10738,589;40,99238
 498,01; 4586,269;  371,414;10640,741;41,04315
 498,59; 4478,239;  337,653;10625,516;40,24729
 499,18; 4506,441;  341,722;10495,159;41,01782
 499,76; 4454,000;  361,958;10446,642;40,57680
 500,35; 4358,212;  344,581;10305,032;40,29568
 500,93; 4305,691;  327,267;10285,849;39,94970
 501,52; 4242,558;  332,883;10186,900;39,67595
 502,10; 4262,577;  357,201;10166,328;39,81369
 502,69; 4153,270;  332,974; 9938,653;39,77123
 503,27; 4044,939;  315,963; 9848,314;39,11916
 503,86; 4042,092;  333,818; 9763,892;39,32391
 504,44; 3928,810;  317,822; 9600,262;38,90129
 505,03; 3857,516;  297,206; 9442,846;38,92903
 505,61; 3741,363;  323,205; 9319,101;37,99687
 506,19; 3689,475;  353,052; 9155,045;37,90531
 506,78; 3598,199;  304,906; 8972,804;37,99414
 507,36; 3526,460;  317,744; 8825,028;37,71728
 507,95; 3469,276;  315,679; 8697,312;37,62509
 508,53; 3409,659;  315,444; 8551,911;37,56726
 509,12; 3336,690;  330,293; 8424,091;37,14445
 509,70; 3265,267;  337,141; 8297,561;36,78357
 510,29; 3223,244;  342,760; 8155,917;36,86709
 510,87; 3110,017;  312,906; 7973,279;36,51403
 511,46; 3064,145;  299,523; 7826,672;36,72867
 512,04; 3017,367;  312,219; 7675,583;36,73794
 512,62; 2928,966;  315,985; 7551,241;36,11457
 513,21; 2860,926;  298,068; 7394,888;36,11277
 513,79; 2784,258;  304,542; 7274,481;35,57729
 514,38; 2732,407;  278,384; 7111,677;35,91274
 514,96; 2729,991;  328,691; 7037,290;35,79437
 515,54; 2648,382;  293,309; 6884,424;35,73103
 516,13; 2591,222;  316,540; 6833,644;34,90326
 516,71; 2528,912;  308,699; 6687,051;34,80856
 517,30; 2461,456;  285,396; 6596,440;34,48020
 517,88; 2453,646;  311,780; 6533,254;34,42699
 518,46; 2369,662;  281,167; 6366,725;34,31888
 519,05; 2356,047;  310,247; 6315,772;34,06529
 519,63; 2328,328;  301,630; 6284,195;33,87675
 520,22; 2331,254;  318,330; 6201,767;34,21341
 520,80; 2279,426;  306,715; 6200,647;33,47020
 521,38; 2274,129;  338,325; 6179,452;33,14093
 521,97; 2226,810;  302,334; 6099,770;33,19530
 522,55; 2216,002;  319,257; 6071,093;32,97634
 523,13; 2171,586;  281,260; 6101,751;32,47708
 523,72; 2179,391;  296,397; 6063,462;32,65081
 524,30; 2242,801;  310,955; 6224,858;32,66618
 524,89; 2191,213;  285,719; 6213,573;32,14474
 525,47; 2237,184;  315,803; 6325,757;31,96998
 526,05; 2222,114;  278,958; 6353,561;31,98820
 526,64; 2269,565;  316,421; 6509,940;31,53529
 527,22; 2306,580;  310,033; 6629,372;31,59424
 527,80; 2335,870;  341,652; 6780,615;30,97110
 528,39; 2324,788;  301,808; 6769,289;31,27925
 528,97; 2367,020;  299,345; 6970,083;30,99620
 529,55; 2417,920;  317,491; 7159,382;30,69954
 530,14; 2485,712;  338,810; 7344,514;30,64506
 530,72; 2488,919;  298,422; 7454,499;30,61030
 531,30; 2505,653;  278,888; 7545,394;30,64424
 531,89; 2529,627;  310,657; 7640,840;30,27169
 532,47; 2573,666;  338,274; 7729,848;30,24243
 533,05; 2568,433;  343,267; 7796,815;29,85378
 533,63; 2594,943;  332,891; 7857,868;30,06058
 534,22; 2565,674;  304,506; 7869,622;29,88940
 534,80; 2579,891;  328,588; 7970,261;29,46087
 535,38; 2698,480;  410,504; 8060,182;29,90944
 535,97; 2589,898;  323,198; 8016,588;29,46297
 536,55; 2641,153;  368,974; 8064,957;29,52423
 537,13; 2616,265;  373,810; 8034,684;29,27153
 537,71; 2625,017;  417,348; 8098,650;28,74081
 538,30; 2650,880;  430,431; 8181,139;28,64834
 538,88; 2664,541;  465,362; 8229,021;28,32657
 539,46; 2767,775;  506,050; 8422,968;28,56826
 540,05; 2785,528;  525,283; 8532,797;28,22654
 540,63; 2846,696;  571,745; 8710,352;27,95259
 541,21; 2902,591;  617,364; 8894,721;27,60818
 541,79; 2919,488;  626,210; 9006,166;27,36623
 542,38; 2990,279;  656,437; 9154,071;27,46461
 542,96; 3004,993;  673,291; 9277,109;27,10079
 543,54; 3082,279;  681,055; 9495,579;27,24167
 544,12; 3121,136;  650,903; 9687,525;27,33580
 544,70; 3110,458;  649,214; 9723,665;27,12279
 545,29; 3143,037;  661,052; 9906,533;26,84538
 545,87; 3117,873;  639,902; 9891,628;26,78387
 546,45; 3080,777;  584,052; 9943,577;26,67576
 547,03; 3093,809;  577,285; 9993,574;26,72522
 547,62; 3100,698;  551,441;10139,292;26,58840
 548,20; 3175,219;  553,444;10248,429;27,04259
 548,78; 3137,873;  521,916;10419,246;26,43094
 549,36; 3188,122;  482,684;10605,949;26,72495
 549,94; 3165,733;  446,673;10779,283;26,31533
 550,53; 3244,891;  442,298;10983,233;26,58771
 551,11; 3226,593;  426,534;11153,871;26,10209
 551,69; 3322,325;  445,376;11457,040;26,12637
 552,27; 3332,759;  393,296;11683,084;26,03648
 552,85; 3458,156;  399,918;12082,685;26,17734
 553,44; 3513,644;  399,145;12322,039;26,12200
 554,02; 3583,182;  410,224;12702,216;25,81321
 554,60; 3598,598;  360,611;12983,243;25,65223
 555,18; 3727,480;  398,377;13365,010;25,67439
 555,76; 3808,657;  365,609;13720,647;25,78089
 556,34; 3889,460;  378,230;14113,353;25,56387
 556,93; 3971,842;  370,454;14482,627;25,51973
 557,51; 4029,077;  350,077;14769,016;25,51505
 558,09; 4119,572;  382,300;15199,180;25,22307
 558,67; 4209,690;  375,465;15515,784;25,32460
 559,25; 4268,856;  390,386;15819,991;25,13655
 559,83; 4340,927;  365,467;16095,458;25,27313
 560,41; 4409,681;  368,768;16443,224;25,13873
 561,00; 4487,793;  367,234;16785,108;25,09801
 561,58; 4552,012;  344,767;17004,453;25,25404
 562,16; 4570,017;  347,534;17336,702;24,85397
 562,74; 4691,145;  347,378;17721,201;25,00179
 563,32; 4749,490;  347,775;18125,965;24,75908
 563,90; 4824,780;  361,234;18462,138;24,65925
 564,48; 4957,056;  365,305;18914,710;24,75417
 565,06; 5052,929;  365,772;19433,227;24,58198
 565,65; 5193,233;  363,088;20044,403;24,54178
 566,23; 5428,679;  410,542;20815,016;24,59332
 566,81; 5545,803;  353,232;21434,806;24,63085
 567,39; 5779,513;  363,315;22300,678;24,68938
 567,97; 5925,900;  385,694;22920,733;24,58485
 568,55; 6135,309;  388,621;23740,671;24,60892
 569,13; 6245,296;  364,696;24467,832;24,39765
 569,71; 6443,657;  359,610;25327,132;24,36784
 570,29; 6688,007;  396,608;26245,011;24,33961
 570,87; 6878,150;  396,840;26985,343;24,37636
 571,45; 6973,586;  377,926;27601,029;24,22817
 572,03; 7062,752;  343,239;27961,222;24,33021
 572,61; 7197,243;  334,236;28658,824;24,22986
 573,20; 7348,335;  385,616;29390,848;24,00505
 573,78; 7487,580;  367,006;29875,934;24,13024
 574,36; 7643,173;  373,312;30441,759;24,17771
 574,94; 7698,837;  435,086;30797,227;23,92371
 575,52; 7670,283;  378,016;31008,304;23,80737
 576,10; 7894,033;  432,859;31624,738;23,92025
 576,68; 7983,174;  417,700;32064,698;23,90582
 577,26; 8074,893;  439,173;32824,747;23,57754
 577,84; 8184,805;  435,082;33311,515;23,57227
 578,42; 8284,094;  473,857;33478,651;23,66395
 579,00; 8245,055;  436,775;33635,442;23,51986
 579,58; 8319,133;  469,932;33937,228;23,45335
 580,16; 8249,063;  456,089;33933,363;23,27840
 580,74; 8305,938;  449,474;34083,319;23,35880
 581,32; 8276,344;  440,779;34167,862;23,23226
 581,90; 8279,613;  464,781;34101,747;23,23287
 582,48; 8295,691;  455,012;34282,332;23,17854
 583,06; 8284,917;  455,856;34362,937;23,08975
 583,64; 8273,426;  454,471;34531,442;22,94498
 584,22; 8225,511;  456,171;34396,463;22,89120
 584,80; 8140,249;  481,857;34079,390;22,79451
 585,38; 7993,496;  479,538;33694,321;22,62233
 585,96; 8006,947;  448,161;33857,462;22,62480
 586,54; 7985,323;  469,478;33797,750;22,55096
 587,12; 7943,164;  449,398;34103,124;22,26727
 587,70; 7950,438;  476,238;34127,726;22,21061
 588,28; 7917,342;  458,244;34244,785;22,07713
 588,86; 7958,288;  462,169;34299,191;22,15360
 589,44; 7855,839;  442,022;34369,330;21,85206
 590,02; 7943,582;  447,020;34636,214;21,92670
 590,59; 7908,565;  429,477;34723,288;21,80886
 591,17; 7930,928;  426,029;35011,854;21,69935
 591,75; 7891,872;  422,101;35141,481;21,51470
 592,33; 8000,024;  444,407;35301,180;21,67618
 592,91; 7970,621;  385,181;35532,062;21,58211
 593,49; 8043,799;  390,569;35894,385;21,55608
 594,07; 8054,041;  415,030;36051,230;21,43610
 594,65; 8028,776;  419,478;36152,307;21,29498
 595,23; 8094,260;  409,558;36498,582;21,29374
 595,81; 8108,016;  407,252;36607,944;21,27242
 596,39; 8090,327;  398,945;36722,423;21,17468
 596,97; 8155,210;  397,027;36945,738;21,22697
 597,55; 8114,763;  380,480;36785,822;21,24491
 598,12; 8033,017;  392,801;36843,285;20,96053
 598,70; 8079,438;  377,413;36958,283;21,05479
 599,28; 8034,784;  393,182;37213,576;20,75372
 599,86; 8055,691;  380,797;37142,896;20,87719
 600,44; 8086,115;  347,645;37263,443;20,96249
 601,02; 8052,931;  410,961;37241,988;20,74873
 601,60; 8030,629;  387,409;37168,790;20,78013
 602,18; 8008,475;  361,493;37299,344;20,70229
 602,75; 7936,679;  359,559;37367,219;20,47446
 603,33; 7970,272;  377,951;37360,591;20,52942
 603,91; 7953,088;  361,573;37324,497;20,53819
 604,49; 7951,928;  386,490;37421,470;20,42782
 605,07; 7925,204;  387,870;37436,834;20,34425
 605,65; 7887,082;  397,030;37586,878;20,14004
 606,23; 7920,046;  457,246;37731,038;20,02157
 606,80; 7929,576;  498,175;37784,818;19,93046
 607,38; 7925,939;  531,418;37725,308;19,88101
 607,96; 7965,664;  575,328;37784,125;19,86180
 608,54; 7946,748;  649,646;37914,093;19,58194
 609,12; 7893,384;  630,406;37903,880;19,48565
 609,70; 7925,202;  660,566;38026,295;19,44198
 610,27; 7879,198;  682,020;38081,214;19,24421
 610,85; 7911,609;  702,489;38111,217;19,27123
 611,43; 7875,271;  688,720;38030,852;19,24515
 612,01; 7760,327;  662,254;37782,215;19,12198
 612,59; 7743,420;  667,258;37907,018;19,00163
 613,16; 7710,691;  620,863;37815,017;19,06167
 613,74; 7650,696;  589,336;37665,576;19,04551
 614,32; 7612,161;  559,569;37691,925;18,99312
 614,90; 7558,405;  529,102;37567,978;18,97817
 615,48; 7446,391;  482,018;37205,946;18,96413
 616,05; 7427,633;  448,093;37231,614;18,97464
 616,63; 7370,107;  445,630;37017,359;18,93396
 617,21; 7287,954;  452,174;36928,245;18,74045
 617,79; 7244,918;  431,945;36883,378;18,69055
 618,36; 7226,562;  443,332;36837,895;18,63803
 618,94; 7100,921;  381,250;36430,579;18,64021
 619,52; 7050,074;  405,554;36255,639;18,53418
 620,10; 6968,219;  391,944;36205,497;18,36253
 620,67; 6939,377;  395,630;36085,806;18,33487
 621,25; 6952,155;  413,794;35996,666;18,37502
 621,83; 6912,550;  393,481;35913,241;18,35336
 622,41; 6889,957;  443,096;35948,624;18,15735
 622,98; 6761,657;  398,553;35616,127;18,06798
 623,56; 6761,817;  406,860;35652,446;18,03051
 624,14; 6719,822;  388,334;35464,029;18,05093
 624,72; 6640,805;  383,634;35382,209;17,87836
 625,29; 6645,087;  375,091;35419,278;17,89169
 625,87; 6679,713;  404,484;35448,009;17,90696
 626,45; 6565,117;  358,474;35305,518;17,76014
 627,02; 6553,883;  376,638;35172,688;17,75272
 627,60; 6498,588;  365,953;35208,750;17,60087
 628,18; 6514,692;  336,406;35183,034;17,72994
 628,76; 6515,455;  343,630;35152,622;17,73055
 629,33; 6472,653;  377,787;35141,849;17,53209
 629,91; 6441,527;  360,329;35171,958;17,46887
 630,49; 6459,799;  375,401;35215,998;17,46353
 631,06; 6429,805;  374,785;35425,240;17,27516
 631,64; 6436,454;  362,321;35408,705;17,33170
 632,22; 6366,511;  332,395;35337,755;17,23769
 632,79; 6372,089;  357,395;35576,586;17,07789
 633,37; 6347,636;  343,793;35634,186;17,01268
 633,95; 6327,179;  348,089;35788,117;16,87101
 634,52; 6324,586;  335,557;35793,285;16,89062
 635,10; 6305,137;  331,174;35839,663;16,82404
 635,68; 6329,063;  337,703;36062,263;16,77098
 636,25; 6338,201;  323,237;35952,922;16,88189
 636,83; 6300,147;  314,784;36204,083;16,67729
 637,41; 6295,516;  339,240;36289,950;16,56790
 637,98; 6317,052;  345,009;36452,163;16,53978
 638,56; 6279,037;  340,005;36522,485;16,41411
 639,13; 6312,308;  318,860;36600,787;16,51910
 639,71; 6310,025;  363,554;36768,087;16,33442
 640,29; 6226,034;  288,554;36497,658;16,39775
 640,86; 6214,879;  312,093;36735,158;16,20618
 641,44; 6178,263;  313,478;36666,581;16,13283
 642,02; 6161,955;  344,939;36703,158;15,99918
 642,59; 6161,185;  316,555;36858,197;15,99444
 643,17; 6106,799;  318,863;36784,774;15,87218
 643,74; 6109,337;  307,786;36875,121;15,86539
 644,32; 6116,798;  335,248;36776,006;15,86561
 644,89; 6087,412;  329,633;36777,275;15,79740
 645,47; 6060,104;  340,479;36918,852;15,63663
 646,05; 6036,795;  337,787;36779,199;15,63882
 646,62; 5967,102;  322,326;36798,930;15,47506
 647,20; 5995,794;  333,403;36934,507;15,47055
 647,77; 5890,101;  306,018;36822,392;15,29200
 648,35; 5876,792;  310,711;36681,738;15,30361
 648,92; 5875,561;  327,557;36769,469;15,22424
 649,50; 5823,560;  287,327;36593,124;15,24890
 650,08; 5787,329;  298,173;36527,470;15,15115
 650,65; 5794,559;  301,481;36760,893;15,06628
 651,23; 5845,789;  294,789;37478,009;14,92878
 651,80; 6013,788;  282,097;38426,279;15,02638
 652,38; 6084,864;  297,943;38764,010;15,04422
 652,95; 6074,863;  282,251;39119,125;14,91524
 653,53; 6111,324;  318,021;39376,395;14,83242
 654,10; 6140,631;  339,328;39472,357;14,82457
 654,68; 6028,015;  289,021;39460,626;14,65090
 655,25; 6021,091;  285,867;39602,434;14,58729
 655,83; 6023,552;  284,637;39603,857;14,59570
 656,40; 6053,859;  318,252;39534,204;14,62570
 656,98; 5957,396;  288,714;39457,089;14,47260
 657,55; 5937,549;  299,253;39281,589;14,46372
 658,13; 5821,472;  294,407;39005,397;14,27777
 658,70; 5833,086;  310,869;38751,436;14,36560
 659,28; 5663,932;  314,253;37982,782;14,20198
 659,85; 5495,854;  305,254;37119,206;14,09955
 660,43; 5510,776;  321,177;37207,629;14,06912
 661,00; 5520,468;  304,100;37314,591;14,09429
 661,58; 5511,544;  300,639;37590,860;13,97392
 662,15; 5544,236;  281,024;37801,361;14,02762
 662,73; 5597,696;  346,409;38066,938;13,92156
 663,30; 5566,080;  300,409;38285,515;13,86246
 663,88; 5590,310;  315,178;38452,169;13,83206
 664,45; 5622,771;  290,717;38705,285;13,88029
 665,03; 5676,693;  296,333;38921,093;13,92982
 665,60; 5783,385;  372,563;39514,747;13,82350
 666,17; 5683,615;  304,718;39569,709;13,69896
 666,75; 5720,076;  301,564;39834,209;13,70642
 667,32; 5732,921;  321,718;40222,863;13,56152
 667,90; 5784,536;  297,872;40553,979;13,62939
 668,47; 5806,996;  316,257;40718,941;13,59004
 669,05; 5803,996;  299,719;41088,210;13,49468
 669,62; 5776,995;  274,565;41105,710;13,47606
 670,19; 5759,994;  287,411;41229,826;13,36654
 670,77; 5796,763;  293,719;41441,249;13,37393
 671,34; 5809,839;  301,258;41367,134;13,41401
 671,92; 5799,838;  281,643;41697,327;13,32393
 672,49; 5775,914;  309,643;41711,443;13,20298
 673,06; 5758,221;  256,643;41810,404;13,23966
 673,64; 5741,605;  287,720;41795,982;13,13927
 674,21; 5678,066;  279,721;41652,251;13,04814
 674,79; 5754,988;  305,567;41889,982;13,10448
 675,36; 5740,526;  307,106;42048,405;13,01689
 675,93; 5693,140;  269,798;41923,290;13,02014
 676,51; 5704,140;  296,337;42038,791;12,95516
 677,08; 5675,523;  300,029;42205,676;12,82761
 677,65; 5706,830;  300,876;42223,945;12,89494
 678,23; 5718,137;  299,722;42528,138;12,83121
 678,80; 5681,983;  287,261;42656,253;12,73271
 679,38; 5688,443;  284,030;42765,984;12,72167
 679,95; 5684,981;  303,184;42939,100;12,62268
 680,52; 5688,442;  285,338;43307,216;12,55897
 681,10; 5767,287;  299,338;43558,870;12,63987
 681,67; 5749,363;  298,493;43842,832;12,51798
 682,24; 5808,670;  268,570;43972,563;12,67642
 682,82; 5818,362;  280,108;44494,448;12,52592
 683,39; 5878,515;  326,186;44959,179;12,43997
 683,96; 5927,745;  289,032;45091,371;12,58576
 684,54; 5937,437;  276,109;45456,641;12,53046
 685,11; 5995,436;  309,340;45702,833;12,52624
 685,68; 5950,127;  286,186;46266,487;12,31819
 686,25; 5940,973;  269,033;46346,142;12,30967
 686,83; 5990,357;  281,187;46473,950;12,35945
 687,40; 5997,510;  273,418;46719,296;12,32422
 687,97; 6030,509;  297,110;47163,489;12,23350
 688,55; 6021,200;  260,264;47251,297;12,25965
 689,12; 6014,430;  244,188;47453,335;12,22272
 689,69; 6064,045;  250,342;47563,451;12,28772
 690,26; 6042,814;  267,880;47710,336;12,17250
 690,84; 6073,659;  276,958;47853,298;12,18400
 691,41; 6078,197;  288,496;48013,567;12,13136
 691,98; 6074,965;  295,189;48194,683;12,06647
 692,56; 6092,118;  278,881;48329,260;12,09821
 693,13; 6109,348;  328,728;48309,991;12,04766
 693,70; 6104,117;  300,574;48497,568;12,04130
 694,27; 6079,270;  272,728;48602,222;12,01449
 694,84; 6092,731;  274,344;48711,184;12,01232
 695,42; 6146,268;  331,728;48858,454;11,98214
 695,99; 6129,344;  292,190;49050,723;11,97155
 696,56; 6126,728;  285,575;48886,531;12,01860
 697,13; 6164,497;  302,960;49344,339;11,95223
 697,71; 6144,265;  269,806;49297,147;11,98201
 698,28; 6137,341;  279,345;49636,724;11,86853
 698,85; 6131,802;  255,422;49652,917;11,89611
 699,42; 6126,340;  259,884;49787,879;11,84473
 699,99; 6162,262;  299,115;49910,456;11,81816
 700,57; 6168,954;  294,269;50012,802;11,81589
 701,14; 6143,107;  271,423;50102,610;11,78315
 701,71; 6205,260;  310,808;50372,803;11,77431
 702,28; 6178,413;  286,193;50343,765;11,77089
 702,85; 6189,181;  287,193;50442,034;11,76754
 703,43; 6262,104;  305,116;50729,842;11,81362
 704,00; 6229,411;  323,270;50879,650;11,68229
 704,57; 6169,948;  295,193;50869,381;11,61611
 705,14; 6234,486;  320,578;51078,189;11,65127
 705,71; 6221,254;  325,348;51209,536;11,58691
 706,28; 6242,715;  297,425;51085,036;11,70618
 706,86; 6290,638;  334,810;51220,152;11,70441
 707,43; 6299,098;  349,502;51187,113;11,70314
 708,00; 6294,867;  322,272;51296,614;11,71687
 708,57; 6244,866;  303,964;51216,191;11,66891
 709,14; 6284,096;  323,118;51342,845;11,68367
 709,71; 6301,480;  303,426;51511,961;11,71300
 710,28; 6320,248;  294,888;51644,769;11,73393
 710,86; 6311,401;  311,196;51785,884;11,65661
 711,43; 6344,785;  324,196;51754,539;11,70630
 712,00; 6357,631;  315,504;51848,654;11,72474
 712,57; 6371,938;  311,350;52033,308;11,71763
 713,14; 6420,706;  300,735;52068,655;11,82194
 713,71; 6393,167;  311,428;52110,540;11,74101
 714,28; 6412,397;  294,043;52009,194;11,83087
 714,85; 6364,165;  282,428;51853,925;11,79283
 715,42; 6415,780;  290,121;52085,887;11,82656
 716,00; 6495,241;  358,659;52233,310;11,82963
 716,57; 6483,778;  290,044;52298,579;11,90907
 717,14; 6449,932;  278,967;52131,541;11,90098
 717,71; 6447,162;  261,045;52118,965;11,92897
 718,28; 6557,315;  308,429;52350,926;12,00727
 718,85; 6449,391;  262,891;52374,504;11,87163
 719,42; 6553,775;  289,661;52479,081;12,00265
 719,99; 6560,158;  269,122;52273,735;12,09707
 720,56; 6592,235;  299,353;52573,851;12,03815
 721,13; 6584,388;  271,661;52641,043;12,05423
 721,70; 6553,233;  261,969;52528,851;12,03681
 722,27; 6626,309;  285,969;52482,890;12,14696
 722,84; 6689,462;  332,354;52699,775;12,13943
 723,41; 6651,615;  267,662;52779,891;12,15708
 723,98; 6609,692;  282,970;52943,391;12,01419
 724,55; 6737,537;  312,509;52994,814;12,19580
 725,12; 6669,075;  239,124;52916,776;12,20622
 725,69; 6753,305;  274,586;53109,584;12,26217
 726,27; 6778,842;  278,586;53314,700;12,25628
 726,84; 6828,457;  291,817;53571,892;12,26845
 727,41; 6851,995;  292,048;53460,008;12,33816
 727,98; 6929,532;  301,202;53736,508;12,40440
 728,55; 6958,916;  322,202;53596,470;12,45763
 729,12; 6931,454;  271,664;53726,816;12,45865
 729,69; 7000,992;  304,741;53872,086;12,50062
 730,26; 6990,991;  303,665;54140,048;12,42157
 730,82; 7028,836;  291,203;54027,163;12,53841
 731,39; 7083,143;  297,204;54132,971;12,60489
 731,96; 7099,296;  271,434;54460,395;12,60010
 732,53; 7162,372;  293,204;54703,357;12,62479
 733,10; 7168,449;  303,281;54686,011;12,62380
 733,67; 7240,140;  296,358;54987,973;12,69625
 734,24; 7201,293;  282,743;54595,704;12,73830
 734,81; 7274,369;  323,897;54758,819;12,76841
 735,38; 7259,907;  284,436;54541,550;12,85633
 735,95; 7250,368;  291,282;54325,974;12,87892
 736,52; 7278,675;  307,975;54542,320;12,85293
 737,09; 7245,905;  300,052;54205,128;12,88534
 737,66; 7328,750;  338,283;54294,628;12,95578
 738,23; 7358,826;  283,206;54435,282;13,06620
 738,80; 7458,902;  347,206;54783,244;13,06432
 739,37; 7496,286;  307,360;54988,283;13,14705
 739,94; 7484,132;  291,361;54960,783;13,15684
 740,51; 7603,746;  398,822;54989,976;13,19797
 741,07; 7555,746;  287,669;55001,784;13,28373
 741,64; 7653,283;  305,361;55283,207;13,36524
 742,21; 7691,975;  287,438;55298,861;13,46000
 742,78; 7635,282;  265,515;55003,439;13,46373
 743,35; 7690,050;  296,054;55360,631;13,42786
 743,92; 7755,357;  321,439;55485,901;13,47592
 744,49; 7832,664;  315,978;55347,324;13,65892
 745,06; 7731,817;  283,747;55364,517;13,52209
 745,63; 7802,893;  276,132;55307,940;13,67711
 746,19; 7875,893;  284,978;55291,671;13,79998
 746,76; 7893,430;  295,440;55333,787;13,80490
 747,33; 7885,429;  284,671;55331,287;13,80786
 747,90; 7991,044;  304,287;55570,172;13,90868
 748,47; 8011,043;  292,595;55467,287;13,98911
 749,04; 8039,735;  314,133;55417,095;14,02030
 749,61; 8061,657;  324,903;55368,827;14,05560
 750,17; 8102,426;  311,672;55477,865;14,12233
 750,74; 8116,886;  301,749;55411,981;14,18092
 751,31; 8089,040;  267,826;55307,404;14,21016
 751,88; 8076,731;  266,980;55142,289;14,23181
 752,45; 8167,192;  287,750;55391,174;14,29937
 753,02; 8192,653;  298,442;55082,674;14,40964
 753,58; 8197,036;  276,981;55049,098;14,46001
 754,15; 8256,036;  283,751;55229,829;14,50929
 754,72; 8238,420;  282,828;54954,406;14,55160
 755,29; 8203,496;  267,597;54789,445;14,55545
 755,86; 8320,803;  284,597;54987,330;14,69068
 756,42; 8379,340;  286,828;54919,830;14,81250
 756,99; 8367,109;  251,136;54833,253;14,86929
 757,56; 8392,647;  270,060;54787,677;14,89901
 758,13; 8400,953;  211,367;54778,869;15,00817
 758,70; 8472,414;  238,598;54822,677;15,08465
 759,26; 8526,567;  228,060;54837,562;15,19609
 759,83; 8532,028;  239,060;54939,293;15,16075
 760,40; 8609,489;  226,753;54823,793;15,35383
 760,97; 8594,642;  217,830;54841,678;15,33545
 761,53; 8564,949;  200,446;54453,948;15,41744
 762,10; 8611,794;  212,984;54440,756;15,48802
 762,67; 8649,870;  244,523;54427,102;15,51301
 763,24; 8610,331;  202,292;54032,295;15,61961
 763,80; 8704,638;  238,677;54121,334;15,71185
 764,37; 8703,176;  240,139;54150,218;15,69843
 764,94; 8640,944;  216,524;53655,411;15,76459
 765,50; 8656,790;  229,447;53698,681;15,76111
 766,07; 8789,558;  273,909;53765,258;15,91968
 766,64; 8739,404;  237,909;53484,912;15,96615
 767,21; 8771,480;  249,525;53336,874;16,05270
 767,77; 8764,864;  272,371;53316,989;16,01009
 768,34; 8818,632;  278,294;53213,182;16,13367
 768,91; 8838,862;  270,371;53061,836;16,23083
 769,47; 8903,169;  263,449;53144,952;16,33789
 770,04; 8911,168;  273,680;52968,529;16,39152
 770,61; 8871,937;  255,988;52776,106;16,40505
 771,18; 8905,244;  248,142;52584,299;16,54134
 771,74; 8973,935;  271,449;52771,953;16,57600
 772,31; 8998,550;  262,527;52573,530;16,70016
 772,88; 9027,857;  234,988;52332,800;16,87762
 773,44; 8996,317;  253,066;52111,300;16,85991
 774,01; 9083,855;  270,373;52206,262;16,96993
 774,58; 9058,085;  249,527;51799,300;17,08748
 775,14; 9130,777;  247,220;51982,955;17,17103
 775,71; 9159,468;  249,605;51886,147;17,25496
 776,27; 9229,314;  309,605;51837,878;17,31032
 776,84; 9334,928;  331,990;51829,917;17,48214
 777,41; 9270,620;  277,836;51661,109;17,50138
 777,97; 9285,465;  251,606;51326,225;17,68757
 778,54; 9303,772;  273,991;51381,572;17,66818
 779,11; 9324,387;  286,837;51416,610;17,67571
 779,67; 9360,540;  251,376;51394,803;17,81102
 780,24; 9389,078;  269,453;51262,457;17,88407
 780,80; 9425,692;  285,068;51128,957;17,97782
 781,37; 9462,845;  275,684;51131,765;18,06502
 781,94; 9463,383;  254,684;50875,035;18,19169
 782,50; 9564,305;  269,607;50789,920;18,39794
 783,07; 9599,843;  292,454;50872,805;18,40120
 783,63; 9555,842;  257,685;50595,997;18,47133
 784,20; 9576,764;  279,685;50630,651;18,46455
 784,77; 9622,071;  267,685;50313,844;18,69152
 785,33; 9598,917;  241,993;50191,806;18,73265
 785,90; 9630,608;  267,686;50231,998;18,73922
 786,46; 9678,377;  278,840;50231,191;18,81701
 787,03; 9677,530;  248,763;49988,460;18,95622
 787,59; 9688,760;  260,840;49854,807;19,01022
 788,16; 9755,682;  281,610;49774,076;19,14245
 788,73; 9756,605;  269,533;49591,192;19,23510
 789,29; 9727,758;  263,302;49230,615;19,32811
 789,86; 9747,449;  282,918;49188,731;19,35257
 790,42; 9685,448;  270,380;49006,693;19,31839
 790,99; 9757,448;  279,611;48804,424;19,53194
 791,55; 9770,908;  258,611;48747,001;19,61768
 792,12; 9825,061;  286,457;48744,194;19,68438
 792,68; 9795,830;  266,611;48385,386;19,80354
 793,25; 9812,829;  275,227;48188,348;19,90603
 793,81; 9874,059;  330,227;47839,233;20,08847
 794,38; 9807,674;  239,458;47655,426;20,17931
 794,94; 9837,750;  249,997;47471,003;20,30400
 795,51; 9854,518;  282,074;47346,272;20,33912
 796,07; 9790,056;  257,536;47077,696;20,35986
 796,64; 9895,825;  295,997;47173,273;20,47864
 797,20; 9889,978;  280,075;46664,312;20,71804
 797,77; 9800,746;  235,921;46331,043;20,75019
 798,33; 9811,284;  269,767;46193,928;20,77668
 798,90; 9858,129;  287,537;46098,505;20,89149
 799,46; 9828,975;  270,229;45575,928;21,09833
 800,03; 9803,974;  273,383;45513,275;21,06678
 800,59; 9813,204;  285,768;45370,390;21,13234
 801,15; 9813,665;  288,230;45134,198;21,24034
 801,72; 9777,048;  270,845;44878,006;21,31094
 802,28; 9770,971;  294,615;44557,122;21,40944
 802,85; 9783,355;  274,307;44399,930;21,54994
 803,41; 9782,431;  263,000;44169,892;21,68095
 803,98; 9719,199;  261,616;43746,777;21,74899
 804,54; 9787,737;  270,154;43444,738;22,04441
 805,11; 9759,659;  287,539;43330,623;22,00614
 805,67; 9787,428;  308,078;43278,200;22,06033
 806,23; 9690,889;  266,001;42761,085;22,17877
 806,80; 9729,195;  288,617;42695,124;22,26210
 807,36; 9769,272;  287,463;42689,394;22,36174
 807,93; 9805,194;  300,848;42473,740;22,53662
 808,49; 9740,578;  249,386;42084,317;22,68724
 809,05; 9715,269;  251,156;41995,356;22,67168
 809,62; 9758,576;  289,002;41842,933;22,78864
 810,18; 9844,037;  281,541;41730,818;23,07036
 810,74; 9786,113;  245,849;41519,780;23,11450
 811,31; 9765,959;  250,618;41268,511;23,19802
 811,87; 9809,342;  259,157;41163,627;23,34754
 812,44; 9859,265;  294,926;41136,204;23,41831
 813,00; 9836,495;  220,004;40883,166;23,64915
 813,56; 9910,802;  274,696;40935,204;23,69893
 814,13; 9932,801;  259,850;40745,474;23,89231
 814,69; 9901,108;  253,235;40594,666;23,91554
 815,25; 9794,338;  236,928;40200,705;23,91518
 815,82; 9904,722;  280,697;40209,436;24,10300
 816,38; 9951,798;  300,005;40000,552;24,31149
 816,94; 9897,259;  251,928;39694,129;24,45434
 817,51; 9874,643;  238,928;39506,322;24,53872
 818,07; 9815,873;  245,775;39250,976;24,53544
 818,63; 9879,179;  273,006;39023,861;24,78958
 819,20; 9917,179;  259,006;38979,823;24,94310
 819,76; 9882,178;  242,391;38565,092;25,15425
 820,32; 9908,100;  295,853;38508,823;25,15441
 820,89; 9875,253;  276,237;38269,323;25,26517
 821,45; 9801,791;  245,930;37985,747;25,32037
 822,01; 9794,483;  270,084;37748,939;25,41273
 822,57; 9834,789;  262,853;37571,747;25,65591
 823,14; 9767,789;  237,854;37367,786;25,66645
 823,70; 9764,403;  235,854;37118,902;25,83450
 824,26; 9728,095;  249,085;36961,325;25,81975
 824,82; 9735,556;  268,854;36806,748;25,90927
 825,39; 9675,478;  246,854;36566,787;25,95991
 825,95; 9786,477;  264,239;36537,211;26,25161
 826,51; 9684,476;  262,547;36125,634;26,27194
 827,08; 9781,322;  306,240;36207,211;26,39227
 827,64; 9739,398;  270,317;36035,481;26,47571
 828,20; 9752,013;  246,471;35772,519;26,75654
 828,76; 9758,089;  269,625;35703,635;26,77784
 829,32; 9800,242;  276,317;35643,289;26,92887
 829,89; 9730,549;  231,241;35524,712;26,91520
 830,45; 9800,779;  258,010;35444,982;27,12018
 831,01; 9834,393;  252,703;35229,790;27,39419
 831,57; 9825,854;  254,011;35069,983;27,49268
 832,14; 9794,469;  246,703;35026,252;27,45224
 832,70; 9837,314;  243,088;34855,522;27,71902
 833,26; 9830,083;  214,704;34669,560;27,90718
 833,82; 9890,774;  252,242;34709,291;27,97260
 834,38; 9908,697;  247,089;34666,407;28,07031
 834,95; 9944,696;  241,473;34489,753;28,33200
 835,51; 9915,849;  209,243;34402,561;28,38743
 836,07; 9963,233;  253,705;34454,908;28,38943
 836,63;10007,617;  264,013;34434,485;28,51469
 837,19; 9966,770;  247,859;34274,139;28,56295
 837,75; 9938,923;  219,551;33980,563;28,78874
 838,32;10099,383;  260,167;34076,371;29,09616
 838,88;10043,383;  262,090;34127,948;28,88246
 839,44;10050,536;  255,783;34055,756;28,97858
 840,00;10076,612;  252,014;33936,179;29,16681
 840,56;10062,996;  239,860;33756,295;29,30841
 841,12;10079,072;  235,476;33652,410;29,45691
 841,68; 9989,071;  226,091;33490,526;29,34960
 842,25;10077,455;  231,322;33469,488;29,62297
 842,81;10059,070;  231,246;33316,142;29,70487
 843,37;10134,454;  214,938;33260,950;30,01728
 843,93;10128,760;  237,938;33145,219;30,05664
 844,49;10130,298;  247,400;33174,566;30,01442
 845,05;10097,913;  210,170;33065,912;30,09441
 845,61;10187,758;  248,170;33106,643;30,24970
 846,17;10182,527;  235,785;32907,298;30,44469
 846,73;10227,372;  241,940;32803,721;30,66611
 847,29;10186,064;  217,324;32683,913;30,70461
 847,86;10298,294;  235,248;32657,260;31,03770
 848,42;10207,831;  221,017;32423,376;31,01268
 848,98;10219,061;  249,402;32411,414;30,99824
 849,54;10240,214;  232,864;32420,376;31,09079
 850,10;10295,983;  239,172;32242,261;31,42450
 850,66;10315,213;  223,326;32169,223;31,59056
 851,22;10351,674;  216,018;32044,492;31,84462
 851,78;10395,981;  262,172;32190,300;31,73944
 852,34;10352,903;  247,480;31902,878;31,92322
 852,90;10342,748;  239,711;31744,301;32,06846
 853,46;10302,824;  221,327;31626,878;32,10101
 854,02;10344,977;  241,096;31540,686;32,28119
 854,58;10337,977;  237,558;31283,648;32,53363
 855,14;10336,361;  227,712;31230,148;32,60598
 855,70;10322,744;  199,404;31072,802;32,78985
 856,26;10375,513;  247,482;30999,610;32,93441
 856,82;10341,666;  223,174;30911,803;32,97147
 857,38;10392,896;  260,405;30765,842;33,21536
 857,94;10325,280;  225,559;30693,342;33,14885
 858,50;10344,587;  250,790;30567,073;33,29497
 859,06;10308,048;  231,560;30390,266;33,41154
 859,62;10386,816;  239,868;30330,612;33,72116
 860,18;10353,892;  229,406;30161,112;33,82529
 860,74;10287,276;  209,945;29971,689;33,86001
 861,30;10283,429;  208,791;29742,882;34,11189
 861,86;10400,274;  270,638;29919,075;34,16584
 862,42;10377,812;  237,946;29764,806;34,34116
 862,98;10432,965;  266,176;29637,075;34,61518
 863,54;10331,426;  236,946;29389,960;34,62585
 864,10;10413,579;  220,638;29537,691;34,76796
 864,66;10342,117;  213,639;29320,191;34,79793
 865,22;10384,501;  229,485;29208,769;35,04233
 865,78;10373,115;  242,639;29062,269;35,15131
 866,34;10359,499;  221,255;28983,154;35,24887
 866,90;10355,345;  246,716;28842,346;35,35026
 867,45;10277,421;  234,024;28601,462;35,40467
 868,01;10255,266;  240,717;28463,808;35,48353
 868,57;10247,265;  228,640;28331,924;35,64930
 869,13;10200,649;  212,025;28131,732;35,77625
 869,69;10161,110;  229,871;28104,463;35,62828
 870,25;10139,878;  212,025;28013,425;35,70990
 870,81;10183,878;  233,103;27915,694;35,94597
 871,37;10193,108;  241,103;27851,426;36,04451
 871,93;10131,415;  241,334;27679,310;36,04523
 872,49;10102,183;  262,719;27451,272;36,18973
 873,04;10089,259;  217,411;27275,849;36,48344
 873,60;10107,028;  217,181;27180,965;36,67826
 874,16;10115,950;  238,719;27138,312;36,71889
 874,72;10090,412;  230,104;27081,927;36,72119
 875,28;10137,873;  240,258;26971,773;37,02602
 875,84;10150,565;  230,258;26915,388;37,17541
 876,40;10178,719;  222,027;26777,388;37,49409
 876,95;10194,258;  237,104;26837,004;37,43305
 877,51;10283,565;  264,181;26826,235;37,72067
 878,07;10253,258;  270,719;26808,004;37,61703
 878,63;10293,873;  226,335;26831,004;37,84125
 879,19;10364,104;  242,873;26770,696;38,15327
 879,75;10387,873;  233,488;26885,388;38,10004
 880,30;10393,335;  235,258;26834,388;38,18951
 880,86;10489,796;  274,335;27011,312;38,20724
 881,42;10521,719;  217,181;26987,696;38,49212
 881,98;10610,796;  251,104;27128,850;38,54375
 882,54;10658,335;  229,796;27205,542;38,65894
 883,09;10699,565;  240,104;27280,927;38,68026
 883,65;10798,027;  221,027;27450,235;38,84432
 884,21;10980,181;  258,642;27607,927;39,20226
 884,77;10972,642;  217,412;27540,696;39,36288
 885,32;11116,027;  232,104;27752,158;39,54906
 885,88;11236,565;  269,642;27948,927;39,62141
 886,44;11263,950;  234,258;28056,773;39,64305
 887,00;11391,565;  260,796;28002,388;40,12304
 887,56;11468,873;  226,873;28174,927;40,22463
 888,11;11482,412;  234,565;28173,465;40,25873
 888,67;11603,642;  261,258;28362,927;40,36196
 889,23;11648,642;  247,104;28360,696;40,55525
 889,79;11626,335;  219,873;28214,927;40,74456
 890,34;11667,104;  241,565;28168,235;40,91264
 890,90;11806,335;  303,642;28337,619;41,03125
 891,46;11821,565;  222,335;28240,235;41,39936
 892,01;11876,873;  253,950;28197,927;41,59366
 892,57;11836,796;  271,027;28211,465;41,39437
 893,13;11797,335;  224,335;27922,235;41,78295
 893,69;11825,488;  227,642;27872,081;41,95363
 894,24;11758,950;  245,027;27818,542;41,75718
 894,80;11713,104;  248,181;27712,004;41,74555
 895,36;11678,565;  239,642;27574,235;41,84779
 895,91;11651,796;  226,950;27331,773;42,15060
 896,47;11667,642;  252,335;27288,619;42,22218
 897,03;11595,027;  230,488;27012,158;42,43402
 897,58;11555,796;  254,719;27080,619;42,12748
 898,14;11538,027;  246,796;26719,235;42,65278
 898,70;11521,873;  204,950;26620,312;42,84220
 899,25;11477,335;  242,181;26628,465;42,57952
 899,81;11495,642;  248,104;26450,696;42,92529
 900,37;11422,258;  208,258;26203,696;43,13834
 900,92;11474,181;  239,642;26209,081;43,26061
 901,48;11468,027;  225,412;26078,465;43,48660
 902,03;11452,488;  212,335;25948,773;43,67408
 902,59;11415,565;  229,950;25837,081;43,68164
 903,15;11398,719;  256,488;25704,542;43,78422
 903,70;11335,027;  245,027;25477,081;43,95203
 904,26;11288,642;  223,873;25315,773;44,09698
 904,82;11324,873;  242,873;25352,542;44,13439
 905,37;11278,796;  246,719;25189,619;44,22933
 905,93;11241,488;  228,719;25007,312;44,44469
 906,48;11297,642;  243,796;25006,850;44,63846
 907,04;11307,258;  253,335;24911,388;44,82885
 907,60;11227,796;  237,950;24700,542;44,92511
 908,15;11228,181;  230,027;24588,696;45,15088
 908,71;11283,258;  257,027;24614,081;45,26915
 909,26;11201,181;  228,181;24422,619;45,35340
 909,82;11185,950;  257,412;24211,388;45,62306
 910,37;11211,719;  277,027;24242,081;45,62766
 910,93;11117,873;  226,104;24083,312;45,65400
 911,48;11118,258;  220,181;23858,388;46,10365
 912,04;11037,565;  236,796;23776,312;45,88357
 912,60;11104,027;  243,258;23848,235;46,01051
 913,15;11057,873;  239,873;23565,619;46,37794
 913,71;10982,796;  219,873;23403,696;46,42428
 914,26;11019,719;  215,104;23348,850;46,70500
 914,82;11022,719;  236,412;23261,312;46,84627
 915,37;11018,796;  223,642;23194,927;46,99412
 915,93;11025,104;  272,642;23073,158;47,15885
 916,48;10928,258;  225,719;22937,081;47,12416
 917,04;10995,488;  247,104;22802,696;47,65286
 917,59;11017,719;  263,181;22762,158;47,80012
 918,15;10857,565;  196,488;22562,388;47,66666
 918,70;10885,488;  220,873;22468,696;47,93555
 919,26;10919,950;  231,950;22437,081;48,13302
 919,81;10814,412;  220,719;22235,312;48,12123
 920,37;10842,796;  228,642;22167,158;48,38137
 920,92;10815,181;  246,873;22137,081;48,27870
 921,48;10781,335;  214,488;21839,081;48,86495
 922,03;10792,335;  225,950;21859,081;48,84353
 922,59;10791,796;  225,796;21713,158;49,17309
 923,14;10746,950;  224,796;21644,312;49,12415
 923,69;10734,873;  250,565;21559,388;49,20172
 924,25;10737,027;  238,027;21438,619;49,52220
 924,80;10641,796;  233,719;21291,312;49,42672
 925,36;10631,719;  226,104;21189,312;49,63752
 925,91;10663,796;  211,181;21066,542;50,11956
 926,47;10650,873;  208,565;20966,081;50,30615
 927,02;10690,335;  280,335;20992,235;50,26096
 927,57;10608,719;  225,104;20790,696;50,49023
 928,13;10649,796;  213,796;20660,388;51,04029
 928,68;10623,181;  225,258;20638,312;50,93762
 929,24;10569,565;  199,719;20421,388;51,28086
 929,79;10499,950;  206,335;20327,235;51,15882
 930,34;10474,181;  226,873;20180,465;51,35570
 930,90;10530,104;  212,027;20141,465;51,77304
 931,45;10472,796;  229,027;20157,927;51,40158
 932,01;10449,258;  225,873;20021,465;51,64475
 932,56;10412,027;  249,719;19868,388;51,79917
 933,11;10478,258;  253,488;19857,927;52,15538
 933,67;10364,412;  220,488;19695,388;52,08716
 934,22;10395,027;  236,181;19596,312;52,47302
 934,77;10360,873;  257,950;19538,158;52,40049
 935,33;10313,565;  227,796;19370,850;52,68631
 935,88;10310,796;  228,258;19341,158;52,75253
 936,43;10263,950;  228,642;19217,235;52,84914
 936,99;10211,258;  232,719;19116,927;52,84065
 937,54;10159,873;  210,719;18954,773;53,07899
 938,09;10177,335;  227,412;18975,388;53,07198
 938,65;10177,335;  220,950;18836,850;53,48323
 939,20;10136,258;  204,335;18707,773;53,67609
 939,75;10077,488;  211,565;18689,619;53,39265
 940,31;10015,796;  210,412;18486,850;53,65041
 940,86;10000,642;  225,027;18508,004;53,46840
 941,41;10002,488;  290,565;18399,542;53,63043
 941,96; 9923,335;  219,258;18250,619;53,81777
 942,52; 9898,950;  216,027;18174,235;53,91921
 943,07; 9868,181;  197,488;18061,696;54,13446
 943,62; 9919,873;  217,719;17999,081;54,56362
 944,18; 9900,412;  195,565;17954,158;54,64874
 944,73; 9933,412;  233,027;17856,388;55,04276
 945,28; 9785,258;  191,027;17627,927;55,02257
 945,83; 9895,719;  217,642;17686,773;55,40102
 946,39; 9888,642;  223,335;17662,004;55,42457
 946,94; 9927,796;  245,335;17545,542;55,96731
 947,49; 9898,027;  219,565;17453,696;56,15869
 948,04; 9880,488;  253,719;17367,542;56,25142
 948,59; 9845,950;  244,950;17351,773;56,12380
 949,15; 9769,950;  202,719;17219,850;56,22117
 949,70; 9758,719;  218,104;17085,235;56,56336
 950,25; 9796,719;  237,181;17045,158;56,87501
 950,80; 9698,950;  196,027;16909,081;56,85929
 951,36; 9681,258;  197,873;16863,235;56,90476
 951,91; 9766,258;  230,565;16832,927;57,43576
 952,46; 9593,642;  199,719;16575,158;57,36593
 953,01; 9684,335;  242,950;16650,619;57,54251
 953,56; 9560,642;  195,104;16489,542;57,47690
 954,11; 9591,181;  233,565;16458,312;57,67496
 954,67; 9478,565;  219,719;16418,312;57,15834
 955,22; 9493,642;  207,181;16251,773;57,87907
 955,77; 9460,181;  242,412;16265,004;57,52982
 956,32; 9482,796;  275,181;16178,927;57,89589
 956,87; 9343,796;  206,565;15991,235;57,88674
 957,42; 9400,412;  211,258;15955,850;58,36387
 957,98; 9384,796;  214,335;15911,465;58,42126
 958,53; 9400,412;  238,412;15814,004;58,82280
 959,08; 9324,642;  201,796;15706,619;58,83876
 959,63; 9295,181;  206,796;15611,312;58,99819
 960,18; 9321,642;  229,873;15587,312;59,20108
 960,73; 9307,335;  226,796;15466,158;59,58608
 961,28; 9293,873;  199,873;15403,312;59,81542
 961,83; 9293,258;  238,181;15367,619;59,85071
 962,39; 9208,258;  204,642;15236,542;59,89672
 962,94; 9206,335;  228,181;15135,158;60,22786
 963,49; 9144,796;  223,565;15083,158;60,03685
 964,04; 9215,796;  235,642;15060,927;60,57323
 964,59; 9136,796;  190,873;14878,773;60,90675
 965,14; 9159,488;  237,950;14853,158;61,04284
 965,69; 9099,873;  226,181;14738,388;61,14640
 966,24; 9076,412;  216,104;14616,465;61,52837
 966,79; 9108,335;  233,488;14561,158;61,94201
 967,34; 9001,719;  193,104;14409,696;61,96010
 967,89; 9042,335;  206,027;14404,312;62,23504
 968,44; 9000,181;  216,027;14305,773;62,34430
 968,99; 8991,335;  221,950;14292,465;62,32454
 969,55; 9006,796;  222,027;14166,619;62,99768
 970,10; 8972,104;  226,488;14098,312;63,04590
 970,65; 8879,796;  246,873;14004,696;62,74919
 971,20; 8841,104;  214,181;13909,773;62,99051
 971,75; 8771,719;  197,796;13668,542;63,64846
 972,30; 8829,488;  223,104;13699,081;63,86464
 972,85; 8731,104;  212,181;13631,004;63,48488
 973,40; 8704,950;  206,258;13559,158;63,64679
 973,95; 8665,565;  222,719;13453,312;63,81306
 974,50; 8647,335;  246,565;13406,773;63,83463
 975,05; 8681,335;  227,335;13275,619;64,79013
 975,60; 8592,258;  233,642;13192,388;64,50173
 976,15; 8525,488;  213,719;13086,158;64,57028
 976,70; 8482,104;  225,719;13024,312;64,51010
 977,25; 8444,950;  228,950;12980,388;64,43195
 977,80; 8411,565;  205,104;12853,542;64,88122
 978,35; 8323,104;  228,565;12647,773;65,17758
 978,89; 8294,488;  198,719;12588,388;65,34290
 979,44; 8288,104;  228,873;12625,081;65,01368
 979,99; 8172,796;  209,873;12401,619;65,31405
 980,54; 8182,565;  243,412;12386,850;65,37814
 981,09; 8141,719;  239,258;12232,388;65,89156
 981,64; 8094,873;  234,873;12097,773;66,25699
 982,19; 8109,719;  261,027;12125,081;66,15523
 982,74; 8048,412;  245,027;11893,081;66,99303
 983,29; 7926,258;  213,950;11764,619;66,76936
 983,84; 7945,565;  235,258;11668,773;67,43602
 984,39; 7979,642;  303,104;11711,542;67,28825
 984,94; 7819,181;  203,027;11481,619;67,52752
 985,49; 7868,565;  250,873;11470,542;67,89587
 986,03; 7809,565;  250,488;11413,235;67,71700
 986,58; 7773,873;  276,027;11242,619;68,36988
 987,13; 7687,719;  237,027;11119,465;68,46528
 987,68; 7646,950;  235,335;11045,773;68,55980
 988,23; 7584,873;  237,258;10984,850;68,36522
 988,78; 7550,719;  223,873;10863,235;68,86547
 989,33; 7473,719;  241,873;10732,696;68,93497
 989,88; 7473,104;  249,642;10721,619;68,97897
 990,42; 7382,642;  232,642;10586,158;69,05867
 990,97; 7315,181;  224,950;10463,004;69,25370
 991,52; 7324,796;  253,719;10376,850;69,85069
 992,07; 7258,412;  255,873;10301,927;69,70437
 992,62; 7208,796;  239,873;10217,773;69,84359
 993,17; 7150,796;  238,181;10072,004;70,29428
 993,71; 7136,027;  248,950; 9954,235;70,96213
 994,26; 7034,488;  222,181; 9825,850;70,93443
 994,81; 7033,719;  250,181; 9767,850;71,27311
 995,36; 6948,719;  226,719; 9628,773;71,49502
 995,91; 6918,412;  235,258; 9593,004;71,41841
 996,45; 6851,796;  236,335; 9483,619;71,53950
 997,00; 6823,027;  207,950; 9335,850;72,47096
 997,55; 6822,796;  233,873; 9334,927;72,39736
 998,10; 6727,104;  265,488; 9163,773;72,61642
 998,65; 6691,719;  231,412; 9172,465;72,25443
 999,19; 6632,796;  252,104; 9013,158;72,83019
 999,74; 6599,181;  276,181; 8985,542;72,60004
1000,29; 6527,258;  246,719; 8828,773;73,18223
1000,84; 6454,796;  223,104; 8741,696;73,15402
1001,38; 6423,181;  237,412; 8648,388;73,54400
1001,93; 6424,335;  248,181; 8601,158;73,93955
1002,48; 6306,181;  221,950; 8410,542;74,30130
1003,03; 6287,104;  238,565; 8394,696;74,15941
1003,57; 6215,488;  249,719; 8249,158;74,57735
1004,12; 6170,642;  272,412; 8205,235;74,35223
1004,67; 6108,488;  226,719; 8094,235;74,76019
1005,22; 6010,412;  217,796; 7967,081;74,75032
1005,76; 5925,873;  217,335; 7848,235;74,80819
1006,31; 5935,796;  247,642; 7815,850;75,15853
1006,86; 5842,104;  222,104; 7678,850;75,36799
1007,40; 5734,950;  210,950; 7571,850;75,04517
1007,95; 5722,335;  236,873; 7480,158;75,73169
1008,50; 5638,642;  231,642; 7337,388;76,09335
1009,04; 5568,719;  219,950; 7249,004;76,09515
1009,59; 5528,027;  240,412; 7142,312;76,61101
1010,14; 5447,258;  216,335; 7033,312;76,73377
1010,68; 5374,642;  229,565; 6973,773;76,28883
1011,23; 5301,642;  224,950; 6797,542;77,24033
1011,78; 5278,335;  234,181; 6780,465;77,05369
1012,32; 5212,565;  247,565; 6639,465;77,67643
1012,87; 5245,950;  253,412; 6621,081;78,40449
1013,42; 5106,412;  218,258; 6484,004;78,01391
1013,96; 5125,796;  258,488; 6507,081;77,89447
1014,51; 5061,796;  198,335; 6424,619;78,11178
1015,06; 5088,335;  204,335; 6429,158;78,46006
1015,60; 5140,181;  268,565; 6443,619;78,89187
1016,15; 5136,719;  224,104; 6407,542;79,44795
1016,69; 5154,412;  233,950; 6431,158;79,39804
1017,24; 5117,335;  205,258; 6454,927;78,59739
1017,79; 5224,719;  251,796; 6551,081;78,94425
1018,33; 5210,181;  218,412; 6526,158;79,13713
1018,88; 5219,027;  242,258; 6598,927;78,29209
1019,42; 5257,488;  229,412; 6609,388;78,81027
1019,97; 5269,565;  209,642; 6586,388;79,34961
1020,51; 5325,719;  243,335; 6614,927;79,76632
1021,06; 5309,565;  199,258; 6623,081;79,55244
1021,61; 5309,181;  204,258; 6566,081;80,24308
1022,15; 5260,719;  180,027; 6530,927;79,99956
1022,70; 5260,335;  223,873; 6544,388;79,68435
1023,24; 5211,104;  217,104; 6506,696;79,40101
1023,79; 5208,104;  214,873; 6440,312;80,20689
1024,33; 5163,873;  219,642; 6432,696;79,57811
1024,88; 5106,873;  224,565; 6301,158;80,34615
1025,42; 5023,719;  216,335; 6201,773;80,31800
1025,97; 4975,796;  219,027; 6159,696;80,07127
1026,51; 4895,642;  185,488; 6011,927;80,84105
1027,06; 4834,181;  206,488; 5991,850;79,98968
1027,60; 4802,027;  239,258; 5887,235;80,78590
1028,15; 4766,412;  245,873; 5774,696;81,76312
1028,69; 4657,104;  198,950; 5671,004;81,47131
1029,24; 4622,796;  217,104; 5593,542;81,94444
1029,78; 4527,181;  215,181; 5512,696;81,39665
1030,33; 4443,565;  196,565; 5423,542;81,25155
1030,87; 4436,104;  222,642; 5339,312;82,34774
1031,42; 4339,181;  202,181; 5270,850;81,61906
1031,96; 4312,873;  233,488; 5172,465;82,59574
1032,51; 4219,258;  211,796; 5112,696;81,76991
1033,05; 4233,412;  216,104; 5063,465;82,87617
1033,60; 4103,719;  191,950; 4923,927;82,66670
1034,14; 4083,412;  213,565; 4874,388;83,02924
1034,69; 4014,719;  219,642; 4796,312;82,92225
1035,23; 3991,565;  208,796; 4739,927;83,48400
1035,77; 3915,181;  201,412; 4670,388;83,10111
1036,32; 3842,104;  190,950; 4605,312;82,71080
1036,86; 3850,642;  214,335; 4557,312;83,72846
1037,41; 3813,104;  225,104; 4481,542;84,29583
1037,95; 3725,719;  194,104; 4382,773;84,31354
1038,50; 3716,412;  206,412; 4372,696;84,24772
1039,04; 3637,335;  233,027; 4333,235;83,02769
1039,58; 3574,027;  196,488; 4222,388;83,89524
1040,13; 3537,335;  218,181; 4185,004;83,67285
1040,67; 3554,565;  237,488; 4167,081;84,41275
1041,21; 3478,258;  238,565; 4070,696;84,54023
1041,76; 3405,950;  199,104; 4016,850;83,99841
1042,30; 3361,027;  215,104; 3950,158;84,22698
1042,85; 3305,719;  217,335; 3897,235;83,92578
1043,39; 3297,335;  207,258; 3822,235;85,47985
1043,93; 3268,181;  223,335; 3783,773;85,51885
1044,48; 3209,565;  223,412; 3736,850;84,99235
1045,02; 3151,258;  213,104; 3690,850;84,48443
1045,56; 3164,027;  232,719; 3675,850;85,13495
1046,11; 3110,565;  220,642; 3615,004;85,13893
1046,65; 3074,027;  229,488; 3556,773;85,49129
1047,19; 3020,719;  207,104; 3511,465;85,14853
1047,74; 2954,796;  197,950; 3420,388;85,55155
1048,28; 2923,796;  220,181; 3400,927;84,99941
1048,82; 2940,719;  238,719; 3362,388;86,50084
1049,37; 2874,796;  228,412; 3294,004;86,32539
1049,91; 2844,950;  230,796; 3252,158;86,52238
1050,45; 2827,258;  233,258; 3229,158;86,58500
1050,99; 2756,950;  216,642; 3161,927;86,24999
1051,54; 2724,258;  208,796; 3103,696;86,89286
1052,08; 2701,796;  250,796; 3090,235;86,31988
1052,62; 2680,565;  236,719; 3048,696;86,90847
1053,16; 2629,565;  217,412; 2967,004;87,72769
1053,71; 2592,412;  230,565; 2937,465;87,25280
1054,25; 2562,104;  241,719; 2895,773;87,42794
1054,79; 2517,412;  231,642; 2873,235;86,52998
1055,33; 2449,488;  195,488; 2796,696;86,65206
1055,88; 2458,796;  231,412; 2778,312;87,45473
1056,42; 2456,873;  245,873; 2757,388;88,03450
1056,96; 2406,950;  238,565; 2705,158;87,91013
1057,50; 2381,181;  224,104; 2676,312;87,96469
1058,05; 2318,027;  221,335; 2629,773;87,05609
1058,59; 2313,335;  247,565; 2595,850;87,96929
1059,13; 2241,565;  206,181; 2532,158;87,50666
1059,67; 2251,873;  224,642; 2534,235;87,77440
1060,21; 2209,258;  218,796; 2464,235;88,64467
1060,76; 2192,873;  229,565; 2448,081;88,49647
1061,30; 2177,950;  248,565; 2444,773;87,85074
1061,84; 2133,104;  229,796; 2349,312;89,79919
1062,38; 2068,950;  218,335; 2286,542;89,47918
1062,92; 2096,719;  266,488; 2345,081;88,05145
1063,46; 2058,488;  247,181; 2274,388;89,34988
1064,01; 2021,104;  224,412; 2233,927;89,40923
1064,55; 2011,565;  231,565; 2217,773;89,61802
1065,09; 1949,873;  204,565; 2145,388;89,92616
1065,63; 1974,873;  253,719; 2166,388;89,98701
1066,17; 1953,181;  262,796; 2143,465;89,88208
1066,71; 1919,950;  247,258; 2125,388;89,06155
1067,25; 1855,950;  241,950; 2079,927;87,81394
1067,80; 1857,412;  256,873; 2061,696;88,68118
1068,34; 1857,258;  258,950; 2065,619;88,46709
1068,88; 1791,719;  225,181; 1990,696;88,72981
1069,42; 1811,873;  252,488; 2018,696;88,28999
1069,96; 1754,796;  234,642; 1949,081;88,66774
1070,50; 1776,488;  276,488; 1963,081;88,93673
1071,04; 1701,258;  220,950; 1888,696;88,76097
1071,58; 1694,258;  232,796; 1878,081;88,82728
1072,12; 1679,873;  233,796; 1855,081;89,19328
1072,66; 1663,873;  227,181; 1840,158;89,07085
1073,21; 1658,335;  243,104; 1838,004;88,73477
1073,75; 1638,565;  238,488; 1792,850;90,07408
1074,29; 1623,873;  245,950; 1790,388;89,21839
1074,83; 1608,258;  250,642; 1768,542;89,44037
1075,37; 1604,104;  255,796; 1760,542;89,60366
1075,91; 1563,950;  255,873; 1747,312;87,70573
1076,45; 1546,796;  236,565; 1700,004;89,53098
1076,99; 1535,335;  245,488; 1654,004;91,57487
1077,53; 1520,027;  229,104; 1627,004;92,34731
1078,07; 1499,412;  242,258; 1641,927;89,81792
1078,61; 1482,335;  237,412; 1612,081;90,56165
1079,15; 1454,565;  235,719; 1601,004;89,27414
1079,69; 1456,488;  236,796; 1561,235;92,09128
1080,23; 1462,488;  253,335; 1567,850;91,98476
1080,77; 1463,719;  284,719; 1574,388;91,41879
1081,31; 1409,027;  219,565; 1499,235;92,95070
1081,85; 1409,027;  250,719; 1528,004;90,68517
1082,39; 1372,719;  228,027; 1476,927;91,65604
1082,93; 1372,412;  249,950; 1489,312;90,56772
1083,47; 1327,873;  228,565; 1438,773;90,83628
1084,01; 1341,796;  246,027; 1466,388;89,79054
1084,55; 1320,258;  235,258; 1420,004;91,58080
1085,09; 1310,181;  247,950; 1420,004;90,62986
1085,63; 1289,719;  254,335; 1380,158;91,96690
1086,17; 1285,181;  224,719; 1372,158;92,41991
1086,71; 1239,104;  229,796; 1356,773;89,55886
1087,24; 1282,412;  266,642; 1373,927;91,73515
1087,78; 1243,412;  249,258; 1344,235;90,79222
1088,32; 1227,873;  234,488; 1302,312;93,02895
1088,86; 1216,104;  255,027; 1325,696;89,76413
1089,40; 1192,796;  239,335; 1279,004;91,70816
1089,94; 1166,258;  223,027; 1243,081;92,46872
1090,48; 1155,565;  243,258; 1242,312;91,31717
1091,02; 1163,258;  254,258; 1254,081;90,91609
1091,56; 1138,873;  240,642; 1240,312;89,85280
1092,10; 1123,796;  213,412; 1184,927;93,70769
1092,63; 1156,950;  259,258; 1217,465;93,68452
1093,17; 1130,027;  244,719; 1203,004;92,38463
1093,71; 1090,642;  229,488; 1160,235;92,52296
1094,25; 1115,719;  264,950; 1180,158;92,95914
1094,79; 1079,027;  240,488; 1147,542;92,44638
1095,33; 1050,642;  247,796; 1127,312;91,28279
1095,87; 1038,565;  240,412; 1124,619;90,26769
1096,40; 1011,950;  216,950; 1088,619;91,20432
1096,94; 1030,565;  242,104; 1091,927;92,77949
1097,48; 1030,642;  251,181; 1084,465;93,54085
1098,02;  998,719;  236,181; 1071,927;91,24044
1098,56;  964,873;  208,104; 1018,388;93,39548
1099,10;  953,719;  220,719; 1013,850;92,41856
1099,63;  944,642;  216,642; 1022,465;90,34241
1100,17;  957,796;  235,565; 1028,696;91,06074
1100,71;  956,104;  259,719; 1034,465;89,88552

