
Integration time [ms]: 120,000
Averaging Nr. [scans]: 13
Smoothing Nr. [pixels]: 0
Data measured with spectrometer [name]: 2009305U1
Wave   ;Sample   ;Dark     ;Reference;Reflectance
[nm]   ;[counts] ;[counts] ;[counts] ;[%]

 175,72;  201,076;  198,725;  209,729;21,36887
 176,32;  226,234;  233,791;  221,495; 0,00000
 176,92;  253,254;  251,952;  246,144; 0,00000
 177,52;  248,761;  249,569;  261,381;-6,83534
 178,12;  241,883;  210,945;  220,620;319,76487
 178,72;  262,239;  248,635;  250,038;969,38791
 179,32;  254,070;  255,406;  241,911; 0,00000
 179,92;  248,729;  255,641;  248,129; 0,00000
 180,52;  240,678;  233,115;  240,492;102,51845
 181,12;  250,393;  249,103;  245,056; 0,00000
 181,73;  277,415;  265,873;  272,598;171,61996
 182,33;  339,984;  349,879;  341,303; 0,00000
 182,93;  273,259;  259,492;  262,580;445,74248
 183,53;  238,728;  241,402;  230,123; 0,00000
 184,13;  236,132;  231,942;  223,284; 0,00000
 184,73;  267,980;  262,785;  270,840;64,48813
 185,33;  250,529;  235,800;  340,235;14,10274
 185,93;  258,525;  233,331;  341,231;23,34887
 186,53;  278,482;  252,412;  358,480;24,57824
 187,13;  310,647;  259,651;  408,456;34,27052
 187,73;  267,356;  235,102;  356,651;26,53602
 188,33;  265,358;  242,097;  355,217;20,56324
 188,93;  277,103;  252,084;  372,324;20,80746
 189,53;  273,726;  250,458;  375,462;18,61378
 190,13;  308,956;  288,441;  393,447;19,53690
 190,73;  251,713;  221,607;  354,699;22,62059
 191,34;  292,725;  261,772;  383,107;25,50985
 191,94;  262,731;  243,170;  355,212;17,45920
 192,54;  279,689;  244,657;  378,976;26,08075
 193,14;  284,435;  261,650;  386,945;18,18505
 193,74;  280,580;  256,803;  371,292;20,76785
 194,34;  261,787;  254,345;  379,723; 5,93558
 194,94;  244,164;  215,650;  345,606;21,94123
 195,54;  229,245;  198,339;  325,621;24,28128
 196,14;  237,118;  226,731;  350,792; 8,37209
 196,74;  248,817;  216,030;  338,690;26,73006
 197,34;  227,645;  203,967;  338,400;17,61349
 197,94;  263,862;  224,267;  375,503;26,18089
 198,54;  256,569;  232,346;  384,669;15,90218
 199,14;  241,326;  223,046;  367,104;12,68882
 199,74;  229,443;  202,354;  368,520;16,30220
 200,34;  223,187;  194,509;  366,971;16,62871
 200,94;  258,840;  234,889;  406,748;13,93671
 201,54;  239,875;  216,814;  407,160;12,11520
 202,14;  272,399;  240,665;  454,320;14,85274
 202,74;  248,332;  228,200;  447,857; 9,16514
 203,34;  227,723;  181,976;  463,089;16,27333
 203,94;  204,985;  166,204;  459,631;13,21660
 204,54;  277,034;  236,729;  542,983;13,16051
 205,14;  230,162;  194,585;  536,212;10,41395
 205,74;  270,796;  237,668;  639,180; 8,25068
 206,34;  240,887;  204,050;  630,780; 8,63239
 206,94;  256,333;  210,433;  685,452; 9,66270
 207,54;  227,160;  177,588;  721,425; 9,11533
 208,14;  255,433;  208,358;  795,906; 8,01211
 208,74;  259,435;  208,200;  848,241; 8,00502
 209,34;  252,544;  207,355;  912,599; 6,40762
 209,94;  268,145;  216,431; 1015,259; 6,47376
 210,54;  267,843;  207,205; 1109,050; 6,72376
 211,14;  286,834;  214,662; 1195,427; 7,35876
 211,73;  287,088;  208,506; 1299,988; 7,19957
 212,33;  306,877;  222,812; 1397,255; 7,15787
 212,93;  288,816;  208,738; 1479,640; 6,30088
 213,53;  281,014;  184,046; 1538,349; 7,15999
 214,13;  300,460;  193,748; 1630,932; 7,42507
 214,73;  284,706;  179,434; 1625,550; 7,27964
 215,33;  286,838;  163,585; 1674,567; 8,15712
 215,93;  311,079;  208,899; 1774,717; 6,52570
 216,53;  281,802;  168,430; 1832,838; 6,81155
 217,13;  339,643;  229,436; 2022,497; 6,14628
 217,73;  337,699;  197,822; 2208,241; 6,95758
 218,33;  309,184;  156,057; 2364,675; 6,93318
 218,93;  368,520;  181,834; 2630,757; 7,62318
 219,53;  383,840;  180,903; 2889,476; 7,49239
 220,13;  391,151;  168,059; 3125,529; 7,54334
 220,73;  442,611;  190,893; 3430,322; 7,77044
 221,32;  487,051;  184,508; 3811,856; 8,34061
 221,92;  524,558;  193,366; 4182,543; 8,30227
 222,52;  513,425;  172,284; 4562,289; 7,77086
 223,12;  572,162;  184,900; 4945,153; 8,13532
 223,72;  620,510;  200,285; 5311,646; 8,22140
 224,32;  655,574;  192,747; 5676,679; 8,43970
 224,92;  651,246;  183,362; 5950,894; 8,11239
 225,52;  726,142;  207,356; 6276,099; 8,54849
 226,12;  742,285;  187,051; 6571,650; 8,69645
 226,72;  760,210;  160,666; 6841,878; 8,97358
 227,31;  781,959;  156,666; 7219,939; 8,85273
 227,91;  861,623;  190,894; 7541,280; 9,12508
 228,51;  911,888;  186,812; 7911,520; 9,38645
 229,11;  962,945;  181,820; 8271,138; 9,65626
 229,71;  982,063;  176,122; 8541,977; 9,63369
 230,31; 1018,711;  169,748; 8933,640; 9,68705
 230,91; 1065,309;  158,502; 9183,125;10,04814
 231,51; 1115,217;  167,360; 9538,918;10,11418
 232,10; 1185,820;  169,980; 9825,075;10,52128
 232,70; 1221,633;  177,422;10037,261;10,59055
 233,30; 1279,343;  204,206;10330,930;10,61683
 233,90; 1341,630;  173,898;10431,145;11,38446
 234,50; 1369,361;  173,514;10561,102;11,51226
 235,10; 1422,323;  170,439;10679,048;11,91294
 235,70; 1451,572;  196,355;10707,048;11,94228
 236,29; 1503,883;  189,507;10660,055;12,55307
 236,89; 1490,537;  164,349;10563,896;12,75236
 237,49; 1566,428;  187,436;10546,988;13,31131
 238,09; 1549,348;  169,434;10299,934;13,62138
 238,69; 1595,773;  199,577;10085,824;14,12261
 239,29; 1556,992;  173,126; 9816,008;14,35117
 239,89; 1567,634;  193,964; 9557,989;14,66965
 240,48; 1536,559;  169,819; 9189,380;15,15307
 241,08; 1504,082;  173,895; 8870,359;15,29572
 241,68; 1531,978;  202,973; 8542,428;15,93635
 242,28; 1490,232;  173,206; 8296,267;16,21342
 242,88; 1518,808;  210,364; 8015,271;16,76438
 243,48; 1497,388;  214,359; 7813,649;16,88354
 244,07; 1472,448;  190,279; 7524,495;17,48203
 244,67; 1440,437;  193,589; 7335,200;17,45892
 245,27; 1459,857;  198,121; 7224,988;17,95588
 245,87; 1470,452;  202,978; 7137,422;18,27795
 246,47; 1469,339;  186,737; 7152,619;18,41263
 247,06; 1450,751;  178,433; 7115,577;18,34066
 247,66; 1448,259;  190,742; 7171,967;18,01283
 248,26; 1515,146;  211,199; 7383,422;18,18052
 248,86; 1533,651;  187,583; 7554,528;18,27172
 249,46; 1545,715;  151,745; 7751,040;18,34341
 250,05; 1640,555;  205,203; 8059,625;18,27444
 250,65; 1660,040;  156,351; 8391,138;18,26020
 251,25; 1723,473;  175,510; 8846,420;17,85237
 251,85; 1809,450;  188,657; 9377,235;17,63922
 252,44; 1858,338;  152,046;10031,610;17,27093
 253,04; 2007,149;  201,662;10746,245;17,12241
 253,64; 2041,520;  153,197;11314,012;16,91922
 254,24; 2199,207;  191,741;12220,363;16,68907
 254,84; 2313,100;  166,745;13137,194;16,54804
 255,43; 2454,583;  180,354;13986,565;16,47251
 256,03; 2574,718;  179,120;14914,490;16,25747
 256,63; 2727,517;  182,657;15992,265;16,09692
 257,23; 2830,762;  178,195;16766,067;15,99100
 257,82; 2986,859;  187,423;17744,651;15,94464
 258,42; 3047,497;  152,113;18540,057;15,74610
 259,02; 3190,483;  195,508;19439,475;15,56319
 259,62; 3254,810;  174,574;20014,745;15,52525
 260,21; 3355,733;  187,584;20539,271;15,56701
 260,81; 3432,204;  174,128;20993,664;15,64913
 261,41; 3407,754;  166,037;21535,894;15,16958
 262,01; 3510,319;  206,264;21932,846;15,20743
 262,60; 3511,146;  161,657;22263,375;15,15488
 263,20; 3580,653;  174,198;22619,064;15,17699
 263,80; 3633,730;  197,880;22817,691;15,18956
 264,40; 3642,905;  155,342;23010,849;15,25918
 264,99; 3694,147;  195,802;23187,520;15,21567
 265,59; 3673,984;  168,336;23290,435;15,16146
 266,19; 3683,386;  175,572;23408,876;15,09821
 266,78; 3733,916;  207,185;23564,540;15,09902
 267,38; 3742,595;  185,875;23535,671;15,23234
 267,98; 3749,842;  178,493;23588,757;15,25549
 268,58; 3752,113;  189,029;23610,424;15,21295
 269,17; 3756,571;  178,179;23588,237;15,28570
 269,77; 3739,481;  192,578;23479,767;15,23113
 270,37; 3713,404;  161,110;23253,673;15,38285
 270,96; 3730,695;  219,115;23179,220;15,29427
 271,56; 3678,266;  181,041;22949,788;15,35976
 272,16; 3679,566;  181,652;22839,153;15,43821
 272,75; 3680,888;  179,345;22647,263;15,58463
 273,35; 3708,595;  185,962;22752,668;15,60987
 273,95; 3706,082;  182,345;22634,525;15,69441
 274,54; 3689,504;  162,280;22661,239;15,67728
 275,14; 3808,820;  199,500;23009,838;15,82317
 275,74; 3775,750;  157,729;22979,523;15,85336
 276,33; 3910,451;  206,040;23339,167;16,01345
 276,93; 4010,807;  185,666;23789,475;16,20561
 277,53; 4087,616;  184,200;24196,394;16,25597
 278,12; 4189,779;  159,196;24656,393;16,45324
 278,72; 4344,869;  210,968;25209,099;16,53684
 279,32; 4419,199;  177,353;25795,343;16,55808
 279,91; 4560,281;  173,275;26468,338;16,68376
 280,51; 4757,302;  180,661;27006,795;17,06038
 281,11; 4925,491;  181,582;27679,169;17,25209
 281,70; 5054,560;  155,889;28143,812;17,50280
 282,30; 5211,651;  175,887;28664,557;17,67637
 282,90; 5388,466;  184,733;29140,880;17,97108
 283,49; 5567,790;  191,654;29639,315;18,25658
 284,09; 5776,767;  209,735;30013,118;18,67919
 284,69; 5890,898;  208,352;30383,634;18,83179
 285,28; 6099,496;  198,581;30659,164;19,37230
 285,88; 6261,766;  234,268;31004,553;19,58870
 286,47; 6396,349;  178,656;30948,156;20,20732
 287,07; 6559,466;  220,122;30971,081;20,61511
 287,67; 6773,003;  205,282;31249,572;21,15597
 288,26; 6934,406;  173,583;31154,111;21,82281
 288,86; 7196,797;  177,427;31163,873;22,65303
 289,46; 7448,669;  194,890;31354,786;23,27921
 290,05; 7755,124;  176,971;31383,773;24,28366
 290,65; 8062,418;  191,425;31591,261;25,06699
 291,24; 8456,377;  197,814;31745,730;26,17784
 291,84; 8713,671;  198,734;31851,188;26,90135
 292,44; 9024,088;  193,513;31994,544;27,76820
 293,03; 9368,982;  249,968;32153,222;28,58334
 293,63; 9663,215;  186,964;32285,480;29,52240
 294,22; 9917,732;  208,736;32427,446;30,13465
 294,82;10142,284;  179,111;32457,635;30,86626
 295,41;10259,714;  168,197;32179,428;31,52493
 296,01;10448,297;  220,882;32137,119;32,04455
 296,61;10538,557;  209,660;31938,498;32,55366
 297,20;10545,121;  198,652;31498,260;33,05622
 297,80;10682,802;  189,818;31371,885;33,65070
 298,39;10621,681;  168,349;31012,542;33,89076
 298,99;10709,561;  196,577;30953,082;34,18134
 299,58;10704,627;  210,666;30637,168;34,48954
 300,18;10739,292;  218,664;30536,651;34,70095
 300,78;10682,834;  187,969;30175,812;34,99706
 301,37;10701,761;  210,801;30210,608;34,97009
 301,97;10779,649;  192,736;30210,385;35,26896
 302,56;10799,699;  180,117;30097,031;35,49692
 303,16;10776,925;  178,501;30021,826;35,51355
 303,75;10724,815;  188,816;30056,938;35,27506
 304,35;10860,111;  181,592;30296,229;35,45956
 304,94;10873,797;  192,275;30223,710;35,56780
 305,54;10845,820;  202,738;30212,702;35,46516
 306,13;10760,202;  162,515;30220,877;35,25703
 306,73;10692,288;  171,667;29981,020;35,29302
 307,33;10676,902;  197,897;30003,878;35,15739
 307,92;10686,541;  200,276;30009,930;35,17741
 308,52;10778,834;  164,039;30460,332;35,03661
 309,11;10923,386;  184,805;30865,317;35,00131
 309,71;10987,713;  165,957;31097,892;34,98571
 310,30;11030,912;  168,199;31341,744;34,84593
 310,90;11167,527;  214,660;31732,359;34,75148
 311,49;11165,647;  187,198;31844,388;34,67916
 312,09;11182,774;  150,125;31981,436;34,65974
 312,68;11280,783;  221,508;32445,118;34,32041
 313,28;11273,695;  164,968;32508,776;34,34576
 313,87;11286,985;  155,737;32612,835;34,29526
 314,47;11283,208;  179,883;32880,460;33,95452
 315,06;11281,130;  164,892;33020,392;33,83372
 315,66;11331,005;  163,895;33161,590;33,84209
 316,25;11232,267;  153,271;33134,720;33,59160
 316,85;11112,901;  150,895;33146,514;33,22261
 317,44;11112,795;  168,882;33320,627;33,01157
 318,04;11021,640;  157,041;33358,819;32,72294
 318,63;10941,529;  156,129;33413,451;32,43015
 319,22;10907,368;  181,886;33687,260;32,01123
 319,82;10890,435;  176,965;33726,732;31,93307
 320,41;10768,305;  188,887;33581,370;31,68203
 321,01;10765,238;  194,740;33730,664;31,51992
 321,60;10626,044;  183,350;33856,364;31,01206
 322,20;10468,996;  167,276;33758,639;30,66776
 322,79;10463,063;  207,430;33929,362;30,41235
 323,39;10408,719;  173,438;34018,334;30,24173
 323,98;10258,435;  164,200;33942,472;29,88381
 324,58;10182,613;  173,116;33789,917;29,77528
 325,17;10082,732;  185,502;33722,475;29,51140
 325,76; 9930,078;  194,121;33481,634;29,24807
 326,36; 9740,054;  166,894;33169,218;29,00753
 326,95; 9549,674;  201,197;32821,858;28,65815
 327,55; 9351,990;  172,273;32580,839;28,32497
 328,14; 9205,318;  161,050;32147,564;28,27525
 328,74; 9015,044;  198,502;31792,923;27,90538
 329,33; 8856,685;  195,278;31370,401;27,78307
 329,92; 8592,996;  154,959;30887,103;27,45671
 330,52; 8388,880;  189,204;30203,412;27,31932
 331,11; 8165,055;  187,197;29806,103;26,93502
 331,71; 7940,588;  178,967;29282,569;26,66894
 332,30; 7757,950;  195,506;28842,479;26,39876
 332,89; 7611,574;  236,124;28405,815;26,18222
 333,49; 7384,299;  194,351;27811,673;26,03420
 334,08; 7216,288;  177,196;27493,100;25,76921
 334,68; 7003,779;  192,581;27000,316;25,40759
 335,27; 6903,277;  191,512;26650,986;25,36621
 335,86; 6746,055;  222,889;26456,564;24,86562
 336,46; 6604,194;  194,436;26199,541;24,64808
 337,05; 6522,419;  176,966;26018,241;24,55550
 337,65; 6411,559;  160,811;25875,670;24,30792
 338,24; 6344,482;  224,123;25891,948;23,84448
 338,83; 6282,927;  200,738;25754,918;23,80115
 339,43; 6211,491;  173,348;25758,583;23,60011
 340,02; 6128,253;  175,578;25570,534;23,44038
 340,61; 6056,735;  177,122;25648,038;23,08363
 341,21; 5978,659;  210,963;25690,769;22,63634
 341,80; 5968,575;  189,657;25615,084;22,72889
 342,40; 5895,787;  180,589;25697,459;22,39773
 342,99; 5876,190;  179,355;25775,661;22,25647
 343,58; 5881,378;  181,355;25977,863;22,09610
 344,18; 5898,124;  197,971;26092,927;22,01260
 344,77; 5858,453;  165,732;26394,318;21,70426
 345,36; 5833,828;  166,658;26652,242;21,39718
 345,96; 5895,013;  207,432;26959,571;21,26029
 346,55; 5877,020;  170,207;27168,889;21,13738
 347,14; 5904,279;  163,435;27487,598;21,01014
 347,74; 5940,554;  144,827;27869,864;20,90431
 348,33; 6027,957;  178,596;28420,892;20,71135
 348,92; 6118,579;  181,599;29109,307;20,52351
 349,52; 6161,462;  159,597;29486,131;20,46565
 350,11; 6165,783;  177,654;29780,485;20,22823
 350,70; 6163,628;  172,122;29801,438;20,22155
 351,29; 6050,741;  170,031;29587,678;19,99042
 351,89; 6026,607;  198,574;29521,502;19,87534
 352,48; 5978,059;  154,891;29577,683;19,79135
 353,07; 5929,260;  190,436;29611,494;19,50584
 353,67; 5934,336;  195,061;29508,263;19,57915
 354,26; 5808,905;  186,127;29303,183;19,31094
 354,85; 5740,855;  183,049;29206,884;19,14911
 355,45; 5651,193;  160,580;28976,851;19,05386
 356,04; 5633,699;  177,667;28863,558;19,01992
 356,63; 5560,591;  201,736;28756,951;18,76664
 357,22; 5488,374;  182,033;28529,688;18,71880
 357,82; 5426,762;  178,573;28303,126;18,66052
 358,41; 5431,536;  197,198;28225,802;18,67499
 359,00; 5355,117;  169,194;28039,475;18,60736
 359,60; 5367,395;  190,200;27965,671;18,63945
 360,19; 5288,948;  189,283;27739,961;18,51013
 360,78; 5225,231;  188,811;27658,808;18,33426
 361,37; 5190,271;  176,735;27434,916;18,39278
 361,97; 5157,030;  189,428;27383,861;18,26698
 362,56; 5050,656;  173,116;27056,561;18,14329
 363,15; 5057,294;  215,273;26861,468;18,17153
 363,74; 4948,489;  191,806;26488,153;18,08876
 364,34; 4895,451;  201,425;26092,628;18,12981
 364,93; 4771,428;  181,423;25766,867;17,93991
 365,52; 4701,747;  158,350;25396,410;18,00216
 366,11; 4675,819;  179,348;25099,599;18,04344
 366,71; 4603,368;  171,271;24664,030;18,09554
 367,30; 4563,577;  181,274;24351,150;18,13126
 367,89; 4578,650;  218,356;24117,806;18,24433
 368,48; 4456,954;  193,114;23831,370;18,03788
 369,07; 4385,705;  180,045;23481,745;18,04872
 369,67; 4342,444;  211,038;23145,589;18,01390
 370,26; 4272,940;  176,584;22904,962;18,02309
 370,85; 4229,506;  189,581;22579,595;18,04342
 371,44; 4232,508;  185,197;22472,583;18,15965
 372,03; 4179,538;  164,425;22167,136;18,24827
 372,63; 4106,878;  157,812;21893,705;18,16841
 373,22; 4100,363;  178,276;21618,236;18,29335
 373,81; 4049,727;  160,581;21348,164;18,35578
 374,40; 4021,482;  189,357;21109,918;18,31750
 374,99; 3986,782;  173,119;20805,236;18,48411
 375,59; 3938,351;  172,818;20548,239;18,48076
 376,18; 3996,411;  201,657;20421,884;18,76712
 376,77; 3950,321;  195,044;20284,216;18,69304
 377,36; 3948,322;  210,812;20218,225;18,68063
 377,95; 3930,910;  197,579;19936,400;18,91365
 378,55; 3908,392;  170,740;19722,664;19,11654
 379,14; 3948,466;  197,196;19652,640;19,28133
 379,73; 3941,837;  190,195;19586,848;19,34170
 380,32; 3989,655;  193,428;19698,446;19,46282
 380,91; 3973,065;  180,730;19479,572;19,65059
 381,50; 3960,927;  201,731;19462,208;19,51767
 382,10; 3990,732;  173,582;19341,830;19,91392
 382,69; 4018,666;  153,196;19281,655;20,20795
 383,28; 4026,417;  205,655;19266,811;20,04475
 383,87; 4050,935;  175,116;19108,719;20,47058
 384,46; 4072,699;  165,112;19057,158;20,68377
 385,05; 4142,532;  219,270;19032,316;20,85395
 385,64; 4120,435;  181,194;19079,829;20,84405
 386,24; 4142,003;  165,265;19008,018;21,10486
 386,83; 4227,657;  200,649;19082,215;21,32772
 387,42; 4302,131;  206,964;19161,969;21,60467
 388,01; 4372,198;  193,645;19331,088;21,83444
 388,60; 4469,506;  194,266;19613,654;22,01532
 389,19; 4549,288;  170,485;19711,863;22,40785
 389,78; 4626,190;  180,564;20001,915;22,42847
 390,37; 4858,751;  238,340;20408,716;22,90692
 390,96; 4880,932;  193,188;20570,771;23,00442
 391,56; 4991,850;  191,407;20731,732;23,37082
 392,15; 5096,780;  188,103;21012,597;23,57165
 392,74; 5159,963;  164,630;21139,528;23,81577
 393,33; 5308,407;  186,714;21382,297;24,16396
 393,92; 5454,307;  192,780;21783,988;24,36884
 394,51; 5566,644;  170,175;21988,050;24,73416
 395,10; 5685,230;  212,461;22189,538;24,90217
 395,69; 5765,849;  206,155;22317,361;25,14423
 396,28; 5864,484;  205,150;22429,043;25,46509
 396,87; 5923,516;  208,293;22506,720;25,63061
 397,46; 6033,708;  212,979;22584,582;26,01838
 398,06; 6144,819;  224,355;22908,699;26,09934
 398,65; 6232,239;  211,721;22862,365;26,57990
 399,24; 6354,701;  227,025;23077,241;26,81671
 399,83; 6401,259;  208,688;23078,877;27,07704
 400,42; 6584,476;  248,124;23183,898;27,62650
 401,01; 6595,285;  221,325;23296,255;27,62288
 401,60; 6705,916;  244,208;23371,456;27,93981
 402,19; 6802,965;  257,022;23296,956;28,41129
 402,78; 6878,697;  257,588;23374,469;28,64188
 403,37; 6877,434;  233,156;23158,178;28,98265
 403,96; 6957,835;  244,024;23048,728;29,44046
 404,55; 7042,699;  262,271;22963,326;29,86834
 405,14; 7027,006;  238,215;22846,319;30,02813
 405,73; 7086,522;  260,611;22788,222;30,30020
 406,32; 7203,779;  259,029;22622,115;31,05453
 406,91; 7151,486;  257,594;22411,638;31,11799
 407,50; 7185,683;  264,260;22245,873;31,48733
 408,09; 7164,565;  226,473;21951,682;31,93568
 408,68; 7203,759;  254,536;21879,207;32,13562
 409,27; 7226,760;  246,476;21712,453;32,51789
 409,86; 7257,096;  256,439;21553,202;32,87193
 410,45; 7340,217;  293,934;21550,876;33,14815
 411,04; 7377,945;  292,352;21485,723;33,43306
 411,63; 7326,270;  286,935;21190,695;33,67497
 412,22; 7336,762;  280,668;20981,662;34,08577
 412,81; 7376,072;  302,989;20780,234;34,54118
 413,40; 7309,754;  310,469;20416,348;34,81213
 413,99; 7289,295;  342,848;20183,307;35,01153
 414,58; 7185,603;  277,159;19746,662;35,48341
 415,17; 7210,574;  279,605;19575,189;35,91997
 415,76; 7215,358;  270,666;19419,040;36,26779
 416,35; 7219,463;  276,443;19110,200;36,86476
 416,94; 7342,307;  310,670;19268,010;37,09190
 417,53; 7520,830;  280,221;19408,256;37,85339
 418,12; 7583,138;  269,533;19521,995;37,98789
 418,71; 7764,357;  298,316;19861,765;38,16321
 419,30; 7905,839;  287,073;20065,109;38,52135
 419,89; 8026,641;  272,460;20163,447;38,98339
 420,48; 8203,100;  294,085;20362,535;39,41019
 421,07; 8348,717;  290,165;20498,503;39,87736
 421,66; 8352,800;  266,558;20466,188;40,03163
 422,25; 8397,728;  271,189;20540,583;40,09266
 422,84; 8470,560;  299,962;20440,598;40,56773
 423,43; 8412,671;  287,647;20178,320;40,84841
 424,02; 8420,904;  302,727;19996,442;41,22217
 424,60; 8306,137;  280,439;19584,206;41,57581
 425,19; 8230,594;  296,044;19327,453;41,69187
 425,78; 8279,338;  293,661;19228,750;42,17396
 426,37; 8314,227;  300,437;19061,951;42,71398
 426,96; 8299,729;  276,206;18925,136;43,02404
 427,55; 8302,678;  275,294;18888,508;43,12734
 428,14; 8315,135;  267,837;18586,022;43,93065
 428,73; 8277,296;  288,366;18469,381;43,94105
 429,32; 8353,165;  285,513;18413,992;44,50264
 429,91; 8429,668;  320,982;18460,799;44,70103
 430,50; 8370,039;  300,065;18279,640;44,88412
 431,08; 8356,468;  307,455;18121,157;45,18439
 431,67; 8411,266;  330,460;18059,181;45,58031
 432,26; 8392,436;  352,773;17866,633;45,90457
 432,85; 8293,858;  372,079;17525,688;46,18141
 433,44; 8180,483;  388,471;17227,983;46,27220
 434,03; 8059,431;  402,711;16826,982;46,61832
 434,62; 7888,404;  359,087;16459,216;46,76557
 435,21; 7855,946;  365,618;16298,030;47,01315
 435,79; 7812,421;  376,323;16109,888;47,26264
 436,38; 7858,221;  368,410;15986,717;47,95534
 436,97; 7820,749;  351,796;15943,277;47,90406
 437,56; 7730,959;  366,118;15775,296;47,79516
 438,15; 7723,852;  330,960;15658,418;48,23299
 438,74; 7789,025;  358,116;15673,578;48,51900
 439,33; 7816,259;  334,421;15641,739;48,87752
 439,91; 7860,662;  308,120;15728,245;48,97848
 440,50; 7946,537;  353,275;15720,771;49,41118
 441,09; 7986,317;  352,437;15858,362;49,23202
 441,68; 8054,728;  330,291;15871,755;49,70212
 442,27; 8081,748;  309,595;15870,416;49,94693
 442,86; 8109,045;  286,691;15851,837;50,25558
 443,44; 8161,804;  306,610;15894,282;50,39364
 444,03; 8267,685;  376,999;16005,300;50,48972
 444,62; 8214,213;  300,075;15815,177;51,00925
 445,21; 8176,915;  324,227;15685,782;51,11909
 445,80; 8149,652;  356,622;15621,797;51,05104
 446,39; 8039,331;  367,697;15356,081;51,18386
 446,97; 7940,961;  300,708;15192,640;51,30464
 447,56; 7828,802;  305,024;14946,971;51,38509
 448,15; 7788,679;  323,939;14810,409;51,52905
 448,74; 7673,895;  331,940;14558,368;51,60786
 449,33; 7603,147;  323,946;14452,718;51,52041
 449,91; 7528,998;  318,033;14243,239;51,78354
 450,50; 7422,914;  307,954;13988,738;52,00696
 451,09; 7405,852;  335,493;13900,297;52,12283
 451,68; 7394,184;  356,497;13844,731;52,17649
 452,26; 7376,751;  340,040;13735,304;52,53133
 452,85; 7304,264;  319,499;13610,323;52,55329
 453,44; 7373,071;  341,974;13683,567;52,70058
 454,03; 7317,057;  314,351;13625,594;52,60745
 454,61; 7298,708;  311,590;13609,495;52,54300
 455,20; 7411,602;  338,979;13743,391;52,76340
 455,79; 7453,768;  348,740;13741,725;53,05037
 456,38; 7493,552;  342,063;13817,793;53,06940
 456,97; 7482,340;  330,061;13863,829;52,84766
 457,55; 7517,173;  329,759;13876,516;53,05635
 458,14; 7552,250;  356,290;13890,729;53,16778
 458,73; 7480,964;  341,529;13835,213;52,90946
 459,31; 7530,608;  366,306;13850,064;53,13282
 459,90; 7590,339;  383,302;13974,214;53,02836
 460,49; 7639,047;  420,299;14008,495;53,12514
 461,08; 7636,996;  340,310;14107,021;53,00239
 461,66; 7684,506;  341,306;14143,370;53,20364
 462,25; 7741,514;  349,006;14205,437;53,35074
 462,84; 7759,864;  376,465;14250,179;53,21862
 463,43; 7687,159;  301,938;14247,046;52,95923
 464,01; 7723,825;  339,172;14309,864;52,85818
 464,60; 7730,023;  396,704;14200,171;53,12665
 465,19; 7603,615;  339,251;13997,782;53,18554
 465,77; 7519,797;  340,871;13977,125;52,64588
 466,36; 7515,862;  371,245;13839,631;53,04731
 466,95; 7321,914;  353,477;13528,774;52,89017
 467,53; 7189,669;  350,645;13289,085;52,85818
 468,12; 7078,310;  372,646;13030,152;52,97776
 468,71; 6956,119;  349,714;12788,109;53,11300
 469,29; 6787,536;  337,032;12597,465;52,61237
 469,88; 6663,736;  341,805;12287,066;52,92418
 470,47; 6716,593;  410,505;12431,822;52,45754
 471,06; 6688,396;  365,120;12397,793;52,55088
 471,64; 6716,272;  375,118;12462,030;52,46298
 472,23; 6692,937;  332,518;12524,681;52,16810
 472,81; 6705,941;  330,972;12651,188;51,74397
 473,40; 6803,941;  343,056;12714,206;52,22542
 473,99; 6935,038;  441,364;12943,375;51,94104
 474,57; 6932,830;  349,979;13036,466;51,88869
 475,16; 7033,443;  370,204;13165,595;52,07530
 475,75; 7044,202;  376,600;13294,845;51,61384
 476,33; 7061,125;  383,837;13411,872;51,25323
 476,92; 7073,997;  386,288;13452,566;51,18297
 477,51; 7077,090;  371,757;13544,460;50,90325
 478,09; 7088,516;  368,526;13511,952;51,12814
 478,68; 7074,075;  375,529;13454,486;51,21621
 479,27; 7076,533;  407,139;13495,077;50,95833
 479,85; 6967,205;  381,605;13495,561;50,21825
 480,44; 7071,146;  364,993;13660,405;50,43961
 481,02; 7714,386;  382,306;14973,490;50,25007
 481,61; 8625,616;  404,380;16859,203;49,96247
 482,20; 9229,745;  382,844;18027,106;50,14038
 482,78; 9633,536;  415,453;18824,862;50,07267
 483,37; 9916,665;  404,160;19388,819;50,10628
 483,95;10076,243;  414,546;19540,072;50,51729
 484,54;10109,979;  429,918;19769,660;50,05269
 485,13;10015,790;  405,860;19637,609;49,96909
 485,71; 9955,308;  383,088;19561,922;49,91033
 486,30; 9766,271;  414,396;19225,799;49,71386
 486,88; 9633,669;  453,937;18897,130;49,77301
 487,47; 9203,606;  439,784;18158,769;49,46006
 488,05; 8741,865;  423,480;17350,736;49,14196
 488,64; 8156,963;  419,870;16087,163;49,38372
 489,23; 7297,607;  438,174;14340,035;49,34183
 489,81; 6152,025;  428,406;12265,536;48,35310
 490,40; 5795,445;  387,177;11679,649;47,89269
 490,98; 5658,229;  377,333;11388,277;47,96043
 491,57; 5632,137;  389,405;11305,362;48,02815
 492,15; 5559,281;  379,719;11271,497;47,55480
 492,74; 5520,632;  391,249;11185,046;47,52158
 493,32; 5450,703;  401,179;11096,090;47,21428
 493,91; 5352,484;  371,029;10997,172;46,87924
 494,50; 5287,142;  396,040;10987,804;46,17835
 495,08; 5259,309;  367,578;10899,848;46,44517
 495,67; 5278,616;  393,490;10870,398;46,62756
 496,25; 5156,724;  329,188;10741,795;46,36242
 496,84; 5133,870;  352,951;10758,565;45,94557
 497,42; 5098,377;  346,344;10738,589;45,72672
 498,01; 5118,782;  371,414;10640,741;46,22862
 498,59; 5014,322;  337,653;10625,516;45,45812
 499,18; 4983,358;  341,722;10495,159;45,71492
 499,76; 4924,698;  361,958;10446,642;45,24426
 500,35; 4811,726;  344,581;10305,032;44,84882
 500,93; 4809,266;  327,267;10285,849;45,00640
 501,52; 4717,964;  332,883;10186,900;44,50043
 502,10; 4693,898;  357,201;10166,328;44,21083
 502,69; 4572,138;  332,974; 9938,653;44,13186
 503,27; 4514,176;  315,963; 9848,314;44,04174
 503,86; 4451,242;  333,818; 9763,892;43,66270
 504,44; 4389,366;  317,822; 9600,262;43,86287
 505,03; 4266,761;  297,206; 9442,846;43,40379
 505,61; 4205,577;  323,205; 9319,101;43,15715
 506,19; 4143,516;  353,052; 9155,045;43,06370
 506,78; 4048,678;  304,906; 8972,804;43,19123
 507,36; 3953,522;  317,744; 8825,028;42,73723
 507,95; 3874,012;  315,679; 8697,312;42,45393
 508,53; 3816,771;  315,444; 8551,911;42,51006
 509,12; 3725,986;  330,293; 8424,091;41,95426
 509,70; 3688,953;  337,141; 8297,561;42,10596
 510,29; 3619,080;  342,760; 8155,917;41,93337
 510,87; 3508,597;  312,906; 7973,279;41,71717
 511,46; 3413,436;  299,523; 7826,672;41,36909
 512,04; 3350,711;  312,219; 7675,583;41,26500
 512,62; 3286,553;  315,985; 7551,241;41,05685
 513,21; 3203,345;  298,068; 7394,888;40,93773
 513,79; 3150,705;  304,542; 7274,481;40,83483
 514,38; 3066,343;  278,384; 7111,677;40,79963
 514,96; 3041,525;  328,691; 7037,290;40,43817
 515,54; 2977,550;  293,309; 6884,424;40,72514
 516,13; 2925,782;  316,540; 6833,644;40,03684
 516,71; 2860,992;  308,699; 6687,051;40,01493
 517,30; 2791,953;  285,396; 6596,440;39,71700
 517,88; 2774,555;  311,780; 6533,254;39,58507
 518,46; 2706,161;  281,167; 6366,725;39,84833
 519,05; 2672,649;  310,247; 6315,772;39,33713
 519,63; 2655,615;  301,630; 6284,195;39,34743
 520,22; 2606,251;  318,330; 6201,767;38,88749
 520,80; 2556,750;  306,715; 6200,647;38,17546
 521,38; 2587,061;  338,325; 6179,452;38,49833
 521,97; 2514,392;  302,334; 6099,770;38,15580
 522,55; 2510,285;  319,257; 6071,093;38,09267
 523,13; 2462,494;  281,260; 6101,751;37,47509
 523,72; 2434,224;  296,397; 6063,462;37,06957
 524,30; 2540,373;  310,955; 6224,858;37,69791
 524,89; 2490,353;  285,719; 6213,573;37,19110
 525,47; 2522,402;  315,803; 6325,757;36,71574
 526,05; 2522,722;  278,958; 6353,561;36,93680
 526,64; 2559,077;  316,421; 6509,940;36,20971
 527,22; 2591,121;  310,033; 6629,372;36,09694
 527,80; 2660,955;  341,652; 6780,615;36,01983
 528,39; 2629,415;  301,808; 6769,289;35,98939
 528,97; 2694,694;  299,345; 6970,083;35,90830
 529,55; 2765,130;  317,491; 7159,382;35,77430
 530,14; 2804,258;  338,810; 7344,514;35,19202
 530,72; 2845,426;  298,422; 7454,499;35,59219
 531,30; 2864,450;  278,888; 7545,394;35,58192
 531,89; 2933,276;  310,657; 7640,840;35,77836
 532,47; 2957,935;  338,274; 7729,848;35,44118
 533,05; 2922,607;  343,267; 7796,815;34,60554
 533,63; 2959,977;  332,891; 7857,868;34,91155
 534,22; 2950,854;  304,506; 7869,622;34,98092
 534,80; 2983,268;  328,588; 7970,261;34,73951
 535,38; 3044,750;  410,504; 8060,182;34,43603
 535,97; 2966,996;  323,198; 8016,588;34,36454
 536,55; 3025,393;  368,974; 8064,957;34,51696
 537,13; 2993,022;  373,810; 8034,684;34,18946
 537,71; 3025,676;  417,348; 8098,650;33,95684
 538,30; 3030,138;  430,431; 8181,139;33,54154
 538,88; 3070,925;  465,362; 8229,021;33,56102
 539,46; 3120,776;  506,050; 8422,968;33,02707
 540,05; 3171,517;  525,283; 8532,797;33,04688
 540,63; 3253,203;  571,745; 8710,352;32,94738
 541,21; 3307,995;  617,364; 8894,721;32,50592
 541,79; 3328,129;  626,210; 9006,166;32,24264
 542,38; 3379,633;  656,437; 9154,071;32,04652
 542,96; 3425,136;  673,291; 9277,109;31,98400
 543,54; 3491,890;  681,055; 9495,579;31,88867
 544,12; 3495,007;  650,903; 9687,525;31,47309
 544,70; 3543,642;  649,214; 9723,665;31,89645
 545,29; 3553,376;  661,052; 9906,533;31,28365
 545,87; 3527,052;  639,902; 9891,628;31,20661
 546,45; 3513,004;  584,052; 9943,577;31,29381
 547,03; 3547,510;  577,285; 9993,574;31,54348
 547,62; 3541,829;  551,441;10139,292;31,18934
 548,20; 3593,032;  553,444;10248,429;31,35216
 548,78; 3576,526;  521,916;10419,246;30,86297
 549,36; 3576,243;  482,684;10605,949;30,55890
 549,94; 3612,520;  446,673;10779,283;30,63937
 550,53; 3650,614;  442,298;10983,233;30,43673
 551,11; 3678,389;  426,534;11153,871;30,31372
 551,69; 3793,931;  445,376;11457,040;30,40916
 552,27; 3808,439;  393,296;11683,084;30,24985
 552,85; 3909,579;  399,918;12082,685;30,04135
 553,44; 4003,342;  399,145;12322,039;30,22921
 554,02; 4058,740;  410,224;12702,216;29,68206
 554,60; 4116,109;  360,611;12983,243;29,75210
 555,18; 4206,530;  398,377;13365,010;29,36887
 555,76; 4258,673;  365,609;13720,647;29,15053
 556,34; 4409,728;  378,230;14113,353;29,35174
 556,93; 4473,324;  370,454;14482,627;29,07327
 557,51; 4549,789;  350,077;14769,016;29,12636
 558,09; 4661,370;  382,300;15199,180;28,87970
 558,67; 4719,216;  375,465;15515,784;28,68996
 559,25; 4816,537;  390,386;15819,991;28,68610
 559,83; 4865,626;  365,467;16095,458;28,60878
 560,41; 4936,365;  368,768;16443,224;28,41525
 561,00; 5022,467;  367,234;16785,108;28,35467
 561,58; 5058,033;  344,767;17004,453;28,29144
 562,16; 5129,265;  347,534;17336,702;28,14577
 562,74; 5248,309;  347,378;17721,201;28,20871
 563,32; 5306,739;  347,775;18125,965;27,89353
 563,90; 5410,688;  361,234;18462,138;27,89614
 564,48; 5520,155;  365,305;18914,710;27,78984
 565,06; 5658,429;  365,772;19433,227;27,75754
 565,65; 5858,220;  363,088;20044,403;27,92055
 566,23; 6067,651;  410,542;20815,016;27,72485
 566,81; 6189,035;  353,232;21434,806;27,68201
 567,39; 6436,728;  363,315;22300,678;27,68525
 567,97; 6603,211;  385,694;22920,733;27,59044
 568,55; 6822,812;  388,621;23740,671;27,55301
 569,13; 6948,789;  364,696;24467,832;27,31633
 569,71; 7215,379;  359,610;25327,132;27,45875
 570,29; 7446,119;  396,608;26245,011;27,27252
 570,87; 7656,721;  396,840;26985,343;27,30459
 571,45; 7774,982;  377,926;27601,029;27,17198
 572,03; 7882,954;  343,239;27961,222;27,30002
 572,61; 7996,608;  334,236;28658,824;27,05202
 573,20; 8172,408;  385,616;29390,848;26,84617
 573,78; 8328,365;  367,006;29875,934;26,97949
 574,36; 8390,068;  373,312;30441,759;26,66169
 574,94; 8519,258;  435,086;30797,227;26,62583
 575,52; 8469,855;  378,016;31008,304;26,41777
 576,10; 8694,435;  432,859;31624,738;26,48631
 576,68; 8777,770;  417,700;32064,698;26,41663
 577,26; 8911,084;  439,173;32824,747;26,15952
 577,84; 9031,584;  435,082;33311,515;26,14792
 578,42; 9078,214;  473,857;33478,651;26,07002
 579,00; 9068,759;  436,775;33635,442;26,00100
 579,58; 9113,308;  469,932;33937,228;25,82633
 580,16; 9067,179;  456,089;33933,363;25,72220
 580,74; 9114,782;  449,474;34083,319;25,76366
 581,32; 9085,146;  440,779;34167,862;25,63034
 581,90; 9045,667;  464,781;34101,747;25,51029
 582,48; 9083,881;  455,012;34282,332;25,50858
 583,06; 9005,456;  455,856;34362,937;25,21479
 583,64; 9028,776;  454,471;34531,442;25,16158
 584,22; 8968,362;  456,171;34396,463;25,07990
 584,80; 8885,582;  481,857;34079,390;25,01292
 585,38; 8708,868;  479,538;33694,321;24,77611
 585,96; 8656,494;  448,161;33857,462;24,56901
 586,54; 8625,731;  469,478;33797,750;24,47248
 587,12; 8556,536;  449,398;34103,124;24,08987
 587,70; 8650,558;  476,238;34127,726;24,29111
 588,28; 8618,573;  458,244;34244,785;24,15260
 588,86; 8571,562;  462,169;34299,191;23,96604
 589,44; 8555,010;  442,022;34369,330;23,91285
 590,02; 8549,361;  447,020;34636,214;23,69854
 590,59; 8575,527;  429,477;34723,288;23,75370
 591,17; 8533,842;  426,029;35011,854;23,44259
 591,75; 8547,824;  422,101;35141,481;23,40400
 592,33; 8566,058;  444,407;35301,180;23,30006
 592,91; 8538,598;  385,181;35532,062;23,19812
 593,49; 8615,122;  390,569;35894,385;23,16527
 594,07; 8616,226;  415,030;36051,230;23,01366
 594,65; 8610,057;  419,478;36152,307;22,92172
 595,23; 8650,059;  409,558;36498,582;22,83382
 595,81; 8628,986;  407,252;36607,944;22,71154
 596,39; 8681,876;  398,945;36722,423;22,80324
 596,97; 8625,270;  397,027;36945,738;22,51309
 597,55; 8573,829;  380,480;36785,822;22,50590
 598,12; 8547,587;  392,801;36843,285;22,37223
 598,70; 8545,546;  377,413;36958,283;22,32898
 599,28; 8505,269;  393,182;37213,576;22,03151
 599,86; 8437,138;  380,797;37142,896;21,91480
 600,44; 8430,874;  347,645;37263,443;21,89639
 601,02; 8447,952;  410,961;37241,988;21,82125
 601,60; 8414,259;  387,409;37168,790;21,82313
 602,18; 8337,927;  361,493;37299,344;21,59420
 602,75; 8315,690;  359,559;37367,219;21,49861
 603,33; 8238,289;  377,951;37360,591;21,25413
 603,91; 8262,047;  361,573;37324,497;21,37405
 604,49; 8242,380;  386,490;37421,470;21,21208
 605,07; 8177,399;  387,870;37436,834;21,02496
 605,65; 8146,855;  397,030;37586,878;20,83855
 606,23; 8203,843;  457,246;37731,038;20,78296
 606,80; 8122,747;  498,175;37784,818;20,44853
 607,38; 8137,754;  531,418;37725,308;20,45050
 607,96; 8183,850;  575,328;37784,125;20,44818
 608,54; 8133,373;  649,646;37914,093;20,08275
 609,12; 8123,700;  630,406;37903,880;20,10356
 609,70; 8081,903;  660,566;38026,295;19,86135
 610,27; 8097,207;  682,020;38081,214;19,82713
 610,85; 8089,802;  702,489;38111,217;19,74757
 611,43; 8052,767;  688,720;38030,852;19,72048
 612,01; 7924,735;  662,254;37782,215;19,56489
 612,59; 7905,508;  667,258;37907,018;19,43689
 613,16; 7869,998;  620,863;37815,017;19,48998
 613,74; 7798,704;  589,336;37665,576;19,44471
 614,32; 7799,839;  559,569;37691,925;19,49855
 614,90; 7727,117;  529,102;37567,978;19,43367
 615,48; 7608,839;  482,018;37205,946;19,40648
 616,05; 7586,160;  448,093;37231,614;19,40561
 616,63; 7477,866;  445,630;37017,359;19,22861
 617,21; 7388,197;  452,174;36928,245;19,01527
 617,79; 7345,378;  431,945;36883,378;18,96615
 618,36; 7278,686;  443,332;36837,895;18,78125
 618,94; 7185,396;  381,250;36430,579;18,87454
 619,52; 7130,386;  405,554;36255,639;18,75820
 620,10; 7015,982;  391,944;36205,497;18,49590
 620,67; 6975,281;  395,630;36085,806;18,43547
 621,25; 6962,172;  413,794;35996,666;18,40317
 621,83; 6879,175;  393,481;35913,241;18,25940
 622,41; 6886,228;  443,096;35948,624;18,14684
 622,98; 6765,123;  398,553;35616,127;18,07782
 623,56; 6739,968;  406,860;35652,446;17,96851
 624,14; 6672,456;  388,334;35464,029;17,91589
 624,72; 6592,058;  383,634;35382,209;17,73908
 625,29; 6561,844;  375,091;35419,278;17,65415
 625,87; 6587,090;  404,484;35448,009;17,64265
 626,45; 6489,280;  358,474;35305,518;17,54313
 627,02; 6443,222;  376,638;35172,688;17,43469
 627,60; 6376,054;  365,953;35208,750;17,24919
 628,18; 6393,777;  336,406;35183,034;17,38295
 628,76; 6339,111;  343,630;35152,622;17,22394
 629,33; 6331,336;  377,787;35141,849;17,12559
 629,91; 6298,597;  360,329;35171,958;17,05829
 630,49; 6301,725;  375,401;35215,998;17,00982
 631,06; 6281,031;  374,785;35425,240;16,85070
 631,64; 6204,575;  362,321;35408,705;16,67006
 632,22; 6146,310;  332,395;35337,755;16,60864
 632,79; 6214,571;  357,395;35576,586;16,63064
 633,37; 6174,411;  343,793;35634,186;16,52183
 633,95; 6158,902;  348,089;35788,117;16,39619
 634,52; 6105,546;  335,557;35793,285;16,27287
 635,10; 6115,800;  331,174;35839,663;16,29082
 635,68; 6095,704;  337,703;36062,263;16,11777
 636,25; 6022,854;  323,237;35952,922;15,99682
 636,83; 6057,418;  314,784;36204,083;16,00097
 637,41; 6023,324;  339,240;36289,950;15,81077
 637,98; 6047,511;  345,009;36452,163;15,79327
 638,56; 6034,952;  340,005;36522,485;15,73952
 639,13; 5957,955;  318,860;36600,787;15,54244
 639,71; 6027,390;  363,554;36768,087;15,55805
 640,29; 5872,935;  288,554;36497,658;15,42259
 640,86; 5928,071;  312,093;36735,158;15,41874
 641,44; 5869,668;  313,478;36666,581;15,28395
 642,02; 5847,111;  344,939;36703,158;15,13323
 642,59; 5858,862;  316,555;36858,197;15,16710
 643,17; 5794,075;  318,863;36784,774;15,01460
 643,74; 5753,826;  307,786;36875,121;14,89318
 644,32; 5772,500;  335,248;36776,006;14,92080
 644,89; 5715,021;  329,633;36777,275;14,77568
 645,47; 5708,541;  340,479;36918,852;14,67551
 646,05; 5726,369;  337,787;36779,199;14,78697
 646,62; 5616,582;  322,326;36798,930;14,51411
 647,20; 5633,256;  333,403;36934,507;14,48004
 647,77; 5509,238;  306,018;36822,392;14,24900
 648,35; 5523,835;  310,711;36681,738;14,33318
 648,92; 5499,278;  327,557;36769,469;14,19168
 649,50; 5426,722;  287,327;36593,124;14,15585
 650,08; 5375,088;  298,173;36527,470;14,01329
 650,65; 5363,685;  301,481;36760,893;13,88449
 651,23; 5445,667;  294,789;37478,009;13,85270
 651,80; 5560,187;  282,097;38426,279;13,83721
 652,38; 5624,477;  297,943;38764,010;13,84736
 652,95; 5594,843;  282,251;39119,125;13,67925
 653,53; 5594,518;  318,021;39376,395;13,50926
 654,10; 5612,192;  339,328;39472,357;13,47420
 654,68; 5553,327;  289,021;39460,626;13,43909
 655,25; 5532,925;  285,867;39602,434;13,34567
 655,83; 5471,830;  284,637;39603,857;13,19251
 656,40; 5502,658;  318,252;39534,204;13,22014
 656,98; 5428,409;  288,714;39457,089;13,12205
 657,55; 5384,390;  299,253;39281,589;13,04472
 658,13; 5291,603;  294,407;39005,397;12,90899
 658,70; 5225,893;  310,869;38751,436;12,78603
 659,28; 5069,028;  314,253;37982,782;12,62267
 659,85; 4909,626;  305,254;37119,206;12,50714
 660,43; 4917,069;  321,177;37207,629;12,45957
 661,00; 4879,051;  304,100;37314,591;12,36123
 661,58; 4885,110;  300,639;37590,860;12,29403
 662,15; 4844,938;  281,024;37801,361;12,16384
 662,73; 4923,073;  346,409;38066,938;12,13309
 663,30; 4899,209;  300,409;38285,515;12,10685
 663,88; 4846,729;  315,178;38452,169;11,88230
 664,45; 4820,942;  290,717;38705,285;11,79299
 665,03; 4882,847;  296,333;38921,093;11,87454
 665,60; 4976,982;  372,563;39514,747;11,76332
 666,17; 4919,580;  304,718;39569,709;11,75312
 666,75; 4912,408;  301,564;39834,209;11,66338
 667,32; 4911,543;  321,718;40222,863;11,50299
 667,90; 4921,064;  297,872;40553,979;11,48445
 668,47; 4952,815;  316,257;40718,941;11,47587
 669,05; 4957,643;  299,719;41088,210;11,41970
 669,62; 4893,086;  274,565;41105,710;11,31127
 670,19; 4919,760;  287,411;41229,826;11,31430
 670,77; 4903,281;  293,719;41441,249;11,20252
 671,34; 4854,493;  301,258;41367,134;11,08764
 671,92; 4866,321;  281,643;41697,327;11,06991
 672,49; 4844,226;  309,643;41711,443;10,95262
 673,06; 4824,516;  256,643;41810,404;10,99268
 673,64; 4786,959;  287,720;41795,982;10,83938
 674,21; 4750,787;  279,721;41652,251;10,80685
 674,79; 4770,154;  305,567;41889,982;10,73620
 675,36; 4793,289;  307,106;42048,405;10,74759
 675,93; 4685,425;  269,798;41923,290;10,60086
 676,51; 4732,099;  296,337;42038,791;10,62650
 677,08; 4700,081;  300,029;42205,676;10,49990
 677,65; 4708,678;  300,876;42223,945;10,51403
 678,23; 4691,506;  299,722;42528,138;10,40007
 678,80; 4662,719;  287,261;42656,253;10,32703
 679,38; 4620,316;  284,030;42765,984;10,20736
 679,95; 4649,529;  303,184;42939,100;10,19409
 680,52; 4667,126;  285,338;43307,216;10,18502
 681,10; 4672,262;  299,338;43558,870;10,10858
 681,67; 4681,243;  298,493;43842,832;10,06503
 682,24; 4641,225;  268,570;43972,563;10,00516
 682,82; 4687,899;  280,108;44494,448; 9,96914
 683,39; 4767,112;  326,186;44959,179; 9,94987
 683,96; 4694,786;  289,032;45091,371; 9,83376
 684,54; 4703,383;  276,109;45456,641; 9,79908
 685,11; 4794,134;  309,340;45702,833; 9,87982
 685,68; 4740,962;  286,186;46266,487; 9,68844
 686,25; 4715,944;  269,033;46346,142; 9,65102
 686,83; 4717,618;  281,187;46473,950; 9,60417
 687,40; 4739,062;  273,418;46719,296; 9,61473
 687,97; 4830,121;  297,110;47163,489; 9,67220
 688,55; 4712,641;  260,264;47251,297; 9,47495
 689,12; 4736,777;  244,188;47453,335; 9,51635
 689,69; 4732,758;  250,342;47563,451; 9,47394
 690,26; 4739,894;  267,880;47710,336; 9,42619
 690,84; 4724,876;  276,958;47853,298; 9,34901
 691,41; 4748,627;  288,496;48013,567; 9,34547
 691,98; 4742,917;  295,189;48194,683; 9,28554
 692,56; 4708,129;  278,881;48329,260; 9,21793
 693,13; 4745,342;  328,728;48309,991; 9,20487
 693,70; 4755,554;  300,574;48497,568; 9,24327
 694,27; 4698,306;  272,728;48602,222; 9,15709
 694,84; 4648,749;  274,344;48711,184; 9,03115
 695,42; 4722,038;  331,728;48858,454; 9,04720
 695,99; 4664,174;  292,190;49050,723; 8,96660
 696,56; 4658,848;  285,575;48886,531; 8,99833
 697,13; 4696,369;  302,960;49344,339; 8,95858
 697,71; 4663,350;  269,806;49297,147; 8,96142
 698,28; 4676,717;  279,345;49636,724; 8,90925
 698,85; 4673,622;  255,422;49652,917; 8,94418
 699,42; 4636,142;  259,884;49787,879; 8,83593
 699,99; 4705,586;  299,115;49910,456; 8,88198
 700,57; 4677,260;  294,269;50012,802; 8,81561
 701,14; 4692,318;  271,423;50102,610; 8,87174
 701,71; 4686,146;  310,808;50372,803; 8,73984
 702,28; 4637,282;  286,193;50343,765; 8,69217
 702,85; 4663,649;  287,193;50442,034; 8,72589
 703,43; 4667,015;  305,116;50729,842; 8,65032
 704,00; 4695,612;  323,270;50879,650; 8,64845
 704,57; 4669,286;  295,193;50869,381; 8,64886
 705,14; 4670,038;  320,578;51078,189; 8,56908
 705,71; 4677,404;  325,348;51209,536; 8,55287
 706,28; 4621,847;  297,425;51085,036; 8,51472
 706,86; 4698,983;  334,810;51220,152; 8,57648
 707,43; 4745,196;  349,502;51187,113; 8,64654
 708,00; 4681,562;  322,272;51296,614; 8,55193
 708,57; 4618,082;  303,964;51216,191; 8,47364
 709,14; 4645,141;  323,118;51342,845; 8,47128
 709,71; 4643,123;  303,426;51511,961; 8,47456
 710,28; 4667,720;  294,888;51644,769; 8,51576
 710,86; 4655,856;  311,196;51785,884; 8,44038
 711,43; 4706,684;  324,196;51754,539; 8,52121
 712,00; 4709,358;  315,504;51848,654; 8,52627
 712,57; 4744,725;  311,350;52033,308; 8,57155
 713,14; 4716,014;  300,735;52068,655; 8,52899
 713,71; 4704,458;  311,428;52110,540; 8,48090
 714,28; 4726,901;  294,043;52009,194; 8,57168
 714,85; 4663,652;  282,428;51853,925; 8,49544
 715,42; 4709,480;  290,121;52085,887; 8,53228
 716,00; 4766,000;  358,659;52233,310; 8,49614
 716,57; 4697,521;  290,044;52298,579; 8,47453
 717,14; 4716,426;  278,967;52131,541; 8,55784
 717,71; 4694,330;  261,045;52118,965; 8,54891
 718,28; 4723,312;  308,429;52350,926; 8,48323
 718,85; 4710,602;  262,891;52374,504; 8,53497
 719,42; 4755,507;  289,661;52479,081; 8,55700
 719,99; 4731,796;  269,122;52273,735; 8,58130
 720,56; 4779,163;  299,353;52573,851; 8,56978
 721,13; 4776,606;  271,661;52641,043; 8,60225
 721,70; 4755,665;  261,969;52528,851; 8,59760
 722,27; 4799,185;  285,969;52482,890; 8,64652
 722,84; 4861,321;  332,354;52699,775; 8,64844
 723,41; 4779,072;  267,662;52779,891; 8,59116
 723,98; 4841,054;  282,970;52943,391; 8,65562
 724,55; 4828,728;  312,509;52994,814; 8,57255
 725,12; 4805,402;  239,124;52916,776; 8,66834
 725,69; 4882,999;  274,586;53109,584; 8,72227
 726,27; 4863,750;  278,586;53314,700; 8,64536
 726,84; 4912,578;  291,817;53571,892; 8,67259
 727,41; 4950,868;  292,048;53460,008; 8,76246
 727,98; 4981,696;  301,202;53736,508; 8,75918
 728,55; 4977,678;  322,202;53596,470; 8,73869
 729,12; 4948,814;  271,664;53726,816; 8,74967
 729,69; 5037,180;  304,741;53872,086; 8,83456
 730,26; 5015,700;  303,665;54140,048; 8,75251
 730,82; 4988,298;  291,203;54027,163; 8,74106
 731,39; 5020,741;  297,204;54132,971; 8,77398
 731,96; 5027,646;  271,434;54460,395; 8,77709
 732,53; 5055,628;  293,204;54703,357; 8,75282
 733,10; 5145,302;  303,281;54686,011; 8,90360
 733,67; 5180,207;  296,358;54987,973; 8,92979
 734,24; 5114,727;  282,743;54595,704; 8,89656
 734,81; 5215,863;  323,897;54758,819; 8,98681
 735,38; 5205,537;  284,436;54541,550; 9,06996
 735,95; 5202,596;  291,282;54325,974; 9,08919
 736,52; 5269,116;  307,975;54542,320; 9,14760
 737,09; 5229,175;  300,052;54205,128; 9,14408
 737,66; 5304,464;  338,283;54294,628; 9,20407
 738,23; 5277,831;  283,206;54435,282; 9,22333
 738,80; 5394,966;  347,206;54783,244; 9,27283
 739,37; 5351,794;  307,360;54988,283; 9,22522
 739,94; 5401,161;  291,361;54960,783; 9,34672
 740,51; 5494,066;  398,822;54989,976; 9,33346
 741,07; 5380,663;  287,669;55001,784; 9,30837
 741,64; 5453,414;  305,361;55283,207; 9,36387
 742,21; 5469,165;  287,438;55298,861; 9,41937
 742,78; 5442,532;  265,515;55003,439; 9,45782
 743,35; 5493,283;  296,054;55360,631; 9,43842
 743,92; 5580,803;  321,439;55485,901; 9,53397
 744,49; 5544,016;  315,978;55347,324; 9,50011
 745,06; 5548,690;  283,747;55364,517; 9,55859
 745,63; 5555,826;  276,132;55307,940; 9,59389
 746,19; 5607,115;  284,978;55291,671; 9,67544
 746,76; 5620,174;  295,440;55333,787; 9,67459
 747,33; 5684,925;  284,671;55331,287; 9,81033
 747,90; 5723,907;  304,287;55570,172; 9,80645
 748,47; 5725,735;  292,595;55467,287; 9,84716
 749,04; 5792,409;  314,133;55417,095; 9,94189
 749,61; 5790,852;  324,903;55368,827; 9,93016
 750,17; 5812,834;  311,672;55477,865; 9,97198
 750,74; 5817,124;  301,749;55411,981;10,00790
 751,31; 5833,644;  267,826;55307,404;10,11239
 751,88; 5883,703;  266,980;55142,289;10,23543
 752,45; 5902,685;  287,750;55391,174;10,18981
 753,02; 5939,128;  298,442;55082,674;10,29618
 753,58; 5928,648;  276,981;55049,098;10,31851
 754,15; 5961,169;  283,751;55229,829;10,33271
 754,72; 5962,074;  282,828;54954,406;10,38793
 755,29; 5969,363;  267,597;54789,445;10,45776
 755,86; 6027,883;  284,597;54987,330;10,49908
 756,42; 6056,173;  286,828;54919,830;10,56018
 756,99; 6034,693;  251,136;54833,253;10,59607
 757,56; 6058,675;  270,060;54787,677;10,61788
 758,13; 6046,503;  211,367;54778,869;10,69343
 758,70; 6122,177;  238,598;54822,677;10,77893
 759,26; 6183,082;  228,060;54837,562;10,90474
 759,83; 6174,141;  239,060;54939,293;10,85019
 760,40; 6230,661;  226,753;54823,793;10,99677
 760,97; 6236,105;  217,830;54841,678;11,01767
 761,53; 6215,779;  200,446;54453,948;11,08746
 762,10; 6206,838;  212,984;54440,756;11,05311
 762,67; 6267,666;  244,523;54427,102;11,11638
 763,24; 6218,263;  202,292;54032,295;11,17587
 763,80; 6310,552;  238,677;54121,334;11,26870
 764,37; 6322,996;  240,139;54150,218;11,28334
 764,94; 6289,439;  216,524;53655,411;11,36422
 765,50; 6298,344;  229,447;53698,681;11,35026
 766,07; 6383,095;  273,909;53765,258;11,42089
 766,64; 6389,462;  237,909;53484,912;11,55286
 767,21; 6383,059;  249,525;53336,874;11,55366
 767,77; 6422,425;  272,371;53316,989;11,59412
 768,34; 6452,946;  278,294;53213,182;11,66462
 768,91; 6456,389;  270,371;53061,836;11,71784
 769,47; 6506,140;  263,449;53144,952;11,80506
 770,04; 6496,737;  273,680;52968,529;11,80961
 770,61; 6491,258;  255,988;52776,106;11,87216
 771,18; 6492,932;  248,142;52584,299;11,93208
 771,74; 6585,452;  271,449;52771,953;12,02656
 772,31; 6563,819;  262,527;52573,530;12,04582
 772,88; 6576,416;  234,988;52332,800;12,17216
 773,44; 6561,013;  253,066;52111,300;12,16383
 774,01; 6639,995;  270,373;52206,262;12,26439
 774,58; 6617,977;  249,527;51799,300;12,35398
 775,14; 6677,420;  247,220;51982,955;12,42893
 775,71; 6700,094;  249,605;51886,147;12,49210
 776,27; 6774,307;  309,605;51837,878;12,54593
 776,84; 6899,519;  331,990;51829,917;12,75300
 777,41; 6817,732;  277,836;51661,109;12,72767
 777,97; 6828,099;  251,606;51326,225;12,87624
 778,54; 6877,696;  273,991;51381,572;12,92119
 779,11; 6939,524;  286,837;51416,610;13,01138
 779,67; 6912,121;  251,376;51394,803;13,02366
 780,24; 6946,026;  269,453;51262,457;13,09312
 780,80; 7001,931;  285,068;51128,957;13,21076
 781,37; 7007,528;  275,684;51131,765;13,23705
 781,94; 7019,202;  254,684;50875,035;13,36324
 782,50; 7057,492;  269,607;50789,920;13,43595
 783,07; 7112,012;  292,454;50872,805;13,48262
 783,63; 7082,917;  257,685;50595,997;13,55872
 784,20; 7149,668;  279,685;50630,651;13,64419
 784,77; 7127,573;  267,685;50313,844;13,70712
 785,33; 7137,939;  241,993;50191,806;13,80575
 785,90; 7171,614;  267,686;50231,998;13,81772
 786,46; 7204,134;  278,840;50231,191;13,86380
 787,03; 7188,808;  248,763;49988,460;13,95273
 787,59; 7195,098;  260,840;49854,807;13,98206
 788,16; 7178,233;  281,610;49774,076;13,93469
 788,73; 7266,831;  269,533;49591,192;14,18707
 789,29; 7223,274;  263,302;49230,615;14,21351
 789,86; 7256,410;  282,918;49188,731;14,25902
 790,42; 7240,776;  270,380;49006,693;14,30226
 790,99; 7270,450;  279,611;48804,424;14,40673
 791,55; 7309,663;  258,611;48747,001;14,54173
 792,12; 7348,568;  286,457;48744,194;14,57375
 792,68; 7338,780;  266,611;48385,386;14,69732
 793,25; 7395,070;  275,227;48188,348;14,85990
 793,81; 7423,821;  330,227;47839,233;14,93105
 794,38; 7324,572;  239,458;47655,426;14,94246
 794,94; 7408,246;  249,997;47471,003;15,15904
 795,51; 7396,613;  282,074;47346,272;15,11667
 796,07; 7333,441;  257,536;47077,696;15,11295
 796,64; 7445,961;  295,997;47173,273;15,25252
 797,20; 7382,481;  280,075;46664,312;15,31211
 797,77; 7369,079;  235,921;46331,043;15,47486
 798,33; 7430,830;  269,767;46193,928;15,59324
 798,90; 7447,350;  287,537;46098,505;15,62904
 799,46; 7396,793;  270,229;45575,928;15,72995
 800,03; 7403,621;  273,383;45513,275;15,76095
 800,59; 7444,142;  285,768;45370,390;15,87764
 801,15; 7415,047;  288,230;45134,198;15,89177
 801,72; 7427,105;  270,845;44878,006;16,04285
 802,28; 7434,395;  294,615;44557,122;16,13054
 802,85; 7382,992;  274,307;44399,930;16,11011
 803,41; 7379,205;  263,000;44169,892;16,20749
 803,98; 7368,417;  261,616;43746,777;16,34305
 804,54; 7440,707;  270,154;43444,738;16,60827
 805,11; 7430,843;  287,539;43330,623;16,59571
 805,67; 7428,901;  308,078;43278,200;16,57157
 806,23; 7360,806;  266,001;42761,085;16,69559
 806,80; 7426,942;  288,617;42695,124;16,83309
 807,36; 7448,231;  287,463;42689,394;16,88784
 807,93; 7444,213;  300,848;42473,740;16,93829
 808,49; 7334,811;  249,386;42084,317;16,93662
 809,05; 7406,792;  251,156;41995,356;17,14163
 809,62; 7418,543;  289,002;41842,933;17,15732
 810,18; 7442,371;  281,541;41730,818;17,27613
 810,74; 7384,738;  245,849;41519,780;17,29636
 811,31; 7433,412;  250,618;41268,511;17,51137
 811,87; 7473,240;  259,157;41163,627;17,63642
 812,44; 7485,453;  294,926;41136,204;17,60603
 813,00; 7412,281;  220,004;40883,166;17,68745
 813,56; 7514,263;  274,696;40935,204;17,80491
 814,13; 7532,014;  259,850;40745,474;17,96234
 814,69; 7490,995;  253,235;40594,666;17,94126
 815,25; 7459,362;  236,928;40200,705;18,07245
 815,82; 7502,344;  280,697;40209,436;18,08634
 816,38; 7546,172;  300,005;40000,552;18,25206
 816,94; 7467,923;  251,928;39694,129;18,29511
 817,51; 7466,059;  238,928;39506,322;18,40491
 818,07; 7441,425;  245,775;39250,976;18,44793
 818,63; 7460,330;  273,006;39023,861;18,54752
 819,20; 7513,004;  259,006;38979,823;18,73410
 819,76; 7436,601;  242,391;38565,092;18,77271
 820,32; 7456,275;  295,853;38508,823;18,73820
 820,89; 7474,488;  276,237;38269,323;18,94621
 821,45; 7445,701;  245,930;37985,747;19,07739
 822,01; 7449,683;  270,084;37748,939;19,15640
 822,57; 7456,203;  262,853;37571,747;19,28052
 823,14; 7417,569;  237,854;37367,786;19,33673
 823,70; 7430,551;  235,854;37118,902;19,50679
 824,26; 7435,225;  249,085;36961,325;19,57424
 824,82; 7452,207;  268,854;36806,748;19,66001
 825,39; 7422,574;  246,854;36566,787;19,75697
 825,95; 7429,709;  264,239;36537,211;19,75430
 826,51; 7417,153;  262,547;36125,634;19,94978
 827,08; 7496,750;  306,240;36207,211;20,02873
 827,64; 7514,270;  270,317;36035,481;20,25422
 828,20; 7406,483;  246,471;35772,519;20,15426
 828,76; 7466,926;  269,625;35703,635;20,31185
 829,32; 7519,600;  276,317;35643,289;20,48036
 829,89; 7488,044;  231,241;35524,712;20,56132
 830,45; 7528,564;  258,010;35444,982;20,66263
 831,01; 7515,931;  252,703;35229,790;20,76567
 831,57; 7517,605;  254,011;35069,983;20,86282
 832,14; 7569,740;  246,703;35026,252;21,05558
 832,70; 7515,491;  243,088;34855,522;21,01096
 833,26; 7515,243;  214,704;34669,560;21,18871
 833,82; 7556,147;  252,242;34709,291;21,19713
 834,38; 7610,360;  247,089;34666,407;21,39284
 834,95; 7621,803;  241,473;34489,753;21,54949
 835,51; 7638,016;  209,243;34402,561;21,72580
 836,07; 7669,998;  253,705;34454,908;21,68431
 836,63; 7736,672;  264,013;34434,485;21,86876
 837,19; 7792,346;  247,859;34274,139;22,17253
 837,75; 7700,097;  219,551;33980,563;22,15735
 838,32; 7750,002;  260,167;34076,371;22,14866
 838,88; 7826,830;  262,090;34127,948;22,33736
 839,44; 7841,504;  255,783;34055,756;22,44298
 840,00; 7889,025;  252,014;33936,179;22,67241
 840,56; 7878,160;  239,860;33756,295;22,78972
 841,12; 7858,450;  235,476;33652,410;22,81171
 841,68; 7862,893;  226,091;33490,526;22,95786
 842,25; 7943,491;  231,322;33469,488;23,20275
 842,81; 7968,242;  231,246;33316,142;23,38528
 843,37; 7987,608;  214,938;33260,950;23,52075
 843,93; 8026,128;  237,938;33145,219;23,66707
 844,49; 8081,033;  247,400;33174,566;23,79079
 845,05; 8034,707;  210,170;33065,912;23,81483
 845,61; 8099,766;  248,170;33106,643;23,89520
 846,17; 8122,440;  235,785;32907,298;24,13924
 846,73; 8168,653;  241,940;32803,721;24,34361
 847,29; 8117,789;  217,324;32683,913;24,33414
 847,86; 8173,617;  235,248;32657,260;24,48450
 848,42; 8151,291;  221,017;32423,376;24,62638
 848,98; 8181,350;  249,402;32411,414;24,66247
 849,54; 8171,947;  232,864;32420,376;24,66510
 850,10; 8243,929;  239,172;32242,261;25,01245
 850,66; 8249,987;  223,326;32169,223;25,12580
 851,22; 8233,662;  216,018;32044,492;25,19016
 851,78; 8278,182;  262,172;32190,300;25,10642
 852,34; 8290,933;  247,480;31902,878;25,40942
 852,90; 8254,992;  239,711;31744,301;25,44163
 853,46; 8256,204;  221,327;31626,878;25,58426
 854,02; 8286,417;  241,096;31540,686;25,70424
 854,58; 8212,399;  237,558;31283,648;25,68710
 855,14; 8226,765;  227,712;31230,148;25,80137
 855,70; 8202,978;  199,404;31072,802;25,92385
 856,26; 8246,806;  247,482;30999,610;26,01226
 856,82; 8238,557;  223,174;30911,803;26,11841
 857,38; 8283,077;  260,405;30765,842;26,29916
 857,94; 8257,828;  225,559;30693,342;26,36316
 858,50; 8258,733;  250,790;30567,073;26,41466
 859,06; 8274,869;  231,560;30390,266;26,66994
 859,62; 8341,774;  239,868;30330,612;26,92491
 860,18; 8240,063;  229,406;30161,112;26,76312
 860,74; 8278,199;  209,945;29971,689;27,10948
 861,30; 8196,258;  208,791;29742,882;27,04490
 861,86; 8283,855;  270,638;29919,075;27,02745
 862,42; 8240,683;  237,946;29764,806;27,10325
 862,98; 8321,819;  266,176;29637,075;27,42729
 863,54; 8224,185;  236,946;29389,960;27,39765
 864,10; 8278,475;  220,638;29537,691;27,48515
 864,66; 8248,303;  213,639;29320,191;27,60431
 865,22; 8215,669;  229,485;29208,769;27,55825
 865,78; 8306,267;  242,639;29062,269;27,97964
 866,34; 8245,479;  221,255;28983,154;27,89880
 866,90; 8224,384;  246,716;28842,346;27,89821
 867,45; 8217,135;  234,024;28601,462;28,14181
 868,01; 8171,194;  240,717;28463,808;28,09925
 868,57; 8150,945;  228,640;28331,924;28,18996
 869,13; 8145,927;  212,025;28131,732;28,41685
 869,69; 8184,601;  229,871;28104,463;28,53756
 870,25; 8170,352;  212,025;28013,425;28,62563
 870,81; 8226,642;  233,103;27915,694;28,87569
 871,37; 8212,623;  241,103;27851,426;28,87152
 871,93; 8238,990;  241,334;27679,310;29,14813
 872,49; 8170,741;  262,719;27451,272;29,08585
 873,04; 8153,877;  217,411;27275,849;29,33083
 873,60; 8109,705;  217,181;27180,965;29,27083
 874,16; 8110,763;  238,719;27138,312;29,26455
 874,72; 8144,225;  230,104;27081,927;29,47331
 875,28; 8126,994;  240,258;26971,773;29,50351
 875,84; 8111,456;  230,258;26915,388;29,53404
 876,40; 8166,917;  222,027;26777,388;29,91822
 876,95; 8121,610;  237,104;26837,004;29,64111
 877,51; 8189,379;  264,181;26826,235;29,83654
 878,07; 8267,225;  270,719;26808,004;30,13310
 878,63; 8239,994;  226,335;26831,004;30,12125
 879,19; 8271,071;  242,873;26770,696;30,26331
 879,75; 8345,533;  233,488;26885,388;30,43702
 880,30; 8365,148;  235,258;26834,388;30,56450
 880,86; 8409,687;  274,335;27011,312;30,42734
 881,42; 8427,763;  217,181;26987,696;30,67025
 881,98; 8440,687;  251,104;27128,850;30,46975
 882,54; 8531,148;  229,796;27205,542;30,77339
 883,09; 8615,225;  240,104;27280,927;30,97214
 883,65; 8647,302;  221,027;27450,235;30,94572
 884,21; 8756,071;  258,642;27607,927;31,07002
 884,77; 8800,148;  217,412;27540,696;31,41180
 885,32; 8816,994;  232,104;27752,158;31,19503
 885,88; 8924,302;  269,642;27948,927;31,26764
 886,44; 9028,687;  234,258;28056,773;31,60904
 887,00; 9034,148;  260,796;28002,388;31,62526
 887,56; 9037,610;  226,873;28174,927;31,52540
 888,11; 9059,225;  234,565;28173,465;31,58557
 888,67; 9192,148;  261,258;28362,927;31,78064
 889,23; 9257,610;  247,104;28360,696;32,05035
 889,79; 9207,071;  219,873;28214,927;32,10281
 890,34; 9256,533;  241,565;28168,235;32,28085
 890,90; 9388,917;  303,642;28337,619;32,40808
 891,46; 9288,379;  222,335;28240,235;32,35804
 892,01; 9394,225;  253,950;28197,927;32,70928
 892,57; 9315,379;  271,027;28211,465;32,37011
 893,13; 9308,071;  224,335;27922,235;32,79576
 893,69; 9348,148;  227,642;27872,081;32,99219
 894,24; 9379,302;  245,027;27818,542;33,12699
 894,80; 9330,148;  248,181;27712,004;33,06884
 895,36; 9288,302;  239,642;27574,235;33,10333
 895,91; 9277,302;  226,950;27331,773;33,39019
 896,47; 9249,302;  252,335;27288,619;33,27738
 897,03; 9213,917;  230,488;27012,158;33,54320
 897,58; 9251,917;  254,719;27080,619;33,53922
 898,14; 9197,994;  246,796;26719,235;33,81327
 898,70; 9151,533;  204,950;26620,312;33,86886
 899,25; 9179,225;  242,181;26628,465;33,87004
 899,81; 9107,071;  248,104;26450,696;33,80951
 900,37; 9068,456;  208,258;26203,696;34,08366
 900,92; 9098,840;  239,642;26209,081;34,11394
 901,48; 9074,225;  225,412;26078,465;34,22734
 902,03; 9017,148;  212,335;25948,773;34,21147
 902,59; 9048,763;  229,950;25837,081;34,43890
 903,15; 9070,148;  256,488;25704,542;34,63392
 903,70; 8992,302;  245,027;25477,081;34,66731
 904,26; 9020,687;  223,873;25315,773;35,05838
 904,82; 8997,763;  242,873;25352,542;34,86661
 905,37; 9043,456;  246,719;25189,619;35,26750
 905,93; 8966,456;  228,719;25007,312;35,26325
 906,48; 9031,379;  243,796;25006,850;35,48667
 907,04; 8987,994;  253,335;24911,388;35,42315
 907,60; 8957,610;  237,950;24700,542;35,64487
 908,15; 8902,533;  230,027;24588,696;35,60336
 908,71; 8917,840;  257,027;24614,081;35,55772
 909,26; 8897,994;  228,181;24422,619;35,83391
 909,82; 8922,840;  257,412;24211,388;36,17532
 910,37; 8971,687;  277,027;24242,081;36,28058
 910,93; 8867,533;  226,104;24083,312;36,22146
 911,48; 8848,917;  220,181;23858,388;36,50335
 912,04; 8827,302;  236,796;23776,312;36,49398
 912,60; 8904,840;  243,258;23848,235;36,69388
 913,15; 8914,456;  239,873;23565,619;37,18888
 913,71; 8788,302;  219,873;23403,696;36,95865
 914,26; 8768,763;  215,104;23348,850;36,97481
 914,82; 8833,687;  236,412;23261,312;37,33903
 915,37; 8785,840;  223,642;23194,927;37,27348
 915,93; 8780,148;  272,642;23073,158;37,31278
 916,48; 8788,763;  225,719;22937,081;37,70379
 917,04; 8797,994;  247,104;22802,696;37,91029
 917,59; 8798,148;  263,181;22762,158;37,93491
 918,15; 8687,687;  196,488;22562,388;37,96493
 918,70; 8686,610;  220,873;22468,696;38,05198
 919,26; 8724,148;  231,950;22437,081;38,24431
 919,81; 8724,302;  220,719;22235,312;38,62703
 920,37; 8768,302;  228,642;22167,158;38,92542
 920,92; 8692,687;  246,873;22137,081;38,58261
 921,48; 8669,994;  214,488;21839,081;39,10134
 922,03; 8605,302;  225,950;21859,081;38,73388
 922,59; 8612,071;  225,796;21713,158;39,02887
 923,14; 8591,148;  224,796;21644,312;39,05948
 923,69; 8652,456;  250,565;21559,388;39,42916
 924,25; 8636,763;  238,027;21438,619;39,61557
 924,80; 8580,763;  233,719;21291,312;39,63912
 925,36; 8544,533;  226,104;21189,312;39,68109
 925,91; 8518,456;  211,181;21066,542;39,83280
 926,47; 8517,071;  208,565;20966,081;40,02649
 927,02; 8556,071;  280,335;20992,235;39,95643
 927,57; 8437,302;  225,104;20790,696;39,93174
 928,13; 8475,148;  213,796;20660,388;40,40454
 928,68; 8466,225;  225,258;20638,312;40,37107
 929,24; 8412,379;  199,719;20421,388;40,61316
 929,79; 8444,840;  206,335;20327,235;40,94502
 930,34; 8420,994;  226,873;20180,465;41,06589
 930,90; 8386,687;  212,027;20141,465;41,01801
 931,45; 8410,840;  229,027;20157,927;41,05502
 932,01; 8405,302;  225,873;20021,465;41,31944
 932,56; 8374,840;  249,719;19868,388;41,41525
 933,11; 8468,302;  253,488;19857,927;41,90282
 933,67; 8369,610;  220,488;19695,388;41,84423
 934,22; 8370,148;  236,181;19596,312;42,01401
 934,77; 8351,456;  257,950;19538,158;41,97831
 935,33; 8306,302;  227,796;19370,850;42,20072
 935,88; 8310,456;  228,258;19341,158;42,28661
 936,43; 8283,071;  228,642;19217,235;42,41720
 936,99; 8312,302;  232,719;19116,927;42,78486
 937,54; 8248,148;  210,719;18954,773;42,87989
 938,09; 8268,687;  227,412;18975,388;42,89143
 938,65; 8244,533;  220,950;18836,850;43,10070
 939,20; 8226,379;  204,335;18707,773;43,35434
 939,75; 8239,687;  211,565;18689,619;43,44679
 940,31; 8238,148;  210,412;18486,850;43,92397
 940,86; 8198,687;  225,027;18508,004;43,61248
 941,41; 8249,302;  290,565;18399,542;43,94912
 941,96; 8172,533;  219,258;18250,619;44,10801
 942,52; 8125,302;  216,027;18174,235;44,04267
 943,07; 8070,071;  197,488;18061,696;44,06903
 943,62; 8090,533;  217,719;17999,081;44,27565
 944,18; 8100,379;  195,565;17954,158;44,51261
 944,73; 8028,840;  233,027;17856,388;44,23568
 945,28; 7965,533;  191,027;17627,927;44,58651
 945,83; 8005,148;  217,642;17686,773;44,57867
 946,39; 8050,302;  223,335;17662,004;44,88282
 946,94; 7987,071;  245,335;17545,542;44,74938
 947,49; 7942,610;  219,565;17453,696;44,81250
 948,04; 8005,763;  253,719;17367,542;45,29698
 948,59; 8007,379;  244,950;17351,773;45,37622
 949,15; 7976,840;  202,719;17219,850;45,68409
 949,70; 7939,456;  218,104;17085,235;45,77751
 950,25; 7934,148;  237,181;17045,158;45,79354
 950,80; 7892,456;  196,027;16909,081;46,05040
 951,36; 7876,763;  197,873;16863,235;46,07695
 951,91; 7899,379;  230,565;16832,927;46,19110
 952,46; 7836,610;  199,719;16575,158;46,63625
 953,01; 7919,917;  242,950;16650,619;46,78890
 953,56; 7785,840;  195,104;16489,542;46,58483
 954,11; 7803,225;  233,565;16458,312;46,65503
 954,67; 7741,763;  219,719;16418,312;46,43641
 955,22; 7634,840;  207,181;16251,773;46,29385
 955,77; 7649,763;  242,412;16265,004;46,23067
 956,32; 7635,917;  275,181;16178,927;46,28304
 956,87; 7588,225;  206,565;15991,235;46,76474
 957,42; 7623,071;  211,258;15955,850;47,07530
 957,98; 7557,610;  214,335;15911,465;46,78100
 958,53; 7596,917;  238,412;15814,004;47,24383
 959,08; 7526,071;  201,796;15706,619;47,23869
 959,63; 7494,456;  206,796;15611,312;47,30859
 960,18; 7475,840;  229,873;15587,312;47,18213
 960,73; 7475,917;  226,796;15466,158;47,56840
 961,28; 7431,225;  199,873;15403,312;47,56392
 961,83; 7438,994;  238,181;15367,619;47,59472
 962,39; 7362,840;  204,642;15236,542;47,62005
 962,94; 7441,071;  228,181;15135,158;48,38600
 963,49; 7308,917;  223,565;15083,158;47,68201
 964,04; 7342,071;  235,642;15060,927;47,93452
 964,59; 7329,148;  190,873;14878,773;48,59970
 965,14; 7387,225;  237,950;14853,158;48,91668
 965,69; 7325,302;  226,181;14738,388;48,91827
 966,24; 7275,917;  216,104;14616,465;49,02525
 966,79; 7249,456;  233,488;14561,158;48,96796
 967,34; 7169,687;  193,104;14409,696;49,07352
 967,89; 7228,148;  206,027;14404,312;49,45753
 968,44; 7185,456;  216,027;14305,773;49,46455
 968,99; 7203,610;  221,950;14292,465;49,61908
 969,55; 7185,379;  222,027;14166,619;49,93586
 970,10; 7141,763;  226,488;14098,312;49,85123
 970,65; 7125,379;  246,873;14004,696;49,99705
 971,20; 7084,148;  214,181;13909,773;50,16189
 971,75; 6999,687;  197,796;13668,542;50,49379
 972,30; 6988,533;  223,104;13699,081;50,20362
 972,85; 6914,840;  212,181;13631,004;49,94968
 973,40; 6847,917;  206,258;13559,158;49,73945
 973,95; 6884,302;  222,719;13453,312;50,34984
 974,50; 6896,533;  246,565;13406,773;50,53087
 975,05; 6896,994;  227,335;13275,619;51,11522
 975,60; 6830,302;  233,642;13192,388;50,90508
 976,15; 6800,225;  213,719;13086,158;51,16751
 976,70; 6801,071;  225,719;13024,312;51,37559
 977,25; 6772,533;  228,950;12980,388;51,31643
 977,80; 6730,533;  205,104;12853,542;51,59079
 978,35; 6695,763;  228,565;12647,773;52,07416
 978,89; 6624,148;  198,719;12588,388;51,86118
 979,44; 6614,148;  228,873;12625,081;51,50991
 979,99; 6559,071;  209,873;12401,619;52,07784
 980,54; 6576,840;  243,412;12386,850;52,15515
 981,09; 6598,148;  239,258;12232,388;53,02110
 981,64; 6470,071;  234,873;12097,773;52,56049
 982,19; 6508,533;  261,027;12125,081;52,65912
 982,74; 6451,687;  245,027;11893,081;53,28495
 983,29; 6359,148;  213,950;11764,619;53,20210
 983,84; 6352,456;  235,258;11668,773;53,50234
 984,39; 6369,533;  303,104;11711,542;53,17493
 984,94; 6246,763;  203,027;11481,619;53,58591
 985,49; 6260,148;  250,873;11470,542;53,56018
 986,03; 6231,379;  250,488;11413,235;53,57902
 986,58; 6182,379;  276,027;11242,619;53,85768
 987,13; 6088,840;  237,027;11119,465;53,77300
 987,68; 6091,456;  235,335;11045,773;54,17099
 988,23; 6077,302;  237,258;10984,850;54,33816
 988,78; 5953,533;  223,873;10863,235;53,85342
 989,33; 5957,533;  241,873;10732,696;54,48247
 989,88; 5950,379;  249,642;10721,619;54,43802
 990,42; 5868,610;  232,642;10586,158;54,43530
 990,97; 5804,917;  224,950;10463,004;54,50223
 991,52; 5819,994;  253,719;10376,850;54,98571
 992,07; 5809,071;  255,873;10301,927;55,27741
 992,62; 5746,763;  239,873;10217,773;55,19088
 993,17; 5626,379;  238,181;10072,004;54,79251
 993,71; 5642,763;  248,950; 9954,235;55,57605
 994,26; 5516,379;  222,181; 9825,850;55,12683
 994,81; 5583,763;  250,181; 9767,850;56,03875
 995,36; 5515,610;  226,719; 9628,773;56,25250
 995,91; 5488,148;  235,258; 9593,004;56,13414
 996,45; 5449,148;  236,335; 9483,619;56,37129
 997,00; 5359,071;  207,950; 9335,850;56,43271
 997,55; 5390,687;  233,873; 9334,927;56,66172
 998,10; 5340,533;  265,488; 9163,773;57,03396
 998,65; 5304,302;  231,412; 9172,465;56,73705
 999,19; 5264,456;  252,104; 9013,158;57,21175
 999,74; 5258,302;  276,181; 8985,542;57,20421
1000,29; 5202,071;  246,719; 8828,773;57,74086
1000,84; 5105,533;  223,104; 8741,696;57,31497
1001,38; 5078,763;  237,412; 8648,388;57,55992
1001,93; 5086,379;  248,181; 8601,158;57,92184
1002,48; 4998,994;  221,950; 8410,542;58,33780
1003,03; 4995,917;  238,565; 8394,696;58,32854
1003,57; 4974,456;  249,719; 8249,158;59,06335
1004,12; 4925,610;  272,412; 8205,235;58,65753
1004,67; 4839,302;  226,719; 8094,235;58,62820
1005,22; 4776,610;  217,796; 7967,081;58,82883
1005,76; 4705,917;  217,335; 7848,235;58,82114
1006,31; 4702,148;  247,642; 7815,850;58,85813
1006,86; 4616,071;  222,104; 7678,850;58,92607
1007,40; 4554,148;  210,950; 7571,850;59,00363
1007,95; 4523,379;  236,873; 7480,158;59,17903
1008,50; 4457,763;  231,642; 7337,388;59,47470
1009,04; 4412,610;  219,950; 7249,004;59,64757
1009,59; 4378,302;  240,412; 7142,312;59,95292
1010,14; 4317,302;  216,335; 7033,312;60,15815
1010,68; 4258,840;  229,565; 6973,773;59,74423
1011,23; 4214,917;  224,950; 6797,542;60,70614
1011,78; 4218,610;  234,181; 6780,465;60,86550
1012,32; 4149,379;  247,565; 6639,465;61,04309
1012,87; 4114,687;  253,412; 6621,081;60,63875
1013,42; 4029,610;  218,258; 6484,004;60,82838
1013,96; 4058,379;  258,488; 6507,081;60,81194
1014,51; 4009,687;  198,335; 6424,619;61,21390
1015,06; 3971,379;  204,335; 6429,158;60,51649
1015,60; 4065,379;  268,565; 6443,619;61,48632
1016,15; 4016,994;  224,104; 6407,542;61,33950
1016,69; 4037,302;  233,950; 6431,158;61,37203
1017,24; 4074,533;  205,258; 6454,927;61,91168
1017,79; 4170,379;  251,796; 6551,081;62,20679
1018,33; 4109,071;  218,412; 6526,158;61,68066
1018,88; 4162,456;  242,258; 6598,927;61,67063
1019,42; 4186,148;  229,412; 6609,388;62,01804
1019,97; 4177,148;  209,642; 6586,388;62,21834
1020,51; 4232,379;  243,335; 6614,927;62,60671
1021,06; 4244,687;  199,258; 6623,081;62,97541
1021,61; 4198,379;  204,258; 6566,081;62,78265
1022,15; 4168,071;  180,027; 6530,927;62,79495
1022,70; 4230,610;  223,873; 6544,388;63,39256
1023,24; 4202,225;  217,104; 6506,696;63,36056
1023,79; 4176,456;  214,873; 6440,312;63,63540
1024,33; 4190,148;  219,642; 6432,696;63,90586
1024,88; 4133,379;  224,565; 6301,158;64,32575
1025,42; 4113,994;  216,335; 6201,773;65,11903
1025,97; 4023,225;  219,027; 6159,696;64,03652
1026,51; 3935,379;  185,488; 6011,927;64,35991
1027,06; 3932,148;  206,488; 5991,850;64,39804
1027,60; 3875,994;  239,258; 5887,235;64,39007
1028,15; 3870,302;  245,873; 5774,696;65,55516
1028,69; 3736,456;  198,950; 5671,004;64,64676
1029,24; 3727,225;  217,104; 5593,542;65,28711
1029,78; 3654,840;  215,181; 5512,696;64,92968
1030,33; 3617,994;  196,565; 5423,542;65,45713
1030,87; 3563,994;  222,642; 5339,312;65,30326
1031,42; 3500,302;  202,181; 5270,850;65,06878
1031,96; 3495,071;  233,488; 5172,465;66,03762
1032,51; 3419,994;  211,796; 5112,696;65,46141
1033,05; 3420,763;  216,104; 5063,465;66,11142
1033,60; 3323,302;  191,950; 4923,927;66,17429
1034,14; 3326,071;  213,565; 4874,388;66,78017
1034,69; 3260,302;  219,642; 4796,312;66,43826
1035,23; 3234,533;  208,796; 4739,927;66,77663
1035,77; 3205,071;  201,412; 4670,388;67,21135
1036,32; 3123,763;  190,950; 4605,312;66,43800
1036,86; 3108,148;  214,335; 4557,312;66,63202
1037,41; 3084,994;  225,104; 4481,542;67,18975
1037,95; 3026,840;  194,104; 4382,773;67,62856
1038,50; 2994,840;  206,412; 4372,696;66,92843
1039,04; 2976,533;  233,027; 4333,235;66,91139
1039,58; 2902,533;  196,488; 4222,388;67,21588
1040,13; 2879,917;  218,181; 4185,004;67,09996
1040,67; 2883,302;  237,488; 4167,081;67,33048
1041,21; 2830,687;  238,565; 4070,696;67,64177
1041,76; 2752,610;  199,104; 4016,850;66,88516
1042,30; 2732,379;  215,104; 3950,158;67,39595
1042,85; 2687,148;  217,335; 3897,235;67,11632
1043,39; 2667,225;  207,258; 3822,235;68,04932
1043,93; 2658,225;  223,335; 3783,773;68,38737
1044,48; 2603,148;  223,412; 3736,850;67,73241
1045,02; 2532,379;  213,104; 3690,850;66,68902
1045,56; 2564,917;  232,719; 3675,850;67,73481
1046,11; 2527,071;  220,642; 3615,004;67,94883
1046,65; 2470,687;  229,488; 3556,773;67,35817
1047,19; 2448,071;  207,104; 3511,465;67,81847
1047,74; 2402,148;  197,950; 3420,388;68,40156
1048,28; 2397,071;  220,181; 3400,927;68,43961
1048,82; 2383,071;  238,719; 3362,388;68,64850
1049,37; 2339,840;  228,412; 3294,004;68,87507
1049,91; 2324,533;  230,796; 3252,158;69,29778
1050,45; 2304,456;  233,258; 3229,158;69,13442
1050,99; 2236,994;  216,642; 3161,927;68,59615
1051,54; 2204,840;  208,796; 3103,696;68,95037
1052,08; 2217,610;  250,796; 3090,235;69,26769
1052,62; 2178,994;  236,719; 3048,696;69,07151
1053,16; 2132,071;  217,412; 2967,004;69,63431
1053,71; 2138,917;  230,565; 2937,465;70,49954
1054,25; 2106,071;  241,719; 2895,773;70,24544
1054,79; 2075,610;  231,642; 2873,235;69,80514
1055,33; 2015,610;  195,488; 2796,696;69,97216
1055,88; 2028,379;  231,412; 2778,312;70,55508
1056,42; 2001,610;  245,873; 2757,388;69,90746
1056,96; 1960,610;  238,565; 2705,158;69,81471
1057,50; 1941,533;  224,104; 2676,312;70,03603
1058,05; 1908,917;  221,335; 2629,773;70,06958
1058,59; 1918,071;  247,565; 2595,850;71,13728
1059,13; 1826,610;  206,181; 2532,158;69,66659
1059,67; 1856,071;  224,642; 2534,235;70,63709
1060,21; 1802,456;  218,796; 2464,235;70,52786
1060,76; 1786,610;  229,565; 2448,081;70,18406
1061,30; 1798,687;  248,565; 2444,773;70,58172
1061,84; 1743,840;  229,796; 2349,312;71,43351
1062,38; 1686,533;  218,335; 2286,542;70,98891
1062,92; 1754,456;  266,488; 2345,081;71,58534
1063,46; 1690,687;  247,181; 2274,388;71,20660
1064,01; 1667,687;  224,412; 2233,927;71,82204
1064,55; 1639,302;  231,565; 2217,773;70,87560
1065,09; 1589,917;  204,565; 2145,388;71,37961
1065,63; 1614,302;  253,719; 2166,388;71,13528
1066,17; 1611,763;  262,796; 2143,465;71,72805
1066,71; 1578,379;  247,258; 2125,388;70,87479
1067,25; 1556,456;  241,950; 2079,927;71,51917
1067,80; 1537,148;  256,873; 2061,696;70,93632
1068,34; 1558,071;  258,950; 2065,619;71,90697
1068,88; 1483,071;  225,181; 1990,696;71,24777
1069,42; 1518,917;  252,488; 2018,696;71,70328
1069,96; 1461,225;  234,642; 1949,081;71,54428
1070,50; 1478,302;  276,488; 1963,081;71,25690
1071,04; 1432,840;  220,950; 1888,696;72,66636
1071,58; 1400,763;  232,796; 1878,081;70,98877
1072,12; 1403,225;  233,796; 1855,081;72,12977
1072,66; 1402,687;  227,181; 1840,158;72,87803
1073,21; 1408,687;  243,104; 1838,004;73,08187
1073,75; 1377,763;  238,488; 1792,850;73,29537
1074,29; 1364,763;  245,950; 1790,388;72,44144
1074,83; 1360,610;  250,642; 1768,542;73,12519
1075,37; 1329,533;  255,796; 1760,542;71,35666
1075,91; 1313,840;  255,873; 1747,312;70,93603
1076,45; 1313,840;  236,565; 1700,004;73,61259
1076,99; 1313,763;  245,488; 1654,004;75,84404
1077,53; 1257,302;  229,104; 1627,004;73,55305
1078,07; 1274,225;  242,258; 1641,927;73,72937
1078,61; 1250,225;  237,412; 1612,081;73,67688
1079,15; 1237,763;  235,719; 1601,004;73,39453
1079,69; 1227,302;  236,796; 1561,235;74,78685
1080,23; 1220,687;  253,335; 1567,850;73,59000
1080,77; 1248,994;  284,719; 1574,388;74,76917
1081,31; 1170,302;  219,565; 1499,235;74,29549
1081,85; 1195,071;  250,719; 1528,004;73,93434
1082,39; 1156,687;  228,027; 1476,927;74,35820
1082,93; 1165,071;  249,950; 1489,312;73,83811
1083,47; 1126,071;  228,565; 1438,773;74,16130
1084,01; 1158,379;  246,027; 1466,388;74,76079
1084,55; 1105,763;  235,258; 1420,004;73,47614
1085,09; 1128,610;  247,950; 1420,004;75,13815
1085,63; 1103,840;  254,335; 1380,158;75,45642
1086,17; 1097,379;  224,719; 1372,158;76,05285
1086,71; 1050,917;  229,796; 1356,773;72,86051
1087,24; 1091,533;  266,642; 1373,927;74,49669
1087,78; 1074,071;  249,258; 1344,235;75,32702
1088,32; 1044,687;  234,488; 1302,312;75,87381
1088,86; 1042,456;  255,027; 1325,696;73,54548
1089,40; 1023,533;  239,335; 1279,004;75,42765
1089,94;  997,840;  223,027; 1243,081;75,95809
1090,48; 1000,687;  243,258; 1242,312;75,81462
1091,02; 1023,456;  254,258; 1254,081;76,93342
1091,56;  992,687;  240,642; 1240,312;75,22931
1092,10;  955,917;  213,412; 1184,927;76,42759
1092,63;  992,225;  259,258; 1217,465;76,49357
1093,17;  962,302;  244,719; 1203,004;74,88200
1093,71;  931,994;  229,488; 1160,235;75,47770
1094,25;  963,763;  264,950; 1180,158;76,35572
1094,79;  928,379;  240,488; 1147,542;75,83788
1095,33;  923,994;  247,796; 1127,312;76,88303
1095,87;  902,840;  240,412; 1124,619;74,91779
1096,40;  880,917;  216,950; 1088,619;76,17193
1096,94;  887,379;  242,104; 1091,927;75,93051
1097,48;  888,456;  251,181; 1084,465;76,47747
1098,02;  862,148;  236,181; 1071,927;74,89921
1098,56;  838,379;  208,104; 1018,388;77,78440
1099,10;  825,302;  220,719; 1013,850;76,22737
1099,63;  818,610;  216,642; 1022,465;74,70217
1100,17;  851,379;  235,565; 1028,696;77,64337
1100,71;  846,840;  259,719; 1034,465;75,78239

