
Integration time [ms]: 120,000
Averaging Nr. [scans]: 13
Smoothing Nr. [pixels]: 0
Data measured with spectrometer [name]: 2009305U1
Wave   ;Sample   ;Dark     ;Reference;Reflectance
[nm]   ;[counts] ;[counts] ;[counts] ;[%]

 175,72;  199,803;  198,725;  209,729; 9,79759
 176,32;  228,430;  233,791;  221,495; 0,00000
 176,92;  253,983;  251,952;  246,144; 0,00000
 177,52;  266,490;  249,569;  261,381;143,24710
 178,12;  226,926;  210,945;  220,620;165,16712
 178,72;  253,899;  248,635;  250,038;375,11639
 179,32;  253,420;  255,406;  241,911; 0,00000
 179,92;  250,077;  255,641;  248,129; 0,00000
 180,52;  246,478;  233,115;  240,492;181,12643
 181,12;  258,740;  249,103;  245,056; 0,00000
 181,73;  286,838;  265,873;  272,598;311,73699
 182,33;  339,095;  349,879;  341,303; 0,00000
 182,93;  265,065;  259,492;  262,580;180,42982
 183,53;  246,466;  241,402;  230,123; 0,00000
 184,13;  247,561;  231,942;  223,284; 0,00000
 184,73;  294,180;  262,785;  270,840;389,77248
 185,33;  266,392;  235,800;  340,235;29,29219
 185,93;  261,470;  233,331;  341,231;26,07893
 186,53;  285,655;  252,412;  358,480;31,34126
 187,13;  308,430;  259,651;  408,456;32,78036
 187,73;  263,609;  235,102;  356,651;23,45301
 188,33;  269,614;  242,097;  355,217;24,32545
 188,93;  278,215;  252,084;  372,324;21,73250
 189,53;  280,769;  250,458;  375,462;24,24820
 190,13;  319,012;  288,441;  393,447;29,11359
 190,73;  255,837;  221,607;  354,699;25,71938
 191,34;  291,301;  261,772;  383,107;24,33688
 191,94;  269,375;  243,170;  355,212;23,38901
 192,54;  275,159;  244,657;  378,976;22,70838
 193,14;  295,988;  261,650;  386,945;27,40524
 193,74;  287,518;  256,803;  371,292;26,82789
 194,34;  282,645;  254,345;  379,723;22,57222
 194,94;  258,101;  215,650;  345,606;32,66577
 195,54;  233,492;  198,339;  325,621;27,61825
 196,14;  249,359;  226,731;  350,792;18,23977
 196,74;  251,296;  216,030;  338,690;28,75152
 197,34;  221,652;  203,967;  338,400;13,15577
 197,94;  251,798;  224,267;  375,503;18,20414
 198,54;  258,657;  232,346;  384,669;17,27304
 199,14;  235,100;  223,046;  367,104; 8,36729
 199,74;  235,448;  202,354;  368,520;19,91614
 200,34;  220,346;  194,509;  366,971;14,98093
 200,94;  262,925;  234,889;  406,748;16,31380
 201,54;  247,881;  216,814;  407,160;16,32140
 202,14;  277,094;  240,665;  454,320;17,05022
 202,74;  253,568;  228,200;  447,857;11,54896
 203,34;  234,723;  181,976;  463,089;18,76347
 203,94;  199,064;  166,204;  459,631;11,19874
 204,54;  277,662;  236,729;  542,983;13,36559
 205,14;  229,090;  194,585;  536,212;10,10027
 205,74;  284,642;  237,668;  639,180;11,69926
 206,34;  258,351;  204,050;  630,780;12,72499
 206,94;  264,644;  210,433;  685,452;11,41240
 207,54;  228,548;  177,588;  721,425; 9,37051
 208,14;  264,128;  208,358;  795,906; 9,49194
 208,74;  265,364;  208,200;  848,241; 8,93132
 209,34;  262,703;  207,355;  912,599; 7,84807
 209,94;  268,689;  216,431; 1015,259; 6,54181
 210,54;  266,691;  207,205; 1109,050; 6,59598
 211,14;  290,378;  214,662; 1195,427; 7,72009
 211,73;  286,864;  208,506; 1299,988; 7,17904
 212,33;  304,962;  222,812; 1397,255; 6,99484
 212,93;  286,437;  208,738; 1479,640; 6,11371
 213,53;  280,558;  184,046; 1538,349; 7,12632
 214,13;  297,381;  193,748; 1630,932; 7,21084
 214,73;  288,863;  179,434; 1625,550; 7,56707
 215,33;  273,766;  163,585; 1674,567; 7,29200
 215,93;  305,157;  208,899; 1774,717; 6,14747
 216,53;  271,731;  168,430; 1832,838; 6,20648
 217,13;  328,413;  229,436; 2022,497; 5,52001
 217,73;  322,930;  197,822; 2208,241; 6,22297
 218,33;  288,643;  156,057; 2364,675; 6,00313
 218,93;  349,665;  181,834; 2630,757; 6,85325
 219,53;  362,530;  180,903; 2889,476; 6,70561
 220,13;  359,301;  168,059; 3125,529; 6,46640
 220,73;  394,770;  190,893; 3430,322; 6,29359
 221,32;  435,825;  184,508; 3811,856; 6,92842
 221,92;  448,631;  193,366; 4182,543; 6,39895
 222,52;  468,502;  172,284; 4562,289; 6,74756
 223,12;  498,623;  184,900; 4945,153; 6,59047
 223,72;  541,279;  200,285; 5311,646; 6,67130
 224,32;  579,112;  192,747; 5676,679; 7,04541
 224,92;  586,630;  183,362; 5950,894; 6,99204
 225,52;  637,684;  207,356; 6276,099; 7,09089
 226,12;  641,594;  187,051; 6571,650; 7,11936
 226,72;  671,520;  160,666; 6841,878; 7,64612
 227,31;  689,422;  156,666; 7219,939; 7,54263
 227,91;  748,627;  190,894; 7541,280; 7,58780
 228,51;  785,281;  186,812; 7911,520; 7,74745
 229,11;  835,947;  181,820; 8271,138; 8,08631
 229,71;  883,838;  176,122; 8541,977; 8,45958
 230,31;  912,555;  169,748; 8933,640; 8,47577
 230,91;  953,087;  158,502; 9183,125; 8,80464
 231,51;  992,448;  167,360; 9538,918; 8,80417
 232,10; 1074,509;  169,980; 9825,075; 9,36841
 232,70; 1147,261;  177,422;10037,261; 9,83626
 233,30; 1216,036;  204,206;10330,930; 9,99168
 233,90; 1222,477;  173,898;10431,145;10,22281
 234,50; 1284,361;  173,514;10561,102;10,69398
 235,10; 1349,630;  170,439;10679,048;11,22119
 235,70; 1401,423;  196,355;10707,048;11,46515
 236,29; 1445,427;  189,507;10660,055;11,99479
 236,89; 1478,623;  164,349;10563,896;12,63780
 237,49; 1537,814;  187,436;10546,988;13,03510
 238,09; 1557,966;  169,434;10299,934;13,70645
 238,69; 1619,015;  199,577;10085,824;14,35770
 239,29; 1601,380;  173,126; 9816,008;14,81149
 239,89; 1646,028;  193,964; 9557,989;15,50683
 240,48; 1611,100;  169,819; 9189,380;15,97951
 241,08; 1623,624;  173,895; 8870,359;16,67033
 241,68; 1616,519;  202,973; 8542,428;16,95010
 242,28; 1591,002;  173,206; 8296,267;17,45397
 242,88; 1670,652;  210,364; 8015,271;18,70988
 243,48; 1662,313;  214,359; 7813,649;19,05380
 244,07; 1621,530;  190,279; 7524,495;19,51471
 244,67; 1662,208;  193,589; 7335,200;20,56426
 245,27; 1650,095;  198,121; 7224,988;20,66317
 245,87; 1685,220;  202,978; 7137,422;21,37506
 246,47; 1694,038;  186,737; 7152,619;21,63834
 247,06; 1713,678;  178,433; 7115,577;22,13079
 247,66; 1734,877;  190,742; 7171,967;22,11839
 248,26; 1804,691;  211,199; 7383,422;22,21754
 248,86; 1845,888;  187,583; 7554,528;22,51007
 249,46; 1846,254;  151,745; 7751,040;22,29824
 250,05; 1951,173;  205,203; 8059,625;22,22914
 250,65; 1998,201;  156,351; 8391,138;22,36669
 251,25; 2100,707;  175,510; 8846,420;22,20295
 251,85; 2230,767;  188,657; 9377,235;22,22444
 252,44; 2291,805;  152,046;10031,610;21,65844
 253,04; 2448,462;  201,662;10746,245;21,30762
 253,64; 2515,605;  153,197;11314,012;21,16699
 254,24; 2704,825;  191,741;12220,363;20,89254
 254,84; 2842,331;  166,745;13137,194;20,62832
 255,43; 3001,742;  180,354;13986,565;20,43564
 256,03; 3127,033;  179,120;14914,490;20,00569
 256,63; 3272,988;  182,657;15992,265;19,54717
 257,23; 3363,078;  178,195;16766,067;19,20007
 257,82; 3538,640;  187,423;17744,651;19,08739
 258,42; 3595,126;  152,113;18540,057;18,72429
 259,02; 3742,488;  195,508;19439,475;18,43165
 259,62; 3775,285;  174,574;20014,745;18,14859
 260,21; 3811,662;  187,584;20539,271;17,80726
 260,81; 3828,513;  174,128;20993,664;17,55267
 261,41; 3884,151;  166,037;21535,894;17,39887
 262,01; 3906,257;  206,264;21932,846;17,02980
 262,60; 3851,078;  161,657;22263,375;16,69292
 263,20; 3845,891;  174,198;22619,064;16,35872
 263,80; 3850,899;  197,880;22817,691;16,14965
 264,40; 3802,535;  155,342;23010,849;15,95761
 264,99; 3781,778;  195,802;23187,520;15,59682
 265,59; 3728,542;  168,336;23290,435;15,39742
 266,19; 3706,093;  175,572;23408,876;15,19595
 266,78; 3705,010;  207,185;23564,540;14,97526
 267,38; 3637,536;  185,875;23535,671;14,78240
 267,98; 3620,552;  178,493;23588,757;14,70321
 268,58; 3572,747;  189,029;23610,424;14,44712
 269,17; 3517,131;  178,179;23588,237;14,26289
 269,77; 3482,184;  192,578;23479,767;14,12624
 270,37; 3403,651;  161,110;23253,673;14,04150
 270,96; 3419,707;  219,115;23179,220;13,93980
 271,56; 3333,352;  181,041;22949,788;13,84490
 272,16; 3274,348;  181,652;22839,153;13,64976
 272,75; 3267,284;  179,345;22647,263;13,74377
 273,35; 3223,837;  185,962;22752,668;13,46176
 273,95; 3204,555;  182,345;22634,525;13,46065
 274,54; 3180,200;  162,280;22661,239;13,41360
 275,14; 3232,831;  199,500;23009,838;13,29805
 275,74; 3183,532;  157,729;22979,523;13,25839
 276,33; 3323,000;  206,040;23339,167;13,47401
 276,93; 3353,425;  185,666;23789,475;13,42054
 277,53; 3441,006;  184,200;24196,394;13,56313
 278,12; 3472,019;  159,196;24656,393;13,52327
 278,72; 3620,721;  210,968;25209,099;13,64003
 279,32; 3674,282;  177,353;25795,343;13,65029
 279,91; 3818,673;  173,275;26468,338;13,86343
 280,51; 3922,769;  180,661;27006,795;13,94948
 281,11; 4060,422;  181,582;27679,169;14,10611
 281,70; 4151,184;  155,889;28143,812;14,27507
 282,30; 4290,352;  175,887;28664,557;14,44246
 282,90; 4429,399;  184,733;29140,880;14,65894
 283,49; 4582,955;  191,654;29639,315;14,91222
 284,09; 4749,852;  209,735;30013,118;15,23356
 284,69; 4925,904;  208,352;30383,634;15,63383
 285,28; 5043,581;  198,581;30659,164;15,90580
 285,88; 5285,010;  234,268;31004,553;16,41435
 286,47; 5378,820;  178,656;30948,156;16,90038
 287,07; 5546,396;  220,122;30971,081;17,32068
 287,67; 5780,390;  205,282;31249,572;17,95856
 288,26; 5946,105;  173,583;31154,111;18,63274
 288,86; 6202,575;  177,427;31163,873;19,44446
 289,46; 6493,138;  194,890;31354,786;20,21267
 290,05; 6815,590;  176,971;31383,773;21,27299
 290,65; 7095,274;  191,425;31591,261;21,98690
 291,24; 7458,383;  197,814;31745,730;23,01442
 291,84; 7819,680;  198,734;31851,188;24,07695
 292,44; 8153,935;  193,513;31994,544;25,03196
 293,03; 8601,912;  249,968;32153,222;26,17897
 293,63; 8852,225;  186,964;32285,480;26,99583
 294,22; 9166,047;  208,736;32427,446;27,80158
 294,82; 9502,529;  179,111;32457,635;28,88428
 295,41; 9607,876;  168,197;32179,428;29,48865
 296,01; 9906,925;  220,882;32137,119;30,34832
 296,61;10009,256;  209,660;31938,498;30,88545
 297,20;10031,210;  198,652;31498,260;31,41432
 297,80;10211,959;  189,818;31371,885;32,14072
 298,39;10220,459;  168,349;31012,542;32,58996
 298,99;10324,650;  196,577;30953,082;32,92986
 299,58;10361,783;  210,666;30637,168;33,36275
 300,18;10461,988;  218,664;30536,651;33,78630
 300,78;10439,301;  187,969;30175,812;34,18496
 301,37;10475,469;  210,801;30210,608;34,21578
 301,97;10543,733;  192,736;30210,385;34,48304
 302,56;10582,478;  180,117;30097,031;34,77084
 303,16;10675,705;  178,501;30021,826;35,17438
 303,75;10672,512;  188,816;30056,938;35,09995
 304,35;10855,650;  181,592;30296,229;35,44475
 304,94;10881,957;  192,275;30223,710;35,59498
 305,54;10935,441;  202,738;30212,702;35,76380
 306,13;10837,279;  162,515;30220,877;35,51346
 306,73;10843,597;  171,667;29981,020;35,80061
 307,33;10852,135;  197,897;30003,878;35,74530
 307,92;10920,162;  200,276;30009,930;35,96112
 308,52;11080,306;  164,039;30460,332;36,03169
 309,11;11291,861;  184,805;30865,317;36,20232
 309,71;11327,113;  165,957;31097,892;36,08296
 310,30;11411,456;  168,199;31341,744;36,06666
 310,90;11631,610;  214,660;31732,359;36,22393
 311,49;11630,499;  187,198;31844,388;36,14756
 312,09;11660,086;  150,125;31981,436;36,15924
 312,68;11879,558;  221,508;32445,118;36,17860
 313,28;11817,624;  164,968;32508,776;36,02747
 313,87;11923,299;  155,737;32612,835;36,25574
 314,47;11966,836;  179,883;32880,460;36,04509
 315,06;12039,905;  164,892;33020,392;36,14315
 315,66;12098,855;  163,895;33161,590;36,16907
 316,25;11994,431;  153,271;33134,720;35,90249
 316,85;11977,136;  150,895;33146,514;35,84185
 317,44;12025,577;  168,882;33320,627;35,76492
 318,04;12025,650;  157,041;33358,819;35,74691
 318,63;11882,838;  156,129;33413,451;35,26053
 319,22;11962,301;  181,886;33687,260;35,15978
 319,82;11921,444;  176,965;33726,732;35,00614
 320,41;11856,084;  188,887;33581,370;34,93959
 321,01;11906,396;  194,740;33730,664;34,92272
 321,60;11816,053;  183,350;33856,364;34,54607
 322,20;11791,464;  167,276;33758,639;34,60469
 322,79;11699,915;  207,430;33929,362;34,08015
 323,39;11720,565;  173,438;34018,334;34,11778
 323,98;11648,672;  164,200;33942,472;33,99958
 324,58;11596,239;  173,116;33789,917;33,98040
 325,17;11484,281;  185,502;33722,475;33,69051
 325,76;11370,931;  194,121;33481,634;33,57658
 326,36;11174,366;  166,894;33169,218;33,35363
 326,95;11027,297;  201,197;32821,858;33,18786
 327,55;10865,768;  172,273;32580,839;32,99589
 328,14;10685,244;  161,050;32147,564;32,90197
 328,74;10528,438;  198,502;31792,923;32,69544
 329,33;10357,690;  195,278;31370,401;32,59782
 329,92;10117,855;  154,959;30887,103;32,41849
 330,52; 9881,806;  189,204;30203,412;32,29338
 331,11; 9698,140;  187,197;29806,103;32,11105
 331,71; 9436,134;  178,967;29282,569;31,80763
 332,30; 9267,034;  195,506;28842,479;31,66662
 332,89; 9072,118;  236,124;28405,815;31,36702
 333,49; 8828,615;  194,351;27811,673;31,26394
 334,08; 8657,296;  177,196;27493,100;31,04455
 334,68; 8526,480;  192,581;27000,316;31,08767
 335,27; 8317,202;  191,512;26650,986;30,70994
 335,86; 8230,524;  222,889;26456,564;30,52426
 336,46; 8077,426;  194,436;26199,541;30,31324
 337,05; 7982,043;  176,966;26018,241;30,20392
 337,65; 7817,567;  160,811;25875,670;29,77561
 338,24; 7891,103;  224,123;25891,948;29,87000
 338,83; 7815,086;  200,738;25754,918;29,79688
 339,43; 7735,271;  173,348;25758,583;29,55581
 340,02; 7665,879;  175,578;25570,534;29,49523
 340,61; 7643,664;  177,122;25648,038;29,31399
 341,21; 7634,284;  210,963;25690,769;29,13413
 341,80; 7550,968;  189,657;25615,084;28,95256
 342,40; 7574,867;  180,589;25697,459;28,97800
 342,99; 7556,656;  179,355;25775,661;28,82174
 343,58; 7554,459;  181,355;25977,863;28,58179
 344,18; 7555,744;  197,971;26092,927;28,41392
 344,77; 7616,079;  165,732;26394,318;28,40545
 345,36; 7630,143;  166,658;26652,242;28,17942
 345,96; 7680,479;  207,432;26959,571;27,93439
 346,55; 7699,328;  170,207;27168,889;27,88700
 347,14; 7741,281;  163,435;27487,598;27,73313
 347,74; 7840,243;  144,827;27869,864;27,75620
 348,33; 8016,647;  178,596;28420,892;27,75288
 348,92; 8091,266;  181,599;29109,307;27,34287
 349,52; 8221,381;  159,597;29486,131;27,48973
 350,11; 8201,025;  177,654;29780,485;27,10339
 350,70; 8208,711;  172,122;29801,438;27,12377
 351,29; 8079,682;  170,031;29587,678;26,88744
 351,89; 8105,928;  198,574;29521,502;26,96645
 352,48; 8007,373;  154,891;29577,683;26,68843
 353,07; 8048,570;  190,436;29611,494;26,70922
 353,67; 7894,791;  195,061;29508,263;26,26711
 354,26; 7803,368;  186,127;29303,183;26,16075
 354,85; 7769,628;  183,049;29206,884;26,13913
 355,45; 7695,663;  160,580;28976,851;26,14871
 356,04; 7628,239;  177,667;28863,558;25,97295
 356,63; 7595,906;  201,736;28756,951;25,89429
 357,22; 7457,851;  182,033;28529,688;25,66639
 357,82; 7367,161;  178,573;28303,126;25,55983
 358,41; 7308,158;  197,198;28225,802;25,37037
 359,00; 7186,204;  169,194;28039,475;25,17739
 359,60; 7208,708;  190,200;27965,671;25,26873
 360,19; 7132,257;  189,283;27739,961;25,20074
 360,78; 7077,778;  188,811;27658,808;25,07815
 361,37; 7018,818;  176,735;27434,916;25,10103
 361,97; 6957,652;  189,428;27383,861;24,88827
 362,56; 6851,513;  173,116;27056,561;24,84205
 363,15; 6825,533;  215,273;26861,468;24,80752
 363,74; 6675,348;  191,806;26488,153;24,65567
 364,34; 6594,923;  201,425;26092,628;24,69371
 364,93; 6410,131;  181,423;25766,867;24,34474
 365,52; 6367,678;  158,350;25396,410;24,60303
 366,11; 6245,752;  179,348;25099,599;24,34327
 366,71; 6136,378;  171,271;24664,030;24,35457
 367,30; 6045,969;  181,274;24351,150;24,26448
 367,89; 6026,270;  218,356;24117,806;24,30145
 368,48; 5959,120;  193,114;23831,370;24,39269
 369,07; 5791,634;  180,045;23481,745;24,08231
 369,67; 5723,609;  211,038;23145,589;24,03610
 370,26; 5669,176;  176,584;22904,962;24,16623
 370,85; 5600,283;  189,581;22579,595;24,16569
 371,44; 5515,515;  185,197;22472,583;23,91630
 372,03; 5472,087;  164,425;22167,136;24,12276
 372,63; 5358,578;  157,812;21893,705;23,92709
 373,22; 5327,985;  178,276;21618,236;24,01921
 373,81; 5229,196;  160,581;21348,164;23,92257
 374,40; 5171,177;  189,357;21109,918;23,81303
 374,99; 5125,791;  173,119;20805,236;24,00467
 375,59; 5096,508;  172,818;20548,239;24,16485
 376,18; 5082,574;  201,657;20421,884;24,13878
 376,77; 5025,174;  195,044;20284,216;24,04345
 377,36; 5041,715;  210,812;20218,225;24,14557
 377,95; 4941,843;  197,579;19936,400;24,03519
 378,55; 4905,473;  170,740;19722,664;24,21620
 379,14; 4908,166;  197,196;19652,640;24,21415
 379,73; 4891,847;  190,195;19586,848;24,23950
 380,32; 4909,816;  193,428;19698,446;24,18038
 380,91; 4914,462;  180,730;19479,572;24,52858
 381,50; 4909,323;  201,731;19462,208;24,44172
 382,10; 4835,047;  173,582;19341,830;24,31868
 382,69; 4866,982;  153,196;19281,655;24,64279
 383,28; 4903,581;  205,655;19266,811;24,64660
 383,87; 4855,946;  175,116;19108,719;24,72234
 384,46; 4890,713;  165,112;19057,158;25,01371
 385,05; 4925,928;  219,270;19032,316;25,01806
 385,64; 4927,368;  181,194;19079,829;25,11384
 386,24; 4942,786;  165,265;19008,018;25,35469
 386,83; 4992,287;  200,649;19082,215;25,37733
 387,42; 5046,448;  206,964;19161,969;25,53143
 388,01; 5129,754;  193,645;19331,088;25,79294
 388,60; 5223,443;  194,266;19613,654;25,89771
 389,19; 5311,464;  170,485;19711,863;26,30817
 389,78; 5392,211;  180,564;20001,915;26,29310
 390,37; 5599,998;  238,340;20408,716;26,58185
 390,96; 5589,408;  193,188;20570,771;26,48116
 391,56; 5710,258;  191,407;20731,732;26,86837
 392,15; 5774,186;  188,103;21012,597;26,82458
 392,74; 5842,454;  164,630;21139,528;27,06961
 393,33; 6024,431;  186,714;21382,297;27,54214
 393,92; 6175,263;  192,780;21783,988;27,70796
 394,51; 6250,284;  170,175;21988,050;27,86756
 395,10; 6360,348;  212,461;22189,538;27,97409
 395,69; 6448,965;  206,155;22317,361;28,23369
 396,28; 6515,451;  205,150;22429,043;28,39422
 396,87; 6612,567;  208,293;22506,720;28,72074
 397,46; 6694,841;  212,979;22584,582;28,97361
 398,06; 6802,805;  224,355;22908,699;28,99996
 398,65; 6893,932;  211,721;22862,365;29,50120
 399,24; 7047,396;  227,025;23077,241;29,84817
 399,83; 7050,439;  208,688;23078,877;29,91558
 400,42; 7204,598;  248,124;23183,898;30,33024
 401,01; 7255,891;  221,325;23296,255;30,48575
 401,60; 7351,707;  244,208;23371,456;30,73215
 402,19; 7410,549;  257,022;23296,956;31,04839
 402,78; 7496,473;  257,588;23374,469;31,31428
 403,37; 7476,707;  233,156;23158,178;31,59670
 403,96; 7569,227;  244,024;23048,728;32,12146
 404,55; 7578,215;  262,271;22963,326;32,22733
 405,14; 7568,487;  238,215;22846,319;32,42321
 405,73; 7636,822;  260,611;22788,222;32,74298
 406,32; 7666,805;  259,029;22622,115;33,12502
 406,91; 7653,396;  257,594;22411,638;33,38353
 407,50; 7705,228;  264,260;22245,873;33,85087
 408,09; 7680,971;  226,473;21951,682;34,31267
 408,68; 7719,713;  254,536;21879,207;34,52157
 409,27; 7692,316;  246,476;21712,453;34,68671
 409,86; 7790,623;  256,439;21553,202;35,37713
 410,45; 7807,180;  293,934;21550,876;35,34491
 411,04; 7850,036;  292,352;21485,723;35,66060
 411,63; 7786,250;  286,935;21190,695;35,87544
 412,22; 7807,019;  280,668;20981,662;36,35744
 412,81; 7769,165;  302,989;20780,234;36,46084
 413,40; 7728,833;  310,469;20416,348;36,89649
 413,99; 7667,840;  342,848;20183,307;36,91947
 414,58; 7596,991;  277,159;19746,662;37,59640
 415,17; 7572,820;  279,605;19575,189;37,79733
 415,76; 7584,847;  270,666;19419,040;38,19740
 416,35; 7578,023;  276,443;19110,200;38,76858
 416,94; 7644,717;  310,670;19268,010;38,68711
 417,53; 7869,306;  280,221;19408,256;39,67520
 418,12; 7912,688;  269,533;19521,995;39,69963
 418,71; 8154,128;  298,316;19861,765;40,15556
 419,30; 8250,696;  287,073;20065,109;40,26499
 419,89; 8381,496;  272,460;20163,447;40,76739
 420,48; 8583,716;  294,085;20362,535;41,30678
 421,07; 8629,639;  290,165;20498,503;41,26749
 421,66; 8695,792;  266,558;20466,188;41,72965
 422,25; 8808,247;  271,189;20540,583;42,11797
 422,84; 8852,538;  299,962;20440,598;42,46428
 423,43; 8801,193;  287,647;20178,320;42,80170
 424,02; 8749,578;  302,727;19996,442;42,89110
 424,60; 8636,565;  280,439;19584,206;43,28754
 425,19; 8592,029;  296,044;19327,453;43,59102
 425,78; 8631,234;  293,661;19228,750;44,03240
 426,37; 8607,272;  300,437;19061,951;44,27593
 426,96; 8649,927;  276,206;18925,136;44,90189
 427,55; 8630,099;  275,294;18888,508;44,88642
 428,14; 8588,630;  267,837;18586,022;45,42367
 428,73; 8553,797;  288,366;18469,381;45,46188
 429,32; 8696,364;  285,513;18413,992;46,39579
 429,91; 8687,246;  320,982;18460,799;46,12099
 430,50; 8731,536;  300,065;18279,640;46,89472
 431,08; 8731,960;  307,455;18121,157;47,29228
 431,67; 8711,293;  330,460;18059,181;47,27264
 432,26; 8679,613;  352,773;17866,633;47,54429
 432,85; 8584,575;  372,079;17525,688;47,87620
 433,44; 8476,117;  388,471;17227,983;48,02780
 434,03; 8335,673;  402,711;16826,982;48,30024
 434,62; 8215,345;  359,087;16459,216;48,79625
 435,21; 8167,739;  365,618;16298,030;48,97012
 435,79; 8115,358;  376,323;16109,888;49,18806
 436,38; 8142,843;  368,410;15986,717;49,77770
 436,97; 8058,139;  351,796;15943,277;49,42663
 437,56; 8049,877;  366,118;15775,296;49,86482
 438,15; 8033,234;  330,960;15658,418;50,25148
 438,74; 8056,714;  358,116;15673,578;50,26684
 439,33; 8118,411;  334,421;15641,739;50,85143
 439,91; 8146,348;  308,120;15728,245;50,83115
 440,50; 8234,375;  353,275;15720,771;51,28422
 441,09; 8294,919;  352,437;15858,362;51,22224
 441,68; 8314,707;  330,291;15871,755;51,37493
 442,27; 8344,115;  309,595;15870,416;51,63301
 442,86; 8400,476;  286,691;15851,837;52,12791
 443,44; 8434,622;  306,610;15894,282;52,14385
 444,03; 8491,807;  376,999;16005,300;51,92380
 444,62; 8443,105;  300,075;15815,177;52,48454
 445,21; 8456,885;  324,227;15685,782;52,94163
 445,80; 8410,692;  356,622;15621,797;52,76107
 446,39; 8324,141;  367,697;15356,081;53,08407
 446,97; 8212,762;  300,708;15192,640;53,12980
 447,56; 8096,366;  305,024;14946,971;53,21247
 448,15; 8046,789;  323,939;14810,409;53,31078
 448,74; 7951,619;  331,940;14558,368;53,56003
 449,33; 7866,020;  323,946;14452,718;53,38096
 449,91; 7793,633;  318,033;14243,239;53,68394
 450,50; 7661,320;  307,954;13988,738;53,74959
 451,09; 7653,642;  335,493;13900,297;53,94953
 451,68; 7613,971;  356,497;13844,731;53,80596
 452,26; 7585,918;  340,040;13735,304;54,09283
 452,85; 7553,588;  319,499;13610,323;54,42920
 453,44; 7549,615;  341,974;13683,567;54,02384
 454,03; 7545,607;  314,351;13625,594;54,32442
 454,61; 7543,098;  311,590;13609,495;54,38081
 455,20; 7656,835;  338,979;13743,391;54,59289
 455,79; 7693,007;  348,740;13741,725;54,83667
 456,38; 7774,010;  342,063;13817,793;55,15061
 456,97; 7811,569;  330,061;13863,829;55,28030
 457,55; 7787,936;  329,759;13876,516;55,05508
 458,14; 7838,096;  356,290;13890,729;55,27976
 458,73; 7741,034;  341,529;13835,213;54,83681
 459,31; 7773,979;  366,306;13850,064;54,93775
 459,90; 7864,098;  383,302;13974,214;55,04264
 460,49; 7861,962;  420,299;14008,495;54,76564
 461,08; 7912,980;  340,310;14107,021;55,00711
 461,66; 7944,186;  341,306;14143,370;55,08510
 462,25; 7987,803;  349,006;14205,437;55,12817
 462,84; 8026,770;  376,465;14250,179;55,14245
 463,43; 7942,365;  301,938;14247,046;54,78930
 464,01; 7965,104;  339,172;14309,864;54,58522
 464,60; 7949,385;  396,704;14200,171;54,71583
 465,19; 7834,893;  339,251;13997,782;54,87883
 465,77; 7815,994;  340,871;13977,125;54,81801
 466,36; 7730,221;  371,245;13839,631;54,63888
 466,95; 7596,580;  353,477;13528,774;54,97487
 467,53; 7412,478;  350,645;13289,085;54,58025
 468,12; 7311,041;  372,646;13030,152;54,81644
 468,71; 7154,242;  349,714;12788,109;54,70583
 469,29; 7000,420;  337,032;12597,465;54,34872
 469,88; 6840,849;  341,805;12287,066;54,40688
 470,47; 6958,315;  410,505;12431,822;54,46832
 471,06; 6874,118;  365,120;12397,793;54,09436
 471,64; 6921,918;  375,118;12462,030;54,16437
 472,23; 6910,650;  332,518;12524,681;53,95377
 472,81; 6949,736;  330,972;12651,188;53,72279
 473,40; 6984,807;  343,056;12714,206;53,68742
 473,99; 7162,904;  441,364;12943,375;53,76367
 474,57; 7138,773;  349,979;13036,466;53,51201
 475,16; 7242,697;  370,204;13165,595;53,71069
 475,75; 7286,833;  376,600;13294,845;53,49204
 476,33; 7322,829;  383,837;13411,872;53,26200
 476,92; 7335,478;  386,288;13452,566;53,18415
 477,51; 7335,719;  371,757;13544,460;52,86662
 478,09; 7309,375;  368,526;13511,952;52,80852
 478,68; 7300,394;  375,529;13454,486;52,94662
 479,27; 7320,780;  407,139;13495,077;52,82452
 479,85; 7291,832;  381,605;13495,561;52,69368
 480,44; 7301,464;  364,993;13660,405;52,17191
 481,02; 7980,931;  382,306;14973,490;52,07682
 481,61; 8949,855;  404,380;16859,203;51,93295
 482,20; 9503,827;  382,844;18027,106;51,69376
 482,78; 9960,392;  415,453;18824,862;51,84816
 483,37;10257,511;  404,160;19388,819;51,90165
 483,95;10347,396;  414,546;19540,072;51,93504
 484,54;10468,834;  429,918;19769,660;51,90822
 485,13;10412,092;  405,860;19637,609;52,02975
 485,71;10248,303;  383,088;19561,922;51,43803
 486,30;10140,113;  414,396;19225,799;51,70118
 486,88; 9962,586;  453,937;18897,130;51,55642
 487,47; 9547,290;  439,784;18158,769;51,39971
 488,05; 9095,471;  423,480;17350,736;51,23093
 488,64; 8431,102;  419,870;16087,163;51,13348
 489,23; 7528,596;  438,174;14340,035;51,00340
 489,81; 6430,705;  428,406;12265,536;50,70738
 490,40; 6046,663;  387,177;11679,649;50,11733
 490,98; 5866,291;  377,333;11388,277;49,85002
 491,57; 5831,125;  389,405;11305,362;49,85106
 492,15; 5802,265;  379,719;11271,497;49,78569
 492,74; 5731,776;  391,249;11185,046;49,47774
 493,32; 5638,996;  401,179;11096,090;48,97486
 493,91; 5592,774;  371,029;10997,172;49,14055
 494,50; 5541,962;  396,040;10987,804;48,58418
 495,08; 5463,052;  367,578;10899,848;48,37964
 495,67; 5477,676;  393,490;10870,398;48,52754
 496,25; 5350,548;  329,188;10741,795;48,22385
 496,84; 5339,083;  352,951;10758,565;47,91771
 497,42; 5308,353;  346,344;10738,589;47,74723
 498,01; 5276,379;  371,414;10640,741;47,76326
 498,59; 5181,528;  337,653;10625,516;47,08339
 499,18; 5175,109;  341,722;10495,159;47,60345
 499,76; 5130,214;  361,958;10446,642;47,28216
 500,35; 5024,851;  344,581;10305,032;46,98854
 500,93; 4977,319;  327,267;10285,849;46,69392
 501,52; 4933,324;  332,883;10186,900;46,68594
 502,10; 4947,327;  357,201;10166,328;46,79444
 502,69; 4788,565;  332,974; 9938,653;46,38498
 503,27; 4725,688;  315,963; 9848,314;46,26063
 503,86; 4678,440;  333,818; 9763,892;46,07198
 504,44; 4583,638;  317,822; 9600,262;45,95576
 505,03; 4435,109;  297,206; 9442,846;45,24454
 505,61; 4389,696;  323,205; 9319,101;45,20385
 506,19; 4335,403;  353,052; 9155,045;45,24375
 506,78; 4226,559;  304,906; 8972,804;45,24341
 507,36; 4140,102;  317,744; 8825,028;44,93041
 507,95; 4046,813;  315,679; 8697,312;44,51560
 508,53; 3997,960;  315,444; 8551,911;44,70990
 509,12; 3899,866;  330,293; 8424,091;44,10257
 509,70; 3858,523;  337,141; 8297,561;44,23614
 510,29; 3749,955;  342,760; 8155,917;43,60843
 510,87; 3654,017;  312,906; 7973,279;43,61551
 511,46; 3576,009;  299,523; 7826,672;43,52891
 512,04; 3490,280;  312,219; 7675,583;43,16046
 512,62; 3483,357;  315,985; 7551,241;43,77691
 513,21; 3330,297;  298,068; 7394,888;42,72658
 513,79; 3275,417;  304,542; 7274,481;42,62412
 514,38; 3246,750;  278,384; 7111,677;43,43976
 514,96; 3208,087;  328,691; 7037,290;42,92098
 515,54; 3095,572;  293,309; 6884,424;42,51576
 516,13; 3102,188;  316,540; 6833,644;42,74364
 516,71; 2970,086;  308,699; 6687,051;41,72531
 517,30; 2936,044;  285,396; 6596,440;42,00015
 517,88; 2908,107;  311,780; 6533,254;41,73170
 518,46; 2827,327;  281,167; 6366,725;41,83938
 519,05; 2828,812;  310,247; 6315,772;41,93747
 519,63; 2795,242;  301,630; 6284,195;41,68132
 520,22; 2745,256;  318,330; 6201,767;41,25015
 520,80; 2695,909;  306,715; 6200,647;40,53651
 521,38; 2713,378;  338,325; 6179,452;40,66087
 521,97; 2674,548;  302,334; 6099,770;40,91833
 522,55; 2658,826;  319,257; 6071,093;40,67517
 523,13; 2615,187;  281,260; 6101,751;40,09845
 523,72; 2607,236;  296,397; 6063,462;40,06958
 524,30; 2681,294;  310,955; 6224,858;40,08078
 524,89; 2640,663;  285,719; 6213,573;39,72675
 525,47; 2677,245;  315,803; 6325,757;39,29218
 526,05; 2679,641;  278,958; 6353,561;39,51999
 526,64; 2725,686;  316,421; 6509,940;38,89978
 527,22; 2788,349;  310,033; 6629,372;39,21795
 527,80; 2836,950;  341,652; 6780,615;38,75311
 528,39; 2845,716;  301,808; 6769,289;39,33382
 528,97; 2861,380;  299,345; 6970,083;38,40707
 529,55; 2926,514;  317,491; 7159,382;38,13308
 530,14; 3018,711;  338,810; 7344,514;38,25313
 530,72; 3033,112;  298,422; 7454,499;38,21494
 531,30; 3070,903;  278,888; 7545,394;38,42307
 531,89; 3103,729;  310,657; 7640,840;38,10371
 532,47; 3151,924;  338,274; 7729,848;38,06564
 533,05; 3168,833;  343,267; 7796,815;37,90901
 533,63; 3210,120;  332,891; 7857,868;38,23572
 534,22; 3157,150;  304,506; 7869,622;37,70786
 534,80; 3214,329;  328,588; 7970,261;37,76321
 535,38; 3263,124;  410,504; 8060,182;37,29072
 535,97; 3204,370;  323,198; 8016,588;37,44997
 536,55; 3247,684;  368,974; 8064,957;37,40537
 537,13; 3219,935;  373,810; 8034,684;37,15144
 537,71; 3279,821;  417,348; 8098,650;37,26546
 538,30; 3308,048;  430,431; 8181,139;37,12715
 538,88; 3340,521;  465,362; 8229,021;37,03356
 539,46; 3445,299;  506,050; 8422,968;37,12618
 540,05; 3477,961;  525,283; 8532,797;36,87384
 540,63; 3535,416;  571,745; 8710,352;36,41496
 541,21; 3594,513;  617,364; 8894,721;35,96739
 541,79; 3673,339;  626,210; 9006,166;36,36211
 542,38; 3725,693;  656,437; 9154,071;36,11895
 542,96; 3750,574;  673,291; 9277,109;35,76649
 543,54; 3844,947;  681,055; 9495,579;35,89408
 544,12; 3871,370;  650,903; 9687,525;35,63796
 544,70; 3873,849;  649,214; 9723,665;35,53532
 545,29; 3925,897;  661,052; 9906,533;35,31287
 545,87; 3915,493;  639,902; 9891,628;35,40519
 546,45; 3900,756;  584,052; 9943,577;35,43667
 547,03; 3874,645;  577,285; 9993,574;35,01762
 547,62; 3944,731;  551,441;10139,292;35,39156
 548,20; 3976,239;  553,444;10248,429;35,30480
 548,78; 4027,649;  521,916;10419,246;35,42099
 549,36; 4045,213;  482,684;10605,949;35,19150
 549,94; 4054,498;  446,673;10779,283;34,91688
 550,53; 4108,508;  442,298;10983,233;34,78069
 551,11; 4160,356;  426,534;11153,871;34,80661
 551,69; 4234,517;  445,376;11457,040;34,41024
 552,27; 4300,874;  393,296;11683,084;34,61161
 552,85; 4426,162;  399,918;12082,685;34,46310
 553,44; 4490,774;  399,145;12322,039;34,31741
 554,02; 4612,632;  410,224;12702,216;34,18818
 554,60; 4683,845;  360,611;12983,243;34,24986
 555,18; 4805,654;  398,377;13365,010;33,98937
 555,76; 4911,796;  365,609;13720,647;34,04099
 556,34; 5027,154;  378,230;14113,353;33,84697
 556,93; 5117,062;  370,454;14482,627;33,63485
 557,51; 5235,522;  350,077;14769,016;33,88214
 558,09; 5354,571;  382,300;15199,180;33,55815
 558,67; 5469,947;  375,465;15515,784;33,64845
 559,25; 5561,039;  390,386;15819,991;33,51124
 559,83; 5611,047;  365,467;16095,458;33,34763
 560,41; 5724,868;  368,768;16443,224;33,32057
 561,00; 5837,967;  367,234;16785,108;33,32181
 561,58; 5896,691;  344,767;17004,453;33,32550
 562,16; 5946,617;  347,534;17336,702;32,95679
 562,74; 6072,662;  347,378;17721,201;32,95351
 563,32; 6164,776;  347,775;18125,965;32,71987
 563,90; 6322,188;  361,234;18462,138;32,93180
 564,48; 6387,890;  365,305;18914,710;32,46781
 565,06; 6619,160;  365,772;19433,227;32,79614
 565,65; 6835,176;  363,088;20044,403;32,88443
 566,23; 7070,843;  410,542;20815,016;32,64138
 566,81; 7257,306;  353,232;21434,806;32,74933
 567,39; 7532,841;  363,315;22300,678;32,68180
 567,97; 7713,096;  385,694;22920,733;32,51560
 568,55; 8017,926;  388,621;23740,671;32,67081
 569,13; 8168,827;  364,696;24467,832;32,37807
 569,71; 8450,808;  359,610;25327,132;32,40689
 570,29; 8770,627;  396,608;26245,011;32,39666
 570,87; 9020,997;  396,840;26985,343;32,43566
 571,45; 9217,866;  377,926;27601,029;32,47220
 572,03; 9304,374;  343,239;27961,222;32,44674
 572,61; 9487,491;  334,236;28658,824;32,31558
 573,20; 9708,064;  385,616;29390,848;32,14058
 573,78; 9833,863;  367,006;29875,934;32,08133
 574,36; 9953,182;  373,312;30441,759;31,86021
 574,94;10102,753;  435,086;30797,227;31,84119
 575,52;10122,114;  378,016;31008,304;31,81197
 576,10;10294,466;  432,859;31624,738;31,61594
 576,68;10463,343;  417,700;32064,698;31,74280
 577,26;10662,495;  439,173;32824,747;31,56752
 577,84;10742,005;  435,082;33311,515;31,35049
 578,42;10845,554;  473,857;33478,651;31,42482
 579,00;10774,565;  436,775;33635,442;31,13917
 579,58;10895,495;  469,932;33937,228;31,15150
 580,16;10858,672;  456,089;33933,363;31,07357
 580,74;10953,813;  449,474;34083,319;31,23145
 581,32;10848,794;  440,779;34167,862;30,85952
 581,90;10836,699;  464,781;34101,747;30,83488
 582,48;10878,682;  455,012;34282,332;30,81435
 583,06;10905,335;  455,856;34362,937;30,81799
 583,64;10845,194;  454,471;34531,442;30,49192
 584,22;10788,313;  456,171;34396,463;30,44211
 584,80;10740,230;  481,857;34079,390;30,53311
 585,38;10527,217;  479,538;33694,321;30,25062
 585,96;10501,760;  448,161;33857,462;30,09222
 586,54;10493,837;  469,478;33797,750;30,07764
 587,12;10494,490;  449,398;34103,124;29,84838
 587,70;10504,901;  476,238;34127,726;29,80154
 588,28;10479,219;  458,244;34244,785;29,65966
 588,86;10498,053;  462,169;34299,191;29,65948
 589,44;10441,111;  442,022;34369,330;29,47210
 590,02;10490,540;  447,020;34636,214;29,37630
 590,59;10505,017;  429,477;34723,288;29,38005
 591,17;10550,091;  426,029;35011,854;29,27229
 591,75;10494,077;  422,101;35141,481;29,00966
 592,33;10552,927;  444,407;35301,180;29,00016
 592,91;10615,387;  385,181;35532,062;29,10701
 593,49;10634,217;  390,569;35894,385;28,85225
 594,07;10722,166;  415,030;36051,230;28,92322
 594,65;10633,623;  419,478;36152,307;28,58477
 595,23;10747,393;  409,558;36498,582;28,64537
 595,81;10757,702;  407,252;36607,944;28,59186
 596,39;10715,438;  398,945;36722,423;28,40172
 596,97;10746,290;  397,027;36945,738;28,31636
 597,55;10728,318;  380,480;36785,822;28,42395
 598,12;10647,372;  392,801;36843,285;28,13288
 598,70;10664,719;  377,413;36958,283;28,12209
 599,28;10682,750;  393,182;37213,576;27,94529
 599,86;10667,388;  380,797;37142,896;27,98151
 600,44;10669,199;  347,645;37263,443;27,95972
 601,02;10676,964;  410,961;37241,988;27,87325
 601,60;10592,665;  387,409;37168,790;27,74571
 602,18;10571,559;  361,493;37299,344;27,64120
 602,75;10484,100;  359,559;37367,219;27,35796
 603,33;10525,308;  377,951;37360,591;27,43816
 603,91;10475,138;  361,573;37324,497;27,36138
 604,49;10463,476;  386,490;37421,470;27,20937
 605,07;10412,344;  387,870;37436,834;27,05737
 605,65;10454,026;  397,030;37586,878;27,04232
 606,23;10457,796;  457,246;37731,038;26,82998
 606,80;10422,772;  498,175;37784,818;26,61703
 607,38;10409,153;  531,418;37725,308;26,55741
 607,96;10462,106;  575,328;37784,125;26,57108
 608,54;10386,006;  649,646;37914,093;26,12775
 609,12;10401,110;  630,406;37903,880;26,21356
 609,70;10428,077;  660,566;38026,295;26,14029
 610,27;10359,309;  682,020;38081,214;25,87566
 610,85;10347,899;  702,489;38111,217;25,78385
 611,43;10332,632;  688,720;38030,852;25,82582
 612,01;10241,143;  662,254;37782,215;25,80522
 612,59;10229,836;  667,258;37907,018;25,67841
 613,16;10111,179;  620,863;37815,017;25,51561
 613,74;10041,031;  589,336;37665,576;25,49259
 614,32;10031,087;  559,569;37691,925;25,50745
 614,90; 9922,600;  529,102;37567,978;25,36118
 615,48; 9812,558;  482,018;37205,946;25,40725
 616,05; 9743,573;  448,093;37231,614;25,27077
 616,63; 9613,357;  445,630;37017,359;25,06780
 617,21; 9632,145;  452,174;36928,245;25,16711
 617,79; 9529,017;  431,945;36883,378;24,95669
 618,36; 9499,401;  443,332;36837,895;24,88303
 618,94; 9347,807;  381,250;36430,579;24,87302
 619,52; 9270,261;  405,554;36255,639;24,72716
 620,10; 9227,775;  391,944;36205,497;24,67175
 620,67; 9137,772;  395,630;36085,806;24,49453
 621,25; 9042,040;  413,794;35996,666;24,24831
 621,83; 9027,355;  393,481;35913,241;24,30724
 622,41; 8999,254;  443,096;35948,624;24,09810
 622,98; 8923,384;  398,553;35616,127;24,20618
 623,56; 8859,767;  406,860;35652,446;23,98288
 624,14; 8813,708;  388,334;35464,029;24,02055
 624,72; 8744,084;  383,634;35382,209;23,88797
 625,29; 8719,490;  375,091;35419,278;23,81108
 625,87; 8722,576;  404,484;35448,009;23,73646
 626,45; 8619,696;  358,474;35305,518;23,63926
 627,02; 8578,476;  376,638;35172,688;23,57118
 627,60; 8496,380;  365,953;35208,750;23,33460
 628,18; 8455,802;  336,406;35183,034;23,30038
 628,76; 8498,063;  343,630;35152,622;23,42623
 629,33; 8437,056;  377,787;35141,849;23,18276
 629,91; 8391,006;  360,329;35171,958;23,06895
 630,49; 8450,600;  375,401;35215,998;23,17756
 631,06; 8405,983;  374,785;35425,240;22,91325
 631,64; 8368,145;  362,321;35408,705;22,84351
 632,22; 8253,958;  332,395;35337,755;22,62957
 632,79; 8275,219;  357,395;35576,586;22,48156
 633,37; 8291,588;  343,793;35634,186;22,52113
 633,95; 8253,395;  348,089;35788,117;22,30615
 634,52; 8234,418;  335,557;35793,285;22,27684
 635,10; 8208,517;  331,174;35839,663;22,18439
 635,68; 8205,199;  337,703;36062,263;22,02265
 636,25; 8153,275;  323,237;35952,922;21,97616
 636,83; 8120,602;  314,784;36204,083;21,74971
 637,41; 8134,820;  339,240;36289,950;21,68408
 637,98; 8131,699;  345,009;36452,163;21,56550
 638,56; 8107,681;  340,005;36522,485;21,46806
 639,13; 8068,831;  318,860;36600,787;21,36042
 639,71; 8127,803;  363,554;36768,087;21,32770
 640,29; 7945,502;  288,554;36497,658;21,14647
 640,86; 8002,946;  312,093;36735,158;21,11534
 641,44; 7918,620;  313,478;36666,581;20,92020
 642,02; 7921,755;  344,939;36703,158;20,83935
 642,59; 7910,198;  316,555;36858,197;20,78079
 643,17; 7883,565;  318,863;36784,774;20,74458
 643,74; 7846,931;  307,786;36875,121;20,61716
 644,32; 7817,682;  335,248;36776,006;20,53315
 644,89; 7818,279;  329,633;36777,275;20,54631
 645,47; 7776,722;  340,479;36918,852;20,32962
 646,05; 7715,396;  337,787;36779,199;20,24512
 646,62; 7693,609;  322,326;36798,930;20,20825
 647,20; 7665,359;  333,403;36934,507;20,03206
 647,77; 7548,033;  306,018;36822,392;19,83224
 648,35; 7563,784;  310,711;36681,738;19,94190
 648,92; 7508,074;  327,557;36769,469;19,70401
 649,50; 7443,517;  287,327;36593,124;19,71087
 650,08; 7386,960;  298,173;36527,470;19,56645
 650,65; 7364,711;  301,481;36760,893;19,37286
 651,23; 7470,924;  294,789;37478,009;19,29939
 651,80; 7653,136;  282,097;38426,279;19,32415
 652,38; 7687,964;  297,943;38764,010;19,21179
 652,95; 7729,176;  282,251;39119,125;19,17488
 653,53; 7800,081;  318,021;39376,395;19,15610
 654,10; 7783,986;  339,328;39472,357;19,02397
 654,68; 7705,429;  289,021;39460,626;18,93312
 655,25; 7701,257;  285,867;39602,434;18,86072
 655,83; 7707,931;  284,637;39603,857;18,87956
 656,40; 7700,989;  318,252;39534,204;18,82585
 656,98; 7669,510;  288,714;39457,089;18,84376
 657,55; 7604,184;  299,253;39281,589;18,73908
 658,13; 7489,319;  294,407;39005,397;18,58623
 658,70; 7408,070;  310,869;38751,436;18,46279
 659,28; 7173,898;  314,253;37982,782;18,21055
 659,85; 6973,726;  305,254;37119,206;18,11398
 660,43; 6971,169;  321,177;37207,629;18,02828
 661,00; 6917,535;  304,100;37314,591;17,86908
 661,58; 6947,517;  300,639;37590,860;17,82472
 662,15; 6929,729;  281,024;37801,361;17,72027
 662,73; 7009,326;  346,409;38066,938;17,66390
 663,30; 6955,770;  300,409;38285,515;17,52097
 663,88; 6947,367;  315,178;38452,169;17,39043
 664,45; 6971,733;  290,717;38705,285;17,39188
 665,03; 6989,330;  296,333;38921,093;17,32826
 665,60; 7058,235;  372,563;39514,747;17,08048
 666,17; 6985,140;  304,718;39569,709;17,01369
 666,75; 6980,891;  301,564;39834,209;16,89572
 667,32; 6991,334;  321,718;40222,863;16,71535
 667,90; 6976,931;  297,872;40553,979;16,59142
 668,47; 7003,451;  316,257;40718,941;16,55136
 669,05; 6997,586;  299,719;41088,210;16,42097
 669,62; 6928,030;  274,565;41105,710;16,29507
 670,19; 6914,242;  287,411;41229,826;16,18574
 670,77; 6951,762;  293,719;41441,249;16,18091
 671,34; 6901,590;  301,258;41367,134;16,07255
 671,92; 6924,649;  281,643;41697,327;16,03983
 672,49; 6846,169;  309,643;41711,443;15,78802
 673,06; 6809,997;  256,643;41810,404;15,77078
 673,64; 6779,671;  287,720;41795,982;15,64014
 674,21; 6735,575;  279,721;41652,251;15,60421
 674,79; 6803,019;  305,567;41889,982;15,62473
 675,36; 6753,847;  307,106;42048,405;15,44451
 675,93; 6705,136;  269,798;41923,290;15,44970
 676,51; 6663,964;  296,337;42038,791;15,25456
 677,08; 6684,638;  300,029;42205,676;15,23568
 677,65; 6678,927;  300,876;42223,945;15,21370
 678,23; 6657,370;  299,722;42528,138;15,05538
 678,80; 6634,583;  287,261;42656,253;14,98105
 679,38; 6642,949;  284,030;42765,984;14,96852
 679,95; 6645,315;  303,184;42939,100;14,87509
 680,52; 6579,297;  285,338;43307,216;14,62967
 681,10; 6630,279;  299,338;43558,870;14,63479
 681,67; 6667,722;  298,493;43842,832;14,62700
 682,24; 6598,627;  268,570;43972,563;14,48393
 682,82; 6661,916;  280,108;44494,448;14,43380
 683,39; 6721,975;  326,186;44959,179;14,32973
 683,96; 6696,956;  289,032;45091,371;14,30266
 684,54; 6652,015;  276,109;45456,641;14,11206
 685,11; 6709,612;  309,340;45702,833;14,09954
 685,68; 6699,517;  286,186;46266,487;13,94800
 686,25; 6712,037;  269,033;46346,142;13,98309
 686,83; 6692,480;  281,187;46473,950;13,87943
 687,40; 6726,770;  273,418;46719,296;13,89435
 687,97; 6726,290;  297,110;47163,489;13,71811
 688,55; 6684,194;  260,264;47251,297;13,67054
 689,12; 6689,945;  244,188;47453,335;13,65362
 689,69; 6683,696;  250,342;47563,451;13,59740
 690,26; 6638,909;  267,880;47710,336;13,42896
 690,84; 6632,890;  276,958;47853,298;13,35944
 691,41; 6627,334;  288,496;48013,567;13,28199
 691,98; 6656,700;  295,189;48194,683;13,28096
 692,56; 6587,451;  278,881;48329,260;13,12907
 693,13; 6671,971;  328,728;48309,991;13,22025
 693,70; 6589,260;  300,574;48497,568;13,04788
 694,27; 6577,627;  272,728;48602,222;13,04565
 694,84; 6535,685;  274,344;48711,184;12,92682
 695,42; 6599,590;  331,728;48858,454;12,91631
 695,99; 6557,341;  292,190;49050,723;12,84934
 696,56; 6493,938;  285,575;48886,531;12,77416
 697,13; 6473,766;  302,960;49344,339;12,58286
 697,71; 6471,824;  269,806;49297,147;12,65012
 698,28; 6488,345;  279,345;49636,724;12,57968
 698,85; 6457,865;  255,422;49652,917;12,55619
 699,42; 6369,385;  259,884;49787,879;12,33545
 699,99; 6445,674;  299,115;49910,456;12,38942
 700,57; 6405,194;  294,269;50012,802;12,29104
 701,14; 6415,176;  271,423;50102,610;12,32913
 701,71; 6419,158;  310,808;50372,803;12,20157
 702,28; 6392,832;  286,193;50343,765;12,19923
 702,85; 6364,813;  287,193;50442,034;12,11771
 703,43; 6401,257;  305,116;50729,842;12,08959
 704,00; 6425,854;  323,270;50879,650;12,07085
 704,57; 6348,528;  295,193;50869,381;11,96922
 705,14; 6411,202;  320,578;51078,189;11,99943
 705,71; 6368,568;  325,348;51209,536;11,87642
 706,28; 6320,242;  297,425;51085,036;11,85883
 706,86; 6364,224;  334,810;51220,152;11,84902
 707,43; 6355,821;  349,502;51187,113;11,81471
 708,00; 6306,802;  322,272;51296,614;11,74028
 708,57; 6253,784;  303,964;51216,191;11,68643
 709,14; 6306,227;  323,118;51342,845;11,72705
 709,71; 6261,901;  303,426;51511,961;11,63571
 710,28; 6289,191;  294,888;51644,769;11,67345
 710,86; 6295,788;  311,196;51785,884;11,62628
 711,43; 6254,154;  324,196;51754,539;11,53008
 712,00; 6251,059;  315,504;51848,654;11,51794
 712,57; 6280,887;  311,350;52033,308;11,54159
 713,14; 6254,176;  300,735;52068,655;11,50025
 713,71; 6249,927;  311,428;52110,540;11,46448
 714,28; 6248,293;  294,043;52009,194;11,51355
 714,85; 6174,044;  282,428;51853,925;11,42417
 715,42; 6231,487;  290,121;52085,887;11,47076
 716,00; 6287,700;  358,659;52233,310;11,42955
 716,57; 6210,835;  290,044;52298,579;11,38427
 717,14; 6156,663;  278,967;52131,541;11,33540
 717,71; 6197,876;  261,045;52118,965;11,44826
 718,28; 6212,550;  308,429;52350,926;11,34481
 718,85; 6158,993;  262,891;52374,504;11,31437
 719,42; 6193,282;  289,661;52479,081;11,31191
 719,99; 6150,033;  269,122;52273,735;11,30844
 720,56; 6178,784;  299,353;52573,851;11,24723
 721,13; 6167,227;  271,661;52641,043;11,25766
 721,70; 6136,132;  261,969;52528,851;11,23879
 722,27; 6169,806;  285,969;52482,890;11,27238
 722,84; 6237,865;  332,354;52699,775;11,27707
 723,41; 6107,923;  267,662;52779,891;11,12172
 723,98; 6164,520;  282,970;52943,391;11,16883
 724,55; 6158,656;  312,509;52994,814;11,09698
 725,12; 6127,484;  239,124;52916,776;11,17810
 725,69; 6149,542;  274,586;53109,584;11,11944
 726,27; 6153,062;  278,586;53314,700;11,07637
 726,84; 6202,429;  291,817;53571,892;11,09347
 727,41; 6223,103;  292,048;53460,008;11,15532
 727,98; 6280,700;  301,202;53736,508;11,19016
 728,55; 6268,451;  322,202;53596,470;11,16158
 729,12; 6232,356;  271,664;53726,816;11,15083
 729,69; 6350,337;  304,741;53872,086;11,28597
 730,26; 6339,703;  303,665;54140,048;11,21182
 730,82; 6282,993;  291,203;54027,163;11,15043
 731,39; 6295,975;  297,204;54132,971;11,14272
 731,96; 6328,187;  271,434;54460,395;11,17710
 732,53; 6368,476;  293,204;54703,357;11,16570
 733,10; 6368,689;  303,281;54686,011;11,15319
 733,67; 6417,978;  296,358;54987,973;11,19298
 734,24; 6369,883;  282,743;54595,704;11,20753
 734,81; 6421,634;  323,897;54758,819;11,20188
 735,38; 6368,539;  284,436;54541,550;11,21347
 735,95; 6372,059;  291,282;54325,974;11,25347
 736,52; 6349,040;  307,975;54542,320;11,13882
 737,09; 6330,868;  300,052;54205,128;11,18785
 737,66; 6371,235;  338,283;54294,628;11,18117
 738,23; 6421,986;  283,206;54435,282;11,33618
 738,80; 6446,198;  347,206;54783,244;11,20396
 739,37; 6447,718;  307,360;54988,283;11,22943
 739,94; 6433,161;  291,361;54960,783;11,23444
 740,51; 6558,989;  398,822;54989,976;11,28419
 741,07; 6443,586;  287,669;55001,784;11,25106
 741,64; 6549,491;  305,361;55283,207;11,35754
 742,21; 6520,703;  287,438;55298,861;11,33086
 742,78; 6452,531;  265,515;55003,439;11,30298
 743,35; 6497,821;  296,054;55360,631;11,26272
 743,92; 6610,418;  321,439;55485,901;11,40042
 744,49; 6595,938;  315,978;55347,324;11,41161
 745,06; 6559,304;  283,747;55364,517;11,39337
 745,63; 6612,286;  276,132;55307,940;11,51362
 746,19; 6634,806;  284,978;55291,671;11,54374
 746,76; 6600,326;  295,440;55333,787;11,45544
 747,33; 6665,000;  284,671;55331,287;11,59077
 747,90; 6694,982;  304,287;55570,172;11,56354
 748,47; 6714,810;  292,595;55467,287;11,63978
 749,04; 6737,637;  314,133;55417,095;11,65728
 749,61; 6768,158;  324,903;55368,827;11,70566
 750,17; 6757,678;  311,672;55477,865;11,68470
 750,74; 6791,198;  301,749;55411,981;11,77540
 751,31; 6776,410;  267,826;55307,404;11,82528
 751,88; 6744,084;  266,980;55142,289;11,80331
 752,45; 6793,605;  287,750;55391,174;11,80662
 753,02; 6816,971;  298,442;55082,674;11,89855
 753,58; 6821,337;  276,981;55049,098;11,94834
 754,15; 6881,088;  283,751;55229,829;12,00693
 754,72; 6841,608;  282,828;54954,406;11,99669
 755,29; 6853,667;  267,597;54789,445;12,07969
 755,86; 6881,110;  284,597;54987,330;12,05884
 756,42; 6922,399;  286,828;54919,830;12,14572
 756,99; 6893,689;  251,136;54833,253;12,16983
 757,56; 6945,670;  270,060;54787,677;12,24487
 758,13; 6932,729;  211,367;54778,869;12,31752
 758,70; 7030,865;  238,598;54822,677;12,44368
 759,26; 6996,154;  228,060;54837,562;12,39362
 759,83; 7040,366;  239,060;54939,293;12,43378
 760,40; 7102,348;  226,753;54823,793;12,59335
 760,97; 7139,637;  217,830;54841,678;12,67177
 761,53; 7101,542;  200,446;54453,948;12,72009
 762,10; 7076,293;  212,984;54440,756;12,65645
 762,67; 7161,736;  244,523;54427,102;12,76649
 763,24; 7093,718;  202,292;54032,295;12,80220
 763,80; 7218,007;  238,677;54121,334;12,95283
 764,37; 7169,758;  240,139;54150,218;12,85403
 764,94; 7131,663;  216,524;53655,411;12,94028
 765,50; 7162,337;  229,447;53698,681;12,96613
 766,07; 7240,473;  273,909;53765,258;13,02372
 766,64; 7215,839;  237,909;53484,912;13,10483
 767,21; 7177,359;  249,525;53336,874;13,04988
 767,77; 7234,033;  272,371;53316,989;13,12416
 768,34; 7261,322;  278,294;53213,182;13,19173
 768,91; 7234,304;  270,371;53061,836;13,19140
 769,47; 7274,517;  263,449;53144,952;13,25807
 770,04; 7302,037;  273,680;52968,529;13,33784
 770,61; 7233,557;  255,988;52776,106;13,28552
 771,18; 7272,000;  248,142;52584,299;13,42066
 771,74; 7338,751;  271,449;52771,953;13,46140
 772,31; 7346,733;  262,527;52573,530;13,54248
 772,88; 7263,560;  234,988;52332,800;13,49111
 773,44; 7290,234;  253,066;52111,300;13,57001
 774,01; 7342,293;  270,373;52206,262;13,61663
 774,58; 7335,890;  249,527;51799,300;13,74664
 775,14; 7408,872;  247,220;51982,955;13,84276
 775,71; 7366,238;  249,605;51886,147;13,78216
 776,27; 7472,604;  309,605;51837,878;13,90111
 776,84; 7469,894;  331,990;51829,917;13,86057
 777,41; 7430,029;  277,836;51661,109;13,91930
 777,97; 7418,780;  251,606;51326,225;14,03275
 778,54; 7508,454;  273,991;51381,572;14,15536
 779,11; 7524,590;  286,837;51416,610;14,15565
 779,67; 7584,264;  251,376;51394,803;14,33789
 780,24; 7575,015;  269,453;51262,457;14,32660
 780,80; 7600,996;  285,068;51128,957;14,38900
 781,37; 7592,670;  275,684;51131,765;14,38763
 781,94; 7579,960;  254,684;50875,035;14,47101
 782,50; 7670,711;  269,607;50789,920;14,64976
 783,07; 7707,769;  292,454;50872,805;14,66047
 783,63; 7659,597;  257,685;50595,997;14,70433
 784,20; 7668,425;  279,685;50630,651;14,67448
 784,77; 7677,099;  267,685;50313,844;14,80516
 785,33; 7674,773;  241,993;50191,806;14,88050
 785,90; 7721,062;  267,686;50231,998;14,91740
 786,46; 7756,736;  278,840;50231,191;14,97006
 787,03; 7720,179;  248,763;49988,460;15,02103
 787,59; 7782,392;  260,840;49854,807;15,16626
 788,16; 7811,758;  281,610;49774,076;15,21474
 788,73; 7775,355;  269,533;49591,192;15,21811
 789,29; 7784,183;  263,302;49230,615;15,35898
 789,86; 7808,088;  282,918;49188,731;15,38707
 790,42; 7802,839;  270,380;49006,693;15,45554
 790,99; 7798,513;  279,611;48804,424;15,49496
 791,55; 7795,956;  258,611;48747,001;15,54464
 792,12; 7853,707;  286,457;48744,194;15,61618
 792,68; 7841,458;  266,611;48385,386;15,74198
 793,25; 7879,055;  275,227;48188,348;15,87003
 793,81; 7896,344;  330,227;47839,233;15,92565
 794,38; 7790,018;  239,458;47655,426;15,92409
 794,94; 7814,231;  249,997;47471,003;16,01879
 795,51; 7859,212;  282,074;47346,272;16,09958
 796,07; 7822,886;  257,536;47077,696;16,15832
 796,64; 7878,560;  295,997;47173,273;16,17535
 797,20; 7839,004;  280,075;46664,312;16,29633
 797,77; 7798,447;  235,921;46331,043;16,40635
 798,33; 7812,736;  269,767;46193,928;16,42484
 798,90; 7802,103;  287,537;46098,505;16,40342
 799,46; 7775,930;  270,229;45575,928;16,56679
 800,03; 7842,681;  273,383;45513,275;16,73147
 800,59; 7821,971;  285,768;45370,390;16,71568
 801,15; 7804,952;  288,230;45134,198;16,76120
 801,72; 7779,165;  270,845;44878,006;16,83209
 802,28; 7734,223;  294,615;44557,122;16,80792
 802,85; 7745,436;  274,307;44399,930;16,93150
 803,41; 7771,264;  263,000;44169,892;17,10042
 803,98; 7812,707;  261,616;43746,777;17,36475
 804,54; 7781,150;  270,154;43444,738;17,39680
 805,11; 7742,055;  287,539;43330,623;17,31873
 805,67; 7814,729;  308,078;43278,200;17,46947
 806,23; 7789,095;  266,001;42761,085;17,70345
 806,80; 7796,615;  288,617;42695,124;17,70483
 807,36; 7814,982;  287,463;42689,394;17,75277
 807,93; 7800,886;  300,848;42473,740;17,78403
 808,49; 7768,330;  249,386;42084,317;17,97288
 809,05; 7737,850;  251,156;41995,356;17,93469
 809,62; 7785,985;  289,002;41842,933;18,04157
 810,18; 7774,275;  281,541;41730,818;18,07687
 810,74; 7754,641;  245,849;41519,780;18,19258
 811,31; 7778,238;  250,618;41268,511;18,35204
 811,87; 7767,758;  259,157;41163,627;18,35643
 812,44; 7811,971;  294,926;41136,204;18,40551
 813,00; 7766,875;  220,004;40883,166;18,55948
 813,56; 7842,396;  274,696;40935,204;18,61192
 814,13; 7876,070;  259,850;40745,474;18,81216
 814,69; 7899,128;  253,235;40594,666;18,95295
 815,25; 7793,571;  236,928;40200,705;18,90873
 815,82; 7874,015;  280,697;40209,436;19,01717
 816,38; 7853,996;  300,005;40000,552;19,02742
 816,94; 7778,363;  251,928;39694,129;19,08219
 817,51; 7775,037;  238,928;39506,322;19,19177
 818,07; 7794,172;  245,775;39250,976;19,35228
 818,63; 7772,923;  273,006;39023,861;19,35420
 819,20; 7797,751;  259,006;38979,823;19,46949
 819,76; 7703,348;  242,391;38565,092;19,46877
 820,32; 7770,637;  295,853;38508,823;19,56086
 820,89; 7763,850;  276,237;38269,323;19,70783
 821,45; 7665,985;  245,930;37985,747;19,66108
 822,01; 7659,659;  270,084;37748,939;19,71665
 822,57; 7724,872;  262,853;37571,747;20,00064
 823,14; 7672,700;  237,854;37367,786;20,02386
 823,70; 7664,220;  235,854;37118,902;20,14033
 824,26; 7664,278;  249,085;36961,325;20,19815
 824,82; 7708,952;  268,854;36806,748;20,36269
 825,39; 7604,626;  246,854;36566,787;20,25822
 825,95; 7719,608;  264,239;36537,211;20,55351
 826,51; 7666,974;  262,547;36125,634;20,64637
 827,08; 7699,802;  306,240;36207,211;20,59432
 827,64; 7672,015;  270,317;36035,481;20,69527
 828,20; 7641,919;  246,471;35772,519;20,81697
 828,76; 7679,670;  269,625;35703,635;20,91224
 829,32; 7709,960;  276,317;35643,289;21,01860
 829,89; 7640,249;  231,241;35524,712;20,99257
 830,45; 7686,384;  258,010;35444,982;21,11115
 831,01; 7670,366;  252,703;35229,790;21,20721
 831,57; 7668,732;  254,011;35069,983;21,29690
 832,14; 7638,022;  246,703;35026,252;21,25191
 832,70; 7669,080;  243,088;34855,522;21,45470
 833,26; 7655,985;  214,704;34669,560;21,59719
 833,82; 7682,582;  252,242;34709,291;21,56406
 834,38; 7725,641;  247,089;34666,407;21,72778
 834,95; 7675,546;  241,473;34489,753;21,70641
 835,51; 7706,066;  209,243;34402,561;21,92482
 836,07; 7770,432;  253,705;34454,908;21,97796
 836,63; 7835,029;  264,013;34434,485;22,15660
 837,19; 7817,165;  247,859;34274,139;22,24547
 837,75; 7834,454;  219,551;33980,563;22,55532
 838,32; 7847,436;  260,167;34076,371;22,43678
 838,88; 7867,110;  262,090;34127,948;22,45630
 839,44; 7889,091;  255,783;34055,756;22,58377
 840,00; 7876,381;  252,014;33936,179;22,63487
 840,56; 7847,439;  239,860;33756,295;22,69806
 841,12; 7843,344;  235,476;33652,410;22,76651
 841,68; 7799,480;  226,091;33490,526;22,76722
 842,25; 7874,538;  231,322;33469,488;22,99530
 842,81; 7871,905;  231,246;33316,142;23,09410
 843,37; 7871,040;  214,938;33260,950;23,16801
 843,93; 7861,483;  237,938;33145,219;23,16674
 844,49; 7927,311;  247,400;33174,566;23,32394
 845,05; 7875,524;  210,170;33065,912;23,33033
 845,61; 7983,967;  248,170;33106,643;23,54278
 846,17; 7993,025;  235,785;32907,298;23,74313
 846,73; 8034,161;  241,940;32803,721;23,93057
 847,29; 7959,527;  217,324;32683,913;23,84668
 847,86; 8031,663;  235,248;32657,260;24,04667
 848,42; 7984,875;  221,017;32423,376;24,10959
 848,98; 8025,472;  249,402;32411,414;24,17781
 849,54; 8059,146;  232,864;32420,376;24,31466
 850,10; 8024,282;  239,172;32242,261;24,32612
 850,66; 7991,648;  223,326;32169,223;24,31712
 851,22; 8034,784;  216,018;32044,492;24,56532
 851,78; 8131,535;  262,172;32190,300;24,64711
 852,34; 8041,593;  247,480;31902,878;24,62175
 852,90; 8026,267;  239,711;31744,301;24,71562
 853,46; 7991,018;  221,327;31626,878;24,73987
 854,02; 8137,769;  241,096;31540,686;25,22932
 854,58; 8071,828;  237,558;31283,648;25,23432
 855,14; 8077,809;  227,712;31230,148;25,32090
 855,70; 8040,099;  199,404;31072,802;25,39628
 856,26; 8064,157;  247,482;30999,610;25,41832
 856,82; 8086,370;  223,174;30911,803;25,62251
 857,38; 8109,967;  260,405;30765,842;25,73168
 857,94; 8076,025;  225,559;30693,342;25,76645
 858,50; 8071,469;  250,790;30567,073;25,79696
 859,06; 8027,220;  231,560;30390,266;25,84879
 859,62; 8005,740;  239,868;30330,612;25,80818
 860,18; 8012,106;  229,406;30161,112;26,00152
 860,74; 7992,549;  209,945;29971,689;26,14969
 861,30; 7936,916;  208,791;29742,882;26,16679
 861,86; 8042,513;  270,638;29919,075;26,21344
 862,42; 8035,417;  237,946;29764,806;26,40806
 862,98; 8050,399;  266,176;29637,075;26,50318
 863,54; 8000,073;  236,946;29389,960;26,62890
 864,10; 8076,362;  220,638;29537,691;26,79575
 864,66; 7954,190;  213,639;29320,191;26,59385
 865,22; 8033,326;  229,485;29208,769;26,92903
 865,78; 7980,923;  242,639;29062,269;26,85074
 866,34; 8031,058;  221,255;28983,154;27,15330
 866,90; 8015,425;  246,716;28842,346;27,16747
 867,45; 7961,176;  234,024;28601,462;27,23951
 868,01; 7991,080;  240,717;28463,808;27,46107
 868,57; 7951,293;  228,640;28331,924;27,47954
 869,13; 7895,121;  212,025;28131,732;27,51854
 869,69; 7913,564;  229,871;28104,463;27,56522
 870,25; 7921,930;  212,025;28013,425;27,73207
 870,81; 7914,296;  233,103;27915,694;27,74738
 871,37; 7930,970;  241,103;27851,426;27,85142
 871,93; 7897,952;  241,334;27679,310;27,90519
 872,49; 7841,088;  262,719;27451,272;27,87338
 873,04; 7815,531;  217,411;27275,849;28,08041
 873,60; 7827,589;  217,181;27180,965;28,22456
 874,16; 7799,187;  238,719;27138,312;28,10625
 874,72; 7773,033;  230,104;27081,927;28,09094
 875,28; 7824,417;  240,258;26971,773;28,37160
 875,84; 7781,417;  230,258;26915,388;28,29726
 876,40; 7786,956;  222,027;26777,388;28,48739
 876,95; 7822,571;  237,104;26837,004;28,51690
 877,51; 7849,417;  264,181;26826,235;28,55666
 878,07; 7896,263;  270,719;26808,004;28,73521
 878,63; 7886,725;  226,335;26831,004;28,79341
 879,19; 7919,033;  242,873;26770,696;28,93626
 879,75; 7960,725;  233,488;26885,388;28,99319
 880,30; 7954,494;  235,258;26834,388;29,02063
 880,86; 8056,033;  274,335;27011,312;29,10463
 881,42; 8064,263;  217,181;26987,696;29,31241
 881,98; 8170,340;  251,104;27128,850;29,46392
 882,54; 8223,110;  229,796;27205,542;29,63148
 883,09; 8318,110;  240,104;27280,927;29,87337
 883,65; 8361,263;  221,027;27450,235;29,89524
 884,21; 8469,110;  258,642;27607,927;30,02078
 884,77; 8480,648;  217,412;27540,696;30,24247
 885,32; 8571,494;  232,104;27752,158;30,30296
 885,88; 8714,879;  269,642;27948,927;30,51104
 886,44; 8725,494;  234,258;28056,773;30,51930
 887,00; 8739,571;  260,796;28002,388;30,56340
 887,56; 8807,263;  226,873;28174,927;30,70121
 888,11; 8877,340;  234,565;28173,465;30,93456
 888,67; 8979,340;  261,258;28362,927;31,02336
 889,23; 8992,802;  247,104;28360,696;31,10843
 889,79; 8936,956;  219,873;28214,927;31,13794
 890,34; 8968,725;  241,565;28168,235;31,25027
 890,90; 9113,571;  303,642;28337,619;31,42590
 891,46; 8988,263;  222,335;28240,235;31,28689
 892,01; 9090,648;  253,950;28197,927;31,62291
 892,57; 9111,802;  271,027;28211,465;31,64150
 893,13; 9046,879;  224,335;27922,235;31,85276
 893,69; 9086,802;  227,642;27872,081;32,04681
 894,24; 9078,033;  245,027;27818,542;32,03438
 894,80; 9054,648;  248,181;27712,004;32,06570
 895,36; 9057,725;  239,642;27574,235;32,25979
 895,91; 9014,033;  226,950;27331,773;32,41889
 896,47; 9009,725;  252,335;27288,619;32,39125
 897,03; 8946,571;  230,488;27012,158;32,54496
 897,58; 8938,725;  254,719;27080,619;32,37172
 898,14; 8907,494;  246,796;26719,235;32,71591
 898,70; 8855,802;  204,950;26620,312;32,74932
 899,25; 8858,725;  242,181;26628,465;32,65539
 899,81; 8818,571;  248,104;26450,696;32,70847
 900,37; 8790,033;  208,258;26203,696;33,01262
 900,92; 8831,802;  239,642;26209,081;33,08566
 901,48; 8801,725;  225,412;26078,465;33,17331
 902,03; 8740,879;  212,335;25948,773;33,13801
 902,59; 8676,340;  229,950;25837,081;32,98452
 903,15; 8674,033;  256,488;25704,542;33,07736
 903,70; 8625,648;  245,027;25477,081;33,21419
 904,26; 8610,879;  223,873;25315,773;33,42515
 904,82; 8685,187;  242,873;25352,542;33,62176
 905,37; 8621,110;  246,719;25189,619;33,57425
 905,93; 8569,263;  228,719;25007,312;33,66028
 906,48; 8624,571;  243,796;25006,850;33,84387
 907,04; 8601,033;  253,335;24911,388;33,85384
 907,60; 8541,879;  237,950;24700,542;33,94542
 908,15; 8521,725;  230,027;24588,696;34,04003
 908,71; 8588,956;  257,027;24614,081;34,20746
 909,26; 8537,340;  228,181;24422,619;34,34326
 909,82; 8486,725;  257,412;24211,388;34,35469
 910,37; 8542,263;  277,027;24242,081;34,48870
 910,93; 8456,648;  226,104;24083,312;34,49919
 911,48; 8463,110;  220,181;23858,388;34,87121
 912,04; 8404,340;  236,796;23776,312;34,69716
 912,60; 8521,802;  243,258;23848,235;35,07118
 913,15; 8425,725;  239,873;23565,619;35,09363
 913,71; 8376,263;  219,873;23403,696;35,18139
 914,26; 8364,263;  215,104;23348,850;35,22629
 914,82; 8359,648;  236,412;23261,312;35,28023
 915,37; 8315,263;  223,642;23194,927;35,22494
 915,93; 8329,879;  272,642;23073,158;35,33796
 916,48; 8320,725;  225,719;22937,081;35,64298
 917,04; 8275,340;  247,104;22802,696;35,59311
 917,59; 8285,802;  263,181;22762,158;35,65772
 918,15; 8173,033;  196,488;22562,388;35,66386
 918,70; 8163,110;  220,873;22468,696;35,69894
 919,26; 8133,494;  231,950;22437,081;35,58432
 919,81; 8118,033;  220,719;22235,312;35,87309
 920,37; 8093,033;  228,642;22167,158;35,84741
 920,92; 8097,340;  246,873;22137,081;35,86292
 921,48; 8039,802;  214,488;21839,081;36,18710
 922,03; 8051,494;  225,950;21859,081;36,17389
 922,59; 7978,879;  225,796;21713,158;36,08206
 923,14; 7949,494;  224,796;21644,312;36,06383
 923,69; 7970,725;  250,565;21559,388;36,22987
 924,25; 7945,956;  238,027;21438,619;36,35714
 924,80; 7891,033;  233,719;21291,312;36,36367
 925,36; 7916,956;  226,104;21189,312;36,68738
 925,91; 7871,033;  211,181;21066,542;36,72845
 926,47; 7887,879;  208,565;20966,081;36,99534
 927,02; 7897,494;  280,335;20992,235;36,77673
 927,57; 7841,494;  225,104;20790,696;37,03463
 928,13; 7855,956;  213,796;20660,388;37,37620
 928,68; 7789,571;  225,258;20638,312;37,05626
 929,24; 7809,802;  199,719;20421,388;37,63331
 929,79; 7767,802;  206,335;20327,235;37,58016
 930,34; 7757,725;  226,873;20180,465;37,74184
 930,90; 7759,340;  212,027;20141,465;37,87018
 931,45; 7772,187;  229,027;20157,927;37,85036
 932,01; 7768,879;  225,873;20021,465;38,10447
 932,56; 7767,494;  249,719;19868,388;38,31950
 933,11; 7713,110;  253,488;19857,927;38,05067
 933,67; 7700,879;  220,488;19695,388;38,41042
 934,22; 7698,033;  236,181;19596,312;38,54236
 934,77; 7654,187;  257,950;19538,158;38,36181
 935,33; 7611,417;  227,796;19370,850;38,57076
 935,88; 7616,033;  228,258;19341,158;38,65334
 936,43; 7562,802;  228,642;19217,235;38,62403
 936,99; 7585,417;  232,719;19116,927;38,93570
 937,54; 7529,802;  210,719;18954,773;39,04749
 938,09; 7546,340;  227,412;18975,388;39,03850
 938,65; 7498,263;  220,950;18836,850;39,09192
 939,20; 7500,417;  204,335;18707,773;39,43096
 939,75; 7482,187;  211,565;18689,619;39,34733
 940,31; 7464,571;  210,412;18486,850;39,69132
 940,86; 7469,187;  225,027;18508,004;39,62243
 941,41; 7486,648;  290,565;18399,542;39,73765
 941,96; 7438,033;  219,258;18250,619;40,03455
 942,52; 7375,417;  216,027;18174,235;39,86695
 943,07; 7341,571;  197,488;18061,696;39,99104
 943,62; 7348,571;  217,719;17999,081;40,10296
 944,18; 7333,648;  195,565;17954,158;40,19509
 944,73; 7348,648;  233,027;17856,388;40,37607
 945,28; 7230,340;  191,027;17627,927;40,37021
 945,83; 7290,802;  217,642;17686,773;40,48948
 946,39; 7291,033;  223,335;17662,004;40,52888
 946,94; 7278,494;  245,335;17545,542;40,65361
 947,49; 7237,187;  219,565;17453,696;40,71932
 948,04; 7305,571;  253,719;17367,542;41,20559
 948,59; 7286,956;  244,950;17351,773;41,16490
 949,15; 7216,340;  202,719;17219,850;41,21506
 949,70; 7173,956;  218,104;17085,235;41,23909
 950,25; 7168,648;  237,181;17045,158;41,23915
 950,80; 7168,879;  196,027;16909,081;41,72099
 951,36; 7080,494;  197,873;16863,235;41,29896
 951,91; 7167,571;  230,565;16832,927;41,78325
 952,46; 7017,417;  199,719;16575,158;41,63368
 953,01; 7076,648;  242,950;16650,619;41,64941
 953,56; 7009,571;  195,104;16489,542;41,82082
 954,11; 7049,033;  233,565;16458,312;42,00662
 954,67; 6965,494;  219,719;16418,312;41,64421
 955,22; 6912,802;  207,181;16251,773;41,79365
 955,77; 6919,956;  242,412;16265,004;41,67580
 956,32; 6917,033;  275,181;16178,927;41,76281
 956,87; 6803,263;  206,565;15991,235;41,79180
 957,42; 6826,571;  211,258;15955,850;42,01642
 957,98; 6802,879;  214,335;15911,465;41,97292
 958,53; 6836,417;  238,412;15814,004;42,36119
 959,08; 6778,340;  201,796;15706,619;42,41612
 959,63; 6709,956;  206,796;15611,312;42,21593
 960,18; 6713,187;  229,873;15587,312;42,21611
 960,73; 6720,494;  226,796;15466,158;42,61135
 961,28; 6667,340;  199,873;15403,312;42,53950
 961,83; 6701,187;  238,181;15367,619;42,71808
 962,39; 6622,494;  204,642;15236,542;42,69488
 962,94; 6646,263;  228,181;15135,158;43,05422
 963,49; 6564,263;  223,565;15083,158;42,67074
 964,04; 6565,110;  235,642;15060,927;42,69373
 964,59; 6534,725;  190,873;14878,773;43,19101
 965,14; 6565,417;  237,950;14853,158;43,29372
 965,69; 6495,110;  226,181;14738,388;43,19762
 966,24; 6488,263;  216,104;14616,465;43,55557
 966,79; 6472,725;  233,488;14561,158;43,54677
 967,34; 6367,879;  193,104;14409,696;43,43358
 967,89; 6414,494;  206,027;14404,312;43,72688
 968,44; 6383,725;  216,027;14305,773;43,77437
 968,99; 6372,648;  221,950;14292,465;43,71338
 969,55; 6340,187;  222,027;14166,619;43,87478
 970,10; 6326,187;  226,488;14098,312;43,97186
 970,65; 6278,263;  246,873;14004,696;43,83971
 971,20; 6222,571;  214,181;13909,773;43,87098
 971,75; 6237,263;  197,796;13668,542;44,83395
 972,30; 6159,725;  223,104;13699,081;44,05336
 972,85; 6106,802;  212,181;13631,004;43,92800
 973,40; 6105,571;  206,258;13559,158;44,18002
 973,95; 6115,725;  222,719;13453,312;44,54076
 974,50; 6097,725;  246,565;13406,773;44,46100
 975,05; 6032,033;  227,335;13275,619;44,48629
 975,60; 6008,648;  233,642;13192,388;44,56454
 976,15; 5990,494;  213,719;13086,158;44,87708
 976,70; 5968,340;  225,719;13024,312;44,86916
 977,25; 5925,648;  228,950;12980,388;44,67494
 977,80; 5892,956;  205,104;12853,542;44,96881
 978,35; 5859,263;  228,565;12647,773;45,33863
 978,89; 5845,956;  198,719;12588,388;45,58020
 979,44; 5817,571;  228,873;12625,081;45,08393
 979,99; 5752,725;  209,873;12401,619;45,46397
 980,54; 5817,956;  243,412;12386,850;45,90581
 981,09; 5767,879;  239,258;12232,388;46,09823
 981,64; 5716,802;  234,873;12097,773;46,21070
 982,19; 5683,417;  261,027;12125,081;45,70436
 982,74; 5651,494;  245,027;11893,081;46,41520
 983,29; 5554,879;  213,950;11764,619;46,23913
 983,84; 5547,879;  235,258;11668,773;46,46533
 984,39; 5575,033;  303,104;11711,542;46,21078
 984,94; 5458,725;  203,027;11481,619;46,59888
 985,49; 5449,879;  250,873;11470,542;46,33832
 986,03; 5462,340;  250,488;11413,235;46,68969
 986,58; 5421,263;  276,027;11242,619;46,91737
 987,13; 5335,879;  237,027;11119,465;46,85395
 987,68; 5277,263;  235,335;11045,773;46,63945
 988,23; 5248,802;  237,258;10984,850;46,62946
 988,78; 5182,956;  223,873;10863,235;46,61072
 989,33; 5223,033;  241,873;10732,696;47,48111
 989,88; 5210,648;  249,642;10721,619;47,37411
 990,42; 5108,494;  232,642;10586,158;47,09369
 990,97; 5039,879;  224,950;10463,004;47,02973
 991,52; 5067,725;  253,719;10376,850;47,55452
 992,07; 5008,725;  255,873;10301,927;47,31064
 992,62; 4978,648;  239,873;10217,773;47,49271
 993,17; 4955,110;  238,181;10072,004;47,96638
 993,71; 4921,187;  248,950; 9954,235;48,14116
 994,26; 4833,956;  222,181; 9825,850;48,02097
 994,81; 4850,110;  250,181; 9767,850;48,33041
 995,36; 4746,417;  226,719; 9628,773;48,07139
 995,91; 4725,110;  235,258; 9593,004;47,98006
 996,45; 4729,571;  236,335; 9483,619;48,58979
 997,00; 4647,879;  207,950; 9335,850;48,64130
 997,55; 4641,879;  233,873; 9334,927;48,43401
 998,10; 4597,648;  265,488; 9163,773;48,68533
 998,65; 4586,263;  231,412; 9172,465;48,70625
 999,19; 4531,725;  252,104; 9013,158;48,84825
 999,74; 4513,263;  276,181; 8985,542;48,64975
1000,29; 4484,802;  246,719; 8828,773;49,38308
1000,84; 4399,879;  223,104; 8741,696;49,03128
1001,38; 4333,648;  237,412; 8648,388;48,70108
1001,93; 4357,879;  248,181; 8601,158;49,20040
1002,48; 4288,187;  221,950; 8410,542;49,65733
1003,03; 4295,033;  238,565; 8394,696;49,73519
1003,57; 4210,494;  249,719; 8249,158;49,51316
1004,12; 4215,340;  272,412; 8205,235;49,70398
1004,67; 4143,263;  226,719; 8094,235;49,78121
1005,22; 4076,648;  217,796; 7967,081;49,79623
1005,76; 4046,956;  217,335; 7848,235;50,18571
1006,31; 4045,956;  247,642; 7815,850;50,18775
1006,86; 3949,033;  222,104; 7678,850;49,98063
1007,40; 3897,263;  210,950; 7571,850;50,07966
1007,95; 3895,340;  236,873; 7480,158;50,50840
1008,50; 3851,956;  231,642; 7337,388;50,94910
1009,04; 3792,417;  219,950; 7249,004;50,82430
1009,59; 3738,648;  240,412; 7142,312;50,68512
1010,14; 3700,110;  216,335; 7033,312;51,10440
1010,68; 3651,340;  229,565; 6973,773;50,73650
1011,23; 3608,956;  224,950; 6797,542;51,48662
1011,78; 3563,956;  234,181; 6780,465;50,86511
1012,32; 3522,110;  247,565; 6639,465;51,22959
1012,87; 3541,263;  253,412; 6621,081;51,63352
1013,42; 3445,033;  218,258; 6484,004;51,49866
1013,96; 3485,571;  258,488; 6507,081;51,64496
1014,51; 3388,340;  198,335; 6424,619;51,23450
1015,06; 3378,494;  204,335; 6429,158;50,99197
1015,60; 3441,879;  268,565; 6443,619;51,38924
1016,15; 3438,263;  224,104; 6407,542;51,98013
1016,69; 3431,802;  233,950; 6431,158;51,60150
1017,24; 3443,725;  205,258; 6454,927;51,81822
1017,79; 3501,956;  251,796; 6551,081;51,59569
1018,33; 3481,033;  218,412; 6526,158;51,72404
1018,88; 3543,033;  242,258; 6598,927;51,92617
1019,42; 3526,956;  229,412; 6609,388;51,68583
1019,97; 3520,033;  209,642; 6586,388;51,91347
1020,51; 3581,417;  243,335; 6614,927;52,39009
1021,06; 3526,571;  199,258; 6623,081;51,79647
1021,61; 3573,340;  204,258; 6566,081;52,95782
1022,15; 3523,879;  180,027; 6530,927;52,65162
1022,70; 3539,725;  223,873; 6544,388;52,46173
1023,24; 3492,033;  217,104; 6506,696;52,06902
1023,79; 3467,417;  214,873; 6440,312;52,24603
1024,33; 3485,417;  219,642; 6432,696;52,56312
1024,88; 3449,417;  224,565; 6301,158;53,07007
1025,42; 3435,571;  216,335; 6201,773;53,78447
1025,97; 3382,879;  219,027; 6159,696;53,25750
1026,51; 3253,110;  185,488; 6011,927;52,65002
1027,06; 3283,033;  206,488; 5991,850;53,17808
1027,60; 3218,802;  239,258; 5887,235;52,75419
1028,15; 3214,263;  245,873; 5774,696;53,68937
1028,69; 3133,956;  198,950; 5671,004;53,63627
1029,24; 3130,956;  217,104; 5593,542;54,19669
1029,78; 3080,033;  215,181; 5512,696;54,07916
1030,33; 2985,879;  196,565; 5423,542;53,36380
1030,87; 2967,033;  222,642; 5339,312;53,63627
1031,42; 2919,802;  202,181; 5270,850;53,61607
1031,96; 2913,340;  233,488; 5172,465;54,25925
1032,51; 2857,033;  211,796; 5112,696;53,97451
1033,05; 2845,648;  216,104; 5063,465;54,24692
1033,60; 2757,494;  191,950; 4923,927;54,21718
1034,14; 2748,802;  213,565; 4874,388;54,39461
1034,69; 2716,263;  219,642; 4796,312;54,55105
1035,23; 2691,033;  208,796; 4739,927;54,78183
1035,77; 2677,110;  201,412; 4670,388;55,39742
1036,32; 2625,417;  190,950; 4605,312;55,14880
1036,86; 2601,725;  214,335; 4557,312;54,97129
1037,41; 2564,340;  225,104; 4481,542;54,95760
1037,95; 2509,802;  194,104; 4382,773;55,28482
1038,50; 2489,725;  206,412; 4372,696;54,80455
1039,04; 2491,648;  233,027; 4333,235;55,08553
1039,58; 2424,417;  196,488; 4222,388;55,33990
1040,13; 2391,956;  218,181; 4185,004;54,79889
1040,67; 2429,263;  237,488; 4167,081;55,77614
1041,21; 2380,802;  238,565; 4070,696;55,90197
1041,76; 2284,725;  199,104; 4016,850;54,62964
1042,30; 2285,802;  215,104; 3950,158;55,43958
1042,85; 2255,956;  217,335; 3897,235;55,39882
1043,39; 2235,187;  207,258; 3822,235;56,09797
1043,93; 2228,725;  223,335; 3783,773;56,32425
1044,48; 2190,956;  223,412; 3736,850;56,00053
1045,02; 2142,648;  213,104; 3690,850;55,48261
1045,56; 2145,263;  232,719; 3675,850;55,54666
1046,11; 2108,725;  220,642; 3615,004;55,62409
1046,65; 2061,417;  229,488; 3556,773;55,05777
1047,19; 2027,263;  207,104; 3511,465;55,08355
1047,74; 2004,956;  197,950; 3420,388;56,07573
1048,28; 1989,648;  220,181; 3400,927;55,63057
1048,82; 1995,187;  238,719; 3362,388;56,23090
1049,37; 1946,033;  228,412; 3294,004;56,02901
1049,91; 1935,033;  230,796; 3252,158;56,40624
1050,45; 1900,033;  233,258; 3229,158;55,63520
1050,99; 1893,033;  216,642; 3161,927;56,91777
1051,54; 1825,263;  208,796; 3103,696;55,83845
1052,08; 1859,956;  250,796; 3090,235;56,67176
1052,62; 1814,879;  236,719; 3048,696;56,12278
1053,16; 1773,340;  217,412; 2967,004;56,58762
1053,71; 1770,494;  230,565; 2937,465;56,88902
1054,25; 1725,340;  241,719; 2895,773;55,90019
1054,79; 1701,648;  231,642; 2873,235;55,64847
1055,33; 1669,725;  195,488; 2796,696;56,67508
1055,88; 1684,187;  231,412; 2778,312;57,04091
1056,42; 1670,879;  245,873; 2757,388;56,73888
1056,96; 1641,494;  238,565; 2705,158;56,87721
1057,50; 1624,725;  224,104; 2676,312;57,11674
1058,05; 1597,187;  221,335; 2629,773;57,12631
1058,59; 1583,725;  247,565; 2595,850;56,89939
1059,13; 1534,340;  206,181; 2532,158;57,10115
1059,67; 1532,263;  224,642; 2534,235;56,61697
1060,21; 1510,110;  218,796; 2464,235;57,50830
1060,76; 1505,033;  229,565; 2448,081;57,49193
1061,30; 1493,263;  248,565; 2444,773;56,67488
1061,84; 1456,033;  229,796; 2349,312;57,85457
1062,38; 1419,340;  218,335; 2286,542;58,06988
1062,92; 1464,417;  266,488; 2345,081;57,63174
1063,46; 1419,494;  247,181; 2274,388;57,82898
1064,01; 1389,340;  224,412; 2233,927;57,97064
1064,55; 1374,956;  231,565; 2217,773;57,56651
1065,09; 1336,571;  204,565; 2145,388;58,32607
1065,63; 1385,494;  253,719; 2166,388;59,17254
1066,17; 1377,263;  262,796; 2143,465;59,25908
1066,71; 1343,725;  247,258; 2125,388;58,38078
1067,25; 1302,956;  241,950; 2079,927;57,72683
1067,80; 1304,417;  256,873; 2061,696;58,04138
1068,34; 1307,417;  258,950; 2065,619;58,03316
1068,88; 1267,494;  225,181; 1990,696;59,03735
1069,42; 1266,263;  252,488; 2018,696;57,39840
1069,96; 1235,110;  234,642; 1949,081;58,35539
1070,50; 1280,879;  276,488; 1963,081;59,55146
1071,04; 1198,110;  220,950; 1888,696;58,59163
1071,58; 1199,571;  232,796; 1878,081;58,76035
1072,12; 1182,110;  233,796; 1855,081;58,49149
1072,66; 1171,033;  227,181; 1840,158;58,51615
1073,21; 1181,802;  243,104; 1838,004;58,85623
1073,75; 1152,417;  238,488; 1792,850;58,79770
1074,29; 1139,571;  245,950; 1790,388;57,86059
1074,83; 1138,879;  250,642; 1768,542;58,51746
1075,37; 1138,417;  255,796; 1760,542;58,65582
1075,91; 1112,648;  255,873; 1747,312;57,44622
1076,45; 1098,110;  236,565; 1700,004;58,87123
1076,99; 1090,648;  245,488; 1654,004;60,00358
1077,53; 1066,494;  229,104; 1627,004;59,90345
1078,07; 1051,417;  242,258; 1641,927;57,81077
1078,61; 1053,648;  237,412; 1612,081;59,37694
1079,15; 1020,263;  235,719; 1601,004;57,46379
1079,69; 1012,571;  236,796; 1561,235;58,57388
1080,23; 1025,263;  253,335; 1567,850;58,72345
1080,77; 1049,648;  284,719; 1574,388;59,31202
1081,31;  986,033;  219,565; 1499,235;59,89574
1081,85; 1002,956;  250,719; 1528,004;58,89342
1082,39;  976,187;  228,027; 1476,927;59,90549
1082,93;  974,648;  249,950; 1489,312;58,47350
1083,47;  932,494;  228,565; 1438,773;58,16595
1084,01;  940,494;  246,027; 1466,388;56,90669
1084,55;  929,263;  235,258; 1420,004;58,57844
1085,09;  927,648;  247,950; 1420,004;57,99205
1085,63;  907,725;  254,335; 1380,158;58,03668
1086,17;  889,033;  224,719; 1372,158;57,89535
1086,71;  896,340;  229,796; 1356,773;59,14444
1087,24;  901,110;  266,642; 1373,927;57,29939
1087,78;  901,417;  249,258; 1344,235;59,55921
1088,32;  863,417;  234,488; 1302,312;58,89823
1088,86;  868,879;  255,027; 1325,696;57,33348
1089,40;  863,110;  239,335; 1279,004;59,99745
1089,94;  826,725;  223,027; 1243,081;59,18296
1090,48;  835,033;  243,258; 1242,312;59,23354
1091,02;  829,802;  254,258; 1254,081;57,56461
1091,56;  811,802;  240,642; 1240,312;57,13486
1092,10;  803,494;  213,412; 1184,927;60,73838
1092,63;  825,110;  259,258; 1217,465;59,05316
1093,17;  807,187;  244,719; 1203,004;58,69522
1093,71;  781,417;  229,488; 1160,235;59,29961
1094,25;  808,417;  264,950; 1180,158;59,38186
1094,79;  782,340;  240,488; 1147,542;59,73757
1095,33;  776,648;  247,796; 1127,312;60,12992
1095,87;  749,110;  240,412; 1124,619;57,53151
1096,40;  726,648;  216,950; 1088,619;58,47379
1096,94;  745,802;  242,104; 1091,927;59,27093
1097,48;  750,956;  251,181; 1084,465;59,97651
1098,02;  727,187;  236,181; 1071,927;58,75059
1098,56;  696,417;  208,104; 1018,388;60,26444
1099,10;  691,110;  220,719; 1013,850;59,30805
1099,63;  693,648;  216,642; 1022,465;59,19485
1100,17;  705,263;  235,565; 1028,696;59,22076
1100,71;  735,494;  259,719; 1034,465;61,41044

