
Integration time [ms]: 120,000
Averaging Nr. [scans]: 13
Smoothing Nr. [pixels]: 0
Data measured with spectrometer [name]: 2009305U1
Wave   ;Sample   ;Dark     ;Reference;Reflectance
[nm]   ;[counts] ;[counts] ;[counts] ;[%]

 175,72;  193,951;  198,725;  209,729;-43,38210
 176,32;  219,880;  233,791;  221,495; 0,00000
 176,92;  252,881;  251,952;  246,144; 0,00000
 177,52;  266,777;  249,569;  261,381;145,67980
 178,12;  232,118;  210,945;  220,620;218,83592
 178,72;  272,502;  248,635;  250,038;1700,64258
 179,32;  245,481;  255,406;  241,911; 0,00000
 179,92;  250,334;  255,641;  248,129; 0,00000
 180,52;  245,466;  233,115;  240,492;167,41015
 181,12;  257,858;  249,103;  245,056; 0,00000
 181,73;  264,069;  265,873;  272,598;-26,83121
 182,33;  348,375;  349,879;  341,303; 0,00000
 182,93;  268,795;  259,492;  262,580;301,21535
 183,53;  238,873;  241,402;  230,123; 0,00000
 184,13;  239,458;  231,942;  223,284; 0,00000
 184,73;  273,732;  262,785;  270,840;135,90156
 185,33;  268,839;  235,800;  340,235;31,63568
 185,93;  257,059;  233,331;  341,231;21,99024
 186,53;  280,590;  252,412;  358,480;26,56536
 187,13;  302,527;  259,651;  408,456;28,81332
 187,73;  261,637;  235,102;  356,651;21,83045
 188,33;  263,893;  242,097;  355,217;19,26799
 188,93;  278,822;  252,084;  372,324;22,23724
 189,53;  277,792;  250,458;  375,462;21,86619
 190,13;  319,958;  288,441;  393,447;30,01438
 190,73;  251,273;  221,607;  354,699;22,29013
 191,34;  293,811;  261,772;  383,107;26,40544
 191,94;  277,019;  243,170;  355,212;30,21075
 192,54;  277,462;  244,657;  378,976;24,42339
 193,14;  285,681;  261,650;  386,945;19,17961
 193,74;  265,573;  256,803;  371,292; 7,66016
 194,34;  271,797;  254,345;  379,723;13,91975
 194,94;  247,161;  215,650;  345,606;24,24764
 195,54;  237,754;  198,339;  325,621;30,96678
 196,14;  262,422;  226,731;  350,792;28,76855
 196,74;  248,408;  216,030;  338,690;26,39690
 197,34;  225,102;  203,967;  338,400;15,72159
 197,94;  262,845;  224,267;  375,503;25,50873
 198,54;  262,484;  232,346;  384,669;19,78535
 199,14;  237,275;  223,046;  367,104; 9,87689
 199,74;  232,795;  202,354;  368,520;18,31938
 200,34;  223,896;  194,509;  366,971;17,03986
 200,94;  271,682;  234,889;  406,748;21,40888
 201,54;  239,196;  216,814;  407,160;11,75826
 202,14;  267,605;  240,665;  454,320;12,60906
 202,74;  249,865;  228,200;  447,857; 9,86304
 203,34;  233,272;  181,976;  463,089;18,24739
 203,94;  201,436;  166,204;  459,631;12,00690
 204,54;  282,248;  236,729;  542,983;14,86304
 205,14;  240,568;  194,585;  536,212;13,46003
 205,74;  284,386;  237,668;  639,180;11,63542
 206,34;  251,993;  204,050;  630,780;11,23515
 206,94;  266,987;  210,433;  685,452;11,90568
 207,54;  229,910;  177,588;  721,425; 9,62088
 208,14;  258,304;  208,358;  795,906; 8,50081
 208,74;  260,253;  208,200;  848,241; 8,13284
 209,34;  274,480;  207,355;  912,599; 9,51796
 209,94;  303,579;  216,431; 1015,259;10,90942
 210,54;  277,633;  207,205; 1109,050; 7,80927
 211,14;  297,154;  214,662; 1195,427; 8,41102
 211,73;  305,639;  208,506; 1299,988; 8,89923
 212,33;  322,085;  222,812; 1397,255; 8,45279
 212,93;  302,752;  208,738; 1479,640; 7,39741
 213,53;  298,850;  184,046; 1538,349; 8,47699
 214,13;  321,954;  193,748; 1630,932; 8,92066
 214,73;  313,759;  179,434; 1625,550; 9,28864
 215,33;  295,733;  163,585; 1674,567; 8,74580
 215,93;  337,163;  208,899; 1774,717; 8,19151
 216,53;  308,620;  168,430; 1832,838; 8,42283
 217,13;  392,215;  229,436; 2022,497; 9,07827
 217,73;  372,895;  197,822; 2208,241; 8,70828
 218,33;  368,642;  156,057; 2364,675; 9,62526
 218,93;  416,569;  181,834; 2630,757; 9,58521
 219,53;  451,470;  180,903; 2889,476; 9,98927
 220,13;  459,296;  168,059; 3125,529; 9,84751
 220,73;  496,773;  190,893; 3430,322; 9,44239
 221,32;  555,176;  184,508; 3811,856;10,21873
 221,92;  600,337;  193,366; 4182,543;10,20188
 222,52;  614,979;  172,284; 4562,289;10,08416
 223,12;  675,001;  184,900; 4945,153;10,29569
 223,72;  731,905;  200,285; 5311,646;10,40076
 224,32;  745,187;  192,747; 5676,679;10,07379
 224,92;  784,081;  183,362; 5950,894;10,41552
 225,52;  827,584;  207,356; 6276,099;10,22004
 226,12;  877,988;  187,051; 6571,650;10,82193
 226,72;  878,000;  160,666; 6841,878;10,73658
 227,31;  902,970;  156,666; 7219,939;10,56598
 227,91;  957,200;  190,894; 7541,280;10,42539
 228,51; 1010,666;  186,812; 7911,520;10,66518
 229,11; 1051,993;  181,820; 8271,138;10,75706
 229,71; 1061,510;  176,122; 8541,977;10,58335
 230,31; 1105,445;  169,748; 8933,640;10,67673
 230,91; 1136,024;  158,502; 9183,125;10,83172
 231,51; 1169,866;  167,360; 9538,918;10,69732
 232,10; 1218,671;  169,980; 9825,075;10,86153
 232,70; 1267,797;  177,422;10037,261;11,05875
 233,30; 1317,141;  204,206;10330,930;10,99008
 233,90; 1325,420;  173,898;10431,145;11,22642
 234,50; 1329,697;  173,514;10561,102;11,13043
 235,10; 1361,927;  170,439;10679,048;11,33821
 235,70; 1354,820;  196,355;10707,048;11,02177
 236,29; 1379,429;  189,507;10660,055;11,36447
 236,89; 1362,859;  164,349;10563,896;11,52463
 237,49; 1402,358;  187,436;10546,988;11,72756
 238,09; 1386,147;  169,434;10299,934;12,01040
 238,69; 1399,557;  199,577;10085,824;12,13787
 239,29; 1346,855;  173,126; 9816,008;12,17197
 239,89; 1332,272;  193,964; 9557,989;12,15618
 240,48; 1297,195;  169,819; 9189,380;12,49924
 241,08; 1272,035;  173,895; 8870,359;12,62744
 241,68; 1271,279;  202,973; 8542,428;12,81026
 242,28; 1205,288;  173,206; 8296,267;12,70559
 242,88; 1237,705;  210,364; 8015,271;13,16276
 243,48; 1235,607;  214,359; 7813,649;13,43874
 244,07; 1185,479;  190,279; 7524,495;13,56928
 244,67; 1189,114;  193,589; 7335,200;13,93978
 245,27; 1194,563;  198,121; 7224,988;14,18045
 245,87; 1207,798;  202,978; 7137,422;14,49026
 246,47; 1206,207;  186,737; 7152,619;14,63519
 247,06; 1223,071;  178,433; 7115,577;15,05861
 247,66; 1247,890;  190,742; 7171,967;15,14273
 248,26; 1312,100;  211,199; 7383,422;15,34951
 248,86; 1352,247;  187,583; 7554,528;15,80932
 249,46; 1351,192;  151,745; 7751,040;15,78366
 250,05; 1508,617;  205,203; 8059,625;16,59465
 250,65; 1522,886;  156,351; 8391,138;16,59465
 251,25; 1630,471;  175,510; 8846,420;16,77980
 251,85; 1755,536;  188,657; 9377,235;17,05247
 252,44; 1872,840;  152,046;10031,610;17,41771
 253,04; 2032,850;  201,662;10746,245;17,36614
 253,64; 2141,117;  153,197;11314,012;17,81161
 254,24; 2357,404;  191,741;12220,363;18,00425
 254,84; 2558,577;  166,745;13137,194;18,44062
 255,43; 2761,817;  180,354;13986,565;18,69784
 256,03; 2958,216;  179,120;14914,490;18,86003
 256,63; 3196,445;  182,657;15992,265;19,06302
 257,23; 3317,884;  178,195;16766,067;18,92762
 257,82; 3594,158;  187,423;17744,651;19,40361
 258,42; 3673,259;  152,113;18540,057;19,14921
 259,02; 3976,546;  195,508;19439,475;19,64791
 259,62; 4102,821;  174,574;20014,745;19,79946
 260,21; 4264,931;  187,584;20539,271;20,03444
 260,81; 4359,256;  174,128;20993,664;20,10193
 261,41; 4461,742;  166,037;21535,894;20,10170
 262,01; 4581,683;  206,264;21932,846;20,13855
 262,60; 4632,269;  161,657;22263,375;20,22744
 263,20; 4766,566;  174,198;22619,064;20,46066
 263,80; 4850,841;  197,880;22817,691;20,57029
 264,40; 4823,668;  155,342;23010,849;20,42539
 264,99; 4875,665;  195,802;23187,520;20,35456
 265,59; 4921,571;  168,336;23290,435;20,55711
 266,19; 4949,284;  175,572;23408,876;20,54685
 266,78; 4982,235;  207,185;23564,540;20,44346
 267,38; 4937,625;  185,875;23535,671;20,35029
 267,98; 4941,660;  178,493;23588,757;20,34649
 268,58; 4958,442;  189,029;23610,424;20,36349
 269,17; 4944,109;  178,179;23588,237;20,35847
 269,77; 4870,794;  192,578;23479,767;20,08922
 270,37; 4828,823;  161,110;23253,673;20,21306
 270,96; 4777,067;  219,115;23179,220;19,85162
 271,56; 4700,646;  181,041;22949,788;19,85004
 272,16; 4673,812;  181,652;22839,153;19,82637
 272,75; 4625,020;  179,345;22647,263;19,78677
 273,35; 4581,103;  185,962;22752,668;19,47622
 273,95; 4572,540;  182,345;22634,525;19,55354
 274,54; 4536,620;  162,280;22661,239;19,44241
 275,14; 4610,975;  199,500;23009,838;19,33980
 275,74; 4551,394;  157,729;22979,523;19,25206
 276,33; 4637,212;  206,040;23339,167;19,15509
 276,93; 4672,290;  185,666;23789,475;19,00805
 277,53; 4743,796;  184,200;24196,394;18,98867
 278,12; 4804,132;  159,196;24656,393;18,96109
 278,72; 4961,759;  210,968;25209,099;19,00459
 279,32; 5017,493;  177,353;25795,343;18,89352
 279,91; 5155,054;  173,275;26468,338;18,94568
 280,51; 5261,975;  180,661;27006,795;18,94165
 281,11; 5389,563;  181,582;27679,169;18,93978
 281,70; 5504,714;  155,889;28143,812;19,11119
 282,30; 5664,185;  175,887;28664,557;19,26484
 282,90; 5793,756;  184,733;29140,880;19,37075
 283,49; 5913,469;  191,654;29639,315;19,43046
 284,09; 6040,645;  209,735;30013,118;19,56459
 284,69; 6156,083;  208,352;30383,634;19,71060
 285,28; 6264,279;  198,581;30659,164;19,91327
 285,88; 6435,998;  234,268;31004,553;20,15493
 286,47; 6531,698;  178,656;30948,156;20,64720
 287,07; 6667,280;  220,122;30971,081;20,96572
 287,67; 6812,838;  205,282;31249,572;21,28429
 288,26; 6946,269;  173,583;31154,111;21,86111
 288,86; 7127,919;  177,427;31163,873;22,43075
 289,46; 7331,786;  194,890;31354,786;22,90411
 290,05; 7490,490;  176,971;31383,773;23,43566
 290,65; 7795,618;  191,425;31591,261;24,21730
 291,24; 8016,639;  197,814;31745,730;24,78396
 291,84; 8234,599;  198,734;31851,188;25,38781
 292,44; 8524,380;  193,513;31994,544;26,19684
 293,03; 8829,855;  249,968;32153,222;26,89345
 293,63; 8968,265;  186,964;32285,480;27,35734
 294,22; 9224,116;  208,736;32427,446;27,98182
 294,82; 9354,462;  179,111;32457,635;28,42556
 295,41; 9404,868;  168,197;32179,428;28,85447
 296,01; 9533,995;  220,882;32137,119;29,17986
 296,61; 9605,873;  209,660;31938,498;29,61411
 297,20; 9521,570;  198,652;31498,260;29,78605
 297,80; 9620,452;  189,818;31371,885;30,24377
 298,39; 9478,459;  168,349;31012,542;30,18432
 298,99; 9527,327;  196,577;30953,082;30,33749
 299,58; 9444,055;  210,666;30637,168;30,34654
 300,18; 9474,160;  218,664;30536,651;30,52807
 300,78; 9353,308;  187,969;30175,812;30,56351
 301,37; 9351,637;  210,801;30210,608;30,46965
 301,97; 9343,065;  192,736;30210,385;30,48316
 302,56; 9348,075;  180,117;30097,031;30,64473
 303,16; 9298,545;  178,501;30021,826;30,55975
 303,75; 9264,846;  188,816;30056,938;30,38701
 304,35; 9325,543;  181,592;30296,229;30,36381
 304,94; 9281,167;  192,275;30223,710;30,26460
 305,54; 9267,792;  202,738;30212,702;30,20681
 306,13; 9205,136;  162,515;30220,877;30,08354
 306,73; 9095,413;  171,667;29981,020;29,93606
 307,33; 9066,692;  197,897;30003,878;29,75509
 307,92; 9032,730;  200,276;30009,930;29,62951
 308,52; 9111,491;  164,039;30460,332;29,53316
 309,11; 9224,175;  184,805;30865,317;29,46291
 309,71; 9225,851;  165,957;31097,892;29,28978
 310,30; 9233,137;  168,199;31341,744;29,07895
 310,90; 9384,676;  214,660;31732,359;29,09481
 311,49; 9357,976;  187,198;31844,388;28,96902
 312,09; 9314,343;  150,125;31981,436;28,78995
 312,68; 9417,466;  221,508;32445,118;28,53795
 313,28; 9368,961;  164,968;32508,776;28,45674
 313,87; 9361,097;  155,737;32612,835;28,36162
 314,47; 9380,123;  179,883;32880,460;28,13479
 315,06; 9277,496;  164,892;33020,392;27,73540
 315,66; 9304,189;  163,895;33161,590;27,69980
 316,25; 9219,091;  153,271;33134,720;27,48763
 316,85; 9178,954;  150,895;33146,514;27,36139
 317,44; 9206,091;  168,882;33320,627;27,26013
 318,04; 9082,632;  157,041;33358,819;26,88287
 318,63; 8991,658;  156,129;33413,451;26,56717
 319,22; 9010,699;  181,886;33687,260;26,35044
 319,82; 8915,268;  176,965;33726,732;26,04579
 320,41; 8816,676;  188,887;33581,370;25,83752
 321,01; 8751,277;  194,740;33730,664;25,51454
 321,60; 8692,216;  183,350;33856,364;25,26910
 322,20; 8600,063;  167,276;33758,639;25,10403
 322,79; 8500,049;  207,430;33929,362;24,59117
 323,39; 8505,309;  173,438;34018,334;24,61781
 323,98; 8339,330;  164,200;33942,472;24,20233
 324,58; 8334,121;  173,116;33789,917;24,27657
 325,17; 8180,439;  185,502;33722,475;23,83917
 325,76; 8164,163;  194,121;33481,634;23,94304
 326,36; 7932,926;  166,894;33169,218;23,53177
 326,95; 7809,194;  201,197;32821,858;23,32263
 327,55; 7654,103;  172,273;32580,839;23,08597
 328,14; 7500,796;  161,050;32147,564;22,94638
 328,74; 7335,863;  198,502;31792,923;22,59057
 329,33; 7220,992;  195,278;31370,401;22,53628
 329,92; 7046,893;  154,959;30887,103;22,42582
 330,52; 6844,019;  189,204;30203,412;22,17222
 331,11; 6745,692;  187,197;29806,103;22,14294
 331,71; 6513,208;  178,967;29282,569;21,76446
 332,30; 6396,783;  195,506;28842,479;21,64723
 332,89; 6270,293;  236,124;28405,815;21,42078
 333,49; 6107,978;  194,351;27811,673;21,41275
 334,08; 5925,396;  177,196;27493,100;21,04342
 334,68; 5827,517;  192,581;27000,316;21,01982
 335,27; 5748,985;  191,512;26650,986;21,00372
 335,86; 5695,769;  222,889;26456,564;20,86204
 336,46; 5564,857;  194,436;26199,541;20,65141
 337,05; 5439,279;  176,966;26018,241;20,36398
 337,65; 5386,378;  160,811;25875,670;20,32119
 338,24; 5397,133;  224,123;25891,948;20,15367
 338,83; 5388,143;  200,738;25754,918;20,29963
 339,43; 5289,962;  173,348;25758,583;19,99831
 340,02; 5255,652;  175,578;25570,534;20,00426
 340,61; 5211,404;  177,122;25648,038;19,76482
 341,21; 5225,863;  210,963;25690,769;19,68186
 341,80; 5178,444;  189,657;25615,084;19,62125
 342,40; 5180,260;  180,589;25697,459;19,59359
 342,99; 5160,831;  179,355;25775,661;19,46170
 343,58; 5161,761;  181,355;25977,863;19,30651
 344,18; 5202,028;  197,971;26092,927;19,32445
 344,77; 5208,454;  165,732;26394,318;19,22605
 345,36; 5231,963;  166,658;26652,242;19,12476
 345,96; 5312,406;  207,432;26959,571;19,08249
 346,55; 5334,104;  170,207;27168,889;19,12648
 347,14; 5403,150;  163,435;27487,598;19,17612
 347,74; 5436,374;  144,827;27869,864;19,08581
 348,33; 5610,990;  178,596;28420,892;19,23496
 348,92; 5653,796;  181,599;29109,307;18,91680
 349,52; 5745,182;  159,597;29486,131;19,04618
 350,11; 5806,572;  177,654;29780,485;19,01479
 350,70; 5806,053;  172,122;29801,438;19,01472
 351,29; 5781,129;  170,031;29587,678;19,07392
 351,89; 5778,315;  198,574;29521,502;19,02859
 352,48; 5717,239;  154,891;29577,683;18,90490
 353,07; 5754,150;  190,436;29611,494;18,91065
 353,67; 5739,539;  195,061;29508,263;18,91461
 354,26; 5735,627;  186,127;29303,183;19,05927
 354,85; 5689,921;  183,049;29206,884;18,97362
 355,45; 5679,225;  160,580;28976,851;19,15114
 356,04; 5648,186;  177,667;28863,558;19,07042
 356,63; 5655,758;  201,736;28756,951;19,09992
 357,22; 5650,548;  182,033;28529,688;19,29089
 357,82; 5638,221;  178,573;28303,126;19,41239
 358,41; 5643,893;  197,198;28225,802;19,43263
 359,00; 5592,977;  169,194;28039,475;19,46081
 359,60; 5618,118;  190,200;27965,671;19,54213
 360,19; 5595,665;  189,283;27739,961;19,62341
 360,78; 5609,118;  188,811;27658,808;19,73173
 361,37; 5619,407;  176,735;27434,916;19,96711
 361,97; 5601,486;  189,428;27383,861;19,90135
 362,56; 5534,114;  173,116;27056,561;19,94163
 363,15; 5560,140;  215,273;26861,468;20,05865
 363,74; 5507,965;  191,806;26488,153;20,21634
 364,34; 5470,519;  201,425;26092,628;20,35091
 364,93; 5387,741;  181,423;25766,867;20,34875
 365,52; 5352,692;  158,350;25396,410;20,58138
 366,11; 5314,299;  179,348;25099,599;20,60554
 366,71; 5275,314;  171,271;24664,030;20,83899
 367,30; 5211,165;  181,274;24351,150;20,81058
 367,89; 5306,463;  218,356;24117,806;21,28964
 368,48; 5221,082;  193,114;23831,370;21,27047
 369,07; 5122,745;  180,045;23481,745;21,21176
 369,67; 5175,115;  211,038;23145,589;21,64453
 370,26; 5129,016;  176,584;22904,962;21,78964
 370,85; 5110,447;  189,581;22579,595;21,97795
 371,44; 5096,629;  185,197;22472,583;22,03682
 372,03; 5075,842;  164,425;22167,136;22,32187
 372,63; 5040,036;  157,812;21893,705;22,46158
 373,22; 5063,892;  178,276;21618,236;22,78743
 373,81; 5034,740;  160,581;21348,164;23,00479
 374,40; 5021,349;  189,357;21109,918;23,09685
 374,99; 4993,298;  173,119;20805,236;23,36250
 375,59; 4972,390;  172,818;20548,239;23,55569
 376,18; 5020,276;  201,657;20421,884;23,83068
 376,77; 5034,497;  195,044;20284,216;24,08986
 377,36; 5058,711;  210,812;20218,225;24,23051
 377,95; 5081,969;  197,579;19936,400;24,74510
 378,55; 5055,200;  170,740;19722,664;24,98199
 379,14; 5087,850;  197,196;19652,640;25,13771
 379,73; 5120,702;  190,195;19586,848;25,41937
 380,32; 5183,039;  193,428;19698,446;25,58117
 380,91; 5206,320;  180,730;19479,572;26,04089
 381,50; 5244,557;  201,731;19462,208;26,18225
 382,10; 5262,655;  173,582;19341,830;26,54949
 382,69; 5298,037;  153,196;19281,655;26,89626
 383,28; 5396,666;  205,655;19266,811;27,23345
 383,87; 5363,560;  175,116;19108,719;27,40336
 384,46; 5425,891;  165,112;19057,158;27,84653
 385,05; 5509,619;  219,270;19032,316;28,12064
 385,64; 5558,299;  181,194;19079,829;28,45235
 386,24; 5587,005;  165,265;19008,018;28,77360
 386,83; 5712,342;  200,649;19082,215;29,19087
 387,42; 5801,339;  206,964;19161,969;29,51398
 388,01; 5921,522;  193,645;19331,088;29,93021
 388,60; 6066,553;  194,266;19613,654;30,23930
 389,19; 6215,161;  170,485;19711,863;30,93270
 389,78; 6356,226;  180,564;20001,915;31,15661
 390,37; 6597,391;  238,340;20408,716;31,52669
 390,96; 6665,133;  193,188;20570,771;31,76012
 391,56; 6809,185;  191,407;20731,732;32,21847
 392,15; 6950,097;  188,103;21012,597;32,47135
 392,74; 7031,078;  164,630;21139,528;32,73650
 393,33; 7230,724;  186,714;21382,297;33,23339
 393,92; 7398,111;  192,780;21783,988;33,37160
 394,51; 7562,391;  170,175;21988,050;33,88147
 395,10; 7750,540;  212,461;22189,538;34,29973
 395,69; 7889,289;  206,155;22317,361;34,74769
 396,28; 7999,902;  205,150;22429,043;35,07375
 396,87; 8103,788;  208,293;22506,720;35,40830
 397,46; 8235,171;  212,979;22584,582;35,85882
 398,06; 8380,652;  224,355;22908,699;35,95562
 398,65; 8510,714;  211,721;22862,365;36,63910
 399,24; 8642,344;  227,025;23077,241;36,82818
 399,83; 8742,797;  208,688;23078,877;37,31543
 400,42; 8902,536;  248,124;23183,898;37,73325
 401,01; 8982,374;  221,325;23296,255;37,96783
 401,60; 9150,985;  244,208;23371,456;38,51205
 402,19; 9191,100;  257,022;23296,956;38,77649
 402,78; 9281,916;  257,588;23374,469;39,03783
 403,37; 9350,896;  233,156;23158,178;39,77200
 403,96; 9345,179;  244,024;23048,728;39,90911
 404,55; 9414,213;  262,271;22963,326;40,31505
 405,14; 9433,555;  238,215;22846,319;40,67276
 405,73; 9484,545;  260,611;22788,222;40,94501
 406,32; 9557,415;  259,029;22622,115;41,57917
 406,91; 9494,211;  257,594;22411,638;41,69269
 407,50; 9554,229;  264,260;22245,873;42,26245
 408,09; 9510,012;  226,473;21951,682;42,73164
 408,68; 9517,068;  254,536;21879,207;42,83317
 409,27; 9547,056;  246,476;21712,453;43,32707
 409,86; 9542,142;  256,439;21553,202;43,60148
 410,45; 9601,418;  293,934;21550,876;43,78562
 411,04; 9693,400;  292,352;21485,723;44,35843
 411,63; 9580,552;  286,935;21190,695;44,45907
 412,22; 9610,051;  280,668;20981,662;45,06732
 412,81; 9555,620;  302,989;20780,234;45,18494
 413,40; 9483,610;  310,469;20416,348;45,62417
 413,99; 9443,081;  342,848;20183,307;45,86705
 414,58; 9314,989;  277,159;19746,662;46,42045
 415,17; 9251,602;  279,605;19575,189;46,49767
 415,76; 9249,236;  270,666;19419,040;46,88946
 416,35; 9203,393;  276,443;19110,200;47,39867
 416,94; 9316,071;  310,670;19268,010;47,50351
 417,53; 9487,853;  280,221;19408,256;48,13684
 418,12; 9592,454;  269,533;19521,995;48,42457
 418,71; 9890,199;  298,316;19861,765;49,02961
 419,30; 9945,178;  287,073;20065,109;48,83248
 419,89;10103,988;  272,460;20163,447;49,42705
 420,48;10303,734;  294,085;20362,535;49,87754
 421,07;10386,962;  290,165;20498,503;49,96352
 421,66;10423,001;  266,558;20466,188;50,28034
 422,25;10447,627;  271,189;20540,583;50,20593
 422,84;10508,404;  299,962;20440,598;50,68580
 423,43;10433,671;  287,647;20178,320;51,00895
 424,02;10386,052;  302,727;19996,442;51,20073
 424,60;10173,239;  280,439;19584,206;51,24803
 425,19;10067,106;  296,044;19327,453;51,34177
 425,78;10100,284;  293,661;19228,750;51,79074
 426,37;10043,787;  300,437;19061,951;51,93264
 426,96;10045,845;  276,206;18925,136;52,38713
 427,55;10001,344;  275,294;18888,508;52,25347
 428,14; 9915,768;  267,837;18586,022;52,66860
 428,73; 9868,216;  288,366;18469,381;52,69150
 429,32; 9915,055;  285,513;18413,992;53,11831
 429,91; 9925,806;  320,982;18460,799;52,94884
 430,50; 9869,705;  300,065;18279,640;53,22506
 431,08; 9875,729;  307,455;18121,157;53,71300
 431,67; 9876,083;  330,460;18059,181;53,84271
 432,26; 9776,921;  352,773;17866,633;53,80966
 432,85; 9678,845;  372,079;17525,688;54,25544
 433,44; 9500,446;  388,471;17227,983;54,11069
 434,03; 9315,917;  402,711;16826,982;54,26850
 434,62; 9081,973;  359,087;16459,216;54,17899
 435,21; 9059,196;  365,618;16298,030;54,56536
 435,79; 8946,763;  376,323;16109,888;54,47233
 436,38; 8900,977;  368,410;15986,717;54,63183
 436,97; 8882,133;  351,796;15943,277;54,71153
 437,56; 8763,277;  366,118;15775,296;54,49453
 438,15; 8681,709;  330,960;15658,418;54,48228
 438,74; 8771,755;  358,116;15673,578;54,93559
 439,33; 8769,827;  334,421;15641,739;55,10701
 439,91; 8771,260;  308,120;15728,245;54,88373
 440,50; 8868,600;  353,275;15720,771;55,41127
 441,09; 8929,614;  352,437;15858,362;55,31548
 441,68; 8878,990;  330,291;15871,755;55,00575
 442,27; 8902,573;  309,595;15870,416;55,22188
 442,86; 8857,332;  286,691;15851,837;55,06303
 443,44; 8905,562;  306,610;15894,282;55,16508
 444,03; 8975,709;  376,999;16005,300;55,02012
 444,62; 8905,925;  300,075;15815,177;55,46757
 445,21; 8792,279;  324,227;15685,782;55,12496
 445,80; 8763,547;  356,622;15621,797;55,07258
 446,39; 8659,245;  367,697;15356,081;55,31983
 446,97; 8503,718;  300,708;15192,640;55,08358
 447,56; 8380,127;  305,024;14946,971;55,15047
 448,15; 8268,183;  323,939;14810,409;54,83906
 448,74; 8130,684;  331,940;14558,368;54,81871
 449,33; 8054,898;  323,946;14452,718;54,71779
 449,91; 7934,954;  318,033;14243,239;54,69881
 450,50; 7783,011;  307,954;13988,738;54,63910
 451,09; 7703,325;  335,493;13900,297;54,31580
 451,68; 7715,611;  356,497;13844,731;54,55950
 452,26; 7647,552;  340,040;13735,304;54,55295
 452,85; 7572,514;  319,499;13610,323;54,57159
 453,44; 7548,534;  341,974;13683,567;54,01574
 454,03; 7518,278;  314,351;13625,594;54,11912
 454,61; 7536,053;  311,590;13609,495;54,32783
 455,20; 7611,716;  338,979;13743,391;54,25629
 455,79; 7589,156;  348,740;13741,725;54,06125
 456,38; 7617,691;  342,063;13817,793;53,99060
 456,97; 7616,982;  330,061;13863,829;53,84252
 457,55; 7601,728;  329,759;13876,516;53,68051
 458,14; 7598,218;  356,290;13890,729;53,50741
 458,73; 7514,709;  341,529;13835,213;53,15954
 459,31; 7538,327;  366,306;13850,064;53,19008
 459,90; 7581,372;  383,302;13974,214;52,96238
 460,49; 7665,239;  420,299;14008,495;53,31789
 461,08; 7610,737;  340,310;14107,021;52,81165
 461,66; 7634,181;  341,306;14143,370;52,83902
 462,25; 7626,232;  349,006;14205,437;52,51876
 462,84; 7704,949;  376,465;14250,179;52,82280
 463,43; 7568,572;  301,938;14247,046;52,10884
 464,01; 7580,861;  339,172;14309,864;51,83486
 464,60; 7560,219;  396,704;14200,171;51,89649
 465,19; 7421,705;  339,251;13997,782;51,85370
 465,77; 7372,030;  340,871;13977,125;51,56225
 466,36; 7294,971;  371,245;13839,631;51,40724
 466,95; 7126,842;  353,477;13528,774;51,40958
 467,53; 6955,037;  350,645;13289,085;51,04473
 468,12; 6831,058;  372,646;13030,152;51,02436
 468,71; 6669,100;  349,714;12788,109;50,80547
 469,29; 6516,881;  337,032;12597,465;50,40482
 469,88; 6377,899;  341,805;12287,066;50,53129
 470,47; 6428,962;  410,505;12431,822;50,06487
 471,06; 6348,969;  365,120;12397,793;49,73000
 471,64; 6355,813;  375,118;12462,030;49,48076
 472,23; 6329,444;  332,518;12524,681;49,18673
 472,81; 6370,205;  330,972;12651,188;49,01889
 473,40; 6391,484;  343,056;12714,206;48,89139
 473,99; 6479,667;  441,364;12943,375;48,29865
 474,57; 6474,169;  349,979;13036,466;48,27334
 475,16; 6554,742;  370,204;13165,595;48,33411
 475,75; 6582,376;  376,600;13294,845;48,03885
 476,33; 6595,253;  383,837;13411,872;47,67731
 476,92; 6580,010;  386,288;13452,566;47,40234
 477,51; 6598,047;  371,757;13544,460;47,26661
 478,09; 6560,259;  368,526;13511,952;47,10897
 478,68; 6518,719;  375,529;13454,486;46,97003
 479,27; 6508,061;  407,139;13495,077;46,61484
 479,85; 6441,188;  381,605;13495,561;46,20713
 480,44; 6479,174;  364,993;13660,405;45,98715
 481,02; 7021,961;  382,306;14973,490;45,50457
 481,61; 7804,146;  404,380;16859,203;44,97019
 482,20; 8256,957;  382,844;18027,106;44,62704
 482,78; 8637,274;  415,453;18824,862;44,66097
 483,37; 8842,378;  404,160;19388,819;44,44756
 483,95; 8939,838;  414,546;19540,072;44,57546
 484,54; 8955,165;  429,918;19769,660;44,08149
 485,13; 8901,333;  405,860;19637,609;44,17421
 485,71; 8707,028;  383,088;19561,922;43,40170
 486,30; 8642,702;  414,396;19225,799;43,74105
 486,88; 8430,235;  453,937;18897,130;43,24792
 487,47; 8139,153;  439,784;18158,769;43,45265
 488,05; 7701,538;  423,480;17350,736;42,99609
 488,64; 7163,675;  419,870;16087,163;43,04384
 489,23; 6336,705;  438,174;14340,035;42,42980
 489,81; 5393,344;  428,406;12265,536;41,94377
 490,40; 5097,149;  387,177;11679,649;41,70896
 490,98; 4956,249;  377,333;11388,277;41,58514
 491,57; 4895,257;  389,405;11305,362;41,27767
 492,15; 4866,274;  379,719;11271,497;41,19213
 492,74; 4799,604;  391,249;11185,046;40,84155
 493,32; 4729,814;  401,179;11096,090;40,47378
 493,91; 4672,919;  371,029;10997,172;40,48402
 494,50; 4627,792;  396,040;10987,804;39,95323
 495,08; 4545,357;  367,578;10899,848;39,66646
 495,67; 4546,169;  393,490;10870,398;39,63650
 496,25; 4487,090;  329,188;10741,795;39,93142
 496,84; 4433,364;  352,951;10758,565;39,21357
 497,42; 4382,000;  346,344;10738,589;38,83334
 498,01; 4362,674;  371,414;10640,741;38,86584
 498,59; 4257,673;  337,653;10625,516;38,10335
 499,18; 4239,182;  341,722;10495,159;38,38562
 499,76; 4195,163;  361,958;10446,642;38,01017
 500,35; 4066,397;  344,581;10305,032;37,36594
 500,93; 4042,686;  327,267;10285,849;37,30871
 501,52; 4010,677;  332,883;10186,900;37,32279
 502,10; 4016,862;  357,201;10166,328;37,30874
 502,69; 3899,324;  332,974; 9938,653;37,12752
 503,27; 3807,260;  315,963; 9848,314;36,62577
 503,86; 3748,926;  333,818; 9763,892;36,21507
 504,44; 3674,252;  317,822; 9600,262;36,15893
 505,03; 3572,882;  297,206; 9442,846;35,81680
 505,61; 3543,975;  323,205; 9319,101;35,80266
 506,19; 3455,905;  353,052; 9155,045;35,25170
 506,78; 3331,340;  304,906; 8972,804;34,91543
 507,36; 3287,495;  317,744; 8825,028;34,90833
 507,95; 3250,560;  315,679; 8697,312;35,01563
 508,53; 3127,406;  315,444; 8551,911;34,14039
 509,12; 3097,001;  330,293; 8424,091;34,18306
 509,70; 3049,886;  337,141; 8297,561;34,07791
 510,29; 3001,329;  342,760; 8155,917;34,02682
 510,87; 2882,762;  312,906; 7973,279;33,54740
 511,46; 2811,112;  299,523; 7826,672;33,36707
 512,04; 2743,657;  312,219; 7675,583;33,02075
 512,62; 2682,247;  315,985; 7551,241;32,70461
 513,21; 2609,721;  298,068; 7394,888;32,57307
 513,79; 2553,471;  304,542; 7274,481;32,26612
 514,38; 2484,142;  278,384; 7111,677;32,27957
 514,96; 2477,695;  328,691; 7037,290;32,03358
 515,54; 2396,118;  293,309; 6884,424;31,90369
 516,13; 2381,223;  316,540; 6833,644;31,68099
 516,71; 2325,350;  308,699; 6687,051;31,61712
 517,30; 2257,229;  285,396; 6596,440;31,24416
 517,88; 2253,867;  311,780; 6533,254;31,21586
 518,46; 2177,436;  281,167; 6366,725;31,16015
 519,05; 2159,271;  310,247; 6315,772;30,78872
 519,63; 2136,248;  301,630; 6284,195;30,66607
 520,22; 2087,017;  318,330; 6201,767;30,06214
 520,80; 2075,525;  306,715; 6200,647;30,01070
 521,38; 2057,150;  338,325; 6179,452;29,42625
 521,97; 2039,207;  302,334; 6099,770;29,95933
 522,55; 2029,779;  319,257; 6071,093;29,73871
 523,13; 1984,783;  281,260; 6101,751;29,26769
 523,72; 1975,227;  296,397; 6063,462;29,11065
 524,30; 2022,593;  310,955; 6224,858;28,94262
 524,89; 1995,716;  285,719; 6213,573;28,84680
 525,47; 2015,347;  315,803; 6325,757;28,27881
 526,05; 1990,620;  278,958; 6353,561;28,17736
 526,64; 2037,391;  316,421; 6509,940;27,78663
 527,22; 2053,504;  310,033; 6629,372;27,58945
 527,80; 2128,139;  341,652; 6780,615;27,74495
 528,39; 2085,481;  301,808; 6769,289;27,57909
 528,97; 2142,727;  299,345; 6970,083;27,63386
 529,55; 2175,813;  317,491; 7159,382;27,16094
 530,14; 2242,409;  338,810; 7344,514;27,17213
 530,72; 2217,094;  298,422; 7454,499;26,81178
 531,30; 2221,533;  278,888; 7545,394;26,73424
 531,89; 2287,504;  310,657; 7640,840;26,96859
 532,47; 2308,081;  338,274; 7729,848;26,64935
 533,05; 2291,850;  343,267; 7796,815;26,14303
 533,63; 2321,552;  332,891; 7857,868;26,42748
 534,22; 2272,519;  304,506; 7869,622;26,01431
 534,80; 2303,181;  328,588; 7970,261;25,83980
 535,38; 2368,547;  410,504; 8060,182;25,59641
 535,97; 2271,553;  323,198; 8016,588;25,32506
 536,55; 2317,089;  368,974; 8064,957;25,31340
 537,13; 2280,204;  373,810; 8034,684;24,88480
 537,71; 2312,541;  417,348; 8098,650;24,67281
 538,30; 2337,803;  430,431; 8181,139;24,60901
 538,88; 2348,176;  465,362; 8229,021;24,25164
 539,46; 2438,599;  506,050; 8422,968;24,41037
 540,05; 2436,475;  525,283; 8532,797;23,86748
 540,63; 2469,500;  571,745; 8710,352;23,31793
 541,21; 2525,373;  617,364; 8894,721;23,05095
 541,79; 2542,882;  626,210; 9006,166;22,87210
 542,38; 2604,966;  656,437; 9154,071;22,93026
 542,96; 2653,255;  673,291; 9277,109;23,01262
 543,54; 2676,879;  681,055; 9495,579;22,64244
 544,12; 2646,954;  650,903; 9687,525;22,08847
 544,70; 2686,892;  649,214; 9723,665;22,45511
 545,29; 2737,655;  661,052; 9906,533;22,46073
 545,87; 2706,267;  639,902; 9891,628;22,33491
 546,45; 2675,066;  584,052; 9943,577;22,34103
 547,03; 2673,517;  577,285; 9993,574;22,26177
 547,62; 2689,270;  551,441;10139,292;22,29726
 548,20; 2721,223;  553,444;10248,429;22,35979
 548,78; 2703,465;  521,916;10419,246;22,04180
 549,36; 2717,287;  482,684;10605,949;22,07393
 549,94; 2740,979;  446,673;10779,283;22,20451
 550,53; 2758,138;  442,298;10983,233;21,96997
 551,11; 2785,808;  426,534;11153,871;21,99310
 551,69; 2848,478;  445,376;11457,040;21,82324
 552,27; 2840,371;  393,296;11683,084;21,67512
 552,85; 2901,057;  399,918;12082,685;21,40879
 553,44; 2987,712;  399,145;12322,039;21,71090
 554,02; 3068,861;  410,224;12702,216;21,62901
 554,60; 3071,148;  360,611;12983,243;21,47363
 555,18; 3174,412;  398,377;13365,010;21,40906
 555,76; 3207,491;  365,609;13720,647;21,27948
 556,34; 3305,866;  378,230;14113,353;21,31496
 556,93; 3395,019;  370,454;14482,627;21,43231
 557,51; 3421,030;  350,077;14769,016;21,29805
 558,09; 3504,283;  382,300;15199,180;21,07045
 558,67; 3519,317;  375,465;15515,784;20,76477
 559,25; 3601,710;  390,386;15819,991;20,81275
 559,83; 3623,508;  365,467;16095,458;20,71229
 560,41; 3729,263;  368,768;16443,224;20,90581
 561,00; 3743,577;  367,234;16785,108;20,56504
 561,58; 3752,501;  344,767;17004,453;20,45497
 562,16; 3829,236;  347,534;17336,702;20,49366
 562,74; 3874,905;  347,378;17721,201;20,30369
 563,32; 3949,142;  347,775;18125,965;20,25722
 563,90; 4018,485;  361,234;18462,138;20,20480
 564,48; 4108,275;  365,305;18914,710;20,17838
 565,06; 4190,530;  365,772;19433,227;20,05909
 565,65; 4330,712;  363,088;20044,403;20,15935
 566,23; 4496,851;  410,542;20815,016;20,02654
 566,81; 4568,883;  353,232;21434,806;19,99685
 567,39; 4749,837;  363,315;22300,678;19,99567
 567,97; 4879,248;  385,694;22920,733;19,94030
 568,55; 5039,102;  388,621;23740,671;19,91466
 569,13; 5140,939;  364,696;24467,832;19,81586
 569,71; 5298,562;  359,610;25327,132;19,78151
 570,29; 5503,715;  396,608;26245,011;19,75792
 570,87; 5633,706;  396,840;26985,343;19,69598
 571,45; 5704,584;  377,926;27601,029;19,56668
 572,03; 5721,737;  343,239;27961,222;19,47462
 572,61; 5863,029;  334,236;28658,824;19,51941
 573,20; 5996,455;  385,616;29390,848;19,34423
 573,78; 6118,926;  367,006;29875,934;19,49214
 574,36; 6166,770;  373,312;30441,759;19,26757
 574,94; 6244,791;  435,086;30797,227;19,13470
 575,52; 6236,052;  378,016;31008,304;19,12498
 576,10; 6410,768;  432,859;31624,738;19,16495
 576,68; 6462,385;  417,700;32064,698;19,10034
 577,26; 6542,316;  439,173;32824,747;18,84525
 577,84; 6681,037;  435,082;33311,515;18,99827
 578,42; 6698,276;  473,857;33478,651;18,85914
 579,00; 6669,325;  436,775;33635,442;18,77350
 579,58; 6670,402;  469,932;33937,228;18,52695
 580,16; 6687,748;  456,089;33933,363;18,61459
 580,74; 6721,337;  449,474;34083,319;18,64747
 581,32; 6681,108;  440,779;34167,862;18,50243
 581,90; 6677,982;  464,781;34101,747;18,47135
 582,48; 6636,608;  455,012;34282,332;18,27398
 583,06; 6640,351;  455,856;34362,937;18,23954
 583,64; 6676,531;  454,471;34531,442;18,25884
 584,22; 6581,948;  456,171;34396,463;18,04869
 584,80; 6544,210;  481,857;34079,390;18,04404
 585,38; 6406,426;  479,538;33694,321;17,84413
 585,96; 6426,566;  448,161;33857,462;17,89443
 586,54; 6409,634;  469,478;33797,750;17,82318
 587,12; 6386,607;  449,398;34103,124;17,64205
 587,70; 6408,771;  476,238;34127,726;17,62933
 588,28; 6382,472;  458,244;34244,785;17,53428
 588,86; 6407,166;  462,169;34299,191;17,56951
 589,44; 6387,236;  442,022;34369,330;17,52339
 590,02; 6433,751;  447,020;34636,214;17,51059
 590,59; 6415,330;  429,477;34723,288;17,45462
 591,17; 6481,691;  426,029;35011,854;17,50909
 591,75; 6444,688;  422,101;35141,481;17,34647
 592,33; 6493,144;  444,407;35301,180;17,35312
 592,91; 6506,927;  385,181;35532,062;17,41761
 593,49; 6514,012;  390,569;35894,385;17,24728
 594,07; 6600,554;  415,030;36051,230;17,35742
 594,65; 6550,959;  419,478;36152,307;17,15924
 595,23; 6616,264;  409,558;36498,582;17,19832
 595,81; 6628,167;  407,252;36607,944;17,18452
 596,39; 6574,035;  398,945;36722,423;17,00027
 596,97; 6600,360;  397,027;36945,738;16,97278
 597,55; 6532,247;  380,480;36785,822;16,89798
 598,12; 6528,838;  392,801;36843,285;16,83390
 598,70; 6542,179;  377,413;36958,283;16,85243
 599,28; 6573,454;  393,182;37213,576;16,78491
 599,86; 6544,571;  380,797;37142,896;16,76665
 600,44; 6510,456;  347,645;37263,443;16,69424
 601,02; 6560,455;  410,961;37241,988;16,69651
 601,60; 6506,069;  387,409;37168,790;16,63521
 602,18; 6471,586;  361,493;37299,344;16,54155
 602,75; 6447,655;  359,559;37367,219;16,45091
 603,33; 6473,252;  377,951;37360,591;16,48152
 603,91; 6408,334;  361,573;37324,497;16,35899
 604,49; 6454,307;  386,490;37421,470;16,38401
 605,07; 6436,091;  387,870;37436,834;16,32494
 605,65; 6427,917;  397,030;37586,878;16,21649
 606,23; 6483,624;  457,246;37731,038;16,16787
 606,80; 6408,856;  498,175;37784,818;15,85201
 607,38; 6449,756;  531,418;37725,308;15,91212
 607,96; 6455,476;  575,328;37784,125;15,80311
 608,54; 6440,426;  649,646;37914,093;15,53969
 609,12; 6411,516;  630,406;37903,880;15,50998
 609,70; 6444,531;  660,566;38026,295;15,47933
 610,27; 6417,136;  682,020;38081,214;15,33486
 610,85; 6446,693;  702,489;38111,217;15,35525
 611,43; 6382,241;  688,720;38030,852;15,24691
 612,01; 6307,106;  662,254;37782,215;15,20705
 612,59; 6288,363;  667,258;37907,018;15,09436
 613,16; 6268,746;  620,863;37815,017;15,18487
 613,74; 6191,373;  589,336;37665,576;15,10951
 614,32; 6142,543;  559,569;37691,925;15,03533
 614,90; 6125,035;  529,102;37567,978;15,10827
 615,48; 6041,108;  482,018;37205,946;15,13751
 616,05; 5998,425;  448,093;37231,614;15,08918
 616,63; 5980,972;  445,630;37017,359;15,13558
 617,21; 5929,813;  452,174;36928,245;15,01708
 617,79; 5880,324;  431,945;36883,378;14,94695
 618,36; 5862,062;  443,332;36837,895;14,88884
 618,94; 5721,741;  381,250;36430,579;14,81440
 619,52; 5727,048;  405,554;36255,639;14,84374
 620,10; 5690,973;  391,944;36205,497;14,79616
 620,67; 5653,939;  395,630;36085,806;14,73321
 621,25; 5627,593;  413,794;35996,666;14,65255
 621,83; 5589,217;  393,481;35913,241;14,62774
 622,41; 5629,302;  443,096;35948,624;14,60676
 622,98; 5522,130;  398,553;35616,127;14,54835
 623,56; 5517,025;  406,860;35652,446;14,49874
 624,14; 5486,184;  388,334;35464,029;14,53385
 624,72; 5439,005;  383,634;35382,209;14,44450
 625,29; 5435,915;  375,091;35419,278;14,44127
 625,87; 5459,507;  404,484;35448,009;14,42499
 626,45; 5362,355;  358,474;35305,518;14,31847
 627,02; 5360,390;  376,638;35172,688;14,32275
 627,60; 5342,306;  365,953;35208,750;14,28230
 628,18; 5296,593;  336,406;35183,034;14,23434
 628,76; 5259,181;  343,630;35152,622;14,12150
 629,33; 5286,944;  377,787;35141,849;14,12136
 629,91; 5252,819;  360,329;35171,958;14,05418
 630,49; 5311,429;  375,401;35215,998;14,16746
 631,06; 5290,631;  374,785;35425,240;14,02506
 631,64; 5248,560;  362,321;35408,705;13,94221
 632,22; 5223,046;  332,395;35337,755;13,97115
 632,79; 5280,321;  357,395;35576,586;13,97796
 633,37; 5295,733;  343,793;35634,186;14,03198
 633,95; 5264,945;  348,089;35788,117;13,87374
 634,52; 5274,855;  335,557;35793,285;13,93010
 635,10; 5254,864;  331,174;35839,663;13,86623
 635,68; 5285,984;  337,703;36062,263;13,85120
 636,25; 5257,804;  323,237;35952,922;13,84960
 636,83; 5276,335;  314,784;36204,083;13,82460
 637,41; 5220,161;  339,240;36289,950;13,57670
 637,98; 5277,601;  345,009;36452,163;13,66098
 638,56; 5286,509;  340,005;36522,485;13,67099
 639,13; 5268,306;  318,860;36600,787;13,64163
 639,71; 5292,858;  363,554;36768,087;13,54036
 640,29; 5209,329;  288,554;36497,658;13,58988
 640,86; 5202,568;  312,093;36735,158;13,42686
 641,44; 5203,807;  313,478;36666,581;13,45230
 642,02; 5242,585;  344,939;36703,158;13,47053
 642,59; 5236,900;  316,555;36858,197;13,46504
 643,17; 5188,832;  318,863;36784,774;13,35485
 643,74; 5187,994;  307,786;36875,121;13,34581
 644,32; 5197,232;  335,248;36776,006;13,34216
 644,89; 5165,394;  329,633;36777,275;13,26769
 645,47; 5154,710;  340,479;36918,852;13,16141
 646,05; 5098,411;  337,787;36779,199;13,06377
 646,62; 5130,496;  322,326;36798,930;13,18152
 647,20; 5146,196;  333,403;36934,507;13,14931
 647,77; 5058,281;  306,018;36822,392;13,01406
 648,35; 5076,597;  310,711;36681,738;13,10352
 648,92; 5056,451;  327,557;36769,469;12,97653
 649,50; 5001,921;  287,327;36593,124;12,98579
 650,08; 4990,314;  298,173;36527,470;12,95123
 650,65; 5003,706;  301,481;36760,893;12,89715
 651,23; 5101,022;  294,789;37478,009;12,92581
 651,80; 5217,261;  282,097;38426,279;12,93818
 652,38; 5311,346;  297,943;38764,010;13,03331
 652,95; 5315,970;  282,251;39119,125;12,96118
 653,53; 5365,593;  318,021;39376,395;12,92315
 654,10; 5397,217;  339,328;39472,357;12,92486
 654,68; 5318,456;  289,021;39460,626;12,83949
 655,25; 5343,925;  285,867;39602,434;12,86495
 655,83; 5369,010;  284,637;39603,857;12,93101
 656,40; 5365,634;  318,252;39534,204;12,87074
 656,98; 5333,565;  288,714;39457,089;12,87991
 657,55; 5314,958;  299,253;39281,589;12,86661
 658,13; 5243,197;  294,407;39005,397;12,78394
 658,70; 5215,128;  310,869;38751,436;12,75803
 659,28; 5083,290;  314,253;37982,782;12,66053
 659,85; 4993,298;  305,254;37119,206;12,73442
 660,43; 4992,998;  321,177;37207,629;12,66541
 661,00; 5001,160;  304,100;37314,591;12,69116
 661,58; 5011,707;  300,639;37590,860;12,63352
 662,15; 5019,484;  281,024;37801,361;12,62905
 662,73; 5114,108;  346,409;38066,938;12,63953
 663,30; 5105,885;  300,409;38285,515;12,65095
 663,88; 5137,662;  315,178;38452,169;12,64516
 664,45; 5125,286;  290,717;38705,285;12,58525
 665,03; 5226,525;  296,333;38921,093;12,76433
 665,60; 5319,918;  372,563;39514,747;12,63944
 666,17; 5225,849;  304,718;39569,709;12,53313
 666,75; 5290,088;  301,564;39834,209;12,61875
 667,32; 5310,480;  321,718;40222,863;12,50281
 667,90; 5331,950;  297,872;40553,979;12,50513
 668,47; 5403,343;  316,257;40718,941;12,59096
 669,05; 5422,812;  299,719;41088,210;12,56015
 669,62; 5398,744;  274,565;41105,710;12,54968
 670,19; 5407,598;  287,411;41229,826;12,50582
 670,77; 5445,606;  293,719;41441,249;12,52052
 671,34; 5431,537;  301,258;41367,134;12,49280
 671,92; 5479,622;  281,643;41697,327;12,55075
 672,49; 5456,400;  309,643;41711,443;12,43124
 673,06; 5441,177;  256,643;41810,404;12,47669
 673,64; 5476,185;  287,720;41795,982;12,49984
 674,21; 5488,655;  279,721;41652,251;12,59032
 674,79; 5530,201;  305,567;41889,982;12,56392
 675,36; 5534,133;  307,106;42048,405;12,52243
 675,93; 5525,448;  269,798;41923,290;12,61755
 676,51; 5578,149;  296,337;42038,791;12,65333
 677,08; 5571,849;  300,029;42205,676;12,58021
 677,65; 5623,550;  300,876;42223,945;12,69629
 678,23; 5604,788;  299,722;42528,138;12,56279
 678,80; 5637,335;  287,261;42656,253;12,62733
 679,38; 5677,036;  284,030;42765,984;12,69481
 679,95; 5714,582;  303,184;42939,100;12,69211
 680,52; 5731,283;  285,338;43307,216;12,65855
 681,10; 5764,983;  299,338;43558,870;12,63454
 681,67; 5822,914;  298,493;43842,832;12,68689
 682,24; 5806,538;  268,570;43972,563;12,67154
 682,82; 5888,392;  280,108;44494,448;12,68431
 683,39; 5971,015;  326,186;44959,179;12,64721
 683,96; 5975,716;  289,032;45091,371;12,69283
 684,54; 6004,416;  276,109;45456,641;12,67871
 685,11; 6092,347;  309,340;45702,833;12,73973
 685,68; 6104,202;  286,186;46266,487;12,65328
 686,25; 6122,133;  269,033;46346,142;12,70284
 686,83; 6207,603;  281,187;46473,950;12,82975
 687,40; 6210,918;  273,418;46719,296;12,78370
 687,97; 6281,619;  297,110;47163,489;12,76930
 688,55; 6268,396;  260,264;47251,297;12,78570
 689,12; 6296,097;  244,188;47453,335;12,81936
 689,69; 6307,028;  250,342;47563,451;12,80129
 690,26; 6331,805;  267,880;47710,336;12,78164
 690,84; 6346,275;  276,958;47853,298;12,75701
 691,41; 6377,821;  288,496;48013,567;12,75917
 691,98; 6420,983;  295,189;48194,683;12,78885
 692,56; 6426,145;  278,881;48329,260;12,79337
 693,13; 6533,307;  328,728;48309,991;12,93126
 693,70; 6496,008;  300,574;48497,568;12,85440
 694,27; 6474,631;  272,728;48602,222;12,83254
 694,84; 6514,716;  274,344;48711,184;12,88353
 695,42; 6575,724;  331,728;48858,454;12,86713
 695,99; 6543,117;  292,190;49050,723;12,82017
 696,56; 6554,433;  285,575;48886,531;12,89863
 697,13; 6632,441;  302,960;49344,339;12,90641
 697,71; 6643,218;  269,806;49297,147;12,99971
 698,28; 6686,919;  279,345;49636,724;12,98200
 698,85; 6693,773;  255,422;49652,917;13,03376
 699,42; 6736,781;  259,884;49787,879;13,07725
 699,99; 6803,251;  299,115;49910,456;13,11018
 700,57; 6800,721;  294,269;50012,802;13,08657
 701,14; 6832,267;  271,423;50102,610;13,16614
 701,71; 6893,814;  310,808;50372,803;13,14971
 702,28; 6863,053;  286,193;50343,765;13,13859
 702,85; 6876,830;  287,193;50442,034;13,13859
 703,43; 6949,223;  305,116;50729,842;13,17629
 704,00; 7038,077;  323,270;50879,650;13,28182
 704,57; 7025,008;  295,193;50869,381;13,30682
 705,14; 7089,170;  320,578;51078,189;13,33513
 705,71; 7145,794;  325,348;51209,536;13,40386
 706,28; 7091,571;  297,425;51085,036;13,37757
 706,86; 7161,733;  334,810;51220,152;13,41629
 707,43; 7247,356;  349,502;51187,113;13,56841
 708,00; 7252,057;  322,272;51296,614;13,59465
 708,57; 7220,603;  303,964;51216,191;13,58542
 709,14; 7245,150;  323,118;51342,845;13,56736
 709,71; 7294,850;  303,426;51511,961;13,65285
 710,28; 7321,551;  294,888;51644,769;13,68389
 710,86; 7345,405;  311,196;51785,884;13,66538
 711,43; 7416,952;  324,196;51754,539;13,79099
 712,00; 7401,575;  315,504;51848,654;13,75051
 712,57; 7470,737;  311,350;52033,308;13,84206
 713,14; 7471,130;  300,735;52068,655;13,85104
 713,71; 7479,600;  311,428;52110,540;13,83841
 714,28; 7485,223;  294,043;52009,194;13,90536
 714,85; 7457,847;  282,428;51853,925;13,91354
 715,42; 7552,009;  290,121;52085,887;14,02023
 716,00; 7665,709;  358,659;52233,310;14,08597
 716,57; 7658,333;  290,044;52298,579;14,16746
 717,14; 7667,571;  278,967;52131,541;14,24925
 717,71; 7692,041;  261,045;52118,965;14,32953
 718,28; 7793,280;  308,429;52350,926;14,38219
 718,85; 7777,903;  262,891;52374,504;14,42099
 719,42; 7845,373;  289,661;52479,081;14,47748
 719,99; 7863,997;  269,122;52273,735;14,60423
 720,56; 7921,466;  299,353;52573,851;14,58094
 721,13; 7947,167;  271,661;52641,043;14,65648
 721,70; 7941,252;  261,969;52528,851;14,69244
 722,27; 8010,029;  285,969;52482,890;14,79792
 722,84; 8111,653;  332,354;52699,775;14,85523
 723,41; 8031,045;  267,662;52779,891;14,78395
 723,98; 8138,515;  282,970;52943,391;14,91736
 724,55; 8182,369;  312,509;52994,814;14,93834
 725,12; 8161,762;  239,124;52916,776;15,03985
 725,69; 8244,232;  274,586;53109,584;15,08403
 726,27; 8293,086;  278,586;53314,700;15,11140
 726,84; 8417,633;  291,817;53571,892;15,25113
 727,41; 8449,487;  292,048;53460,008;15,34277
 727,98; 8513,110;  301,202;53736,508;15,36794
 728,55; 8534,503;  322,202;53596,470;15,41514
 729,12; 8614,127;  271,664;53726,816;15,60647
 729,69; 8654,673;  304,741;53872,086;15,58773
 730,26; 8689,220;  303,665;54140,048;15,57600
 730,82; 8727,766;  291,203;54027,163;15,70003
 731,39; 8795,082;  297,204;54132,971;15,78482
 731,96; 8866,321;  271,434;54460,395;15,86095
 732,53; 8939,329;  293,204;54703,357;15,89065
 733,10; 8998,414;  303,281;54686,011;15,98878
 733,67; 9099,192;  296,358;54987,973;16,09540
 734,24; 9072,277;  282,743;54595,704;16,18312
 734,81; 9132,285;  323,897;54758,819;16,18150
 735,38; 9101,524;  284,436;54541,550;16,25057
 735,95; 9119,224;  291,282;54325,974;16,33754
 736,52; 9198,001;  307,975;54542,320;16,39188
 737,09; 9206,009;  300,052;54205,128;16,52156
 737,66; 9302,864;  338,283;54294,628;16,61451
 738,23; 9342,872;  283,206;54435,282;16,73004
 738,80; 9415,188;  347,206;54783,244;16,65805
 739,37; 9469,196;  307,360;54988,283;16,75509
 739,94; 9530,665;  291,361;54960,783;16,90032
 740,51; 9587,058;  398,822;54989,976;16,83100
 741,07; 9615,528;  287,669;55001,784;17,04836
 741,64; 9665,382;  305,361;55283,207;17,02508
 742,21; 9766,390;  287,438;55298,861;17,23088
 742,78; 9708,552;  265,515;55003,439;17,25136
 743,35; 9822,483;  296,054;55360,631;17,30047
 743,92; 9924,876;  321,439;55485,901;17,40874
 744,49; 9952,423;  315,978;55347,324;17,51083
 745,06; 9978,815;  283,747;55364,517;17,60155
 745,63; 9935,131;  276,132;55307,940;17,55167
 746,19;10053,832;  284,978;55291,671;17,75939
 746,76;10158,917;  295,440;55333,787;17,92110
 747,33;10169,002;  284,671;55331,287;17,95629
 747,90;10266,625;  304,287;55570,172;18,02620
 748,47;10322,557;  292,595;55467,287;18,17856
 749,04;10337,257;  314,133;55417,095;18,18981
 749,61;10403,342;  324,903;55368,827;18,30981
 750,17;10393,504;  311,672;55477,865;18,27538
 750,74;10518,512;  301,749;55411,981;18,53878
 751,31;10475,366;  267,826;55307,404;18,54582
 751,88;10517,221;  266,980;55142,289;18,67915
 752,45;10615,844;  287,750;55391,174;18,74311
 753,02;10577,545;  298,442;55082,674;18,76288
 753,58;10632,707;  276,981;55049,098;18,90693
 754,15;10751,330;  283,751;55229,829;19,05064
 754,72;10756,954;  282,828;54954,406;19,15827
 755,29;10780,577;  267,597;54789,445;19,28214
 755,86;10838,739;  284,597;54987,330;19,29363
 756,42;10992,055;  286,828;54919,830;19,59480
 756,99;10964,601;  251,136;54833,253;19,62816
 757,56;10983,917;  270,060;54787,677;19,65210
 758,13;10945,771;  211,367;54778,869;19,67179
 758,70;11107,626;  238,598;54822,677;19,91245
 759,26;11114,095;  228,060;54837,562;19,93432
 759,83;11216,257;  239,060;54939,293;20,06792
 760,40;11196,035;  226,753;54823,793;20,09135
 760,97;11221,889;  217,830;54841,678;20,14516
 761,53;11180,589;  200,446;54453,948;20,23859
 762,10;11179,905;  212,984;54440,756;20,22381
 762,67;11345,760;  244,523;54427,102;20,48857
 763,24;11244,306;  202,292;54032,295;20,51275
 763,80;11277,160;  238,677;54121,334;20,48615
 764,37;11342,476;  240,139;54150,218;20,59418
 764,94;11245,254;  216,524;53655,411;20,63802
 765,50;11312,646;  229,447;53698,681;20,72818
 766,07;11430,501;  273,909;53765,258;20,85681
 766,64;11395,509;  237,909;53484,912;20,95442
 767,21;11365,517;  249,525;53336,874;20,93906
 767,77;11455,602;  272,371;53316,989;21,08269
 768,34;11471,533;  278,294;53213,182;21,14530
 768,91;11480,695;  270,371;53061,836;21,23511
 769,47;11583,395;  263,449;53144,952;21,40625
 770,04;11529,557;  273,680;52968,529;21,36049
 770,61;11542,181;  255,988;52776,106;21,48928
 771,18;11588,035;  248,142;52584,299;21,66742
 771,74;11638,966;  271,449;52771,953;21,65221
 772,31;11636,898;  262,527;52573,530;21,74374
 772,88;11621,213;  234,988;52332,800;21,85548
 773,44;11632,683;  253,066;52111,300;21,94370
 774,01;11705,460;  270,373;52206,262;22,01770
 774,58;11687,238;  249,527;51799,300;22,18770
 775,14;11768,246;  247,220;51982,955;22,26899
 775,71;11779,254;  249,605;51886,147;22,32847
 776,27;11872,570;  309,605;51837,878;22,44004
 776,84;11941,347;  331,990;51829,917;22,54335
 777,41;11969,355;  277,836;51661,109;22,75355
 777,97;11902,748;  251,606;51326,225;22,81200
 778,54;11998,141;  273,991;51381,572;22,94014
 779,11;12045,687;  286,837;51416,610;22,99805
 779,67;11981,003;  251,376;51394,803;22,93477
 780,24;12057,934;  269,453;51262,457;23,11784
 780,80;12128,942;  285,068;51128,957;23,29459
 781,37;12148,181;  275,684;51131,765;23,34529
 781,94;12211,036;  254,684;50875,035;23,61965
 782,50;12221,659;  269,607;50789,920;23,65791
 783,07;12269,360;  292,454;50872,805;23,67897
 783,63;12260,445;  257,685;50595,997;23,84418
 784,20;12311,145;  279,685;50630,651;23,89519
 784,77;12296,845;  267,685;50313,844;24,03613
 785,33;12260,930;  241,993;50191,806;24,06203
 785,90;12338,939;  267,686;50231,998;24,15975
 786,46;12342,639;  278,840;50231,191;24,15061
 787,03;12328,955;  248,763;49988,460;24,28682
 787,59;12316,886;  260,840;49854,807;24,30950
 788,16;12423,817;  281,610;49774,076;24,53345
 788,73;12412,825;  269,533;49591,192;24,62061
 789,29;12359,757;  263,302;49230,615;24,70312
 789,86;12374,226;  282,918;49188,731;24,72366
 790,42;12388,234;  270,380;49006,693;24,86412
 790,99;12365,089;  279,611;48804,424;24,90577
 791,55;12408,404;  258,611;48747,001;25,05712
 792,12;12473,797;  286,457;48744,194;25,15045
 792,68;12399,113;  266,611;48385,386;25,21365
 793,25;12414,967;  275,227;48188,348;25,33699
 793,81;12435,591;  330,227;47839,233;25,48015
 794,38;12382,676;  239,458;47655,426;25,60998
 794,94;12420,222;  249,997;47471,003;25,77291
 795,51;12396,769;  282,074;47346,272;25,74079
 796,07;12363,854;  257,536;47077,696;25,85706
 796,64;12479,247;  295,997;47173,273;25,98967
 797,20;12431,178;  280,075;46664,312;26,19662
 797,77;12307,494;  235,921;46331,043;26,18840
 798,33;12377,348;  269,767;46193,928;26,36429
 798,90;12421,279;  287,537;46098,505;26,48654
 799,46;12309,441;  270,229;45575,928;26,57328
 800,03;12353,757;  273,383;45513,275;26,70292
 800,59;12369,996;  285,768;45370,390;26,80344
 801,15;12336,158;  288,230;45134,198;26,86513
 801,72;12300,320;  270,845;44878,006;26,96759
 802,28;12325,482;  294,615;44557,122;27,18072
 802,85;12245,336;  274,307;44399,930;27,12943
 803,41;12287,344;  263,000;44169,892;27,38601
 803,98;12221,968;  261,616;43746,777;27,50444
 804,54;12225,591;  270,154;43444,738;27,69091
 805,11;12243,215;  287,539;43330,623;27,77607
 805,67;12214,300;  308,078;43278,200;27,70814
 806,23;12091,923;  266,001;42761,085;27,82892
 806,80;12121,931;  288,617;42695,124;27,90448
 807,36;12122,939;  287,463;42689,394;27,91259
 807,93;12103,255;  300,848;42473,740;27,98577
 808,49;12004,725;  249,386;42084,317;28,09934
 809,05;12019,579;  251,156;41995,356;28,19176
 809,62;12018,895;  289,002;41842,933;28,22812
 810,18;12041,134;  281,541;41730,818;28,37104
 810,74;11938,911;  245,849;41519,780;28,33038
 811,31;11958,381;  250,618;41268,511;28,54306
 811,87;11974,620;  259,157;41163,627;28,64103
 812,44;11968,859;  294,926;41136,204;28,58366
 813,00;11916,944;  220,004;40883,166;28,76545
 813,56;11978,106;  274,696;40935,204;28,78323
 814,13;11930,806;  259,850;40745,474;28,82741
 814,69;11937,353;  253,235;40594,666;28,96307
 815,25;11888,515;  236,928;40200,705;29,15537
 815,82;11890,907;  280,697;40209,436;29,07733
 816,38;11882,916;  300,005;40000,552;29,17570
 816,94;11774,462;  251,928;39694,129;29,21372
 817,51;11791,701;  238,928;39506,322;29,42078
 818,07;11789,632;  245,775;39250,976;29,59569
 818,63;11709,563;  273,006;39023,861;29,51305
 819,20;11729,725;  259,006;38979,823;29,62417
 819,76;11583,580;  242,391;38565,092;29,59392
 820,32;11652,972;  295,853;38508,823;29,72059
 820,89;11643,750;  276,237;38269,323;29,91995
 821,45;11581,835;  245,930;37985,747;30,03699
 822,01;11556,304;  270,084;37748,939;30,11357
 822,57;11568,389;  262,853;37571,747;30,30252
 823,14;11510,167;  237,854;37367,786;30,35910
 823,70;11473,329;  235,854;37118,902;30,46786
 824,26;11489,260;  249,085;36961,325;30,61697
 824,82;11520,114;  268,854;36806,748;30,79340
 825,39;11452,661;  246,854;36566,787;30,85305
 825,95;11505,823;  264,239;36537,211;30,99163
 826,51;11436,523;  262,547;36125,634;31,15732
 827,08;11484,916;  306,240;36207,211;31,13753
 827,64;11467,155;  270,317;36035,481;31,30655
 828,20;11407,548;  246,471;35772,519;31,41660
 828,76;11498,940;  269,625;35703,635;31,69078
 829,32;11455,256;  276,317;35643,289;31,60841
 829,89;11405,264;  231,241;35524,712;31,66031
 830,45;11462,349;  258,010;35444,982;31,84229
 831,01;11398,973;  252,703;35229,790;31,86735
 831,57;11368,442;  254,011;35069,983;31,92337
 832,14;11379,989;  246,703;35026,252;32,01101
 832,70;11369,843;  243,088;34855,522;32,14670
 833,26;11429,159;  214,704;34669,560;32,54826
 833,82;11387,937;  252,242;34709,291;32,31761
 834,38;11458,791;  247,089;34666,407;32,57386
 834,95;11412,953;  241,473;34489,753;32,61910
 835,51;11365,499;  209,243;34402,561;32,62701
 836,07;11520,431;  253,705;34454,908;32,94248
 836,63;11603,285;  264,013;34434,485;33,18442
 837,19;11601,062;  247,859;34274,139;33,36598
 837,75;11457,147;  219,551;33980,563;33,28572
 838,32;11596,463;  260,167;34076,371;33,52327
 838,88;11648,856;  262,090;34127,948;33,62314
 839,44;11632,172;  255,783;34055,756;33,65798
 840,00;11652,257;  252,014;33936,179;33,84452
 840,56;11597,419;  239,860;33756,295;33,88654
 841,12;11618,965;  235,476;33652,410;34,06503
 841,68;11590,512;  226,091;33490,526;34,16388
 842,25;11580,828;  231,322;33469,488;34,14600
 842,81;11566,605;  231,246;33316,142;34,26143
 843,37;11506,228;  214,938;33260,950;34,16839
 843,93;11597,775;  237,938;33145,219;34,52074
 844,49;11616,014;  247,400;33174,566;34,52655
 845,05;11573,791;  210,170;33065,912;34,58641
 845,61;11642,030;  248,170;33106,643;34,67556
 846,17;11537,346;  235,785;32907,298;34,59148
 846,73;11593,662;  241,940;32803,721;34,86210
 847,29;11573,054;  217,324;32683,913;34,97667
 847,86;11553,986;  235,248;32657,260;34,91066
 848,42;11484,763;  221,017;32423,376;34,97802
 848,98;11584,925;  249,402;32411,414;35,24507
 849,54;11602,548;  232,864;32420,376;35,32328
 850,10;11574,710;  239,172;32242,261;35,42014
 850,66;11539,872;  223,326;32169,223;35,42410
 851,22;11566,881;  216,018;32044,492;35,66260
 851,78;11649,889;  262,172;32190,300;35,66672
 852,34;11552,435;  247,480;31902,878;35,71257
 852,90;11538,828;  239,711;31744,301;35,86499
 853,46;11526,836;  221,327;31626,878;35,99844
 854,02;11600,690;  241,096;31540,686;36,29311
 854,58;11532,698;  237,558;31283,648;36,38185
 855,14;11492,553;  227,712;31230,148;36,33534
 855,70;11500,869;  199,404;31072,802;36,60583
 856,26;11532,031;  247,482;30999,610;36,69518
 856,82;11449,654;  223,174;30911,803;36,58189
 857,38;11463,431;  260,405;30765,842;36,72469
 857,94;11474,055;  225,559;30693,342;36,91931
 858,50;11479,678;  250,790;30567,073;37,03913
 859,06;11381,840;  231,560;30390,266;36,97201
 859,62;11469,848;  239,868;30330,612;37,32038
 860,18;11444,010;  229,406;30161,112;37,46731
 860,74;11467,634;  209,945;29971,689;37,82604
 861,30;11444,796;  208,791;29742,882;38,04419
 861,86;11494,650;  270,638;29919,075;37,85701
 862,42;11465,504;  237,946;29764,806;38,02490
 862,98;11470,743;  266,176;29637,075;38,14853
 863,54;11452,059;  236,946;29389,960;38,46982
 864,10;11495,606;  220,638;29537,691;38,45873
 864,66;11379,998;  213,639;29320,191;38,36373
 865,22;11426,237;  229,485;29208,769;38,63709
 865,78;11387,630;  242,639;29062,269;38,67153
 866,34;11385,331;  221,255;28983,154;38,81550
 866,90;11400,569;  246,716;28842,346;39,00545
 867,45;11324,039;  234,024;28601,462;39,09417
 868,01;11308,278;  240,717;28463,808;39,21456
 868,57;11237,363;  228,640;28331,924;39,17237
 869,13;11259,679;  212,025;28131,732;39,56938
 869,69;11239,995;  229,871;28104,463;39,49878
 870,25;11250,772;  212,025;28013,425;39,70572
 870,81;11286,703;  233,103;27915,694;39,92979
 871,37;11254,096;  241,103;27851,426;39,88723
 871,93;11203,719;  241,334;27679,310;39,95333
 872,49;11203,574;  262,719;27451,272;40,24067
 873,04;11091,890;  217,411;27275,849;40,18886
 873,60;11147,590;  217,181;27180,965;40,53737
 874,16;11113,213;  238,719;27138,312;40,42624
 874,72;11073,367;  230,104;27081,927;40,38185
 875,28;11132,675;  240,258;26971,773;40,74747
 875,84;11113,060;  230,258;26915,388;40,78227
 876,40;11135,290;  222,027;26777,388;41,09627
 876,95;11129,675;  237,104;26837,004;40,94967
 877,51;11181,367;  264,181;26826,235;41,10069
 878,07;11269,367;  270,719;26808,004;41,44602
 878,63;11236,213;  226,335;26831,004;41,38326
 879,19;11312,137;  242,873;26770,696;41,72700
 879,75;11347,444;  233,488;26885,388;41,70043
 880,30;11412,598;  235,258;26834,388;42,02145
 880,86;11469,675;  274,335;27011,312;41,87212
 881,42;11508,675;  217,181;26987,696;42,17885
 881,98;11553,521;  251,104;27128,850;42,05121
 882,54;11632,444;  229,796;27205,542;42,27000
 883,09;11704,367;  240,104;27280,927;42,39613
 883,65;11751,906;  221,027;27450,235;42,34746
 884,21;11905,213;  258,642;27607,927;42,58456
 884,77;11921,752;  217,412;27540,696;42,83651
 885,32;12000,829;  232,104;27752,158;42,76418
 885,88;12137,060;  269,642;27948,927;42,87473
 886,44;12157,752;  234,258;28056,773;42,85556
 887,00;12212,598;  260,796;28002,388;43,08261
 887,56;12356,137;  226,873;28174,927;43,39931
 888,11;12357,906;  234,565;28173,465;43,39233
 888,67;12485,213;  261,258;28362,927;43,49904
 889,23;12517,521;  247,104;28360,696;43,64585
 889,79;12484,521;  219,873;28214,927;43,81005
 890,34;12500,906;  241,565;28168,235;43,89833
 890,90;12623,367;  303,642;28337,619;43,94569
 891,46;12563,906;  222,335;28240,235;44,04888
 892,01;12603,829;  253,950;28197,927;44,19514
 892,57;12636,290;  271,027;28211,465;44,25580
 893,13;12580,675;  224,335;27922,235;44,61111
 893,69;12568,367;  227,642;27872,081;44,64090
 894,24;12562,521;  245,027;27818,542;44,67147
 894,80;12650,829;  248,181;27712,004;45,15995
 895,36;12568,060;  239,642;27574,235;45,10189
 895,91;12464,290;  226,950;27331,773;45,14820
 896,47;12572,983;  252,335;27288,619;45,57079
 897,03;12448,829;  230,488;27012,158;45,62203
 897,58;12426,367;  254,719;27080,619;45,37275
 898,14;12447,444;  246,796;26719,235;46,08812
 898,70;12395,290;  204,950;26620,312;46,14868
 899,25;12407,367;  242,181;26628,465;46,10420
 899,81;12403,906;  248,104;26450,696;46,39160
 900,37;12306,213;  208,258;26203,696;46,53876
 900,92;12358,675;  239,642;26209,081;46,66652
 901,48;12395,137;  225,412;26078,465;47,07268
 902,03;12291,137;  212,335;25948,773;46,93269
 902,59;12301,290;  229,950;25837,081;47,14054
 903,15;12321,906;  256,488;25704,542;47,41195
 903,70;12289,444;  245,027;25477,081;47,73459
 904,26;12244,675;  223,873;25315,773;47,90710
 904,82;12243,444;  242,873;25352,542;47,79263
 905,37;12206,675;  246,719;25189,619;47,94934
 905,93;12244,752;  228,719;25007,312;48,49361
 906,48;12192,598;  243,796;25006,850;48,25254
 907,04;12221,137;  253,335;24911,388;48,53506
 907,60;12112,213;  237,950;24700,542;48,54050
 908,15;12148,598;  230,027;24588,696;48,92948
 908,71;12239,444;  257,027;24614,081;49,19485
 909,26;12193,444;  228,181;24422,619;49,45460
 909,82;12113,983;  257,412;24211,388;49,49730
 910,37;12125,598;  277,027;24242,081;49,44104
 910,93;12069,444;  226,104;24083,312;49,64261
 911,48;12019,521;  220,181;23858,388;49,91639
 912,04;12026,213;  236,796;23776,312;50,08352
 912,60;12034,060;  243,258;23848,235;49,95049
 913,15;11957,829;  239,873;23565,619;50,23615
 913,71;11913,137;  219,873;23403,696;50,43717
 914,26;11938,060;  215,104;23348,850;50,67470
 914,82;11867,290;  236,412;23261,312;50,51435
 915,37;11858,829;  223,642;23194,927;50,65101
 915,93;11862,983;  272,642;23073,158;50,83368
 916,48;11798,213;  225,719;22937,081;50,95465
 917,04;11846,521;  247,104;22802,696;51,42590
 917,59;11822,521;  263,181;22762,158;51,37718
 918,15;11678,444;  196,488;22562,388;51,33688
 918,70;11677,675;  220,873;22468,696;51,49628
 919,26;11758,060;  231,950;22437,081;51,90742
 919,81;11543,060;  220,719;22235,312;51,43107
 920,37;11593,752;  228,642;22167,158;51,80437
 920,92;11613,598;  246,873;22137,081;51,92607
 921,48;11464,060;  214,488;21839,081;52,02212
 922,03;11471,752;  225,950;21859,081;51,98416
 922,59;11442,521;  225,796;21713,158;52,20150
 923,14;11375,598;  224,796;21644,312;52,05908
 923,69;11334,521;  250,565;21559,388;52,01580
 924,25;11377,444;  238,027;21438,619;52,54295
 924,80;11313,906;  233,719;21291,312;52,61849
 925,36;11284,367;  226,104;21189,312;52,75082
 925,91;11272,367;  211,181;21066,542;53,03762
 926,47;11220,521;  208,565;20966,081;53,05045
 927,02;11281,983;  280,335;20992,235;53,11752
 927,57;11204,367;  225,104;20790,696;53,38657
 928,13;11155,906;  213,796;20660,388;53,51557
 928,68;11172,675;  225,258;20638,312;53,62949
 929,24;11073,906;  199,719;20421,388;53,77492
 929,79;10993,137;  206,335;20327,235;53,60994
 930,34;10972,598;  226,873;20180,465;53,85359
 930,90;11007,060;  212,027;20141,465;54,16627
 931,45;10968,213;  229,027;20157,927;53,88750
 932,01;11031,598;  225,873;20021,465;54,58652
 932,56;10925,521;  249,719;19868,388;54,41654
 933,11;10986,521;  253,488;19857,927;54,74797
 933,67;10851,213;  220,488;19695,388;54,58680
 934,22;10924,521;  236,181;19596,312;55,20800
 934,77;10938,060;  257,950;19538,158;55,39416
 935,33;10810,983;  227,796;19370,850;55,28473
 935,88;10876,675;  228,258;19341,158;55,71325
 936,43;10890,829;  228,642;19217,235;56,15048
 936,99;10836,829;  232,719;19116,927;56,15332
 937,54;10755,906;  210,719;18954,773;56,25884
 938,09;10701,906;  227,412;18975,388;55,87000
 938,65;10683,752;  220,950;18836,850;56,20358
 939,20;10697,521;  204,335;18707,773;56,70939
 939,75;10627,444;  211,565;18689,619;56,36892
 940,31;10660,367;  210,412;18486,850;57,17720
 940,86;10653,521;  225,027;18508,004;57,03937
 941,41;10653,598;  290,565;18399,542;57,22594
 941,96;10490,060;  219,258;18250,619;56,96077
 942,52;10486,598;  216,027;18174,235;57,19152
 943,07;10410,752;  197,488;18061,696;57,17166
 943,62;10430,213;  217,719;17999,081;57,43370
 944,18;10391,829;  195,565;17954,158;57,41594
 944,73;10331,137;  233,027;17856,388;57,29957
 945,28;10249,444;  191,027;17627,927;57,68466
 945,83;10274,906;  217,642;17686,773;57,57163
 946,39;10295,675;  223,335;17662,004;57,75865
 946,94;10276,367;  245,335;17545,542;57,98215
 947,49;10190,137;  219,565;17453,696;57,85364
 948,04;10180,521;  253,719;17367,542;58,00458
 948,59;10146,213;  244,950;17351,773;57,87903
 949,15;10049,137;  202,719;17219,850;57,86179
 949,70;10053,444;  218,104;17085,235;58,31069
 950,25;10046,675;  237,181;17045,158;58,36214
 950,80;10004,521;  196,027;16909,081;58,68762
 951,36; 9973,060;  197,873;16863,235;58,65571
 951,91; 9981,290;  230,565;16832,927;58,73095
 952,46; 9920,367;  199,719;16575,158;59,36115
 953,01;10000,213;  242,950;16650,619;59,46770
 953,56; 9912,060;  195,104;16489,542;59,63357
 954,11; 9901,137;  233,565;16458,312;59,58535
 954,67; 9871,598;  219,719;16418,312;59,58468
 955,22; 9797,675;  207,181;16251,773;59,77400
 955,77; 9824,675;  242,412;16265,004;59,80470
 956,32; 9848,675;  275,181;16178,927;60,19647
 956,87; 9751,829;  206,565;15991,235;60,47174
 957,42; 9731,137;  211,258;15955,850;60,46444
 957,98; 9707,906;  214,335;15911,465;60,47966
 958,53; 9713,213;  238,412;15814,004;60,83109
 959,08; 9662,367;  201,796;15706,619;61,01696
 959,63; 9575,906;  206,796;15611,312;60,82054
 960,18; 9604,906;  229,873;15587,312;61,04555
 960,73; 9622,521;  226,796;15466,158;61,65432
 961,28; 9499,060;  199,873;15403,312;61,16502
 961,83; 9569,906;  238,181;15367,619;61,67926
 962,39; 9510,829;  204,642;15236,542;61,90958
 962,94; 9492,213;  228,181;15135,158;62,14562
 963,49; 9423,829;  223,565;15083,158;61,91464
 964,04; 9415,752;  235,642;15060,927;61,92198
 964,59; 9370,983;  190,873;14878,773;62,50117
 965,14; 9406,598;  237,950;14853,158;62,73361
 965,69; 9357,752;  226,181;14738,388;62,92338
 966,24; 9252,060;  216,104;14616,465;62,74812
 966,79; 9212,060;  233,488;14561,158;62,66596
 967,34; 9135,060;  193,104;14409,696;62,89802
 967,89; 9109,444;  206,027;14404,312;62,70770
 968,44; 9095,598;  216,027;14305,773;63,02151
 968,99; 9129,598;  221,950;14292,465;63,30719
 969,55; 9054,213;  222,027;14166,619;63,33772
 970,10; 8993,290;  226,488;14098,312;63,19863
 970,65; 8939,444;  246,873;14004,696;63,18275
 971,20; 8903,598;  214,181;13909,773;63,44682
 971,75; 8778,367;  197,796;13668,542;63,69782
 972,30; 8811,906;  223,104;13699,081;63,73417
 972,85; 8736,060;  212,181;13631,004;63,52181
 973,40; 8726,598;  206,258;13559,158;63,80891
 973,95; 8692,444;  222,719;13453,312;64,01622
 974,50; 8641,598;  246,565;13406,773;63,79103
 975,05; 8626,598;  227,335;13275,619;64,37063
 975,60; 8601,521;  233,642;13192,388;64,57321
 976,15; 8529,906;  213,719;13086,158;64,60459
 976,70; 8502,213;  225,719;13024,312;64,66722
 977,25; 8500,367;  228,950;12980,388;64,86654
 977,80; 8390,367;  205,104;12853,542;64,71363
 978,35; 8324,521;  228,565;12647,773;65,18899
 978,89; 8260,598;  198,719;12588,388;65,06936
 979,44; 8290,906;  228,873;12625,081;65,03628
 979,99; 8190,060;  209,873;12401,619;65,45565
 980,54; 8164,829;  243,412;12386,850;65,23208
 981,09; 8189,367;  239,258;12232,388;66,28886
 981,64; 8060,060;  234,873;12097,773;65,96352
 982,19; 8090,829;  261,027;12125,081;65,99601
 982,74; 7995,598;  245,027;11893,081;66,53962
 983,29; 7878,521;  213,950;11764,619;66,35608
 983,84; 7856,675;  235,258;11668,773;66,65857
 984,39; 7889,137;  303,104;11711,542;66,49493
 984,94; 7750,675;  203,027;11481,619;66,92013
 985,49; 7749,829;  250,873;11470,542;66,83758
 986,03; 7731,829;  250,488;11413,235;67,02061
 986,58; 7668,983;  276,027;11242,619;67,41343
 987,13; 7592,829;  237,027;11119,465;67,59332
 987,68; 7555,137;  235,335;11045,773;67,71050
 988,23; 7554,521;  237,258;10984,850;68,08282
 988,78; 7416,598;  223,873;10863,235;67,60486
 989,33; 7389,675;  241,873;10732,696;68,13385
 989,88; 7402,060;  249,642;10721,619;68,30054
 990,42; 7294,521;  232,642;10586,158;68,20755
 990,97; 7229,675;  224,950;10463,004;68,41852
 991,52; 7199,675;  253,719;10376,850;68,61470
 992,07; 7144,829;  255,873;10301,927;68,57375
 992,62; 7086,290;  239,873;10217,773;68,61581
 993,17; 7035,290;  238,181;10072,004;69,11971
 993,71; 6993,137;  248,950; 9954,235;69,48984
 994,26; 6891,137;  222,181; 9825,850;69,44175
 994,81; 6899,213;  250,181; 9767,850;69,85988
 995,36; 6766,829;  226,719; 9628,773;69,56044
 995,91; 6765,290;  235,258; 9593,004;69,78211
 996,45; 6723,598;  236,335; 9483,619;70,15317
 997,00; 6629,598;  207,950; 9335,850;70,35187
 997,55; 6628,444;  233,873; 9334,927;70,26188
 998,10; 6571,060;  265,488; 9163,773;70,86277
 998,65; 6532,367;  231,412; 9172,465;70,47218
 999,19; 6440,906;  252,104; 9013,158;70,63993
 999,74; 6364,137;  276,181; 8985,542;69,90129
1000,29; 6353,752;  246,719; 8828,773;71,16050
1000,84; 6218,137;  223,104; 8741,696;70,37586
1001,38; 6206,137;  237,412; 8648,388;70,96352
1001,93; 6121,752;  248,181; 8601,158;70,31710
1002,48; 6039,367;  221,950; 8410,542;71,04295
1003,03; 5988,060;  238,565; 8394,696;70,49291
1003,57; 5934,598;  249,719; 8249,158;71,06597
1004,12; 5887,906;  272,412; 8205,235;70,78809
1004,67; 5800,983;  226,719; 8094,235;70,85164
1005,22; 5706,444;  217,796; 7967,081;70,82780
1005,76; 5584,983;  217,335; 7848,235;70,34096
1006,31; 5631,213;  247,642; 7815,850;71,13403
1006,86; 5521,675;  222,104; 7678,850;71,07083
1007,40; 5416,983;  210,950; 7571,850;70,72549
1007,95; 5380,367;  236,873; 7480,158;71,01052
1008,50; 5315,213;  231,642; 7337,388;71,54169
1009,04; 5262,675;  219,950; 7249,004;71,74116
1009,59; 5158,906;  240,412; 7142,312;71,26290
1010,14; 5105,829;  216,335; 7033,312;71,72526
1010,68; 5037,906;  229,565; 6973,773;71,29585
1011,23; 4950,213;  224,950; 6797,542;71,89345
1011,78; 4914,060;  234,181; 6780,465;71,48908
1012,32; 4840,521;  247,565; 6639,465;71,85588
1012,87; 4842,521;  253,412; 6621,081;72,06891
1013,42; 4717,444;  218,258; 6484,004;71,80608
1013,96; 4739,137;  258,488; 6507,081;71,70652
1014,51; 4627,444;  198,335; 6424,619;71,13568
1015,06; 4652,598;  204,335; 6429,158;71,46008
1015,60; 4735,367;  268,565; 6443,619;72,33624
1016,15; 4675,983;  224,104; 6407,542;71,99682
1016,69; 4692,367;  233,950; 6431,158;71,94236
1017,24; 4688,983;  205,258; 6454,927;71,74340
1017,79; 4746,213;  251,796; 6551,081;71,34806
1018,33; 4727,983;  218,412; 6526,158;71,49259
1018,88; 4796,829;  242,258; 6598,927;71,65028
1019,42; 4781,290;  229,412; 6609,388;71,34632
1019,97; 4792,290;  209,642; 6586,388;71,86499
1020,51; 4830,213;  243,335; 6614,927;71,98952
1021,06; 4774,060;  199,258; 6623,081;71,21619
1021,61; 4776,598;  204,258; 6566,081;71,87154
1022,15; 4771,137;  180,027; 6530,927;72,29069
1022,70; 4787,906;  223,873; 6544,388;72,20982
1023,24; 4769,521;  217,104; 6506,696;72,38017
1023,79; 4706,906;  214,873; 6440,312;72,15609
1024,33; 4674,060;  219,642; 6432,696;71,69449
1024,88; 4624,213;  224,565; 6301,158;72,40321
1025,42; 4567,598;  216,335; 6201,773;72,69749
1025,97; 4486,675;  219,027; 6159,696;71,83783
1026,51; 4419,598;  185,488; 6011,927;72,67063
1027,06; 4359,213;  206,488; 5991,850;71,77987
1027,60; 4307,829;  239,258; 5887,235;72,03590
1028,15; 4264,290;  245,873; 5774,696;72,68124
1028,69; 4180,752;  198,950; 5671,004;72,76613
1029,24; 4129,829;  217,104; 5593,542;72,77541
1029,78; 4060,137;  215,181; 5512,696;72,58036
1030,33; 3918,598;  196,565; 5423,542;71,20813
1030,87; 3936,060;  222,642; 5339,312;72,57489
1031,42; 3883,290;  202,181; 5270,850;72,62477
1031,96; 3862,983;  233,488; 5172,465;73,48676
1032,51; 3790,060;  211,796; 5112,696;73,01237
1033,05; 3753,752;  216,104; 5063,465;72,98090
1033,60; 3659,137;  191,950; 4923,927;73,27142
1034,14; 3646,213;  213,565; 4874,388;73,64897
1034,69; 3616,829;  219,642; 4796,312;74,22836
1035,23; 3579,444;  208,796; 4739,927;74,38867
1035,77; 3551,983;  201,412; 4670,388;74,97401
1036,32; 3463,906;  190,950; 4605,312;74,14336
1036,86; 3450,444;  214,335; 4557,312;74,51363
1037,41; 3420,598;  225,104; 4481,542;75,07437
1037,95; 3342,521;  194,104; 4382,773;75,16510
1038,50; 3321,290;  206,412; 4372,696;74,76395
1039,04; 3286,598;  233,027; 4333,235;74,47357
1039,58; 3234,290;  196,488; 4222,388;75,45647
1040,13; 3178,137;  218,181; 4185,004;74,61779
1040,67; 3192,521;  237,488; 4167,081;75,19947
1041,21; 3122,521;  238,565; 4070,696;75,25724
1041,76; 3024,367;  199,104; 4016,850;74,00344
1042,30; 3054,060;  215,104; 3950,158;76,00843
1042,85; 2986,137;  217,335; 3897,235;75,24123
1043,39; 2960,137;  207,258; 3822,235;76,15204
1043,93; 2895,829;  223,335; 3783,773;75,06082
1044,48; 2837,598;  223,412; 3736,850;74,40536
1045,02; 2805,137;  213,104; 3690,850;74,53197
1045,56; 2819,137;  232,719; 3675,850;75,11818
1046,11; 2757,444;  220,642; 3615,004;74,73576
1046,65; 2717,598;  229,488; 3556,773;74,77898
1047,19; 2656,521;  207,104; 3511,465;74,12680
1047,74; 2612,598;  197,950; 3420,388;74,93233
1048,28; 2612,367;  220,181; 3400,927;75,20834
1048,82; 2588,598;  238,719; 3362,388;75,22816
1049,37; 2525,444;  228,412; 3294,004;74,92949
1049,91; 2499,290;  230,796; 3252,158;75,08185
1050,45; 2486,598;  233,258; 3229,158;75,21414
1050,99; 2441,444;  216,642; 3161,927;75,53776
1051,54; 2387,983;  208,796; 3103,696;75,27675
1052,08; 2394,906;  250,796; 3090,235;75,51175
1052,62; 2388,137;  236,719; 3048,696;76,50907
1053,16; 2316,137;  217,412; 2967,004;76,32859
1053,71; 2328,752;  230,565; 2937,465;77,51252
1054,25; 2277,752;  241,719; 2895,773;76,71407
1054,79; 2261,983;  231,642; 2873,235;76,86047
1055,33; 2200,290;  195,488; 2796,696;77,07197
1055,88; 2213,213;  231,412; 2778,312;77,81232
1056,42; 2178,598;  245,873; 2757,388;76,95454
1056,96; 2180,290;  238,565; 2705,158;78,72095
1057,50; 2140,444;  224,104; 2676,312;78,14756
1058,05; 2093,598;  221,335; 2629,773;77,73765
1058,59; 2067,598;  247,565; 2595,850;77,50477
1059,13; 2018,829;  206,181; 2532,158;77,93061
1059,67; 2028,752;  224,642; 2534,235;78,11377
1060,21; 1975,906;  218,796; 2464,235;78,25241
1060,76; 1969,521;  229,565; 2448,081;78,42883
1061,30; 1980,906;  248,565; 2444,773;78,87871
1061,84; 1915,598;  229,796; 2349,312;79,53714
1062,38; 1844,829;  218,335; 2286,542;78,64269
1062,92; 1863,752;  266,488; 2345,081;76,84352
1063,46; 1842,290;  247,181; 2274,388;78,68506
1064,01; 1802,983;  224,412; 2233,927;78,55482
1064,55; 1794,444;  231,565; 2217,773;78,68658
1065,09; 1726,367;  204,565; 2145,388;78,41013
1065,63; 1764,521;  253,719; 2166,388;78,98919
1066,17; 1744,598;  262,796; 2143,465;78,79120
1066,71; 1732,060;  247,258; 2125,388;79,05743
1067,25; 1662,213;  241,950; 2079,927;77,27319
1067,80; 1658,752;  256,873; 2061,696;77,67403
1068,34; 1647,444;  258,950; 2065,619;76,85382
1068,88; 1595,444;  225,181; 1990,696;77,61266
1069,42; 1609,137;  252,488; 2018,696;76,81136
1069,96; 1567,213;  234,642; 1949,081;77,72639
1070,50; 1597,367;  276,488; 1963,081;78,31643
1071,04; 1530,444;  220,950; 1888,696;78,51880
1071,58; 1508,137;  232,796; 1878,081;77,51488
1072,12; 1517,906;  233,796; 1855,081;79,20322
1072,66; 1496,290;  227,181; 1840,158;78,68120
1073,21; 1515,598;  243,104; 1838,004;79,78520
1073,75; 1477,290;  238,488; 1792,850;79,69844
1074,29; 1436,752;  245,950; 1790,388;77,10258
1074,83; 1447,060;  250,642; 1768,542;78,82056
1075,37; 1427,213;  255,796; 1760,542;77,84817
1075,91; 1419,444;  255,873; 1747,312;78,01671
1076,45; 1400,444;  236,565; 1700,004;79,53043
1076,99; 1373,521;  245,488; 1654,004;80,08664
1077,53; 1340,983;  229,104; 1627,004;79,53923
1078,07; 1350,521;  242,258; 1641,927;79,18038
1078,61; 1331,906;  237,412; 1612,081;79,61873
1079,15; 1309,752;  235,719; 1601,004;78,66731
1079,69; 1306,060;  236,796; 1561,235;80,73334
1080,23; 1299,444;  253,335; 1567,850;79,58139
1080,77; 1307,137;  284,719; 1574,388;79,27748
1081,31; 1233,829;  219,565; 1499,235;79,25981
1081,85; 1255,521;  250,719; 1528,004;78,66703
1082,39; 1240,444;  228,027; 1476,927;81,06472
1082,93; 1245,983;  249,950; 1489,312;80,36660
1083,47; 1187,290;  228,565; 1438,773;79,21987
1084,01; 1207,060;  246,027; 1466,388;78,74983
1084,55; 1174,675;  235,258; 1420,004;79,29271
1085,09; 1161,983;  247,950; 1420,004;77,98555
1085,63; 1159,137;  254,335; 1380,158;80,36804
1086,17; 1151,752;  224,719; 1372,158;80,79150
1086,71; 1107,213;  229,796; 1356,773;77,85584
1087,24; 1144,752;  266,642; 1373,927;79,30297
1087,78; 1128,598;  249,258; 1344,235;80,30675
1088,32; 1076,213;  234,488; 1302,312;78,82626
1088,86; 1103,752;  255,027; 1325,696;79,27051
1089,40; 1071,906;  239,335; 1279,004;80,08039
1089,94; 1055,060;  223,027; 1243,081;81,56753
1090,48; 1060,444;  243,258; 1242,312;81,79605
1091,02; 1043,906;  254,258; 1254,081;78,97878
1091,56; 1046,829;  240,642; 1240,312;80,64533
1092,10; 1001,598;  213,412; 1184,927;81,12960
1092,63; 1049,137;  259,258; 1217,465;82,43295
1093,17; 1027,829;  244,719; 1203,004;81,71994
1093,71;  985,060;  229,488; 1160,235;81,17908
1094,25;  997,675;  264,950; 1180,158;80,06106
1094,79;  964,060;  240,488; 1147,542;79,77158
1095,33;  963,367;  247,796; 1127,312;81,35971
1095,87;  944,213;  240,412; 1124,619;79,59690
1096,40;  923,829;  216,950; 1088,619;81,09485
1096,94;  928,752;  242,104; 1091,927;80,79894
1097,48;  923,983;  251,181; 1084,465;80,74095
1098,02;  905,906;  236,181; 1071,927;80,13498
1098,56;  878,213;  208,104; 1018,388;82,70052
1099,10;  863,983;  220,719; 1013,850;81,10434
1099,63;  866,137;  216,642; 1022,465;80,60010
1100,17;  864,598;  235,565; 1028,696;79,31009
1100,71;  886,290;  259,719; 1034,465;80,87438

