
Integration time [ms]: 120,000
Averaging Nr. [scans]: 13
Smoothing Nr. [pixels]: 0
Data measured with spectrometer [name]: 2009305U1
Wave   ;Sample   ;Dark     ;Reference;Reflectance
[nm]   ;[counts] ;[counts] ;[counts] ;[%]

 175,72;  200,286;  198,725;  209,729;14,19321
 176,32;  225,175;  233,791;  221,495; 0,00000
 176,92;  259,535;  251,952;  246,144; 0,00000
 177,52;  253,768;  249,569;  261,381;35,54571
 178,12;  234,911;  210,945;  220,620;247,70569
 178,72;  261,501;  248,635;  250,038;916,80741
 179,32;  243,394;  255,406;  241,911; 0,00000
 179,92;  248,696;  255,641;  248,129; 0,00000
 180,52;  246,568;  233,115;  240,492;182,35026
 181,12;  249,532;  249,103;  245,056; 0,00000
 181,73;  277,346;  265,873;  272,598;170,60249
 182,33;  348,683;  349,879;  341,303; 0,00000
 182,93;  275,570;  259,492;  262,580;520,53557
 183,53;  231,027;  241,402;  230,123; 0,00000
 184,13;  240,545;  231,942;  223,284; 0,00000
 184,73;  285,168;  262,785;  270,840;277,88568
 185,33;  259,071;  235,800;  340,235;22,28283
 185,93;  269,952;  233,331;  341,231;33,93984
 186,53;  279,628;  252,412;  358,480;25,65831
 187,13;  304,692;  259,651;  408,456;30,26860
 187,73;  268,888;  235,102;  356,651;27,79609
 188,33;  267,322;  242,097;  355,217;22,29923
 188,93;  280,877;  252,084;  372,324;23,94650
 189,53;  274,238;  250,458;  375,462;19,02365
 190,13;  306,658;  288,441;  393,447;17,34800
 190,73;  251,243;  221,607;  354,699;22,26747
 191,34;  296,169;  261,772;  383,107;28,34892
 191,94;  275,504;  243,170;  355,212;28,85862
 192,54;  279,963;  244,657;  378,976;26,28536
 193,14;  296,230;  261,650;  386,945;27,59856
 193,74;  286,877;  256,803;  371,292;26,26766
 194,34;  273,551;  254,345;  379,723;15,31866
 194,94;  244,109;  215,650;  345,606;21,89870
 195,54;  224,566;  198,339;  325,621;20,60549
 196,14;  253,080;  226,731;  350,792;21,23908
 196,74;  247,476;  216,030;  338,690;25,63710
 197,34;  223,504;  203,967;  338,400;14,53313
 197,94;  255,605;  224,267;  375,503;20,72113
 198,54;  266,223;  232,346;  384,669;22,24025
 199,14;  234,332;  223,046;  367,104; 7,83373
 199,74;  231,683;  202,354;  368,520;17,65046
 200,34;  224,608;  194,509;  366,971;17,45226
 200,94;  268,052;  234,889;  406,748;19,29686
 201,54;  246,539;  216,814;  407,160;15,61602
 202,14;  264,028;  240,665;  454,320;10,93482
 202,74;  240,177;  228,200;  447,857; 5,45276
 203,34;  234,823;  181,976;  463,089;18,79920
 203,94;  210,326;  166,204;  459,631;15,03652
 204,54;  262,331;  236,729;  542,983; 8,35965
 205,14;  223,244;  194,585;  536,212; 8,38889
 205,74;  282,581;  237,668;  639,180;11,18593
 206,34;  252,511;  204,050;  630,780;11,35648
 206,94;  257,466;  210,433;  685,452; 9,90124
 207,54;  236,082;  177,588;  721,425;10,75588
 208,14;  250,303;  208,358;  795,906; 7,13903
 208,74;  267,276;  208,200;  848,241; 9,23007
 209,34;  265,486;  207,355;  912,599; 8,24273
 209,94;  272,233;  216,431; 1015,259; 6,98544
 210,54;  284,206;  207,205; 1109,050; 8,53810
 211,14;  285,298;  214,662; 1195,427; 7,20221
 211,73;  282,736;  208,506; 1299,988; 6,80082
 212,33;  299,546;  222,812; 1397,255; 6,53372
 212,93;  298,880;  208,738; 1479,640; 7,09277
 213,53;  280,705;  184,046; 1538,349; 7,13715
 214,13;  301,783;  193,748; 1630,932; 7,51708
 214,73;  288,028;  179,434; 1625,550; 7,50932
 215,33;  271,002;  163,585; 1674,567; 7,10909
 215,93;  323,163;  208,899; 1774,717; 7,29742
 216,53;  282,781;  168,430; 1832,838; 6,87036
 217,13;  343,623;  229,436; 2022,497; 6,36829
 217,73;  357,098;  197,822; 2208,241; 7,92250
 218,33;  319,146;  156,057; 2364,675; 7,38423
 218,93;  368,145;  181,834; 2630,757; 7,60787
 219,53;  393,652;  180,903; 2889,476; 7,85465
 220,13;  387,006;  168,059; 3125,529; 7,40318
 220,73;  436,937;  190,893; 3430,322; 7,59527
 221,32;  473,968;  184,508; 3811,856; 7,97996
 221,92;  497,939;  193,366; 4182,543; 7,63499
 222,52;  521,065;  172,284; 4562,289; 7,94489
 223,12;  568,428;  184,900; 4945,153; 8,05689
 223,72;  602,472;  200,285; 5311,646; 7,86851
 224,32;  640,088;  192,747; 5676,679; 8,15732
 224,92;  647,066;  183,362; 5950,894; 8,03991
 225,52;  712,741;  207,356; 6276,099; 8,32766
 226,12;  731,568;  187,051; 6571,650; 8,52860
 226,72;  735,095;  160,666; 6841,878; 8,59767
 227,31;  775,919;  156,666; 7219,939; 8,76722
 227,91;  842,663;  190,894; 7541,280; 8,86714
 228,51;  856,273;  186,812; 7911,520; 8,66648
 229,11;  920,358;  181,820; 8271,138; 9,12980
 229,71;  951,045;  176,122; 8541,977; 9,26292
 230,31;  977,882;  169,748; 8933,640; 9,22117
 230,91; 1030,171;  158,502; 9183,125; 9,65878
 231,51; 1070,383;  167,360; 9538,918; 9,63578
 232,10; 1125,553;  169,980; 9825,075; 9,89709
 232,70; 1177,859;  177,422;10037,261;10,14658
 233,30; 1276,723;  204,206;10330,930;10,59096
 233,90; 1278,162;  173,898;10431,145;10,76570
 234,50; 1304,911;  173,514;10561,102;10,89181
 235,10; 1363,759;  170,439;10679,048;11,35564
 235,70; 1421,685;  196,355;10707,048;11,65793
 236,29; 1464,254;  189,507;10660,055;12,17459
 236,89; 1449,106;  164,349;10563,896;12,35397
 237,49; 1485,403;  187,436;10546,988;12,52918
 238,09; 1496,819;  169,434;10299,934;13,10285
 238,69; 1517,432;  199,577;10085,824;13,33019
 239,29; 1507,291;  173,126; 9816,008;13,83575
 239,89; 1492,512;  193,964; 9557,989;13,86741
 240,48; 1491,181;  169,819; 9189,380;14,64997
 241,08; 1473,213;  173,895; 8870,359;14,94077
 241,68; 1473,457;  202,973; 8542,428;15,23461
 242,28; 1404,448;  173,206; 8296,267;15,15737
 242,88; 1463,673;  210,364; 8015,271;16,05796
 243,48; 1466,898;  214,359; 7813,649;16,48231
 244,07; 1409,872;  190,279; 7524,495;16,62881
 244,67; 1445,930;  193,589; 7335,200;17,53583
 245,27; 1429,890;  198,121; 7224,988;17,52941
 245,87; 1433,837;  202,978; 7137,422;17,74992
 246,47; 1428,142;  186,737; 7152,619;17,82123
 247,06; 1431,126;  178,433; 7115,577;18,05775
 247,66; 1453,743;  190,742; 7171,967;18,09138
 248,26; 1505,121;  211,199; 7383,422;18,04074
 248,86; 1542,231;  187,583; 7554,528;18,38819
 249,46; 1543,493;  151,745; 7751,040;18,31417
 250,05; 1654,401;  205,203; 8059,625;18,45073
 250,65; 1692,592;  156,351; 8391,138;18,65550
 251,25; 1775,597;  175,510; 8846,420;18,45351
 251,85; 1841,710;  188,657; 9377,235;17,99031
 252,44; 1910,639;  152,046;10031,610;17,80031
 253,04; 2088,321;  201,662;10746,245;17,89221
 253,64; 2122,437;  153,197;11314,012;17,64424
 254,24; 2313,664;  191,741;12220,363;17,64062
 254,84; 2453,801;  166,745;13137,194;17,63282
 255,43; 2604,123;  180,354;13986,565;17,55564
 256,03; 2730,800;  179,120;14914,490;17,31670
 256,63; 2898,776;  182,657;15992,265;17,18018
 257,23; 2998,875;  178,195;16766,067;17,00447
 257,82; 3166,651;  187,423;17744,651;16,96867
 258,42; 3240,704;  152,113;18540,057;16,79682
 259,02; 3393,497;  195,508;19439,475;16,61814
 259,62; 3470,604;  174,574;20014,745;16,61291
 260,21; 3588,573;  187,584;20539,271;16,71109
 260,81; 3637,018;  174,128;20993,664;16,63289
 261,41; 3649,760;  166,037;21535,894;16,30204
 262,01; 3763,997;  206,264;21932,846;16,37502
 262,60; 3741,721;  161,657;22263,375;16,19813
 263,20; 3800,065;  174,198;22619,064;16,15455
 263,80; 3862,634;  197,880;22817,691;16,20153
 264,40; 3821,064;  155,342;23010,849;16,03868
 264,99; 3861,348;  195,802;23187,520;15,94290
 265,59; 3845,518;  168,336;23290,435;15,90332
 266,19; 3868,602;  175,572;23408,876;15,89541
 266,78; 3911,521;  207,185;23564,540;15,85940
 267,38; 3876,695;  185,875;23535,671;15,80665
 267,98; 3852,071;  178,493;23588,757;15,69217
 268,58; 3884,981;  189,029;23610,424;15,78024
 269,17; 3842,108;  178,179;23588,237;15,65109
 269,77; 3827,247;  192,578;23479,767;15,60802
 270,37; 3779,601;  161,110;23253,673;15,66951
 270,96; 3831,102;  219,115;23179,220;15,73158
 271,56; 3728,831;  181,041;22949,788;15,58184
 272,16; 3684,100;  181,652;22839,153;15,45823
 272,75; 3666,123;  179,345;22647,263;15,51892
 273,35; 3687,630;  185,962;22752,668;15,51697
 273,95; 3655,398;  182,345;22634,525;15,46867
 274,54; 3667,730;  162,280;22661,239;15,58050
 275,14; 3716,707;  199,500;23009,838;15,41935
 275,74; 3730,133;  157,729;22979,523;15,65348
 276,33; 3800,752;  206,040;23339,167;15,53924
 276,93; 3863,677;  185,666;23789,475;15,58228
 277,53; 3940,144;  184,200;24196,394;15,64182
 278,12; 4046,986;  159,196;24656,393;15,87035
 278,72; 4188,077;  210,968;25209,099;15,90963
 279,32; 4251,165;  177,353;25795,343;15,90215
 279,91; 4394,372;  173,275;26468,338;16,05281
 280,51; 4503,221;  180,661;27006,795;16,11324
 281,11; 4683,581;  181,582;27679,169;16,37234
 281,70; 4805,020;  155,889;28143,812;16,61120
 282,30; 4947,061;  175,887;28664,557;16,74762
 282,90; 5098,259;  184,733;29140,880;16,96885
 283,49; 5254,674;  191,654;29639,315;17,19328
 284,09; 5406,756;  209,735;30013,118;17,43769
 284,69; 5530,703;  208,352;30383,634;17,63811
 285,28; 5714,712;  198,581;30659,164;18,10908
 285,88; 5860,375;  234,268;31004,553;18,28422
 286,47; 5954,446;  178,656;30948,156;18,77115
 287,07; 6168,659;  220,122;30971,081;19,34423
 287,67; 6305,052;  205,282;31249,572;19,64860
 288,26; 6453,054;  173,583;31154,111;20,26909
 288,86; 6665,943;  177,427;31163,873;20,93985
 289,46; 6934,461;  194,890;31354,786;21,62899
 290,05; 7129,707;  176,971;31383,773;22,27955
 290,65; 7452,962;  191,425;31591,261;23,12603
 291,24; 7722,891;  197,814;31745,730;23,85285
 291,84; 8054,314;  198,734;31851,188;24,81824
 292,44; 8313,536;  193,513;31994,544;25,53383
 293,03; 8684,110;  249,968;32153,222;26,43662
 293,63; 8869,006;  186,964;32285,480;27,04811
 294,22; 9120,130;  208,736;32427,446;27,65907
 294,82; 9349,603;  179,111;32457,635;28,41050
 295,41; 9457,097;  168,197;32179,428;29,01763
 296,01; 9654,429;  220,882;32137,119;29,55720
 296,61; 9670,297;  209,660;31938,498;29,81715
 297,20; 9710,650;  198,652;31498,260;30,39015
 297,80; 9826,181;  189,818;31371,885;30,90354
 298,39; 9746,248;  168,349;31012,542;31,05252
 298,99; 9854,893;  196,577;30953,082;31,40252
 299,58; 9847,732;  210,666;30637,168;31,67326
 300,18; 9849,114;  218,664;30536,651;31,76481
 300,78; 9792,991;  187,969;30175,812;32,02972
 301,37; 9796,941;  210,801;30210,608;31,95400
 301,97; 9876,669;  192,736;30210,385;32,26080
 302,56; 9783,017;  180,117;30097,031;32,09856
 303,16; 9823,675;  178,501;30021,826;32,31937
 303,75; 9753,838;  188,816;30056,938;32,02418
 304,35; 9892,988;  181,592;30296,229;32,24809
 304,94; 9899,977;  192,275;30223,710;32,32514
 305,54; 9932,584;  202,738;30212,702;32,42205
 306,13; 9880,703;  162,515;30220,877;32,33106
 306,73; 9792,041;  171,667;29981,020;32,27301
 307,33; 9824,018;  197,897;30003,878;32,29594
 307,92; 9801,902;  200,276;30009,930;32,20979
 308,52; 9921,422;  164,039;30460,332;32,20652
 309,11;10036,429;  184,805;30865,317;32,11036
 309,71;10093,547;  165,957;31097,892;32,09495
 310,30;10154,264;  168,199;31341,744;32,03378
 310,90;10289,495;  214,660;31732,359;31,96564
 311,49;10274,373;  187,198;31844,388;31,86377
 312,09;10257,521;  150,125;31981,436;31,75300
 312,68;10441,089;  221,508;32445,118;31,71458
 313,28;10415,055;  164,968;32508,776;31,69103
 313,87;10365,406;  155,737;32612,835;31,45589
 314,47;10439,507;  179,883;32880,460;31,37444
 315,06;10439,034;  164,892;33020,392;31,27069
 315,66;10417,905;  163,895;33161,590;31,07493
 316,25;10328,411;  153,271;33134,720;30,85110
 316,85;10316,576;  150,895;33146,514;30,80918
 317,44;10292,847;  168,882;33320,627;30,53826
 318,04;10237,435;  157,041;33358,819;30,36101
 318,63;10185,437;  156,129;33413,451;30,15669
 319,22;10187,906;  181,886;33687,260;29,86393
 319,82;10146,184;  176,965;33726,732;29,71472
 320,41;10042,852;  188,887;33581,370;29,50953
 321,01;10002,047;  194,740;33730,664;29,24418
 321,60; 9923,876;  183,350;33856,364;28,92680
 322,20; 9814,825;  167,276;33758,639;28,72033
 322,79; 9819,199;  207,430;33929,362;28,50302
 323,39; 9803,043;  173,438;34018,334;28,45216
 323,98; 9650,199;  164,200;33942,472;28,08314
 324,58; 9605,048;  173,116;33789,917;28,05720
 325,17; 9527,115;  185,502;33722,475;27,85467
 325,76; 9409,417;  194,121;33481,634;27,68394
 326,36; 9237,476;  166,894;33169,218;27,48468
 326,95; 9129,514;  201,197;32821,858;27,37013
 327,55; 8916,887;  172,273;32580,839;26,98242
 328,14; 8754,401;  161,050;32147,564;26,86555
 328,74; 8617,588;  198,502;31792,923;26,64738
 329,33; 8474,641;  195,278;31370,401;26,55759
 329,92; 8267,198;  154,959;30887,103;26,39659
 330,52; 8040,435;  189,204;30203,412;26,15838
 331,11; 7875,041;  187,197;29806,103;25,95587
 331,71; 7717,295;  178,967;29282,569;25,90170
 332,30; 7531,208;  195,506;28842,479;25,60725
 332,89; 7397,519;  236,124;28405,815;25,42234
 333,49; 7132,833;  194,351;27811,673;25,12366
 334,08; 7002,568;  177,196;27493,100;24,98681
 334,68; 6844,832;  192,581;27000,316;24,81467
 335,27; 6741,007;  191,512;26650,986;24,75293
 335,86; 6654,887;  222,889;26456,564;24,51810
 336,46; 6499,315;  194,436;26199,541;24,24478
 337,05; 6408,096;  176,966;26018,241;24,11309
 337,65; 6330,843;  160,811;25875,670;23,99403
 338,24; 6311,166;  224,123;25891,948;23,71468
 338,83; 6247,925;  200,738;25754,918;23,66418
 339,43; 6161,643;  173,348;25758,583;23,40528
 340,02; 6171,158;  175,578;25570,534;23,60934
 340,61; 6132,792;  177,122;25648,038;23,38224
 341,21; 6090,434;  210,963;25690,769;23,07502
 341,80; 6028,161;  189,657;25615,084;22,96325
 342,40; 6015,732;  180,589;25697,459;22,86778
 342,99; 6026,904;  179,355;25775,661;22,84528
 343,58; 6022,179;  181,355;25977,863;22,64192
 344,18; 6005,861;  197,971;26092,927;22,42865
 344,77; 6018,279;  165,732;26394,318;22,31362
 345,36; 6046,206;  166,658;26652,242;22,19905
 345,96; 6180,739;  207,432;26959,571;22,32834
 346,55; 6142,274;  170,207;27168,889;22,11985
 347,14; 6180,534;  163,435;27487,598;22,02116
 347,74; 6175,159;  144,827;27869,864;21,75049
 348,33; 6338,158;  178,596;28420,892;21,80971
 348,92; 6417,788;  181,599;29109,307;21,55784
 349,52; 6473,479;  159,597;29486,131;21,52959
 350,11; 6536,674;  177,654;29780,485;21,48112
 350,70; 6543,143;  172,122;29801,438;21,50242
 351,29; 6434,038;  170,031;29587,678;21,29336
 351,89; 6467,417;  198,574;29521,502;21,37864
 352,48; 6420,033;  154,891;29577,683;21,29350
 353,07; 6358,381;  190,436;29611,494;20,96439
 353,67; 6325,173;  195,061;29508,263;20,91246
 354,26; 6280,930;  186,127;29303,183;20,93207
 354,85; 6217,994;  183,049;29206,884;20,79307
 355,45; 6140,381;  160,580;28976,851;20,75147
 356,04; 6132,140;  177,667;28863,558;20,75750
 356,63; 6096,976;  201,736;28756,951;20,64506
 357,22; 6020,645;  182,033;28529,688;20,59645
 357,82; 5940,075;  178,573;28303,126;20,48567
 358,41; 5985,944;  197,198;28225,802;20,65300
 359,00; 5883,423;  169,194;28039,475;20,50295
 359,60; 5863,232;  190,200;27965,671;20,42461
 360,19; 5841,250;  189,283;27739,961;20,51480
 360,78; 5784,975;  188,811;27658,808;20,37191
 361,37; 5722,865;  176,735;27434,916;20,34666
 361,97; 5735,966;  189,428;27383,861;20,39586
 362,56; 5665,080;  173,116;27056,561;20,42880
 363,15; 5676,337;  215,273;26861,468;20,49472
 363,74; 5556,946;  191,806;26488,153;20,40261
 364,34; 5476,521;  201,425;26092,628;20,37409
 364,93; 5389,530;  181,423;25766,867;20,35574
 365,52; 5336,426;  158,350;25396,410;20,51693
 366,11; 5307,126;  179,348;25099,599;20,57675
 366,71; 5245,368;  171,271;24664,030;20,71672
 367,30; 5169,261;  181,274;24351,150;20,63721
 367,89; 5162,169;  218,356;24117,806;20,68589
 368,48; 5070,496;  193,114;23831,370;20,63343
 369,07; 5028,990;  180,045;23481,745;20,80940
 369,67; 4990,541;  211,038;23145,589;20,83975
 370,26; 4944,232;  176,584;22904,962;20,97663
 370,85; 4911,030;  189,581;22579,595;21,08730
 371,44; 4902,899;  185,197;22472,583;21,16759
 372,03; 4821,686;  164,425;22167,136;21,16676
 372,63; 4811,492;  157,812;21893,705;21,41012
 373,22; 4800,176;  178,276;21618,236;21,55741
 373,81; 4733,327;  160,581;21348,164;21,58220
 374,40; 4729,335;  189,357;21109,918;21,70103
 374,99; 4703,666;  173,119;20805,236;21,95871
 375,59; 4695,346;  172,818;20548,239;22,19599
 376,18; 4693,227;  201,657;20421,884;22,21325
 376,77; 4699,801;  195,044;20284,216;22,42381
 377,36; 4731,920;  210,812;20218,225;22,59717
 377,95; 4681,918;  197,579;19936,400;22,71837
 378,55; 4708,663;  170,740;19722,664;23,20960
 379,14; 4733,832;  197,196;19652,640;23,31808
 379,73; 4741,237;  190,195;19586,848;23,46303
 380,32; 4819,515;  193,428;19698,446;23,71742
 380,91; 4781,771;  180,730;19479,572;23,84102
 381,50; 4855,432;  201,731;19462,208;24,16192
 382,10; 4862,977;  173,582;19341,830;24,46439
 382,69; 4913,722;  153,196;19281,655;24,88714
 383,28; 4953,477;  205,655;19266,811;24,90836
 383,87; 4978,609;  175,116;19108,719;25,37020
 384,46; 5020,098;  165,112;19057,158;25,69857
 385,05; 5076,575;  219,270;19032,316;25,81881
 385,64; 5106,434;  181,194;19079,829;26,06135
 386,24; 5134,009;  165,265;19008,018;26,36952
 386,83; 5253,492;  200,649;19082,215;26,76072
 387,42; 5329,061;  206,964;19161,969;27,02240
 388,01; 5476,619;  193,645;19331,088;27,60543
 388,60; 5589,538;  194,266;19613,654;27,78291
 389,19; 5692,953;  170,485;19711,863;28,26038
 389,78; 5828,196;  180,564;20001,915;28,49267
 390,37; 6071,006;  238,340;20408,716;28,91700
 390,96; 6168,547;  193,188;20570,771;29,32320
 391,56; 6275,928;  191,407;20731,732;29,62233
 392,15; 6432,197;  188,103;21012,597;29,98437
 392,74; 6502,623;  164,630;21139,528;30,21704
 393,33; 6682,697;  186,714;21382,297;30,64781
 393,92; 6923,025;  192,780;21783,988;31,17123
 394,51; 7029,466;  170,175;21988,050;31,43886
 395,10; 7205,671;  212,461;22189,538;31,82047
 395,69; 7317,409;  206,155;22317,361;32,16131
 396,28; 7418,204;  205,150;22429,043;32,45631
 396,87; 7535,676;  208,293;22506,720;32,86054
 397,46; 7675,932;  212,979;22584,582;33,35904
 398,06; 7799,449;  224,355;22908,699;33,39349
 398,65; 7918,920;  211,721;22862,365;34,02640
 399,24; 8061,136;  227,025;23077,241;34,28463
 399,83; 8144,266;  208,688;23078,877;34,69835
 400,42; 8309,366;  248,124;23183,898;35,14703
 401,01; 8397,649;  221,325;23296,255;35,43380
 401,60; 8541,644;  244,208;23371,456;35,87732
 402,19; 8554,265;  257,022;23296,956;36,01244
 402,78; 8659,282;  257,588;23374,469;36,34441
 403,37; 8731,907;  233,156;23158,178;37,07194
 403,96; 8758,610;  244,024;23048,728;37,33697
 404,55; 8834,382;  262,271;22963,326;37,76085
 405,14; 8795,666;  238,215;22846,319;37,85126
 405,73; 8888,379;  260,611;22788,222;38,29864
 406,32; 8970,139;  259,029;22622,115;38,95308
 406,91; 8917,100;  257,594;22411,638;39,08770
 407,50; 9019,256;  264,260;22245,873;39,82872
 408,09; 8916,673;  226,473;21951,682;40,00054
 408,68; 9020,998;  254,536;21879,207;40,53917
 409,27; 8968,425;  246,476;21712,453;40,63150
 409,86; 8997,066;  256,439;21553,202;41,04205
 410,45; 9112,798;  293,934;21550,876;41,48699
 411,04; 9132,927;  292,352;21485,723;41,71387
 411,63; 9106,684;  286,935;21190,695;42,19217
 412,22; 9010,425;  280,668;20981,662;42,17071
 412,81; 9030,936;  302,989;20780,234;42,62266
 413,40; 8930,156;  310,469;20416,348;42,87148
 413,99; 8935,325;  342,848;20183,307;43,30785
 414,58; 8730,494;  277,159;19746,662;43,41834
 415,17; 8718,442;  279,605;19575,189;43,73455
 415,76; 8744,676;  270,666;19419,040;44,25446
 416,35; 8711,367;  276,443;19110,200;44,78620
 416,94; 8807,867;  310,670;19268,010;44,82273
 417,53; 8982,652;  280,221;19408,256;45,49569
 418,12; 9071,745;  269,533;19521,995;45,71993
 418,71; 9271,080;  298,316;19861,765;45,86494
 419,30; 9390,790;  287,073;20065,109;46,02943
 419,89; 9537,519;  272,460;20163,447;46,57918
 420,48; 9710,750;  294,085;20362,535;46,92273
 421,07; 9827,985;  290,165;20498,503;47,19745
 421,66; 9903,358;  266,558;20466,188;47,70780
 422,25; 9890,838;  271,189;20540,583;47,45899
 422,84; 9982,523;  299,962;20440,598;48,07476
 423,43; 9888,460;  287,647;20178,320;48,26791
 424,02; 9832,772;  302,727;19996,442;48,39130
 424,60; 9671,333;  280,439;19584,206;48,64799
 425,19; 9600,926;  296,044;19327,453;48,89224
 425,78; 9588,542;  293,661;19228,750;49,08813
 426,37; 9588,529;  300,437;19061,951;49,50609
 426,96; 9570,342;  276,206;18925,136;49,83737
 427,55; 9499,025;  275,294;18888,508;49,55475
 428,14; 9425,449;  267,837;18586,022;49,99192
 428,73; 9348,229;  288,366;18469,381;49,83145
 429,32; 9408,132;  285,513;18413,992;50,32203
 429,91; 9436,460;  320,982;18460,799;50,25121
 430,50; 9368,434;  300,065;18279,640;50,43706
 431,08; 9343,770;  307,455;18121,157;50,72677
 431,67; 9345,623;  330,460;18059,181;50,85061
 432,26; 9331,222;  352,773;17866,633;51,26482
 432,85; 9214,528;  372,079;17525,688;51,54862
 433,44; 9040,262;  388,471;17227,983;51,37792
 434,03; 8870,461;  402,711;16826,982;51,55632
 434,62; 8683,966;  359,087;16459,216;51,70691
 435,21; 8600,639;  365,618;16298,030;51,68722
 435,79; 8530,819;  376,323;16109,888;51,82866
 436,38; 8468,402;  368,410;15986,717;51,86217
 436,97; 8479,579;  351,796;15943,277;52,12965
 437,56; 8390,234;  366,118;15775,296;52,07362
 438,15; 8337,647;  330,960;15658,418;52,23754
 438,74; 8379,704;  358,116;15673,578;52,37575
 439,33; 8347,581;  334,421;15641,739;52,34856
 439,91; 8401,688;  308,120;15728,245;52,48704
 440,50; 8444,040;  353,275;15720,771;52,64856
 441,09; 8460,028;  352,437;15858,362;52,28705
 441,68; 8474,269;  330,291;15871,755;52,40161
 442,27; 8442,737;  309,595;15870,416;52,26679
 442,86; 8465,649;  286,691;15851,837;52,54662
 443,44; 8510,469;  306,610;15894,282;52,63043
 444,03; 8585,913;  376,999;16005,300;52,52596
 444,62; 8487,133;  300,075;15815,177;52,76832
 445,21; 8357,548;  324,227;15685,782;52,29497
 445,80; 8351,692;  356,622;15621,797;52,37457
 446,39; 8263,943;  367,697;15356,081;52,68243
 446,97; 8086,550;  300,708;15192,640;52,28228
 447,56; 7989,604;  305,024;14946,971;52,48332
 448,15; 7897,033;  323,939;14810,409;52,27702
 448,74; 7748,199;  331,940;14558,368;52,13016
 449,33; 7661,448;  323,946;14452,718;51,93305
 449,91; 7616,086;  318,033;14243,239;52,40894
 450,50; 7473,414;  307,954;13988,738;52,37609
 451,09; 7423,151;  335,493;13900,297;52,25035
 451,68; 7351,815;  356,497;13844,731;51,86237
 452,26; 7264,183;  340,040;13735,304;51,69098
 452,85; 7203,631;  319,499;13610,323;51,79612
 453,44; 7208,075;  341,974;13683,567;51,46388
 454,03; 7183,176;  314,351;13625,594;51,60168
 454,61; 7103,582;  311,590;13609,495;51,07565
 455,20; 7213,664;  338,979;13743,391;51,28673
 455,79; 7210,325;  348,740;13741,725;51,23267
 456,38; 7264,101;  342,063;13817,793;51,36670
 456,97; 7251,835;  330,061;13863,829;51,14447
 457,55; 7224,501;  329,759;13876,516;50,89588
 458,14; 7233,316;  356,290;13890,729;50,81131
 458,73; 7185,161;  341,529;13835,213;50,71730
 459,31; 7211,852;  366,306;13850,064;50,76883
 459,90; 7211,627;  383,302;13974,214;50,24185
 460,49; 7265,503;  420,299;14008,495;50,37611
 461,08; 7240,417;  340,310;14107,021;50,12168
 461,66; 7286,895;  341,306;14143,370;50,32283
 462,25; 7349,872;  349,006;14205,437;50,52431
 462,84; 7321,231;  376,465;14250,179;50,05701
 463,43; 7217,740;  301,938;14247,046;49,59303
 464,01; 7240,041;  339,172;14309,864;49,39533
 464,60; 7239,450;  396,704;14200,171;49,57267
 465,19; 7129,044;  339,251;13997,782;49,71100
 465,77; 7031,642;  340,871;13977,125;49,06605
 466,36; 7028,058;  371,245;13839,631;49,42547
 466,95; 6834,675;  353,477;13528,774;49,19204
 467,53; 6643,945;  350,645;13289,085;48,64033
 468,12; 6504,232;  372,646;13030,152;48,44229
 468,71; 6387,957;  349,714;12788,109;48,54519
 469,29; 6213,794;  337,032;12597,465;47,93274
 469,88; 6060,315;  341,805;12287,066;47,87262
 470,47; 6159,433;  410,505;12431,822;47,82279
 471,06; 6066,170;  365,120;12397,793;47,37975
 471,64; 6106,684;  375,118;12462,030;47,41961
 472,23; 6048,724;  332,518;12524,681;46,88426
 472,81; 6090,551;  330,972;12651,188;46,74901
 473,40; 6127,505;  343,056;12714,206;46,75756
 473,99; 6227,219;  441,364;12943,375;46,27939
 474,57; 6210,383;  349,979;13036,466;46,19407
 475,16; 6255,399;  370,204;13165,595;45,99464
 475,75; 6268,818;  376,600;13294,845;45,61160
 476,33; 6338,353;  383,837;13411,872;45,70541
 476,92; 6322,902;  386,288;13452,566;45,43462
 477,51; 6320,789;  371,757;13544,460;45,16182
 478,09; 6310,449;  368,526;13511,952;45,20832
 478,68; 6296,836;  375,529;13454,486;45,27354
 479,27; 6311,929;  407,139;13495,077;45,11627
 479,85; 6241,495;  381,605;13495,561;44,68438
 480,44; 6244,817;  364,993;13660,405;44,22446
 481,02; 6820,725;  382,306;14973,490;44,12540
 481,61; 7622,436;  404,380;16859,203;43,86590
 482,20; 8135,010;  382,844;18027,106;43,93591
 482,78; 8487,409;  415,453;18824,862;43,84691
 483,37; 8716,976;  404,160;19388,819;43,78702
 483,95; 8831,209;  414,546;19540,072;44,00748
 484,54; 8898,930;  429,918;19769,660;43,79072
 485,13; 8807,689;  405,860;19637,609;43,68728
 485,71; 8636,302;  383,088;19561,922;43,03293
 486,30; 8578,269;  414,396;19225,799;43,39853
 486,88; 8390,249;  453,937;18897,130;43,03112
 487,47; 8052,152;  439,784;18158,769;42,96165
 488,05; 7690,408;  423,480;17350,736;42,93034
 488,64; 7139,734;  419,870;16087,163;42,89103
 489,23; 6342,883;  438,174;14340,035;42,47423
 489,81; 5413,346;  428,406;12265,536;42,11275
 490,40; 5101,645;  387,177;11679,649;41,74877
 490,98; 4954,879;  377,333;11388,277;41,57269
 491,57; 4915,664;  389,405;11305,362;41,46461
 492,15; 4822,495;  379,719;11271,497;40,79019
 492,74; 4794,805;  391,249;11185,046;40,79709
 493,32; 4788,493;  401,179;11096,090;41,02245
 493,91; 4649,389;  371,029;10997,172;40,26258
 494,50; 4658,698;  396,040;10987,804;40,24503
 495,08; 4592,236;  367,578;10899,848;40,11156
 495,67; 4593,959;  393,490;10870,398;40,09264
 496,25; 4494,373;  329,188;10741,795;40,00137
 496,84; 4482,816;  352,951;10758,565;39,68881
 497,42; 4436,156;  346,344;10738,589;39,35446
 498,01; 4418,147;  371,414;10640,741;39,40602
 498,59; 4344,586;  337,653;10625,516;38,94815
 499,18; 4302,895;  341,722;10495,159;39,01312
 499,76; 4289,505;  361,958;10446,642;38,94567
 500,35; 4188,581;  344,581;10305,032;38,59263
 500,93; 4145,188;  327,267;10285,849;38,33800
 501,52; 4105,915;  332,883;10186,900;38,28928
 502,10; 4110,322;  357,201;10166,328;38,26152
 502,69; 3991,041;  332,974; 9938,653;38,08234
 503,27; 3927,589;  315,963; 9848,314;37,88809
 503,86; 3880,028;  333,818; 9763,892;37,60533
 504,44; 3842,472;  317,822; 9600,262;37,97116
 505,03; 3706,560;  297,206; 9442,846;37,27846
 505,61; 3669,184;  323,205; 9319,101;37,19451
 506,19; 3610,845;  353,052; 9155,045;37,01199
 506,78; 3497,360;  304,906; 8972,804;36,83077
 507,36; 3455,229;  317,744; 8825,028;36,87999
 507,95; 3409,474;  315,679; 8697,312;36,91160
 508,53; 3306,294;  315,444; 8551,911;36,31229
 509,12; 3243,033;  330,293; 8424,091;35,98731
 509,70; 3226,431;  337,141; 8297,561;36,29570
 510,29; 3166,578;  342,760; 8155,917;36,14183
 510,87; 3054,733;  312,906; 7973,279;35,79235
 511,46; 2976,691;  299,523; 7826,672;35,56683
 512,04; 2919,685;  312,219; 7675,583;35,41135
 512,62; 2874,966;  315,985; 7551,241;35,36822
 513,21; 2782,315;  298,068; 7394,888;35,00507
 513,79; 2740,209;  304,542; 7274,481;34,94531
 514,38; 2655,050;  278,384; 7111,677;34,78068
 514,96; 2669,060;  328,691; 7037,290;34,88611
 515,54; 2584,459;  293,309; 6884,424;34,76119
 516,13; 2545,789;  316,540; 6833,644;34,20613
 516,71; 2515,587;  308,699; 6687,051;34,59965
 517,30; 2437,119;  285,396; 6596,440;34,09457
 517,88; 2418,251;  311,780; 6533,254;33,85807
 518,46; 2340,913;  281,167; 6366,725;33,84646
 519,05; 2314,335;  310,247; 6315,772;33,37073
 519,63; 2290,179;  301,630; 6284,195;33,23906
 520,22; 2285,308;  318,330; 6201,767;33,43247
 520,80; 2244,518;  306,715; 6200,647;32,87793
 521,38; 2243,687;  338,325; 6179,452;32,61977
 521,97; 2193,632;  302,334; 6099,770;32,62301
 522,55; 2183,522;  319,257; 6071,093;32,41165
 523,13; 2164,492;  281,260; 6101,751;32,35522
 523,72; 2149,967;  296,397; 6063,462;32,14061
 524,30; 2190,991;  310,955; 6224,858;31,79010
 524,89; 2176,996;  285,719; 6213,573;31,90490
 525,47; 2244,366;  315,803; 6325,757;32,08948
 526,05; 2202,785;  278,958; 6353,561;31,67000
 526,64; 2254,425;  316,421; 6509,940;31,29083
 527,22; 2266,003;  310,033; 6629,372;30,95213
 527,80; 2321,292;  341,652; 6780,615;30,74471
 528,39; 2322,131;  301,808; 6769,289;31,23817
 528,97; 2354,063;  299,345; 6970,083;30,80196
 529,55; 2380,976;  317,491; 7159,382;30,15957
 530,14; 2473,869;  338,810; 7344,514;30,47602
 530,72; 2488,415;  298,422; 7454,499;30,60326
 531,30; 2500,233;  278,888; 7545,394;30,56965
 531,89; 2534,672;  310,657; 7640,840;30,34052
 532,47; 2552,686;  338,274; 7729,848;29,95859
 533,05; 2576,017;  343,267; 7796,815;29,95554
 533,63; 2591,137;  332,891; 7857,868;30,01001
 534,22; 2592,555;  304,506; 7869,622;30,24473
 534,80; 2582,408;  328,588; 7970,261;29,49379
 535,38; 2718,706;  410,504; 8060,182;30,17385
 535,97; 2582,521;  323,198; 8016,588;29,36707
 536,55; 2646,705;  368,974; 8064,957;29,59637
 537,13; 2616,793;  373,810; 8034,684;29,27842
 537,71; 2664,276;  417,348; 8098,650;29,25191
 538,30; 2650,964;  430,431; 8181,139;28,64942
 538,88; 2700,259;  465,362; 8229,021;28,78665
 539,46; 2785,682;  506,050; 8422,968;28,79444
 540,05; 2806,499;  525,283; 8532,797;28,48844
 540,63; 2880,268;  571,745; 8710,352;28,36509
 541,21; 2933,448;  617,364; 8894,721;27,98097
 541,79; 2958,811;  626,210; 9006,166;27,83548
 542,38; 3014,135;  656,437; 9154,071;27,74536
 542,96; 3031,464;  673,291; 9277,109;27,40845
 543,54; 3112,096;  681,055; 9495,579;27,57994
 544,12; 3109,867;  650,903; 9687,525;27,21109
 544,70; 3112,443;  649,214; 9723,665;27,14465
 545,29; 3178,575;  661,052; 9906,533;27,22977
 545,87; 3136,964;  639,902; 9891,628;26,99023
 546,45; 3144,728;  584,052; 9943,577;27,35904
 547,03; 3168,226;  577,285; 9993,574;27,51552
 547,62; 3162,603;  551,441;10139,292;27,23406
 548,20; 3185,804;  553,444;10248,429;27,15177
 548,78; 3203,487;  521,916;10419,246;27,09388
 549,36; 3241,024;  482,684;10605,949;27,24753
 549,94; 3230,714;  446,673;10779,283;26,94422
 550,53; 3292,352;  442,298;10983,233;27,03796
 551,11; 3288,248;  426,534;11153,871;26,67684
 551,69; 3392,244;  445,376;11457,040;26,76133
 552,27; 3420,118;  393,296;11683,084;26,81027
 552,85; 3484,742;  399,918;12082,685;26,40491
 553,44; 3560,188;  399,145;12322,039;26,51238
 554,02; 3658,092;  410,224;12702,216;26,42263
 554,60; 3704,908;  360,611;12983,243;26,49445
 555,18; 3782,464;  398,377;13365,010;26,09842
 555,76; 3870,872;  365,609;13720,647;26,24675
 556,34; 3941,011;  378,230;14113,353;25,93920
 556,93; 4049,266;  370,454;14482,627;26,06836
 557,51; 4100,001;  350,077;14769,016;26,00693
 558,09; 4205,695;  382,300;15199,180;25,80432
 558,67; 4251,510;  375,465;15515,784;25,60082
 559,25; 4337,013;  390,386;15819,991;25,57828
 559,83; 4379,601;  365,467;16095,458;25,51898
 560,41; 4489,230;  368,768;16443,224;25,63360
 561,00; 4542,071;  367,234;16785,108;25,42861
 561,58; 4560,658;  344,767;17004,453;25,30594
 562,16; 4661,050;  347,534;17336,702;25,38980
 562,74; 4702,125;  347,378;17721,201;25,06499
 563,32; 4797,634;  347,775;18125,965;25,02988
 563,90; 4897,213;  361,234;18462,138;25,05941
 564,48; 4987,371;  365,305;18914,710;24,91760
 565,06; 5145,784;  365,772;19433,227;25,06896
 565,65; 5222,321;  363,088;20044,403;24,68958
 566,23; 5495,873;  410,542;20815,016;24,92263
 566,81; 5593,738;  353,232;21434,806;24,85823
 567,39; 5823,350;  363,315;22300,678;24,88920
 567,97; 5941,630;  385,694;22920,733;24,65465
 568,55; 6161,238;  388,621;23740,671;24,71996
 569,13; 6329,478;  364,696;24467,832;24,74691
 569,71; 6505,467;  359,610;25327,132;24,61541
 570,29; 6782,750;  396,608;26245,011;24,70614
 570,87; 6936,939;  396,840;26985,343;24,59747
 571,45; 7048,883;  377,926;27601,029;24,50476
 572,03; 7126,065;  343,239;27961,222;24,55946
 572,61; 7304,875;  334,236;28658,824;24,60985
 573,20; 7465,166;  385,616;29390,848;24,40784
 573,78; 7621,337;  367,006;29875,934;24,58351
 574,36; 7685,083;  373,312;30441,759;24,31709
 574,94; 7789,935;  435,086;30797,227;24,22375
 575,52; 7746,932;  378,016;31008,304;24,05761
 576,10; 7960,753;  432,859;31624,738;24,13415
 576,68; 8002,571;  417,700;32064,698;23,96711
 577,26; 8141,232;  439,173;32824,747;23,78238
 577,84; 8276,919;  435,082;33311,515;23,85246
 578,42; 8357,629;  473,857;33478,651;23,88675
 579,00; 8289,656;  436,775;33635,442;23,65421
 579,58; 8314,682;  469,932;33937,228;23,44005
 580,16; 8272,466;  456,089;33933,363;23,34831
 580,74; 8266,928;  449,474;34083,319;23,24282
 581,32; 8264,156;  440,779;34167,862;23,19613
 581,90; 8218,026;  464,781;34101,747;23,04978
 582,48; 8254,400;  455,012;34282,332;23,05648
 583,06; 8241,990;  455,856;34362,937;22,96315
 583,64; 8257,913;  454,471;34531,442;22,89946
 584,22; 8170,934;  456,171;34396,463;22,73040
 584,80; 8060,003;  481,857;34079,390;22,55566
 585,38; 7924,220;  479,538;33694,321;22,41376
 585,96; 7903,800;  448,161;33857,462;22,31606
 586,54; 7923,811;  469,478;33797,750;22,36640
 587,12; 7898,017;  449,398;34103,124;22,13312
 587,70; 7878,493;  476,238;34127,726;21,99681
 588,28; 7861,127;  458,244;34244,785;21,91074
 588,86; 7841,535;  462,169;34299,191;21,80856
 589,44; 7781,313;  442,022;34369,330;21,63240
 590,02; 7827,849;  447,020;34636,214;21,58819
 590,59; 7862,448;  429,477;34723,288;21,67438
 591,17; 7888,860;  426,029;35011,854;21,57771
 591,75; 7862,503;  422,101;35141,481;21,43011
 592,33; 7885,533;  444,407;35301,180;21,34772
 592,91; 7894,879;  385,181;35532,062;21,36661
 593,49; 7993,488;  390,569;35894,385;21,41437
 594,07; 7983,433;  415,030;36051,230;21,23796
 594,65; 7928,537;  419,478;36152,307;21,01445
 595,23; 7987,156;  409,558;36498,582;20,99696
 595,81; 7967,279;  407,252;36607,944;20,88365
 596,39; 7985,027;  398,945;36722,423;20,88479
 596,97; 7977,165;  397,027;36945,738;20,73982
 597,55; 7912,199;  380,480;36785,822;20,68850
 598,12; 7886,919;  392,801;36843,285;20,55972
 598,70; 7894,397;  377,413;36958,283;20,54895
 599,28; 7947,431;  393,182;37213,576;20,51648
 599,86; 7855,826;  380,797;37142,896;20,33352
 600,44; 7855,223;  347,645;37263,443;20,33703
 601,02; 7881,046;  410,961;37241,988;20,28205
 601,60; 7849,404;  387,409;37168,790;20,28742
 602,18; 7826,325;  361,493;37299,344;20,20917
 602,75; 7802,048;  359,559;37367,219;20,11067
 603,33; 7822,299;  377,951;37360,591;20,12930
 603,91; 7752,757;  361,573;37324,497;19,99621
 604,49; 7776,013;  386,490;37421,470;19,95282
 605,07; 7763,074;  387,870;37436,834;19,90664
 605,65; 7718,070;  397,030;37586,878;19,68559
 606,23; 7747,821;  457,246;37731,038;19,55952
 606,80; 7746,257;  498,175;37784,818;19,43882
 607,38; 7722,976;  531,418;37725,308;19,33532
 607,96; 7722,355;  575,328;37784,125;19,20790
 608,54; 7784,433;  649,646;37914,093;19,14637
 609,12; 7752,059;  630,406;37903,880;19,10649
 609,70; 7725,891;  660,566;38026,295;18,90857
 610,27; 7623,157;  682,020;38081,214;18,55959
 610,85; 7687,550;  702,489;38111,217;18,67228
 611,43; 7643,386;  688,720;38030,852;18,62418
 612,01; 7566,007;  662,254;37782,215;18,59849
 612,59; 7539,726;  667,258;37907,018;18,45465
 613,16; 7473,648;  620,863;37815,017;18,42436
 613,74; 7394,486;  589,336;37665,576;18,35448
 614,32; 7383,983;  559,569;37691,925;18,37862
 614,90; 7322,130;  529,102;37567,978;18,34027
 615,48; 7188,902;  482,018;37205,946;18,26298
 616,05; 7204,021;  448,093;37231,614;18,36672
 616,63; 7143,293;  445,630;37017,359;18,31377
 617,21; 7083,223;  452,174;36928,245;18,17918
 617,79; 7029,302;  431,945;36883,378;18,09903
 618,36; 6939,052;  443,332;36837,895;17,84805
 618,94; 6851,705;  381,250;36430,579;17,94889
 619,52; 6776,448;  405,554;36255,639;17,77093
 620,10; 6775,730;  391,944;36205,497;17,82505
 620,67; 6684,711;  395,630;36085,806;17,62132
 621,25; 6692,624;  413,794;35996,666;17,64565
 621,83; 6614,254;  393,481;35913,241;17,51356
 622,41; 6624,375;  443,096;35948,624;17,40934
 622,98; 6531,469;  398,553;35616,127;17,41436
 623,56; 6485,753;  406,860;35652,446;17,24725
 624,14; 6410,110;  388,334;35464,029;17,16794
 624,72; 6355,826;  383,634;35382,209;17,06410
 625,29; 6385,171;  375,091;35419,278;17,15001
 625,87; 6407,170;  404,484;35448,009;17,12923
 626,45; 6302,038;  358,474;35305,518;17,00734
 627,02; 6237,544;  376,638;35172,688;16,84360
 627,60; 6205,399;  365,953;35208,750;16,75941
 628,18; 6171,982;  336,406;35183,034;16,74646
 628,76; 6179,931;  343,630;35152,622;16,76665
 629,33; 6149,296;  377,787;35141,849;16,60194
 629,91; 6116,576;  360,329;35171,958;16,53541
 630,49; 6130,735;  375,401;35215,998;16,51904
 631,06; 6105,250;  374,785;35425,240;16,34919
 631,64; 6079,961;  362,321;35408,705;16,31450
 632,22; 5997,244;  332,395;35337,755;16,18280
 632,79; 6057,277;  357,395;35576,586;16,18402
 633,37; 6043,997;  343,793;35634,186;16,15228
 633,95; 6017,114;  348,089;35788,117;15,99611
 634,52; 5989,001;  335,557;35793,285;15,94418
 635,10; 5994,992;  331,174;35839,663;15,95060
 635,68; 5995,563;  337,703;36062,263;15,83745
 636,25; 5933,305;  323,237;35952,922;15,74549
 636,83; 5933,315;  314,784;36204,083;15,65517
 637,41; 5952,001;  339,240;36289,950;15,61238
 637,98; 5959,792;  345,009;36452,163;15,55033
 638,56; 5937,369;  340,005;36522,485;15,46982
 639,13; 5859,215;  318,860;36600,787;15,27029
 639,71; 5910,767;  363,554;36768,087;15,23770
 640,29; 5806,928;  288,554;36497,658;15,24030
 640,86; 5795,916;  312,093;36735,158;15,05591
 641,44; 5787,134;  313,478;36666,581;15,05692
 642,02; 5739,582;  344,939;36703,158;14,83748
 642,59; 5720,031;  316,555;36858,197;14,78717
 643,17; 5685,480;  318,863;36784,774;14,71681
 643,74; 5673,698;  307,786;36875,121;14,67406
 644,32; 5664,301;  335,248;36776,006;14,62388
 644,89; 5648,827;  329,633;36777,275;14,59407
 645,47; 5650,275;  340,479;36918,852;14,51622
 646,05; 5608,801;  337,787;36779,199;14,46435
 646,62; 5572,019;  322,326;36798,930;14,39195
 647,20; 5537,699;  333,403;36934,507;14,21896
 647,77; 5463,763;  306,018;36822,392;14,12447
 648,35; 5460,519;  310,711;36681,738;14,15910
 648,92; 5469,584;  327,557;36769,469;14,11020
 649,50; 5401,032;  287,327;36593,124;14,08509
 650,08; 5388,174;  298,173;36527,470;14,04940
 650,65; 5367,392;  301,481;36760,893;13,89466
 651,23; 5452,379;  294,789;37478,009;13,87075
 651,80; 5560,905;  282,097;38426,279;13,83909
 652,38; 5631,507;  297,943;38764,010;13,86563
 652,95; 5643,956;  282,251;39119,125;13,80571
 653,53; 5649,789;  318,021;39376,395;13,65077
 654,10; 5682,854;  339,328;39472,357;13,65477
 654,68; 5625,456;  289,021;39460,626;13,62322
 655,25; 5598,982;  285,867;39602,434;13,51368
 655,83; 5561,739;  284,637;39603,857;13,42118
 656,40; 5616,649;  318,252;39534,204;13,51082
 656,98; 5539,021;  288,714;39457,089;13,40445
 657,55; 5491,085;  299,253;39281,589;13,31842
 658,13; 5419,765;  294,407;39005,397;13,24006
 658,70; 5394,983;  310,869;38751,436;13,22591
 659,28; 5219,893;  314,253;37982,782;13,02318
 659,85; 5085,111;  305,254;37119,206;12,98382
 660,43; 5013,175;  321,177;37207,629;12,72011
 661,00; 5016,009;  304,100;37314,591;12,73128
 661,58; 5029,611;  300,639;37590,860;12,68153
 662,15; 5026,599;  281,024;37801,361;12,64801
 662,73; 5099,970;  346,409;38066,938;12,60206
 663,30; 5082,650;  300,409;38285,515;12,58978
 663,88; 5090,099;  315,178;38452,169;12,52044
 664,45; 5076,163;  290,717;38705,285;12,45737
 665,03; 5070,996;  296,333;38921,093;12,36167
 665,60; 5203,445;  372,563;39514,747;12,34188
 666,17; 5103,279;  304,718;39569,709;12,22097
 666,75; 5122,266;  301,564;39834,209;12,19423
 667,32; 5176,330;  321,718;40222,863;12,16660
 667,90; 5174,548;  297,872;40553,979;12,11413
 668,47; 5195,535;  316,257;40718,941;12,07662
 669,05; 5187,907;  299,719;41088,210;11,98424
 669,62; 5188,202;  274,565;41105,710;12,03404
 670,19; 5149,882;  287,411;41229,826;11,87636
 670,77; 5143,408;  293,719;41441,249;11,78610
 671,34; 5153,395;  301,258;41367,134;11,81550
 671,92; 5144,613;  281,643;41697,327;11,74186
 672,49; 5168,446;  309,643;41711,443;11,73573
 673,06; 5089,664;  256,643;41810,404;11,63077
 673,64; 5063,959;  287,720;41795,982;11,50672
 674,21; 5081,177;  279,721;41652,251;11,60542
 674,79; 5071,549;  305,567;41889,982;11,46098
 675,36; 5091,537;  307,106;42048,405;11,46210
 675,93; 5054,370;  269,798;41923,290;11,48660
 676,51; 5036,127;  296,337;42038,791;11,35484
 677,08; 5025,345;  300,029;42205,676;11,27608
 677,65; 5005,870;  300,876;42223,945;11,22292
 678,23; 5032,319;  299,722;42528,138;11,20714
 678,80; 5015,076;  287,261;42656,253;11,15867
 679,38; 4980,371;  284,030;42765,984;11,05491
 679,95; 5062,358;  303,184;42939,100;11,16236
 680,52; 5042,653;  285,338;43307,216;11,05790
 681,10; 5136,717;  299,338;43558,870;11,18223
 681,67; 5108,781;  298,493;43842,832;11,04687
 682,24; 5083,230;  268,570;43972,563;11,01652
 682,82; 5130,602;  280,108;44494,448;10,97041
 683,39; 5195,666;  326,186;44959,179;10,91005
 683,96; 5173,115;  289,032;45091,371;10,90140
 684,54; 5186,718;  276,109;45456,641;10,86886
 685,11; 5274,782;  309,340;45702,833;10,93866
 685,68; 5228,846;  286,186;46266,487;10,74952
 686,25; 5242,756;  269,033;46346,142;10,79435
 686,83; 5233,128;  281,187;46473,950;10,72017
 687,40; 5268,192;  273,418;46719,296;10,75397
 687,97; 5315,795;  297,110;47163,489;10,70850
 688,55; 5261,475;  260,264;47251,297;10,64290
 689,12; 5268,462;  244,188;47453,335;10,64259
 689,69; 5283,757;  250,342;47563,451;10,63852
 690,26; 5302,283;  267,880;47710,336;10,61160
 690,84; 5268,731;  276,958;47853,298;10,49214
 691,41; 5297,257;  288,496;48013,567;10,49503
 691,98; 5345,168;  295,189;48194,683;10,54286
 692,56; 5282,309;  278,881;48329,260;10,41288
 693,13; 5319,911;  328,728;48309,991;10,40236
 693,70; 5351,360;  300,574;48497,568;10,47946
 694,27; 5298,886;  272,728;48602,222;10,39977
 694,84; 5301,565;  274,344;48711,184;10,37892
 695,42; 5332,014;  331,728;48858,454;10,30419
 695,99; 5296,925;  292,190;49050,723;10,26433
 696,56; 5272,912;  285,575;48886,531;10,26181
 697,13; 5344,284;  302,960;49344,339;10,27974
 697,71; 5293,348;  269,806;49297,147;10,24641
 698,28; 5342,335;  279,345;49636,724;10,25782
 698,85; 5287,322;  255,422;49652,917;10,18655
 699,42; 5321,079;  259,884;49787,879;10,21886
 699,99; 5362,912;  299,115;49910,456;10,20694
 700,57; 5332,823;  294,269;50012,802;10,13416
 701,14; 5358,348;  271,423;50102,610;10,20832
 701,71; 5359,413;  310,808;50372,803;10,08471
 702,28; 5366,246;  286,193;50343,765;10,14842
 702,85; 5373,464;  287,193;50442,034;10,14114
 703,43; 5364,067;  305,116;50729,842;10,03268
 704,00; 5413,362;  323,270;50879,650;10,06815
 704,57; 5388,041;  295,193;50869,381;10,07005
 705,14; 5396,952;  320,578;51078,189;10,00121
 705,71; 5411,939;  325,348;51209,536; 9,99641
 706,28; 5370,619;  297,425;51085,036; 9,98904
 706,86; 5414,452;  334,810;51220,152; 9,98253
 707,43; 5421,593;  349,502;51187,113; 9,97704
 708,00; 5420,503;  322,272;51296,614;10,00156
 708,57; 5352,414;  303,964;51216,191; 9,91599
 709,14; 5380,709;  323,118;51342,845; 9,91301
 709,71; 5383,542;  303,426;51511,961; 9,92045
 710,28; 5409,760;  294,888;51644,769; 9,96083
 710,86; 5399,594;  311,196;51785,884; 9,88524
 711,43; 5480,966;  324,196;51754,539;10,02671
 712,00; 5412,491;  315,504;51848,654; 9,89070
 712,57; 5446,017;  311,350;52033,308; 9,92744
 713,14; 5457,158;  300,735;52068,655; 9,96065
 713,71; 5458,068;  311,428;52110,540; 9,93577
 714,28; 5455,979;  294,043;52009,194; 9,98148
 714,85; 5436,812;  282,428;51853,925; 9,99464
 715,42; 5451,030;  290,121;52085,887; 9,96396
 716,00; 5568,633;  358,659;52233,310;10,04339
 716,57; 5474,236;  290,044;52298,579; 9,96796
 717,14; 5452,377;  278,967;52131,541; 9,97715
 717,71; 5490,287;  261,045;52118,965;10,08379
 718,28; 5497,736;  308,429;52350,926; 9,97129
 718,85; 5462,262;  262,891;52374,504; 9,97737
 719,42; 5484,018;  289,661;52479,081; 9,95289
 719,99; 5466,082;  269,122;52273,735; 9,99327
 720,56; 5536,685;  299,353;52573,851;10,01890
 721,13; 5501,441;  271,661;52641,043; 9,98633
 721,70; 5481,275;  261,969;52528,851; 9,98588
 722,27; 5538,339;  285,969;52482,890;10,06260
 722,84; 5585,173;  332,354;52699,775;10,03070
 723,41; 5513,391;  267,662;52779,891; 9,98954
 723,98; 5589,224;  282,970;52943,391;10,07636
 724,55; 5626,442;  312,509;52994,814;10,08675
 725,12; 5555,429;  239,124;52916,776;10,09215
 725,69; 5633,417;  274,586;53109,584;10,14258
 726,27; 5651,942;  278,586;53314,700;10,13150
 726,84; 5685,007;  291,817;53571,892;10,12234
 727,41; 5755,994;  292,048;53460,008;10,27676
 727,98; 5741,673;  301,202;53736,508;10,18142
 728,55; 5808,814;  322,202;53596,470;10,29880
 729,12; 5762,725;  271,664;53726,816;10,27228
 729,69; 5804,712;  304,741;53872,086;10,26739
 730,26; 5816,776;  303,665;54140,048;10,24049
 730,82; 5807,764;  291,203;54027,163;10,26605
 731,39; 5883,443;  297,204;54132,971;10,37645
 731,96; 5909,969;  271,434;54460,395;10,40532
 732,53; 5956,341;  293,204;54703,357;10,40824
 733,10; 6002,174;  303,281;54686,011;10,47923
 733,67; 6017,085;  296,358;54987,973;10,45997
 734,24; 5983,226;  282,743;54595,704;10,49562
 734,81; 6014,367;  323,897;54758,819;10,45371
 735,38; 6052,816;  284,436;54541,550;10,63156
 735,95; 6015,880;  291,282;54325,974;10,59430
 736,52; 6032,713;  307,975;54542,320;10,55556
 737,09; 6043,008;  300,052;54205,128;10,65383
 737,66; 6116,303;  338,283;54294,628;10,70869
 738,23; 6061,444;  283,206;54435,282;10,67039
 738,80; 6198,201;  347,206;54783,244;10,74838
 739,37; 6234,803;  307,360;54988,283;10,84006
 739,94; 6238,329;  291,361;54960,783;10,87805
 740,51; 6283,701;  398,822;54989,976;10,77991
 741,07; 6218,765;  287,669;55001,784;10,84016
 741,64; 6297,906;  305,361;55283,207;10,89993
 742,21; 6304,586;  287,438;55298,861;10,93800
 742,78; 6258,342;  265,515;55003,439;10,94822
 743,35; 6340,868;  296,054;55360,631;10,97768
 743,92; 6425,240;  321,439;55485,901;11,06473
 744,49; 6430,689;  315,978;55347,324;11,11132
 745,06; 6449,522;  283,747;55364,517;11,19406
 745,63; 6433,894;  276,132;55307,940;11,18946
 746,19; 6481,420;  284,978;55291,671;11,26489
 746,76; 6474,792;  295,440;55333,787;11,22736
 747,33; 6508,164;  284,671;55331,287;11,30586
 747,90; 6619,613;  304,287;55570,172;11,42717
 748,47; 6586,754;  292,595;55467,287;11,40769
 749,04; 6623,895;  314,133;55417,095;11,45086
 749,61; 6634,728;  324,903;55368,827;11,46326
 750,17; 6667,639;  311,672;55477,865;11,52149
 750,74; 6720,626;  301,749;55411,981;11,64734
 751,31; 6692,382;  267,826;55307,404;11,67261
 751,88; 6689,293;  266,980;55142,289;11,70346
 752,45; 6734,357;  287,750;55391,174;11,69910
 753,02; 6778,575;  298,442;55082,674;11,82846
 753,58; 6747,101;  276,981;55049,098;11,81280
 754,15; 6830,165;  283,751;55229,829;11,91425
 754,72; 6796,614;  282,828;54954,406;11,91439
 755,29; 6794,293;  267,597;54789,445;11,97079
 755,86; 6863,588;  284,597;54987,330;12,02680
 756,42; 6907,191;  286,828;54919,830;12,11788
 756,99; 6821,563;  251,136;54833,253;12,03769
 757,56; 6907,012;  270,060;54787,677;12,17396
 758,13; 6865,537;  211,367;54778,869;12,19438
 758,70; 6942,909;  238,598;54822,677;12,28254
 759,26; 6982,435;  228,060;54837,562;12,36850
 759,83; 7030,422;  239,060;54939,293;12,41560
 760,40; 7021,179;  226,753;54823,793;12,44468
 760,97; 7058,243;  217,830;54841,678;12,52276
 761,53; 7055,461;  200,446;54453,948;12,63516
 762,10; 7065,371;  212,984;54440,756;12,63631
 762,67; 7107,359;  244,523;54427,102;12,66613
 763,24; 7086,807;  202,292;54032,295;12,78936
 763,80; 7191,948;  238,677;54121,334;12,90447
 764,37; 7145,705;  240,139;54150,218;12,80942
 764,94; 7108,308;  216,524;53655,411;12,89657
 765,50; 7166,526;  229,447;53698,681;12,97396
 766,07; 7231,436;  273,909;53765,258;13,00683
 766,64; 7222,423;  237,909;53484,912;13,11720
 767,21; 7195,487;  249,525;53336,874;13,08403
 767,77; 7235,936;  272,371;53316,989;13,12775
 768,34; 7271,616;  278,294;53213,182;13,21118
 768,91; 7249,295;  270,371;53061,836;13,21980
 769,47; 7298,513;  263,449;53144,952;13,30345
 770,04; 7344,578;  273,680;52968,529;13,41858
 770,61; 7298,642;  255,988;52776,106;13,40944
 771,18; 7309,398;  248,142;52584,299;13,49212
 771,74; 7391,693;  271,449;52771,953;13,56224
 772,31; 7394,911;  262,527;52573,530;13,63458
 772,88; 7336,668;  234,988;52332,800;13,63144
 773,44; 7383,963;  253,066;52111,300;13,75075
 774,01; 7442,642;  270,373;52206,262;13,80985
 774,58; 7451,553;  249,527;51799,300;13,97101
 775,14; 7488,694;  247,220;51982,955;13,99704
 775,71; 7523,912;  249,605;51886,147;14,08752
 776,27; 7587,207;  309,605;51837,878;14,12351
 776,84; 7687,963;  331,990;51829,917;14,28402
 777,41; 7650,874;  277,836;51661,109;14,34910
 777,97; 7660,476;  251,606;51326,225;14,50597
 778,54; 7672,925;  273,991;51381,572;14,47718
 779,11; 7692,605;  286,837;51416,610;14,48426
 779,67; 7765,207;  251,376;51394,803;14,69169
 780,24; 7757,733;  269,453;51262,457;14,68492
 780,80; 7809,259;  285,068;51128,957;14,79861
 781,37; 7841,323;  275,684;51131,765;14,87657
 781,94; 7831,695;  254,684;50875,035;14,96831
 782,50; 7855,375;  269,607;50789,920;15,01528
 783,07; 7922,439;  292,454;50872,805;15,08488
 783,63; 7922,503;  257,685;50595,997;15,22661
 784,20; 7945,106;  279,685;50630,651;15,22398
 784,77; 7909,708;  267,685;50313,844;15,26995
 785,33; 7941,388;  241,993;50191,806;15,41426
 785,90; 7942,914;  267,686;50231,998;15,36142
 786,46; 8025,516;  278,840;50231,191;15,50813
 787,03; 8003,657;  248,763;49988,460;15,59096
 787,59; 8004,799;  260,840;49854,807;15,61472
 788,16; 8095,247;  281,610;49774,076;15,78753
 788,73; 8075,850;  269,533;49591,192;15,82736
 789,29; 8094,299;  263,302;49230,615;15,99229
 789,86; 8133,594;  282,918;49188,731;16,05264
 790,42; 8100,273;  270,380;49006,693;16,06583
 790,99; 8089,722;  279,611;48804,424;16,09509
 791,55; 8107,632;  258,611;48747,001;16,18742
 792,12; 8155,774;  286,457;48744,194;16,23955
 792,68; 8113,299;  266,611;48385,386;16,30692
 793,25; 8144,133;  275,227;48188,348;16,42328
 793,81; 8216,120;  330,227;47839,233;16,59873
 794,38; 8083,415;  239,458;47655,426;16,54286
 794,94; 8163,941;  249,997;47471,003;16,75937
 795,51; 8175,928;  282,074;47346,272;16,77252
 796,07; 8153,685;  257,536;47077,696;16,86485
 796,64; 8207,441;  295,997;47173,273;16,87693
 797,20; 8182,890;  280,075;46664,312;17,03772
 797,77; 8142,108;  235,921;46331,043;17,15190
 798,33; 8176,326;  269,767;46193,928;17,21656
 798,90; 8213,775;  287,537;46098,505;17,30205
 799,46; 8190,762;  270,229;45575,928;17,48242
 800,03; 8214,442;  273,383;45513,275;17,55322
 800,59; 8215,121;  285,768;45370,390;17,58771
 801,15; 8242,878;  288,230;45134,198;17,73771
 801,72; 8199,788;  270,845;44878,006;17,77504
 802,28; 8187,006;  294,615;44557,122;17,83087
 802,85; 8180,070;  274,307;44399,930;17,91649
 803,41; 8146,058;  263,000;44169,892;17,95403
 803,98; 8163,199;  261,616;43746,777;18,17076
 804,54; 8147,340;  270,154;43444,738;18,24496
 805,11; 8194,712;  287,539;43330,623;18,37037
 805,67; 8195,853;  308,078;43278,200;18,35642
 806,23; 8164,532;  266,001;42761,085;18,58693
 806,80; 8174,058;  288,617;42695,124;18,59489
 807,36; 8215,968;  287,463;42689,394;18,69845
 807,93; 8218,186;  300,848;42473,740;18,77353
 808,49; 8219,635;  249,386;42084,317;19,05166
 809,05; 8176,315;  251,156;41995,356;18,98505
 809,62; 8238,456;  289,002;41842,933;19,13045
 810,18; 8256,289;  281,541;41730,818;19,23978
 810,74; 8209,431;  245,849;41519,780;19,29446
 811,31; 8226,879;  250,618;41268,511;19,44581
 811,87; 8248,097;  259,157;41163,627;19,53073
 812,44; 8252,238;  294,926;41136,204;19,48350
 813,00; 8241,072;  220,004;40883,166;19,72564
 813,56; 8310,521;  274,696;40935,204;19,76322
 814,13; 8357,354;  259,850;40745,474;20,00094
 814,69; 8350,111;  253,235;40594,666;20,07087
 815,25; 8255,636;  236,928;40200,705;20,06494
 815,82; 8338,931;  280,697;40209,436;20,18154
 816,38; 8402,919;  300,005;40000,552;20,41008
 816,94; 8305,137;  251,928;39694,129;20,41775
 817,51; 8308,432;  238,928;39506,322;20,55014
 818,07; 8329,265;  245,775;39250,976;20,72413
 818,63; 8295,714;  273,006;39023,861;20,70331
 819,20; 8302,240;  259,006;38979,823;20,77238
 819,76; 8266,150;  242,391;38565,092;20,93735
 820,32; 8288,676;  295,853;38508,823;20,91652
 820,89; 8259,894;  276,237;38269,323;21,01345
 821,45; 8249,035;  245,930;37985,747;21,20600
 822,01; 8246,099;  270,084;37748,939;21,28137
 822,57; 8306,856;  262,853;37571,747;21,56055
 823,14; 8204,304;  237,854;37367,786;21,45560
 823,70; 8204,753;  235,854;37118,902;21,60586
 824,26; 8241,894;  249,085;36961,325;21,77151
 824,82; 8273,266;  268,854;36806,748;21,90715
 825,39; 8209,946;  246,854;36566,787;21,92485
 825,95; 8271,318;  264,239;36537,211;22,07450
 826,51; 8233,459;  262,547;36125,634;22,22595
 827,08; 8298,984;  306,240;36207,211;22,26331
 827,64; 8303,587;  270,317;36035,481;22,46116
 828,20; 8231,959;  246,471;35772,519;22,47784
 828,76; 8286,946;  269,625;35703,635;22,62606
 829,32; 8333,857;  276,317;35643,289;22,78267
 829,89; 8302,690;  231,241;35524,712;22,86952
 830,45; 8299,293;  258,010;35444,982;22,85301
 831,01; 8298,511;  252,703;35229,790;23,00308
 831,57; 8329,960;  254,011;35069,983;23,19610
 832,14; 8312,331;  246,703;35026,252;23,19072
 832,70; 8301,550;  243,088;34855,522;23,28198
 833,26; 8320,614;  214,704;34669,560;23,52618
 833,82; 8363,755;  252,242;34709,291;23,54094
 834,38; 8331,434;  247,089;34666,407;23,48781
 834,95; 8356,576;  241,473;34489,753;23,69492
 835,51; 8316,486;  209,243;34402,561;23,71002
 836,07; 8436,242;  253,705;34454,908;23,92471
 836,63; 8505,460;  264,013;34434,485;24,11862
 837,19; 8515,140;  247,859;34274,139;24,29675
 837,75; 8442,820;  219,551;33980,563;24,35729
 838,32; 8526,653;  260,167;34076,371;24,44534
 838,88; 8543,640;  262,090;34127,948;24,45398
 839,44; 8601,320;  255,783;34055,756;24,69096
 840,00; 8601,076;  252,014;33936,179;24,78631
 840,56; 8578,141;  239,860;33756,295;24,87818
 841,12; 8653,974;  235,476;33652,410;25,19231
 841,68; 8544,038;  226,091;33490,526;25,00553
 842,25; 8595,487;  231,322;33469,488;25,16434
 842,81; 8573,782;  231,246;33316,142;25,21554
 843,37; 8610,615;  214,938;33260,950;25,40602
 843,93; 8630,526;  237,938;33145,219;25,50374
 844,49; 8685,898;  247,400;33174,566;25,62777
 845,05; 8677,808;  210,170;33065,912;25,77217
 845,61; 8727,641;  248,170;33106,643;25,80604
 846,17; 8737,244;  235,785;32907,298;26,02101
 846,73; 8717,308;  241,940;32803,721;26,02858
 847,29; 8760,680;  217,324;32683,913;26,31430
 847,86; 8768,744;  235,248;32657,260;26,32007
 848,42; 8775,655;  221,017;32423,376;26,56525
 848,98; 8791,180;  249,402;32411,414;26,55859
 849,54; 8797,168;  232,864;32420,376;26,60754
 850,10; 8805,309;  239,172;32242,261;26,76659
 850,66; 8759,988;  223,326;32169,223;26,72225
 851,22; 8776,437;  216,018;32044,492;26,89547
 851,78; 8851,578;  262,172;32190,300;26,90232
 852,34; 8859,719;  247,480;31902,878;27,20623
 852,90; 8787,245;  239,711;31744,301;27,13108
 853,46; 8754,232;  221,327;31626,878;27,17006
 854,02; 8855,527;  241,096;31540,686;27,52251
 854,58; 8745,976;  237,558;31283,648;27,40576
 855,14; 8777,117;  227,712;31230,148;27,57656
 855,70; 8721,951;  199,404;31072,802;27,60482
 856,26; 8762,323;  247,482;30999,610;27,68862
 856,82; 8803,310;  223,174;30911,803;27,95868
 857,38; 8783,066;  260,405;30765,842;27,93817
 857,94; 8761,361;  225,559;30693,342;28,01583
 858,50; 8810,579;  250,790;30567,073;28,23496
 859,06; 8736,336;  231,560;30390,266;28,20007
 859,62; 8768,092;  239,868;30330,612;28,34169
 860,18; 8748,926;  229,406;30161,112;28,46319
 860,74; 8715,529;  209,945;29971,689;28,57891
 861,30; 8717,747;  208,791;29742,882;28,81062
 861,86; 8770,965;  270,638;29919,075;28,67041
 862,42; 8759,952;  237,946;29764,806;28,86188
 862,98; 8829,478;  266,176;29637,075;29,15573
 863,54; 8762,926;  236,946;29389,960;29,24562
 864,10; 8803,221;  220,638;29537,691;29,27505
 864,66; 8702,286;  213,639;29320,191;29,16404
 865,22; 8748,965;  229,485;29208,769;29,39852
 865,78; 8758,568;  242,639;29062,269;29,54906
 866,34; 8772,863;  221,255;28983,154;29,73242
 866,90; 8760,773;  246,716;28842,346;29,77398
 867,45; 8757,145;  234,024;28601,462;30,04544
 868,01; 8735,209;  240,717;28463,808;30,09767
 868,57; 8684,427;  228,640;28331,924;30,08825
 869,13; 8688,338;  212,025;28131,732;30,35960
 869,69; 8710,710;  229,871;28104,463;30,42498
 870,25; 8716,543;  212,025;28013,425;30,59025
 870,81; 8745,761;  233,103;27915,694;30,75094
 871,37; 8746,902;  241,103;27851,426;30,80659
 871,93; 8780,120;  241,334;27679,310;31,12032
 872,49; 8740,415;  262,719;27451,272;31,18112
 873,04; 8670,710;  217,411;27275,849;31,24090
 873,60; 8699,543;  217,181;27180,965;31,45835
 874,16; 8733,838;  238,719;27138,312;31,58085
 874,72; 8705,300;  230,104;27081,927;31,56283
 875,28; 8717,685;  240,258;26971,773;31,71323
 875,84; 8746,223;  230,258;26915,388;31,91277
 876,40; 8702,762;  222,027;26777,388;31,93605
 876,95; 8761,838;  237,104;26837,004;32,04799
 877,51; 8814,300;  264,181;26826,235;32,18922
 878,07; 8858,223;  270,719;26808,004;32,36015
 878,63; 8838,531;  226,335;26831,004;32,37100
 879,19; 8888,377;  242,873;26770,696;32,59033
 879,75; 8908,685;  233,488;26885,388;32,55001
 880,30; 8920,915;  235,258;26834,388;32,65392
 880,86; 9077,146;  274,335;27011,312;32,92374
 881,42; 9060,685;  217,181;26987,696;33,03449
 881,98; 9110,069;  251,104;27128,850;32,96022
 882,54; 9170,069;  229,796;27205,542;33,14189
 883,09; 9227,069;  240,104;27280,927;33,23481
 883,65; 9259,377;  221,027;27450,235;33,19358
 884,21; 9399,223;  258,642;27607,927;33,42164
 884,77; 9406,762;  217,412;27540,696;33,63194
 885,32; 9500,685;  232,104;27752,158;33,67937
 885,88; 9570,915;  269,642;27948,927;33,60373
 886,44; 9637,069;  234,258;28056,773;33,79569
 887,00; 9690,608;  260,796;28002,388;33,99160
 887,56; 9776,069;  226,873;28174,927;34,16766
 888,11; 9820,685;  234,565;28173,465;34,31101
 888,67; 9898,531;  261,258;28362,927;34,29431
 889,23; 9908,146;  247,104;28360,696;34,36431
 889,79; 9880,223;  219,873;28214,927;34,50735
 890,34; 9911,454;  241,565;28168,235;34,62600
 890,90;10092,992;  303,642;28337,619;34,91959
 891,46;10011,915;  222,335;28240,235;34,94045
 892,01;10077,223;  253,950;28197,927;35,15345
 892,57;10121,762;  271,027;28211,465;35,25619
 893,13;10070,608;  224,335;27922,235;35,54881
 893,69;10114,146;  227,642;27872,081;35,76308
 894,24;10098,223;  245,027;27818,542;35,73428
 894,80;10081,685;  248,181;27712,004;35,80530
 895,36;10068,531;  239,642;27574,235;35,95769
 895,91;10024,377;  226,950;27331,773;36,14643
 896,47;10038,531;  252,335;27288,619;36,19653
 897,03; 9986,762;  230,488;27012,158;36,42892
 897,58; 9981,608;  254,719;27080,619;36,25932
 898,14; 9969,069;  246,796;26719,235;36,72602
 898,70; 9953,223;  204,950;26620,312;36,90380
 899,25;10003,608;  242,181;26628,465;36,99432
 899,81; 9927,454;  248,104;26450,696;36,94043
 900,37; 9878,992;  208,258;26203,696;37,20166
 900,92; 9935,762;  239,642;26209,081;37,33665
 901,48; 9865,300;  225,412;26078,465;37,28723
 902,03; 9896,762;  212,335;25948,773;37,62924
 902,59; 9826,300;  229,950;25837,081;37,47530
 903,15; 9855,608;  256,488;25704,542;37,72045
 903,70; 9803,531;  245,027;25477,081;37,88239
 904,26; 9734,838;  223,873;25315,773;37,90452
 904,82; 9724,608;  242,873;25352,542;37,76129
 905,37; 9742,531;  246,719;25189,619;38,07020
 905,93; 9727,838;  228,719;25007,312;38,33599
 906,48; 9721,223;  243,796;25006,850;38,27245
 907,04; 9673,377;  253,335;24911,388;38,20270
 907,60; 9692,531;  237,950;24700,542;38,64914
 908,15; 9623,377;  230,027;24588,696;38,56266
 908,71; 9674,685;  257,027;24614,081;38,66501
 909,26; 9638,685;  228,181;24422,619;38,89532
 909,82; 9642,146;  257,412;24211,388;39,17819
 910,37; 9646,223;  277,027;24242,081;39,09524
 910,93; 9545,531;  226,104;24083,312;39,06336
 911,48; 9533,069;  220,181;23858,388;39,39761
 912,04; 9522,992;  236,796;23776,312;39,44939
 912,60; 9506,685;  243,258;23848,235;39,24353
 913,15; 9502,608;  239,873;23565,619;39,71035
 913,71; 9443,685;  219,873;23403,696;39,78555
 914,26; 9410,685;  215,104;23348,850;39,74964
 914,82; 9466,069;  236,412;23261,312;40,08555
 915,37; 9481,223;  223,642;23194,927;40,30067
 915,93; 9442,915;  272,642;23073,158;40,21959
 916,48; 9378,685;  225,719;22937,081;40,30126
 917,04; 9394,377;  247,104;22802,696;40,55435
 917,59; 9418,838;  263,181;22762,158;40,69366
 918,15; 9284,992;  196,488;22562,388;40,63554
 918,70; 9303,377;  220,873;22468,696;40,82424
 919,26; 9340,992;  231,950;22437,081;41,02224
 919,81; 9275,300;  220,719;22235,312;41,12990
 920,37; 9264,915;  228,642;22167,158;41,18908
 920,92; 9219,300;  246,873;22137,081;40,98831
 921,48; 9152,146;  214,488;21839,081;41,33099
 922,03; 9188,454;  225,950;21859,081;41,42953
 922,59; 9160,454;  225,796;21713,158;41,58099
 923,14; 9131,146;  224,796;21644,312;41,58054
 923,69; 9205,685;  250,565;21559,388;42,02541
 924,25; 9202,608;  238,027;21438,619;42,28458
 924,80; 9110,685;  233,719;21291,312;42,15565
 925,36; 9122,762;  226,104;21189,312;42,43939
 925,91; 9110,531;  211,181;21066,542;42,67176
 926,47; 9084,762;  208,565;20966,081;42,76136
 927,02; 9140,531;  280,335;20992,235;42,77829
 927,57; 9066,454;  225,104;20790,696;42,99098
 928,13; 9063,608;  213,796;20660,388;43,28257
 928,68; 9086,762;  225,258;20638,312;43,41097
 929,24; 8995,454;  199,719;20421,388;43,49658
 929,79; 8998,992;  206,335;20327,235;43,69913
 930,34; 9001,992;  226,873;20180,465;43,97764
 930,90; 8967,915;  212,027;20141,465;43,93445
 931,45; 8960,300;  229,027;20157,927;43,81212
 932,01; 8922,454;  225,873;20021,465;43,93190
 932,56; 8944,608;  249,719;19868,388;44,31946
 933,11; 8923,223;  253,488;19857,927;44,22333
 933,67; 8908,992;  220,488;19695,388;44,61386
 934,22; 8917,223;  236,181;19596,312;44,83979
 934,77; 8885,300;  257,950;19538,158;44,74718
 935,33; 8835,915;  227,796;19370,850;44,96732
 935,88; 8847,223;  228,258;19341,158;45,09502
 936,43; 8815,531;  228,642;19217,235;45,22130
 936,99; 8858,146;  232,719;19116,927;45,67534
 937,54; 8729,531;  210,719;18954,773;45,44807
 938,09; 8755,454;  227,412;18975,388;45,48780
 938,65; 8733,300;  220,950;18836,850;45,72623
 939,20; 8686,531;  204,335;18707,773;45,84119
 939,75; 8691,762;  211,565;18689,619;45,89334
 940,31; 8690,377;  210,412;18486,850;46,39835
 940,86; 8758,838;  225,027;18508,004;46,67627
 941,41; 8751,608;  290,565;18399,542;46,72292
 941,96; 8656,762;  219,258;18250,619;46,79349
 942,52; 8636,915;  216,027;18174,235;46,89159
 943,07; 8590,146;  197,488;18061,696;46,98030
 943,62; 8597,762;  217,719;17999,081;47,12824
 944,18; 8578,762;  195,565;17954,158;47,20642
 944,73; 8594,531;  233,027;17856,388;47,44557
 945,28; 8517,531;  191,027;17627,927;47,75220
 945,83; 8514,069;  217,642;17686,773;47,49193
 946,39; 8532,762;  223,335;17662,004;47,64943
 946,94; 8549,608;  245,335;17545,542;48,00100
 947,49; 8527,069;  219,565;17453,696;48,20379
 948,04; 8538,608;  253,719;17367,542;48,41051
 948,59; 8491,454;  244,950;17351,773;48,20593
 949,15; 8472,685;  202,719;17219,850;48,59788
 949,70; 8451,223;  218,104;17085,235;48,81162
 950,25; 8445,300;  237,181;17045,158;48,83467
 950,80; 8356,992;  196,027;16909,081;48,82989
 951,36; 8402,223;  197,873;16863,235;49,22996
 951,91; 8464,762;  230,565;16832,927;49,59654
 952,46; 8336,454;  199,719;16575,158;49,68865
 953,01; 8431,531;  242,950;16650,619;49,90703
 953,56; 8351,377;  195,104;16489,542;50,05556
 954,11; 8341,146;  233,565;16458,312;49,97046
 954,67; 8344,223;  219,719;16418,312;50,15562
 955,22; 8327,915;  207,181;16251,773;50,61353
 955,77; 8362,685;  242,412;16265,004;50,68015
 956,32; 8343,223;  275,181;16178,927;50,73045
 956,87; 8230,531;  206,565;15991,235;50,83392
 957,42; 8188,531;  211,258;15955,850;50,66675
 957,98; 8184,685;  214,335;15911,465;50,77584
 958,53; 8174,992;  238,412;15814,004;50,95524
 959,08; 8130,069;  201,796;15706,619;51,13424
 959,63; 8143,608;  206,796;15611,312;51,52263
 960,18; 8161,531;  229,873;15587,312;51,64701
 960,73; 8143,531;  226,796;15466,158;51,94925
 961,28; 8119,915;  199,873;15403,312;52,09376
 961,83; 8168,915;  238,181;15367,619;52,41923
 962,39; 8125,531;  204,642;15236,542;52,69386
 962,94; 8090,915;  228,181;15135,158;52,74533
 963,49; 8055,300;  223,565;15083,158;52,70491
 964,04; 8026,838;  235,642;15060,927;52,55343
 964,59; 7978,531;  190,873;14878,773;53,02091
 965,14; 8010,685;  237,950;14853,158;53,18251
 965,69; 7949,223;  226,181;14738,388;53,21756
 966,24; 7928,069;  216,104;14616,465;53,55397
 966,79; 7924,069;  233,488;14561,158;53,67643
 967,34; 7818,992;  193,104;14409,696;53,64076
 967,89; 7840,608;  206,027;14404,312;53,77115
 968,44; 7793,608;  216,027;14305,773;53,78082
 968,99; 7786,300;  221,950;14292,465;53,76029
 969,55; 7796,762;  222,027;14166,619;54,32023
 970,10; 7706,838;  226,488;14098,312;53,92478
 970,65; 7731,992;  246,873;14004,696;54,40628
 971,20; 7666,146;  214,181;13909,773;54,41141
 971,75; 7605,838;  197,796;13668,542;54,99356
 972,30; 7611,608;  223,104;13699,081;54,82722
 972,85; 7568,838;  212,181;13631,004;54,82342
 973,40; 7525,531;  206,258;13559,158;54,81411
 973,95; 7566,454;  222,719;13453,312;55,50571
 974,50; 7496,608;  246,565;13406,773;55,09064
 975,05; 7415,146;  227,335;13275,619;55,08626
 975,60; 7436,838;  233,642;13192,388;55,58559
 976,15; 7416,685;  213,719;13086,158;55,95650
 976,70; 7398,531;  225,719;13024,312;56,04375
 977,25; 7361,685;  228,950;12980,388;55,93671
 977,80; 7334,992;  205,104;12853,542;56,36971
 978,35; 7279,377;  228,565;12647,773;56,77344
 978,89; 7231,223;  198,719;12588,388;56,76103
 979,44; 7236,531;  228,873;12625,081;56,53066
 979,99; 7186,223;  209,873;12401,619;57,22191
 980,54; 7177,377;  243,412;12386,850;57,10051
 981,09; 7174,377;  239,258;12232,388;57,82576
 981,64; 7060,300;  234,873;12097,773;57,53591
 982,19; 7023,838;  261,027;12125,081;57,00254
 982,74; 6983,531;  245,027;11893,081;57,85090
 983,29; 6922,915;  213,950;11764,619;58,08291
 983,84; 6895,915;  235,258;11668,773;58,25555
 984,39; 6894,838;  303,104;11711,542;57,77946
 984,94; 6770,531;  203,027;11481,619;58,22982
 985,49; 6788,300;  250,873;11470,542;58,26755
 986,03; 6728,838;  250,488;11413,235;58,03545
 986,58; 6665,454;  276,027;11242,619;58,26265
 987,13; 6607,300;  237,027;11119,465;58,53718
 987,68; 6573,608;  235,335;11045,773;58,63105
 988,23; 6529,454;  237,258;10984,850;58,54517
 988,78; 6496,762;  223,873;10863,235;58,95926
 989,33; 6437,762;  241,873;10732,696;59,06008
 989,88; 6409,377;  249,642;10721,619;58,82112
 990,42; 6317,915;  232,642;10586,158;58,77495
 990,97; 6241,377;  224,950;10463,004;58,76534
 991,52; 6245,992;  253,719;10376,850;59,19387
 992,07; 6240,685;  255,873;10301,927;59,57376
 992,62; 6142,454;  239,873;10217,773;59,15654
 993,17; 6108,300;  238,181;10072,004;59,69315
 993,71; 6038,377;  248,950; 9954,235;59,65231
 994,26; 6006,762;  222,181; 9825,850;60,23303
 994,81; 6006,377;  250,181; 9767,850;60,47905
 995,36; 5903,069;  226,719; 9628,773;60,37351
 995,91; 5884,838;  235,258; 9593,004;60,37331
 996,45; 5862,377;  236,335; 9483,619;60,83994
 997,00; 5764,531;  207,950; 9335,850;60,87469
 997,55; 5742,223;  233,873; 9334,927;60,52431
 998,10; 5689,377;  265,488; 9163,773;60,95432
 998,65; 5634,300;  231,412; 9172,465;60,42787
 999,19; 5573,300;  252,104; 9013,158;60,73694
 999,74; 5536,454;  276,181; 8985,542;60,39792
1000,29; 5475,069;  246,719; 8828,773;60,92190
1000,84; 5408,992;  223,104; 8741,696;60,87729
1001,38; 5320,300;  237,412; 8648,388;60,43161
1001,93; 5354,531;  248,181; 8601,158;61,13210
1002,48; 5250,223;  221,950; 8410,542;61,40583
1003,03; 5248,377;  238,565; 8394,696;61,42387
1003,57; 5172,915;  249,719; 8249,158;61,54427
1004,12; 5158,608;  272,412; 8205,235;61,59467
1004,67; 5083,685;  226,719; 8094,235;61,73443
1005,22; 5025,992;  217,796; 7967,081;62,04697
1005,76; 4965,069;  217,335; 7848,235;62,21723
1006,31; 4965,069;  247,642; 7815,850;62,33215
1006,86; 4862,992;  222,104; 7678,850;62,23745
1007,40; 4787,146;  210,950; 7571,850;62,16898
1007,95; 4751,762;  236,873; 7480,158;62,33206
1008,50; 4663,531;  231,642; 7337,388;62,37049
1009,04; 4624,223;  219,950; 7249,004;62,65812
1009,59; 4548,300;  240,412; 7142,312;62,41598
1010,14; 4486,377;  216,335; 7033,312;62,63836
1010,68; 4409,300;  229,565; 6973,773;61,97518
1011,23; 4365,223;  224,950; 6797,542;62,99300
1011,78; 4334,146;  234,181; 6780,465;62,63042
1012,32; 4294,915;  247,565; 6639,465;63,31998
1012,87; 4263,992;  253,412; 6621,081;62,98350
1013,42; 4156,608;  218,258; 6484,004;62,85524
1013,96; 4221,146;  258,488; 6507,081;63,41681
1014,51; 4156,146;  198,335; 6424,619;63,56618
1015,06; 4168,223;  204,335; 6429,158;63,67873
1015,60; 4202,685;  268,565; 6443,619;63,70988
1016,15; 4171,915;  224,104; 6407,542;63,84492
1016,69; 4221,608;  233,950; 6431,158;64,34604
1017,24; 4249,531;  205,258; 6454,927;64,71179
1017,79; 4277,377;  251,796; 6551,081;63,90536
1018,33; 4273,838;  218,412; 6526,158;64,29280
1018,88; 4303,146;  242,258; 6598,927;63,88390
1019,42; 4362,992;  229,412; 6609,388;64,78990
1019,97; 4336,838;  209,642; 6586,388;64,72260
1020,51; 4406,685;  243,335; 6614,927;65,34238
1021,06; 4349,685;  199,258; 6623,081;64,60992
1021,61; 4322,223;  204,258; 6566,081;64,72933
1022,15; 4306,069;  180,027; 6530,927;64,96784
1022,70; 4353,685;  223,873; 6544,388;65,33979
1023,24; 4338,146;  217,104; 6506,696;65,52161
1023,79; 4286,838;  214,873; 6440,312;65,40849
1024,33; 4299,146;  219,642; 6432,696;65,66020
1024,88; 4257,069;  224,565; 6301,158;66,36127
1025,42; 4160,146;  216,335; 6201,773;65,89010
1025,97; 4122,223;  219,027; 6159,696;65,70297
1026,51; 4053,992;  185,488; 6011,927;66,39569
1027,06; 4033,915;  206,488; 5991,850;66,15709
1027,60; 3989,223;  239,258; 5887,235;66,39484
1028,15; 3953,762;  245,873; 5774,696;67,06470
1028,69; 3820,762;  198,950; 5671,004;66,18743
1029,24; 3792,377;  217,104; 5593,542;66,49891
1029,78; 3752,069;  215,181; 5512,696;66,76504
1030,33; 3724,223;  196,565; 5423,542;67,48944
1030,87; 3686,069;  222,642; 5339,312;67,68909
1031,42; 3595,146;  202,181; 5270,850;66,93996
1031,96; 3642,838;  233,488; 5172,465;69,02948
1032,51; 3548,762;  211,796; 5112,696;68,08883
1033,05; 3515,300;  216,104; 5063,465;68,06169
1033,60; 3438,608;  191,950; 4923,927;68,61102
1034,14; 3377,377;  213,565; 4874,388;67,88096
1034,69; 3391,531;  219,642; 4796,312;69,30561
1035,23; 3310,992;  208,796; 4739,927;68,46406
1035,77; 3268,300;  201,412; 4670,388;68,62619
1036,32; 3222,992;  190,950; 4605,312;68,68586
1036,86; 3215,992;  214,335; 4557,312;69,11521
1037,41; 3198,685;  225,104; 4481,542;69,86077
1037,95; 3115,992;  194,104; 4382,773;69,75696
1038,50; 3104,762;  206,412; 4372,696;69,56678
1039,04; 3087,146;  233,027; 4333,235;69,60914
1039,58; 3024,223;  196,488; 4222,388;70,23857
1040,13; 2982,223;  218,181; 4185,004;69,67899
1040,67; 2975,454;  237,488; 4167,081;69,67556
1041,21; 2934,838;  238,565; 4070,696;70,35963
1041,76; 2866,300;  199,104; 4016,850;69,86311
1042,30; 2833,915;  215,104; 3950,158;70,11443
1042,85; 2804,300;  217,335; 3897,235;70,29988
1043,39; 2761,069;  207,258; 3822,235;70,64531
1043,93; 2767,531;  223,335; 3783,773;71,45738
1044,48; 2705,762;  223,412; 3736,850;70,65301
1045,02; 2645,531;  213,104; 3690,850;69,94262
1045,56; 2620,992;  232,719; 3675,850;69,36341
1046,11; 2591,838;  220,642; 3615,004;69,85691
1046,65; 2561,300;  229,488; 3556,773;70,08152
1047,19; 2513,146;  207,104; 3511,465;69,78783
1047,74; 2483,223;  197,950; 3420,388;70,91751
1048,28; 2446,685;  220,181; 3400,927;69,99942
1048,82; 2442,992;  238,719; 3362,388;70,56679
1049,37; 2378,685;  228,412; 3294,004;70,14217
1049,91; 2362,377;  230,796; 3252,158;70,55034
1050,45; 2340,762;  233,258; 3229,158;70,34627
1050,99; 2303,069;  216,642; 3161,927;70,83957
1051,54; 2277,454;  208,796; 3103,696;71,45869
1052,08; 2272,685;  250,796; 3090,235;71,20734
1052,62; 2240,454;  236,719; 3048,696;71,25715
1053,16; 2223,685;  217,412; 2967,004;72,96620
1053,71; 2183,915;  230,565; 2937,465;72,16188
1054,25; 2184,608;  241,719; 2895,773;73,20456
1054,79; 2134,685;  231,642; 2873,235;72,04148
1055,33; 2075,838;  195,488; 2796,696;72,28758
1055,88; 2075,608;  231,412; 2778,312;72,40944
1056,42; 2066,223;  245,873; 2757,388;72,48015
1056,96; 2035,223;  238,565; 2705,158;72,83967
1057,50; 2015,915;  224,104; 2676,312;73,06932
1058,05; 1975,915;  221,335; 2629,773;72,85138
1058,59; 1956,685;  247,565; 2595,850;72,78160
1059,13; 1876,454;  206,181; 2532,158;71,80953
1059,67; 1917,838;  224,642; 2534,235;73,31147
1060,21; 1854,300;  218,796; 2464,235;72,83673
1060,76; 1837,992;  229,565; 2448,081;72,50015
1061,30; 1831,454;  248,565; 2444,773;72,07371
1061,84; 1791,685;  229,796; 2349,312;73,69083
1062,38; 1745,300;  218,335; 2286,542;73,83037
1062,92; 1764,685;  266,488; 2345,081;72,07744
1063,46; 1720,608;  247,181; 2274,388;72,68258
1064,01; 1687,915;  224,412; 2233,927;72,82870
1064,55; 1677,223;  231,565; 2217,773;72,78482
1065,09; 1618,223;  204,565; 2145,388;72,83805
1065,63; 1657,992;  253,719; 2166,388;73,41955
1066,17; 1627,377;  262,796; 2143,465;72,55825
1066,71; 1616,685;  247,258; 2125,388;72,91435
1067,25; 1571,915;  241,950; 2079,927;72,36029
1067,80; 1568,069;  256,873; 2061,696;72,64957
1068,34; 1580,300;  258,950; 2065,619;73,13735
1068,88; 1502,608;  225,181; 1990,696;72,35434
1069,42; 1539,685;  252,488; 2018,696;72,87909
1069,96; 1496,146;  234,642; 1949,081;73,58117
1070,50; 1490,377;  276,488; 1963,081;71,97284
1071,04; 1462,531;  220,950; 1888,696;74,44663
1071,58; 1432,377;  232,796; 1878,081;72,91023
1072,12; 1430,223;  233,796; 1855,081;73,79500
1072,66; 1417,531;  227,181; 1840,158;73,79833
1073,21; 1416,377;  243,104; 1838,004;73,56405
1073,75; 1386,915;  238,488; 1792,850;73,88416
1074,29; 1371,300;  245,950; 1790,388;72,86467
1074,83; 1357,992;  250,642; 1768,542;72,95276
1075,37; 1346,915;  255,796; 1760,542;72,51185
1075,91; 1329,223;  255,873; 1747,312;71,96743
1076,45; 1315,915;  236,565; 1700,004;73,75438
1076,99; 1294,992;  245,488; 1654,004;74,51135
1077,53; 1264,223;  229,104; 1627,004;74,04816
1078,07; 1268,915;  242,258; 1641,927;73,35002
1078,61; 1257,992;  237,412; 1612,081;74,24192
1079,15; 1232,685;  235,719; 1601,004;73,02253
1079,69; 1217,915;  236,796; 1561,235;74,07813
1080,23; 1226,377;  253,335; 1567,850;74,02289
1080,77; 1239,608;  284,719; 1574,388;74,04135
1081,31; 1178,531;  219,565; 1499,235;74,93854
1081,85; 1193,685;  250,719; 1528,004;73,82578
1082,39; 1160,531;  228,027; 1476,927;74,66601
1082,93; 1169,762;  249,950; 1489,312;74,21656
1083,47; 1118,992;  228,565; 1438,773;73,57637
1084,01; 1140,762;  246,027; 1466,388;73,31718
1084,55; 1117,608;  235,258; 1420,004;74,47587
1085,09; 1112,146;  247,950; 1420,004;73,73349
1085,63; 1097,915;  254,335; 1380,158;74,93014
1086,17; 1070,685;  224,719; 1372,158;73,72643
1086,71; 1066,377;  229,796; 1356,773;74,23229
1087,24; 1093,992;  266,642; 1373,927;74,71882
1087,78; 1063,915;  249,258; 1344,235;74,39953
1088,32; 1032,838;  234,488; 1302,312;74,76426
1088,86; 1036,377;  255,027; 1325,696;72,97772
1089,40; 1017,915;  239,335; 1279,004;74,88735
1089,94; 1003,454;  223,027; 1243,081;76,50840
1090,48; 1005,915;  243,258; 1242,312;76,33800
1091,02; 1002,608;  254,258; 1254,081;74,84824
1091,56;  984,377;  240,642; 1240,312;74,39807
1092,10;  932,223;  213,412; 1184,927;73,98869
1092,63;  971,531;  259,258; 1217,465;74,33389
1093,17;  956,915;  244,719; 1203,004;74,31990
1093,71;  948,838;  229,488; 1160,235;77,28745
1094,25;  939,685;  264,950; 1180,158;73,72475
1094,79;  931,685;  240,488; 1147,542;76,20233
1095,33;  919,146;  247,796; 1127,312;76,33181
1095,87;  917,762;  240,412; 1124,619;76,60531
1096,40;  885,531;  216,950; 1088,619;76,70120
1096,94;  901,300;  242,104; 1091,927;77,56863
1097,48;  895,915;  251,181; 1084,465;77,37268
1098,02;  854,608;  236,181; 1071,927;73,99698
1098,56;  842,685;  208,104; 1018,388;78,31579
1099,10;  830,838;  220,719; 1013,850;76,92543
1099,63;  829,531;  216,642; 1022,465;76,05745
1100,17;  838,762;  235,565; 1028,696;76,05255
1100,71;  850,531;  259,719; 1034,465;76,25872

