
Integration time [ms]: 120,000
Averaging Nr. [scans]: 13
Smoothing Nr. [pixels]: 0
Data measured with spectrometer [name]: 2009305U1
Wave   ;Sample   ;Dark     ;Reference;Reflectance
[nm]   ;[counts] ;[counts] ;[counts] ;[%]

 175,72;  194,948;  200,110;  202,873;-186,87827
 176,32;  220,383;  231,332;  217,715; 0,00000
 176,92;  242,684;  245,184;  240,921; 0,00000
 177,52;  254,950;  250,109;  256,275;78,51750
 178,12;  224,616;  223,102;  218,213; 0,00000
 178,72;  252,495;  248,022;  243,330; 0,00000
 179,32;  239,523;  256,178;  243,824; 0,00000
 179,92;  251,176;  241,720;  245,617;242,63531
 180,52;  235,553;  230,730;  241,246;45,86114
 181,12;  255,921;  248,567;  250,061;492,27553
 181,73;  267,891;  265,952;  273,731;24,92854
 182,33;  337,282;  337,265;  342,339; 0,34241
 182,93;  263,893;  258,493;  264,171;95,11542
 183,53;  231,730;  235,252;  221,768; 0,00000
 184,13;  236,683;  230,330;  222,348; 0,00000
 184,73;  271,988;  263,712;  262,061; 0,00000
 185,33;  256,339;  222,813;  335,622;29,71913
 185,93;  264,952;  225,114;  349,529;32,02072
 186,53;  286,437;  238,117;  379,892;34,08212
 187,13;  305,589;  271,894;  396,171;27,11306
 187,73;  266,980;  225,807;  353,841;32,15735
 188,33;  270,823;  238,650;  368,758;24,72769
 188,93;  265,829;  246,946;  366,563;15,78600
 189,53;  269,685;  240,552;  363,460;23,70313
 190,13;  309,197;  275,692;  394,159;28,28215
 190,73;  257,612;  213,317;  352,390;31,85052
 191,34;  292,093;  251,866;  378,765;31,70010
 191,94;  265,076;  235,107;  360,268;23,94435
 192,54;  275,994;  241,591;  390,133;23,16071
 193,14;  289,214;  257,816;  388,913;23,95019
 193,74;  272,430;  252,969;  383,609;14,89649
 194,34;  285,462;  254,664;  378,868;24,79664
 194,94;  246,080;  210,354;  355,117;24,67904
 195,54;  222,942;  192,813;  337,228;20,86282
 196,14;  252,144;  222,204;  355,041;22,53892
 196,74;  246,232;  220,965;  336,888;21,79632
 197,34;  223,844;  185,516;  340,966;24,65625
 197,94;  246,520;  223,202;  369,904;15,89534
 198,54;  254,899;  229,435;  370,150;18,09640
 199,14;  240,447;  206,826;  380,207;19,39164
 199,74;  235,119;  199,672;  362,157;21,81575
 200,34;  229,748;  185,981;  386,732;21,80160
 200,94;  261,284;  229,284;  404,812;18,23096
 201,54;  247,537;  207,440;  424,455;18,47672
 202,14;  269,893;  227,059;  472,480;17,45318
 202,74;  248,963;  203,210;  476,428;16,74596
 203,34;  238,060;  186,447;  469,920;18,20725
 203,94;  214,946;  160,060;  478,769;17,22138
 204,54;  272,454;  241,433;  552,751; 9,96450
 205,14;  249,279;  184,749;  573,546;16,59742
 205,74;  309,484;  223,754;  647,558;20,22874
 206,34;  259,361;  202,829;  669,407;12,11629
 206,94;  280,983;  203,674;  729,266;14,70901
 207,54;  248,281;  172,905;  753,909;12,97343
 208,14;  271,434;  202,675;  838,670;10,81120
 208,74;  278,969;  200,902;  898,202;11,19559
 209,34;  278,031;  193,211;  981,994;10,75324
 209,94;  306,672;  202,441; 1071,279;11,99657
 210,54;  311,210;  201,753; 1188,471;11,09303
 211,14;  320,558;  207,595; 1267,456;10,65834
 211,73;  336,604;  206,439; 1390,455;10,99345
 212,33;  349,920;  215,438; 1522,708;10,28726
 212,93;  325,933;  208,594; 1566,379; 8,64188
 213,53;  316,949;  178,364; 1648,999; 9,42348
 214,13;  351,711;  186,757; 1718,993;10,76560
 214,73;  337,970;  175,444; 1770,095;10,19194
 215,33;  321,518;  165,672; 1775,125; 9,68317
 215,93;  354,112;  192,985; 1870,490; 9,60515
 216,53;  330,343;  152,825; 1952,587; 9,86343
 217,13;  391,330;  209,292; 2163,915; 9,31320
 217,73;  404,533;  192,831; 2320,006; 9,95225
 218,33;  389,081;  154,450; 2493,708;10,03012
 218,93;  439,763;  183,688; 2777,639; 9,87200
 219,53;  493,214;  183,989; 3086,043;10,65540
 220,13;  486,867;  153,682; 3373,664;10,34742
 220,73;  550,247;  167,442; 3677,026;10,90743
 221,32;  588,123;  186,902; 4061,202;10,35595
 221,92;  643,760;  191,836; 4482,845;10,53188
 222,52;  679,074;  170,755; 4928,580;10,68385
 223,12;  734,629;  174,678; 5311,431;10,90087
 223,72;  803,609;  182,524; 5778,997;11,09778
 224,32;  853,961;  186,063; 6115,477;11,26415
 224,92;  884,241;  173,986; 6473,463;11,27481
 225,52;  940,271;  194,905; 6867,601;11,17039
 226,12;  989,489;  184,830; 7208,919;11,45571
 226,72; 1029,661;  160,983; 7573,009;11,71984
 227,31; 1054,786;  141,599; 7973,996;11,65911
 227,91; 1152,665;  178,519; 8371,266;11,89034
 228,51; 1206,337;  176,977; 8814,255;11,91765
 229,11; 1290,274;  179,137; 9285,050;12,20237
 229,71; 1328,309;  173,825; 9549,184;12,31402
 230,31; 1384,971;  161,757;10004,622;12,42741
 230,91; 1442,107;  153,359;10329,852;12,66397
 231,51; 1508,274;  156,216;10676,915;12,85141
 232,10; 1606,724;  165,450;11009,337;13,29112
 232,70; 1670,616;  170,664;11133,945;13,68160
 233,30; 1754,172;  193,985;11455,562;13,85408
 233,90; 1780,605;  168,831;11573,318;14,13281
 234,50; 1848,952;  177,677;11711,639;14,49003
 235,10; 1888,702;  167,525;11729,540;14,88648
 235,70; 1948,978;  196,058;11761,655;15,15634
 236,29; 1991,841;  194,056;11655,487;15,68552
 236,89; 1969,397;  164,052;11549,992;15,85591
 237,49; 2040,937;  182,368;11445,335;16,50159
 238,09; 2020,899;  177,905;11157,638;16,78541
 238,69; 2085,124;  206,973;10872,607;17,60937
 239,29; 2020,692;  169,674;10581,194;17,77856
 239,89; 2006,656;  188,668;10236,698;18,09298
 240,48; 1957,332;  165,444; 9830,009;18,54081
 241,08; 1904,032;  169,827; 9487,945;18,61110
 241,68; 1898,950;  184,752; 9147,968;19,12481
 242,28; 1858,401;  161,061; 8792,526;19,66456
 242,88; 1835,307;  197,757; 8466,405;19,80432
 243,48; 1819,341;  200,291; 8217,308;20,19517
 244,07; 1762,021;  184,673; 7941,714;20,33440
 244,67; 1745,624;  180,983; 7812,186;20,50321
 245,27; 1729,834;  196,593; 7600,147;20,70953
 245,87; 1716,792;  188,680; 7503,269;20,89129
 246,47; 1710,017;  177,593; 7504,161;20,91598
 247,06; 1670,216;  175,212; 7501,380;20,40636
 247,66; 1700,713;  171,598; 7507,502;20,84426
 248,26; 1749,363;  198,594; 7680,252;20,72762
 248,86; 1762,053;  197,517; 7835,908;20,48254
 249,46; 1759,679;  148,370; 8081,196;20,31192
 250,05; 1837,680;  199,290; 8459,647;19,83438
 250,65; 1863,627;  167,670; 8763,473;19,73007
 251,25; 1912,009;  175,212; 9259,936;19,11778
 251,85; 2018,536;  174,898; 9807,639;19,13929
 252,44; 2108,479;  149,441;10404,804;19,10258
 253,04; 2234,478;  181,519;11139,257;18,73525
 253,64; 2320,868;  141,054;11824,061;18,65799
 254,24; 2447,469;  183,059;12767,543;17,99367
 254,84; 2559,217;  169,446;13615,273;17,77333
 255,43; 2704,607;  167,903;14455,596;17,75447
 256,03; 2836,038;  182,977;15537,988;17,27814
 256,63; 2985,599;  195,206;16514,825;17,09840
 257,23; 3056,342;  167,129;17345,771;16,81864
 257,82; 3216,273;  179,203;18351,919;16,71225
 258,42; 3240,010;  147,817;19148,687;16,27396
 259,02; 3395,792;  196,903;20015,338;16,14097
 259,62; 3440,431;  165,508;20715,560;15,93632
 260,21; 3535,109;  179,364;21261,849;15,91722
 260,81; 3566,299;  172,907;21761,326;15,71858
 261,41; 3592,479;  158,203;22124,027;15,63463
 262,01; 3654,695;  201,046;22589,550;15,42599
 262,60; 3578,112;  157,052;22857,540;15,07042
 263,20; 3683,302;  164,978;23198,998;15,27447
 263,80; 3668,778;  187,968;23365,093;15,01830
 264,40; 3629,209;  154,815;23598,994;14,81986
 264,99; 3688,838;  188,660;23715,396;14,87745
 265,59; 3647,725;  169,887;23910,612;14,64925
 266,19; 3640,527;  166,584;24001,890;14,57478
 266,78; 3685,280;  204,735;24111,097;14,55907
 267,38; 3630,689;  178,042;24110,046;14,42691
 267,98; 3608,855;  164,505;24153,613;14,35797
 268,58; 3597,661;  186,041;24180,879;14,21814
 269,17; 3590,603;  168,807;24176,190;14,25310
 269,77; 3596,116;  175,436;24019,286;14,34618
 270,37; 3522,998;  146,276;23861,785;14,23845
 270,96; 3514,259;  212,049;23777,796;14,01275
 271,56; 3458,340;  177,975;23455,503;14,09241
 272,16; 3416,400;  173,279;23345,529;13,99571
 272,75; 3411,450;  176,126;23222,475;14,03834
 273,35; 3432,520;  190,896;23205,077;14,08533
 273,95; 3425,969;  178,433;23172,964;14,12308
 274,54; 3399,686;  162,674;23176,497;14,06551
 275,14; 3498,620;  190,588;23548,240;14,16252
 275,74; 3463,365;  152,741;23612,434;14,11197
 276,33; 3560,689;  199,205;23907,765;14,17836
 276,93; 3602,497;  180,906;24350,471;14,15661
 277,53; 3698,898;  178,056;24808,437;14,29471
 278,12; 3801,661;  156,438;25351,463;14,46803
 278,72; 3917,406;  207,902;25930,003;14,42147
 279,32; 4021,760;  180,517;26427,414;14,63504
 279,91; 4134,103;  160,054;27208,518;14,69233
 280,51; 4282,536;  172,749;27648,370;14,95794
 281,11; 4389,459;  185,439;28417,581;14,89090
 281,70; 4514,386;  164,054;28725,396;15,23154
 282,30; 4661,417;  163,360;29381,042;15,39498
 282,90; 4771,528;  167,821;29798,675;15,53687
 283,49; 4958,962;  187,434;30296,335;15,84756
 284,09; 5110,552;  202,900;30739,558;16,07135
 284,69; 5212,737;  204,670;31083,405;16,21850
 285,28; 5339,649;  199,438;31435,147;16,45620
 285,88; 5542,357;  230,202;31632,624;16,91639
 286,47; 5622,779;  182,898;31767,648;17,22313
 287,07; 5808,857;  201,440;31775,772;17,75942
 287,67; 6009,957;  193,907;31928,385;18,32723
 288,26; 6098,926;  174,286;31735,346;18,77199
 288,86; 6338,440;  175,669;31898,079;19,42719
 289,46; 6553,601;  181,439;31934,342;20,06797
 290,05; 6793,414;  175,827;32059,063;20,75569
 290,65; 7083,629;  186,051;32265,847;21,50131
 291,24; 7380,209;  186,748;32442,252;22,30150
 291,84; 7666,753;  196,052;32541,363;23,09670
 292,44; 7898,646;  185,984;32701,879;23,71967
 293,03; 8229,041;  245,594;32808,206;24,51722
 293,63; 8510,731;  173,744;32892,739;25,48057
 294,22; 8714,474;  204,747;33109,934;25,86135
 294,82; 8881,616;  175,354;33078,696;26,46012
 295,41; 9011,309;  167,823;32895,165;27,02171
 296,01; 9252,207;  214,356;32681,284;27,83710
 296,61; 9309,600;  203,363;32431,641;28,25543
 297,20; 9313,853;  187,202;32167,565;28,53830
 297,80; 9411,287;  200,213;32028,452;28,93994
 298,39; 9426,229;  176,744;31525,101;29,50548
 298,99; 9475,287;  201,280;31317,195;29,80471
 299,58; 9556,952;  191,906;31210,312;30,19190
 300,18; 9525,388;  202,443;31103,624;30,17019
 300,78; 9499,405;  175,210;30692,763;30,55355
 301,37; 9545,204;  196,890;30587,432;30,76060
 301,97; 9613,804;  200,978;30615,713;30,94824
 302,56; 9586,546;  167,975;30574,304;30,97569
 303,16; 9623,644;  171,204;30473,055;31,19427
 303,75; 9654,241;  182,057;30495,945;31,24701
 304,35; 9780,096;  180,063;30724,205;31,43003
 304,94; 9860,134;  179,439;30727,030;31,69053
 305,54; 9786,892;  198,364;30620,356;31,51841
 306,13; 9755,686;  159,601;30588,612;31,53597
 306,73; 9701,449;  171,984;30388,973;31,53678
 307,33; 9707,969;  191,060;30332,163;31,57452
 307,92; 9756,839;  187,594;30310,758;31,76706
 308,52; 9838,747;  162,819;30807,494;31,57458
 309,11;10053,085;  172,663;31288,728;31,75344
 309,71;10122,324;  157,046;31478,596;31,81605
 310,30;10141,481;  172,286;31699,274;31,62114
 310,90;10288,173;  197,978;32084,043;31,64453
 311,49;10299,171;  178,132;32148,776;31,65729
 312,09;10334,570;  150,981;32308,022;31,66830
 312,68;10513,949;  229,826;32691,229;31,68108
 313,28;10462,762;  153,209;32834,758;31,54548
 313,87;10478,521;  152,824;32955,297;31,47841
 314,47;10573,867;  172,048;33198,764;31,49517
 315,06;10580,602;  151,902;33298,292;31,46255
 315,66;10617,186;  166,904;33516,099;31,33593
 316,25;10542,108;  152,743;33427,322;31,22313
 316,85;10520,180;  149,828;33489,402;31,10523
 317,44;10524,842;  165,432;33660,873;30,92782
 318,04;10522,249;  141,744;33659,151;30,97049
 318,63;10456,309;  153,215;33796,173;30,62482
 319,22;10474,866;  178,590;33947,928;30,49001
 319,82;10452,256;  170,515;33922,260;30,46284
 320,41;10356,455;  187,898;33803,644;30,24939
 321,01;10300,511;  187,058;33865,266;30,02967
 321,60;10274,817;  170,361;33901,423;29,95594
 322,20;10175,631;  157,902;33876,537;29,70977
 322,79;10114,078;  209,287;33900,722;29,39854
 323,39;10101,869;  177,601;33960,788;29,37635
 323,98; 9996,585;  162,825;33810,510;29,22566
 324,58; 9924,992;  170,127;33727,770;29,06898
 325,17; 9818,837;  167,743;33605,453;28,86290
 325,76; 9744,051;  191,670;33355,179;28,80389
 326,36; 9564,238;  165,673;32990,284;28,63268
 326,95; 9485,252;  190,438;32707,522;28,58440
 327,55; 9304,325;  158,976;32358,834;28,40183
 328,14; 9158,010;  159,444;31926,271;28,32693
 328,74; 8998,874;  198,359;31474,277;28,13831
 329,33; 8843,460;  195,288;31095,474;27,98744
 329,92; 8627,415;  164,355;30551,968;27,85036
 330,52; 8412,460;  180,367;29961,262;27,64219
 331,11; 8229,062;  174,669;29505,160;27,46082
 331,71; 8049,257;  177,824;28992,980;27,31699
 332,30; 7866,057;  194,055;28579,183;27,02825
 332,89; 7731,612;  225,365;28002,515;27,02310
 333,49; 7488,805;  188,361;27531,106;26,69975
 334,08; 7379,157;  180,591;27057,020;26,78394
 334,68; 7164,661;  186,438;26669,617;26,34964
 335,27; 7076,262;  207,060;26367,810;26,25766
 335,86; 7000,216;  230,361;26052,545;26,21720
 336,46; 6857,746;  191,060;25817,512;26,01486
 337,05; 6796,187;  174,130;25724,300;25,91786
 337,65; 6657,598;  164,976;25463,124;25,66442
 338,24; 6663,696;  217,056;25371,759;25,62797
 338,83; 6615,166;  201,902;25236,338;25,61777
 339,43; 6527,746;  165,513;25237,716;25,37565
 340,02; 6489,211;  176,666;25087,761;25,34030
 340,61; 6465,050;  169,440;25166,247;25,18565
 341,21; 6449,028;  206,205;25164,738;25,01278
 341,80; 6397,974;  174,207;25058,929;25,01040
 342,40; 6370,160;  174,290;25211,149;24,74699
 342,99; 6313,150;  167,057;25204,438;24,54767
 343,58; 6360,922;  176,288;25454,705;24,46606
 344,18; 6403,568;  181,673;25509,140;24,56580
 344,77; 6379,630;  163,435;25750,394;24,29439
 345,36; 6417,022;  161,823;26055,291;24,15744
 345,96; 6491,104;  197,750;26293,257;24,11662
 346,55; 6467,353;  163,755;26623,951;23,82295
 347,14; 6519,049;  157,444;26853,977;23,82933
 347,74; 6625,800;  151,220;27355,636;23,79974
 348,33; 6742,117;  173,604;27946,763;23,65058
 348,92; 6800,577;  190,223;28559,542;23,30107
 349,52; 6884,673;  146,606;28931,257;23,40854
 350,11; 6930,292;  173,050;29134,883;23,33154
 350,70; 6947,084;  167,671;29276,265;23,29007
 351,29; 6839,790;  154,735;29067,160;23,12174
 351,89; 6862,532;  178,355;29089,529;23,11970
 352,48; 6826,657;  155,440;28926,668;23,18711
 353,07; 6817,886;  182,830;28953,928;23,06153
 353,67; 6788,699;  183,531;28901,484;23,00014
 354,26; 6696,756;  189,137;28669,254;22,84969
 354,85; 6669,222;  181,828;28536,076;22,87980
 355,45; 6537,531;  157,283;28384,404;22,60325
 356,04; 6584,070;  182,522;28248,824;22,80866
 356,63; 6580,352;  207,131;28047,378;22,89211
 357,22; 6548,263;  183,199;27888,957;22,97380
 357,82; 6466,454;  178,200;27692,655;22,85437
 358,41; 6453,553;  190,285;27660,509;22,80021
 359,00; 6406,299;  160,820;27531,838;22,81785
 359,60; 6401,066;  180,748;27473,329;22,79124
 360,19; 6385,389;  186,523;27226,055;22,92520
 360,78; 6379,800;  173,745;27060,495;23,08221
 361,37; 6319,626;  178,745;26940,368;22,94659
 361,97; 6366,152;  181,977;26819,889;23,21569
 362,56; 6288,528;  169,819;26560,426;23,18518
 363,15; 6264,211;  210,976;26288,164;23,21276
 363,74; 6172,246;  180,818;25944,529;23,25530
 364,34; 6179,689;  191,974;25613,996;23,55326
 364,93; 6053,008;  166,357;25263,824;23,45516
 365,52; 5991,985;  161,899;24817,237;23,64634
 366,11; 5971,005;  182,359;24544,191;23,76113
 366,71; 5892,250;  166,820;24256,082;23,76756
 367,30; 5850,455;  170,900;23869,047;23,96624
 367,89; 5864,228;  210,674;23714,696;24,05356
 368,48; 5808,359;  201,741;23367,353;24,20233
 369,07; 5721,007;  172,440;22961,727;24,34726
 369,67; 5705,615;  190,665;22773,475;24,42101
 370,26; 5652,275;  169,902;22466,397;24,58850
 370,85; 5643,048;  179,669;22238,961;24,76679
 371,44; 5667,990;  180,054;22078,002;25,06141
 372,03; 5598,780;  162,051;21765,503;25,16602
 372,63; 5565,631;  147,592;21457,595;25,42486
 373,22; 5516,928;  178,824;21264,460;25,31630
 373,81; 5471,649;  151,822;20887,300;25,65567
 374,40; 5529,717;  169,982;20755,163;26,03686
 374,99; 5488,294;  165,591;20466,861;26,21857
 375,59; 5466,148;  164,520;20178,190;26,49003
 376,18; 5518,268;  190,053;20070,422;26,80139
 376,77; 5516,468;  182,208;19935,314;27,00466
 377,36; 5562,697;  203,822;19861,671;27,26074
 377,95; 5531,595;  190,898;19564,367;27,56706
 378,55; 5552,049;  176,442;19479,343;27,84870
 379,14; 5548,914;  196,515;19341,165;27,95768
 379,73; 5582,554;  186,436;19267,653;28,27974
 380,32; 5681,012;  193,900;19353,088;28,63958
 380,91; 5660,285;  169,818;19185,543;28,87330
 381,50; 5705,970;  188,127;19141,761;29,11232
 382,10; 5743,166;  159,977;19023,550;29,59773
 382,69; 5767,102;  157,053;19011,952;29,75380
 383,28; 5854,302;  200,743;18912,037;30,21469
 383,87; 5879,428;  170,127;18817,254;30,61759
 384,46; 5905,351;  173,970;18795,139;30,77885
 385,05; 5956,033;  208,127;18823,408;30,87735
 385,64; 6021,621;  171,897;18742,345;31,50017
 386,24; 6049,392;  163,354;18671,777;31,80194
 386,83; 6171,660;  200,815;18753,378;32,18340
 387,42; 6289,888;  202,974;18843,784;32,65370
 388,01; 6375,580;  189,965;19065,911;32,76983
 388,60; 6553,544;  184,970;19250,922;33,40286
 389,19; 6639,667;  170,806;19513,230;33,44390
 389,78; 6820,332;  176,115;19779,398;33,89339
 390,37; 7044,266;  226,044;20111,925;34,28675
 390,96; 7181,600;  180,508;20281,999;34,82872
 391,56; 7304,635;  185,882;20441,460;35,14466
 392,15; 7443,960;  176,193;20728,665;35,36201
 392,74; 7570,229;  165,952;20799,855;35,88403
 393,33; 7776,183;  180,804;21104,510;36,30035
 393,92; 8023,151;  176,180;21464,578;36,86032
 394,51; 8186,469;  177,189;21633,885;37,32765
 395,10; 8353,396;  217,401;21864,520;37,58466
 395,69; 8461,049;  200,249;21986,294;37,91785
 396,28; 8569,421;  195,167;22178,296;38,09401
 396,87; 8716,035;  203,466;22188,646;38,71958
 397,46; 8870,648;  201,922;22287,467;39,25068
 398,06; 9038,992;  208,992;22488,052;39,63363
 398,65; 9114,273;  204,437;22561,040;39,85326
 399,24; 9270,637;  224,357;22665,021;40,31200
 399,83; 9349,959;  196,563;22709,801;40,65784
 400,42; 9553,608;  245,387;22899,258;41,08888
 401,01; 9604,324;  219,823;23002,396;41,19158
 401,60; 9722,085;  221,327;23008,449;41,69354
 402,19; 9829,873;  247,299;22965,025;42,18104
 402,78; 9949,638;  245,872;22940,038;42,75886
 403,37; 9954,228;  231,986;22817,328;43,04669
 403,96; 9937,982;  240,708;22688,226;43,19976
 404,55; 9990,945;  245,655;22574,434;43,64453
 405,14;10043,150;  220,454;22461,716;44,16429
 405,73;10038,573;  244,475;22396,569;44,21297
 406,32;10155,020;  252,360;22279,648;44,95633
 406,91;10115,393;  244,317;22049,013;45,27041
 407,50;10159,859;  258,602;21885,148;45,78288
 408,09;10069,544;  240,587;21583,178;46,05325
 408,68;10126,056;  234,806;21504,539;46,50387
 409,27;10069,006;  233,359;21317,301;46,64994
 409,86;10176,799;  241,624;21177,379;47,45554
 410,45;10207,773;  268,652;21119,790;47,66704
 411,04;10275,983;  267,604;21080,043;48,08845
 411,63;10179,783;  258,335;20837,815;48,21039
 412,22;10106,210;  261,985;20668,780;48,23994
 412,81;10094,619;  288,997;20378,564;48,80953
 413,40;10006,248;  282,704;20005,385;49,30133
 413,99; 9960,090;  322,777;19776,044;49,54085
 414,58; 9808,727;  244,395;19446,217;49,80950
 415,17; 9771,830;  265,843;19200,130;50,20515
 415,76; 9781,334;  253,060;19067,816;50,64256
 416,35; 9724,863;  252,605;18864,516;50,89352
 416,94; 9827,900;  292,755;18909,686;51,21760
 417,53;10010,683;  262,536;19201,777;51,47063
 418,12;10046,704;  254,155;19240,489;51,57683
 418,71;10286,986;  275,474;19601,096;51,80434
 419,30;10397,488;  267,002;19669,177;52,21315
 419,89;10578,878;  258,313;19828,654;52,73574
 420,48;10785,903;  283,782;20084,168;53,03998
 421,07;10855,249;  271,862;20162,278;53,20848
 421,66;10889,347;  247,484;20113,259;53,56883
 422,25;10920,794;  259,575;20168,509;53,54992
 422,84;10939,917;  291,654;20118,429;53,70648
 423,43;10791,570;  265,802;19840,272;53,77294
 424,02;10778,763;  281,574;19689,613;54,08681
 424,60;10573,425;  266,975;19256,751;54,27368
 425,19;10451,788;  273,274;18981,897;54,40547
 425,78;10498,262;  282,737;18938,087;54,75923
 426,37;10459,302;  274,050;18706,551;55,25702
 426,96;10388,128;  271,589;18630,579;55,10401
 427,55;10313,889;  253,752;18423,257;55,36825
 428,14;10256,259;  254,602;18314,942;55,37912
 428,73;10147,886;  258,979;18125,943;55,34744
 429,32;10170,583;  272,742;18158,700;55,33861
 429,91;10267,392;  287,595;18050,961;56,18190
 430,50;10162,998;  283,215;17969,719;55,86057
 431,08;10103,575;  282,220;17837,309;55,94591
 431,67;10095,178;  321,532;17807,338;55,89474
 432,26; 9987,115;  337,152;17580,345;55,96390
 432,85; 9835,749;  346,381;17262,521;56,09653
 433,44; 9683,190;  363,003;16965,759;56,13639
 434,03; 9489,471;  372,165;16585,088;56,23480
 434,62; 9281,326;  331,695;16184,668;56,45396
 435,21; 9165,936;  356,459;16013,376;56,26572
 435,79; 9123,282;  350,931;15844,947;56,61767
 436,38; 9051,540;  337,632;15784,190;56,41327
 436,97; 8975,604;  329,633;15697,172;56,26126
 437,56; 8918,044;  343,568;15441,621;56,79193
 438,15; 8839,211;  316,950;15355,004;56,67130
 438,74; 8860,163;  332,951;15464,200;56,35498
 439,33; 8835,565;  313,334;15359,647;56,63999
 439,91; 8888,385;  281,032;15418,889;56,85979
 440,50; 8941,102;  314,186;15563,165;56,57373
 441,09; 8989,639;  327,424;15661,060;56,49159
 441,68; 8943,995;  307,047;15628,439;56,37183
 442,27; 8939,618;  291,274;15613,356;56,44366
 442,86; 8904,017;  272,059;15595,639;56,33121
 443,44; 8927,751;  286,210;15641,651;56,27673
 444,03; 8981,005;  345,444;15700,707;56,23844
 444,62; 8959,914;  289,906;15556,277;56,79154
 445,21; 8840,754;  302,058;15401,023;56,55153
 445,80; 8763,986;  326,451;15395,443;55,99270
 446,39; 8654,319;  342,065;15123,392;56,23483
 446,97; 8505,048;  290,228;14914,550;56,17231
 447,56; 8342,516;  290,543;14717,409;55,81235
 448,15; 8232,669;  298,382;14534,709;55,73269
 448,74; 8162,773;  313,229;14318,406;56,04745
 449,33; 8021,689;  293,619;14205,123;55,55165
 449,91; 7931,864;  292,858;13988,439;55,77716
 450,50; 7793,944;  293,702;13753,841;55,72187
 451,09; 7744,629;  310,857;13679,135;55,60755
 451,68; 7627,176;  331,014;13613,838;54,92930
 452,26; 7594,453;  325,787;13562,980;54,91093
 452,85; 7490,522;  302,862;13444,382;54,69428
 453,44; 7556,086;  314,950;13468,943;55,04896
 454,03; 7461,916;  293,636;13430,805;54,56488
 454,61; 7409,364;  294,489;13416,537;54,22077
 455,20; 7530,977;  318,647;13568,384;54,43376
 455,79; 7479,659;  319,717;13528,712;54,20505
 456,38; 7494,409;  322,884;13611,428;53,96773
 456,97; 7492,418;  296,036;13667,680;53,81823
 457,55; 7514,561;  317,425;13676,515;53,87445
 458,14; 7508,750;  328,804;13639,553;53,94097
 458,73; 7403,301;  321,657;13599,416;53,33464
 459,31; 7411,060;  343,433;13694,269;52,93771
 459,90; 7441,000;  358,968;13716,159;53,02037
 460,49; 7495,972;  380,581;13801,511;53,01712
 461,08; 7481,041;  313,282;13908,189;52,72385
 461,66; 7535,918;  325,663;13940,125;52,96027
 462,25; 7538,264;  323,901;14043,272;52,58523
 462,84; 7573,088;  346,975;14091,860;52,57311
 463,43; 7440,657;  292,370;14001,859;52,14116
 464,01; 7444,365;  320,835;13972,720;52,17982
 464,60; 7441,262;  376,829;13986,225;51,90850
 465,19; 7302,028;  301,990;13791,341;51,89307
 465,77; 7203,612;  322,379;13780,175;51,13195
 466,36; 7206,364;  335,678;13649,212;51,60678
 466,95; 7033,454;  322,986;13373,403;51,41957
 467,53; 6811,410;  323,075;13041,996;51,01325
 468,12; 6709,570;  358,384;12852,951;50,83158
 468,71; 6579,027;  328,453;12606,717;50,90764
 469,29; 6409,919;  309,846;12379,694;50,53977
 469,88; 6233,590;  328,080;12134,808;50,01817
 470,47; 6285,339;  374,702;12248,969;49,77685
 471,06; 6245,341;  340,779;12196,006;49,80556
 471,64; 6317,517;  346,162;12282,073;50,02848
 472,23; 6252,826;  316,559;12359,916;49,29080
 472,81; 6270,128;  319,938;12414,085;49,19893
 473,40; 6292,863;  326,252;12559,201;48,77492
 473,99; 6412,353;  400,098;12707,830;48,84941
 474,57; 6401,707;  338,328;12806,780;48,62976
 475,16; 6457,648;  340,785;13005,294;48,29925
 475,75; 6514,466;  352,256;13144,153;48,17276
 476,33; 6545,660;  368,954;13135,164;48,38324
 476,92; 6548,066;  348,715;13259,753;48,01590
 477,51; 6562,484;  352,105;13285,751;48,01723
 478,09; 6530,003;  354,644;13291,086;47,73614
 478,68; 6499,820;  379,184;13277,784;47,45194
 479,27; 6540,531;  379,103;13274,836;47,77881
 479,85; 6436,217;  345,569;13256,947;47,17272
 480,44; 6478,632;  350,956;13407,093;46,93330
 481,02; 7042,130;  350,345;14721,262;46,56477
 481,61; 7920,417;  370,650;16663,809;46,33704
 482,20; 8364,354;  353,960;17765,488;46,00627
 482,78; 8727,744;  401,493;18602,504;45,74609
 483,37; 8937,686;  374,505;19013,668;45,94188
 483,95; 9075,744;  400,891;19283,415;45,94117
 484,54; 9184,139;  418,650;19485,369;45,97272
 485,13; 9022,704;  369,820;19371,997;45,53628
 485,71; 8942,271;  360,664;19136,914;45,70459
 486,30; 8828,636;  395,433;18812,864;45,78924
 486,88; 8624,226;  424,743;18506,146;45,34761
 487,47; 8305,355;  410,359;17840,273;45,29567
 488,05; 7906,246;  399,285;17044,464;45,09991
 488,64; 7363,700;  406,444;15824,720;45,12344
 489,23; 6520,164;  409,825;14080,795;44,69573
 489,81; 5615,783;  399,596;12033,859;44,83470
 490,40; 5295,958;  355,366;11449,552;44,53316
 490,98; 5159,336;  345,983;11182,105;44,41952
 491,57; 5093,476;  376,287;11127,637;43,87532
 492,15; 5055,119;  364,215;11092,218;43,72578
 492,74; 5018,767;  361,516;10967,143;43,91301
 493,32; 4956,599;  371,137;10878,394;43,64091
 493,91; 4900,653;  351,833;10763,962;43,68771
 494,50; 4860,406;  354,611;10789,291;43,18096
 495,08; 4817,746;  331,765;10671,042;43,38776
 495,67; 4797,529;  367,755;10690,830;42,91138
 496,25; 4706,843;  322,914;10565,516;42,80093
 496,84; 4680,498;  330,447;10555,934;42,54126
 497,42; 4643,576;  323,916;10495,711;42,46703
 498,01; 4609,024;  347,602;10490,916;42,01212
 498,59; 4571,623;  309,763;10357,304;42,41694
 499,18; 4575,909;  312,449;10338,776;42,52265
 499,76; 4516,530;  322,607;10359,050;41,78694
 500,35; 4413,289;  319,844;10079,211;41,94375
 500,93; 4401,342;  304,916;10129,213;41,69689
 501,52; 4335,552;  309,378; 9975,924;41,65059
 502,10; 4346,474;  328,694; 9977,923;41,63835
 502,69; 4216,586;  316,774; 9858,065;40,87300
 503,27; 4154,562;  300,304; 9658,712;41,18498
 503,86; 4113,052;  307,234; 9622,964;40,85367
 504,44; 4076,877;  299,161; 9479,463;41,15024
 505,03; 3934,430;  286,545; 9295,509;40,49172
 505,61; 3886,386;  288,005; 9140,038;40,65033
 506,19; 3851,994;  311,622; 9023,101;40,64031
 506,78; 3750,417;  280,090; 8789,403;40,78269
 507,36; 3686,664;  291,237; 8728,631;40,24260
 507,95; 3620,752;  296,632; 8561,888;40,21799
 508,53; 3558,255;  295,628; 8450,285;40,00937
 509,12; 3503,898;  304,477; 8269,933;40,16621
 509,70; 3438,762;  318,094; 8172,196;39,73297
 510,29; 3366,162;  313,558; 8031,058;39,55431
 510,87; 3288,227;  297,167; 7860,656;39,54603
 511,46; 3233,865;  281,168; 7705,462;39,77075
 512,04; 3163,749;  294,556; 7561,563;39,48245
 512,62; 3075,461;  297,476; 7390,182;39,16678
 513,21; 3005,395;  270,559; 7281,786;39,00652
 513,79; 2978,163;  287,261; 7174,266;39,07216
 514,38; 2888,419;  269,258; 7017,735;38,81114
 514,96; 2879,366;  309,026; 6896,830;39,01664
 515,54; 2789,758;  266,029; 6749,889;38,92326
 516,13; 2778,239;  289,722; 6687,469;38,89677
 516,71; 2726,540;  292,264; 6589,887;38,65388
 517,30; 2636,139;  270,884; 6474,690;38,12587
 517,88; 2633,626;  287,037; 6400,128;38,38629
 518,46; 2570,170;  272,193; 6265,460;38,34265
 519,05; 2525,274;  285,119; 6254,868;37,52511
 519,63; 2496,578;  277,425; 6157,266;37,74173
 520,22; 2484,264;  295,431; 6130,857;37,50940
 520,80; 2453,918;  283,201; 6032,793;37,75428
 521,38; 2451,145;  313,273; 6033,452;37,37421
 521,97; 2418,715;  272,204; 6011,664;37,39917
 522,55; 2398,441;  296,127; 6008,989;36,79966
 523,13; 2378,184;  271,514; 5976,031;36,92986
 523,72; 2368,966;  275,039; 5929,744;37,02981
 524,30; 2409,112;  291,748; 6092,584;36,50101
 524,89; 2374,292;  268,589; 6071,062;36,28975
 525,47; 2421,463;  293,903; 6227,440;35,85652
 526,05; 2429,804;  256,673; 6214,988;36,47224
 526,64; 2488,320;  287,521; 6357,844;36,25505
 527,22; 2499,854;  287,672; 6460,368;35,83818
 527,80; 2562,688;  324,213; 6604,839;35,64095
 528,39; 2553,767;  274,984; 6715,741;35,38066
 528,97; 2625,646;  278,983; 6864,500;35,63369
 529,55; 2672,290;  298,206; 7037,429;35,22785
 530,14; 2724,981;  313,063; 7222,063;34,90980
 530,72; 2747,318;  277,368; 7295,143;35,19563
 531,30; 2768,789;  266,140; 7458,538;34,79575
 531,89; 2845,222;  281,063; 7506,909;35,48593
 532,47; 2855,086;  303,373; 7640,095;34,78001
 533,05; 2862,477;  310,674; 7642,966;34,80226
 533,63; 2867,623;  310,450; 7723,933;34,49354
 534,22; 2865,819;  281,604; 7736,069;34,66668
 534,80; 2910,730;  302,224; 7817,098;34,71124
 535,38; 2968,794;  379,603; 7920,919;34,33341
 535,97; 2869,479;  302,911; 7851,136;34,00226
 536,55; 2942,860;  342,609; 7903,464;34,39096
 537,13; 2904,695;  344,602; 7915,149;33,81650
 537,71; 2932,580;  390,524; 7936,904;33,68576
 538,30; 2945,082;  411,221; 7997,454;33,40078
 538,88; 2980,211;  433,613; 8097,955;33,22658
 539,46; 3064,918;  483,147; 8248,347;33,24797
 540,05; 3106,376;  484,919; 8436,397;32,96817
 540,63; 3166,245;  542,073; 8586,407;32,62137
 541,21; 3222,389;  568,153; 8713,838;32,58456
 541,79; 3267,591;  600,306; 8824,516;32,43211
 542,38; 3306,645;  618,995; 8987,999;32,11433
 542,96; 3358,839;  628,618; 9148,952;32,04359
 543,54; 3432,748;  653,844; 9286,792;32,18952
 544,12; 3421,652;  618,615; 9462,232;31,69560
 544,70; 3411,471;  604,541; 9489,803;31,59085
 545,29; 3505,254;  621,457; 9683,995;31,82108
 545,87; 3464,283;  601,076; 9702,978;31,45724
 546,45; 3424,825;  563,303; 9707,976;31,29168
 547,03; 3450,553;  533,690; 9844,050;31,32923
 547,62; 3489,203;  499,922; 9919,010;31,73641
 548,20; 3518,968;  507,848;10109,599;31,36012
 548,78; 3497,707;  493,242;10212,807;30,91152
 549,36; 3568,848;  448,625;10466,078;31,14786
 549,94; 3541,281;  411,385;10538,653;30,90563
 550,53; 3601,257;  423,547;10756,874;30,75206
 551,11; 3625,488;  370,859;10961,450;30,73132
 551,69; 3733,196;  407,702;11206,177;30,79596
 552,27; 3755,978;  352,699;11492,560;30,55047
 552,85; 3861,662;  369,628;11826,346;30,48023
 553,44; 3923,586;  367,163;12148,182;30,18774
 554,02; 4052,330;  380,473;12476,694;30,35541
 554,60; 4030,820;  332,859;12759,649;29,75797
 555,18; 4193,896;  365,625;13127,756;29,99711
 555,76; 4262,345;  329,780;13420,662;30,04049
 556,34; 4355,955;  351,017;13817,492;29,74006
 556,93; 4451,115;  335,856;14229,517;29,61969
 557,51; 4522,040;  324,171;14507,995;29,59617
 558,09; 4636,996;  349,549;14943,612;29,37802
 558,67; 4714,751;  342,558;15216,516;29,39495
 559,25; 4773,243;  346,556;15550,778;29,11485
 559,83; 4833,067;  336,483;15789,653;29,09813
 560,41; 4909,828;  323,092;16174,478;28,93587
 561,00; 4998,702;  326,943;16386,222;29,09072
 561,58; 5050,686;  328,707;16655,487;28,92168
 562,16; 5099,376;  318,320;17013,663;28,63707
 562,74; 5181,065;  296,396;17318,214;28,69652
 563,32; 5326,241;  298,252;17821,087;28,69392
 563,90; 5389,688;  315,404;18016,869;28,66590
 564,48; 5485,009;  328,091;18531,080;28,33006
 565,06; 5624,817;  322,327;19063,439;28,29336
 565,65; 5781,368;  327,334;19689,917;28,16790
 566,23; 5972,437;  375,558;20453,666;27,87553
 566,81; 6102,956;  321,710;21095,828;27,82908
 567,39; 6357,612;  341,330;21918,224;27,88298
 567,97; 6461,926;  341,480;22531,498;27,58198
 568,55; 6696,742;  359,867;23323,187;27,59564
 569,13; 6852,753;  333,481;24002,245;27,54378
 569,71; 7062,012;  324,474;24872,097;27,44680
 570,29; 7340,352;  358,164;25814,137;27,42849
 570,87; 7500,782;  368,781;26537,798;27,25361
 571,45; 7607,714;  342,635;27183,770;27,06696
 572,03; 7668,499;  300,639;27554,735;27,03396
 572,61; 7857,056;  311,637;28244,730;27,01247
 573,20; 7992,923;  336,478;28867,741;26,83528
 573,78; 8150,486;  324,483;29473,440;26,84831
 574,36; 8254,345;  336,020;29955,227;26,73375
 574,94; 8355,156;  387,332;30221,709;26,70686
 575,52; 8328,034;  334,800;30519,363;26,48120
 576,10; 8530,704;  393,643;31051,027;26,54193
 576,68; 8616,995;  373,331;31590,523;26,40745
 577,26; 8782,420;  395,648;32219,264;26,35393
 577,84; 8897,683;  384,944;32701,354;26,34185
 578,42; 8963,083;  432,334;32989,696;26,20221
 579,00; 8853,884;  404,945;33091,486;25,84837
 579,58; 8950,843;  423,332;33313,166;25,92750
 580,16; 8900,389;  391,027;33381,918;25,79307
 580,74; 8943,665;  406,027;33585,090;25,73200
 581,32; 8872,463;  417,333;33604,008;25,47748
 581,90; 8834,472;  425,335;33548,076;25,38781
 582,48; 8883,172;  413,566;33656,655;25,47780
 583,06; 8873,403;  411,333;33839,560;25,31415
 583,64; 8844,820;  418,025;33903,926;25,16520
 584,22; 8781,992;  419,801;33839,408;25,02181
 584,80; 8654,860;  425,026;33540,583;24,85187
 585,38; 8526,442;  428,632;33187,547;24,71941
 585,96; 8489,037;  406,869;33269,862;24,59352
 586,54; 8467,922;  430,261;33246,960;24,49260
 587,12; 8440,461;  408,182;33454,480;24,30614
 587,70; 8484,389;  433,869;33560,957;24,30193
 588,28; 8431,635;  409,798;33529,683;24,22061
 588,86; 8405,622;  419,106;33701,435;23,99626
 589,44; 8380,305;  389,343;33742,989;23,95829
 590,02; 8386,148;  397,418;33900,772;23,84457
 590,59; 8385,005;  388,800;34199,272;23,65009
 591,17; 8437,604;  390,811;34342,698;23,70058
 591,75; 8407,649;  378,807;34546,755;23,49817
 592,33; 8413,666;  391,575;34748,049;23,34958
 592,91; 8420,629;  344,501;34957,186;23,33286
 593,49; 8512,753;  363,812;35243,029;23,36331
 594,07; 8515,297;  372,427;35410,649;23,23996
 594,65; 8454,471;  371,493;35541,806;22,98239
 595,23; 8566,895;  374,572;35871,224;23,07914
 595,81; 8535,163;  366,727;36060,152;22,88499
 596,39; 8470,180;  352,497;36102,388;22,70687
 596,97; 8508,062;  358,348;36275,942;22,69003
 597,55; 8463,817;  350,109;36228,427;22,61451
 598,12; 8365,175;  333,506;36206,265;22,38933
 598,70; 8391,251;  336,272;36297,603;22,39900
 599,28; 8413,909;  361,656;36481,585;22,29310
 599,86; 8391,186;  339,964;36528,996;22,24769
 600,44; 8319,589;  314,196;36605,336;22,05881
 601,02; 8357,188;  361,972;36613,493;22,05484
 601,60; 8289,028;  345,499;36636,597;21,88837
 602,18; 8195,159;  310,351;36629,645;21,70969
 602,75; 8202,118;  326,958;36769,442;21,60983
 603,33; 8172,322;  342,580;36700,829;21,53498
 603,91; 8139,024;  325,739;36749,705;21,45094
 604,49; 8167,066;  349,657;36829,390;21,42946
 605,07; 8133,208;  361,961;36747,728;21,35793
 605,65; 8088,271;  370,427;36948,287;21,09977
 606,23; 8097,616;  418,491;37003,123;20,99003
 606,80; 8096,475;  451,419;37042,736;20,89309
 607,38; 8048,150;  496,815;37068,931;20,64779
 607,96; 8073,481;  550,265;37193,740;20,53085
 608,54; 8059,474;  623,197;37343,812;20,25096
 609,12; 8061,209;  601,265;37328,564;20,31171
 609,70; 8019,842;  631,271;37391,326;20,09946
 610,27; 7993,148;  637,957;37369,310;20,02429
 610,85; 7990,854;  647,117;37386,874;19,98853
 611,43; 7915,006;  663,272;37349,865;19,76672
 612,01; 7856,462;  627,345;37196,823;19,76817
 612,59; 7775,520;  638,271;37217,589;19,51171
 613,16; 7714,636;  582,493;37202,730;19,47596
 613,74; 7638,365;  564,118;36960,734;19,43655
 614,32; 7590,356;  534,274;37031,328;19,33329
 614,90; 7598,138;  486,269;36996,222;19,47926
 615,48; 7447,831;  443,879;36661,088;19,33874
 616,05; 7387,939;  419,492;36538,349;19,29310
 616,63; 7337,816;  418,414;36408,303;19,22596
 617,21; 7317,518;  406,188;36243,034;19,28554
 617,79; 7278,083;  400,113;36207,646;19,20817
 618,36; 7171,256;  400,807;36141,484;18,94326
 618,94; 7087,995;  355,110;35816,011;18,98679
 619,52; 7061,037;  371,568;35555,715;19,01274
 620,10; 6983,588;  361,266;35510,329;18,84068
 620,67; 6944,012;  353,106;35350,978;18,83231
 621,25; 6893,322;  391,576;35283,321;18,63405
 621,83; 6839,702;  377,495;35226,056;18,54368
 622,41; 6862,945;  402,802;35248,219;18,53943
 622,98; 6749,437;  376,567;34965,693;18,42449
 623,56; 6753,111;  370,413;34934,959;18,46603
 624,14; 6693,046;  345,655;34873,475;18,38341
 624,72; 6641,107;  359,956;34724,029;18,27825
 625,29; 6612,000;  340,336;34810,633;18,19440
 625,87; 6619,188;  384,882;34749,813;18,14148
 626,45; 6493,146;  343,181;34525,601;17,99160
 627,02; 6508,219;  336,575;34534,094;18,04705
 627,60; 6471,287;  334,042;34503,033;17,96145
 628,18; 6444,286;  316,650;34596,333;17,87542
 628,76; 6443,328;  319,029;34477,326;17,92917
 629,33; 6420,832;  341,493;34608,866;17,74090
 629,91; 6376,050;  328,727;34513,405;17,69015
 630,49; 6416,176;  357,492;34703,431;17,64017
 631,06; 6375,388;  346,645;34822,236;17,48699
 631,64; 6371,576;  344,105;34795,927;17,49536
 632,22; 6312,169;  302,333;34674,668;17,48451
 632,79; 6359,596;  337,179;34932,727;17,40807
 633,37; 6338,163;  308,268;35081,633;17,34056
 633,95; 6325,893;  312,873;35154,515;17,25814
 634,52; 6295,882;  303,264;35155,341;17,19444
 635,10; 6292,102;  315,342;35165,206;17,15002
 635,68; 6294,260;  308,333;35389,252;17,06320
 636,25; 6264,818;  294,253;35448,178;16,98406
 636,83; 6273,790;  288,491;35544,711;16,97658
 637,41; 6276,911;  303,640;35600,279;16,92306
 637,98; 6288,433;  320,947;35814,966;16,81265
 638,56; 6287,999;  318,560;35945,395;16,75546
 639,13; 6266,771;  288,413;36018,054;16,73221
 639,71; 6327,766;  336,799;36116,155;16,74420
 640,29; 6213,468;  275,722;35932,263;16,65261
 640,86; 6199,859;  289,876;36046,680;16,52827
 641,44; 6175,557;  287,184;36145,559;16,42119
 642,02; 6183,947;  316,031;36102,207;16,39716
 642,59; 6211,030;  286,800;36201,778;16,49515
 643,17; 6120,343;  284,262;36188,964;16,25436
 643,74; 6136,810;  285,262;36268,612;16,26182
 644,32; 6108,277;  320,724;36109,722;16,17132
 644,89; 6107,668;  303,109;36230,908;16,15618
 645,47; 6102,827;  327,570;36267,249;16,06931
 646,05; 6061,141;  307,032;36099,435;16,07634
 646,62; 6021,223;  303,417;36126,006;15,96146
 647,20; 6048,460;  304,955;36299,885;15,95643
 647,77; 5976,388;  281,340;36181,610;15,86353
 648,35; 5932,933;  282,340;36031,027;15,80643
 648,92; 5956,400;  302,033;36023,213;15,82917
 649,50; 5919,867;  269,418;35979,861;15,82296
 650,08; 5855,950;  273,264;35934,278;15,65487
 650,65; 5898,417;  286,649;36071,542;15,68195
 651,23; 5942,423;  259,418;36797,190;15,55378
 651,80; 6131,736;  273,034;37706,684;15,65090
 652,38; 6202,665;  280,880;38139,101;15,64200
 652,95; 6184,824;  256,650;38478,288;15,51000
 653,53; 6229,753;  290,957;38647,705;15,48305
 654,10; 6257,989;  308,650;38793,045;15,45910
 654,68; 6232,841;  263,804;38745,924;15,51120
 655,25; 6223,001;  261,035;38866,264;15,44342
 655,83; 6197,930;  254,881;38796,527;15,41981
 656,40; 6236,704;  288,728;38775,175;15,45473
 656,98; 6149,941;  280,035;38723,439;15,26895
 657,55; 6152,100;  284,959;38603,702;15,31141
 658,13; 6081,029;  274,882;38225,119;15,29937
 658,70; 6046,881;  294,421;38008,921;15,25265
 659,28; 5870,117;  281,036;37203,800;15,13722
 659,85; 5748,585;  288,421;36546,217;15,05928
 660,43; 5748,744;  287,190;36580,326;15,04845
 661,00; 5705,288;  273,191;36600,513;14,95320
 661,58; 5766,986;  259,037;36930,315;15,01979
 662,15; 5752,761;  261,268;37059,809;14,92313
 662,73; 5829,613;  330,114;37450,303;14,81539
 663,30; 5808,850;  284,884;37642,566;14,78669
 663,88; 5824,548;  281,499;37775,522;14,78382
 664,45; 5837,399;  264,653;37989,016;14,77227
 665,03; 5842,559;  280,192;38369,664;14,60342
 665,60; 5977,565;  342,731;38712,697;14,68553
 666,17; 5918,493;  269,577;38963,498;14,59898
 666,75; 5938,807;  277,885;39193,300;14,54673
 667,32; 6025,736;  298,500;39501,410;14,60921
 667,90; 6019,203;  282,808;39824,135;14,50734
 668,47; 6067,824;  298,962;40057,936;14,50958
 669,05; 6064,291;  267,193;40368,431;14,45616
 669,62; 6041,604;  263,270;40476,002;14,36941
 670,19; 6043,841;  265,117;40489,034;14,36639
 670,77; 6089,462;  273,040;40708,221;14,38456
 671,34; 6056,468;  272,040;40646,945;14,32679
 671,92; 6109,166;  260,348;40975,670;14,36515
 672,49; 6110,171;  288,887;40984,472;14,30446
 673,06; 6108,869;  239,194;41020,889;14,39292
 673,64; 6099,798;  259,348;40975,384;14,34435
 674,21; 6090,650;  244,272;40878,262;14,38790
 674,79; 6097,425;  277,272;41107,910;14,25438
 675,36; 6155,507;  271,811;41332,789;14,32917
 675,93; 6092,052;  266,580;41196,591;14,23276
 676,51; 6150,057;  276,042;41291,239;14,32156
 677,08; 6149,063;  271,888;41303,425;14,32356
 677,65; 6127,838;  274,350;41575,765;14,17261
 678,23; 6174,459;  275,350;41699,183;14,24086
 678,80; 6146,311;  264,889;41816,446;14,15452
 679,38; 6183,086;  272,581;41934,940;14,18668
 679,95; 6208,630;  273,735;42229,203;14,14570
 680,52; 6235,251;  254,735;42469,236;14,16697
 681,10; 6294,872;  286,582;42845,038;14,11774
 681,67; 6362,954;  276,197;43167,378;14,19116
 682,24; 6325,499;  244,120;43218,641;14,15112
 682,82; 6410,427;  259,198;43650,136;14,17630
 683,39; 6493,356;  305,198;44126,476;14,12136
 683,96; 6486,670;  260,890;44416,508;14,09963
 684,54; 6516,752;  248,275;44647,849;14,11833
 685,11; 6600,989;  288,891;45080,189;14,09224
 685,68; 6643,379;  259,737;45505,683;14,10876
 686,25; 6600,000;  253,891;45493,254;14,02785
 686,83; 6609,006;  255,353;45595,902;14,01318
 687,40; 6704,704;  245,122;45986,781;14,12188
 687,97; 6783,940;  279,353;46290,660;14,13693
 688,55; 6756,638;  233,507;46388,154;14,13321
 689,12; 6762,721;  220,892;46656,186;14,08805
 689,69; 6798,188;  246,661;46700,219;14,10339
 690,26; 6804,194;  259,431;46831,175;14,05308
 690,84; 6822,738;  248,046;46930,976;14,08372
 691,41; 6838,282;  258,354;47117,394;14,04196
 691,98; 6885,288;  264,662;47402,734;14,04518
 692,56; 6861,062;  245,893;47390,151;14,03176
 693,13; 6935,299;  306,585;47524,261;14,03863
 693,70; 6950,997;  274,740;47710,293;14,07437
 694,27; 6912,849;  259,201;47691,249;14,02775
 694,84; 6928,239;  257,663;47787,512;14,03450
 695,42; 7027,168;  306,279;47990,083;14,09470
 695,99; 7012,558;  268,202;48091,423;14,10268
 696,56; 7016,948;  259,202;47901,533;14,18433
 697,13; 7083,416;  283,818;48316,873;14,15608
 697,71; 7072,806;  250,433;48281,906;14,20396
 698,28; 7115,350;  255,587;48762,554;14,14181
 698,85; 7087,510;  229,433;48669,356;14,15790
 699,42; 7184,823;  247,357;48942,234;14,24681
 699,99; 7221,906;  279,818;49011,575;14,24551
 700,57; 7198,142;  276,049;49137,530;14,16677
 701,14; 7199,609;  254,742;49199,563;14,18918
 701,71; 7244,230;  276,973;49379,903;14,18909
 702,28; 7247,467;  253,588;49444,320;14,21788
 702,85; 7267,165;  275,742;49471,891;14,21132
 703,43; 7322,478;  276,050;49719,462;14,25150
 704,00; 7360,022;  302,743;49973,341;14,20816
 704,57; 7343,720;  275,512;49841,528;14,26019
 705,14; 7426,111;  300,897;50155,406;14,29201
 705,71; 7422,270;  304,666;50224,593;14,25804
 706,28; 7404,891;  271,590;50096,471;14,31675
 706,86; 7452,281;  309,590;50401,042;14,25930
 707,43; 7459,518;  315,821;50199,460;14,32072
 708,00; 7472,524;  313,206;50366,108;14,30350
 708,57; 7424,298;  276,514;50116,448;14,34148
 709,14; 7525,381;  312,283;50349,480;14,41547
 709,71; 7499,771;  282,437;50452,975;14,38560
 710,28; 7540,469;  284,514;50610,315;14,41796
 710,86; 7567,321;  280,360;50807,424;14,42190
 711,43; 7647,404;  300,361;50821,303;14,54257
 712,00; 7615,563;  278,130;50854,797;14,50755
 712,57; 7646,646;  290,822;51041,138;14,49414
 713,14; 7631,882;  282,900;51058,247;14,47353
 713,71; 7608,119;  283,515;50962,741;14,45287
 714,28; 7634,817;  271,285;51130,928;14,47814
 714,85; 7617,746;  256,746;50794,422;14,56537
 715,42; 7638,828;  266,823;51029,454;14,52250
 716,00; 7731,295;  330,593;51161,718;14,55939
 716,57; 7696,609;  276,208;51267,596;14,55226
 717,14; 7691,922;  254,978;51170,629;14,60640
 717,71; 7651,697;  256,978;51169,354;14,52440
 718,28; 7742,395;  291,440;51281,540;14,61255
 718,85; 7731,247;  262,209;51392,881;14,60774
 719,42; 7810,791;  274,055;51565,528;14,69393
 719,99; 7761,028;  253,594;51311,792;14,70368
 720,56; 7831,495;  273,748;51540,055;14,74213
 721,13; 7834,424;  255,210;51662,395;14,74349
 721,70; 7852,814;  251,518;51575,120;14,81053
 722,27; 7903,512;  281,826;51535,614;14,87048
 722,84; 7982,825;  320,287;51824,109;14,87761
 723,41; 7939,139;  250,980;51763,526;14,92483
 723,98; 7998,144;  264,057;51941,712;14,96602
 724,55; 8015,381;  294,211;52020,591;14,92695
 725,12; 7966,002;  221,980;51970,547;14,96471
 725,69; 8060,007;  256,519;52128,810;15,04365
 726,27; 8098,321;  262,288;52323,150;15,05168
 726,84; 8178,173;  267,827;52586,029;15,11968
 727,41; 8214,563;  279,212;52455,908;15,20861
 727,98; 8264,261;  282,520;52857,940;15,18151
 728,55; 8273,190;  310,212;52659,665;15,21120
 729,12; 8251,965;  249,905;52843,236;15,21497
 729,69; 8324,432;  284,905;52926,269;15,27226
 730,26; 8379,361;  276,520;53246,378;15,29708
 730,82; 8397,289;  271,521;52987,257;15,41431
 731,39; 8413,833;  273,829;53171,674;15,38816
 731,96; 8502,301;  250,598;53441,553;15,51336
 732,53; 8526,076;  281,367;53628,201;15,45492
 733,10; 8574,697;  277,675;53780,464;15,50764
 733,67; 8604,318;  282,675;54098,881;15,46308
 734,24; 8556,554;  250,368;53675,299;15,54740
 734,81; 8666,406;  293,753;53745,485;15,66395
 735,38; 8617,181;  269,676;53564,825;15,66279
 735,95; 8555,033;  270,984;53488,396;15,56643
 736,52; 8670,808;  277,599;53567,737;15,75002
 737,09; 8588,967;  286,830;53248,231;15,67583
 737,66; 8657,665;  328,984;53397,802;15,69411
 738,23; 8642,286;  260,292;53471,681;15,75226
 738,80; 8751,907;  323,908;53647,098;15,80551
 739,37; 8753,990;  304,600;53820,438;15,78858
 739,94; 8776,303;  268,524;53940,778;15,85136
 740,51; 8897,155;  370,062;54021,811;15,89341
 741,07; 8851,853;  265,909;53938,151;15,99699
 741,64; 8899,090;  303,447;54118,722;15,97250
 742,21; 8906,095;  274,371;54163,524;16,01755
 742,78; 8903,563;  251,832;53895,557;16,12813
 743,35; 8960,799;  276,525;54296,205;16,07613
 743,92; 9039,420;  303,371;54395,545;16,15030
 744,49; 9046,887;  296,371;54259,424;16,21575
 745,06; 9044,662;  260,448;54244,995;16,27172
 745,63; 9088,668;  257,833;54258,489;16,35320
 746,19; 9124,366;  253,910;54199,598;16,44331
 746,76; 9135,372;  267,449;54300,708;16,41197
 747,33; 9209,608;  256,834;54269,202;16,57542
 747,90; 9254,537;  290,218;54494,542;16,53801
 748,47; 9276,850;  286,296;54398,267;16,61472
 749,04; 9311,163;  285,834;54390,761;16,68116
 749,61; 9329,554;  300,681;54390,332;16,69242
 750,17; 9381,559;  283,219;54278,903;16,85012
 750,74; 9398,488;  277,758;54366,013;16,86268
 751,31; 9365,725;  257,527;54280,276;16,85993
 751,88; 9373,807;  248,527;54092,770;16,94755
 752,45; 9453,736;  261,297;54257,187;17,02433
 753,02; 9459,357;  275,836;54152,451;17,04547
 753,58; 9482,978;  256,066;54139,868;17,12372
 754,15; 9517,368;  262,297;54172,824;17,16747
 754,72; 9473,297;  251,221;53984,087;17,16282
 755,29; 9509,841;  251,144;53900,812;17,25770
 755,86; 9530,078;  272,144;54022,537;17,22394
 756,42; 9573,622;  277,606;53864,262;17,34763
 756,99; 9538,320;  232,837;53793,294;17,37379
 757,56; 9545,249;  241,299;53789,250;17,37499
 758,13; 9591,947;  203,837;53655,513;17,56373
 758,70; 9664,568;  227,837;53819,007;17,60874
 759,26; 9658,497;  223,761;53796,040;17,61123
 759,83; 9710,195;  227,145;53898,996;17,66857
 760,40; 9686,431;  220,607;53773,490;17,67566
 760,97; 9737,667;  206,684;53734,215;17,80576
 761,53; 9741,212;  194,838;53477,093;17,91661
 762,10; 9771,679;  198,300;53415,434;17,98928
 762,67; 9834,223;  239,685;53413,312;18,04379
 763,24; 9741,229;  188,685;53015,883;18,08262
 763,80; 9810,619;  221,608;53123,762;18,12594
 764,37; 9828,317;  231,301;53059,487;18,16647
 764,94; 9733,707;  206,916;52664,135;18,16107
 765,50; 9789,559;  206,455;52671,552;18,26567
 766,07; 9865,180;  246,763;52760,123;18,31613
 766,64; 9818,186;  230,071;52480,002;18,35048
 767,21; 9856,422;  234,917;52422,573;18,43636
 767,77; 9849,582;  247,533;52276,298;18,45527
 768,34; 9903,203;  249,225;52155,792;18,59876
 768,91; 9945,978;  259,764;52043,286;18,70520
 769,47; 9992,368;  251,225;52139,242;18,77340
 770,04; 9991,758;  264,687;51952,813;18,81877
 770,61;10000,533;  236,841;51735,307;18,95919
 771,18; 9977,462;  234,226;51612,032;18,96390
 771,74;10073,929;  250,303;51738,449;19,07939
 772,31;10029,627;  248,842;51466,020;19,09669
 772,88;10023,171;  233,227;51263,130;19,18472
 773,44;10004,716;  233,842;51122,008;19,20068
 774,01;10060,029;  251,996;51224,656;19,24175
 774,58;10088,650;  233,996;50888,304;19,45472
 775,14;10151,271;  235,458;51025,260;19,52324
 775,71;10127,277;  237,843;50967,216;19,49449
 776,27;10258,898;  292,535;50793,171;19,73512
 776,84;10333,211;  312,382;50826,204;19,83780
 777,41;10289,371;  250,843;50707,313;19,89542
 777,97;10314,069;  232,844;50352,654;20,11425
 778,54;10288,997;  253,921;50504,686;19,97000
 779,11;10371,619;  277,613;50507,103;20,09577
 779,67;10380,393;  232,152;50429,597;20,21665
 780,24;10384,630;  245,075;50142,399;20,32084
 780,80;10479,943;  256,229;50187,355;20,47563
 781,37;10486,103;  259,922;50234,541;20,46275
 781,94;10461,416;  245,076;49895,805;20,57642
 782,50;10573,114;  255,307;49874,453;20,79400
 783,07;10606,428;  282,307;49903,716;20,80578
 783,63;10591,202;  245,615;49698,749;20,91998
 784,20;10643,747;  270,230;49693,858;20,98898
 784,77;10647,214;  254,307;49472,121;21,11615
 785,33;10678,835;  235,615;49215,231;21,32156
 785,90;10716,917;  250,615;49152,110;21,40283
 786,46;10704,923;  271,154;49195,912;21,32615
 787,03;10750,237;  238,770;48977,790;21,56684
 787,59;10706,319;  242,077;48896,284;21,50737
 788,16;10771,709;  267,539;48776,009;21,65430
 788,73;10807,869;  254,847;48713,196;21,77751
 789,29;10748,721;  256,155;48378,921;21,80375
 789,86;10811,573;  269,924;48267,876;21,96270
 790,42;10787,501;  253,078;48128,601;22,00378
 790,99;10762,507;  267,079;47734,018;22,11103
 791,55;10786,436;  245,079;47775,589;22,17808
 792,12;10819,365;  269,464;47799,622;22,19623
 792,68;10767,986;  252,848;47445,578;22,28127
 793,25;10763,222;  266,772;47228,072;22,35128
 793,81;10773,305;  308,233;46888,720;22,46664
 794,38;10675,849;  230,157;46650,829;22,50224
 794,94;10729,085;  245,080;46508,323;22,66163
 795,51;10763,706;  261,465;46316,664;22,80360
 796,07;10685,712;  248,849;46133,619;22,74581
 796,64;10846,025;  262,773;46243,421;23,01675
 797,20;10734,723;  265,081;45729,300;23,02831
 797,77;10653,191;  228,158;45376,871;23,09043
 798,33;10664,966;  257,004;45163,673;23,17687
 798,90;10728,971;  268,697;45148,398;23,30736
 799,46;10710,592;  256,235;44629,276;23,56015
 800,03;10700,521;  256,851;44571,155;23,56727
 800,59;10721,527;  266,697;44501,495;23,63485
 801,15;10717,686;  273,620;44183,528;23,78521
 801,72;10629,769;  259,159;43876,099;23,77656
 802,28;10686,851;  284,236;43500,362;24,07114
 802,85;10622,242;  258,698;43368,626;24,03981
 803,41;10647,094;  250,160;43170,274;24,22392
 803,98;10627,176;  243,621;42748,537;24,42907
 804,54;10577,490;  257,775;42586,416;24,37998
 805,11;10637,341;  258,545;42401,987;24,62731
 805,67;10640,116;  274,006;42356,865;24,63262
 806,23;10575,045;  260,930;41943,898;24,74420
 806,80;10593,205;  271,161;41774,315;24,87050
 807,36;10647,287;  281,238;41802,194;24,96583
 807,93;10639,601;  275,238;41561,380;25,10373
 808,49;10570,222;  241,623;41136,336;25,25656
 809,05;10605,227;  241,392;40972,599;25,44446
 809,62;10625,541;  273,931;40869,940;25,49908
 810,18;10700,393;  263,316;40773,434;25,76412
 810,74;10562,398;  234,393;40609,159;25,58035
 811,31;10571,481;  241,162;40391,191;25,72929
 811,87;10615,333;  257,624;40249,378;25,89961
 812,44;10670,954;  270,932;40269,949;26,00069
 813,00;10546,652;  209,701;39929,212;26,02487
 813,56;10652,811;  256,624;39986,168;26,16740
 814,13;10653,048;  254,163;39874,354;26,24643
 814,69;10667,669;  253,856;39692,387;26,40518
 815,25;10587,751;  227,394;39385,189;26,45797
 815,82;10639,834;  272,856;39304,990;26,56011
 816,38;10710,301;  288,471;39091,408;26,85835
 816,94;10547,153;  241,395;38855,286;26,68925
 817,51;10544,851;  227,010;38595,627;26,89135
 818,07;10524,088;  243,318;38236,967;27,05918
 818,63;10568,786;  251,626;38140,384;27,23013
 819,20;10623,945;  244,934;38040,570;27,46087
 819,76;10562,258;  231,857;37597,988;27,64643
 820,32;10566,187;  268,627;37624,559;27,56607
 820,89;10472,885;  271,858;37278,899;27,56510
 821,45;10434,045;  238,165;37109,085;27,65290
 822,01;10465,050;  257,781;36866,580;27,88201
 822,57;10463,671;  260,627;36712,612;27,99037
 823,14;10421,369;  226,089;36450,029;28,14514
 823,70;10419,914;  238,474;36210,677;28,30363
 824,26;10408,073;  233,705;36074,402;28,38775
 824,82;10399,617;  256,397;35884,127;28,47001
 825,39;10380,161;  236,090;35603,467;28,68200
 825,95;10423,167;  262,398;35685,885;28,68371
 826,51;10382,019;  251,859;35262,225;28,93474
 827,08;10497,794;  280,783;35397,257;29,09464
 827,64;10439,646;  265,091;35188,598;29,13383
 828,20;10386,959;  236,552;34838,015;29,33520
 828,76;10440,580;  270,937;34834,509;29,42301
 829,32;10403,586;  273,860;34666,465;29,45321
 829,89;10413,438;  232,014;34585,728;29,63704
 830,45;10481,520;  250,245;34491,068;29,88034
 831,01;10411,141;  245,322;34326,101;29,82860
 831,57;10426,993;  239,169;34258,057;29,94755
 832,14;10462,460;  245,630;34191,012;30,09785
 832,70;10429,774;  229,938;34120,583;30,09632
 833,26;10425,241;  207,246;33905,308;30,32220
 833,82;10494,324;  238,323;33893,571;30,47370
 834,38;10538,252;  238,554;33813,835;30,67643
 834,95;10537,335;  234,939;33669,329;30,81377
 835,51;10540,571;  204,247;33551,285;30,99623
 836,07;10583,577;  236,863;33623,317;30,99076
 836,63;10681,352;  260,786;33606,657;31,24994
 837,19;10651,588;  247,863;33456,613;31,32827
 837,75;10584,748;  210,555;33150,646;31,49412
 838,32;10697,369;  261,940;33228,678;31,65442
 838,88;10768,298;  249,325;33241,711;31,88303
 839,44;10704,227;  247,787;33182,590;31,74891
 840,00;10769,617;  247,633;33188,853;31,94169
 840,56;10686,007;  230,095;32812,039;32,09112
 841,12;10779,013;  231,249;32823,764;32,36253
 841,68;10691,480;  201,864;32647,874;32,32945
 842,25;10799,178;  233,326;32675,214;32,56855
 842,81;10765,876;  216,865;32375,862;32,80267
 843,37;10799,036;  203,326;32457,818;32,85034
 843,93;10809,580;  219,019;32301,235;33,01069
 844,49;10979,662;  236,327;32407,114;33,39469
 845,05;10845,745;  202,481;32140,223;33,32504
 845,61;10954,981;  240,712;32194,333;33,53069
 846,17;10913,756;  222,558;32115,442;33,52221
 846,73;10905,531;  241,558;31954,705;33,62635
 847,29;10930,768;  217,558;31844,969;33,87318
 847,86;10954,235;  224,405;31739,848;34,04626
 848,42;10902,317;  217,251;31625,419;34,02002
 848,98;10940,785;  236,174;31507,528;34,23136
 849,54;10965,560;  221,944;31605,176;34,23362
 850,10;10972,873;  239,713;31471,439;34,36621
 850,66;10891,494;  209,329;31321,164;34,33473
 851,22;10904,423;  212,406;31243,735;34,45556
 851,78;11016,967;  258,945;31300,537;34,65680
 852,34;10937,050;  238,945;31069,031;34,70021
 852,90;11001,209;  223,406;30879,756;35,15684
 853,46;10970,984;  207,022;30728,712;35,26660
 854,02;10987,220;  230,561;30788,667;35,20067
 854,58;10892,611;  227,715;30500,315;35,22953
 855,14;10913,770;  213,023;30355,040;35,50110
 855,70;10965,161;  195,792;30256,227;35,82572
 856,26;10975,320;  236,485;30235,336;35,79749
 856,82;10904,018;  216,869;30076,369;35,79145
 857,38;10932,408;  251,639;29990,401;35,91531
 857,94;10937,029;  217,870;29903,972;36,10834
 858,50;10915,343;  237,485;29723,774;36,21296
 859,06;10917,425;  221,562;29591,422;36,41782
 859,62;10917,046;  232,716;29511,224;36,49206
 860,18;10888,744;  230,178;29303,103;36,66149
 860,74;10864,212;  202,486;29158,597;36,82030
 861,30;10842,294;  208,794;29032,706;36,89125
 861,86;10929,377;  256,794;29131,739;36,96140
 862,42;10899,613;  226,948;28895,002;37,22843
 862,98;10959,081;  257,641;28947,496;37,30043
 863,54;10897,471;  230,948;28754,067;37,39606
 864,10;10896,323;  217,564;28841,331;37,30731
 864,66;10863,405;  206,410;28451,594;37,73031
 865,22;10906,257;  221,026;28344,165;37,99445
 865,78;10921,878;  228,565;28329,044;38,05385
 866,34;10904,576;  204,411;28194,923;38,22783
 866,90;10932,043;  231,411;28029,186;38,49456
 867,45;10901,818;  226,180;27833,834;38,66912
 868,01;10915,516;  232,335;27762,097;38,80593
 868,57;10853,445;  226,335;27564,284;38,87311
 869,13;10919,835;  215,412;27424,547;39,34129
 869,69;10858,303;  223,720;27325,657;39,23920
 870,25;10888,231;  205,104;27248,074;39,50427
 870,81;10911,160;  214,797;27234,183;39,58774
 871,37;10930,627;  228,259;27130,062;39,78309
 871,93;10893,556;  237,951;26948,402;39,89302
 872,49;10873,639;  250,259;26770,127;40,05819
 873,04;10851,567;  205,105;26583,621;40,36035
 873,60;10850,112;  203,644;26479,423;40,51818
 874,16;10929,733;  228,798;26312,994;41,02459
 874,72;10899,579;  234,798;26265,994;40,96923
 875,28;10956,502;  225,952;26218,071;41,28386
 875,84;10924,425;  221,413;26150,840;41,27747
 876,40;10974,271;  223,260;26084,687;41,57161
 876,95;11056,656;  229,567;26084,763;41,87587
 877,51;11036,348;  254,106;26150,917;41,63540
 878,07;11111,733;  258,567;26079,302;42,03275
 878,63;11105,502;  224,490;26101,071;42,04965
 879,19;11172,271;  245,644;26162,610;42,16013
 879,75;11266,271;  215,183;26039,763;42,79291
 880,30;11262,963;  219,798;26138,302;42,60726
 880,86;11409,733;  270,183;26322,071;42,75909
 881,42;11420,040;  204,952;26312,917;42,95658
 881,98;11456,502;  234,644;26374,687;42,92976
 882,54;11594,194;  218,952;26490,456;43,29879
 883,09;11679,040;  236,644;26540,917;43,50014
 883,65;11692,040;  208,413;26670,302;43,39685
 884,21;11871,502;  251,490;26876,994;43,64241
 884,77;11840,502;  212,875;26862,302;43,63181
 885,32;11999,271;  221,798;27080,840;43,84919
 885,88;12128,733;  257,721;27137,225;44,16380
 886,44;12148,733;  234,875;27328,302;43,97324
 887,00;12229,194;  251,106;27380,533;44,15165
 887,56;12268,733;  213,413;27505,687;44,17118
 888,11;12384,656;  221,260;27419,456;44,72133
 888,67;12517,117;  261,260;27616,302;44,80292
 889,23;12532,733;  234,413;27533,687;45,04999
 889,79;12487,579;  210,260;27540,917;44,92142
 890,34;12523,733;  226,106;27470,071;45,13890
 890,90;12614,963;  294,644;27616,994;45,09246
 891,46;12596,194;  220,798;27534,533;45,30833
 892,01;12646,194;  244,644;27523,456;45,46221
 892,57;12645,887;  260,413;27453,302;45,54674
 893,13;12620,502;  229,029;27264,763;45,83368
 893,69;12704,656;  219,183;27267,533;46,15983
 894,24;12680,117;  226,567;27064,456;46,40287
 894,80;12611,040;  234,952;26923,840;46,37169
 895,36;12556,810;  236,644;26942,533;46,13277
 895,91;12497,810;  227,337;26708,610;46,33642
 896,47;12533,271;  231,183;26520,610;46,79481
 897,03;12460,963;  225,490;26411,610;46,72503
 897,58;12517,502;  231,875;26314,302;47,10308
 898,14;12452,887;  231,798;26087,994;47,26561
 898,70;12378,348;  210,952;26039,917;47,10756
 899,25;12473,579;  222,567;25972,994;47,57596
 899,81;12363,348;  241,567;25747,610;47,52513
 900,37;12280,810;  203,337;25559,994;47,63038
 900,92;12340,194;  228,029;25551,225;47,83032
 901,48;12279,502;  232,567;25357,148;47,94880
 902,03;12266,579;  230,106;25230,763;48,14463
 902,59;12219,810;  229,029;25168,456;48,07962
 903,15;12282,348;  242,721;25028,917;48,57392
 903,70;12078,733;  230,721;24732,148;48,35641
 904,26;12075,194;  220,413;24704,071;48,41916
 904,82;12101,348;  231,183;24668,533;48,57386
 905,37;12053,502;  237,490;24476,148;48,74862
 905,93;12056,733;  212,721;24354,610;49,06000
 906,48;12039,733;  234,183;24239,071;49,17977
 907,04;12102,810;  245,490;24157,302;49,58771
 907,60;11949,040;  224,567;23999,225;49,31500
 908,15;11949,963;  215,260;23918,379;49,50700
 908,71;12013,733;  234,413;23916,379;49,73962
 909,26;11976,887;  219,029;23684,071;50,10798
 909,82;11982,579;  238,413;23621,148;50,22580
 910,37;11993,271;  267,567;23505,302;50,45975
 910,93;11913,656;  208,721;23351,456;50,57715
 911,48;11912,656;  207,644;23160,302;50,99632
 912,04;11857,502;  216,567;23097,225;50,87675
 912,60;11861,040;  226,260;23162,610;50,72638
 913,15;11893,040;  230,106;22853,994;51,55141
 913,71;11798,733;  207,183;22832,379;51,23293
 914,26;11778,810;  206,490;22688,994;51,47256
 914,82;11831,117;  222,875;22636,225;51,79164
 915,37;11769,425;  226,029;22542,763;51,72529
 915,93;11768,271;  272,644;22429,302;51,88340
 916,48;11769,348;  208,952;22349,225;52,21433
 917,04;11757,425;  239,567;22178,302;52,50010
 917,59;11733,810;  240,029;22202,225;52,33439
 918,15;11638,271;  191,413;21888,763;52,75694
 918,70;11707,117;  211,644;21913,225;52,97067
 919,26;11683,887;  224,490;21790,456;53,13649
 919,81;11556,271;  210,644;21615,610;53,00465
 920,37;11551,117;  221,260;21555,071;53,10752
 920,92;11582,425;  229,875;21505,917;53,35837
 921,48;11507,040;  199,260;21192,610;53,86363
 922,03;11557,194;  213,337;21282,533;53,84096
 922,59;11490,425;  220,721;21178,225;53,77408
 923,14;11451,963;  210,644;20958,840;54,17974
 923,69;11453,271;  242,029;20983,687;54,05181
 924,25;11527,733;  241,337;20912,917;54,59861
 924,80;11467,810;  212,029;20666,917;55,02734
 925,36;11358,963;  218,183;20677,763;54,45263
 925,91;11316,579;  207,567;20433,225;54,92534
 926,47;11295,887;  197,644;20463,071;54,76441
 927,02;11321,271;  262,183;20304,302;55,17924
 927,57;11276,194;  222,260;20204,763;55,31807
 928,13;11270,348;  200,644;20080,379;55,68336
 928,68;11245,271;  219,490;20057,533;55,57898
 929,24;11209,348;  189,567;19852,994;56,04202
 929,79;11194,271;  204,644;19766,225;56,17965
 930,34;11156,271;  217,875;19599,148;56,43797
 930,90;11116,579;  208,413;19598,071;56,25765
 931,45;11156,502;  226,798;19589,687;56,44666
 932,01;11225,348;  225,875;19484,917;57,11329
 932,56;11100,579;  241,029;19277,610;57,04570
 933,11;11136,810;  236,183;19262,456;57,29250
 933,67;11028,271;  202,029;19151,994;57,13067
 934,22;11095,579;  223,644;19085,840;57,63875
 934,77;11066,425;  240,567;19040,840;57,58351
 935,33;10953,502;  224,952;18787,071;57,79809
 935,88;10937,117;  227,337;18815,687;57,61555
 936,43;10968,810;  214,644;18585,071;58,54064
 936,99;10897,040;  230,337;18601,071;58,06357
 937,54;10833,502;  210,490;18365,994;58,51125
 938,09;10829,579;  230,260;18385,763;58,38075
 938,65;10796,040;  230,567;18225,610;58,71324
 939,20;10715,810;  208,337;18174,610;58,48443
 939,75;10675,887;  207,337;18083,302;58,56215
 940,31;10634,271;  204,567;17974,148;58,69415
 940,86;10677,963;  221,798;17970,687;58,91166
 941,41;10658,502;  278,106;17849,225;59,07647
 941,96;10600,194;  214,183;17739,302;59,26357
 942,52;10511,117;  207,183;17673,225;58,99410
 943,07;10453,963;  188,567;17594,379;58,97683
 943,62;10426,194;  210,952;17491,994;59,11242
 944,18;10383,963;  200,029;17384,456;59,26258
 944,73;10447,348;  213,413;17338,687;59,75925
 945,28;10323,502;  186,337;17155,763;59,73782
 945,83;10352,887;  216,029;17138,225;59,90273
 946,39;10380,040;  206,952;17032,148;60,46342
 946,94;10314,348;  233,183;17082,763;59,83036
 947,49;10300,579;  212,798;16888,379;60,49433
 948,04;10320,117;  233,413;16788,994;60,92631
 948,59;10316,040;  234,875;16769,225;60,97104
 949,15;10240,271;  200,798;16703,917;60,83379
 949,70;10257,117;  213,490;16628,071;61,18723
 950,25;10239,656;  234,875;16506,148;61,48739
 950,80;10182,963;  175,029;16403,687;61,66828
 951,36;10120,733;  186,490;16339,148;61,50222
 951,91;10211,963;  227,106;16320,840;62,04189
 952,46;10123,425;  192,798;16107,840;62,39774
 953,01;10154,425;  225,183;16155,071;62,33090
 953,56;10067,348;  195,567;16003,687;62,44753
 954,11;10080,656;  222,106;16020,917;62,40058
 954,67;10046,963;  211,721;15927,225;62,58305
 955,22;10007,425;  193,106;15771,687;62,99880
 955,77; 9977,810;  227,567;15740,610;62,85190
 956,32; 9950,040;  253,952;15657,610;62,94666
 956,87; 9898,579;  205,029;15556,687;63,14334
 957,42; 9907,117;  209,413;15469,687;63,54869
 957,98; 9875,348;  201,106;15390,456;63,69096
 958,53; 9884,040;  233,413;15342,148;63,87449
 959,08; 9849,887;  209,798;15222,917;64,21110
 959,63; 9815,194;  199,721;15171,610;64,22352
 960,18; 9863,117;  228,952;15133,533;64,63896
 960,73; 9862,887;  210,490;15066,225;64,97421
 961,28; 9800,579;  198,798;14966,533;65,01864
 961,83; 9808,194;  229,644;14875,610;65,40061
 962,39; 9756,963;  187,106;14830,994;65,35052
 962,94; 9770,040;  223,644;14681,687;66,02828
 963,49; 9687,733;  223,029;14572,840;65,95699
 964,04; 9728,887;  228,567;14541,533;66,37562
 964,59; 9652,117;  189,644;14497,610;66,13430
 965,14; 9642,579;  219,798;14450,148;66,21609
 965,69; 9589,963;  209,567;14309,687;66,52707
 966,24; 9497,194;  208,567;14240,840;66,19474
 966,79; 9478,194;  226,413;14153,302;66,43107
 967,34; 9423,117;  195,567;14021,917;66,73887
 967,89; 9411,271;  206,260;13932,840;67,05976
 968,44; 9371,040;  217,490;13869,840;67,04743
 968,99; 9344,810;  223,183;13789,379;67,23791
 969,55; 9289,425;  220,952;13681,302;67,37175
 970,10; 9248,810;  223,490;13670,917;67,11558
 970,65; 9204,656;  237,183;13548,917;67,36517
 971,20; 9169,810;  202,875;13451,302;67,68301
 971,75; 9072,271;  183,721;13331,071;67,60716
 972,30; 9089,656;  226,798;13326,225;67,65836
 972,85; 9087,733;  199,644;13197,533;68,38102
 973,40; 9037,194;  198,490;13063,302;68,70450
 973,95; 8968,579;  217,490;13014,148;68,38574
 974,50; 8943,117;  228,337;12915,763;68,68832
 975,05; 8855,733;  216,106;12833,379;68,47460
 975,60; 8848,579;  221,875;12801,302;68,57788
 976,15; 8815,117;  219,183;12669,225;69,04342
 976,70; 8821,117;  221,567;12644,610;69,22258
 977,25; 8784,194;  224,337;12556,917;69,40849
 977,80; 8692,117;  209,952;12405,763;69,54982
 978,35; 8633,040;  226,183;12277,917;69,75641
 978,89; 8668,502;  192,798;12233,071;70,39461
 979,44; 8610,348;  221,106;12146,610;70,34707
 979,99; 8562,810;  201,413;11979,763;70,98954
 980,54; 8514,656;  232,952;11965,840;70,58538
 981,09; 8538,579;  237,029;11898,917;71,18530
 981,64; 8427,963;  221,644;11731,148;71,30037
 982,19; 8467,271;  252,183;11704,379;71,73374
 982,74; 8357,348;  226,644;11581,763;71,60386
 983,29; 8281,271;  204,413;11452,687;71,80531
 983,84; 8259,425;  221,183;11384,687;72,00465
 984,39; 8297,887;  270,413;11316,917;72,66981
 984,94; 8162,348;  196,183;11127,379;72,87551
 985,49; 8217,040;  241,260;11073,071;73,63294
 986,03; 8152,579;  239,490;11012,610;73,45216
 986,58; 8115,348;  264,260;10886,302;73,91317
 987,13; 7954,502;  222,260;10744,763;73,48291
 987,68; 7922,117;  228,106;10678,610;73,62335
 988,23; 7948,733;  235,183;10680,917;73,84402
 988,78; 7869,194;  207,029;10469,148;74,66455
 989,33; 7869,425;  244,183;10394,763;75,12124
 989,88; 7831,271;  249,721;10333,840;75,18307
 990,42; 7709,887;  214,490;10215,994;74,94269
 990,97; 7693,502;  214,029;10109,763;75,58280
 991,52; 7677,117;  240,721;10078,302;75,59172
 992,07; 7613,579;  261,106; 9958,840;75,81640
 992,62; 7538,271;  231,106; 9851,148;75,95773
 993,17; 7435,733;  240,875; 9734,533;75,78594
 993,71; 7394,502;  239,952; 9705,302;75,58675
 994,26; 7316,579;  208,952; 9585,071;75,80564
 994,81; 7318,271;  243,029; 9526,148;76,21622
 995,36; 7149,117;  217,106; 9366,225;75,76698
 995,91; 7174,733;  225,183; 9292,687;76,64237
 996,45; 7115,579;  227,183; 9195,687;76,80653
 997,00; 7034,425;  203,183; 9082,302;76,93604
 997,55; 7016,040;  228,413; 9089,687;76,59878
 998,10; 6953,271;  250,029; 8904,225;77,45656
 998,65; 6909,733;  231,798; 8834,840;77,62294
 999,19; 6848,348;  243,029; 8749,456;77,65093
 999,74; 6724,733;  234,798; 8674,533;76,89738
1000,29; 6710,425;  242,183; 8586,687;77,51500
1000,84; 6623,887;  219,413; 8432,917;77,97492
1001,38; 6576,810;  229,798; 8328,071;78,37488
1001,93; 6549,887;  239,952; 8324,379;78,05049
1002,48; 6447,271;  218,413; 8117,840;78,85202
1003,03; 6456,656;  236,798; 8113,071;78,96955
1003,57; 6402,425;  239,644; 7983,610;79,58172
1004,12; 6341,040;  261,413; 7926,917;79,31151
1004,67; 6254,579;  228,183; 7833,917;79,23490
1005,22; 6144,117;  213,567; 7710,456;79,10682
1005,76; 6077,040;  204,106; 7588,225;79,53467
1006,31; 6071,040;  245,106; 7535,225;79,91549
1006,86; 5990,194;  227,106; 7445,225;79,84197
1007,40; 5872,117;  206,260; 7318,379;79,66483
1007,95; 5840,117;  225,337; 7230,456;80,15254
1008,50; 5765,425;  243,567; 7130,379;80,18018
1009,04; 5726,656;  225,337; 7031,071;80,83358
1009,59; 5600,348;  231,875; 6879,687;80,75549
1010,14; 5585,656;  221,183; 6783,225;81,75005
1010,68; 5488,040;  225,260; 6735,225;80,84192
1011,23; 5392,425;  213,721; 6606,302;81,01116
1011,78; 5390,040;  230,029; 6518,994;82,04866
1012,32; 5329,733;  246,875; 6430,225;82,20233
1012,87; 5304,425;  245,644; 6391,840;82,30751
1013,42; 5178,963;  216,413; 6275,763;81,89905
1013,96; 5220,963;  251,337; 6292,687;82,26021
1014,51; 5184,579;  187,952; 6186,225;83,30109
1015,06; 5143,194;  203,337; 6183,225;82,60786
1015,60; 5250,348;  258,798; 6229,763;83,59703
1016,15; 5171,271;  223,952; 6194,533;82,86161
1016,69; 5226,810;  218,490; 6249,225;83,04659
1017,24; 5228,579;  204,567; 6251,071;83,08953
1017,79; 5282,733;  247,952; 6322,610;82,88172
1018,33; 5275,348;  208,798; 6294,148;83,25815
1018,88; 5304,656;  234,644; 6369,148;82,64746
1019,42; 5352,117;  213,567; 6337,917;83,90360
1019,97; 5342,733;  209,490; 6343,763;83,68135
1020,51; 5439,656;  238,337; 6399,071;84,42693
1021,06; 5354,194;  197,260; 6375,840;83,46471
1021,61; 5374,656;  183,337; 6371,302;83,89380
1022,15; 5341,425;  171,952; 6338,610;83,82942
1022,70; 5377,963;  211,337; 6305,763;84,77626
1023,24; 5302,963;  211,106; 6307,917;83,51673
1023,79; 5274,502;  225,644; 6242,610;83,91037
1024,33; 5250,887;  208,567; 6146,763;84,91332
1024,88; 5224,425;  222,875; 6127,302;84,70847
1025,42; 5153,963;  213,183; 5989,302;85,53807
1025,97; 5108,425;  208,183; 5937,610;85,52762
1026,51; 4961,194;  188,183; 5812,302;84,86683
1027,06; 4988,194;  203,106; 5776,610;85,85422
1027,60; 4902,425;  224,413; 5656,533;86,11762
1028,15; 4851,887;  228,644; 5570,071;86,55444
1028,69; 4752,348;  187,183; 5457,917;86,61346
1029,24; 4722,040;  201,029; 5413,840;86,72885
1029,78; 4672,656;  198,644; 5283,071;87,99441
1030,33; 4557,733;  192,798; 5191,148;87,32751
1030,87; 4518,040;  205,490; 5153,071;87,16482
1031,42; 4418,271;  194,721; 5033,840;87,27931
1031,96; 4408,579;  216,413; 5004,302;87,55771
1032,51; 4314,348;  192,644; 4923,840;87,11759
1033,05; 4287,271;  217,413; 4854,302;87,77131
1033,60; 4144,348;  191,260; 4731,148;87,07457
1034,14; 4147,579;  213,029; 4687,610;87,93114
1034,69; 4114,502;  201,490; 4605,379;88,85356
1035,23; 4081,194;  211,490; 4546,071;89,27516
1035,77; 3984,117;  213,875; 4543,456;87,08100
1036,32; 3905,040;  178,952; 4452,610;87,18734
1036,86; 3908,348;  213,183; 4367,456;88,94854
1037,41; 3843,425;  216,798; 4314,456;88,50488
1037,95; 3758,887;  186,260; 4246,917;87,98148
1038,50; 3731,502;  198,875; 4213,533;87,99323
1039,04; 3715,271;  216,875; 4176,763;88,34583
1039,58; 3657,194;  198,413; 4087,302;88,94009
1040,13; 3599,117;  213,721; 4031,840;88,66659
1040,67; 3595,348;  233,952; 4042,148;88,26741
1041,21; 3524,656;  235,567; 3937,840;88,83970
1041,76; 3434,117;  187,875; 3880,917;87,90157
1042,30; 3417,502;  205,952; 3822,687;88,79695
1042,85; 3369,810;  213,721; 3760,533;88,98382
1043,39; 3325,425;  195,029; 3645,917;90,71276
1043,93; 3300,502;  226,413; 3657,225;89,60237
1044,48; 3256,579;  210,567; 3598,225;89,91497
1045,02; 3217,271;  207,183; 3529,610;90,59909
1045,56; 3191,117;  227,029; 3501,225;90,52874
1046,11; 3155,040;  218,721; 3483,687;89,93416
1046,65; 3096,425;  216,875; 3398,071;90,51784
1047,19; 3044,963;  199,490; 3356,533;90,13098
1047,74; 2983,887;  194,567; 3310,225;89,52586
1048,28; 2975,425;  214,875; 3257,148;90,73972
1048,82; 2972,194;  229,875; 3236,071;91,22223
1049,37; 2913,117;  231,413; 3183,071;90,85416
1049,91; 2882,117;  220,567; 3134,533;91,33774
1050,45; 2830,963;  234,490; 3112,456;90,21905
1050,99; 2810,271;  209,952; 3043,302;91,77543
1051,54; 2751,040;  201,721; 2997,533;91,18351
1052,08; 2728,348;  235,952; 2957,610;91,57640
1052,62; 2713,887;  222,798; 2949,610;91,35536
1053,16; 2656,963;  204,875; 2872,456;91,92181
1053,71; 2665,271;  229,875; 2844,840;93,13302
1054,25; 2591,810;  218,337; 2780,456;92,63710
1054,79; 2566,502;  212,798; 2783,533;91,55764
1055,33; 2492,040;  189,337; 2702,610;91,62171
1055,88; 2518,194;  221,567; 2684,302;93,25515
1056,42; 2470,271;  231,798; 2657,148;92,29485
1056,96; 2415,810;  224,490; 2626,687;91,22149
1057,50; 2419,040;  223,567; 2588,379;92,83924
1058,05; 2368,117;  215,721; 2517,994;93,49005
1058,59; 2337,579;  237,413; 2514,533;92,22905
1059,13; 2260,271;  192,798; 2448,917;91,63847
1059,67; 2270,194;  225,413; 2413,071;93,46895
1060,21; 2227,579;  221,260; 2392,379;92,40944
1060,76; 2235,040;  231,952; 2373,610;93,52981
1061,30; 2206,579;  240,567; 2339,994;93,64515
1061,84; 2187,887;  215,875; 2290,533;95,05238
1062,38; 2112,579;  210,644; 2223,994;94,46617
1062,92; 2135,271;  251,490; 2261,533;93,71846
1063,46; 2073,348;  239,490; 2193,071;93,87161
1064,01; 2033,502;  209,798; 2161,687;93,43279
1064,55; 2026,656;  230,413; 2137,148;94,20516
1065,09; 1970,194;  198,106; 2081,148;94,10773
1065,63; 1987,194;  254,260; 2103,917;93,68948
1066,17; 1985,425;  250,337; 2071,379;95,27996
1066,71; 1961,194;  241,183; 2052,533;94,95744
1067,25; 1929,656;  221,644; 1987,840;96,70565
1067,80; 1910,348;  237,413; 1981,917;95,89744
1068,34; 1894,656;  257,337; 1969,379;95,63544
1068,88; 1835,271;  225,490; 1907,533;95,70394
1069,42; 1851,117;  254,952; 1935,840;94,95963
1069,96; 1803,348;  225,952; 1885,071;95,07431
1070,50; 1824,194;  256,798; 1878,379;96,65853
1071,04; 1768,271;  216,337; 1818,456;96,86761
1071,58; 1772,963;  219,721; 1813,763;97,44047
1072,12; 1744,425;  219,413; 1766,071;98,60046
1072,66; 1739,502;  216,260; 1775,994;97,66035
1073,21; 1725,117;  230,260; 1769,148;97,13879
1073,75; 1699,194;  232,952; 1724,071;98,33166
1074,29; 1661,963;  227,644; 1711,687;96,64948
1074,83; 1674,194;  238,029; 1710,071;97,56278
1075,37; 1649,579;  240,106; 1682,763;97,69976
1075,91; 1642,271;  240,106; 1678,687;97,46866
1076,45; 1607,810;  236,183; 1638,763;97,79308
1076,99; 1610,963;  243,260; 1613,225;99,83492
1077,53; 1572,425;  219,721; 1585,225;99,06262
1078,07; 1570,733;  233,644; 1603,225;97,62757
1078,61; 1543,887;  226,644; 1542,071;100,13801
1079,15; 1522,117;  222,337; 1536,302;98,92047
1079,69; 1511,348;  233,260; 1518,456;99,44696
1080,23; 1506,040;  244,029; 1516,456;99,18146
1080,77; 1506,963;  263,260; 1528,687;98,28334
1081,31; 1440,117;  226,029; 1467,071;97,82813
1081,85; 1453,271;  236,337; 1460,687;99,39434
1082,39; 1425,963;  224,413; 1428,763;99,76751
1082,93; 1406,963;  234,952; 1434,071;97,73937
1083,47; 1390,963;  212,567; 1393,994;99,74347
1084,01; 1388,348;  238,490; 1411,763;98,00427
1084,55; 1354,117;  225,490; 1355,456;99,88155
1085,09; 1339,810;  245,644; 1366,225;97,64271
1085,63; 1350,425;  231,106; 1337,148;101,20040
1086,17; 1330,117;  225,260; 1316,994;101,20204
1086,71; 1290,887;  219,952; 1281,302;100,90306
1087,24; 1312,810;  257,490; 1297,840;101,43886
1087,78; 1294,579;  243,721; 1308,302;98,71094
1088,32; 1224,502;  217,875; 1249,225;97,60284
1088,86; 1259,963;  251,644; 1246,994;101,30298
1089,40; 1251,040;  231,952; 1233,533;101,74801
1089,94; 1195,194;  202,875; 1207,763;98,74919
1090,48; 1203,040;  246,183; 1217,071;98,55485
1091,02; 1186,579;  249,413; 1206,379;97,93096
1091,56; 1185,810;  229,644; 1182,533;100,34389
1092,10; 1153,194;  214,952; 1152,456;100,07877
1092,63; 1179,271;  242,952; 1179,994;99,92283
1093,17; 1161,194;  228,183; 1145,917;101,66463
1093,71; 1112,733;  222,798; 1115,225;99,72073
1094,25; 1140,040;  251,644; 1126,302;101,57072
1094,79; 1098,502;  230,183; 1088,302;101,18865
1095,33; 1090,887;  229,183; 1093,225;99,72936
1095,87; 1092,810;  235,183; 1074,610;102,16815
1096,40; 1029,271;  212,106; 1042,687;98,38482
1096,94; 1049,733;  232,183; 1052,302;99,68672
1097,48; 1041,425;  244,798; 1048,687;99,09670
1098,02; 1025,348;  221,337; 1013,148;101,54077
1098,56;  976,117;  203,567;  984,071;98,98093
1099,10;  969,425;  202,260;  984,610;98,05910
1099,63;  963,040;  210,029;  972,456;98,76508
1100,17;  988,656;  236,260;  985,071;100,47871
1100,71; 1005,887;  245,413; 1000,763;100,67824

