
Integration time [ms]: 120,000
Averaging Nr. [scans]: 13
Smoothing Nr. [pixels]: 0
Data measured with spectrometer [name]: 2009305U1
Wave   ;Sample   ;Dark     ;Reference;Reflectance
[nm]   ;[counts] ;[counts] ;[counts] ;[%]

 175,72;  197,028;  200,110;  202,873;-111,58577
 176,32;  218,355;  231,332;  217,715; 0,00000
 176,92;  245,956;  245,184;  240,921; 0,00000
 177,52;  256,779;  250,109;  256,275;108,16835
 178,12;  234,084;  223,102;  218,213; 0,00000
 178,72;  258,577;  248,022;  243,330; 0,00000
 179,32;  257,499;  256,178;  243,824; 0,00000
 179,92;  238,336;  241,720;  245,617;-86,84284
 180,52;  245,739;  230,730;  241,246;142,72210
 181,12;  248,773;  248,567;  250,061;13,78669
 181,73;  264,031;  265,952;  273,731;-24,70470
 182,33;  331,250;  337,265;  342,339;-118,54494
 182,93;  253,583;  258,493;  264,171;-86,47327
 183,53;  224,980;  235,252;  221,768; 0,00000
 184,13;  236,777;  230,330;  222,348; 0,00000
 184,73;  268,686;  263,712;  262,061; 0,00000
 185,33;  259,112;  222,813;  335,622;32,17726
 185,93;  256,295;  225,114;  349,529;25,06240
 186,53;  272,814;  238,117;  379,892;24,47311
 187,13;  298,872;  271,894;  396,171;21,70847
 187,73;  264,671;  225,807;  353,841;30,35445
 188,33;  274,803;  238,650;  368,758;27,78734
 188,93;  275,086;  246,946;  366,563;23,52504
 189,53;  285,650;  240,552;  363,460;36,69236
 190,13;  303,245;  275,692;  394,159;23,25840
 190,73;  246,375;  213,317;  352,390;23,77049
 191,34;  279,454;  251,866;  378,765;21,74066
 191,94;  261,920;  235,107;  360,268;21,42240
 192,54;  277,410;  241,591;  390,133;24,11342
 193,14;  281,733;  257,816;  388,913;18,24355
 193,74;  273,100;  252,969;  383,609;15,40961
 194,34;  273,556;  254,664;  378,868;15,21058
 194,94;  245,076;  210,354;  355,117;23,98539
 195,54;  214,907;  192,813;  337,228;15,29893
 196,14;  252,666;  222,204;  355,041;22,93227
 196,74;  245,468;  220,965;  336,888;21,13739
 197,34;  215,684;  185,516;  340,966;19,40706
 197,94;  254,704;  223,202;  369,904;21,47333
 198,54;  263,348;  229,435;  370,150;24,10108
 199,14;  238,534;  206,826;  380,207;18,28835
 199,74;  228,960;  199,672;  362,157;18,02511
 200,34;  232,941;  185,981;  386,732;23,39238
 200,94;  255,410;  229,284;  404,812;14,88454
 201,54;  235,153;  207,440;  424,455;12,76998
 202,14;  267,857;  227,059;  472,480;16,62366
 202,74;  241,231;  203,210;  476,428;13,91605
 203,34;  220,816;  186,447;  469,920;12,12434
 203,94;  192,679;  160,060;  478,769;10,23465
 204,54;  254,033;  241,433;  552,751; 4,04725
 205,14;  234,524;  184,749;  573,546;12,80234
 205,74;  280,041;  223,754;  647,558;13,28139
 206,34;  239,729;  202,829;  669,407; 7,90869
 206,94;  256,937;  203,674;  729,266;10,13401
 207,54;  230,000;  172,905;  753,909; 9,82693
 208,14;  245,201;  202,675;  838,670; 6,68658
 208,74;  252,564;  200,902;  898,202; 7,40888
 209,34;  250,909;  193,211;  981,994; 7,31488
 209,94;  272,817;  202,441; 1071,279; 8,09993
 210,54;  268,773;  201,753; 1188,471; 6,79215
 211,14;  289,350;  207,595; 1267,456; 7,71371
 211,73;  286,516;  206,439; 1390,455; 6,76313
 212,33;  293,677;  215,438; 1522,708; 5,98493
 212,93;  290,328;  208,594; 1566,379; 6,01964
 213,53;  263,606;  178,364; 1648,999; 5,79625
 214,13;  287,261;  186,757; 1718,993; 6,55932
 214,73;  293,857;  175,444; 1770,095; 7,42565
 215,33;  269,740;  165,672; 1775,125; 6,46602
 215,93;  307,554;  192,985; 1870,490; 6,82971
 216,53;  280,620;  152,825; 1952,587; 7,10066
 217,13;  355,727;  209,292; 2163,915; 7,49172
 217,73;  341,867;  192,831; 2320,006; 7,00627
 218,33;  322,068;  154,450; 2493,708; 7,16542
 218,93;  394,141;  183,688; 2777,639; 8,11324
 219,53;  395,340;  183,989; 3086,043; 7,28281
 220,13;  406,353;  153,682; 3373,664; 7,84694
 220,73;  458,976;  167,442; 3677,026; 8,30681
 221,32;  475,180;  186,902; 4061,202; 7,44076
 221,92;  514,065;  191,836; 4482,845; 7,50939
 222,52;  543,288;  170,755; 4928,580; 7,82991
 223,12;  576,643;  174,678; 5311,431; 7,82526
 223,72;  607,530;  182,524; 5778,997; 7,59417
 224,32;  662,213;  186,063; 6115,477; 8,03030
 224,92;  656,038;  173,986; 6473,463; 7,65225
 225,52;  712,055;  194,905; 6867,601; 7,75025
 226,12;  724,213;  184,830; 7208,919; 7,67905
 226,72;  715,059;  160,983; 7573,009; 7,47536
 227,31;  742,038;  141,599; 7973,996; 7,66610
 227,91;  810,454;  178,519; 8371,266; 7,71335
 228,51;  817,847;  176,977; 8814,255; 7,41982
 229,11;  860,945;  179,137; 9285,050; 7,48754
 229,71;  863,728;  173,825; 9549,184; 7,35868
 230,31;  899,436;  161,757;10004,622; 7,49455
 230,91;  921,869;  153,359;10329,852; 7,55182
 231,51;  961,077;  156,216;10676,915; 7,65026
 232,10; 1002,396;  165,450;11009,337; 7,71814
 232,70; 1040,095;  170,664;11133,945; 7,93039
 233,30; 1077,045;  193,985;11455,562; 7,84136
 233,90; 1075,563;  168,831;11573,318; 7,95067
 234,50; 1091,451;  177,677;11711,639; 7,92246
 235,10; 1091,884;  167,525;11729,540; 7,99480
 235,70; 1147,941;  196,058;11761,655; 8,23030
 236,29; 1129,702;  194,056;11655,487; 8,16344
 236,89; 1119,563;  164,052;11549,992; 8,39202
 237,49; 1146,742;  182,368;11445,335; 8,56234
 238,09; 1136,267;  177,905;11157,638; 8,72846
 238,69; 1140,477;  206,973;10872,607; 8,75245
 239,29; 1102,446;  169,674;10581,194; 8,95903
 239,89; 1108,583;  188,668;10236,698; 9,15518
 240,48; 1083,477;  165,444; 9830,009; 9,49896
 241,08; 1070,224;  169,827; 9487,945; 9,66286
 241,68; 1054,360;  184,752; 9147,968; 9,70197
 242,28; 1030,009;  161,061; 8792,526;10,06721
 242,88; 1055,379;  197,757; 8466,405;10,37198
 243,48; 1068,393;  200,291; 8217,308;10,82823
 244,07; 1037,972;  184,673; 7941,714;11,00032
 244,67; 1021,669;  180,983; 7812,186;11,01642
 245,27; 1039,208;  196,593; 7600,147;11,38122
 245,87; 1045,635;  188,680; 7503,269;11,71570
 246,47; 1046,383;  177,593; 7504,161;11,85807
 247,06; 1085,666;  175,212; 7501,380;12,42742
 247,66; 1101,181;  171,598; 7507,502;12,67168
 248,26; 1176,809;  198,594; 7680,252;13,07485
 248,86; 1222,081;  197,517; 7835,908;13,41335
 249,46; 1222,728;  148,370; 8081,196;13,54320
 250,05; 1333,933;  199,290; 8459,647;13,73601
 250,65; 1376,233;  167,670; 8763,473;14,05992
 251,25; 1484,229;  175,212; 9259,936;14,40899
 251,85; 1548,783;  174,898; 9807,639;14,26266
 252,44; 1659,313;  149,441;10404,804;14,72276
 253,04; 1831,207;  181,519;11139,257;15,05501
 253,64; 1929,478;  141,054;11824,061;15,30791
 254,24; 2130,508;  183,059;12767,543;15,47500
 254,84; 2290,036;  169,446;13615,273;15,77136
 255,43; 2469,714;  167,903;14455,596;16,11044
 256,03; 2648,602;  182,977;15537,988;16,05746
 256,63; 2871,311;  195,206;16514,825;16,39809
 257,23; 3020,789;  167,129;17345,771;16,61167
 257,82; 3240,865;  179,203;18351,919;16,84758
 258,42; 3341,801;  147,817;19148,687;16,80967
 259,02; 3589,925;  196,903;20015,338;17,12053
 259,62; 3720,569;  165,508;20715,560;17,29952
 260,21; 3865,554;  179,364;21261,849;17,48461
 260,81; 3977,054;  172,907;21761,326;17,62124
 261,41; 4036,295;  158,203;22124,027;17,65512
 262,01; 4230,992;  201,046;22589,550;18,00007
 262,60; 4277,789;  157,052;22857,540;18,15263
 263,20; 4358,618;  164,978;23198,998;18,20629
 263,80; 4419,094;  187,968;23365,093;18,25561
 264,40; 4440,121;  154,815;23598,994;18,27876
 264,99; 4492,971;  188,660;23715,396;18,29540
 265,59; 4540,625;  169,887;23910,612;18,41030
 266,19; 4551,212;  166,584;24001,890;18,39552
 266,78; 4638,419;  204,735;24111,097;18,54604
 267,38; 4601,395;  178,042;24110,046;18,48301
 267,98; 4622,732;  164,505;24153,613;18,58438
 268,58; 4616,990;  186,041;24180,879;18,46626
 269,17; 4588,579;  168,807;24176,190;18,41005
 269,77; 4569,268;  175,436;24019,286;18,42753
 270,37; 4533,765;  146,276;23861,785;18,50051
 270,96; 4526,163;  212,049;23777,796;18,30671
 271,56; 4458,444;  177,975;23455,503;18,38885
 272,16; 4407,182;  173,279;23345,529;18,27143
 272,75; 4396,890;  176,126;23222,475;18,31424
 273,35; 4371,989;  190,896;23205,077;18,16746
 273,95; 4339,393;  178,433;23172,964;18,09543
 274,54; 4336,113;  162,674;23176,497;18,13449
 275,14; 4393,061;  190,588;23548,240;17,99185
 275,74; 4394,597;  152,741;23612,434;18,08147
 276,33; 4460,853;  199,205;23907,765;17,97514
 276,93; 4519,037;  180,906;24350,471;17,94874
 277,53; 4610,513;  178,056;24808,437;17,99589
 278,12; 4699,579;  156,438;25351,463;18,03190
 278,72; 4837,994;  207,902;25930,003;18,00044
 279,32; 4920,552;  180,517;26427,414;18,05941
 279,91; 5029,628;  160,054;27208,518;18,00314
 280,51; 5163,124;  172,749;27648,370;18,16292
 281,11; 5332,530;  185,439;28417,581;18,23132
 281,70; 5390,134;  164,054;28725,396;18,29774
 282,30; 5514,983;  163,360;29381,042;18,31638
 282,90; 5652,952;  167,821;29798,675;18,51155
 283,49; 5810,877;  187,434;30296,335;18,67701
 284,09; 5993,493;  202,900;30739,558;18,96276
 284,69; 6050,480;  204,670;31083,405;18,93151
 285,28; 6221,759;  199,438;31435,147;19,28025
 285,88; 6357,305;  230,202;31632,624;19,51156
 286,47; 6431,988;  182,898;31767,648;19,78515
 287,07; 6581,127;  201,440;31775,772;20,20529
 287,67; 6738,316;  193,907;31928,385;20,62239
 288,26; 6835,988;  174,286;31735,346;21,10735
 288,86; 7061,678;  175,669;31898,079;21,70708
 289,46; 7265,095;  181,439;31934,342;22,30869
 290,05; 7464,419;  175,827;32059,063;22,86026
 290,65; 7692,361;  186,051;32265,847;23,39887
 291,24; 7973,425;  186,748;32442,252;24,14062
 291,84; 8181,465;  196,052;32541,363;24,68801
 292,44; 8442,711;  185,984;32701,879;25,39290
 293,03; 8706,799;  245,594;32808,206;25,98442
 293,63; 8893,854;  173,744;32892,739;26,65152
 294,22; 9120,156;  204,747;33109,934;27,09424
 294,82; 9206,578;  175,354;33078,696;27,44774
 295,41; 9272,596;  167,823;32895,165;27,82008
 296,01; 9431,217;  214,356;32681,284;28,38846
 296,61; 9455,143;  203,363;32431,641;28,70702
 297,20; 9396,735;  187,202;32167,565;28,79746
 297,80; 9441,102;  200,213;32028,452;29,03362
 298,39; 9386,783;  176,744;31525,101;29,37965
 298,99; 9418,491;  201,280;31317,195;29,62218
 299,58; 9339,166;  191,906;31210,312;29,48978
 300,18; 9308,819;  202,443;31103,624;29,46935
 300,78; 9175,273;  175,210;30692,763;29,49143
 301,37; 9165,118;  196,890;30587,432;29,50993
 301,97; 9180,074;  200,978;30615,713;29,52219
 302,56; 9091,105;  167,975;30574,304;29,34629
 303,16; 9091,324;  171,204;30473,055;29,43754
 303,75; 9023,874;  182,057;30495,945;29,16754
 304,35; 9103,053;  180,063;30724,205;29,21342
 304,94; 9033,531;  179,439;30727,030;28,98458
 305,54; 9035,026;  198,364;30620,356;29,04695
 306,13; 8914,068;  159,601;30588,612;28,77013
 306,73; 8812,681;  171,984;30388,973;28,59549
 307,33; 8806,136;  191,060;30332,163;28,58248
 307,92; 8754,897;  187,594;30310,758;28,44091
 308,52; 8824,077;  162,819;30807,494;28,26350
 309,11; 8883,380;  172,663;31288,728;27,99428
 309,71; 8871,848;  157,046;31478,596;27,82366
 310,30; 8907,188;  172,286;31699,274;27,70611
 310,90; 8978,650;  197,978;32084,043;27,53765
 311,49; 8960,306;  178,132;32148,776;27,46949
 312,09; 8955,147;  150,981;32308,022;27,37866
 312,68; 9047,298;  229,826;32691,229;27,16294
 313,28; 8948,512;  153,209;32834,758;26,91214
 313,87; 8929,644;  152,824;32955,297;26,75658
 314,47; 9011,438;  172,048;33198,764;26,76436
 315,06; 8913,410;  151,902;33298,292;26,43277
 315,66; 8927,224;  166,904;33516,099;26,26846
 316,25; 8878,591;  152,743;33427,322;26,22377
 316,85; 8743,507;  149,828;33489,402;25,77621
 317,44; 8764,483;  165,432;33660,873;25,67230
 318,04; 8707,665;  141,744;33659,151;25,55663
 318,63; 8648,922;  153,215;33796,173;25,25256
 319,22; 8597,156;  178,590;33947,928;24,92961
 319,82; 8537,621;  170,515;33922,260;24,79014
 320,41; 8479,479;  187,898;33803,644;24,66577
 321,01; 8421,147;  187,058;33865,266;24,44931
 321,60; 8366,154;  170,361;33901,423;24,29747
 322,20; 8289,661;  157,902;33876,537;24,11651
 322,79; 8303,651;  209,287;33900,722;24,02499
 323,39; 8226,195;  177,601;33960,788;23,82426
 323,98; 8125,180;  162,825;33810,510;23,66390
 324,58; 8071,318;  170,127;33727,770;23,54513
 325,17; 8005,366;  167,743;33605,453;23,43947
 325,76; 7911,429;  191,670;33355,179;23,27787
 326,36; 7812,962;  165,673;32990,284;23,29742
 326,95; 7679,324;  190,438;32707,522;23,03062
 327,55; 7513,097;  158,976;32358,834;22,83899
 328,14; 7409,698;  159,444;31926,271;22,82335
 328,74; 7302,987;  198,359;31474,277;22,71597
 329,33; 7227,362;  195,288;31095,474;22,75738
 329,92; 7014,452;  164,355;30551,968;22,54240
 330,52; 6877,493;  180,367;29961,262;22,48799
 331,11; 6756,242;  174,669;29505,160;22,43935
 331,71; 6613,166;  177,824;28992,980;22,33319
 332,30; 6490,146;  194,055;28579,183;22,18095
 332,89; 6382,094;  225,365;28002,515;22,16473
 333,49; 6203,796;  188,361;27531,106;22,00011
 334,08; 6082,933;  180,591;27057,020;21,96103
 334,68; 5965,887;  186,438;26669,617;21,82310
 335,27; 5857,664;  207,060;26367,810;21,59955
 335,86; 5847,011;  230,361;26052,545;21,75126
 336,46; 5683,505;  191,060;25817,512;21,43272
 337,05; 5653,990;  174,130;25724,300;21,44745
 337,65; 5630,590;  164,976;25463,124;21,60480
 338,24; 5637,687;  217,056;25371,759;21,54918
 338,83; 5629,672;  201,902;25236,338;21,68122
 339,43; 5527,125;  165,513;25237,716;21,38469
 340,02; 5520,575;  176,666;25087,761;21,45192
 340,61; 5529,092;  169,440;25166,247;21,44134
 341,21; 5554,218;  206,205;25164,738;21,42759
 341,80; 5516,066;  174,207;25058,929;21,46642
 342,40; 5521,017;  174,290;25211,149;21,35542
 342,99; 5519,325;  167,057;25204,438;21,37711
 343,58; 5526,131;  176,288;25454,705;21,16368
 344,18; 5587,419;  181,673;25509,140;21,34341
 344,77; 5624,698;  163,435;25750,394;21,34393
 345,36; 5674,939;  161,823;26055,291;21,29153
 345,96; 5747,998;  197,750;26293,257;21,26898
 346,55; 5822,267;  163,755;26623,951;21,38500
 347,14; 5911,048;  157,444;26853,977;21,55187
 347,74; 5950,059;  151,220;27355,636;21,31580
 348,33; 6098,689;  173,604;27946,763;21,33385
 348,92; 6238,637;  190,223;28559,542;21,32027
 349,52; 6359,743;  146,606;28931,257;21,58490
 350,11; 6382,179;  173,050;29134,883;21,43901
 350,70; 6388,292;  167,671;29276,265;21,37039
 351,29; 6316,398;  154,735;29067,160;21,31147
 351,89; 6355,677;  178,355;29089,529;21,36656
 352,48; 6380,491;  155,440;28926,668;21,63638
 353,07; 6369,187;  182,830;28953,928;21,50199
 353,67; 6402,474;  183,531;28901,484;21,65525
 354,26; 6325,289;  189,137;28669,254;21,54539
 354,85; 6319,845;  181,828;28536,076;21,64761
 355,45; 6259,988;  157,283;28384,404;21,62001
 356,04; 6252,475;  182,522;28248,824;21,62719
 356,63; 6286,858;  207,131;28047,378;21,83791
 357,22; 6239,580;  183,199;27888,957;21,85965
 357,82; 6219,670;  178,200;27692,655;21,95744
 358,41; 6239,885;  190,285;27660,509;22,02239
 359,00; 6185,058;  160,820;27531,838;22,00955
 359,60; 6150,292;  180,748;27473,329;21,87241
 360,19; 6153,804;  186,523;27226,055;22,06873
 360,78; 6171,338;  173,745;27060,495;22,30687
 361,37; 6141,841;  178,745;26940,368;22,28226
 361,97; 6165,453;  181,977;26819,889;22,46226
 362,56; 6084,743;  169,819;26560,426;22,41299
 363,15; 6106,092;  210,976;26288,164;22,60641
 363,74; 6036,182;  180,818;25944,529;22,72718
 364,34; 5954,007;  191,974;25613,996;22,66552
 364,93; 5917,896;  166,357;25263,824;22,91681
 365,52; 5831,626;  161,899;24817,237;22,99594
 366,11; 5837,761;  182,359;24544,191;23,21419
 366,71; 5750,848;  166,820;24256,082;23,18057
 367,30; 5693,150;  170,900;23869,047;23,30245
 367,89; 5743,717;  210,674;23714,696;23,54083
 368,48; 5698,880;  201,741;23367,353;23,72974
 369,07; 5613,292;  172,440;22961,727;23,87460
 369,67; 5555,681;  190,665;22773,475;23,75708
 370,26; 5543,066;  169,902;22466,397;24,09870
 370,85; 5492,308;  179,669;22238,961;24,08345
 371,44; 5427,622;  180,054;22078,002;23,96374
 372,03; 5433,555;  162,051;21765,503;24,40121
 372,63; 5408,760;  147,592;21457,595;24,68873
 373,22; 5361,717;  178,824;21264,460;24,58020
 373,81; 5307,529;  151,822;20887,300;24,86418
 374,40; 5328,170;  169,982;20755,163;25,05777
 374,99; 5298,809;  165,591;20466,861;25,28521
 375,59; 5231,113;  164,520;20178,190;25,31566
 376,18; 5272,979;  190,053;20070,422;25,56756
 376,77; 5279,900;  182,208;19935,314;25,80704
 377,36; 5316,123;  203,822;19861,671;26,00641
 377,95; 5305,777;  190,898;19564,367;26,40146
 378,55; 5236,531;  176,442;19479,343;26,21414
 379,14; 5289,805;  196,515;19341,165;26,60425
 379,73; 5314,321;  186,436;19267,653;26,87399
 380,32; 5419,156;  193,900;19353,088;27,27284
 380,91; 5372,531;  169,818;19185,543;27,36006
 381,50; 5434,400;  188,127;19141,761;27,67951
 382,10; 5415,617;  159,977;19023,550;27,86132
 382,69; 5441,313;  157,053;19011,952;28,02592
 383,28; 5509,739;  200,743;18912,037;28,37322
 383,87; 5510,565;  170,127;18817,254;28,63947
 384,46; 5525,071;  173,970;18795,139;28,73665
 385,05; 5606,390;  208,127;18823,408;28,99909
 385,64; 5656,376;  171,897;18742,345;29,53337
 386,24; 5683,219;  163,354;18671,777;29,82353
 386,83; 5762,100;  200,815;18753,378;29,97583
 387,42; 5845,766;  202,974;18843,784;30,27117
 388,01; 5955,232;  189,965;19065,911;30,54293
 388,60; 6105,882;  184,970;19250,922;31,05490
 389,19; 6200,752;  170,806;19513,230;31,17472
 389,78; 6366,662;  176,115;19779,398;31,57913
 390,37; 6576,954;  226,044;20111,925;31,93678
 390,96; 6645,916;  180,508;20281,999;32,16383
 391,56; 6736,995;  185,882;20441,460;32,34227
 392,15; 6903,720;  176,193;20728,665;32,73342
 392,74; 7023,374;  165,952;20799,855;33,23376
 393,33; 7174,548;  180,804;21104,510;33,42498
 393,92; 7403,466;  176,180;21464,578;33,94941
 394,51; 7492,861;  177,189;21633,885;34,09505
 395,10; 7640,788;  217,401;21864,520;34,29273
 395,69; 7807,339;  200,249;21986,294;34,91726
 396,28; 7883,402;  195,167;22178,296;34,97334
 396,87; 7984,839;  203,466;22188,646;35,39372
 397,46; 8141,070;  201,922;22287,467;35,94726
 398,06; 8223,365;  208,992;22488,052;35,97267
 398,65; 8349,060;  204,437;22561,040;36,43050
 399,24; 8514,962;  224,357;22665,021;36,94456
 399,83; 8517,739;  196,563;22709,801;36,96126
 400,42; 8701,116;  245,387;22899,258;37,32576
 401,01; 8783,139;  219,823;23002,396;37,58713
 401,60; 8962,694;  221,327;23008,449;38,36100
 402,19; 9015,713;  247,299;22965,025;38,59723
 402,78; 9108,393;  245,872;22940,038;39,05198
 403,37; 9160,323;  231,986;22817,328;39,53156
 403,96; 9152,180;  240,708;22688,226;39,69914
 404,55; 9201,002;  245,655;22574,434;40,10675
 405,14; 9207,068;  220,454;22461,716;40,40514
 405,73; 9266,904;  244,475;22396,569;40,72946
 406,32; 9317,449;  252,360;22279,648;41,15390
 406,91; 9320,481;  244,317;22049,013;41,62481
 407,50; 9325,914;  258,602;21885,148;41,92677
 408,09; 9302,231;  240,587;21583,178;42,45803
 408,68; 9313,119;  234,806;21504,539;42,68184
 409,27; 9292,370;  233,359;21317,301;42,96640
 409,86; 9297,008;  241,624;21177,379;43,25320
 410,45; 9395,549;  268,652;21119,790;43,77170
 411,04; 9411,857;  267,604;21080,043;43,93648
 411,63; 9383,128;  258,335;20837,815;44,33928
 412,22; 9344,003;  261,985;20668,780;44,50487
 412,81; 9299,624;  288,997;20378,564;44,85227
 413,40; 9249,641;  282,704;20005,385;45,46510
 413,99; 9246,612;  322,777;19776,044;45,87319
 414,58; 9050,940;  244,395;19446,217;45,86307
 415,17; 9034,588;  265,843;19200,130;46,31146
 415,76; 9029,898;  253,060;19067,816;46,64869
 416,35; 9033,895;  252,605;18864,516;47,18102
 416,94; 9110,021;  292,755;18909,686;47,36154
 417,53; 9320,775;  262,536;19201,777;47,82788
 418,12; 9376,642;  254,155;19240,489;48,04765
 418,71; 9586,708;  275,474;19601,096;48,18077
 419,30; 9734,890;  267,002;19669,177;48,79807
 419,89; 9877,095;  258,313;19828,654;49,14979
 420,48;10062,913;  283,782;20084,168;49,38859
 421,07;10142,549;  271,862;20162,278;49,62534
 421,66;10179,602;  247,484;20113,259;49,99613
 422,25;10231,698;  259,575;20168,509;50,08868
 422,84;10310,010;  291,654;20118,429;50,52943
 423,43;10227,390;  265,802;19840,272;50,89071
 424,02;10137,564;  281,574;19689,613;50,78303
 424,60; 9991,059;  266,975;19256,751;51,20694
 425,19; 9897,306;  273,274;18981,897;51,44169
 425,78; 9953,748;  282,737;18938,087;51,84042
 426,37; 9932,522;  274,050;18706,551;52,39914
 426,96; 9881,333;  271,589;18630,579;52,34353
 427,55; 9905,651;  253,752;18423,257;53,12142
 428,14; 9815,289;  254,602;18314,942;52,93747
 428,73; 9774,245;  258,979;18125,943;53,25620
 429,32; 9798,685;  272,742;18158,700;53,25934
 429,91; 9831,005;  287,595;18050,961;53,72523
 430,50; 9815,562;  283,215;17969,719;53,89616
 431,08; 9736,637;  282,220;17837,309;53,85570
 431,67; 9842,619;  321,532;17807,338;54,45037
 432,26; 9798,585;  337,152;17580,345;54,87054
 432,85; 9666,767;  346,381;17262,521;55,09760
 433,44; 9517,665;  363,003;16965,759;55,13942
 434,03; 9384,208;  372,165;16585,088;55,58555
 434,62; 9177,743;  331,695;16184,668;55,80056
 435,21; 9105,322;  356,459;16013,376;55,87858
 435,79; 9029,485;  350,931;15844,947;56,01230
 436,38; 8965,109;  337,632;15784,190;55,85372
 436,97; 8947,568;  329,633;15697,172;56,07882
 437,56; 8875,169;  343,568;15441,621;56,50795
 438,15; 8845,963;  316,950;15355,004;56,71620
 438,74; 8843,530;  332,951;15464,200;56,24505
 439,33; 8871,829;  313,334;15359,647;56,88101
 439,91; 8867,578;  281,032;15418,889;56,72233
 440,50; 8983,686;  314,186;15563,165;56,85299
 441,09; 9004,052;  327,424;15661,060;56,58559
 441,68; 9025,434;  307,047;15628,439;56,90336
 442,27; 9037,280;  291,274;15613,356;57,08105
 442,86; 9059,605;  272,059;15595,639;57,34656
 443,44; 9084,727;  286,210;15641,651;57,29902
 444,03; 9167,862;  345,444;15700,707;57,45533
 444,62; 9123,005;  289,906;15556,277;57,85985
 445,21; 9034,925;  302,058;15401,023;57,83752
 445,80; 8956,488;  326,451;15395,443;57,27017
 446,39; 8833,850;  342,065;15123,392;57,44941
 446,97; 8722,313;  290,228;14914,550;57,65795
 447,56; 8591,279;  290,543;14717,409;57,53666
 448,15; 8500,031;  298,382;14534,709;57,61071
 448,74; 8375,945;  313,229;14318,406;57,56954
 449,33; 8305,462;  293,619;14205,123;57,59149
 449,91; 8175,676;  292,858;13988,439;57,55738
 450,50; 8059,735;  293,702;13753,841;57,69653
 451,09; 7992,372;  310,857;13679,135;57,46077
 451,68; 7956,266;  331,014;13613,838;57,40685
 452,26; 7886,933;  325,787;13562,980;57,12047
 452,85; 7805,663;  302,862;13444,382;57,09234
 453,44; 7839,928;  314,950;13468,943;57,20680
 454,03; 7794,102;  293,636;13430,805;57,09347
 454,61; 7745,417;  294,489;13416,537;56,78175
 455,20; 7857,106;  318,647;13568,384;56,89516
 455,79; 7827,304;  319,717;13528,712;56,83693
 456,38; 7925,865;  322,884;13611,428;57,21455
 456,97; 7915,795;  296,036;13667,680;56,98446
 457,55; 7910,198;  317,425;13676,515;56,83601
 458,14; 7938,849;  328,804;13639,553;57,17218
 458,73; 7867,456;  321,657;13599,416;56,83037
 459,31; 7878,991;  343,433;13694,269;56,44259
 459,90; 7918,236;  358,968;13716,159;56,59324
 460,49; 7978,160;  380,581;13801,511;56,60993
 461,08; 7938,633;  313,282;13908,189;56,08976
 461,66; 7973,734;  325,663;13940,125;56,17608
 462,25; 8030,710;  323,901;14043,272;56,17465
 462,84; 7964,737;  346,975;14091,860;55,42252
 463,43; 7980,328;  292,370;14001,859;56,07764
 464,01; 7965,554;  320,835;13972,720;55,99753
 464,60; 7895,098;  376,829;13986,225;55,24322
 465,19; 7783,742;  301,990;13791,341;55,46414
 465,77; 7779,026;  322,379;13780,175;55,40763
 466,36; 7713,184;  335,678;13649,212;55,41358
 466,95; 7547,396;  322,986;13373,403;55,35770
 467,53; 7310,233;  323,075;13041,996;54,93514
 468,12; 7194,573;  358,384;12852,951;54,71329
 468,71; 7036,790;  328,453;12606,717;54,63587
 469,29; 6870,113;  309,846;12379,694;54,35252
 469,88; 6706,565;  328,080;12134,808;54,02415
 470,47; 6741,232;  374,702;12248,969;53,61619
 471,06; 6715,191;  340,779;12196,006;53,76879
 471,64; 6732,209;  346,162;12282,073;53,50280
 472,23; 6685,420;  316,559;12359,916;52,88278
 472,81; 6744,154;  319,938;12414,085;53,11839
 473,40; 6752,041;  326,252;12559,201;52,52854
 473,99; 6892,985;  400,098;12707,830;52,75454
 474,57; 6890,697;  338,328;12806,780;52,55159
 475,16; 6946,894;  340,785;13005,294;52,16238
 475,75; 6990,793;  352,256;13144,153;51,89642
 476,33; 6968,519;  368,954;13135,164;51,69557
 476,92; 7002,874;  348,715;13259,753;51,53853
 477,51; 7028,315;  352,105;13285,751;51,61893
 478,09; 7017,126;  354,644;13291,086;51,50166
 478,68; 6954,622;  379,184;13277,784;50,97792
 479,27; 6948,896;  379,103;13274,836;50,94548
 479,85; 6902,288;  345,569;13256,947;50,78249
 480,44; 6924,784;  350,956;13407,093;50,35049
 481,02; 7547,130;  350,345;14721,262;50,07882
 481,61; 8412,194;  370,650;16663,809;49,35534
 482,20; 8877,182;  353,960;17765,488;48,95160
 482,78; 9278,860;  401,493;18602,504;48,77403
 483,37; 9476,301;  374,505;19013,668;48,83157
 483,95; 9620,350;  400,891;19283,415;48,82535
 484,54; 9674,474;  418,650;19485,369;48,54440
 485,13; 9595,857;  369,820;19371,997;48,55253
 485,71; 9439,900;  360,664;19136,914;48,35489
 486,30; 9297,402;  395,433;18812,864;48,33448
 486,88; 9130,195;  424,743;18506,146;48,14589
 487,47; 8752,756;  410,359;17840,273;47,86253
 488,05; 8337,417;  399,285;17044,464;47,69028
 488,64; 7765,626;  406,444;15824,720;47,73025
 489,23; 6859,706;  409,825;14080,795;47,17940
 489,81; 5854,366;  399,596;12033,859;46,88539
 490,40; 5537,947;  355,366;11449,552;46,71439
 490,98; 5377,207;  345,983;11182,105;46,43012
 491,57; 5329,472;  376,287;11127,637;46,07035
 492,15; 5281,419;  364,215;11092,218;45,83522
 492,74; 5227,110;  361,516;10967,143;45,87748
 493,32; 5137,524;  371,137;10878,394;45,36281
 493,91; 5056,562;  351,833;10763,962;45,18508
 494,50; 5027,203;  354,611;10789,291;44,77945
 495,08; 4964,443;  331,765;10671,042;44,80660
 495,67; 4954,381;  367,755;10690,830;44,43081
 496,25; 4854,139;  322,914;10565,516;44,23900
 496,84; 4830,401;  330,447;10555,934;44,00723
 497,42; 4759,496;  323,916;10495,711;43,60666
 498,01; 4743,552;  347,602;10490,916;43,33839
 498,59; 4651,369;  309,763;10357,304;43,21063
 499,18; 4650,594;  312,449;10338,776;43,26753
 499,76; 4576,344;  322,607;10359,050;42,38292
 500,35; 4451,648;  319,844;10079,211;42,33680
 500,93; 4433,151;  304,916;10129,213;42,02067
 501,52; 4376,779;  309,378; 9975,924;42,07708
 502,10; 4343,767;  328,694; 9977,923;41,61030
 502,69; 4248,029;  316,774; 9858,065;41,20255
 503,27; 4155,240;  300,304; 9658,712;41,19222
 503,86; 4144,740;  307,234; 9622,964;41,19382
 504,44; 4010,268;  299,161; 9479,463;40,42467
 505,03; 3959,355;  286,545; 9295,509;40,76840
 505,61; 3875,625;  288,005; 9140,038;40,52877
 506,19; 3793,955;  311,622; 9023,101;39,97407
 506,78; 3675,315;  280,090; 8789,403;39,90011
 507,36; 3630,729;  291,237; 8728,631;39,57966
 507,95; 3539,285;  296,632; 8561,888;39,23233
 508,53; 3503,176;  295,628; 8450,285;39,33394
 509,12; 3451,944;  304,477; 8269,933;39,51396
 509,70; 3384,844;  318,094; 8172,196;39,04648
 510,29; 3292,840;  313,558; 8031,058;38,60423
 510,87; 3207,464;  297,167; 7860,656;38,47823
 511,46; 3117,235;  281,168; 7705,462;38,19982
 512,04; 3062,687;  294,556; 7561,563;38,09176
 512,62; 3013,353;  297,476; 7390,182;38,29113
 513,21; 2906,953;  270,559; 7281,786;37,60247
 513,79; 2876,766;  287,261; 7174,266;37,59987
 514,38; 2787,073;  269,258; 7017,735;37,30938
 514,96; 2772,251;  309,026; 6896,830;37,39068
 515,54; 2708,137;  266,029; 6749,889;37,66442
 516,13; 2669,451;  289,722; 6687,469;37,19636
 516,71; 2606,228;  292,264; 6589,887;36,74344
 517,30; 2546,291;  270,884; 6474,690;36,67760
 517,88; 2515,659;  287,037; 6400,128;36,45655
 518,46; 2460,816;  272,193; 6265,460;36,51804
 519,05; 2426,940;  285,119; 6254,868;35,87790
 519,63; 2402,204;  277,425; 6157,266;36,13667
 520,22; 2378,035;  295,431; 6130,857;35,68898
 520,80; 2339,077;  283,201; 6032,793;35,75690
 521,38; 2340,356;  313,273; 6033,452;35,43740
 521,97; 2287,892;  272,204; 6011,664;35,11983
 522,55; 2293,246;  296,127; 6008,989;34,95829
 523,13; 2260,163;  271,514; 5976,031;34,86095
 523,72; 2273,108;  275,039; 5929,744;35,33463
 524,30; 2280,214;  291,748; 6092,584;34,27896
 524,89; 2250,165;  268,589; 6071,062;34,15054
 525,47; 2281,944;  293,903; 6227,440;33,50517
 526,05; 2276,423;  256,673; 6214,988;33,89800
 526,64; 2333,944;  287,521; 6357,844;33,71193
 527,22; 2340,277;  287,672; 6460,368;33,25299
 527,80; 2371,051;  324,213; 6604,839;32,58971
 528,39; 2370,681;  274,984; 6715,741;32,53805
 528,97; 2419,566;  278,983; 6864,500;32,50439
 529,55; 2459,953;  298,206; 7037,429;32,07709
 530,14; 2500,227;  313,063; 7222,063;31,65674
 530,72; 2519,222;  277,368; 7295,143;31,94537
 531,30; 2554,885;  266,140; 7458,538;31,82171
 531,89; 2570,402;  281,063; 7506,909;31,68264
 532,47; 2630,149;  303,373; 7640,095;31,71411
 533,05; 2625,010;  310,674; 7642,966;31,56360
 533,63; 2637,966;  310,450; 7723,933;31,39571
 534,22; 2623,381;  281,604; 7736,069;31,41442
 534,80; 2649,594;  302,224; 7817,098;31,23632
 535,38; 2697,034;  379,603; 7920,919;30,72981
 535,97; 2612,826;  302,911; 7851,136;30,60209
 536,55; 2646,723;  342,609; 7903,464;30,47425
 537,13; 2636,453;  344,602; 7915,149;30,27326
 537,71; 2686,719;  390,524; 7936,904;30,42776
 538,30; 2666,522;  411,221; 7997,454;29,72887
 538,88; 2717,739;  433,613; 8097,955;29,80199
 539,46; 2815,486;  483,147; 8248,347;30,03579
 540,05; 2798,552;  484,919; 8436,397;29,09689
 540,63; 2875,624;  542,073; 8586,407;29,00863
 541,21; 2895,973;  568,153; 8713,838;28,57734
 541,79; 2954,490;  600,306; 8824,516;28,62505
 542,38; 3004,587;  618,995; 8987,999;28,50508
 542,96; 3069,445;  628,618; 9148,952;28,64709
 543,54; 3082,095;  653,844; 9286,792;28,12771
 544,12; 3094,912;  618,615; 9462,232;28,00096
 544,70; 3106,415;  604,541; 9489,803;28,15757
 545,29; 3178,100;  621,457; 9683,995;28,21112
 545,87; 3137,106;  601,076; 9702,978;27,86264
 546,45; 3115,263;  563,303; 9707,976;27,90653
 547,03; 3125,862;  533,690; 9844,050;27,84181
 547,62; 3131,732;  499,922; 9919,010;27,94124
 548,20; 3176,183;  507,848;10109,599;27,79009
 548,78; 3162,891;  493,242;10212,807;27,46676
 549,36; 3185,371;  448,625;10466,078;27,31978
 549,94; 3169,124;  411,385;10538,653;27,23083
 550,53; 3199,348;  423,547;10756,874;26,86261
 551,11; 3230,073;  370,859;10961,450;26,99769
 551,69; 3311,058;  407,702;11206,177;26,88672
 552,27; 3320,314;  352,699;11492,560;26,63961
 552,85; 3410,647;  369,628;11826,346;26,54355
 553,44; 3464,006;  367,163;12148,182;26,28672
 554,02; 3545,183;  380,473;12476,694;26,16281
 554,60; 3582,797;  332,859;12759,649;26,15268
 555,18; 3700,120;  365,625;13127,756;26,12804
 555,76; 3755,117;  329,780;13420,662;26,16582
 556,34; 3813,285;  351,017;13817,492;25,71028
 556,93; 3895,454;  335,856;14229,517;25,62030
 557,51; 3916,116;  324,171;14507,995;25,32424
 558,09; 4022,346;  349,549;14943,612;25,16638
 558,67; 4092,331;  342,558;15216,516;25,21033
 559,25; 4183,795;  346,556;15550,778;25,23798
 559,83; 4185,448;  336,483;15789,653;24,90728
 560,41; 4262,837;  323,092;16174,478;24,85426
 561,00; 4360,429;  326,943;16386,222;25,11623
 561,58; 4374,426;  328,707;16655,487;24,77965
 562,16; 4442,873;  318,320;17013,663;24,70481
 562,74; 4498,061;  296,396;17318,214;24,68399
 563,32; 4565,022;  298,252;17821,087;24,34977
 563,90; 4661,111;  315,404;18016,869;24,54998
 564,48; 4744,774;  328,091;18531,080;24,26350
 565,06; 4826,387;  322,327;19063,439;24,03305
 565,65; 4993,071;  327,334;19689,917;24,09667
 566,23; 5219,229;  375,558;20453,666;24,12414
 566,81; 5295,292;  321,710;21095,828;23,94125
 567,39; 5486,404;  341,330;21918,224;23,84529
 567,97; 5601,243;  341,480;22531,498;23,70328
 568,55; 5784,401;  359,867;23323,187;23,62260
 569,13; 5892,291;  333,481;24002,245;23,48585
 569,71; 6113,909;  324,474;24872,097;23,58450
 570,29; 6334,402;  358,164;25814,137;23,47676
 570,87; 6492,015;  368,781;26537,798;23,39879
 571,45; 6561,326;  342,635;27183,770;23,16851
 572,03; 6653,175;  300,639;27554,735;23,30855
 572,61; 6778,042;  311,637;28244,730;23,14962
 573,20; 6900,122;  336,478;28867,741;23,00509
 573,78; 7021,263;  324,483;29473,440;22,97434
 574,36; 7153,805;  336,020;29955,227;23,01812
 574,94; 7223,869;  387,332;30221,709;22,91496
 575,52; 7213,658;  334,800;30519,363;22,78933
 576,10; 7327,916;  393,643;31051,027;22,61860
 576,68; 7394,605;  373,331;31590,523;22,49169
 577,26; 7508,211;  395,648;32219,264;22,34995
 577,84; 7673,324;  384,944;32701,354;22,55318
 578,42; 7715,451;  432,334;32989,696;22,37011
 579,00; 7635,120;  404,945;33091,486;22,11973
 579,58; 7718,459;  423,332;33313,166;22,18049
 580,16; 7654,268;  391,027;33381,918;22,01590
 580,74; 7718,104;  406,027;33585,090;22,03823
 581,32; 7639,147;  417,333;33604,008;21,76119
 581,90; 7597,447;  425,335;33548,076;21,65314
 582,48; 7607,893;  413,566;33656,655;21,64157
 583,06; 7619,223;  411,333;33839,560;21,56229
 583,64; 7582,694;  418,025;33903,926;21,39608
 584,22; 7499,173;  419,801;33839,408;21,18329
 584,80; 7385,667;  425,026;33540,583;21,01925
 585,38; 7279,269;  428,632;33187,547;20,91229
 585,96; 7265,321;  406,869;33269,862;20,86984
 586,54; 7227,458;  430,261;33246,960;20,71262
 587,12; 7248,326;  408,182;33454,480;20,69867
 587,70; 7226,389;  433,869;33560,957;20,50443
 588,28; 7176,285;  409,798;33529,683;20,43029
 588,86; 7191,667;  419,106;33701,435;20,34882
 589,44; 7132,923;  389,343;33742,989;20,21842
 590,02; 7166,649;  397,418;33900,772;20,20464
 590,59; 7126,714;  388,800;34199,272;19,92848
 591,17; 7133,795;  390,811;34342,698;19,86041
 591,75; 7130,984;  378,807;34546,755;19,76173
 592,33; 7132,206;  391,575;34748,049;19,61968
 592,91; 7103,695;  344,501;34957,186;19,52808
 593,49; 7211,008;  363,812;35243,029;19,63116
 594,07; 7204,341;  372,427;35410,649;19,49846
 594,65; 7171,787;  371,493;35541,806;19,33533
 595,23; 7188,884;  374,572;35871,224;19,19706
 595,81; 7185,512;  366,727;36060,152;19,10376
 596,39; 7138,328;  352,497;36102,388;18,98140
 596,97; 7205,290;  358,348;36275,942;19,06292
 597,55; 7139,492;  350,109;36228,427;18,92336
 598,12; 7151,713;  333,506;36206,265;19,00664
 598,70; 7112,266;  336,272;36297,603;18,84245
 599,28; 7132,912;  361,656;36481,585;18,74659
 599,86; 7100,317;  339,964;36528,996;18,68067
 600,44; 7057,448;  314,196;36605,336;18,58099
 601,02; 7102,342;  361,972;36613,493;18,59334
 601,60; 7011,804;  345,499;36636,597;18,36898
 602,18; 6982,589;  310,351;36629,645;18,37106
 602,75; 6950,137;  326,958;36769,442;18,17434
 603,33; 6893,241;  342,580;36700,829;18,01699
 603,91; 6915,035;  325,739;36749,705;18,09055
 604,49; 6895,949;  349,657;36829,390;17,94501
 605,07; 6890,635;  361,961;36747,728;17,94293
 605,65; 6861,587;  370,427;36948,287;17,74615
 606,23; 6910,334;  418,491;37003,123;17,74473
 606,80; 6893,578;  451,419;37042,736;17,60570
 607,38; 6867,121;  496,815;37068,931;17,41848
 607,96; 6864,373;  550,265;37193,740;17,23119
 608,54; 6858,951;  623,197;37343,812;16,98162
 609,12; 6873,917;  601,265;37328,564;17,07899
 609,70; 6871,234;  631,271;37391,326;16,97485
 610,27; 6811,264;  637,957;37369,310;16,80664
 610,85; 6818,362;  647,117;37386,874;16,79719
 611,43; 6793,179;  663,272;37349,865;16,70885
 612,01; 6667,582;  627,345;37196,823;16,51716
 612,59; 6674,147;  638,271;37217,589;16,50079
 613,16; 6629,347;  582,493;37202,730;16,51233
 613,74; 6590,502;  564,118;36960,734;16,55754
 614,32; 6515,495;  534,274;37031,328;16,38823
 614,90; 6446,436;  486,269;36996,222;16,32477
 615,48; 6366,810;  443,879;36661,088;16,35392
 616,05; 6297,351;  419,492;36538,349;16,27366
 616,63; 6262,277;  418,414;36408,303;16,23751
 617,21; 6239,408;  406,188;36243,034;16,27716
 617,79; 6165,985;  400,113;36207,646;16,10240
 618,36; 6105,691;  400,807;36141,484;15,96188
 618,94; 5987,909;  355,110;35816,011;15,88453
 619,52; 5967,493;  371,568;35555,715;15,90468
 620,10; 5885,199;  361,266;35510,329;15,71573
 620,67; 5881,077;  353,106;35350,978;15,79516
 621,25; 5849,025;  391,576;35283,321;15,64109
 621,83; 5812,534;  377,495;35226,056;15,59617
 622,41; 5801,893;  402,802;35248,219;15,49441
 622,98; 5714,071;  376,567;34965,693;15,43116
 623,56; 5690,219;  370,413;34934,959;15,39093
 624,14; 5632,935;  345,655;34873,475;15,31310
 624,72; 5595,109;  359,956;34724,029;15,23438
 625,29; 5555,096;  340,336;34810,633;15,12827
 625,87; 5600,390;  384,882;34749,813;15,17683
 626,45; 5471,678;  343,181;34525,601;15,00332
 627,02; 5440,217;  336,575;34534,094;14,92401
 627,60; 5397,858;  334,042;34503,033;14,81992
 628,18; 5354,301;  316,650;34596,333;14,69574
 628,76; 5352,831;  319,029;34477,326;14,73669
 629,33; 5342,609;  341,493;34608,866;14,59440
 629,91; 5298,430;  328,727;34513,405;14,53781
 630,49; 5329,684;  357,492;34703,431;14,47680
 631,06; 5308,755;  346,645;34822,236;14,39311
 631,64; 5282,900;  344,105;34795,927;14,33537
 632,22; 5256,773;  302,333;34674,668;14,41403
 632,79; 5251,958;  337,179;34932,727;14,20639
 633,37; 5235,875;  308,268;35081,633;14,17064
 633,95; 5237,299;  312,873;35154,515;14,13373
 634,52; 5223,211;  303,264;35155,341;14,11665
 635,10; 5221,475;  315,342;35165,206;14,07791
 635,68; 5229,014;  308,333;35389,252;14,02666
 636,25; 5173,987;  294,253;35448,178;13,88105
 636,83; 5148,139;  288,491;35544,711;13,78380
 637,41; 5132,704;  303,640;35600,279;13,68137
 637,98; 5170,427;  320,947;35814,966;13,66281
 638,56; 5141,847;  318,560;35945,395;13,53836
 639,13; 5122,978;  288,413;36018,054;13,53096
 639,71; 5176,422;  336,799;36116,155;13,52630
 640,29; 5020,583;  275,722;35932,263;13,30712
 640,86; 5053,335;  289,876;36046,680;13,32182
 641,44; 5005,626;  287,184;36145,559;13,15855
 642,02; 5038,301;  316,031;36102,207;13,19580
 642,59; 4996,438;  286,800;36201,778;13,11330
 643,17; 4953,037;  284,262;36188,964;13,00324
 643,74; 4960,250;  285,262;36268,612;12,99209
 644,32; 4987,310;  320,724;36109,722;13,03917
 644,89; 4904,601;  303,109;36230,908;12,80761
 645,47; 4927,584;  327,570;36267,249;12,79926
 646,05; 4870,644;  307,032;36099,435;12,75023
 646,62; 4855,089;  303,417;36126,006;12,70615
 647,20; 4809,610;  304,955;36299,885;12,51469
 647,77; 4786,978;  281,340;36181,610;12,55043
 648,35; 4755,346;  282,340;36031,027;12,51236
 648,92; 4728,329;  302,033;36023,213;12,39124
 649,50; 4703,158;  269,418;35979,861;12,41581
 650,08; 4644,987;  273,264;35934,278;12,25911
 650,65; 4656,201;  286,649;36071,542;12,21061
 651,23; 4709,876;  259,418;36797,190;12,18043
 651,80; 4805,629;  273,034;37706,684;12,10834
 652,38; 4866,689;  280,880;38139,101;12,11311
 652,95; 4859,364;  256,650;38478,288;12,04217
 653,53; 4897,193;  290,957;38647,705;12,00893
 654,10; 4924,792;  308,650;38793,045;11,99484
 654,68; 4863,467;  263,804;38745,924;11,95273
 655,25; 4840,450;  261,035;38866,264;11,86216
 655,83; 4828,664;  254,881;38796,527;11,86712
 656,40; 4856,647;  288,728;38775,175;11,86890
 656,98; 4785,323;  280,035;38723,439;11,71927
 657,55; 4752,690;  284,959;38603,702;11,65939
 658,13; 4669,904;  274,882;38225,119;11,58101
 658,70; 4637,041;  294,421;38008,921;11,51446
 659,28; 4504,563;  281,036;37203,800;11,43881
 659,85; 4390,469;  288,421;36546,217;11,31356
 660,43; 4369,606;  287,190;36580,326;11,24845
 661,00; 4340,973;  273,191;36600,513;11,19758
 661,58; 4382,110;  259,037;36930,315;11,24333
 662,15; 4388,555;  261,268;37059,809;11,21590
 662,73; 4435,615;  330,114;37450,303;11,06002
 663,30; 4454,829;  284,884;37642,566;11,16222
 663,88; 4395,119;  281,499;37775,522;10,97140
 664,45; 4441,872;  264,653;37989,016;11,07300
 665,03; 4422,547;  280,192;38369,664;10,87533
 665,60; 4538,992;  342,731;38712,697;10,93632
 666,17; 4437,898;  269,577;38963,498;10,77255
 666,75; 4481,419;  277,885;39193,300;10,80172
 667,32; 4511,787;  298,500;39501,410;10,74738
 667,90; 4497,770;  282,808;39824,135;10,65964
 668,47; 4547,061;  298,962;40057,936;10,68463
 669,05; 4531,505;  267,193;40368,431;10,63387
 669,62; 4528,796;  263,270;40476,002;10,60740
 670,19; 4524,933;  265,117;40489,034;10,59026
 670,77; 4526,378;  273,040;40708,221;10,51890
 671,34; 4519,669;  272,040;40646,945;10,52047
 671,92; 4498,190;  260,348;40975,670;10,40847
 672,49; 4513,865;  288,887;40984,472;10,38191
 673,06; 4519,156;  239,194;41020,889;10,49481
 673,64; 4462,909;  259,348;40975,384;10,32409
 674,21; 4446,507;  244,272;40878,262;10,34167
 674,79; 4504,490;  277,272;41107,910;10,35305
 675,36; 4468,242;  271,811;41332,789;10,22000
 675,93; 4414,072;  266,580;41196,591;10,13313
 676,51; 4487,362;  276,042;41291,239;10,26771
 677,08; 4466,653;  271,888;41303,425;10,22327
 677,65; 4465,867;  274,350;41575,765;10,14860
 678,23; 4492,388;  275,350;41699,183;10,18022
 678,80; 4492,295;  264,889;41816,446;10,17388
 679,38; 4499,047;  272,581;41934,940;10,14457
 679,95; 4496,876;  273,735;42229,203;10,06577
 680,52; 4493,090;  254,735;42469,236;10,04004
 681,10; 4589,842;  286,582;42845,038;10,11141
 681,67; 4572,902;  276,197;43167,378;10,01769
 682,24; 4569,193;  244,120;43218,641;10,06427
 682,82; 4608,099;  259,198;43650,136;10,02260
 683,39; 4698,544;  305,198;44126,476;10,02560
 683,96; 4667,065;  260,890;44416,508; 9,97874
 684,54; 4662,433;  248,275;44647,849; 9,94189
 685,11; 4779,031;  288,891;45080,189;10,02458
 685,68; 4816,784;  259,737;45505,683;10,07172
 686,25; 4784,228;  253,891;45493,254;10,01415
 686,83; 4783,442;  255,353;45595,902; 9,98684
 687,40; 4796,810;  245,122;45986,781; 9,95086
 687,97; 4893,485;  279,353;46290,660;10,02826
 688,55; 4811,161;  233,507;46388,154; 9,91808
 689,12; 4838,528;  220,892;46656,186; 9,94424
 689,69; 4880,127;  246,661;46700,219; 9,97440
 690,26; 4916,802;  259,431;46831,175;10,00042
 690,84; 4904,247;  248,046;46930,976; 9,97410
 691,41; 4929,076;  258,354;47117,394; 9,96760
 691,98; 4950,674;  264,662;47402,734; 9,94104
 692,56; 4995,734;  245,893;47390,151;10,07512
 693,13; 4999,641;  306,585;47524,261; 9,93919
 693,70; 5018,778;  274,740;47710,293;10,00102
 694,27; 4971,299;  259,201;47691,249; 9,93442
 694,84; 4971,436;  257,663;47787,512; 9,91750
 695,42; 5067,957;  306,279;47990,083; 9,98595
 695,99; 5052,171;  268,202;48091,423;10,00344
 696,56; 5080,924;  259,202;47901,533;10,12067
 697,13; 5110,214;  283,818;48316,873;10,04807
 697,71; 5095,505;  250,433;48281,906;10,08729
 698,28; 5118,796;  255,587;48762,554;10,02579
 698,85; 5134,164;  229,433;48669,356;10,12539
 699,42; 5143,301;  247,357;48942,234;10,05433
 699,99; 5193,130;  279,818;49011,575;10,08236
 700,57; 5201,497;  276,049;49137,530;10,08043
 701,14; 5202,480;  254,742;49199,563;10,10881
 701,71; 5214,848;  276,973;49379,903;10,05617
 702,28; 5215,062;  253,588;49444,320;10,08620
 702,85; 5205,660;  275,742;49471,891;10,02094
 703,43; 5269,797;  276,050;49719,462;10,09992
 704,00; 5303,550;  302,743;49973,341;10,06794
 704,57; 5285,148;  275,512;49841,528;10,10700
 705,14; 5354,977;  300,897;50155,406;10,13766
 705,71; 5335,345;  304,666;50224,593;10,07750
 706,28; 5327,713;  271,590;50096,471;10,14779
 706,86; 5377,542;  309,590;50401,042;10,11740
 707,43; 5425,217;  315,821;50199,460;10,24263
 708,00; 5399,585;  313,206;50366,108;10,16201
 708,57; 5354,414;  276,514;50116,448;10,18842
 709,14; 5406,628;  312,283;50349,480;10,18112
 709,71; 5443,150;  282,437;50452,975;10,28634
 710,28; 5492,902;  284,514;50610,315;10,34934
 710,86; 5511,654;  280,360;50807,424;10,35345
 711,43; 5568,407;  300,361;50821,303;10,42745
 712,00; 5538,928;  278,130;50854,797;10,40163
 712,57; 5597,680;  290,822;51041,138;10,45680
 713,14; 5660,279;  282,900;51058,247;10,59053
 713,71; 5601,262;  283,515;50962,741;10,49295
 714,28; 5613,553;  271,285;51130,928;10,50394
 714,85; 5634,228;  256,746;50794,422;10,64054
 715,42; 5618,673;  266,823;51029,454;10,54289
 716,00; 5730,502;  330,593;51161,718;10,62323
 716,57; 5690,408;  276,208;51267,596;10,61787
 717,14; 5686,083;  254,978;51170,629;10,66687
 717,71; 5730,297;  256,978;51169,354;10,75047
 718,28; 5811,126;  291,440;51281,540;10,82502
 718,85; 5756,263;  262,209;51392,881;10,74512
 719,42; 5798,016;  274,055;51565,528;10,76974
 719,99; 5851,230;  253,594;51311,792;10,96325
 720,56; 5870,982;  273,748;51540,055;10,91796
 721,13; 5836,042;  255,210;51662,395;10,85613
 721,70; 5865,409;  251,518;51575,120;10,93823
 722,27; 5947,469;  281,826;51535,614;11,05410
 722,84; 6017,683;  320,287;51824,109;11,06208
 723,41; 5923,205;  250,980;51763,526;11,01135
 723,98; 6000,573;  264,057;51941,712;11,10057
 724,55; 6062,325;  294,211;52020,591;11,15120
 725,12; 6039,616;  221,980;51970,547;11,24212
 725,69; 6126,445;  256,519;52128,810;11,31611
 726,27; 6118,505;  262,288;52323,150;11,24879
 726,84; 6194,719;  267,827;52586,029;11,32855
 727,41; 6250,240;  279,212;52455,908;11,44386
 727,98; 6285,454;  282,520;52857,940;11,41776
 728,55; 6327,206;  310,212;52659,665;11,49390
 729,12; 6301,728;  249,905;52843,236;11,50683
 729,69; 6376,865;  284,905;52926,269;11,57257
 730,26; 6388,848;  276,520;53246,378;11,53926
 730,82; 6414,600;  271,521;52987,257;11,65322
 731,39; 6459,352;  273,829;53171,674;11,69334
 731,96; 6494,336;  250,598;53441,553;11,73834
 732,53; 6586,165;  281,367;53628,201;11,81850
 733,10; 6599,456;  277,675;53780,464;11,81580
 733,67; 6653,746;  282,675;54098,881;11,83857
 734,24; 6617,960;  250,368;53675,299;11,91877
 734,81; 6654,174;  293,753;53745,485;11,89937
 735,38; 6637,080;  269,676;53564,825;11,94744
 735,95; 6605,602;  270,984;53488,396;11,90328
 736,52; 6685,585;  277,599;53567,737;12,02471
 737,09; 6709,183;  286,830;53248,231;12,12648
 737,66; 6745,935;  328,984;53397,802;12,09175
 738,23; 6723,919;  260,292;53471,681;12,14707
 738,80; 6846,132;  323,908;53647,098;12,23150
 739,37; 6843,115;  304,600;53820,438;12,21791
 739,94; 6903,714;  268,524;53940,778;12,36242
 740,51; 7000,466;  370,062;54021,811;12,35823
 741,07; 6926,065;  265,909;53938,151;12,40894
 741,64; 7001,894;  303,447;54118,722;12,44711
 742,21; 6967,877;  274,371;54163,524;12,42088
 742,78; 6999,860;  251,832;53895,557;12,57934
 743,35; 7057,458;  276,525;54296,205;12,55271
 743,92; 7164,211;  303,371;54395,545;12,68361
 744,49; 7176,040;  296,371;54259,424;12,74885
 745,06; 7188,638;  260,448;54244,995;12,83365
 745,63; 7245,083;  257,833;54258,489;12,93919
 746,19; 7257,989;  253,910;54199,598;12,98358
 746,76; 7288,434;  267,449;54300,708;12,99382
 747,33; 7339,417;  256,834;54269,202;13,11289
 747,90; 7406,246;  290,218;54494,542;13,12815
 748,47; 7360,460;  286,296;54398,267;13,07320
 749,04; 7400,751;  285,834;54390,761;13,15022
 749,61; 7476,272;  300,681;54390,332;13,26611
 750,17; 7536,717;  283,219;54278,903;13,43348
 750,74; 7528,161;  277,758;54366,013;13,40477
 751,31; 7518,221;  257,527;54280,276;13,44007
 751,88; 7515,128;  248,527;54092,770;13,49559
 752,45; 7591,341;  261,297;54257,187;13,57519
 753,02; 7630,248;  275,836;54152,451;13,65047
 753,58; 7645,385;  256,066;54139,868;13,71343
 754,15; 7603,598;  262,297;54172,824;13,61756
 754,72; 7614,120;  251,221;53984,087;13,70279
 755,29; 7624,411;  251,144;53900,812;13,74336
 755,86; 7661,778;  272,144;54022,537;13,74806
 756,42; 7765,223;  277,606;53864,262;13,97291
 756,99; 7704,821;  232,837;53793,294;13,95056
 757,56; 7744,343;  241,299;53789,250;14,01182
 758,13; 7705,326;  203,837;53655,513;14,03415
 758,70; 7820,617;  227,837;53819,007;14,16797
 759,26; 7858,369;  223,761;53796,040;14,25104
 759,83; 7914,814;  227,145;53898,996;14,32346
 760,40; 7893,566;  220,607;53773,490;14,32782
 760,97; 7955,395;  206,684;53734,215;14,47612
 761,53; 7900,455;  194,838;53477,093;14,46188
 762,10; 7919,515;  198,300;53415,434;14,50889
 762,67; 7974,883;  239,685;53413,312;14,54706
 763,24; 7979,020;  188,685;53015,883;14,74683
 763,80; 8055,003;  221,608;53123,762;14,80733
 764,37; 8080,909;  231,301;53059,487;14,85875
 764,94; 8013,277;  206,916;52664,135;14,88138
 765,50; 8056,491;  206,455;52671,552;14,96240
 766,07; 8108,935;  246,763;52760,123;14,97176
 766,64; 8090,226;  230,071;52480,002;15,04338
 767,21; 8121,901;  234,917;52422,573;15,11274
 767,77; 8147,115;  247,533;52276,298;15,18311
 768,34; 8151,867;  249,225;52155,792;15,22474
 768,91; 8167,004;  259,764;52043,286;15,26980
 769,47; 8253,449;  251,225;52139,242;15,42210
 770,04; 8257,047;  264,687;51952,813;15,46266
 770,61; 8220,338;  236,841;51735,307;15,50240
 771,18; 8249,475;  234,226;51612,032;15,60061
 771,74; 8312,074;  250,303;51738,449;15,65753
 772,31; 8311,903;  248,842;51466,020;15,74288
 772,88; 8307,732;  233,227;51263,130;15,82309
 773,44; 8294,023;  233,842;51122,008;15,83901
 774,01; 8383,929;  251,996;51224,656;15,95352
 774,58; 8347,373;  233,996;50888,304;16,01715
 775,14; 8383,587;  235,458;51025,260;16,04285
 775,71; 8410,878;  237,843;50967,216;16,11105
 776,27; 8515,246;  292,535;50793,171;16,28239
 776,84; 8541,075;  312,382;50826,204;16,28998
 777,41; 8526,443;  250,843;50707,313;16,40146
 777,97; 8457,272;  232,844;50352,654;16,40954
 778,54; 8540,024;  253,921;50504,686;16,48951
 779,11; 8523,930;  277,613;50507,103;16,41728
 779,67; 8610,760;  232,152;50429,597;16,69130
 780,24; 8584,358;  245,075;50142,399;16,71289
 780,80; 8619,880;  256,229;50187,355;16,75037
 781,37; 8657,093;  259,922;50234,541;16,80287
 781,94; 8631,615;  245,076;49895,805;16,89107
 782,50; 8728,060;  255,307;49874,453;17,07557
 783,07; 8725,658;  282,307;49903,716;17,01554
 783,63; 8759,795;  245,615;49698,749;17,21666
 784,20; 8775,163;  270,230;49693,858;17,20823
 784,77; 8761,607;  254,307;49472,121;17,28500
 785,33; 8776,975;  235,615;49215,231;17,43860
 785,90; 8824,420;  250,615;49152,110;17,53281
 786,46; 8855,172;  271,154;49195,912;17,54535
 787,03; 8830,693;  238,770;48977,790;17,62843
 787,59; 8894,061;  242,077;48896,284;17,78260
 788,16; 8923,813;  267,539;48776,009;17,84487
 788,73; 8947,104;  254,847;48713,196;17,93758
 789,29; 8868,779;  256,155;48378,921;17,89719
 789,86; 8967,993;  269,924;48267,876;18,12175
 790,42; 8962,207;  253,078;48128,601;18,19119
 790,99; 8927,498;  267,079;47734,018;18,24516
 791,55; 8923,943;  245,079;47775,589;18,25956
 792,12; 8981,695;  269,464;47799,622;18,32990
 792,68; 8957,370;  252,848;47445,578;18,44462
 793,25; 8968,276;  266,772;47228,072;18,52910
 793,81; 8997,182;  308,233;46888,720;18,65362
 794,38; 8910,627;  230,157;46650,829;18,69958
 794,94; 8930,072;  245,080;46508,323;18,77299
 795,51; 8965,132;  261,465;46316,664;18,89834
 796,07; 8905,422;  248,849;46133,619;18,86590
 796,64; 8972,713;  262,773;46243,421;18,94262
 797,20; 8880,696;  265,081;45729,300;18,95032
 797,77; 8871,064;  228,158;45376,871;19,14320
 798,33; 8868,124;  257,004;45163,673;19,17559
 798,90; 8875,876;  268,697;45148,398;19,17834
 799,46; 8868,090;  256,235;44629,276;19,40785
 800,03; 8850,381;  256,851;44571,155;19,39223
 800,59; 8904,825;  266,697;44501,495;19,52790
 801,15; 8854,501;  273,620;44183,528;19,54201
 801,72; 8809,484;  259,159;43876,099;19,60322
 802,28; 8781,775;  284,236;43500,362;19,66289
 802,85; 8705,527;  258,698;43368,626;19,59370
 803,41; 8701,202;  250,160;43170,274;19,69017
 803,98; 8701,570;  243,621;42748,537;19,89875
 804,54; 8692,399;  257,775;42586,416;19,92652
 805,11; 8679,152;  258,545;42401,987;19,98082
 805,67; 8705,058;  274,006;42356,865;20,03441
 806,23; 8600,887;  260,930;41943,898;20,00807
 806,80; 8613,332;  271,161;41774,315;20,10009
 807,36; 8632,699;  281,238;41802,194;20,11385
 807,93; 8678,298;  275,238;41561,380;20,35322
 808,49; 8553,358;  241,623;41136,336;20,32472
 809,05; 8530,341;  241,392;40972,599;20,35036
 809,62; 8597,785;  273,931;40869,940;20,50412
 810,18; 8633,153;  263,316;40773,434;20,66110
 810,74; 8571,598;  234,393;40609,159;20,64954
 811,31; 8549,273;  241,162;40391,191;20,69266
 811,87; 8559,487;  257,624;40249,378;20,75894
 812,44; 8593,855;  270,932;40269,949;20,80782
 813,00; 8585,530;  209,701;39929,212;21,08744
 813,56; 8650,898;  256,624;39986,168;21,12854
 814,13; 8655,035;  254,163;39874,354;21,20351
 814,69; 8631,864;  253,856;39692,387;21,24321
 815,25; 8572,308;  227,394;39385,189;21,31099
 815,82; 8660,138;  272,856;39304,990;21,48815
 816,38; 8622,275;  288,471;39091,408;21,47725
 816,94; 8573,873;  241,395;38855,286;21,57897
 817,51; 8553,010;  227,010;38595,627;21,70003
 818,07; 8574,455;  243,318;38236,967;21,92771
 818,63; 8565,976;  251,626;38140,384;21,94411
 819,20; 8548,805;  244,934;38040,570;21,97045
 819,76; 8537,404;  231,857;37597,988;22,22747
 820,32; 8534,156;  268,627;37624,559;22,12642
 820,89; 8511,447;  271,858;37278,899;22,26492
 821,45; 8411,738;  238,165;37109,085;22,16807
 822,01; 8409,028;  257,781;36866,580;22,26581
 822,57; 8406,627;  260,627;36712,612;22,34720
 823,14; 8385,379;  226,089;36450,029;22,52458
 823,70; 8385,208;  238,474;36210,677;22,64730
 824,26; 8410,730;  233,705;36074,402;22,81492
 824,82; 8469,021;  256,397;35884,127;23,05121
 825,39; 8303,696;  236,090;35603,467;22,81087
 825,95; 8391,987;  262,398;35685,885;22,94971
 826,51; 8309,816;  251,859;35262,225;23,01592
 827,08; 8357,491;  280,783;35397,257;22,99977
 827,64; 8301,859;  265,091;35188,598;23,01249
 828,20; 8257,919;  236,552;34838,015;23,18216
 828,76; 8339,594;  270,937;34834,509;23,34440
 829,32; 8357,116;  273,860;34666,465;23,50289
 829,89; 8295,253;  232,014;34585,728;23,47123
 830,45; 8340,467;  250,245;34491,068;23,62742
 831,01; 8323,834;  245,322;34326,101;23,70401
 831,57; 8322,971;  239,169;34258,057;23,76269
 832,14; 8354,185;  245,630;34191,012;23,88706
 832,70; 8341,937;  229,938;34120,583;23,93581
 833,26; 8277,690;  207,246;33905,308;23,94928
 833,82; 8303,134;  238,323;33893,571;23,96301
 834,38; 8324,040;  238,554;33813,835;24,08166
 834,95; 8370,254;  234,939;33669,329;24,33218
 835,51; 8346,776;  204,247;33551,285;24,41755
 836,07; 8389,682;  236,863;33623,317;24,41954
 836,63; 8417,973;  260,786;33606,657;24,46236
 837,19; 8383,879;  247,863;33456,613;24,49962
 837,75; 8324,939;  210,555;33150,646;24,63376
 838,32; 8393,922;  261,940;33228,678;24,66723
 838,88; 8416,597;  249,325;33241,711;24,75502
 839,44; 8374,427;  247,787;33182,590;24,67493
 840,00; 8412,871;  247,633;33188,853;24,78730
 840,56; 8349,777;  230,095;32812,039;24,92080
 841,12; 8403,376;  231,249;32823,764;25,07363
 841,68; 8361,820;  201,864;32647,874;25,14934
 842,25; 8426,727;  233,326;32675,214;25,25562
 842,81; 8278,940;  216,865;32375,862;25,06942
 843,37; 8337,770;  203,326;32457,818;25,21957
 843,93; 8366,522;  219,019;32301,235;25,39570
 844,49; 8404,274;  236,327;32407,114;25,38933
 845,05; 8360,257;  202,481;32140,223;25,54275
 845,61; 8456,163;  240,712;32194,333;25,71055
 846,17; 8400,762;  222,558;32115,442;25,64272
 846,73; 8477,360;  241,558;31954,705;25,96968
 847,29; 8387,574;  217,558;31844,969;25,83207
 847,86; 8439,788;  224,405;31739,848;26,06780
 848,42; 8370,925;  217,251;31625,419;25,96036
 848,98; 8416,293;  236,174;31507,528;26,15850
 849,54; 8445,737;  221,944;31605,176;26,20442
 850,10; 8445,028;  239,713;31471,439;26,27237
 850,66; 8464,550;  209,329;31321,164;26,53402
 851,22; 8411,686;  212,406;31243,735;26,42259
 851,78; 8536,054;  258,945;31300,537;26,66458
 852,34; 8489,576;  238,945;31069,031;26,76162
 852,90; 8455,559;  223,406;30879,756;26,85301
 853,46; 8432,926;  207,022;30728,712;26,95101
 854,02; 8474,525;  230,561;30788,667;26,97799
 854,58; 8451,354;  227,715;30500,315;27,16529
 855,14; 8390,491;  213,023;30355,040;27,12980
 855,70; 8359,705;  195,792;30256,227;27,15833
 856,26; 8406,226;  236,485;30235,336;27,23352
 856,82; 8389,209;  216,869;30076,369;27,36931
 857,38; 8396,731;  251,639;29990,401;27,38881
 857,94; 8340,560;  217,870;29903,972;27,36193
 858,50; 8348,543;  237,485;29723,774;27,50790
 859,06; 8289,372;  221,562;29591,422;27,46969
 859,62; 8352,971;  232,716;29511,224;27,73452
 860,18; 8316,185;  230,178;29303,103;27,81284
 860,74; 8301,399;  202,486;29158,597;27,96961
 861,30; 8266,305;  208,794;29032,706;27,95426
 861,86; 8315,596;  256,794;29131,739;27,90932
 862,42; 8303,656;  226,948;28895,002;28,17320
 862,98; 8306,331;  257,641;28947,496;28,05413
 863,54; 8287,006;  230,948;28754,067;28,24396
 864,10; 8349,989;  217,564;28841,331;28,41144
 864,66; 8276,819;  206,410;28451,594;28,57269
 865,22; 8340,032;  221,026;28344,165;28,86949
 865,78; 8321,246;  228,565;28329,044;28,79909
 866,34; 8315,075;  204,411;28194,923;28,97648
 866,90; 8311,520;  231,411;28029,186;29,06747
 867,45; 8303,349;  226,180;27833,834;29,25699
 868,01; 8269,486;  232,335;27762,097;29,19441
 868,57; 8207,546;  226,335;27564,284;29,19462
 869,13; 8205,145;  215,412;27424,547;29,36416
 869,69; 8209,051;  223,720;27325,657;29,46406
 870,25; 8146,111;  205,104;27248,074;29,36440
 870,81; 8207,017;  214,797;27234,183;29,57958
 871,37; 8224,077;  228,259;27130,062;29,72224
 871,93; 8205,598;  237,951;26948,402;29,82970
 872,49; 8128,428;  250,259;26770,127;29,70667
 873,04; 8116,103;  205,105;26583,621;29,99031
 873,60; 8124,086;  203,644;26479,423;30,14351
 874,16; 8177,915;  228,798;26312,994;30,47484
 874,72; 8129,223;  234,798;26265,994;30,32679
 875,28; 8156,377;  225,952;26218,071;30,51088
 875,84; 8148,838;  221,413;26150,840;30,57308
 876,40; 8139,608;  223,260;26084,687;30,61064
 876,95; 8193,915;  229,567;26084,763;30,80367
 877,51; 8207,838;  254,106;26150,917;30,71317
 878,07; 8225,454;  258,567;26079,302;30,85461
 878,63; 8219,838;  224,490;26101,071;30,89801
 879,19; 8255,377;  245,644;26162,610;30,90536
 879,75; 8304,762;  215,183;26039,763;31,32511
 880,30; 8326,146;  219,798;26138,302;31,27630
 880,86; 8398,223;  270,183;26322,071;31,19943
 881,42; 8406,454;  204,952;26312,917;31,41379
 881,98; 8519,300;  234,644;26374,687;31,69335
 882,54; 8554,608;  218,952;26490,456;31,72889
 883,09; 8589,454;  236,644;26540,917;31,75457
 883,65; 8595,838;  208,413;26670,302;31,69625
 884,21; 8751,992;  251,490;26876,994;31,92616
 884,77; 8794,531;  212,875;26862,302;32,20203
 885,32; 8834,377;  221,798;27080,840;32,06584
 885,88; 8898,377;  257,721;27137,225;32,14589
 886,44; 9005,838;  234,875;27328,302;32,37303
 887,00; 9017,992;  251,106;27380,533;32,31505
 887,56; 9066,608;  213,413;27505,687;32,43846
 888,11; 9095,146;  221,260;27419,456;32,62675
 888,67; 9128,762;  261,260;27616,302;32,41633
 889,23; 9139,300;  234,413;27533,687;32,61950
 889,79; 9141,223;  210,260;27540,917;32,67746
 890,34; 9167,146;  226,106;27470,071;32,81843
 890,90; 9281,685;  294,644;27616,994;32,89263
 891,46; 9196,069;  220,798;27534,533;32,85992
 892,01; 9241,223;  244,644;27523,456;32,98010
 892,57; 9271,146;  260,413;27453,302;33,13636
 893,13; 9211,838;  229,029;27264,763;33,22569
 893,69; 9290,223;  219,183;27267,533;33,53639
 894,24; 9159,685;  226,567;27064,456;33,28547
 894,80; 9200,915;  234,952;26923,840;33,59437
 895,36; 9165,685;  236,644;26942,533;33,43473
 895,91; 9078,300;  227,337;26708,610;33,42348
 896,47; 9043,762;  231,183;26520,610;33,52138
 897,03; 9014,223;  225,490;26411,610;33,56256
 897,58; 9020,454;  231,875;26314,302;33,69540
 898,14; 8999,223;  231,798;26087,994;33,90841
 898,70; 8902,762;  210,952;26039,917;33,65140
 899,25; 8985,377;  222,567;25972,994;34,02976
 899,81; 8954,915;  241,567;25747,610;34,16190
 900,37; 8864,300;  203,337;25559,994;34,15657
 900,92; 8950,223;  228,029;25551,225;34,44350
 901,48; 8880,300;  232,567;25357,148;34,41941
 902,03; 8836,915;  230,106;25230,763;34,42633
 902,59; 8872,608;  229,029;25168,456;34,65829
 903,15; 8830,300;  242,721;25028,917;34,64662
 903,70; 8700,915;  230,721;24732,148;34,57021
 904,26; 8728,608;  220,413;24704,071;34,75050
 904,82; 8757,069;  231,183;24668,533;34,88875
 905,37; 8765,838;  237,490;24476,148;35,18490
 905,93; 8685,223;  212,721;24354,610;35,09461
 906,48; 8708,454;  234,183;24239,071;35,30227
 907,04; 8659,608;  245,490;24157,302;35,18812
 907,60; 8622,762;  224,567;23999,225;35,32414
 908,15; 8610,223;  215,260;23918,379;35,41713
 908,71; 8634,915;  234,413;23916,379;35,47215
 909,26; 8608,454;  219,029;23684,071;35,75287
 909,82; 8625,454;  238,413;23621,148;35,86852
 910,37; 8585,992;  267,567;23505,302;35,79706
 910,93; 8467,838;  208,721;23351,456;35,68773
 911,48; 8496,069;  207,644;23160,302;36,11096
 912,04; 8471,300;  216,567;23097,225;36,07734
 912,60; 8509,915;  226,260;23162,610;36,11584
 913,15; 8435,685;  230,106;22853,994;36,26953
 913,71; 8353,608;  207,183;22832,379;36,00599
 914,26; 8371,915;  206,490;22688,994;36,31902
 914,82; 8361,992;  222,875;22636,225;36,31370
 915,37; 8336,223;  226,029;22542,763;36,34131
 915,93; 8357,762;  272,644;22429,302;36,49069
 916,48; 8321,146;  208,952;22349,225;36,63999
 917,04; 8345,762;  239,567;22178,302;36,94923
 917,59; 8319,300;  240,029;22202,225;36,78717
 918,15; 8250,377;  191,413;21888,763;37,14262
 918,70; 8255,915;  211,644;21913,225;37,06767
 919,26; 8222,608;  224,490;21790,456;37,08676
 919,81; 8174,069;  210,644;21615,610;37,20363
 920,37; 8204,146;  221,260;21555,071;37,41894
 920,92; 8131,685;  229,875;21505,917;37,13947
 921,48; 8104,838;  199,260;21192,610;37,65754
 922,03; 8123,762;  213,337;21282,533;37,54498
 922,59; 8112,838;  220,721;21178,225;37,65772
 923,14; 8008,069;  210,644;20958,840;37,58122
 923,69; 8065,915;  242,029;20983,687;37,72064
 924,25; 8069,069;  241,337;20912,917;37,86712
 924,80; 7978,915;  212,029;20666,917;37,97081
 925,36; 7964,762;  218,183;20677,763;37,86284
 925,91; 7904,992;  207,567;20433,225;38,05772
 926,47; 7899,454;  197,644;20463,071;38,00467
 927,02; 7922,223;  262,183;20304,302;38,21971
 927,57; 7867,454;  222,260;20204,763;38,25944
 928,13; 7825,915;  200,644;20080,379;38,35701
 928,68; 7823,223;  219,490;20057,533;38,32905
 929,24; 7764,531;  189,567;19852,994;38,52311
 929,79; 7788,531;  204,644;19766,225;38,76929
 930,34; 7754,377;  217,875;19599,148;38,88548
 930,90; 7693,146;  208,413;19598,071;38,60168
 931,45; 7739,069;  226,798;19589,687;38,79727
 932,01; 7712,838;  225,875;19484,917;38,87506
 932,56; 7641,069;  241,029;19277,610;38,87274
 933,11; 7670,377;  236,183;19262,456;39,07331
 933,67; 7590,992;  202,029;19151,994;38,99196
 934,22; 7574,915;  223,644;19085,840;38,97357
 934,77; 7554,300;  240,567;19040,840;38,90227
 935,33; 7510,377;  224,952;18787,071;39,24889
 935,88; 7477,300;  227,337;18815,687;39,00273
 936,43; 7463,838;  214,644;18585,071;39,46122
 936,99; 7380,915;  230,337;18601,071;38,92375
 937,54; 7340,915;  210,490;18365,994;39,27418
 938,09; 7408,608;  230,260;18385,763;39,53814
 938,65; 7315,531;  230,567;18225,610;39,37175
 939,20; 7310,762;  208,337;18174,610;39,53199
 939,75; 7300,069;  207,337;18083,302;39,67748
 940,31; 7215,915;  204,567;17974,148;39,45703
 940,86; 7261,838;  221,798;17970,687;39,66468
 941,41; 7264,223;  278,106;17849,225;39,75909
 941,96; 7125,300;  214,183;17739,302;39,43549
 942,52; 7172,762;  207,183;17673,225;39,88069
 943,07; 7064,685;  188,567;17594,379;39,50472
 943,62; 7076,762;  210,952;17491,994;39,73030
 944,18; 7101,915;  200,029;17384,456;40,16361
 944,73; 7110,146;  213,413;17338,687;40,27225
 945,28; 6999,377;  186,337;17155,763;40,14891
 945,83; 7019,762;  216,029;17138,225;40,20597
 946,39; 6994,377;  206,952;17032,148;40,34084
 946,94; 7001,838;  233,183;17082,763;40,17106
 947,49; 6937,454;  212,798;16888,379;40,32637
 948,04; 6971,531;  233,413;16788,994;40,69998
 948,59; 6905,146;  234,875;16769,225;40,34190
 949,15; 6904,762;  200,798;16703,917;40,62240
 949,70; 6895,069;  213,490;16628,071;40,70514
 950,25; 6819,762;  234,875;16506,148;40,46940
 950,80; 6813,762;  175,029;16403,687;40,90747
 951,36; 6826,992;  186,490;16339,148;41,11089
 951,91; 6848,608;  227,106;16320,840;41,14335
 952,46; 6747,685;  192,798;16107,840;41,18674
 953,01; 6810,223;  225,183;16155,071;41,33764
 953,56; 6739,608;  195,567;16003,687;41,39670
 954,11; 6721,454;  222,106;16020,917;41,13821
 954,67; 6711,915;  211,721;15927,225;41,36167
 955,22; 6646,377;  193,106;15771,687;41,42400
 955,77; 6715,838;  227,567;15740,610;41,82462
 956,32; 6669,838;  253,952;15657,610;41,65171
 956,87; 6611,838;  205,029;15556,687;41,73367
 957,42; 6584,377;  209,413;15469,687;41,77490
 957,98; 6549,454;  201,106;15390,456;41,79473
 958,53; 6585,069;  233,413;15342,148;42,03963
 959,08; 6547,300;  209,798;15222,917;42,21309
 959,63; 6514,992;  199,721;15171,610;42,18086
 960,18; 6493,685;  228,952;15133,533;42,03226
 960,73; 6478,300;  210,490;15066,225;42,19118
 961,28; 6433,992;  198,798;14966,533;42,22174
 961,83; 6449,146;  229,644;14875,610;42,46563
 962,39; 6404,992;  187,106;14830,994;42,46062
 962,94; 6419,838;  223,644;14681,687;42,85638
 963,49; 6381,069;  223,029;14572,840;42,91374
 964,04; 6420,454;  228,567;14541,533;43,26068
 964,59; 6341,069;  189,644;14497,610;42,99301
 965,14; 6356,992;  219,798;14450,148;43,12750
 965,69; 6285,685;  209,567;14309,687;43,09267
 966,24; 6265,838;  208,567;14240,840;43,16671
 966,79; 6246,377;  226,413;14153,302;43,22547
 967,34; 6176,838;  195,567;14021,917;43,25994
 967,89; 6173,531;  206,260;13932,840;43,47238
 968,44; 6203,992;  217,490;13869,840;43,84961
 968,99; 6172,146;  223,183;13789,379;43,85137
 969,55; 6135,838;  220,952;13681,302;43,94304
 970,10; 6101,992;  223,490;13670,917;43,71470
 970,65; 6113,454;  237,183;13548,917;44,14354
 971,20; 6067,300;  202,875;13451,302;44,26507
 971,75; 5990,992;  183,721;13331,071;44,17066
 972,30; 5957,608;  226,798;13326,225;43,74855
 972,85; 5906,608;  199,644;13197,533;43,90685
 973,40; 5932,608;  198,490;13063,302;44,57211
 973,95; 5915,992;  217,490;13014,148;44,53117
 974,50; 5892,454;  228,337;12915,763;44,64355
 975,05; 5843,608;  216,106;12833,379;44,60157
 975,60; 5853,531;  221,875;12801,302;44,76878
 976,15; 5785,069;  219,183;12669,225;44,70576
 976,70; 5757,608;  221,567;12644,610;44,56268
 977,25; 5773,992;  224,337;12556,917;44,99995
 977,80; 5695,300;  209,952;12405,763;44,97731
 978,35; 5652,685;  226,183;12277,917;45,02673
 978,89; 5618,069;  192,798;12233,071;45,05937
 979,44; 5638,146;  221,106;12146,610;45,42400
 979,99; 5602,377;  201,413;11979,763;45,85501
 980,54; 5576,146;  232,952;11965,840;45,54031
 981,09; 5552,300;  237,029;11898,917;45,57813
 981,64; 5500,685;  221,644;11731,148;45,86679
 982,19; 5488,685;  252,183;11704,379;45,72487
 982,74; 5422,915;  226,644;11581,763;45,76148
 983,29; 5387,223;  204,413;11452,687;46,07649
 983,84; 5326,608;  221,183;11384,687;45,73318
 984,39; 5348,838;  270,413;11316,917;45,97314
 984,94; 5275,069;  196,183;11127,379;46,46231
 985,49; 5269,992;  241,260;11073,071;46,42559
 986,03; 5211,992;  239,490;11012,610;46,15657
 986,58; 5198,377;  264,260;10886,302;46,45168
 987,13; 5112,454;  222,260;10744,763;46,47367
 987,68; 5103,608;  228,106;10678,610;46,65327
 988,23; 5087,915;  235,183;10680,917;46,45660
 988,78; 5008,531;  207,029;10469,148;46,78860
 989,33; 5007,454;  244,183;10394,763;46,92609
 989,88; 5031,838;  249,721;10333,840;47,42226
 990,42; 4923,608;  214,490;10215,994;47,08409
 990,97; 4875,838;  214,029;10109,763;47,10928
 991,52; 4866,146;  240,721;10078,302;47,01791
 992,07; 4806,992;  261,106; 9958,840;46,87576
 992,62; 4775,992;  231,106; 9851,148;47,24394
 993,17; 4758,685;  240,875; 9734,533;47,58766
 993,71; 4767,915;  239,952; 9705,302;47,83725
 994,26; 4638,608;  208,952; 9585,071;47,24402
 994,81; 4696,377;  243,029; 9526,148;47,97254
 995,36; 4614,300;  217,106; 9366,225;48,06139
 995,91; 4616,915;  225,183; 9292,687;48,43376
 996,45; 4533,069;  227,183; 9195,687;48,01120
 997,00; 4469,300;  203,183; 9082,302;48,04663
 997,55; 4492,838;  228,413; 9089,687;48,12429
 998,10; 4451,377;  250,029; 8904,225;48,54695
 998,65; 4419,223;  231,798; 8834,840;48,67377
 999,19; 4312,531;  243,029; 8749,456;47,84032
 999,74; 4302,146;  234,798; 8674,533;48,19284
1000,29; 4233,454;  242,183; 8586,687;47,83114
1000,84; 4200,454;  219,413; 8432,917;48,46945
1001,38; 4170,377;  229,798; 8328,071;48,65950
1001,93; 4136,454;  239,952; 8324,379;48,19763
1002,48; 4073,608;  218,413; 8117,840;48,80347
1003,03; 4047,531;  236,798; 8113,071;48,38243
1003,57; 4008,069;  239,644; 7983,610;48,66273
1004,12; 3994,992;  261,413; 7926,917;48,70624
1004,67; 3948,685;  228,183; 7833,917;48,91706
1005,22; 3898,915;  213,567; 7710,456;49,15837
1005,76; 3823,146;  204,106; 7588,225;49,01113
1006,31; 3825,146;  245,106; 7535,225;49,10812
1006,86; 3752,685;  227,106; 7445,225;48,84346
1007,40; 3685,838;  206,260; 7318,379;48,92464
1007,95; 3641,915;  225,337; 7230,456;48,77260
1008,50; 3596,146;  243,567; 7130,379;48,68115
1009,04; 3585,223;  225,337; 7031,071;49,36846
1009,59; 3518,608;  231,875; 6879,687;49,44082
1010,14; 3427,762;  221,183; 6783,225;48,86556
1010,68; 3417,838;  225,260; 6735,225;49,04141
1011,23; 3382,838;  213,721; 6606,302;49,57493
1011,78; 3381,454;  230,029; 6518,994;50,11039
1012,32; 3316,146;  246,875; 6430,225;49,63767
1012,87; 3310,300;  245,644; 6391,840;49,86264
1013,42; 3229,685;  216,413; 6275,763;49,72928
1013,96; 3279,992;  251,337; 6292,687;50,13210
1014,51; 3174,915;  187,952; 6186,225;49,79706
1015,06; 3197,069;  203,337; 6183,225;50,06335
1015,60; 3225,992;  258,798; 6229,763;49,69371
1016,15; 3205,762;  223,952; 6194,533;49,94170
1016,69; 3214,454;  218,490; 6249,225;49,67825
1017,24; 3209,992;  204,567; 6251,071;49,70517
1017,79; 3241,762;  247,952; 6322,610;49,28359
1018,33; 3255,300;  208,798; 6294,148;50,06289
1018,88; 3278,915;  234,644; 6369,148;49,62539
1019,42; 3301,069;  213,567; 6337,917;50,41354
1019,97; 3288,838;  209,490; 6343,763;50,19907
1020,51; 3313,069;  238,337; 6399,071;49,90854
1021,06; 3299,915;  197,260; 6375,840;50,21632
1021,61; 3276,300;  183,337; 6371,302;49,98353
1022,15; 3271,069;  171,952; 6338,610;50,25603
1022,70; 3266,992;  211,337; 6305,763;50,13853
1023,24; 3225,838;  211,106; 6307,917;49,44769
1023,79; 3203,454;  225,644; 6242,610;49,49022
1024,33; 3203,146;  208,567; 6146,763;50,42910
1024,88; 3165,838;  222,875; 6127,302;49,84334
1025,42; 3090,608;  213,183; 5989,302;49,81589
1025,97; 3063,300;  208,183; 5937,610;49,83251
1026,51; 2967,300;  188,183; 5812,302;49,41427
1027,06; 2977,454;  203,106; 5776,610;49,77745
1027,60; 2927,454;  224,413; 5656,533;49,76033
1028,15; 2884,915;  228,644; 5570,071;49,72962
1028,69; 2822,992;  187,183; 5457,917;50,00839
1029,24; 2817,454;  201,029; 5413,840;50,19220
1029,78; 2769,915;  198,644; 5283,071;50,57150
1030,33; 2695,992;  192,798; 5191,148;50,08041
1030,87; 2702,531;  205,490; 5153,071;50,46993
1031,42; 2640,454;  194,721; 5033,840;50,54086
1031,96; 2612,223;  216,413; 5004,302;50,03896
1032,51; 2556,377;  192,644; 4923,840;49,96057
1033,05; 2557,377;  217,413; 4854,302;50,46409
1033,60; 2462,762;  191,260; 4731,148;50,03431
1034,14; 2455,300;  213,029; 4687,610;50,11131
1034,69; 2415,454;  201,490; 4605,379;50,27292
1035,23; 2399,608;  211,490; 4546,071;50,48048
1035,77; 2360,454;  213,875; 4543,456;49,57937
1036,32; 2300,992;  178,952; 4452,610;49,65396
1036,86; 2330,069;  213,183; 4367,456;50,95685
1037,41; 2297,992;  216,798; 4314,456;50,78985
1037,95; 2256,069;  186,260; 4246,917;50,97228
1038,50; 2219,992;  198,875; 4213,533;50,34345
1039,04; 2227,838;  216,875; 4176,763;50,78334
1039,58; 2147,300;  198,413; 4087,302;50,11423
1040,13; 2151,531;  213,721; 4031,840;50,75299
1040,67; 2160,992;  233,952; 4042,148;50,60245
1041,21; 2116,992;  235,567; 3937,840;50,81810
1041,76; 2052,915;  187,875; 3880,917;50,50146
1042,30; 2033,069;  205,952; 3822,687;50,51842
1042,85; 1999,608;  213,721; 3760,533;50,35189
1043,39; 1971,685;  195,029; 3645,917;51,48401
1043,93; 1987,531;  226,413; 3657,225;51,33238
1044,48; 1949,454;  210,567; 3598,225;51,33005
1045,02; 1902,685;  207,183; 3529,610;51,03203
1045,56; 1927,685;  227,029; 3501,225;51,94117
1046,11; 1880,685;  218,721; 3483,687;50,90294
1046,65; 1869,069;  216,875; 3398,071;51,93626
1047,19; 1828,146;  199,490; 3356,533;51,58802
1047,74; 1799,685;  194,567; 3310,225;51,51777
1048,28; 1787,762;  214,875; 3257,148;51,70103
1048,82; 1773,762;  229,875; 3236,071;51,35681
1049,37; 1757,608;  231,413; 3183,071;51,70634
1049,91; 1743,300;  220,567; 3134,533;52,25638
1050,45; 1726,454;  234,490; 3112,456;51,84091
1050,99; 1694,377;  209,952; 3043,302;52,39116
1051,54; 1669,608;  201,721; 2997,533;52,50306
1052,08; 1672,069;  235,952; 2957,610;52,76627
1052,62; 1633,223;  222,798; 2949,610;51,72433
1053,16; 1598,838;  204,875; 2872,456;52,25572
1053,71; 1606,069;  229,875; 2844,840;52,62763
1054,25; 1599,838;  218,337; 2780,456;53,92028
1054,79; 1581,300;  212,798; 2783,533;53,23389
1055,33; 1512,992;  189,337; 2702,610;52,66661
1055,88; 1551,454;  221,567; 2684,302;54,00040
1056,42; 1542,531;  231,798; 2657,148;54,04303
1056,96; 1514,762;  224,490; 2626,687;53,71215
1057,50; 1478,838;  223,567; 2588,379;53,08123
1058,05; 1458,531;  215,721; 2517,994;53,98185
1058,59; 1444,608;  237,413; 2514,533;53,01410
1059,13; 1432,992;  192,798; 2448,917;54,97024
1059,67; 1406,300;  225,413; 2413,071;53,97949
1060,21; 1384,608;  221,260; 2392,379;53,58287
1060,76; 1383,685;  231,952; 2373,610;53,77763
1061,30; 1384,608;  240,567; 2339,994;54,49298
1061,84; 1341,915;  215,875; 2290,533;54,27596
1062,38; 1304,915;  210,644; 2223,994;54,35077
1062,92; 1336,377;  251,490; 2261,533;53,97332
1063,46; 1311,146;  239,490; 2193,071;54,85597
1064,01; 1271,531;  209,798; 2161,687;54,39515
1064,55; 1253,992;  230,413; 2137,148;53,68229
1065,09; 1212,069;  198,106; 2081,148;53,84709
1065,63; 1287,915;  254,260; 2103,917;55,88363
1066,17; 1254,223;  250,337; 2071,379;55,12703
1066,71; 1229,762;  241,183; 2052,533;54,57691
1067,25; 1196,069;  221,644; 1987,840;55,17083
1067,80; 1200,300;  237,413; 1981,917;55,19544
1068,34; 1209,608;  257,337; 1969,379;55,62194
1068,88; 1160,146;  225,490; 1907,533;55,56672
1069,42; 1168,377;  254,952; 1935,840;54,34180
1069,96; 1126,377;  225,952; 1885,071;54,27127
1070,50; 1138,992;  256,798; 1878,379;54,40335
1071,04; 1105,762;  216,337; 1818,456;55,51553
1071,58; 1090,300;  219,721; 1813,763;54,61454
1072,12; 1076,685;  219,413; 1766,071;55,42734
1072,66; 1079,992;  216,260; 1775,994;55,37690
1073,21; 1082,377;  230,260; 1769,148;55,37226
1073,75; 1039,223;  232,952; 1724,071;54,07154
1074,29; 1034,685;  227,644; 1711,687;54,38122
1074,83; 1043,531;  238,029; 1710,071;54,72003
1075,37; 1036,685;  240,106; 1682,763;55,21607
1075,91; 1011,454;  240,106; 1678,687;53,61868
1076,45; 1014,146;  236,183; 1638,763;55,46657
1076,99; 1017,762;  243,260; 1613,225;56,53442
1077,53;  964,762;  219,721; 1585,225;54,56157
1078,07;  969,838;  233,644; 1603,225;53,75325
1078,61;  958,992;  226,644; 1542,071;55,67379
1079,15;  930,531;  222,337; 1536,302;53,89748
1079,69;  939,069;  233,260; 1518,456;54,91844
1080,23;  941,146;  244,029; 1516,456;54,78643
1080,77;  961,992;  263,260; 1528,687;55,21715
1081,31;  914,608;  226,029; 1467,071;55,48391
1081,85;  921,915;  236,337; 1460,687;55,99533
1082,39;  884,762;  224,413; 1428,763;54,83025
1082,93;  896,377;  234,952; 1434,071;55,15924
1083,47;  854,146;  212,567; 1393,994;54,30542
1084,01;  907,300;  238,490; 1411,763;57,00375
1084,55;  863,069;  225,490; 1355,456;56,42464
1085,09;  861,531;  245,644; 1366,225;54,96137
1085,63;  836,762;  231,106; 1337,148;54,75882
1086,17;  825,992;  225,260; 1316,994;55,02552
1086,71;  828,454;  219,952; 1281,302;57,33282
1087,24;  852,915;  257,490; 1297,840;57,23314
1087,78;  831,762;  243,721; 1308,302;55,23680
1088,32;  804,531;  217,875; 1249,225;56,88232
1088,86;  823,608;  251,644; 1246,994;57,46355
1089,40;  805,992;  231,952; 1233,533;57,31344
1089,94;  770,069;  202,875; 1207,763;56,44350
1090,48;  786,838;  246,183; 1217,071;55,68670
1091,02;  787,685;  249,413; 1206,379;56,24771
1091,56;  760,223;  229,644; 1182,533;55,68111
1092,10;  739,300;  214,952; 1152,456;55,93023
1092,63;  772,300;  242,952; 1179,994;56,49137
1093,17;  748,377;  228,183; 1145,917;56,68242
1093,71;  717,454;  222,798; 1115,225;55,42815
1094,25;  737,608;  251,644; 1126,302;55,56042
1094,79;  723,685;  230,183; 1088,302;57,50971
1095,33;  699,223;  229,183; 1093,225;54,40016
1095,87;  717,377;  235,183; 1074,610;57,44326
1096,40;  678,146;  212,106; 1042,687;56,11018
1096,94;  686,377;  232,183; 1052,302;55,38149
1097,48;  703,377;  244,798; 1048,687;57,04508
1098,02;  673,454;  221,337; 1013,148;57,09911
1098,56;  656,838;  203,567;  984,071;58,07417
1099,10;  634,992;  202,260;  984,610;55,31191
1099,63;  646,454;  210,029;  972,456;57,24155
1100,17;  643,531;  236,260;  985,071;54,38901
1100,71;  671,531;  245,413; 1000,763;56,41323

