
Integration time [ms]: 120,000
Averaging Nr. [scans]: 13
Smoothing Nr. [pixels]: 0
Data measured with spectrometer [name]: 2009305U1
Wave   ;Sample   ;Dark     ;Reference;Reflectance
[nm]   ;[counts] ;[counts] ;[counts] ;[%]

 175,72;  196,766;  200,110;  202,873;-121,04763
 176,32;  230,495;  231,332;  217,715; 0,00000
 176,92;  254,043;  245,184;  240,921; 0,00000
 177,52;  262,295;  250,109;  256,275;197,62354
 178,12;  225,392;  223,102;  218,213; 0,00000
 178,72;  254,939;  248,022;  243,330; 0,00000
 179,32;  244,945;  256,178;  243,824; 0,00000
 179,92;  252,385;  241,720;  245,617;273,67380
 180,52;  238,131;  230,730;  241,246;70,37527
 181,12;  245,848;  248,567;  250,061;-182,02744
 181,73;  262,368;  265,952;  273,731;-46,08020
 182,33;  330,948;  337,265;  342,339;-124,48483
 182,93;  264,710;  258,493;  264,171;109,49425
 183,53;  239,210;  235,252;  221,768; 0,00000
 184,13;  235,058;  230,330;  222,348; 0,00000
 184,73;  270,408;  263,712;  262,061; 0,00000
 185,33;  255,616;  222,813;  335,622;29,07875
 185,93;  256,230;  225,114;  349,529;25,00994
 186,53;  271,504;  238,117;  379,892;23,54919
 187,13;  294,153;  271,894;  396,171;17,91080
 187,73;  269,027;  225,807;  353,841;33,75687
 188,33;  262,091;  238,650;  368,758;18,01710
 188,93;  268,598;  246,946;  366,563;18,10112
 189,53;  274,266;  240,552;  363,460;27,43006
 190,13;  307,664;  275,692;  394,159;26,98851
 190,73;  244,959;  213,317;  352,390;22,75233
 191,34;  286,832;  251,866;  378,765;27,55403
 191,94;  266,128;  235,107;  360,268;24,78487
 192,54;  271,976;  241,591;  390,133;20,45518
 193,14;  268,294;  257,816;  388,913; 7,99259
 193,74;  277,612;  252,969;  383,609;18,86311
 194,34;  274,104;  254,664;  378,868;15,65181
 194,94;  245,555;  210,354;  355,117;24,31648
 195,54;  227,424;  192,813;  337,228;23,96652
 196,14;  251,737;  222,204;  355,041;22,23265
 196,74;  233,153;  220,965;  336,888;10,51350
 197,34;  234,082;  185,516;  340,966;31,24209
 197,94;  251,761;  223,202;  369,904;19,46738
 198,54;  263,110;  229,435;  370,150;23,93171
 199,14;  245,797;  206,826;  380,207;22,47696
 199,74;  234,843;  199,672;  362,157;21,64559
 200,34;  226,860;  185,981;  386,732;20,36295
 200,94;  257,842;  229,284;  404,812;16,26964
 201,54;  247,983;  207,440;  424,455;18,68226
 202,14;  263,389;  227,059;  472,480;14,80308
 202,74;  247,100;  203,210;  476,428;16,06405
 203,34;  237,774;  186,447;  469,920;18,10656
 203,94;  206,775;  160,060;  478,769;14,65744
 204,54;  279,342;  241,433;  552,751;12,17708
 205,14;  247,247;  184,749;  573,546;16,07462
 205,74;  289,605;  223,754;  647,558;15,53791
 206,34;  254,716;  202,829;  669,407;11,12082
 206,94;  270,114;  203,674;  729,266;12,64111
 207,54;  243,819;  172,905;  753,909;12,20544
 208,14;  264,824;  202,675;  838,670; 9,77196
 208,74;  277,888;  200,902;  898,202;11,04059
 209,34;  272,651;  193,211;  981,994;10,07123
 209,94;  294,393;  202,441; 1071,279;10,58329
 210,54;  296,283;  201,753; 1188,471; 9,58028
 211,14;  302,993;  207,595; 1267,456; 9,00096
 211,73;  308,863;  206,439; 1390,455; 8,65055
 212,33;  329,718;  215,438; 1522,708; 8,74194
 212,93;  319,103;  208,594; 1566,379; 8,13892
 213,53;  295,935;  178,364; 1648,999; 7,99455
 214,13;  324,312;  186,757; 1718,993; 8,97741
 214,73;  325,774;  175,444; 1770,095; 9,42713
 215,33;  294,239;  165,672; 1775,125; 7,98824
 215,93;  348,335;  192,985; 1870,490; 9,26078
 216,53;  307,384;  152,825; 1952,587; 8,58774
 217,13;  380,626;  209,292; 2163,915; 8,76559
 217,73;  361,581;  192,831; 2320,006; 7,93306
 218,33;  353,383;  154,450; 2493,708; 8,50408
 218,93;  415,577;  183,688; 2777,639; 8,93961
 219,53;  455,275;  183,989; 3086,043; 9,34808
 220,13;  427,962;  153,682; 3373,664; 8,51804
 220,73;  494,793;  167,442; 3677,026; 9,32736
 221,32;  541,196;  186,902; 4061,202; 9,14472
 221,92;  587,503;  191,836; 4482,845; 9,22085
 222,52;  597,863;  170,755; 4928,580; 8,97696
 223,12;  660,540;  174,678; 5311,431; 9,45854
 223,72;  713,817;  182,524; 5778,997; 9,49335
 224,32;  753,979;  186,063; 6115,477; 9,57795
 224,92;  775,341;  173,986; 6473,463; 9,54610
 225,52;  840,084;  194,905; 6867,601; 9,66894
 226,12;  872,030;  184,830; 7208,919; 9,78347
 226,72;  886,394;  160,983; 7573,009; 9,78694
 227,31;  927,525;  141,599; 7973,996;10,03430
 227,91; 1006,456;  178,519; 8371,266;10,10573
 228,51; 1034,996;  176,977; 8814,255; 9,93391
 229,11; 1121,882;  179,137; 9285,050;10,35311
 229,71; 1141,342;  173,825; 9549,184;10,31978
 230,31; 1191,105;  161,757;10004,622;10,45780
 230,91; 1262,782;  153,359;10329,852;10,90182
 231,51; 1303,943;  156,216;10676,915;10,90923
 232,10; 1376,252;  165,450;11009,337;11,16575
 232,70; 1432,489;  170,664;11133,945;11,50955
 233,30; 1521,811;  193,985;11455,562;11,79077
 233,90; 1531,404;  168,831;11573,318;11,94769
 234,50; 1602,777;  177,677;11711,639;12,35569
 235,10; 1618,187;  167,525;11729,540;12,54679
 235,70; 1690,244;  196,058;11761,655;12,91923
 236,29; 1727,015;  194,056;11655,487;13,37493
 236,89; 1748,110;  164,052;11549,992;13,91240
 237,49; 1800,095;  182,368;11445,335;14,36324
 238,09; 1766,408;  177,905;11157,638;14,46759
 238,69; 1817,553;  206,973;10872,607;15,10064
 239,29; 1778,253;  169,674;10581,194;15,45000
 239,89; 1772,440;  188,668;10236,698;15,76202
 240,48; 1752,231;  165,444; 9830,009;16,41861
 241,08; 1712,476;  169,827; 9487,945;16,55537
 241,68; 1725,051;  184,752; 9147,968;17,18467
 242,28; 1687,068;  161,061; 8792,526;17,67959
 242,88; 1677,897;  197,757; 8466,405;17,90063
 243,48; 1655,741;  200,291; 8217,308;18,15450
 244,07; 1624,971;  184,673; 7941,714;18,56762
 244,67; 1620,379;  180,983; 7812,186;18,86197
 245,27; 1606,710;  196,593; 7600,147;19,04648
 245,87; 1592,973;  188,680; 7503,269;19,19853
 246,47; 1596,579;  177,593; 7504,161;19,36767
 247,06; 1607,780;  175,212; 7501,380;19,55412
 247,66; 1625,109;  171,598; 7507,502;19,81365
 248,26; 1680,722;  198,594; 7680,252;19,81016
 248,86; 1692,518;  197,517; 7835,908;19,57220
 249,46; 1668,127;  148,370; 8081,196;19,15784
 250,05; 1753,985;  199,290; 8459,647;18,82116
 250,65; 1796,016;  167,670; 8763,473;18,94351
 251,25; 1888,856;  175,212; 9259,936;18,86292
 251,85; 1962,175;  174,898; 9807,639;18,55418
 252,44; 2028,788;  149,441;10404,804;18,32551
 253,04; 2185,870;  181,519;11139,257;18,29166
 253,64; 2240,850;  141,054;11824,061;17,97308
 254,24; 2409,246;  183,059;12767,543;17,68994
 254,84; 2533,435;  169,446;13615,273;17,58158
 255,43; 2654,739;  167,903;14455,596;17,40544
 256,03; 2777,758;  182,977;15537,988;16,89859
 256,63; 2934,702;  195,206;16514,825;16,78652
 257,23; 3028,421;  167,129;17345,771;16,65610
 257,82; 3126,221;  179,203;18351,919;16,21672
 258,42; 3218,322;  147,817;19148,687;16,15981
 259,02; 3353,274;  196,903;20015,338;15,92644
 259,62; 3382,513;  165,508;20715,560;15,65449
 260,21; 3451,108;  179,364;21261,849;15,51878
 260,81; 3478,475;  172,907;21761,326;15,31177
 261,41; 3482,628;  158,203;22124,027;15,13453
 262,01; 3567,346;  201,046;22589,550;15,03584
 262,60; 3512,729;  157,052;22857,540;14,78240
 263,20; 3538,421;  164,978;23198,998;14,64548
 263,80; 3574,519;  187,968;23365,093;14,61161
 264,40; 3496,808;  154,815;23598,994;14,25511
 264,99; 3528,611;  188,660;23715,396;14,19640
 265,59; 3539,166;  169,887;23910,612;14,19198
 266,19; 3501,181;  166,584;24001,890;13,99016
 266,78; 3573,981;  204,735;24111,097;14,09351
 267,38; 3495,360;  178,042;24110,046;13,86143
 267,98; 3492,766;  164,505;24153,613;13,87405
 268,58; 3485,644;  186,041;24180,879;13,75130
 269,17; 3444,020;  168,807;24176,190;13,64252
 269,77; 3427,769;  175,436;24019,286;13,64014
 270,37; 3356,860;  146,276;23861,785;13,53791
 270,96; 3407,209;  212,049;23777,796;13,55849
 271,56; 3292,986;  177,975;23455,503;13,38205
 272,16; 3266,116;  173,279;23345,529;13,34716
 272,75; 3230,374;  176,126;23222,475;13,25263
 273,35; 3268,591;  190,896;23205,077;13,37304
 273,95; 3259,343;  178,433;23172,964;13,39845
 274,54; 3255,158;  162,674;23176,497;13,43750
 275,14; 3311,749;  190,588;23548,240;13,36247
 275,74; 3286,458;  152,741;23612,434;13,35788
 276,33; 3378,350;  199,205;23907,765;13,40927
 276,93; 3417,197;  180,906;24350,471;13,38994
 277,53; 3494,215;  178,056;24808,437;13,46369
 278,12; 3585,080;  156,438;25351,463;13,60841
 278,72; 3709,603;  207,902;25930,003;13,61359
 279,32; 3795,529;  180,517;26427,414;13,77310
 279,91; 3895,413;  160,054;27208,518;13,80987
 280,51; 4045,604;  172,749;27648,370;14,09561
 281,11; 4166,005;  185,439;28417,581;14,09941
 281,70; 4249,204;  164,054;28725,396;14,30308
 282,30; 4381,217;  163,360;29381,042;14,43597
 282,90; 4503,259;  167,821;29798,675;14,63150
 283,49; 4673,714;  187,434;30296,335;14,90018
 284,09; 4783,319;  202,900;30739,558;14,99974
 284,69; 4943,525;  204,670;31083,405;15,34666
 285,28; 5050,888;  199,438;31435,147;15,53174
 285,88; 5261,773;  230,202;31632,624;16,02288
 286,47; 5297,674;  182,898;31767,648;16,19382
 287,07; 5450,868;  201,440;31775,772;16,62562
 287,67; 5647,818;  193,907;31928,385;17,18607
 288,26; 5780,798;  174,286;31735,346;17,76402
 288,86; 5989,354;  175,669;31898,079;18,32674
 289,46; 6247,967;  181,439;31934,342;19,10543
 290,05; 6442,964;  175,827;32059,063;19,65653
 290,65; 6721,412;  186,051;32265,847;20,37220
 291,24; 7010,876;  186,748;32442,252;21,15648
 291,84; 7241,702;  196,052;32541,363;21,78260
 292,44; 7552,080;  185,984;32701,879;22,65383
 293,03; 7890,710;  245,594;32808,206;23,47820
 293,63; 8137,928;  173,744;32892,739;24,34116
 294,22; 8397,555;  204,747;33109,934;24,89823
 294,82; 8609,043;  175,354;33078,696;25,63171
 295,41; 8746,896;  167,823;32895,165;26,21378
 296,01; 8958,280;  214,356;32681,284;26,93179
 296,61; 9027,203;  203,363;32431,641;27,37918
 297,20; 9084,738;  187,202;32167,565;27,82187
 297,80; 9159,069;  200,213;32028,452;28,14751
 298,39; 9175,252;  176,744;31525,101;28,70488
 298,99; 9285,079;  201,280;31317,195;29,19342
 299,58; 9311,794;  191,906;31210,312;29,40154
 300,18; 9301,760;  202,443;31103,624;29,44650
 300,78; 9234,300;  175,210;30692,763;29,68485
 301,37; 9360,883;  196,890;30587,432;30,15409
 301,97; 9410,174;  200,978;30615,713;30,27873
 302,56; 9421,162;  167,975;30574,304;30,43178
 303,16; 9427,342;  171,204;30473,055;30,54644
 303,75; 9504,005;  182,057;30495,945;30,75141
 304,35; 9595,867;  180,063;30724,205;30,82687
 304,94; 9625,255;  179,439;30727,030;30,92164
 305,54; 9630,504;  198,364;30620,356;31,00435
 306,13; 9643,279;  159,601;30588,612;31,16656
 306,73; 9519,045;  171,984;30388,973;30,93313
 307,33; 9600,317;  191,060;30332,163;31,21736
 307,92; 9574,734;  187,594;30310,758;31,16253
 308,52; 9772,622;  162,819;30807,494;31,35880
 309,11; 9924,964;  172,663;31288,728;31,34169
 309,71;10029,281;  157,046;31478,596;31,51899
 310,30;10117,706;  172,286;31699,274;31,54574
 310,90;10290,629;  197,978;32084,043;31,65223
 311,49;10297,887;  178,132;32148,776;31,65327
 312,09;10299,630;  150,981;32308,022;31,55965
 312,68;10491,319;  229,826;32691,229;31,61137
 313,28;10483,195;  153,209;32834,758;31,60801
 313,87;10511,460;  152,824;32955,297;31,57883
 314,47;10542,596;  172,048;33198,764;31,40048
 315,06;10544,868;  151,902;33298,292;31,35475
 315,66;10598,245;  166,904;33516,099;31,27914
 316,25;10566,854;  152,743;33427,322;31,29750
 316,85;10571,380;  149,828;33489,402;31,25880
 317,44;10630,157;  165,432;33660,873;31,24224
 318,04;10540,590;  141,744;33659,151;31,02521
 318,63;10472,826;  153,215;33796,173;30,67391
 319,22;10508,431;  178,590;33947,928;30,58941
 319,82;10507,588;  170,515;33922,260;30,62678
 320,41;10440,151;  187,898;33803,644;30,49837
 321,01;10386,764;  187,058;33865,266;30,28577
 321,60;10387,284;  170,361;33901,423;30,28936
 322,20;10265,122;  157,902;33876,537;29,97518
 322,79;10335,803;  209,287;33900,722;30,05665
 323,39;10270,066;  177,601;33960,788;29,87422
 323,98;10130,658;  162,825;33810,510;29,62413
 324,58;10083,326;  170,127;33727,770;29,54081
 325,17; 9979,485;  167,743;33605,453;29,34334
 325,76; 9914,006;  191,670;33355,179;29,31637
 326,36; 9662,575;  165,673;32990,284;28,93226
 326,95; 9622,696;  190,438;32707,522;29,00708
 327,55; 9424,595;  158,976;32358,834;28,77534
 328,14; 9256,143;  159,444;31926,271;28,63584
 328,74; 9162,193;  198,359;31474,277;28,66050
 329,33; 8975,506;  195,288;31095,474;28,41477
 329,92; 8771,507;  164,355;30551,968;28,32454
 330,52; 8534,259;  180,367;29961,262;28,05118
 331,11; 8385,680;  174,669;29505,160;27,99480
 331,71; 8154,413;  177,824;28992,980;27,68192
 332,30; 8006,025;  194,055;28579,183;27,52135
 332,89; 7881,301;  225,365;28002,515;27,56199
 333,49; 7630,708;  188,361;27531,106;27,21872
 334,08; 7475,507;  180,591;27057,020;27,14243
 334,68; 7308,464;  186,438;26669,617;26,89264
 335,27; 7204,767;  207,060;26367,810;26,74888
 335,86; 7116,296;  230,361;26052,545;26,66674
 336,46; 6962,695;  191,060;25817,512;26,42439
 337,05; 6895,119;  174,130;25724,300;26,30506
 337,65; 6780,861;  164,976;25463,124;26,15166
 338,24; 6816,546;  217,056;25371,759;26,23561
 338,83; 6747,154;  201,902;25236,338;26,14499
 339,43; 6666,858;  165,513;25237,716;25,93049
 340,02; 6666,442;  176,666;25087,761;26,05175
 340,61; 6620,549;  169,440;25166,247;25,80773
 341,21; 6588,808;  206,205;25164,738;25,57283
 341,80; 6513,560;  174,207;25058,929;25,47488
 342,40; 6502,251;  174,290;25211,149;25,27458
 342,99; 6544,301;  167,057;25204,438;25,47089
 343,58; 6478,352;  176,288;25454,705;24,93061
 344,18; 6519,579;  181,673;25509,140;25,02385
 344,77; 6545,330;  163,435;25750,394;24,94198
 345,36; 6610,312;  161,823;26055,291;24,90392
 345,96; 6653,990;  197,750;26293,257;24,74081
 346,55; 6669,455;  163,755;26623,951;24,58674
 347,14; 6719,824;  157,444;26853,977;24,58139
 347,74; 6759,565;  151,220;27355,636;24,29144
 348,33; 6929,321;  173,604;27946,763;24,32463
 348,92; 6987,541;  190,223;28559,542;23,96010
 349,52; 7041,901;  146,606;28931,257;23,95476
 350,11; 7092,103;  173,050;29134,883;23,89024
 350,70; 7074,976;  167,671;29276,265;23,72944
 351,29; 7034,035;  154,735;29067,160;23,79357
 351,89; 7011,876;  178,355;29089,529;23,63626
 352,48; 6982,018;  155,440;28926,668;23,72710
 353,07; 6994,452;  182,830;28953,928;23,67523
 353,67; 6921,318;  183,531;28901,484;23,46194
 354,26; 6840,759;  189,137;28669,254;23,35532
 354,85; 6794,722;  181,828;28536,076;23,32241
 355,45; 6740,848;  157,283;28384,404;23,32354
 356,04; 6755,449;  182,522;28248,824;23,41928
 356,63; 6694,546;  207,131;28047,378;23,30229
 357,22; 6613,980;  183,199;27888,957;23,21099
 357,82; 6603,359;  178,200;27692,655;23,35194
 358,41; 6566,067;  190,285;27660,509;23,20979
 359,00; 6512,870;  160,820;27531,838;23,20721
 359,60; 6495,457;  180,748;27473,329;23,13709
 360,19; 6477,800;  186,523;27226,055;23,26696
 360,78; 6448,684;  173,745;27060,495;23,33840
 361,37; 6393,961;  178,745;26940,368;23,22436
 361,97; 6376,851;  181,977;26819,889;23,25585
 362,56; 6314,506;  169,819;26560,426;23,28361
 363,15; 6315,272;  210,976;26288,164;23,40857
 363,74; 6245,885;  180,818;25944,529;23,54112
 364,34; 6222,427;  191,974;25613,996;23,72137
 364,93; 6102,025;  166,357;25263,824;23,65047
 365,52; 6007,142;  161,899;24817,237;23,70782
 366,11; 5986,035;  182,359;24544,191;23,82282
 366,71; 5918,585;  166,820;24256,082;23,87688
 367,30; 5873,596;  170,900;23869,047;24,06389
 367,89; 5862,895;  210,674;23714,696;24,04789
 368,48; 5848,054;  201,741;23367,353;24,37369
 369,07; 5712,437;  172,440;22961,727;24,30966
 369,67; 5712,571;  190,665;22773,475;24,45181
 370,26; 5650,453;  169,902;22466,397;24,58033
 370,85; 5613,515;  179,669;22238,961;24,63291
 371,44; 5609,397;  180,054;22078,002;24,79384
 372,03; 5581,592;  162,051;21765,503;25,08646
 372,63; 5541,139;  147,592;21457,595;25,30993
 373,22; 5495,387;  178,824;21264,460;25,21414
 373,81; 5453,657;  151,822;20887,300;25,56891
 374,40; 5455,539;  169,982;20755,163;25,67651
 374,99; 5454,060;  165,591;20466,861;26,04994
 375,59; 5387,311;  164,520;20178,190;26,09612
 376,18; 5441,010;  190,053;20070,422;26,41278
 376,77; 5409,459;  182,208;19935,314;26,46293
 377,36; 5491,711;  203,822;19861,671;26,89963
 377,95; 5443,447;  190,898;19564,367;27,11207
 378,55; 5461,302;  176,442;19479,343;27,37858
 379,14; 5473,699;  196,515;19341,165;27,56480
 379,73; 5481,386;  186,436;19267,653;27,74954
 380,32; 5560,016;  193,900;19353,088;28,00806
 380,91; 5571,643;  169,818;19185,543;28,40715
 381,50; 5634,168;  188,127;19141,761;28,73349
 382,10; 5598,632;  159,977;19023,550;28,83152
 382,69; 5692,203;  157,053;19011,952;29,35656
 383,28; 5767,300;  200,743;18912,037;29,74972
 383,87; 5762,353;  170,127;18817,254;29,98975
 384,46; 5772,770;  173,970;18795,139;30,06686
 385,05; 5868,387;  208,127;18823,408;30,40653
 385,64; 5865,189;  171,897;18742,345;30,65780
 386,24; 5888,832;  163,354;18671,777;30,93444
 386,83; 6025,381;  200,815;18753,378;31,39494
 387,42; 6071,281;  202,974;18843,784;31,48097
 388,01; 6228,060;  189,965;19065,911;31,98831
 388,60; 6383,837;  184,970;19250,922;32,51276
 389,19; 6525,080;  170,806;19513,230;32,85149
 389,78; 6617,113;  176,115;19779,398;32,85673
 390,37; 6888,563;  226,044;20111,925;33,50377
 390,96; 6959,827;  180,508;20281,999;33,72546
 391,56; 7109,259;  185,882;20441,460;34,18010
 392,15; 7247,822;  176,193;20728,665;34,40768
 392,74; 7312,765;  165,952;20799,855;34,63626
 393,33; 7493,939;  180,804;21104,510;34,95143
 393,92; 7757,341;  176,180;21464,578;35,61170
 394,51; 7829,857;  177,189;21633,885;35,66564
 395,10; 8009,670;  217,401;21864,520;35,99679
 395,69; 8117,587;  200,249;21986,294;36,34133
 396,28; 8276,065;  195,167;22178,296;36,75954
 396,87; 8333,849;  203,466;22188,646;36,98120
 397,46; 8476,775;  201,922;22287,467;37,46728
 398,06; 8646,784;  208,992;22488,052;37,87320
 398,65; 8685,276;  204,437;22561,040;37,93438
 399,24; 8809,975;  224,357;22665,021;38,25920
 399,83; 8888,670;  196,563;22709,801;38,60887
 400,42; 9043,154;  245,387;22899,258;38,83560
 401,01; 9130,682;  219,823;23002,396;39,11261
 401,60; 9247,767;  221,327;23008,449;39,61202
 402,19; 9329,062;  247,299;22965,025;39,97655
 402,78; 9368,878;  245,872;22940,038;40,19978
 403,37; 9384,878;  231,986;22817,328;40,52581
 403,96; 9416,452;  240,708;22688,226;40,87643
 404,55; 9460,769;  245,655;22574,434;41,27012
 405,14; 9453,223;  220,454;22461,716;41,51190
 405,73; 9519,501;  244,475;22396,569;41,86975
 406,32; 9567,527;  252,360;22279,648;42,28922
 406,91; 9511,807;  244,317;22049,013;42,50227
 407,50; 9538,960;  258,602;21885,148;42,91188
 408,09; 9450,410;  240,587;21583,178;43,15232
 408,68; 9485,463;  234,806;21504,539;43,49212
 409,27; 9515,449;  233,359;21317,301;44,02445
 409,86; 9501,371;  241,624;21177,379;44,22934
 410,45; 9589,447;  268,652;21119,790;44,70161
 411,04; 9585,393;  267,604;21080,043;44,77029
 411,63; 9499,428;  258,335;20837,815;44,90441
 412,22; 9446,616;  261,985;20668,780;45,00771
 412,81; 9369,030;  288,997;20378,564;45,19775
 413,40; 9319,137;  282,704;20005,385;45,81746
 413,99; 9237,991;  322,777;19776,044;45,82888
 414,58; 9063,523;  244,395;19446,217;45,92860
 415,17; 9037,076;  265,843;19200,130;46,32460
 415,76; 8950,153;  253,060;19067,816;46,22485
 416,35; 8954,886;  252,605;18864,516;46,75651
 416,94; 9014,780;  292,755;18909,686;46,84996
 417,53; 9175,997;  262,536;19201,777;47,06345
 418,12; 9219,836;  254,155;19240,489;47,22176
 418,71; 9478,991;  275,474;19601,096;47,62339
 419,30; 9517,518;  267,002;19669,177;47,67773
 419,89; 9653,141;  258,313;19828,654;48,00544
 420,48; 9871,972;  283,782;20084,168;48,42426
 421,07; 9920,945;  271,862;20162,278;48,51122
 421,66; 9944,213;  247,484;20113,259;48,81123
 422,25; 9951,929;  259,575;20168,509;48,68344
 422,84;10011,125;  291,654;20118,429;49,02195
 423,43; 9906,651;  265,802;19840,272;49,25216
 424,02; 9833,547;  281,574;19689,613;49,21658
 424,60; 9639,317;  266,975;19256,751;49,35467
 425,19; 9564,686;  273,274;18981,897;49,66379
 425,78; 9550,702;  282,737;18938,087;49,67993
 426,37; 9496,099;  274,050;18706,551;50,03146
 426,96; 9479,146;  271,589;18630,579;50,15285
 427,55; 9457,221;  253,752;18423,257;50,65338
 428,14; 9288,023;  254,602;18314,942;50,01800
 428,73; 9244,438;  258,979;18125,943;50,29091
 429,32; 9284,610;  272,742;18158,700;50,38515
 429,91; 9290,985;  287,595;18050,961;50,68516
 430,50; 9252,504;  283,215;17969,719;50,71261
 431,08; 9232,383;  282,220;17837,309;50,98330
 431,67; 9207,390;  321,532;17807,338;50,81755
 432,26; 9117,523;  337,152;17580,345;50,92080
 432,85; 8963,267;  346,381;17262,521;50,93884
 433,44; 8819,572;  363,003;16965,759;50,93473
 434,03; 8654,150;  372,165;16585,088;51,08261
 434,62; 8458,592;  331,695;16184,668;51,26418
 435,21; 8390,006;  356,459;16013,376;51,30989
 435,79; 8309,222;  350,931;15844,947;51,36364
 436,38; 8233,949;  337,632;15784,190;51,12024
 436,97; 8196,763;  329,633;15697,172;51,19316
 437,56; 8066,173;  343,568;15441,621;51,14967
 438,15; 8039,914;  316,950;15355,004;51,35614
 438,74; 8113,378;  332,951;15464,200;51,41959
 439,33; 8059,764;  313,334;15359,647;51,48391
 439,91; 8076,199;  281,032;15418,889;51,49452
 440,50; 8123,253;  314,186;15563,165;51,21043
 441,09; 8140,979;  327,424;15661,060;50,95696
 441,68; 8151,424;  307,047;15628,439;51,19886
 442,27; 8132,377;  291,274;15613,356;51,17518
 442,86; 8103,946;  272,059;15595,639;51,11003
 443,44; 8192,403;  286,210;15641,651;51,48789
 444,03; 8246,139;  345,444;15700,707;51,45268
 444,62; 8102,512;  289,906;15556,277;51,17527
 445,21; 8040,817;  302,058;15401,023;51,25357
 445,80; 8005,879;  326,451;15395,443;50,96179
 446,39; 7899,027;  342,065;15123,392;51,12506
 446,97; 7749,110;  290,228;14914,550;51,00326
 447,56; 7638,443;  290,543;14717,409;50,93206
 448,15; 7597,975;  298,382;14534,709;51,27441
 448,74; 7486,849;  313,229;14318,406;51,22121
 449,33; 7391,188;  293,619;14205,123;51,01942
 449,91; 7270,434;  292,858;13988,439;50,94765
 450,50; 7153,116;  293,702;13753,841;50,96095
 451,09; 7099,641;  310,857;13679,135;50,78278
 451,68; 7066,904;  331,014;13613,838;50,71127
 452,26; 7031,644;  325,787;13562,980;50,65920
 452,85; 6951,513;  302,862;13444,382;50,59271
 453,44; 6935,614;  314,950;13468,943;50,33197
 454,03; 6918,293;  293,636;13430,805;50,42683
 454,61; 6923,442;  294,489;13416,537;50,51767
 455,20; 6976,205;  318,647;13568,384;50,24672
 455,79; 6943,980;  319,717;13528,712;50,14964
 456,38; 7008,056;  322,884;13611,428;50,30779
 456,97; 7007,296;  296,036;13667,680;50,19024
 457,55; 6994,507;  317,425;13676,515;49,98156
 458,14; 6987,444;  328,804;13639,553;50,02453
 458,73; 6983,950;  321,657;13599,416;50,17634
 459,31; 6987,145;  343,433;13694,269;49,76251
 459,90; 6985,778;  358,968;13716,159;49,61230
 460,49; 7039,463;  380,581;13801,511;49,61565
 461,08; 7066,615;  313,282;13908,189;49,67546
 461,66; 7090,798;  325,663;13940,125;49,69080
 462,25; 7094,431;  323,901;14043,272;49,35015
 462,84; 7109,520;  346,975;14091,860;49,20045
 463,43; 7032,353;  292,370;14001,859;49,16291
 464,01; 7067,404;  320,835;13972,720;49,41859
 464,60; 7021,711;  376,829;13986,225;48,82570
 465,19; 6913,595;  301,990;13791,341;49,01351
 465,77; 6874,874;  322,379;13780,175;48,68921
 466,36; 6811,596;  335,678;13649,212;48,64161
 466,95; 6693,458;  322,986;13373,403;48,81432
 467,53; 6534,787;  323,075;13041,996;48,83836
 468,12; 6409,170;  358,384;12852,951;48,42733
 468,71; 6280,293;  328,453;12606,717;48,47460
 469,29; 6113,133;  309,846;12379,694;48,08086
 469,88; 6027,245;  328,080;12134,808;48,27048
 470,47; 6100,319;  374,702;12248,969;48,21870
 471,06; 6047,370;  340,779;12196,006;48,13565
 471,64; 6052,544;  346,162;12282,073;47,80852
 472,23; 6036,727;  316,559;12359,916;47,49646
 472,81; 6060,373;  319,938;12414,085;47,46457
 473,40; 6115,666;  326,252;12559,201;47,32640
 473,99; 6189,228;  400,098;12707,830;47,03653
 474,57; 6243,231;  338,328;12806,780;47,35875
 475,16; 6306,552;  340,785;13005,294;47,10618
 475,75; 6285,057;  352,256;13144,153;46,37937
 476,33; 6345,988;  368,954;13135,164;46,81917
 476,92; 6326,699;  348,715;13259,753;46,30134
 477,51; 6357,615;  352,105;13285,751;46,43323
 478,09; 6353,431;  354,644;13291,086;46,37123
 478,68; 6316,853;  379,184;13277,784;46,03344
 479,27; 6304,404;  379,103;13274,836;45,94776
 479,85; 6293,429;  345,569;13256,947;46,06681
 480,44; 6314,794;  350,956;13407,093;45,67843
 481,02; 6869,162;  350,345;14721,262;45,36118
 481,61; 7719,609;  370,650;16663,809;45,10457
 482,20; 8203,374;  353,960;17765,488;45,08171
 482,78; 8602,985;  401,493;18602,504;45,06064
 483,37; 8795,687;  374,505;19013,668;45,18005
 483,95; 8886,789;  400,891;19283,415;44,94049
 484,54; 8920,704;  418,650;19485,369;44,59107
 485,13; 8892,290;  369,820;19371,997;44,84997
 485,71; 8744,175;  360,664;19136,914;44,64955
 486,30; 8665,222;  395,433;18812,864;44,90196
 486,88; 8548,074;  424,743;18506,146;44,92644
 487,47; 8176,464;  410,359;17840,273;44,55619
 488,05; 7808,764;  399,285;17044,464;44,51426
 488,64; 7235,410;  406,444;15824,720;44,29137
 489,23; 6420,339;  409,825;14080,795;43,96553
 489,81; 5535,984;  399,596;12033,859;44,14880
 490,40; 5213,685;  355,366;11449,552;43,79158
 490,98; 5112,111;  345,983;11182,105;43,98371
 491,57; 5051,517;  376,287;11127,637;43,48505
 492,15; 4993,590;  364,215;11092,218;43,15225
 492,74; 4968,553;  361,516;10967,143;43,43955
 493,32; 4891,488;  371,137;10878,394;43,02122
 493,91; 4819,836;  351,833;10763,962;42,91152
 494,50; 4817,918;  354,611;10789,291;42,77377
 495,08; 4760,602;  331,765;10671,042;42,83507
 495,67; 4775,084;  367,755;10690,830;42,69396
 496,25; 4676,050;  322,914;10565,516;42,50029
 496,84; 4679,472;  330,447;10555,934;42,53123
 497,42; 4628,018;  323,916;10495,711;42,31408
 498,01; 4608,439;  347,602;10490,916;42,00636
 498,59; 4506,692;  309,763;10357,304;41,77070
 499,18; 4512,044;  312,449;10338,776;41,88568
 499,76; 4480,723;  322,607;10359,050;41,43018
 500,35; 4372,917;  319,844;10079,211;41,53008
 500,93; 4323,890;  304,916;10129,213;40,90852
 501,52; 4276,403;  309,378; 9975,924;41,03870
 502,10; 4284,646;  328,694; 9977,923;40,99759
 502,69; 4197,035;  316,774; 9858,065;40,66809
 503,27; 4112,968;  300,304; 9658,712;40,74052
 503,86; 4108,537;  307,234; 9622,964;40,80520
 504,44; 4038,264;  299,161; 9479,463;40,72963
 505,03; 3912,430;  286,545; 9295,509;40,24752
 505,61; 3877,570;  288,005; 9140,038;40,55074
 506,19; 3846,479;  311,622; 9023,101;40,57700
 506,78; 3707,650;  280,090; 8789,403;40,28011
 507,36; 3691,244;  291,237; 8728,631;40,29689
 507,95; 3598,278;  296,632; 8561,888;39,94608
 508,53; 3544,889;  295,628; 8450,285;39,84546
 509,12; 3492,895;  304,477; 8269,933;40,02807
 509,70; 3456,090;  318,094; 8172,196;39,95360
 510,29; 3385,218;  313,558; 8031,058;39,80123
 510,87; 3272,558;  297,167; 7860,656;39,33887
 511,46; 3228,848;  281,168; 7705,462;39,70317
 512,04; 3172,596;  294,556; 7561,563;39,60419
 512,62; 3112,664;  297,476; 7390,182;39,69131
 513,21; 3009,268;  270,559; 7281,786;39,06177
 513,79; 2980,495;  287,261; 7174,266;39,10602
 514,38; 2922,890;  269,258; 7017,735;39,32193
 514,96; 2884,966;  309,026; 6896,830;39,10164
 515,54; 2794,173;  266,029; 6749,889;38,99134
 516,13; 2787,747;  289,722; 6687,469;39,04539
 516,71; 2725,080;  292,264; 6589,887;38,63069
 517,30; 2672,908;  270,884; 6474,690;38,71857
 517,88; 2631,496;  287,037; 6400,128;38,35145
 518,46; 2578,191;  272,193; 6265,460;38,47649
 519,05; 2578,588;  285,119; 6254,868;38,41818
 519,63; 2556,097;  277,425; 6157,266;38,75398
 520,22; 2531,722;  295,431; 6130,857;38,32266
 520,80; 2472,326;  283,201; 6032,793;38,07444
 521,38; 2474,412;  313,273; 6033,452;37,78096
 521,97; 2432,031;  272,204; 6011,664;37,63118
 522,55; 2439,227;  296,127; 6008,989;37,51359
 523,13; 2407,007;  271,514; 5976,031;37,43512
 523,72; 2393,856;  275,039; 5929,744;37,46999
 524,30; 2440,015;  291,748; 6092,584;37,03375
 524,89; 2411,712;  268,589; 6071,062;36,93465
 525,47; 2464,567;  293,903; 6227,440;36,58297
 526,05; 2474,768;  256,673; 6214,988;37,22688
 526,64; 2514,747;  287,521; 6357,844;36,69041
 527,22; 2565,355;  287,672; 6460,368;36,89932
 527,80; 2591,454;  324,213; 6604,839;36,09897
 528,39; 2580,796;  274,984; 6715,741;35,80033
 528,97; 2654,245;  278,983; 6864,500;36,06796
 529,55; 2720,876;  298,206; 7037,429;35,94880
 530,14; 2772,564;  313,063; 7222,063;35,59851
 530,72; 2794,599;  277,368; 7295,143;35,86936
 531,30; 2812,246;  266,140; 7458,538;35,39995
 531,89; 2870,300;  281,063; 7506,909;35,83298
 532,47; 2917,494;  303,373; 7640,095;35,63064
 533,05; 2910,331;  310,674; 7642,966;35,45491
 533,63; 2927,268;  310,450; 7723,933;35,29809
 534,22; 2907,534;  281,604; 7736,069;35,22627
 534,80; 2960,617;  302,224; 7817,098;35,37509
 535,38; 3038,424;  379,603; 7920,919;35,25673
 535,97; 2953,871;  302,911; 7851,136;35,12031
 536,55; 3002,849;  342,609; 7903,464;35,18437
 537,13; 2982,338;  344,602; 7915,149;34,84208
 537,71; 3021,579;  390,524; 7936,904;34,86513
 538,30; 3007,509;  411,221; 7997,454;34,22368
 538,88; 3079,846;  433,613; 8097,955;34,52656
 539,46; 3157,429;  483,147; 8248,347;34,43931
 540,05; 3174,598;  484,919; 8436,397;33,82615
 540,63; 3267,986;  542,073; 8586,407;33,88613
 541,21; 3314,752;  568,153; 8713,838;33,71846
 541,79; 3378,883;  600,306; 8824,516;33,78533
 542,38; 3441,224;  618,995; 8987,999;33,72239
 542,96; 3468,369;  628,618; 9148,952;33,32910
 543,54; 3539,082;  653,844; 9286,792;33,42123
 544,12; 3553,722;  618,615; 9462,232;33,18899
 544,70; 3568,892;  604,541; 9489,803;33,36256
 545,29; 3621,589;  621,457; 9683,995;33,10477
 545,87; 3608,498;  601,076; 9702,978;33,04169
 546,45; 3543,043;  563,303; 9707,976;32,58443
 547,03; 3563,196;  533,690; 9844,050;32,53909
 547,62; 3606,529;  499,922; 9919,010;32,98204
 548,20; 3661,237;  507,848;10109,599;32,84181
 548,78; 3676,461;  493,242;10212,807;32,75064
 549,36; 3681,060;  448,625;10466,078;32,26803
 549,94; 3707,893;  411,385;10538,653;32,55081
 550,53; 3749,208;  423,547;10756,874;32,18384
 551,11; 3782,252;  370,859;10961,450;32,21155
 551,69; 3888,198;  407,702;11206,177;32,23137
 552,27; 3925,555;  352,699;11492,560;32,07272
 552,85; 3991,591;  369,628;11826,346;31,61431
 553,44; 4082,910;  367,163;12148,182;31,54011
 554,02; 4214,608;  380,473;12476,694;31,69697
 554,60; 4260,692;  332,859;12759,649;31,60778
 555,18; 4349,960;  365,625;13127,756;31,21998
 555,76; 4448,696;  329,780;13420,662;31,46401
 556,34; 4535,085;  351,017;13817,492;31,07026
 556,93; 4635,307;  335,856;14229,517;30,94541
 557,51; 4707,155;  324,171;14507,995;30,90129
 558,09; 4803,887;  349,549;14943,612;30,52158
 558,67; 4899,020;  342,558;15216,516;30,63382
 559,25; 4975,264;  346,556;15550,778;30,44357
 559,83; 5017,535;  336,483;15789,653;30,29185
 560,41; 5153,976;  323,092;16174,478;30,47609
 561,00; 5235,812;  326,943;16386,222;30,56719
 561,58; 5252,014;  328,707;16655,487;30,15479
 562,16; 5381,133;  318,320;17013,663;30,32470
 562,74; 5417,566;  296,396;17318,214;30,08592
 563,32; 5518,950;  298,252;17821,087;29,79368
 563,90; 5626,801;  315,404;18016,869;30,00541
 564,48; 5738,636;  328,091;18531,080;29,72339
 565,06; 5928,362;  322,327;19063,439;29,91303
 565,65; 6069,714;  327,334;19689,917;29,65710
 566,23; 6311,078;  375,558;20453,666;29,56215
 566,81; 6442,525;  321,710;21095,828;29,46366
 567,39; 6700,302;  341,330;21918,224;29,47121
 567,97; 6839,892;  341,480;22531,498;29,28529
 568,55; 7108,857;  359,867;23323,187;29,39031
 569,13; 7266,609;  333,481;24002,245;29,29231
 569,71; 7487,702;  324,474;24872,097;29,18094
 570,29; 7786,710;  358,164;25814,137;29,18194
 570,87; 7925,467;  368,781;26537,798;28,87646
 571,45; 8054,158;  342,635;27183,770;28,73024
 572,03; 8151,803;  300,639;27554,735;28,80728
 572,61; 8337,338;  311,637;28244,730;28,73187
 573,20; 8543,632;  336,478;28867,741;28,76548
 573,78; 8680,808;  324,483;29473,440;28,66766
 574,36; 8817,995;  336,020;29955,227;28,63674
 574,94; 8901,381;  387,332;30221,709;28,53771
 575,52; 8890,324;  334,800;30519,363;28,34404
 576,10; 9073,029;  393,643;31051,027;28,31091
 576,68; 9223,999;  373,331;31590,523;28,35190
 577,26; 9365,205;  395,648;32219,264;28,18522
 577,84; 9496,991;  384,944;32701,354;28,19635
 578,42; 9586,334;  432,334;32989,696;28,11653
 579,00; 9559,204;  404,945;33091,486;28,00620
 579,58; 9562,978;  423,332;33313,166;27,78866
 580,16; 9522,800;  391,027;33381,918;27,67968
 580,74; 9552,885;  406,027;33585,090;27,56816
 581,32; 9525,463;  417,333;33604,008;27,44514
 581,90; 9561,588;  425,335;33548,076;27,58302
 582,48; 9453,658;  413,566;33656,655;27,19390
 583,06; 9544,136;  411,333;33839,560;27,32063
 583,64; 9499,051;  418,025;33903,926;27,11895
 584,22; 9412,653;  419,801;33839,408;26,90891
 584,80; 9313,480;  425,026;33540,583;26,84072
 585,38; 9184,058;  428,632;33187,547;26,72685
 585,96; 9119,671;  406,869;33269,862;26,51250
 586,54; 9082,051;  430,261;33246,960;26,36399
 587,12; 9052,914;  408,182;33454,480;26,15946
 587,70; 9106,448;  433,869;33560,957;26,17972
 588,28; 9034,867;  409,798;33529,683;26,04197
 588,86; 9029,834;  419,106;33701,435;25,87177
 589,44; 9002,331;  389,343;33742,989;25,82323
 590,02; 9044,764;  397,418;33900,772;25,81039
 590,59; 9053,147;  388,800;34199,272;25,62622
 591,17; 9065,059;  390,811;34342,698;25,54865
 591,75; 9046,100;  378,807;34546,755;25,36674
 592,33; 9080,871;  391,575;34748,049;25,29158
 592,91; 9078,976;  344,501;34957,186;25,23490
 593,49; 9100,942;  363,812;35243,029;25,04967
 594,07; 9142,192;  372,427;35410,649;25,02914
 594,65; 9105,479;  371,493;35541,806;24,83340
 595,23; 9193,298;  374,572;35871,224;24,84383
 595,81; 9176,677;  366,727;36060,152;24,68228
 596,39; 9178,739;  352,497;36102,388;24,68887
 596,97; 9211,722;  358,348;36275,942;24,64913
 597,55; 9155,550;  350,109;36228,427;24,54251
 598,12; 9088,629;  333,506;36206,265;24,40605
 598,70; 9068,436;  336,272;36297,603;24,28209
 599,28; 9043,086;  361,656;36481,585;24,03501
 599,86; 9023,781;  339,964;36528,996;23,99572
 600,44; 9009,668;  314,196;36605,336;23,96032
 601,02; 9055,536;  361,972;36613,493;23,98124
 601,60; 8961,389;  345,499;36636,597;23,74106
 602,18; 8902,951;  310,351;36629,645;23,65850
 602,75; 8865,053;  326,958;36769,442;23,42896
 603,33; 8852,417;  342,580;36700,829;23,40552
 603,91; 8809,817;  325,739;36749,705;23,29257
 604,49; 8801,290;  349,657;36829,390;23,16802
 605,07; 8771,438;  361,961;36747,728;23,11200
 605,65; 8765,604;  370,427;36948,287;22,95152
 606,23; 8797,431;  418,491;37003,123;22,90289
 606,80; 8757,800;  451,419;37042,736;22,70041
 607,38; 8743,942;  496,815;37068,931;22,55032
 607,96; 8770,665;  550,265;37193,740;22,43346
 608,54; 8757,273;  623,197;37343,812;22,15125
 609,12; 8686,527;  601,265;37328,564;22,01431
 609,70; 8766,689;  631,271;37391,326;22,13114
 610,27; 8643,533;  637,957;37369,310;21,79494
 610,85; 8690,034;  647,117;37386,874;21,89159
 611,43; 8681,809;  663,272;37349,865;21,85686
 612,01; 8513,822;  627,345;37196,823;21,56574
 612,59; 8473,292;  638,271;37217,589;21,41927
 613,16; 8405,753;  582,493;37202,730;21,36321
 613,74; 8404,451;  564,118;36960,734;21,54138
 614,32; 8317,673;  534,274;37031,328;21,32610
 614,90; 8231,667;  486,269;36996,222;21,21448
 615,48; 8152,331;  443,879;36661,088;21,28395
 616,05; 8051,652;  419,492;36538,349;21,13068
 616,63; 7997,357;  418,414;36408,303;21,05853
 617,21; 7966,675;  406,188;36243,034;21,09697
 617,79; 7908,939;  400,113;36207,646;20,96996
 618,36; 7882,646;  400,807;36141,484;20,93368
 618,94; 7690,297;  355,110;35816,011;20,68528
 619,52; 7635,524;  371,568;35555,715;20,64553
 620,10; 7584,585;  361,266;35510,329;20,55053
 620,67; 7551,161;  353,106;35350,978;20,56712
 621,25; 7527,608;  391,576;35283,321;20,45192
 621,83; 7477,540;  377,495;35226,056;20,37400
 622,41; 7455,116;  402,802;35248,219;20,23886
 622,98; 7345,915;  376,567;34965,693;20,14895
 623,56; 7353,494;  370,413;34934,959;20,20302
 624,14; 7215,891;  345,655;34873,475;19,89768
 624,72; 7202,339;  359,956;34724,029;19,91144
 625,29; 7137,452;  340,336;34810,633;19,71876
 625,87; 7161,116;  384,882;34749,813;19,71846
 626,45; 7047,916;  343,181;34525,601;19,61457
 627,02; 7001,729;  336,575;34534,094;19,49017
 627,60; 6956,149;  334,042;34503,033;19,38046
 628,18; 6920,296;  316,650;34596,333;19,26402
 628,76; 6908,077;  319,029;34477,326;19,28974
 629,33; 6844,941;  341,493;34608,866;18,97854
 629,91; 6810,969;  328,727;34513,405;18,96242
 630,49; 6801,440;  357,492;34703,431;18,76189
 631,06; 6746,481;  346,645;34822,236;18,56338
 631,64; 6737,540;  344,105;34795,927;18,55761
 632,22; 6679,629;  302,333;34674,668;18,55357
 632,79; 6714,664;  337,179;34932,727;18,43441
 633,37; 6667,584;  308,268;35081,633;18,28789
 633,95; 6664,373;  312,873;35154,515;18,22962
 634,52; 6663,358;  303,264;35155,341;18,24883
 635,10; 6596,068;  315,342;35165,206;18,02224
 635,68; 6615,871;  308,333;35389,252;17,97997
 636,25; 6557,093;  294,253;35448,178;17,81548
 636,83; 6586,692;  288,491;35544,711;17,86409
 637,41; 6612,985;  303,640;35600,279;17,87520
 637,98; 6593,154;  320,947;35814,966;17,67116
 638,56; 6571,753;  318,560;35945,395;17,55192
 639,13; 6550,964;  288,413;36018,054;17,52761
 639,71; 6587,462;  336,799;36116,155;17,47003
 640,29; 6445,778;  275,722;35932,263;17,30413
 640,86; 6445,769;  289,876;36046,680;17,21600
 641,44; 6454,759;  287,184;36145,559;17,19982
 642,02; 6443,442;  316,031;36102,207;17,12229
 642,59; 6426,586;  286,800;36201,778;17,09534
 643,17; 6373,730;  284,262;36188,964;16,96009
 643,74; 6329,490;  285,262;36268,612;16,79729
 644,32; 6331,942;  320,724;36109,722;16,79627
 644,89; 6309,394;  303,109;36230,908;16,71766
 645,47; 6268,539;  327,570;36267,249;16,53039
 646,05; 6230,529;  307,032;36099,435;16,54959
 646,62; 6176,135;  303,417;36126,006;16,39390
 647,20; 6185,510;  304,955;36299,885;16,33717
 647,77; 6083,039;  281,340;36181,610;16,16060
 648,35; 6069,952;  282,340;36031,027;16,18972
 648,92; 6075,866;  302,033;36023,213;16,16361
 649,50; 6032,395;  269,418;35979,861;16,13807
 650,08; 5967,385;  273,264;35934,278;15,96736
 650,65; 5948,837;  286,649;36071,542;15,82285
 651,23; 6084,982;  259,418;36797,190;15,94395
 651,80; 6199,511;  273,034;37706,684;15,83195
 652,38; 6243,117;  280,880;38139,101;15,74886
 652,95; 6262,953;  256,650;38478,288;15,71441
 653,53; 6285,328;  290,957;38647,705;15,62794
 654,10; 6335,396;  308,650;38793,045;15,66023
 654,68; 6234,078;  263,804;38745,924;15,51441
 655,25; 6240,838;  261,035;38866,264;15,48962
 655,83; 6222,136;  254,881;38796,527;15,48262
 656,40; 6195,742;  288,728;38775,175;15,34830
 656,98; 6164,040;  280,035;38723,439;15,30563
 657,55; 6156,723;  284,959;38603,702;15,32348
 658,13; 6041,560;  274,882;38225,119;15,19537
 658,70; 5982,704;  294,421;38008,921;15,08248
 659,28; 5792,310;  281,036;37203,800;14,92649
 659,85; 5653,531;  288,421;36546,217;14,79712
 660,43; 5639,291;  287,190;36580,326;14,74687
 661,00; 5627,281;  273,191;36600,513;14,73847
 661,58; 5650,503;  259,037;36930,315;14,70215
 662,15; 5607,262;  261,268;37059,809;14,52773
 662,73; 5713,560;  330,114;37450,303;14,50274
 663,30; 5708,705;  284,884;37642,566;14,51862
 663,88; 5678,849;  281,499;37775,522;14,39523
 664,45; 5683,532;  264,653;37989,016;14,36440
 665,03; 5669,599;  280,192;38369,664;14,14934
 665,60; 5807,205;  342,731;38712,697;14,24154
 666,17; 5736,657;  269,577;38963,498;14,12904
 666,75; 5743,186;  277,885;39193,300;14,04405
 667,32; 5770,561;  298,500;39501,410;13,95830
 667,90; 5780,859;  282,808;39824,135;13,90457
 668,47; 5792,311;  298,962;40057,936;13,81663
 669,05; 5824,071;  267,193;40368,431;13,85712
 669,62; 5786,600;  263,270;40476,002;13,73528
 670,19; 5807,898;  265,117;40489,034;13,77982
 670,77; 5826,427;  273,040;40708,221;13,73405
 671,34; 5755,648;  272,040;40646,945;13,58172
 671,92; 5793,408;  260,348;40975,670;13,58963
 672,49; 5769,552;  288,887;40984,472;13,46747
 673,06; 5708,389;  239,194;41020,889;13,41091
 673,64; 5691,610;  259,348;40975,384;13,34182
 674,21; 5674,139;  244,272;40878,262;13,36287
 674,79; 5684,284;  277,272;41107,910;13,24254
 675,36; 5687,889;  271,811;41332,789;13,19033
 675,93; 5589,726;  266,580;41196,591;13,00548
 676,51; 5672,255;  276,042;41291,239;13,15662
 677,08; 5602,399;  271,888;41303,425;12,99125
 677,65; 5602,621;  274,350;41575,765;12,90094
 678,23; 5600,149;  275,350;41699,183;12,85443
 678,80; 5589,601;  264,889;41816,446;12,81471
 679,38; 5575,977;  272,581;41934,940;12,72947
 679,95; 5591,967;  273,735;42229,203;12,67590
 680,52; 5586,419;  254,735;42469,236;12,62998
 681,10; 5672,025;  286,582;42845,038;12,65423
 681,67; 5670,938;  276,197;43167,378;12,57774
 682,24; 5615,390;  244,120;43218,641;12,49873
 682,82; 5694,073;  259,198;43650,136;12,52537
 683,39; 5774,295;  305,198;44126,476;12,48046
 683,96; 5717,823;  260,890;44416,508;12,35841
 684,54; 5758,506;  248,275;44647,849;12,41055
 685,11; 5824,189;  288,891;45080,189;12,35798
 685,68; 5844,949;  259,737;45505,683;12,34412
 686,25; 5790,632;  253,891;45493,254;12,23877
 686,83; 5840,160;  255,353;45595,902;12,31747
 687,40; 5839,689;  245,122;45986,781;12,23079
 687,97; 5942,603;  279,353;46290,660;12,30839
 688,55; 5894,286;  233,507;46388,154;12,26481
 689,12; 5903,507;  220,892;46656,186;12,23771
 689,69; 5913,036;  246,661;46700,219;12,19793
 690,26; 5933,642;  259,431;46831,175;12,18381
 690,84; 5943,478;  248,046;46930,976;12,20025
 691,41; 5917,930;  258,354;47117,394;12,07788
 691,98; 5954,459;  264,662;47402,734;12,07049
 692,56; 5910,373;  245,893;47390,151;12,01521
 693,13; 5955,133;  306,585;47524,261;11,96278
 693,70; 5937,815;  274,740;47710,293;11,93846
 694,27; 5919,267;  259,201;47691,249;11,93300
 694,84; 5915,489;  257,663;47787,512;11,90373
 695,42; 5990,633;  306,279;47990,083;11,92093
 695,99; 5948,162;  268,202;48091,423;11,87699
 696,56; 5955,768;  259,202;47901,533;11,95694
 697,13; 5970,912;  283,818;48316,873;11,83996
 697,71; 5921,672;  250,433;48281,906;11,80734
 698,28; 5966,662;  255,587;48762,554;11,77372
 698,85; 5947,576;  229,433;48669,356;11,80461
 699,42; 5935,951;  247,357;48942,234;11,68212
 699,99; 5999,864;  279,818;49011,575;11,73782
 700,57; 5991,778;  276,049;49137,530;11,69782
 701,14; 5960,615;  254,742;49199,563;11,65777
 701,71; 6005,759;  276,973;49379,903;11,66689
 702,28; 6010,134;  253,588;49444,320;11,70250
 702,85; 5963,740;  275,742;49471,891;11,56188
 703,43; 5985,192;  276,050;49719,462;11,54682
 704,00; 6015,105;  302,743;49973,341;11,50049
 704,57; 6041,557;  275,512;49841,528;11,63306
 705,14; 6053,702;  300,897;50155,406;11,53919
 705,71; 6060,692;  304,666;50224,593;11,53052
 706,28; 6028,914;  271,590;50096,471;11,55512
 706,86; 6079,750;  309,590;50401,042;11,51925
 707,43; 6066,202;  315,821;50199,460;11,52759
 708,00; 6037,039;  313,206;50366,108;11,43557
 708,57; 5985,337;  276,514;50116,448;11,45432
 709,14; 6037,404;  312,283;50349,480;11,44173
 709,71; 6029,472;  282,437;50452,975;11,45500
 710,28; 6038,770;  284,514;50610,315;11,43401
 710,86; 6079,145;  280,360;50807,424;11,47659
 711,43; 6040,982;  300,361;50821,303;11,36285
 712,00; 6062,664;  278,130;50854,797;11,43716
 712,57; 6069,963;  290,822;51041,138;11,38740
 713,14; 6068,415;  282,900;51058,247;11,39434
 713,71; 6086,328;  283,515;50962,741;11,45008
 714,28; 6063,165;  271,285;51130,928;11,38797
 714,85; 6046,771;  256,746;50794,422;11,45685
 715,42; 6071,761;  266,823;51029,454;11,43545
 716,00; 6120,136;  330,593;51161,718;11,38976
 716,57; 6120,204;  276,208;51267,596;11,46075
 717,14; 6077,271;  254,978;51170,629;11,43517
 717,71; 6091,877;  256,978;51169,354;11,46067
 718,28; 6128,406;  291,440;51281,540;11,44725
 718,85; 6114,858;  262,209;51392,881;11,44645
 719,42; 6140,387;  274,055;51565,528;11,43724
 719,99; 6120,839;  253,594;51311,792;11,49129
 720,56; 6162,137;  273,748;51540,055;11,48588
 721,13; 6139,512;  255,210;51662,395;11,44646
 721,70; 6137,656;  251,518;51575,120;11,46868
 722,27; 6172,647;  281,826;51535,614;11,49344
 722,84; 6243,868;  320,287;51824,109;11,50125
 723,41; 6162,243;  250,980;51763,526;11,47539
 723,98; 6199,926;  264,057;51941,712;11,48634
 724,55; 6278,378;  294,211;52020,591;11,56889
 725,12; 6153,522;  221,980;51970,547;11,46223
 725,69; 6252,820;  256,519;52128,810;11,55974
 726,27; 6271,580;  262,288;52323,150;11,54282
 726,84; 6345,801;  267,827;52586,029;11,61732
 727,41; 6313,330;  279,212;52455,908;11,56478
 727,98; 6398,782;  282,520;52857,940;11,63331
 728,55; 6399,311;  310,212;52659,665;11,63164
 729,12; 6372,609;  249,905;52843,236;11,64160
 729,69; 6437,369;  284,905;52926,269;11,68751
 730,26; 6509,821;  276,520;53246,378;11,76764
 730,82; 6448,965;  271,521;52987,257;11,71841
 731,39; 6513,341;  273,829;53171,674;11,79540
 731,96; 6553,408;  250,598;53441,553;11,84940
 732,53; 6569,706;  281,367;53628,201;11,78765
 733,10; 6646,466;  277,675;53780,464;11,90366
 733,67; 6667,610;  282,675;54098,881;11,86433
 734,24; 6671,216;  250,368;53675,299;12,01845
 734,81; 6668,206;  293,753;53745,485;11,92563
 735,38; 6684,582;  269,676;53564,825;12,03657
 735,95; 6649,495;  270,984;53488,396;11,98576
 736,52; 6700,255;  277,599;53567,737;12,05224
 737,09; 6684,015;  286,830;53248,231;12,07896
 737,66; 6792,390;  328,984;53397,802;12,17929
 738,23; 6752,380;  260,292;53471,681;12,20056
 738,80; 6827,678;  323,908;53647,098;12,19689
 739,37; 6840,361;  304,600;53820,438;12,21276
 739,94; 6873,428;  268,524;53940,778;12,30599
 740,51; 6931,419;  370,062;54021,811;12,22953
 741,07; 6913,332;  265,909;53938,151;12,38522
 741,64; 6935,169;  303,447;54118,722;12,32312
 742,21; 6999,621;  274,371;54163,524;12,47979
 742,78; 6965,150;  251,832;53895,557;12,51464
 743,35; 6988,294;  276,525;54296,205;12,42468
 743,92; 7087,362;  303,371;54395,545;12,54154
 744,49; 7069,352;  296,371;54259,424;12,55115
 745,06; 7052,420;  260,448;54244,995;12,58133
 745,63; 7123,487;  257,833;54258,489;12,71402
 746,19; 7139,862;  253,910;54199,598;12,76460
 746,76; 7176,160;  267,449;54300,708;12,78604
 747,33; 7187,228;  256,834;54269,202;12,83112
 747,90; 7284,218;  290,218;54494,542;12,90303
 748,47; 7290,824;  286,296;54398,267;12,94451
 749,04; 7310,507;  285,834;54390,761;12,98342
 749,61; 7295,343;  300,681;54390,332;12,93161
 750,17; 7369,180;  283,219;54278,903;13,12320
 750,74; 7383,401;  277,758;54366,013;13,13713
 751,31; 7335,161;  257,527;54280,276;13,10121
 751,88; 7358,613;  248,527;54092,770;13,20491
 752,45; 7441,757;  261,297;54257,187;13,29816
 753,02; 7434,363;  275,836;54152,451;13,28689
 753,58; 7436,277;  256,066;54139,868;13,32536
 754,15; 7478,036;  262,297;54172,824;13,38466
 754,72; 7444,258;  251,221;53984,087;13,38666
 755,29; 7468,094;  251,144;53900,812;13,45199
 755,86; 7544,700;  272,144;54022,537;13,53024
 756,42; 7578,306;  277,606;53864,262;13,62410
 756,99; 7550,681;  232,837;53793,294;13,66277
 757,56; 7565,595;  241,299;53789,250;13,67801
 758,13; 7564,278;  203,837;53655,513;13,77027
 758,70; 7639,806;  227,837;53819,007;13,83058
 759,26; 7618,951;  223,761;53796,040;13,80414
 759,83; 7688,710;  227,145;53898,996;13,90219
 760,40; 7681,547;  220,607;53773,490;13,93191
 760,97; 7664,384;  206,684;53734,215;13,93246
 761,53; 7680,605;  194,838;53477,093;14,04927
 762,10; 7716,980;  198,300;53415,434;14,12831
 762,67; 7783,355;  239,685;53413,312;14,18686
 763,24; 7682,115;  188,685;53015,883;14,18480
 763,80; 7756,644;  221,608;53123,762;14,24334
 764,37; 7781,865;  231,301;53059,487;14,29268
 764,94; 7768,086;  206,916;52664,135;14,41397
 765,50; 7827,154;  206,455;52671,552;14,52527
 766,07; 7849,375;  246,763;52760,123;14,47748
 766,64; 7831,135;  230,071;52480,002;14,54751
 767,21; 7858,202;  234,917;52422,573;14,60745
 767,77; 7862,039;  247,533;52276,298;14,63519
 768,34; 7874,952;  249,225;52155,792;14,69126
 768,91; 7912,712;  259,764;52043,286;14,77873
 769,47; 7955,779;  251,225;52139,242;14,84843
 770,04; 7936,308;  264,687;51952,813;14,84213
 770,61; 7944,068;  236,841;51735,307;14,96593
 771,18; 7954,982;  234,226;51612,032;15,02741
 771,74; 7974,972;  250,303;51738,449;15,00281
 772,31; 7991,039;  248,842;51466,020;15,11641
 772,88; 7952,261;  233,227;51263,130;15,12649
 773,44; 7964,328;  233,842;51122,008;15,19113
 774,01; 8015,780;  251,996;51224,656;15,23127
 774,58; 8009,078;  233,996;50888,304;15,34930
 775,14; 8065,299;  235,458;51025,260;15,41617
 775,71; 8068,213;  237,843;50967,216;15,43557
 776,27; 8126,896;  292,535;50793,171;15,51339
 776,84; 8221,194;  312,382;50826,204;15,65673
 777,41; 8194,261;  250,843;50707,313;15,74311
 777,97; 8129,021;  232,844;50352,654;15,75460
 778,54; 8229,781;  253,921;50504,686;15,87212
 779,11; 8236,002;  277,613;50507,103;15,84406
 779,67; 8208,377;  232,152;50429,597;15,88970
 780,24; 8280,214;  245,075;50142,399;16,10335
 780,80; 8282,204;  256,229;50187,355;16,07409
 781,37; 8344,502;  259,922;50234,541;16,17737
 781,94; 8310,570;  245,076;49895,805;16,24446
 782,50; 8319,022;  255,307;49874,453;16,25122
 783,07; 8398,474;  282,307;49903,716;16,35618
 783,63; 8429,157;  245,615;49698,749;16,54808
 784,20; 8462,224;  270,230;49693,858;16,57506
 784,77; 8408,138;  254,307;49472,121;16,56683
 785,33; 8463,128;  235,615;49215,231;16,79783
 785,90; 8495,118;  250,615;49152,110;16,85941
 786,46; 8477,186;  271,154;49195,912;16,77276
 787,03; 8520,561;  238,770;48977,790;16,99212
 787,59; 8538,936;  242,077;48896,284;17,05271
 788,16; 8574,773;  267,539;48776,009;17,12533
 788,73; 8662,379;  254,847;48713,196;17,35002
 789,29; 8579,600;  256,155;48378,921;17,29627
 789,86; 8603,975;  269,924;48267,876;17,36335
 790,42; 8609,042;  253,078;48128,601;17,45352
 790,99; 8594,648;  267,079;47734,018;17,54394
 791,55; 8592,023;  245,079;47775,589;17,56123
 792,12; 8645,860;  269,464;47799,622;17,62333
 792,68; 8610,389;  252,848;47445,578;17,70938
 793,25; 8601,764;  266,772;47228,072;17,74864
 793,81; 8664,985;  308,233;46888,720;17,94046
 794,38; 8554,668;  230,157;46650,829;17,93277
 794,94; 8666,735;  245,080;46508,323;18,20377
 795,51; 8589,341;  261,465;46316,664;18,08238
 796,07; 8597,562;  248,849;46133,619;18,19495
 796,64; 8705,476;  262,773;46243,421;18,36143
 797,20; 8634,313;  265,081;45729,300;18,40839
 797,77; 8576,226;  228,158;45376,871;18,49016
 798,33; 8639,370;  257,004;45163,673;18,66620
 798,90; 8639,438;  268,697;45148,398;18,65151
 799,46; 8608,659;  256,235;44629,276;18,82319
 800,03; 8651,419;  256,851;44571,155;18,94325
 800,59; 8651,255;  266,697;44501,495;18,95467
 801,15; 8679,092;  273,620;44183,528;19,14254
 801,72; 8691,698;  259,159;43876,099;19,33317
 802,28; 8683,842;  284,236;43500,362;19,43628
 802,85; 8664,756;  258,698;43368,626;19,49912
 803,41; 8590,285;  250,160;43170,274;19,43174
 803,98; 8562,275;  243,621;42748,537;19,57104
 804,54; 8562,804;  257,775;42586,416;19,62035
 805,11; 8595,795;  258,545;42401,987;19,78303
 805,67; 8573,247;  274,006;42356,865;19,72119
 806,23; 8547,160;  260,930;41943,898;19,87918
 806,80; 8577,612;  271,161;41774,315;20,01402
 807,36; 8535,603;  281,238;41802,194;19,88000
 807,93; 8591,362;  275,238;41561,380;20,14265
 808,49; 8499,199;  241,623;41136,336;20,19228
 809,05; 8499,266;  241,392;40972,599;20,27407
 809,62; 8577,565;  273,931;40869,940;20,45431
 810,18; 8535,170;  263,316;40773,434;20,41923
 810,74; 8525,699;  234,393;40609,159;20,53586
 811,31; 8522,998;  241,162;40391,191;20,62722
 811,87; 8593,757;  257,624;40249,378;20,84463
 812,44; 8609,594;  270,932;40269,949;20,84717
 813,00; 8558,815;  209,701;39929,212;21,02018
 813,56; 8656,729;  256,624;39986,168;21,14322
 814,13; 8599,719;  254,163;39874,354;21,06390
 814,69; 8646,094;  253,856;39692,387;21,27929
 815,25; 8564,777;  227,394;39385,189;21,29176
 815,82; 8634,844;  272,856;39304,990;21,42334
 816,38; 8673,220;  288,471;39091,408;21,60854
 816,94; 8572,133;  241,395;38855,286;21,57446
 817,51; 8586,431;  227,010;38595,627;21,78713
 818,07; 8547,345;  243,318;38236,967;21,85635
 818,63; 8608,181;  251,626;38140,384;22,05550
 819,20; 8642,633;  244,934;38040,570;22,21870
 819,76; 8565,239;  231,857;37597,988;22,30197
 820,32; 8607,768;  268,627;37624,559;22,32347
 820,89; 8557,374;  271,858;37278,899;22,38903
 821,45; 8533,057;  238,165;37109,085;22,49711
 822,01; 8551,817;  257,781;36866,580;22,65585
 822,57; 8583,961;  260,627;36712,612;22,83369
 823,14; 8520,182;  226,089;36450,029;22,89672
 823,70; 8508,326;  238,474;36210,677;22,98956
 824,26; 8470,471;  233,705;36074,402;22,98160
 824,82; 8488,154;  256,397;35884,127;23,10491
 825,39; 8464,913;  236,090;35603,467;23,26671
 825,95; 8516,750;  262,398;35685,885;23,30192
 826,51; 8509,356;  251,859;35262,225;23,58586
 827,08; 8553,039;  280,783;35397,257;23,55662
 827,64; 8504,029;  265,091;35188,598;23,59138
 828,20; 8438,250;  236,552;34838,015;23,70333
 828,76; 8481,087;  270,937;34834,509;23,75377
 829,32; 8492,924;  273,860;34666,465;23,89776
 829,89; 8470,299;  232,014;34585,728;23,98077
 830,45; 8469,981;  250,245;34491,068;24,00566
 831,01; 8503,203;  245,322;34326,101;24,23032
 831,57; 8456,039;  239,169;34258,057;24,15385
 832,14; 8512,568;  245,630;34191,012;24,35364
 832,70; 8476,482;  229,938;34120,583;24,33280
 833,26; 8548,780;  207,246;33905,308;24,75375
 833,82; 8597,309;  238,323;33893,571;24,83709
 834,38; 8599,145;  238,554;33813,835;24,90103
 834,95; 8525,444;  234,939;33669,329;24,79634
 835,51; 8525,126;  204,247;33551,285;24,95238
 836,07; 8609,502;  236,863;33623,317;25,07795
 836,63; 8712,492;  260,786;33606,657;25,34558
 837,19; 8690,636;  247,863;33456,613;25,42334
 837,75; 8647,473;  210,555;33150,646;25,61292
 838,32; 8719,233;  261,940;33228,678;25,65402
 838,88; 8779,454;  249,325;33241,711;25,85484
 839,44; 8780,598;  247,787;33182,590;25,90819
 840,00; 8801,512;  247,633;33188,853;25,96710
 840,56; 8787,810;  230,095;32812,039;26,26521
 841,12; 8798,108;  231,249;32823,764;26,28474
 841,68; 8780,099;  201,864;32647,874;26,43849
 842,25; 8835,012;  233,326;32675,214;26,51414
 842,81; 8833,310;  216,865;32375,862;26,79327
 843,37; 8828,916;  203,326;32457,818;26,74229
 843,93; 8893,214;  219,019;32301,235;27,03739
 844,49; 8911,820;  236,327;32407,114;26,96699
 845,05; 8879,041;  202,481;32140,223;27,16711
 845,61; 8971,493;  240,712;32194,333;27,32329
 846,17; 8940,330;  222,558;32115,442;27,33454
 846,73; 8976,167;  241,558;31954,705;27,54255
 847,29; 8953,465;  217,558;31844,969;27,62131
 847,86; 8979,302;  224,405;31739,848;27,77970
 848,42; 8951,446;  217,251;31625,419;27,80867
 848,98; 8952,206;  236,174;31507,528;27,87225
 849,54; 9031,350;  221,944;31605,176;28,07042
 850,10; 9011,263;  239,713;31471,439;28,08538
 850,66; 9037,023;  209,329;31321,164;28,37407
 851,22; 9038,244;  212,406;31243,735;28,44170
 851,78; 9117,850;  258,945;31300,537;28,53882
 852,34; 9103,841;  238,945;31069,031;28,75404
 852,90; 9111,216;  223,406;30879,756;28,99174
 853,46; 9056,283;  207,022;30728,712;28,99335
 854,02; 9170,043;  230,561;30788,667;29,25404
 854,58; 9139,649;  227,715;30500,315;29,43894
 855,14; 9096,485;  213,023;30355,040;29,47202
 855,70; 9088,014;  195,792;30256,227;29,58115
 856,26; 9137,159;  236,485;30235,336;29,67005
 856,82; 9162,457;  216,869;30076,369;29,95893
 857,38; 9188,140;  251,639;29990,401;30,05001
 857,94; 9120,822;  217,870;29903,972;29,99030
 858,50; 9119,428;  237,485;29723,774;30,12228
 859,06; 9096,573;  221,562;29591,422;30,21809
 859,62; 9158,563;  232,716;29511,224;30,48600
 860,18; 9132,554;  230,178;29303,103;30,62085
 860,74; 9160,159;  202,486;29158,597;30,93535
 861,30; 9080,765;  208,794;29032,706;30,77990
 861,86; 9177,986;  256,794;29131,739;30,89596
 862,42; 9104,746;  226,948;28895,002;30,96756
 862,98; 9164,121;  257,641;28947,496;31,04401
 863,54; 9167,650;  230,948;28754,067;31,33143
 864,10; 9208,333;  217,564;28841,331;31,41015
 864,66; 9145,093;  206,410;28451,594;31,64675
 865,22; 9165,160;  221,026;28344,165;31,80347
 865,78; 9182,689;  228,565;28329,044;31,86467
 866,34; 9196,218;  204,411;28194,923;32,12448
 866,90; 9203,593;  231,411;28029,186;32,27662
 867,45; 9138,968;  226,180;27833,834;32,28376
 868,01; 9146,036;  232,335;27762,097;32,37842
 868,57; 9118,564;  226,335;27564,284;32,52706
 869,13; 9104,786;  215,412;27424,547;32,67055
 869,69; 9116,084;  223,720;27325,657;32,81081
 870,25; 9093,074;  205,104;27248,074;32,86610
 870,81; 9108,296;  214,797;27234,183;32,91525
 871,37; 9091,825;  228,259;27130,062;32,94785
 871,93; 9086,277;  237,951;26948,402;33,12683
 872,49; 9055,575;  250,259;26770,127;33,20271
 873,04; 9042,411;  205,105;26583,621;33,50191
 873,60; 9006,940;  203,644;26479,423;33,50346
 874,16; 9032,238;  228,798;26312,994;33,75009
 874,72; 8992,623;  234,798;26265,994;33,64357
 875,28; 9007,238;  225,952;26218,071;33,78442
 875,84; 9029,700;  221,413;26150,840;33,97023
 876,40; 9068,546;  223,260;26084,687;34,20262
 876,95; 9069,623;  229,567;26084,763;34,19064
 877,51; 9095,085;  254,106;26150,917;34,13926
 878,07; 9109,315;  258,567;26079,302;34,27768
 878,63; 9190,700;  224,490;26101,071;34,64990
 879,19; 9175,700;  245,644;26162,610;34,45641
 879,75; 9220,315;  215,183;26039,763;34,87039
 880,30; 9240,931;  219,798;26138,302;34,80576
 880,86; 9375,315;  270,183;26322,071;34,94999
 881,42; 9392,315;  204,952;26312,917;35,18989
 881,98; 9395,162;  234,644;26374,687;35,04400
 882,54; 9478,854;  218,952;26490,456;35,24694
 883,09; 9545,854;  236,644;26540,917;35,39048
 883,65; 9655,162;  208,413;26670,302;35,69945
 884,21; 9774,777;  251,490;26876,994;35,76754
 884,77; 9806,238;  212,875;26862,302;35,99839
 885,32; 9872,623;  221,798;27080,840;35,93138
 885,88; 9970,085;  257,721;27137,225;36,13297
 886,44;10026,085;  234,875;27328,302;36,13869
 887,00;10146,162;  251,106;27380,533;36,47352
 887,56;10180,008;  213,413;27505,687;36,51801
 888,11;10243,854;  221,260;27419,456;36,85022
 888,67;10295,392;  261,260;27616,302;36,68111
 889,23;10380,162;  234,413;27533,687;37,16490
 889,79;10317,777;  210,260;27540,917;36,98234
 890,34;10341,777;  226,106;27470,071;37,12995
 890,90;10486,854;  294,644;27616,994;37,30356
 891,46;10428,546;  220,798;27534,533;37,37222
 892,01;10472,931;  244,644;27523,456;37,49535
 892,57;10437,085;  260,413;27453,302;37,42402
 893,13;10450,931;  229,029;27264,763;37,80886
 893,69;10502,085;  219,183;27267,533;38,01674
 894,24;10420,315;  226,567;27064,456;37,98268
 894,80;10413,315;  234,952;26923,840;38,13708
 895,36;10413,777;  236,644;26942,533;38,10820
 895,91;10341,469;  227,337;26708,610;38,19353
 896,47;10325,238;  231,183;26520,610;38,39588
 897,03;10316,469;  225,490;26411,610;38,53560
 897,58;10333,392;  231,875;26314,302;38,72921
 898,14;10284,931;  231,798;26087,994;38,88094
 898,70;10220,238;  210,952;26039,917;38,75218
 899,25;10287,162;  222,567;25972,994;39,08515
 899,81;10228,008;  241,567;25747,610;39,15323
 900,37;10188,777;  203,337;25559,994;39,37995
 900,92;10212,085;  228,029;25551,225;39,42652
 901,48;10179,315;  232,567;25357,148;39,58971
 902,03;10133,700;  230,106;25230,763;39,61333
 902,59;10153,392;  229,029;25168,456;39,79387
 903,15;10119,392;  242,721;25028,917;39,84747
 903,70;10091,931;  230,721;24732,148;40,24749
 904,26;10003,085;  220,413;24704,071;39,95592
 904,82;10026,162;  231,183;24668,533;40,08200
 905,37; 9992,623;  237,490;24476,148;40,24618
 905,93; 9969,546;  212,721;24354,610;40,41451
 906,48;10002,546;  234,183;24239,071;40,69323
 907,04;10022,469;  245,490;24157,302;40,88765
 907,60;10031,777;  224,567;23999,225;41,25069
 908,15; 9995,238;  215,260;23918,379;41,26030
 908,71;10048,008;  234,413;23916,379;41,43910
 909,26; 9967,546;  219,029;23684,071;41,54485
 909,82;10008,777;  238,413;23621,148;41,78452
 910,37;10029,315;  267,567;23505,302;42,00817
 910,93;10009,085;  208,721;23351,456;42,34747
 911,48;10004,469;  207,644;23160,302;42,68275
 912,04; 9982,854;  216,567;23097,225;42,68359
 912,60; 9988,623;  226,260;23162,610;42,56285
 913,15; 9984,085;  230,106;22853,994;43,11363
 913,71; 9873,085;  207,183;22832,379;42,72185
 914,26; 9915,623;  206,490;22688,994;43,18528
 914,82; 9938,315;  222,875;22636,225;43,34667
 915,37; 9966,162;  226,029;22542,763;43,64497
 915,93; 9909,238;  272,644;22429,302;43,49300
 916,48; 9902,854;  208,952;22349,225;43,78402
 917,04; 9804,854;  239,567;22178,302;43,59999
 917,59; 9851,854;  240,029;22202,225;43,76532
 918,15; 9750,085;  191,413;21888,763;44,05456
 918,70; 9791,238;  211,644;21913,225;44,14238
 919,26; 9800,700;  224,490;21790,456;44,40427
 919,81; 9744,469;  210,644;21615,610;44,54025
 920,37; 9764,008;  221,260;21555,071;44,73063
 920,92; 9711,315;  229,875;21505,917;44,56393
 921,48; 9650,623;  199,260;21192,610;45,02075
 922,03; 9691,623;  213,337;21282,533;44,98646
 922,59; 9631,854;  220,721;21178,225;44,90579
 923,14; 9634,854;  210,644;20958,840;45,42183
 923,69; 9629,162;  242,029;20983,687;45,25739
 924,25; 9671,623;  241,337;20912,917;45,61957
 924,80; 9595,931;  212,029;20666,917;45,87608
 925,36; 9556,315;  218,183;20677,763;45,64186
 925,91; 9537,238;  207,567;20433,225;46,12790
 926,47; 9519,700;  197,644;20463,071;45,99980
 927,02; 9599,546;  262,183;20304,302;46,58870
 927,57; 9499,162;  222,260;20204,763;46,42512
 928,13; 9470,931;  200,644;20080,379;46,63184
 928,68; 9463,546;  219,490;20057,533;46,59762
 929,24; 9396,469;  189,567;19852,994;46,82247
 929,79; 9326,085;  204,644;19766,225;46,62936
 930,34; 9344,546;  217,875;19599,148;47,09015
 930,90; 9318,315;  208,413;19598,071;46,98330
 931,45; 9338,623;  226,798;19589,687;47,05819
 932,01; 9336,777;  225,875;19484,917;47,30714
 932,56; 9256,085;  241,029;19277,610;47,35649
 933,11; 9303,777;  236,183;19262,456;47,65828
 933,67; 9239,162;  202,029;19151,994;47,68944
 934,22; 9208,469;  223,644;19085,840;47,63403
 934,77; 9204,623;  240,567;19040,840;47,68046
 935,33; 9133,546;  224,952;18787,071;47,99341
 935,88; 9145,315;  227,337;18815,687;47,97617
 936,43; 9149,700;  214,644;18585,071;48,63826
 936,99; 9111,777;  230,337;18601,071;48,34559
 937,54; 9091,085;  210,490;18365,994;48,91406
 938,09; 9106,008;  230,260;18385,763;48,88737
 938,65; 9027,392;  230,567;18225,610;48,88471
 939,20; 8943,469;  208,337;18174,610;48,61961
 939,75; 8964,777;  207,337;18083,302;48,99003
 940,31; 8904,546;  204,567;17974,148;48,95996
 940,86; 8950,854;  221,798;17970,687;49,18086
 941,41; 8937,085;  278,106;17849,225;49,27961
 941,96; 8895,085;  214,183;17739,302;49,53405
 942,52; 8915,392;  207,183;17673,225;49,85794
 943,07; 8801,931;  188,567;17594,379;49,48556
 943,62; 8786,162;  210,952;17491,994;49,62206
 944,18; 8824,315;  200,029;17384,456;50,18664
 944,73; 8812,315;  213,413;17338,687;50,21177
 945,28; 8695,238;  186,337;17155,763;50,14254
 945,83; 8693,085;  216,029;17138,225;50,09430
 946,39; 8755,392;  206,952;17032,148;50,80737
 946,94; 8732,931;  233,183;17082,763;50,44486
 947,49; 8684,931;  212,798;16888,379;50,80562
 948,04; 8718,315;  233,413;16788,994;51,25101
 948,59; 8728,546;  234,875;16769,225;51,36985
 949,15; 8719,392;  200,798;16703,917;51,61809
 949,70; 8700,008;  213,490;16628,071;51,70109
 950,25; 8682,546;  234,875;16506,148;51,91770
 950,80; 8620,315;  175,029;16403,687;52,03934
 951,36; 8621,700;  186,490;16339,148;52,22181
 951,91; 8766,854;  227,106;16320,840;53,06256
 952,46; 8648,469;  192,798;16107,840;53,13006
 953,01; 8704,392;  225,183;16155,071;53,22830
 953,56; 8630,546;  195,567;16003,687;53,35852
 954,11; 8645,238;  222,106;16020,917;53,31498
 954,67; 8583,392;  211,721;15927,225;53,27014
 955,22; 8521,546;  193,106;15771,687;53,46084
 955,77; 8499,777;  227,567;15740,610;53,32423
 956,32; 8499,315;  253,952;15657,610;53,52861
 956,87; 8441,854;  205,029;15556,687;53,65430
 957,42; 8467,008;  209,413;15469,687;54,11171
 957,98; 8418,238;  201,106;15390,456;54,09799
 958,53; 8449,777;  233,413;15342,148;54,38155
 959,08; 8411,008;  209,798;15222,917;54,62695
 959,63; 8381,623;  199,721;15171,610;54,64843
 960,18; 8428,392;  228,952;15133,533;55,01289
 960,73; 8349,854;  210,490;15066,225;54,78937
 961,28; 8320,700;  198,798;14966,533;54,99762
 961,83; 8410,392;  229,644;14875,610;55,85667
 962,39; 8281,315;  187,106;14830,994;55,27364
 962,94; 8256,238;  223,644;14681,687;55,55797
 963,49; 8173,469;  223,029;14572,840;55,40449
 964,04; 8189,008;  228,567;14541,533;55,61699
 964,59; 8166,085;  189,644;14497,610;55,74825
 965,14; 8139,854;  219,798;14450,148;55,65609
 965,69; 8107,162;  209,567;14309,687;56,01083
 966,24; 8071,008;  208,567;14240,840;56,03112
 966,79; 8036,931;  226,413;14153,302;56,08229
 967,34; 7999,700;  195,567;14021,917;56,44391
 967,89; 8038,469;  206,260;13932,840;57,05871
 968,44; 7962,777;  217,490;13869,840;56,73226
 968,99; 7991,469;  223,183;13789,379;57,26208
 969,55; 7963,315;  220,952;13681,302;57,51978
 970,10; 7889,469;  223,490;13670,917;57,00703
 970,65; 7902,162;  237,183;13548,917;57,58062
 971,20; 7827,162;  202,875;13451,302;57,54862
 971,75; 7747,777;  183,721;13331,071;57,53293
 972,30; 7759,162;  226,798;13326,225;57,50147
 972,85; 7687,085;  199,644;13197,533;57,60505
 973,40; 7637,777;  198,490;13063,302;57,82663
 973,95; 7597,931;  217,490;13014,148;57,67475
 974,50; 7591,238;  228,337;12915,763;58,03306
 975,05; 7555,162;  216,106;12833,379;58,16673
 975,60; 7567,162;  221,875;12801,302;58,39127
 976,15; 7520,085;  219,183;12669,225;58,64158
 976,70; 7471,931;  221,567;12644,610;58,36222
 977,25; 7431,854;  224,337;12556,917;58,44290
 977,80; 7371,623;  209,952;12405,763;58,72238
 978,35; 7294,546;  226,183;12277,917;58,65018
 978,89; 7298,392;  192,798;12233,071;59,01522
 979,44; 7296,931;  221,106;12146,610;59,33355
 979,99; 7242,623;  201,413;11979,763;59,78095
 980,54; 7247,469;  232,952;11965,840;59,78508
 981,09; 7234,315;  237,029;11898,917;60,00132
 981,64; 7182,777;  221,644;11731,148;60,48161
 982,19; 7170,162;  252,183;11704,379;60,40744
 982,74; 7092,931;  226,644;11581,763;60,46864
 983,29; 7059,777;  204,413;11452,687;60,94592
 983,84; 6990,238;  221,183;11384,687;60,63558
 984,39; 7046,777;  270,413;11316,917;61,34397
 984,94; 6916,469;  196,183;11127,379;61,47805
 985,49; 6917,315;  241,260;11073,071;61,63379
 986,03; 6884,085;  239,490;11012,610;61,67753
 986,58; 6819,162;  264,260;10886,302;61,71037
 987,13; 6767,469;  222,260;10744,763;62,20202
 987,68; 6726,238;  228,106;10678,610;62,18009
 988,23; 6668,777;  235,183;10680,917;61,59063
 988,78; 6595,315;  207,029;10469,148;62,25114
 989,33; 6546,623;  244,183;10394,763;62,08946
 989,88; 6568,546;  249,721;10333,840;62,66115
 990,42; 6471,008;  214,490;10215,994;62,55577
 990,97; 6424,931;  214,029;10109,763;62,76342
 991,52; 6408,469;  240,721;10078,302;62,69578
 992,07; 6391,238;  261,106; 9958,840;63,21201
 992,62; 6321,315;  231,106; 9851,148;63,30751
 993,17; 6277,623;  240,875; 9734,533;63,58717
 993,71; 6183,623;  239,952; 9705,302;62,79399
 994,26; 6122,623;  208,952; 9585,071;63,07163
 994,81; 6149,469;  243,029; 9526,148;63,62560
 995,36; 6074,623;  217,106; 9366,225;64,02275
 995,91; 6027,085;  225,183; 9292,687;63,98566
 996,45; 5960,392;  227,183; 9195,687;63,92604
 997,00; 5897,854;  203,183; 9082,302;64,13554
 997,55; 5885,777;  228,413; 9089,687;63,84369
 998,10; 5829,700;  250,029; 8904,225;64,47359
 998,65; 5840,777;  231,798; 8834,840;65,19762
 999,19; 5748,392;  243,029; 8749,456;64,72005
 999,74; 5717,469;  234,798; 8674,533;64,96260
1000,29; 5666,931;  242,183; 8586,687;65,00983
1000,84; 5596,392;  219,413; 8432,917;65,46510
1001,38; 5556,623;  229,798; 8328,071;65,77730
1001,93; 5549,238;  239,952; 8324,379;65,67301
1002,48; 5417,162;  218,413; 8117,840;65,81171
1003,03; 5403,777;  236,798; 8113,071;65,60182
1003,57; 5380,469;  239,644; 7983,610;66,38492
1004,12; 5341,085;  261,413; 7926,917;66,26663
1004,67; 5267,700;  228,183; 7833,917;66,25944
1005,22; 5194,315;  213,567; 7710,456;66,43754
1005,76; 5129,700;  204,106; 7588,225;66,70524
1006,31; 5094,008;  245,106; 7535,225;66,51334
1006,86; 5029,162;  227,106; 7445,225;66,52780
1007,40; 4984,315;  206,260; 7318,379;67,18189
1007,95; 4989,931;  225,337; 7230,456;68,01589
1008,50; 4911,931;  243,567; 7130,379;67,78701
1009,04; 4865,315;  225,337; 7031,071;68,17749
1009,59; 4767,546;  231,875; 6879,687;68,22803
1010,14; 4702,469;  221,183; 6783,225;68,29103
1010,68; 4651,623;  225,260; 6735,225;67,99366
1011,23; 4597,469;  213,721; 6606,302;68,57556
1011,78; 4573,546;  230,029; 6518,994;69,06569
1012,32; 4504,392;  246,875; 6430,225;68,85454
1012,87; 4487,469;  245,644; 6391,840;69,01545
1013,42; 4392,469;  216,413; 6275,763;68,91920
1013,96; 4413,008;  251,337; 6292,687;68,88644
1014,51; 4333,008;  187,952; 6186,225;69,10415
1015,06; 4373,238;  203,337; 6183,225;69,73210
1015,60; 4430,085;  258,798; 6229,763;69,85950
1016,15; 4372,315;  223,952; 6194,533;69,48007
1016,69; 4386,469;  218,490; 6249,225;69,11229
1017,24; 4400,238;  204,567; 6251,071;69,39004
1017,79; 4479,162;  247,952; 6322,610;69,65347
1018,33; 4393,469;  208,798; 6294,148;68,76632
1018,88; 4481,700;  234,644; 6369,148;69,23226
1019,42; 4467,931;  213,567; 6337,917;69,46637
1019,97; 4464,162;  209,490; 6343,763;69,35901
1020,51; 4478,238;  238,337; 6399,071;68,82137
1021,06; 4452,931;  197,260; 6375,840;68,87781
1021,61; 4443,700;  183,337; 6371,302;68,84918
1022,15; 4437,700;  171,952; 6338,610;69,17439
1022,70; 4468,085;  211,337; 6305,763;69,84657
1023,24; 4392,469;  211,106; 6307,917;68,58279
1023,79; 4377,469;  225,644; 6242,610;69,00198
1024,33; 4380,854;  208,567; 6146,763;70,26185
1024,88; 4304,392;  222,875; 6127,302;69,12639
1025,42; 4239,008;  213,183; 5989,302;69,69775
1025,97; 4240,392;  208,183; 5937,610;70,37719
1026,51; 4127,469;  188,183; 5812,302;70,04273
1027,06; 4087,931;  203,106; 5776,610;69,70167
1027,60; 4038,854;  224,413; 5656,533;70,22012
1028,15; 3982,777;  228,644; 5570,071;70,28333
1028,69; 3912,392;  187,183; 5457,917;70,67724
1029,24; 3883,777;  201,029; 5413,840;70,64802
1029,78; 3777,238;  198,644; 5283,071;70,38343
1030,33; 3715,546;  192,798; 5191,148;70,47822
1030,87; 3733,700;  205,490; 5153,071;71,31181
1031,42; 3631,315;  194,721; 5033,840;71,01694
1031,96; 3613,392;  216,413; 5004,302;70,94941
1032,51; 3556,162;  192,644; 4923,840;71,09232
1033,05; 3541,546;  217,413; 4854,302;71,68886
1033,60; 3426,238;  191,260; 4731,148;71,25679
1034,14; 3426,777;  213,029; 4687,610;71,82233
1034,69; 3364,777;  201,490; 4605,379;71,82940
1035,23; 3318,854;  211,490; 4546,071;71,68775
1035,77; 3270,008;  213,875; 4543,456;70,58727
1036,32; 3221,469;  178,952; 4452,610;71,19235
1036,86; 3195,392;  213,183; 4367,456;71,78656
1037,41; 3147,469;  216,798; 4314,456;71,52064
1037,95; 3088,085;  186,260; 4246,917;71,46195
1038,50; 3058,238;  198,875; 4213,533;71,22309
1039,04; 3054,854;  216,875; 4176,763;71,66815
1039,58; 2974,700;  198,413; 4087,302;71,39023
1040,13; 2936,777;  213,721; 4031,840;71,31930
1040,67; 2973,469;  233,952; 4042,148;71,93740
1041,21; 2932,854;  235,567; 3937,840;72,85488
1041,76; 2845,162;  187,875; 3880,917;71,95386
1042,30; 2842,777;  205,952; 3822,687;72,90623
1042,85; 2782,931;  213,721; 3760,533;72,43716
1043,39; 2734,469;  195,029; 3645,917;73,58802
1043,93; 2730,392;  226,413; 3657,225;72,98503
1044,48; 2687,162;  210,567; 3598,225;73,10639
1045,02; 2632,931;  207,183; 3529,610;73,01133
1045,56; 2595,085;  227,029; 3501,225;72,32480
1046,11; 2581,623;  218,721; 3483,687;72,37142
1046,65; 2529,162;  216,875; 3398,071;72,68607
1047,19; 2502,238;  199,490; 3356,533;72,94004
1047,74; 2451,315;  194,567; 3310,225;72,43248
1048,28; 2431,392;  214,875; 3257,148;72,85728
1048,82; 2442,162;  229,875; 3236,071;73,59089
1049,37; 2397,085;  231,413; 3183,071;73,37135
1049,91; 2360,085;  220,567; 3134,533;73,42288
1050,45; 2323,854;  234,490; 3112,456;72,59863
1050,99; 2300,238;  209,952; 3043,302;73,77439
1051,54; 2238,700;  201,721; 2997,533;72,85823
1052,08; 2262,777;  235,952; 2957,610;74,47024
1052,62; 2228,854;  222,798; 2949,610;73,56782
1053,16; 2167,008;  204,875; 2872,456;73,55476
1053,71; 2161,085;  229,875; 2844,840;73,85221
1054,25; 2126,469;  218,337; 2780,456;74,47478
1054,79; 2131,392;  212,798; 2783,533;74,63214
1055,33; 2045,085;  189,337; 2702,610;73,83790
1055,88; 2049,085;  221,567; 2684,302;74,20683
1056,42; 2016,931;  231,798; 2657,148;73,60310
1056,96; 1985,931;  224,490; 2626,687;73,32625
1057,50; 1948,777;  223,567; 2588,379;72,95337
1058,05; 1919,777;  215,721; 2517,994;74,01623
1058,59; 1894,931;  237,413; 2514,533;72,79010
1059,13; 1849,700;  192,798; 2448,917;73,44035
1059,67; 1869,008;  225,413; 2413,071;75,13032
1060,21; 1812,008;  221,260; 2392,379;73,26857
1060,76; 1796,162;  231,952; 2373,610;73,03733
1061,30; 1784,162;  240,567; 2339,994;73,52455
1061,84; 1753,700;  215,875; 2290,533;74,12428
1062,38; 1711,315;  210,644; 2223,994;74,53603
1062,92; 1755,546;  251,490; 2261,533;74,82707
1063,46; 1681,469;  239,490; 2193,071;73,81209
1064,01; 1660,546;  209,798; 2161,687;74,32536
1064,55; 1632,085;  230,413; 2137,148;73,51160
1065,09; 1590,700;  198,106; 2081,148;73,95448
1065,63; 1615,623;  254,260; 2103,917;73,60083
1066,17; 1593,700;  250,337; 2071,379;73,76893
1066,71; 1577,700;  241,183; 2052,533;73,78570
1067,25; 1532,238;  221,644; 1987,840;74,20434
1067,80; 1556,085;  237,413; 1981,917;75,59004
1068,34; 1543,931;  257,337; 1969,379;75,14968
1068,88; 1480,315;  225,490; 1907,533;74,60127
1069,42; 1528,854;  254,952; 1935,840;75,78742
1069,96; 1483,546;  225,952; 1885,071;75,79891
1070,50; 1480,777;  256,798; 1878,379;75,48060
1071,04; 1430,700;  216,337; 1818,456;75,79732
1071,58; 1425,315;  219,721; 1813,763;75,63126
1072,12; 1409,777;  219,413; 1766,071;76,96360
1072,66; 1406,854;  216,260; 1775,994;76,33313
1073,21; 1407,854;  230,260; 1769,148;76,52239
1073,75; 1369,162;  232,952; 1724,071;76,19844
1074,29; 1349,854;  227,644; 1711,687;75,61844
1074,83; 1353,777;  238,029; 1710,071;75,79592
1075,37; 1351,854;  240,106; 1682,763;77,06250
1075,91; 1327,315;  240,106; 1678,687;75,57515
1076,45; 1313,700;  236,183; 1638,763;76,82390
1076,99; 1313,931;  243,260; 1613,225;78,15315
1077,53; 1278,700;  219,721; 1585,225;77,55224
1078,07; 1277,238;  233,644; 1603,225;76,19808
1078,61; 1268,777;  226,644; 1542,071;79,22391
1079,15; 1245,623;  222,337; 1536,302;77,87774
1079,69; 1229,392;  233,260; 1518,456;77,50822
1080,23; 1232,162;  244,029; 1516,456;77,65732
1080,77; 1254,315;  263,260; 1528,687;78,31790
1081,31; 1191,162;  226,029; 1467,071;77,76791
1081,85; 1192,315;  236,337; 1460,687;78,08052
1082,39; 1164,854;  224,413; 1428,763;78,08697
1082,93; 1165,777;  234,952; 1434,071;77,62573
1083,47; 1144,008;  212,567; 1393,994;78,84029
1084,01; 1151,854;  238,490; 1411,763;77,84747
1084,55; 1116,546;  225,490; 1355,456;78,85691
1085,09; 1120,623;  245,644; 1366,225;78,08262
1085,63; 1096,854;  231,106; 1337,148;78,27441
1086,17; 1077,700;  225,260; 1316,994;78,08128
1086,71; 1070,008;  219,952; 1281,302;80,09194
1087,24; 1078,931;  257,490; 1297,840;78,95808
1087,78; 1081,854;  243,721; 1308,302;78,72890
1088,32; 1026,931;  217,875; 1249,225;78,44629
1088,86; 1040,315;  251,644; 1246,994;79,23556
1089,40; 1019,623;  231,952; 1233,533;78,64280
1089,94;  983,931;  202,875; 1207,763;77,72562
1090,48;  995,546;  246,183; 1217,071;77,18327
1091,02;  981,162;  249,413; 1206,379;76,46547
1091,56;  989,162;  229,644; 1182,533;79,70684
1092,10;  958,854;  214,952; 1152,456;79,34921
1092,63;  974,931;  242,952; 1179,994;78,11588
1093,17;  968,623;  228,183; 1145,917;80,68132
1093,71;  936,546;  222,798; 1115,225;79,97832
1094,25;  953,085;  251,644; 1126,302;80,19599
1094,79;  935,162;  230,183; 1088,302;82,15395
1095,33;  911,931;  229,183; 1093,225;79,01790
1095,87;  899,085;  235,183; 1074,610;79,08990
1096,40;  878,085;  212,106; 1042,687;80,18231
1096,94;  886,392;  232,183; 1052,302;79,77006
1097,48;  893,546;  244,798; 1048,687;80,70125
1098,02;  869,238;  221,337; 1013,148;81,82527
1098,56;  821,315;  203,567;  984,071;79,14735
1099,10;  825,392;  202,260;  984,610;79,64884
1099,63;  825,162;  210,029;  972,456;80,68087
1100,17;  831,777;  236,260;  985,071;79,52833
1100,71;  845,162;  245,413; 1000,763;79,40002

