
Integration time [ms]: 120,000
Averaging Nr. [scans]: 13
Smoothing Nr. [pixels]: 0
Data measured with spectrometer [name]: 2009305U1
Wave   ;Sample   ;Dark     ;Reference;Reflectance
[nm]   ;[counts] ;[counts] ;[counts] ;[%]

 175,72;  197,938;  200,110;  202,873;-78,63018
 176,32;  218,561;  231,332;  217,715; 0,00000
 176,92;  249,176;  245,184;  240,921; 0,00000
 177,52;  246,676;  250,109;  256,275;-55,66017
 178,12;  230,876;  223,102;  218,213; 0,00000
 178,72;  244,807;  248,022;  243,330; 0,00000
 179,32;  244,015;  256,178;  243,824; 0,00000
 179,92;  247,638;  241,720;  245,617;151,85459
 180,52;  244,331;  230,730;  241,246;129,33381
 181,12;  246,946;  248,567;  250,061;-108,52844
 181,73;  267,446;  265,952;  273,731;19,19796
 182,33;  333,854;  337,265;  342,339;-67,23218
 182,93;  266,261;  258,493;  264,171;136,81687
 183,53;  242,091;  235,252;  221,768; 0,00000
 184,13;  240,091;  230,330;  222,348; 0,00000
 184,73;  262,199;  263,712;  262,061; 0,00000
 185,33;  249,873;  222,813;  335,622;23,98771
 185,93;  252,596;  225,114;  349,529;22,08895
 186,53;  271,596;  238,117;  379,892;23,61395
 187,13;  302,843;  271,894;  396,171;24,90304
 187,73;  262,511;  225,807;  353,841;28,66745
 188,33;  254,403;  238,650;  368,758;12,10810
 188,93;  270,726;  246,946;  366,563;19,88012
 189,53;  270,795;  240,552;  363,460;24,60578
 190,13;  307,894;  275,692;  394,159;27,18226
 190,73;  248,671;  213,317;  352,390;25,42148
 191,34;  273,295;  251,866;  378,765;16,88686
 191,94;  259,919;  235,107;  360,268;19,82351
 192,54;  262,643;  241,591;  390,133;14,17224
 193,14;  276,527;  257,816;  388,913;14,27268
 193,74;  278,304;  252,969;  383,609;19,39313
 194,34;  275,296;  254,664;  378,868;16,61181
 194,94;  239,804;  210,354;  355,117;20,34346
 195,54;  219,181;  192,813;  337,228;18,25827
 196,14;  246,435;  222,204;  355,041;18,24126
 196,74;  239,335;  220,965;  336,888;15,84606
 197,34;  215,251;  185,516;  340,966;19,12819
 197,94;  248,043;  223,202;  369,904;16,93288
 198,54;  257,966;  229,435;  370,150;20,27588
 199,14;  234,828;  206,826;  380,207;16,15045
 199,74;  212,320;  199,672;  362,157; 7,78400
 200,34;  218,074;  185,981;  386,732;15,98651
 200,94;  247,297;  229,284;  404,812;10,26206
 201,54;  236,312;  207,440;  424,455;13,30421
 202,14;  250,297;  227,059;  472,480; 9,46848
 202,74;  226,697;  203,210;  476,428; 8,59629
 203,34;  216,782;  186,447;  469,920;10,70112
 203,94;  189,912;  160,060;  478,769; 9,36663
 204,54;  269,866;  241,433;  552,751; 9,13305
 205,14;  220,897;  184,749;  573,546; 9,29739
 205,74;  258,413;  223,754;  647,558; 8,17787
 206,34;  237,797;  202,829;  669,407; 7,49466
 206,94;  250,166;  203,674;  729,266; 8,84573
 207,54;  219,482;  172,905;  753,909; 8,01655
 208,14;  240,535;  202,675;  838,670; 5,95293
 208,74;  237,351;  200,902;  898,202; 5,22707
 209,34;  242,858;  193,211;  981,994; 6,29419
 209,94;  260,328;  202,441; 1071,279; 6,66249
 210,54;  248,866;  201,753; 1188,471; 4,77473
 211,14;  275,805;  207,595; 1267,456; 6,43571
 211,73;  265,566;  206,439; 1390,455; 4,99373
 212,33;  292,266;  215,438; 1522,708; 5,87700
 212,93;  271,905;  208,594; 1566,379; 4,66275
 213,53;  251,843;  178,364; 1648,999; 4,99641
 214,13;  266,651;  186,757; 1718,993; 5,21422
 214,73;  266,835;  175,444; 1770,095; 5,73112
 215,33;  245,174;  165,672; 1775,125; 4,93967
 215,93;  276,797;  192,985; 1870,490; 4,99624
 216,53;  241,604;  152,825; 1952,587; 4,93285
 217,13;  307,736;  209,292; 2163,915; 5,03646
 217,73;  288,782;  192,831; 2320,006; 4,51070
 218,33;  280,313;  154,450; 2493,708; 5,38045
 218,93;  312,744;  183,688; 2777,639; 4,97527
 219,53;  343,728;  183,989; 3086,043; 5,50435
 220,13;  311,236;  153,682; 3373,664; 4,89299
 220,73;  361,005;  167,442; 3677,026; 5,51527
 221,32;  373,581;  186,902; 4061,202; 4,81840
 221,92;  408,905;  191,836; 4482,845; 5,05870
 222,52;  426,789;  170,755; 4928,580; 5,38134
 223,12;  450,036;  174,678; 5311,431; 5,36054
 223,72;  475,605;  182,524; 5778,997; 5,23688
 224,32;  507,020;  186,063; 6115,477; 5,41296
 224,92;  519,620;  173,986; 6473,463; 5,48671
 225,52;  559,735;  194,905; 6867,601; 5,46752
 226,12;  588,774;  184,830; 7208,919; 5,75084
 226,72;  586,351;  160,983; 7573,009; 5,73888
 227,31;  597,028;  141,599; 7973,996; 5,81468
 227,91;  661,882;  178,519; 8371,266; 5,89988
 228,51;  670,374;  176,977; 8814,255; 5,71241
 229,11;  742,728;  179,137; 9285,050; 6,18929
 229,71;  761,781;  173,825; 9549,184; 6,27130
 230,31;  786,590;  161,757;10004,622; 6,34808
 230,91;  805,489;  153,359;10329,852; 6,40820
 231,51;  857,151;  156,216;10676,915; 6,66244
 232,10;  914,251;  165,450;11009,337; 6,90528
 232,70;  954,373;  170,664;11133,945; 7,14849
 233,30; 1013,705;  193,985;11455,562; 7,27891
 233,90; 1046,228;  168,831;11573,318; 7,69344
 234,50; 1070,066;  177,677;11711,639; 7,73706
 235,10; 1099,697;  167,525;11729,540; 8,06237
 235,70; 1159,151;  196,058;11761,655; 8,32722
 236,29; 1178,820;  194,056;11655,487; 8,59198
 236,89; 1198,220;  164,052;11549,992; 9,08285
 237,49; 1257,920;  182,368;11445,335; 9,54945
 238,09; 1261,182;  177,905;11157,638; 9,86614
 238,69; 1299,927;  206,973;10872,607;10,24744
 239,29; 1259,643;  169,674;10581,194;10,46888
 239,89; 1277,312;  188,668;10236,698;10,83441
 240,48; 1270,243;  165,444; 9830,009;11,43144
 241,08; 1277,151;  169,827; 9487,945;11,88355
 241,68; 1272,174;  184,752; 9147,968;12,13205
 242,28; 1251,005;  161,061; 8792,526;12,62756
 242,88; 1267,143;  197,757; 8466,405;12,93303
 243,48; 1260,966;  200,291; 8217,308;13,23029
 244,07; 1237,482;  184,673; 7941,714;13,57229
 244,67; 1246,059;  180,983; 7812,186;13,95685
 245,27; 1234,874;  196,593; 7600,147;14,02408
 245,87; 1243,374;  188,680; 7503,269;14,41905
 246,47; 1245,351;  177,593; 7504,161;14,57377
 247,06; 1245,943;  175,212; 7501,380;14,61515
 247,66; 1277,597;  171,598; 7507,502;15,07652
 248,26; 1324,651;  198,594; 7680,252;15,05090
 248,86; 1331,335;  197,517; 7835,908;14,84368
 249,46; 1339,659;  148,370; 8081,196;15,01721
 250,05; 1410,259;  199,290; 8459,647;14,66001
 250,65; 1420,951;  167,670; 8763,473;14,58015
 251,25; 1467,251;  175,212; 9259,936;14,22210
 251,85; 1566,981;  174,898; 9807,639;14,45158
 252,44; 1598,720;  149,441;10404,804;14,13191
 253,04; 1689,005;  181,519;11139,257;13,75727
 253,64; 1756,558;  141,054;11824,061;13,82782
 254,24; 1895,535;  183,059;12767,543;13,60784
 254,84; 1949,736;  169,446;13615,273;13,24046
 255,43; 2054,712;  167,903;14455,596;13,20584
 256,03; 2181,727;  182,977;15537,988;13,01693
 256,63; 2249,127;  195,206;16514,825;12,58560
 257,23; 2324,274;  167,129;17345,771;12,55713
 257,82; 2400,450;  179,203;18351,919;12,22298
 258,42; 2428,366;  147,817;19148,687;12,00234
 259,02; 2546,658;  196,903;20015,338;11,85641
 259,62; 2573,212;  165,508;20715,560;11,71629
 260,21; 2613,881;  179,364;21261,849;11,54758
 260,81; 2622,405;  172,907;21761,326;11,34635
 261,41; 2634,312;  158,203;22124,027;11,27255
 262,01; 2697,358;  201,046;22589,550;11,14997
 262,60; 2643,274;  157,052;22857,540;10,95228
 263,20; 2665,835;  164,978;23198,998;10,85723
 263,80; 2686,627;  187,968;23365,093;10,78071
 264,40; 2603,973;  154,815;23598,994;10,44676
 264,99; 2631,381;  188,660;23715,396;10,38274
 265,59; 2622,934;  169,887;23910,612;10,33266
 266,19; 2591,889;  166,584;24001,890;10,17526
 266,78; 2637,450;  204,735;24111,097;10,17601
 267,38; 2578,011;  178,042;24110,046;10,02829
 267,98; 2548,435;  164,505;24153,613; 9,93755
 268,58; 2538,842;  186,041;24180,879; 9,80545
 269,17; 2505,173;  168,807;24176,190; 9,73186
 269,77; 2493,020;  175,436;24019,286; 9,71984
 270,37; 2484,265;  146,276;23861,785; 9,85848
 270,96; 2467,596;  212,049;23777,796; 9,57129
 271,56; 2428,266;  177,975;23455,503; 9,66722
 272,16; 2400,381;  173,279;23345,529; 9,61107
 272,75; 2414,835;  176,126;23222,475; 9,71394
 273,35; 2393,466;  190,896;23205,077; 9,57049
 273,95; 2388,327;  178,433;23172,964; 9,61052
 274,54; 2397,143;  162,674;23176,497; 9,70925
 275,14; 2474,443;  190,588;23548,240; 9,77776
 275,74; 2430,866;  152,741;23612,434; 9,71080
 276,33; 2509,612;  199,205;23907,765; 9,74503
 276,93; 2562,220;  180,906;24350,471; 9,85253
 277,53; 2632,389;  178,056;24808,437; 9,96466
 278,12; 2684,251;  156,438;25351,463;10,03298
 278,72; 2813,674;  207,902;25930,003;10,13048
 279,32; 2864,035;  180,517;26427,414;10,22414
 279,91; 2972,574;  160,054;27208,518;10,39807
 280,51; 3057,212;  172,749;27648,370;10,49827
 281,11; 3195,558;  185,439;28417,581;10,66203
 281,70; 3257,666;  164,054;28725,396;10,83147
 282,30; 3381,497;  163,360;29381,042;11,01435
 282,90; 3482,012;  167,821;29798,675;11,18493
 283,49; 3642,035;  187,434;30296,335;11,47369
 284,09; 3770,589;  202,900;30739,558;11,68330
 284,69; 3909,058;  204,670;31083,405;11,99657
 285,28; 3993,020;  199,438;31435,147;12,14502
 285,88; 4152,281;  230,202;31632,624;12,48973
 286,47; 4251,674;  182,898;31767,648;12,88209
 287,07; 4385,620;  201,440;31775,772;13,25184
 287,67; 4541,120;  193,907;31928,385;13,69871
 288,26; 4664,497;  174,286;31735,346;14,22706
 288,86; 4835,689;  175,669;31898,079;14,68999
 289,46; 5046,328;  181,439;31934,342;15,32108
 290,05; 5246,297;  175,827;32059,063;15,90325
 290,65; 5516,243;  186,051;32265,847;16,61542
 291,24; 5726,958;  186,748;32442,252;17,17602
 291,84; 5971,820;  196,052;32541,363;17,85658
 292,44; 6239,397;  185,984;32701,879;18,61678
 293,03; 6486,951;  245,594;32808,206;19,16725
 293,63; 6650,074;  173,744;32892,739;19,79379
 294,22; 6845,797;  204,747;33109,934;20,18238
 294,82; 7025,027;  175,354;33078,696;20,81756
 295,41; 7149,358;  167,823;32895,165;21,33242
 296,01; 7324,389;  214,356;32681,284;21,89931
 296,61; 7375,458;  203,363;32431,641;22,25404
 297,20; 7422,873;  187,202;32167,565;22,62536
 297,80; 7464,674;  200,213;32028,452;22,82395
 298,39; 7560,289;  176,744;31525,101;23,55321
 298,99; 7556,381;  201,280;31317,195;23,63775
 299,58; 7659,412;  191,906;31210,312;24,07444
 300,18; 7670,982;  202,443;31103,624;24,16910
 300,78; 7657,958;  175,210;30692,763;24,51949
 301,37; 7703,973;  196,890;30587,432;24,70204
 301,97; 7778,697;  200,978;30615,713;24,91463
 302,56; 7770,358;  167,975;30574,304;25,00263
 303,16; 7815,889;  171,204;30473,055;25,22844
 303,75; 7817,812;  182,057;30495,945;25,18897
 304,35; 7962,766;  180,063;30724,205;25,48018
 304,94; 7999,366;  179,439;30727,030;25,59916
 305,54; 8001,274;  198,364;30620,356;25,64891
 306,13; 8025,066;  159,601;30588,612;25,84857
 306,73; 7997,220;  171,984;30388,973;25,89681
 307,33; 8046,197;  191,060;30332,163;26,06121
 307,92; 8011,120;  187,594;30310,758;25,97179
 308,52; 8127,589;  162,819;30807,494;25,99071
 309,11; 8301,435;  172,663;31288,728;26,12404
 309,71; 8379,827;  157,046;31478,596;26,25279
 310,30; 8399,435;  172,286;31699,274;26,09558
 310,90; 8576,512;  197,978;32084,043;26,27647
 311,49; 8573,812;  178,132;32148,776;26,26059
 312,09; 8607,612;  150,981;32308,022;26,29791
 312,68; 8790,074;  229,826;32691,229;26,37054
 313,28; 8724,197;  153,209;32834,758;26,22577
 313,87; 8753,451;  152,824;32955,297;26,21945
 314,47; 8830,343;  172,048;33198,764;26,21603
 315,06; 8837,312;  151,902;33298,292;26,20319
 315,66; 8897,843;  166,904;33516,099;26,18036
 316,25; 8835,897;  152,743;33427,322;26,09546
 316,85; 8785,805;  149,828;33489,402;25,90308
 317,44; 8787,204;  165,432;33660,873;25,74014
 318,04; 8769,489;  141,744;33659,151;25,74109
 318,63; 8733,536;  153,215;33796,173;25,50406
 319,22; 8800,589;  178,590;33947,928;25,53203
 319,82; 8756,974;  170,515;33922,260;25,44004
 320,41; 8685,581;  187,898;33803,644;25,27888
 321,01; 8682,266;  187,058;33865,266;25,22464
 321,60; 8650,335;  170,361;33901,423;25,13996
 322,20; 8563,866;  157,902;33876,537;24,92973
 322,79; 8554,012;  209,287;33900,722;24,76809
 323,39; 8518,413;  177,601;33960,788;24,68924
 323,98; 8495,812;  162,825;33810,510;24,76541
 324,58; 8425,827;  170,127;33727,770;24,60155
 325,17; 8317,650;  167,743;33605,453;24,37340
 325,76; 8234,097;  191,670;33355,179;24,25083
 326,36; 8108,935;  165,673;32990,284;24,19911
 326,95; 7984,635;  190,438;32707,522;23,96954
 327,55; 7867,004;  158,976;32358,834;23,93808
 328,14; 7756,005;  159,444;31926,271;23,91350
 328,74; 7665,404;  198,359;31474,277;23,87474
 329,33; 7501,274;  195,288;31095,474;23,64382
 329,92; 7335,950;  164,355;30551,968;23,60039
 330,52; 7140,620;  180,367;29961,262;23,37154
 331,11; 7007,881;  174,669;29505,160;23,29730
 331,71; 6814,343;  177,824;28992,980;23,03135
 332,30; 6698,212;  194,055;28579,183;22,91396
 332,89; 6589,805;  225,365;28002,515;22,91250
 333,49; 6373,335;  188,361;27531,106;22,62016
 334,08; 6272,689;  180,591;27057,020;22,66707
 334,68; 6162,251;  186,438;26669,617;22,56456
 335,27; 6043,189;  207,060;26367,810;22,30872
 335,86; 5968,343;  230,361;26052,545;22,22113
 336,46; 5838,705;  191,060;25817,512;22,03834
 337,05; 5744,097;  174,130;25724,300;21,80011
 337,65; 5673,027;  164,976;25463,124;21,77255
 338,24; 5703,481;  217,056;25371,759;21,81073
 338,83; 5645,143;  201,902;25236,338;21,74301
 339,43; 5545,181;  165,513;25237,716;21,45670
 340,02; 5520,289;  176,666;25087,761;21,45077
 340,61; 5487,304;  169,440;25166,247;21,27417
 341,21; 5511,866;  206,205;25164,738;21,25790
 341,80; 5420,674;  174,207;25058,929;21,08308
 342,40; 5407,897;  174,290;25211,149;20,90361
 342,99; 5376,420;  167,057;25204,438;20,80634
 343,58; 5376,966;  176,288;25454,705;20,57359
 344,18; 5413,451;  181,673;25509,140;20,65654
 344,77; 5441,266;  163,435;25750,394;20,62703
 345,36; 5446,789;  161,823;26055,291;20,41042
 345,96; 5518,751;  197,750;26293,257;20,39049
 346,55; 5532,389;  163,755;26623,951;20,28947
 347,14; 5569,382;  157,444;26853,977;20,27206
 347,74; 5597,074;  151,220;27355,636;20,01827
 348,33; 5686,759;  173,604;27946,763;19,85066
 348,92; 5762,313;  190,223;28559,542;19,64125
 349,52; 5834,759;  146,606;28931,257;19,76106
 350,11; 5874,858;  173,050;29134,883;19,68732
 350,70; 5871,589;  167,671;29276,265;19,59531
 351,29; 5751,127;  154,735;29067,160;19,35636
 351,89; 5736,043;  178,355;29089,529;19,22332
 352,48; 5720,951;  155,440;28926,668;19,34401
 353,07; 5706,312;  182,830;28953,928;19,19803
 353,67; 5659,190;  183,531;28901,484;19,06702
 354,26; 5577,851;  189,137;28669,254;18,92097
 354,85; 5571,982;  181,828;28536,076;19,01004
 355,45; 5493,327;  157,283;28384,404;18,90396
 356,04; 5468,797;  182,522;28248,824;18,83495
 356,63; 5416,920;  207,131;28047,378;18,71316
 357,22; 5371,089;  183,199;27888,957;18,72495
 357,82; 5381,289;  178,200;27692,655;18,91038
 358,41; 5308,420;  190,285;27660,509;18,63157
 359,00; 5242,189;  160,820;27531,838;18,56478
 359,60; 5227,935;  180,748;27473,329;18,49289
 360,19; 5173,159;  186,523;27226,055;18,44202
 360,78; 5147,551;  173,745;27060,495;18,49909
 361,37; 5117,735;  178,745;26940,368;18,45549
 361,97; 5116,635;  181,977;26819,889;18,52494
 362,56; 5002,743;  169,819;26560,426;18,31304
 363,15; 4977,712;  210,976;26288,164;18,27933
 363,74; 4935,535;  180,818;25944,529;18,45509
 364,34; 4895,997;  191,974;25613,996;18,50373
 364,93; 4773,627;  166,357;25263,824;18,35751
 365,52; 4683,035;  161,899;24817,237;18,33735
 366,11; 4675,581;  182,359;24544,191;18,44370
 366,71; 4584,358;  166,820;24256,082;18,33820
 367,30; 4564,774;  170,900;23869,047;18,54100
 367,89; 4549,789;  210,674;23714,696;18,46116
 368,48; 4469,520;  201,741;23367,353;18,42290
 369,07; 4402,589;  172,440;22961,727;18,56201
 369,67; 4385,658;  190,665;22773,475;18,57605
 370,26; 4304,651;  169,902;22466,397;18,54439
 370,85; 4290,951;  179,669;22238,961;18,63741
 371,44; 4262,051;  180,054;22078,002;18,64100
 372,03; 4246,312;  162,051;21765,503;18,90559
 372,63; 4193,212;  147,592;21457,595;18,98461
 373,22; 4175,351;  178,824;21264,460;18,95379
 373,81; 4143,789;  151,822;20887,300;19,25187
 374,40; 4112,551;  169,982;20755,163;19,15246
 374,99; 4057,135;  165,591;20466,861;19,16897
 375,59; 4068,759;  164,520;20178,190;19,50786
 376,18; 4095,589;  190,053;20070,422;19,64519
 376,77; 4103,912;  182,208;19935,314;19,85361
 377,36; 4126,466;  203,822;19861,671;19,95459
 377,95; 4077,881;  190,898;19564,367;20,06344
 378,55; 4075,958;  176,442;19479,343;20,20171
 379,14; 4082,535;  196,515;19341,165;20,29821
 379,73; 4098,481;  186,436;19267,653;20,50207
 380,32; 4155,720;  193,900;19353,088;20,67843
 380,91; 4157,527;  169,818;19185,543;20,97059
 381,50; 4184,927;  188,127;19141,761;21,08725
 382,10; 4165,027;  159,977;19023,550;21,23166
 382,69; 4221,974;  157,053;19011,952;21,55896
 383,28; 4276,066;  200,743;18912,037;21,78002
 383,87; 4257,281;  170,127;18817,254;21,91841
 384,46; 4311,204;  173,970;18795,139;22,21791
 385,05; 4369,843;  208,127;18823,408;22,35645
 385,64; 4391,581;  171,897;18742,345;22,72258
 386,24; 4386,142;  163,354;18671,777;22,81550
 386,83; 4496,227;  200,815;18753,378;23,15266
 387,42; 4602,258;  202,974;18843,784;23,60028
 388,01; 4679,504;  189,965;19065,911;23,78444
 388,60; 4764,350;  184,970;19250,922;24,01863
 389,19; 4881,573;  170,806;19513,230;24,35458
 389,78; 5038,465;  176,115;19779,398;24,80375
 390,37; 5216,504;  226,044;20111,925;25,09549
 390,96; 5242,781;  180,508;20281,999;25,18357
 391,56; 5367,027;  185,882;20441,460;25,57885
 392,15; 5444,911;  176,193;20728,665;25,63545
 392,74; 5572,318;  165,952;20799,855;26,20137
 393,33; 5706,250;  180,804;21104,510;26,40759
 393,92; 5854,526;  176,180;21464,578;26,67343
 394,51; 5972,734;  177,189;21633,885;27,01043
 395,10; 6128,626;  217,401;21864,520;27,30721
 395,69; 6192,056;  200,249;21986,294;27,50296
 396,28; 6311,610;  195,167;22178,296;27,82335
 396,87; 6389,679;  203,466;22188,646;28,13810
 397,46; 6469,994;  201,922;22287,467;28,38088
 398,06; 6620,570;  208,992;22488,052;28,77850
 398,65; 6685,246;  204,437;22561,040;28,98835
 399,24; 6830,869;  224,357;22665,021;29,43992
 399,83; 6837,868;  196,563;22709,801;29,49956
 400,42; 6985,467;  245,387;22899,258;29,75244
 401,01; 7095,612;  219,823;23002,396;30,18004
 401,60; 7195,648;  221,327;23008,449;30,60642
 402,19; 7229,947;  247,299;22965,025;30,73656
 402,78; 7321,914;  245,872;22940,038;31,18000
 403,37; 7356,181;  231,986;22817,328;31,54345
 403,96; 7353,248;  240,708;22688,226;31,68520
 404,55; 7407,968;  245,655;22574,434;32,07660
 405,14; 7405,827;  220,454;22461,716;32,30650
 405,73; 7494,678;  244,475;22396,569;32,72920
 406,32; 7588,807;  252,360;22279,648;33,30617
 406,91; 7481,520;  244,317;22049,013;33,19103
 407,50; 7524,180;  258,602;21885,148;33,59565
 408,09; 7488,110;  240,587;21583,178;33,95803
 408,68; 7548,464;  234,806;21504,539;34,38528
 409,27; 7508,980;  233,359;21317,301;34,50788
 409,86; 7567,666;  241,624;21177,379;34,99297
 410,45; 7639,998;  268,652;21119,790;35,35225
 411,04; 7675,423;  267,604;21080,043;35,59323
 411,63; 7607,848;  258,335;20837,815;35,71282
 412,22; 7596,942;  261,985;20668,780;35,94370
 412,81; 7550,643;  288,997;20378,564;36,14635
 413,40; 7505,982;  282,704;20005,385;36,62422
 413,99; 7469,428;  322,777;19776,044;36,73754
 414,58; 7384,651;  244,395;19446,217;37,18531
 415,17; 7332,520;  265,843;19200,130;37,32212
 415,76; 7352,558;  253,060;19067,816;37,73367
 416,35; 7344,758;  252,605;18864,516;38,10545
 416,94; 7424,588;  292,755;18909,686;38,30832
 417,53; 7520,004;  262,536;19201,777;38,31974
 418,12; 7614,151;  254,155;19240,489;38,76470
 418,71; 7818,474;  275,474;19601,096;39,03109
 419,30; 7871,374;  267,002;19669,177;39,19340
 419,89; 7940,966;  258,313;19828,654;39,25662
 420,48; 8172,974;  283,782;20084,168;39,84363
 421,07; 8217,005;  271,862;20162,278;39,94458
 421,66; 8257,767;  247,484;20113,259;40,32203
 422,25; 8284,283;  259,575;20168,509;40,30707
 422,84; 8312,437;  291,654;20118,429;40,45430
 423,43; 8236,383;  265,802;19840,272;40,71927
 424,02; 8209,876;  281,574;19689,613;40,85061
 424,60; 8033,476;  266,975;19256,751;40,89833
 425,19; 7995,807;  273,274;18981,897;41,27793
 425,78; 7953,407;  282,737;18938,087;41,11780
 426,37; 7981,846;  274,050;18706,551;41,81633
 426,96; 7926,415;  271,589;18630,579;41,69525
 427,55; 7864,046;  253,752;18423,257;41,88498
 428,14; 7873,962;  254,602;18314,942;42,18835
 428,73; 7840,477;  258,979;18125,943;42,43305
 429,32; 7866,623;  272,742;18158,700;42,45722
 429,91; 7845,892;  287,595;18050,961;42,54991
 430,50; 7816,669;  283,215;17969,719;42,59437
 431,08; 7750,046;  282,220;17837,309;42,53938
 431,67; 7764,124;  321,532;17807,338;42,56362
 432,26; 7690,132;  337,152;17580,345;42,64280
 432,85; 7643,039;  346,381;17262,521;43,13430
 433,44; 7477,186;  363,003;16965,759;42,84941
 434,03; 7334,871;  372,165;16585,088;42,94541
 434,62; 7166,686;  331,695;16184,668;43,11488
 435,21; 7099,608;  356,459;16013,376;43,06818
 435,79; 7086,178;  350,931;15844,947;43,46999
 436,38; 7057,194;  337,632;15784,190;43,50200
 436,97; 6991,094;  329,633;15697,172;43,34761
 437,56; 6951,202;  343,568;15441,621;43,76481
 438,15; 6911,264;  316,950;15355,004;43,85085
 438,74; 6940,725;  332,951;15464,200;43,66972
 439,33; 6945,548;  313,334;15359,647;44,07867
 439,91; 6938,141;  281,032;15418,889;43,97656
 440,50; 7006,279;  314,186;15563,165;43,88552
 441,09; 7064,064;  327,424;15661,060;43,93374
 441,68; 7016,303;  307,047;15628,439;43,79012
 442,27; 7004,403;  291,274;15613,356;43,81343
 442,86; 6992,050;  272,059;15595,639;43,85392
 443,44; 7038,512;  286,210;15641,651;43,97335
 444,03; 7077,050;  345,444;15700,707;43,83908
 444,62; 6991,273;  289,906;15556,277;43,89627
 445,21; 6915,735;  302,058;15401,023;43,80219
 445,80; 6915,127;  326,451;15395,443;43,72341
 446,39; 6785,920;  342,065;15123,392;43,59456
 446,97; 6674,120;  290,228;14914,550;43,65257
 447,56; 6595,182;  290,543;14717,409;43,70068
 448,15; 6553,928;  298,382;14534,709;43,94073
 448,74; 6466,766;  313,229;14318,406;43,93759
 449,33; 6373,551;  293,619;14205,123;43,70435
 449,91; 6247,913;  292,858;13988,439;43,48158
 450,50; 6178,498;  293,702;13753,841;43,72017
 451,09; 6105,513;  310,857;13679,135;43,34632
 451,68; 6106,352;  331,014;13613,838;43,47974
 452,26; 6080,175;  325,787;13562,980;43,47136
 452,85; 5970,475;  302,862;13444,382;43,12753
 453,44; 6005,122;  314,950;13468,943;43,25813
 454,03; 5971,914;  293,636;13430,805;43,22299
 454,61; 5959,853;  294,489;13416,537;43,17438
 455,20; 6008,999;  318,647;13568,384;42,94690
 455,79; 6038,675;  319,717;13528,712;43,29594
 456,38; 6061,791;  322,884;13611,428;43,18688
 456,97; 6092,184;  296,036;13667,680;43,34656
 457,55; 6036,961;  317,425;13676,515;42,81381
 458,14; 6078,976;  328,804;13639,553;43,19946
 458,73; 6005,384;  321,657;13599,416;42,80637
 459,31; 6036,123;  343,433;13694,269;42,63920
 459,90; 6000,600;  358,968;13716,159;42,23666
 460,49; 6088,853;  380,581;13801,511;42,53261
 461,08; 6080,946;  313,282;13908,189;42,42518
 461,66; 6083,123;  325,663;13940,125;42,28929
 462,25; 6090,385;  323,901;14043,272;42,03169
 462,84; 6102,215;  346,975;14091,860;41,87187
 463,43; 6009,762;  292,370;14001,859;41,70390
 464,01; 6015,485;  320,835;13972,720;41,71329
 464,60; 6050,208;  376,829;13986,225;41,68722
 465,19; 5879,739;  301,990;13791,341;41,34927
 465,77; 5887,639;  322,379;13780,175;41,35343
 466,36; 5848,154;  335,678;13649,212;41,40506
 466,95; 5720,447;  322,986;13373,403;41,35853
 467,53; 5548,424;  323,075;13041,996;41,08327
 468,12; 5486,370;  358,384;12852,951;41,04173
 468,71; 5354,101;  328,453;12606,717;40,93126
 469,29; 5202,294;  309,846;12379,694;40,53446
 469,88; 5121,801;  328,080;12134,808;40,60161
 470,47; 5166,871;  374,702;12248,969;40,35760
 471,06; 5119,263;  340,779;12196,006;40,30698
 471,64; 5124,509;  346,162;12282,073;40,03337
 472,23; 5117,210;  316,559;12359,916;39,86140
 472,81; 5122,671;  319,938;12414,085;39,71122
 473,40; 5168,425;  326,252;12559,201;39,58304
 473,99; 5293,825;  400,098;12707,830;39,76141
 474,57; 5289,572;  338,328;12806,780;39,71017
 475,16; 5339,764;  340,785;13005,294;39,47234
 475,75; 5370,887;  352,256;13144,153;39,23289
 476,33; 5362,041;  368,954;13135,164;39,11174
 476,92; 5374,395;  348,715;13259,753;38,92545
 477,51; 5382,410;  352,105;13285,751;38,89317
 478,09; 5384,749;  354,644;13291,086;38,88322
 478,68; 5330,541;  379,184;13277,784;38,38678
 479,27; 5352,426;  379,103;13274,836;38,56565
 479,85; 5311,618;  345,569;13256,947;38,46258
 480,44; 5304,526;  350,956;13407,093;37,94055
 481,02; 5816,742;  350,345;14721,262;38,03791
 481,61; 6518,349;  370,650;16663,809;37,73178
 482,20; 6900,780;  353,960;17765,488;37,60049
 482,78; 7211,757;  401,493;18602,504;37,41695
 483,37; 7350,573;  374,505;19013,668;37,42694
 483,95; 7476,742;  400,891;19283,415;37,47301
 484,54; 7515,618;  418,650;19485,369;37,22176
 485,13; 7442,788;  369,820;19371,997;37,22189
 485,71; 7334,919;  360,664;19136,914;37,14403
 486,30; 7261,181;  395,433;18812,864;37,27853
 486,88; 7173,927;  424,743;18506,146;37,32666
 487,47; 6862,750;  410,359;17840,273;37,01906
 488,05; 6493,358;  399,285;17044,464;36,61164
 488,64; 6022,220;  406,444;15824,720;36,42285
 489,23; 5382,612;  409,825;14080,795;36,37479
 489,81; 4580,373;  399,596;12033,859;35,93505
 490,40; 4322,943;  355,366;11449,552;35,76267
 490,98; 4203,866;  345,983;11182,105;35,60206
 491,57; 4192,243;  376,287;11127,637;35,49280
 492,15; 4122,389;  364,215;11092,218;35,03144
 492,74; 4104,935;  361,516;10967,143;35,29653
 493,32; 4076,604;  371,137;10878,394;35,26579
 493,91; 4014,474;  351,833;10763,962;35,17668
 494,50; 3965,213;  354,611;10789,291;34,60194
 495,08; 3926,720;  331,765;10671,042;34,76989
 495,67; 3938,820;  367,755;10690,830;34,59303
 496,25; 3862,766;  322,914;10565,516;34,56009
 496,84; 3852,874;  330,447;10555,934;34,44752
 497,42; 3855,590;  323,916;10495,711;34,72026
 498,01; 3776,158;  347,602;10490,916;33,80114
 498,59; 3753,859;  309,763;10357,304;34,27800
 499,18; 3752,228;  312,449;10338,776;34,30746
 499,76; 3720,420;  322,607;10359,050;33,85476
 500,35; 3600,544;  319,844;10079,211;33,61590
 500,93; 3603,120;  304,916;10129,213;33,57191
 501,52; 3606,897;  309,378; 9975,924;34,11269
 502,10; 3565,282;  328,694; 9977,923;33,54245
 502,69; 3512,206;  316,774; 9858,065;33,49056
 503,27; 3442,144;  300,304; 9658,712;33,57237
 503,86; 3418,567;  307,234; 9622,964;33,39870
 504,44; 3360,075;  299,161; 9479,463;33,34219
 505,03; 3250,852;  286,545; 9295,509;32,90397
 505,61; 3234,767;  288,005; 9140,038;33,28910
 506,19; 3184,475;  311,622; 9023,101;32,97778
 506,78; 3103,352;  280,090; 8789,403;33,17849
 507,36; 3036,959;  291,237; 8728,631;32,54231
 507,95; 3005,383;  296,632; 8561,888;32,77274
 508,53; 2940,383;  295,628; 8450,285;32,43244
 509,12; 2901,206;  304,477; 8269,933;32,59988
 509,70; 2834,514;  318,094; 8172,196;32,03956
 510,29; 2790,314;  313,558; 8031,058;32,09272
 510,87; 2712,137;  297,167; 7860,656;31,92931
 511,46; 2675,175;  281,168; 7705,462;32,24558
 512,04; 2605,952;  294,556; 7561,563;31,80671
 512,62; 2547,360;  297,476; 7390,182;31,72109
 513,21; 2485,399;  270,559; 7281,786;31,58990
 513,79; 2450,668;  287,261; 7174,266;31,41289
 514,38; 2386,114;  269,258; 7017,735;31,36791
 514,96; 2388,191;  309,026; 6896,830;31,56082
 515,54; 2328,199;  266,029; 6749,889;31,80467
 516,13; 2313,684;  289,722; 6687,469;31,63554
 516,71; 2244,645;  292,264; 6589,887;31,00187
 517,30; 2190,784;  270,884; 6474,690;30,94714
 517,88; 2190,176;  287,037; 6400,128;31,13219
 518,46; 2140,869;  272,193; 6265,460;31,17959
 519,05; 2126,592;  285,119; 6254,868;30,84674
 519,63; 2121,907;  277,425; 6157,266;31,36960
 520,22; 2096,831;  295,431; 6130,857;30,87006
 520,80; 2069,669;  283,201; 6032,793;31,07121
 521,38; 2078,731;  313,273; 6033,452;30,86367
 521,97; 2038,239;  272,204; 6011,664;30,77005
 522,55; 2016,831;  296,127; 6008,989;30,11982
 523,13; 2020,170;  271,514; 5976,031;30,65387
 523,72; 2009,261;  275,039; 5929,744;30,66866
 524,30; 2044,608;  291,748; 6092,584;30,21737
 524,89; 2032,616;  268,589; 6071,062;30,40128
 525,47; 2078,077;  293,903; 6227,440;30,06933
 526,05; 2058,647;  256,673; 6214,988;30,24301
 526,64; 2127,170;  287,521; 6357,844;30,30562
 527,22; 2119,654;  287,672; 6460,368;29,67881
 527,80; 2213,693;  324,213; 6604,839;30,08426
 528,39; 2199,893;  274,984; 6715,741;29,88638
 528,97; 2245,962;  278,983; 6864,500;29,86826
 529,55; 2307,108;  298,206; 7037,429;29,80910
 530,14; 2336,916;  313,063; 7222,063;29,29300
 530,72; 2377,916;  277,368; 7295,143;29,93183
 531,30; 2421,062;  266,140; 7458,538;29,96111
 531,89; 2459,124;  281,063; 7506,909;30,14264
 532,47; 2498,355;  303,373; 7640,095;29,91775
 533,05; 2483,970;  310,674; 7642,966;29,64006
 533,63; 2514,947;  310,450; 7723,933;29,73632
 534,22; 2476,739;  281,604; 7736,069;29,44725
 534,80; 2494,201;  302,224; 7817,098;29,16852
 535,38; 2605,078;  379,603; 7920,919;29,51044
 535,97; 2534,016;  302,911; 7851,136;29,55801
 536,55; 2572,586;  342,609; 7903,464;29,49371
 537,13; 2555,509;  344,602; 7915,149;29,20406
 537,71; 2597,824;  390,524; 7936,904;29,24978
 538,30; 2603,593;  411,221; 7997,454;28,89935
 538,88; 2648,632;  433,613; 8097,955;28,90032
 539,46; 2701,563;  483,147; 8248,347;28,56869
 540,05; 2756,955;  484,919; 8436,397;28,57376
 540,63; 2818,855;  542,073; 8586,407;28,30293
 541,21; 2855,055;  568,153; 8713,838;28,07502
 541,79; 2896,732;  600,306; 8824,516;27,92275
 542,38; 2946,886;  618,995; 8987,999;27,81562
 542,96; 2972,925;  628,618; 9148,952;27,51426
 543,54; 3063,686;  653,844; 9286,792;27,91447
 544,12; 3075,240;  618,615; 9462,232;27,77851
 544,70; 3067,556;  604,541; 9489,803;27,72022
 545,29; 3122,771;  621,457; 9683,995;27,60059
 545,87; 3125,348;  601,076; 9702,978;27,73346
 546,45; 3109,894;  563,303; 9707,976;27,84781
 547,03; 3106,148;  533,690; 9844,050;27,63006
 547,62; 3123,086;  499,922; 9919,010;27,84945
 548,20; 3208,248;  507,848;10109,599;28,12403
 548,78; 3224,902;  493,242;10212,807;28,10476
 549,36; 3234,687;  448,625;10466,078;27,81207
 549,94; 3268,379;  411,385;10538,653;28,21090
 550,53; 3297,171;  423,547;10756,874;27,80929
 551,11; 3341,095;  370,859;10961,450;28,04599
 551,69; 3410,317;  407,702;11206,177;27,80592
 552,27; 3469,610;  352,699;11492,560;27,97980
 552,85; 3569,756;  369,628;11826,346;27,93233
 553,44; 3649,817;  367,163;12148,182;27,86392
 554,02; 3740,102;  380,473;12476,694;27,77421
 554,60; 3772,002;  332,859;12759,649;27,67523
 555,18; 3868,825;  365,625;13127,756;27,44996
 555,76; 3968,494;  329,780;13420,662;27,79579
 556,34; 4061,287;  351,017;13817,492;27,55190
 556,93; 4159,825;  335,856;14229,517;27,52312
 557,51; 4193,564;  324,171;14507,995;27,28033
 558,09; 4312,110;  349,549;14943,612;27,15187
 558,67; 4398,472;  342,558;15216,516;27,26856
 559,25; 4466,456;  346,556;15550,778;27,09708
 559,83; 4530,864;  336,483;15789,653;27,14253
 560,41; 4576,625;  323,092;16174,478;26,83382
 561,00; 4698,718;  326,943;16386,222;27,22274
 561,58; 4751,318;  328,707;16655,487;27,08808
 562,16; 4807,810;  318,320;17013,663;26,89067
 562,74; 4902,587;  296,396;17318,214;27,06051
 563,32; 4977,526;  298,252;17821,087;26,70386
 563,90; 5085,018;  315,404;18016,869;26,94474
 564,48; 5181,810;  328,091;18531,080;26,66441
 565,06; 5310,649;  322,327;19063,439;26,61700
 565,65; 5465,518;  327,334;19689,917;26,53667
 566,23; 5661,126;  375,558;20453,666;26,32503
 566,81; 5807,272;  321,710;21095,828;26,40575
 567,39; 5999,041;  341,330;21918,224;26,22116
 567,97; 6166,849;  341,480;22531,498;26,25220
 568,55; 6365,772;  359,867;23323,187;26,15434
 569,13; 6530,403;  333,481;24002,245;26,18185
 569,71; 6693,548;  324,474;24872,097;25,94579
 570,29; 6971,556;  358,164;25814,137;25,97973
 570,87; 7104,033;  368,781;26537,798;25,73750
 571,45; 7254,641;  342,635;27183,770;25,75154
 572,03; 7318,118;  300,639;27554,735;25,74835
 572,61; 7453,118;  311,637;28244,730;25,56638
 573,20; 7642,856;  336,478;28867,741;25,60832
 573,78; 7794,841;  324,483;29473,440;25,62822
 574,36; 7877,710;  336,020;29955,227;25,46216
 574,94; 8025,580;  387,332;30221,709;25,60217
 575,52; 7991,972;  334,800;30519,363;25,36784
 576,10; 8142,418;  393,643;31051,027;25,27540
 576,68; 8242,095;  373,331;31590,523;25,20651
 577,26; 8396,173;  395,648;32219,264;25,14021
 577,84; 8501,810;  384,944;32701,354;25,11686
 578,42; 8553,034;  432,334;32989,696;24,94275
 579,00; 8529,926;  404,945;33091,486;24,85727
 579,58; 8576,849;  423,332;33313,166;24,79039
 580,16; 8507,241;  391,027;33381,918;24,60138
 580,74; 8529,041;  406,027;33585,090;24,48235
 581,32; 8566,480;  417,333;33604,008;24,55548
 581,90; 8522,818;  425,335;33548,076;24,44690
 582,48; 8490,788;  413,566;33656,655;24,29745
 583,06; 8500,826;  411,333;33839,560;24,19959
 583,64; 8521,026;  418,025;33903,926;24,19825
 584,22; 8422,549;  419,801;33839,408;23,94627
 584,80; 8366,157;  425,026;33540,583;23,98006
 585,38; 8241,372;  428,632;33187,547;23,84920
 585,96; 8209,518;  406,869;33269,862;23,74297
 586,54; 8221,149;  430,261;33246,960;23,74062
 587,12; 8185,572;  408,182;33454,480;23,53483
 587,70; 8191,703;  433,869;33560,957;23,41840
 588,28; 8198,080;  409,798;33529,683;23,51543
 588,86; 8186,826;  419,106;33701,435;23,33887
 589,44; 8148,819;  389,343;33742,989;23,26425
 590,02; 8196,519;  397,418;33900,772;23,27857
 590,59; 8215,803;  388,800;34199,272;23,14964
 591,17; 8250,119;  390,811;34342,698;23,14837
 591,75; 8237,534;  378,807;34546,755;23,00029
 592,33; 8216,280;  391,575;34748,049;22,77506
 592,91; 8240,219;  344,501;34957,186;22,81163
 593,49; 8312,296;  363,812;35243,029;22,78860
 594,07; 8285,565;  372,427;35410,649;22,58430
 594,65; 8263,203;  371,493;35541,806;22,43856
 595,23; 8303,926;  374,572;35871,224;22,33832
 595,81; 8333,357;  366,727;36060,152;22,31960
 596,39; 8289,296;  352,497;36102,388;22,20090
 596,97; 8292,588;  358,348;36275,942;22,09012
 597,55; 8273,865;  350,109;36228,427;22,08508
 598,12; 8217,958;  333,506;36206,265;21,97894
 598,70; 8150,858;  336,272;36297,603;21,73052
 599,28; 8182,804;  361,656;36481,585;21,65327
 599,86; 8147,011;  339,964;36528,996;21,57297
 600,44; 8100,088;  314,196;36605,336;21,45398
 601,02; 8157,943;  361,972;36613,493;21,50522
 601,60; 8052,880;  345,499;36636,597;21,23766
 602,18; 8052,327;  310,351;36629,645;21,31643
 602,75; 8045,403;  326,958;36769,442;21,17980
 603,33; 8001,127;  342,580;36700,829;21,06413
 603,91; 7956,927;  325,739;36749,705;20,95101
 604,49; 7967,581;  349,657;36829,390;20,88262
 605,07; 7971,196;  361,961;36747,728;20,91267
 605,65; 7974,481;  370,427;36948,287;20,78868
 606,23; 7919,865;  418,491;37003,123;20,50417
 606,80; 7931,696;  451,419;37042,736;20,44276
 607,38; 7901,242;  496,815;37068,931;20,24610
 607,96; 7922,273;  550,265;37193,740;20,11820
 608,54; 7916,542;  623,197;37343,812;19,86172
 609,12; 7845,488;  601,265;37328,564;19,72435
 609,70; 7890,719;  631,271;37391,326;19,74820
 610,27; 7840,673;  637,957;37369,310;19,60918
 610,85; 7861,104;  647,117;37386,874;19,63537
 611,43; 7787,696;  663,272;37349,865;19,41969
 612,01; 7678,504;  627,345;37196,823;19,28154
 612,59; 7630,711;  638,271;37217,589;19,11583
 613,16; 7604,180;  582,493;37202,730;19,17434
 613,74; 7515,688;  564,118;36960,734;19,09950
 614,32; 7492,912;  534,274;37031,328;19,06630
 614,90; 7450,065;  486,269;36996,222;19,07369
 615,48; 7333,873;  443,879;36661,088;19,02409
 616,05; 7320,396;  419,492;36538,349;19,10609
 616,63; 7255,842;  418,414;36408,303;18,99819
 617,21; 7201,896;  406,188;36243,034;18,96291
 617,79; 7154,865;  400,113;36207,646;18,86405
 618,36; 7106,104;  400,807;36141,484;18,76097
 618,94; 6976,465;  355,110;35816,011;18,67227
 619,52; 6912,388;  371,568;35555,715;18,59025
 620,10; 6861,065;  361,266;35510,329;18,49210
 620,67; 6829,480;  353,106;35350,978;18,50505
 621,25; 6763,180;  391,576;35283,321;18,26107
 621,83; 6711,780;  377,495;35226,056;18,17661
 622,41; 6700,857;  402,802;35248,219;18,07427
 622,98; 6588,803;  376,567;34965,693;17,96008
 623,56; 6557,703;  370,413;34934,959;17,90068
 624,14; 6494,188;  345,655;34873,475;17,80748
 624,72; 6480,519;  359,956;34724,029;17,81093
 625,29; 6465,111;  340,336;34810,633;17,76827
 625,87; 6441,342;  384,882;34749,813;17,62396
 626,45; 6364,241;  343,181;34525,601;17,61449
 627,02; 6319,442;  336,575;34534,094;17,49503
 627,60; 6276,127;  334,042;34503,033;17,39028
 628,18; 6293,411;  316,650;34596,333;17,43529
 628,76; 6217,372;  319,029;34477,326;17,26767
 629,33; 6260,126;  341,493;34608,866;17,27192
 629,91; 6192,373;  328,727;34513,405;17,15285
 630,49; 6161,588;  357,492;34703,431;16,89893
 631,06; 6214,949;  346,645;34822,236;17,02162
 631,64; 6154,503;  344,105;34795,927;16,86529
 632,22; 6087,180;  302,333;34674,668;16,82995
 632,79; 6137,280;  337,179;34932,727;16,76545
 633,37; 6132,704;  308,268;35081,633;16,74970
 633,95; 6101,188;  312,873;35154,515;16,61321
 634,52; 6138,403;  303,264;35155,341;16,74259
 635,10; 6080,465;  315,342;35165,206;16,54274
 635,68; 6057,418;  308,333;35389,252;16,38807
 636,25; 6060,672;  294,253;35448,178;16,40334
 636,83; 6045,219;  288,491;35544,711;16,32826
 637,41; 6049,264;  303,640;35600,279;16,27811
 637,98; 6097,480;  320,947;35814,966;16,27466
 638,56; 6011,241;  318,560;35945,395;15,97863
 639,13; 6017,195;  288,413;36018,054;16,03370
 639,71; 6013,219;  336,799;36116,155;15,86507
 640,29; 5925,070;  275,722;35932,263;15,84379
 640,86; 5959,115;  289,876;36046,680;15,85499
 641,44; 5871,160;  287,184;36145,559;15,57230
 642,02; 5897,281;  316,031;36102,207;15,59611
 642,59; 5856,480;  286,800;36201,778;15,50796
 643,17; 5832,602;  284,262;36188,964;15,45296
 643,74; 5837,339;  285,262;36268,612;15,42957
 644,32; 5829,691;  320,724;36109,722;15,39291
 644,89; 5763,351;  303,109;36230,908;15,19782
 645,47; 5767,934;  327,570;36267,249;15,13749
 646,05; 5755,902;  307,032;36099,435;15,22354
 646,62; 5646,409;  303,417;36126,006;14,91515
 647,20; 5666,376;  304,955;36299,885;14,89493
 647,77; 5567,806;  281,340;36181,610;14,72542
 648,35; 5566,158;  282,340;36031,027;14,78045
 648,92; 5541,972;  302,033;36023,213;14,66900
 649,50; 5461,709;  269,418;35979,861;14,53998
 650,08; 5436,370;  273,264;35934,278;14,47829
 650,65; 5451,876;  286,649;36071,542;14,43410
 651,23; 5497,536;  259,418;36797,190;14,33617
 651,80; 5627,504;  273,034;37706,684;14,30390
 652,38; 5659,856;  280,880;38139,101;14,20821
 652,95; 5634,132;  256,650;38478,288;14,06921
 653,53; 5661,177;  290,957;38647,705;14,00072
 654,10; 5683,221;  308,650;38793,045;13,96559
 654,68; 5638,728;  263,804;38745,924;13,96733
 655,25; 5602,849;  261,035;38866,264;13,83702
 655,83; 5611,125;  254,881;38796,527;13,89729
 656,40; 5619,785;  288,728;38775,175;13,85178
 656,98; 5549,445;  280,035;38723,439;13,70693
 657,55; 5518,721;  284,959;38603,702;13,65849
 658,13; 5421,227;  274,882;38225,119;13,56077
 658,70; 5367,041;  294,421;38008,921;13,45005
 659,28; 5170,086;  281,036;37203,800;13,24129
 659,85; 5102,284;  288,421;36546,217;13,27677
 660,43; 5097,483;  287,190;36580,326;13,25400
 661,00; 5077,682;  273,191;36600,513;13,22556
 661,58; 5049,265;  259,037;36930,315;13,06262
 662,15; 5082,079;  261,268;37059,809;13,10055
 662,73; 5165,662;  330,114;37450,303;13,02673
 663,30; 5078,630;  284,884;37642,566;12,83202
 663,88; 5105,059;  281,499;37775,522;12,86488
 664,45; 5096,412;  264,653;37989,016;12,80806
 665,03; 5140,072;  280,192;38369,664;12,75912
 665,60; 5191,963;  342,731;38712,697;12,63809
 666,17; 5088,931;  269,577;38963,498;12,45507
 666,75; 5125,745;  277,885;39193,300;12,45743
 667,32; 5138,251;  298,500;39501,410;12,34539
 667,90; 5169,527;  282,808;39824,135;12,35851
 668,47; 5142,725;  298,962;40057,936;12,18282
 669,05; 5154,847;  267,193;40368,431;12,18829
 669,62; 5101,045;  263,270;40476,002;12,03046
 670,19; 5063,629;  265,117;40489,034;11,92950
 670,77; 5109,673;  273,040;40708,221;11,96145
 671,34; 5058,026;  272,040;40646,945;11,85386
 671,92; 5111,994;  260,348;40975,670;11,91602
 672,49; 5097,885;  288,887;40984,472;11,81700
 673,06; 5043,468;  239,194;41020,889;11,78047
 673,64; 5057,436;  259,348;40975,384;11,78427
 674,21; 4991,788;  244,272;40878,262;11,68361
 674,79; 5030,679;  277,272;41107,910;11,64177
 675,36; 5000,570;  271,811;41332,789;11,51643
 675,93; 4912,307;  266,580;41196,591;11,35042
 676,51; 4948,121;  276,042;41291,239;11,39109
 677,08; 4896,858;  271,888;41303,425;11,27174
 677,65; 4879,903;  274,350;41575,765;11,15108
 678,23; 4910,486;  275,350;41699,183;11,18954
 678,80; 4902,608;  264,889;41816,446;11,16136
 679,38; 4867,499;  272,581;41934,940;11,02894
 679,95; 4888,774;  273,735;42229,203;10,99985
 680,52; 4874,050;  254,735;42469,236;10,94248
 681,10; 4933,864;  286,582;42845,038;10,91976
 681,67; 4946,293;  276,197;43167,378;10,88824
 682,24; 4865,415;  244,120;43218,641;10,75357
 682,82; 4893,152;  259,198;43650,136;10,67954
 683,39; 4965,120;  305,198;44126,476;10,63393
 683,96; 4897,472;  260,890;44416,508;10,50055
 684,54; 4920,286;  248,275;44647,849;10,52265
 685,11; 4969,100;  288,891;45080,189;10,44893
 685,68; 4992,530;  259,737;45505,683;10,46015
 686,25; 4951,190;  253,891;45493,254;10,38321
 686,83; 4932,465;  255,353;45595,902;10,31552
 687,40; 4949,510;  245,122;45986,781;10,28469
 687,97; 4985,170;  279,353;46290,660;10,22752
 688,55; 4975,369;  233,507;46388,154;10,27386
 689,12; 4927,875;  220,892;46656,186;10,13665
 689,69; 4942,305;  246,661;46700,219;10,10825
 690,26; 4920,272;  259,431;46831,175;10,00787
 690,84; 4932,009;  248,046;46930,976;10,03357
 691,41; 4907,593;  258,354;47117,394; 9,92175
 691,98; 4915,330;  264,662;47402,734; 9,86605
 692,56; 4902,221;  245,893;47390,151; 9,87677
 693,13; 4951,727;  306,585;47524,261; 9,83772
 693,70; 4907,156;  274,740;47710,293; 9,76571
 694,27; 4886,663;  259,201;47691,249; 9,75598
 694,84; 4854,554;  257,663;47787,512; 9,67159
 695,42; 4900,214;  306,279;47990,083; 9,63416
 695,99; 4871,489;  268,202;48091,423; 9,62563
 696,56; 4823,534;  259,202;47901,533; 9,58041
 697,13; 4884,194;  283,818;48316,873; 9,57752
 697,71; 4819,239;  250,433;48281,906; 9,51211
 698,28; 4877,745;  255,587;48762,554; 9,52885
 698,85; 4787,790;  229,433;48669,356; 9,41033
 699,42; 4826,450;  247,357;48942,234; 9,40364
 699,99; 4850,110;  279,818;49011,575; 9,37847
 700,57; 4829,924;  276,049;49137,530; 9,31997
 701,14; 4818,738;  254,742;49199,563; 9,32478
 701,71; 4804,091;  276,973;49379,903; 9,21965
 702,28; 4785,520;  253,588;49444,320; 9,21298
 702,85; 4798,103;  275,742;49471,891; 9,19251
 703,43; 4772,456;  276,050;49719,462; 9,09404
 704,00; 4802,424;  302,743;49973,341; 9,05904
 704,57; 4769,007;  275,512;49841,528; 9,06568
 705,14; 4763,744;  300,897;50155,406; 8,95174
 705,71; 4733,250;  304,666;50224,593; 8,87137
 706,28; 4736,372;  271,590;50096,471; 8,96095
 706,86; 4773,955;  309,590;50401,042; 8,91243
 707,43; 4759,923;  315,821;50199,460; 8,90894
 708,00; 4746,352;  313,206;50366,108; 8,85692
 708,57; 4695,089;  276,514;50116,448; 8,86553
 709,14; 4667,288;  312,283;50349,480; 8,70354
 709,71; 4651,717;  282,437;50452,975; 8,70886
 710,28; 4670,762;  284,514;50610,315; 8,71570
 710,86; 4692,038;  280,360;50807,424; 8,73132
 711,43; 4685,775;  300,361;50821,303; 8,68039
 712,00; 4666,358;  278,130;50854,797; 8,67639
 712,57; 4671,711;  290,822;51041,138; 8,63224
 713,14; 4677,217;  282,900;51058,247; 8,65443
 713,71; 4609,877;  283,515;50962,741; 8,53676
 714,28; 4629,768;  271,285;51130,928; 8,56963
 714,85; 4577,120;  256,746;50794,422; 8,54882
 715,42; 4617,242;  266,823;51029,454; 8,57012
 716,00; 4653,210;  330,593;51161,718; 8,50388
 716,57; 4641,178;  276,208;51267,596; 8,56021
 717,14; 4587,222;  254,978;51170,629; 8,50867
 717,71; 4556,421;  256,978;51169,354; 8,44479
 718,28; 4571,081;  291,440;51281,540; 8,39308
 718,85; 4559,511;  262,209;51392,881; 8,40455
 719,42; 4578,402;  274,055;51565,528; 8,39193
 719,99; 4551,216;  253,594;51311,792; 8,41710
 720,56; 4551,491;  273,748;51540,055; 8,34416
 721,13; 4510,690;  255,210;51662,395; 8,27799
 721,70; 4503,734;  251,518;51575,120; 8,28511
 722,27; 4511,779;  281,826;51535,614; 8,25296
 722,84; 4591,055;  320,287;51824,109; 8,29214
 723,41; 4488,330;  250,980;51763,526; 8,22586
 723,98; 4548,144;  264,057;51941,712; 8,29002
 724,55; 4559,420;  294,211;52020,591; 8,24571
 725,12; 4472,926;  221,980;51970,547; 8,21462
 725,69; 4543,509;  256,519;52128,810; 8,26451
 726,27; 4514,093;  262,288;52323,150; 8,16699
 726,84; 4548,522;  267,827;52586,029; 8,18204
 727,41; 4573,644;  279,212;52455,908; 8,23056
 727,98; 4604,381;  282,520;52857,940; 8,22031
 728,55; 4612,195;  310,212;52659,665; 8,21782
 729,12; 4587,932;  249,905;52843,236; 8,24825
 729,69; 4584,207;  284,905;52926,269; 8,16716
 730,26; 4619,329;  276,520;53246,378; 8,19864
 730,82; 4582,835;  271,521;52987,257; 8,17842
 731,39; 4575,419;  273,829;53171,674; 8,13188
 731,96; 4607,002;  250,598;53441,553; 8,19012
 732,53; 4649,047;  281,367;53628,201; 8,18733
 733,10; 4644,014;  277,675;53780,464; 8,16096
 733,67; 4666,675;  282,675;54098,881; 8,14624
 734,24; 4651,873;  250,368;53675,299; 8,23867
 734,81; 4672,764;  293,753;53745,485; 8,19246
 735,38; 4648,117;  269,676;53564,825; 8,21546
 735,95; 4633,007;  270,984;53488,396; 8,19661
 736,52; 4629,591;  277,599;53567,737; 8,16660
 737,09; 4625,482;  286,830;53248,231; 8,19210
 737,66; 4644,834;  328,984;53397,802; 8,13255
 738,23; 4609,187;  260,292;53471,681; 8,17286
 738,80; 4715,154;  323,908;53647,098; 8,23515
 739,37; 4684,430;  304,600;53820,438; 8,18417
 739,94; 4696,244;  268,524;53940,778; 8,24955
 740,51; 4749,058;  370,062;54021,811; 8,16189
 741,07; 4662,487;  265,909;53938,151; 8,19153
 741,64; 4746,994;  303,447;54118,722; 8,25704
 742,21; 4725,654;  274,371;54163,524; 8,26007
 742,78; 4682,545;  251,832;53895,557; 8,25952
 743,35; 4715,589;  276,525;54296,205; 8,21750
 743,92; 4761,480;  303,371;54395,545; 8,24169
 744,49; 4760,140;  296,371;54259,424; 8,27190
 745,06; 4748,878;  260,448;54244,995; 8,31429
 745,63; 4736,845;  257,833;54258,489; 8,29437
 746,19; 4768,121;  253,910;54199,598; 8,36807
 746,76; 4776,089;  267,449;54300,708; 8,34419
 747,33; 4780,980;  256,834;54269,202; 8,37613
 747,90; 4826,640;  290,218;54494,542; 8,36911
 748,47; 4805,762;  286,296;54398,267; 8,35206
 749,04; 4803,960;  285,834;54390,761; 8,35067
 749,61; 4864,543;  300,681;54390,332; 8,43759
 750,17; 4846,742;  283,219;54278,903; 8,45164
 750,74; 4852,556;  277,758;54366,013; 8,45802
 751,31; 4850,524;  257,527;54280,276; 8,50197
 751,88; 4833,569;  248,527;54092,770; 8,51538
 752,45; 4889,844;  261,297;54257,187; 8,57204
 753,02; 4849,966;  275,836;54152,451; 8,49001
 753,58; 4844,011;  256,066;54139,868; 8,51451
 754,15; 4907,825;  262,297;54172,824; 8,61711
 754,72; 4871,408;  251,221;53984,087; 8,59844
 755,29; 4879,068;  251,144;53900,812; 8,62619
 755,86; 4892,728;  272,144;54022,537; 8,59637
 756,42; 4971,696;  277,606;53864,262; 8,75981
 756,99; 4890,433;  232,837;53793,294; 8,69596
 757,56; 4945,247;  241,299;53789,250; 8,78455
 758,13; 4907,830;  203,837;53655,513; 8,80046
 758,70; 4956,798;  227,837;53819,007; 8,82414
 759,26; 4956,843;  223,761;53796,040; 8,83495
 759,83; 5013,349;  227,145;53898,996; 8,91753
 760,40; 4973,779;  220,607;53773,490; 8,87566
 760,97; 4977,439;  206,684;53734,215; 8,91271
 761,53; 4979,099;  194,838;53477,093; 8,97909
 762,10; 5001,913;  198,300;53415,434; 9,02644
 762,67; 5049,035;  239,685;53413,312; 9,04461
 763,24; 4970,541;  188,685;53015,883; 9,05188
 763,80; 5060,432;  221,608;53123,762; 9,14674
 764,37; 5021,015;  231,301;53059,487; 9,06659
 764,94; 4991,983;  206,916;52664,135; 9,12185
 765,50; 4960,951;  206,455;52671,552; 9,06221
 766,07; 5065,534;  246,763;52760,123; 9,17628
 766,64; 5018,963;  230,071;52480,002; 9,16536
 767,21; 5043,854;  234,917;52422,573; 9,21470
 767,77; 5065,053;  247,533;52276,298; 9,25934
 768,34; 5062,174;  249,225;52155,792; 9,27233
 768,91; 5060,219;  259,764;52043,286; 9,27024
 769,47; 5077,802;  251,225;52139,242; 9,30191
 770,04; 5106,078;  264,687;51952,813; 9,36654
 770,61; 5079,430;  236,841;51735,307; 9,40337
 771,18; 5067,398;  234,226;51612,032; 9,40712
 771,74; 5124,520;  250,303;51738,449; 9,46668
 772,31; 5102,180;  248,842;51466,020; 9,47600
 772,88; 5107,994;  233,227;51263,130; 9,55277
 773,44; 5085,347;  233,842;51122,008; 9,53366
 774,01; 5129,161;  251,996;51224,656; 9,56820
 774,58; 5099,436;  233,996;50888,304; 9,60518
 775,14; 5152,019;  235,458;51025,260; 9,68021
 775,71; 5143,603;  237,843;50967,216; 9,67045
 776,27; 5243,493;  292,535;50793,171; 9,80375
 776,84; 5267,307;  312,382;50826,204; 9,80905
 777,41; 5200,660;  250,843;50707,313; 9,81007
 777,97; 5203,012;  232,844;50352,654; 9,91658
 778,54; 5254,442;  253,921;50504,686; 9,95113
 779,11; 5253,871;  277,613;50507,103; 9,90704
 779,67; 5250,762;  232,152;50429,597; 9,99774
 780,24; 5272,345;  245,075;50142,399;10,07523
 780,80; 5280,698;  256,229;50187,355;10,06280
 781,37; 5299,127;  259,922;50234,541;10,08353
 781,94; 5276,018;  245,076;49895,805;10,13267
 782,50; 5336,294;  255,307;49874,453;10,23997
 783,07; 5389,185;  282,307;49903,716;10,29168
 783,63; 5353,614;  245,615;49698,749;10,32897
 784,20; 5387,120;  270,230;49693,858;10,35312
 784,77; 5368,703;  254,307;49472,121;10,39135
 785,33; 5366,902;  235,615;49215,231;10,47637
 785,90; 5415,331;  250,615;49152,110;10,56147
 786,46; 5389,376;  271,154;49195,912;10,46142
 787,03; 5386,344;  238,770;48977,790;10,56151
 787,59; 5431,158;  242,077;48896,284;10,66522
 788,16; 5481,434;  267,539;48776,009;10,74842
 788,73; 5453,709;  254,847;48713,196;10,72852
 789,29; 5468,677;  256,155;48378,921;10,83172
 789,86; 5476,952;  269,924;48267,876;10,84844
 790,42; 5472,228;  253,078;48128,601;10,90150
 790,99; 5485,119;  267,079;47734,018;10,99300
 791,55; 5474,010;  245,079;47775,589;11,00121
 792,12; 5500,439;  269,464;47799,622;11,00559
 792,68; 5474,330;  252,848;47445,578;11,06417
 793,25; 5477,913;  266,772;47228,072;11,09667
 793,81; 5512,420;  308,233;46888,720;11,17246
 794,38; 5441,311;  230,157;46650,829;11,22593
 794,94; 5479,432;  245,080;46508,323;11,31428
 795,51; 5498,092;  261,465;46316,664;11,37033
 796,07; 5464,906;  248,849;46133,619;11,36773
 796,64; 5548,490;  262,773;46243,421;11,49552
 797,20; 5499,842;  265,081;45729,300;11,51402
 797,77; 5494,272;  228,158;45376,871;11,66393
 798,33; 5471,393;  257,004;45163,673;11,61161
 798,90; 5511,284;  268,697;45148,398;11,68142
 799,46; 5525,329;  256,235;44629,276;11,87454
 800,03; 5512,989;  256,851;44571,155;11,86104
 800,59; 5504,649;  266,697;44501,495;11,84125
 801,15; 5530,463;  273,620;44183,528;11,97188
 801,72; 5504,969;  259,159;43876,099;12,02700
 802,28; 5529,168;  284,236;43500,362;12,13652
 802,85; 5462,982;  258,698;43368,626;12,07212
 803,41; 5468,335;  250,160;43170,274;12,15788
 803,98; 5451,918;  243,621;42748,537;12,25340
 804,54; 5482,501;  257,775;42586,416;12,34324
 805,11; 5469,238;  258,545;42401,987;12,36419
 805,67; 5507,514;  274,006;42356,865;12,43620
 806,23; 5483,020;  260,930;41943,898;12,52811
 806,80; 5469,911;  271,161;41774,315;12,52616
 807,36; 5514,494;  281,238;41802,194;12,60389
 807,93; 5470,847;  275,238;41561,380;12,58439
 808,49; 5427,891;  241,623;41136,336;12,68200
 809,05; 5458,321;  241,392;40972,599;12,80819
 809,62; 5516,289;  273,931;40869,940;12,91348
 810,18; 5494,410;  263,316;40773,434;12,91306
 810,74; 5475,840;  234,393;40609,159;12,98199
 811,31; 5470,884;  241,162;40391,191;13,02545
 811,87; 5483,006;  257,624;40249,378;13,06615
 812,44; 5546,974;  270,932;40269,949;13,19043
 813,00; 5467,249;  209,701;39929,212;13,23669
 813,56; 5552,910;  256,624;39986,168;13,33085
 814,13; 5554,416;  254,163;39874,354;13,37766
 814,69; 5552,076;  253,856;39692,387;13,43412
 815,25; 5514,582;  227,394;39385,189;13,50226
 815,82; 5553,319;  272,856;39304,990;13,52850
 816,38; 5522,595;  288,471;39091,408;13,48899
 816,94; 5493,101;  241,395;38855,286;13,60056
 817,51; 5488,223;  227,010;38595,627;13,71228
 818,07; 5502,498;  243,318;38236,967;13,84226
 818,63; 5516,082;  251,626;38140,384;13,89451
 819,20; 5490,434;  244,934;38040,570;13,87859
 819,76; 5463,864;  231,857;37597,988;14,00200
 820,32; 5493,370;  268,627;37624,559;13,98638
 820,89; 5516,184;  271,858;37278,899;14,17116
 821,45; 5467,459;  238,165;37109,085;14,18271
 822,01; 5516,966;  257,781;36866,580;14,36590
 822,57; 5495,472;  260,627;36712,612;14,36093
 823,14; 5494,209;  226,089;36450,029;14,54320
 823,70; 5463,331;  238,474;36210,677;14,52471
 824,26; 5509,529;  233,705;36074,402;14,72021
 824,82; 5515,805;  256,397;35884,127;14,76212
 825,39; 5534,773;  236,090;35603,467;14,98184
 825,95; 5563,894;  262,398;35685,885;14,96605
 826,51; 5500,708;  251,859;35262,225;14,99227
 827,08; 5585,676;  280,783;35397,257;15,10657
 827,64; 5612,413;  265,091;35188,598;15,31153
 828,20; 5511,535;  236,552;34838,015;15,24497
 828,76; 5603,041;  270,937;34834,509;15,42695
 829,32; 5619,855;  273,860;34666,465;15,54402
 829,89; 5552,439;  232,014;34585,728;15,48719
 830,45; 5601,022;  250,245;34491,068;15,62689
 831,01; 5583,220;  245,322;34326,101;15,66249
 831,57; 5585,881;  239,169;34258,057;15,71689
 832,14; 5585,848;  245,630;34191,012;15,73180
 832,70; 5617,662;  229,938;34120,583;15,89738
 833,26; 5597,553;  207,246;33905,308;15,99590
 833,82; 5640,213;  238,323;33893,571;16,05066
 834,38; 5663,181;  238,554;33813,835;16,15661
 834,95; 5633,841;  234,939;33669,329;16,14775
 835,51; 5615,194;  204,247;33551,285;16,22617
 836,07; 5671,777;  236,863;33623,317;16,27880
 836,63; 5728,745;  260,786;33606,657;16,39771
 837,19; 5714,482;  247,863;33456,613;16,46138
 837,75; 5695,296;  210,555;33150,646;16,65065
 838,32; 5733,495;  261,940;33228,678;16,59720
 838,88; 5772,386;  249,325;33241,711;16,74041
 839,44; 5781,661;  247,787;33182,590;16,80251
 840,00; 5816,706;  247,633;33188,853;16,90609
 840,56; 5765,058;  230,095;32812,039;16,98782
 841,12; 5743,334;  231,249;32823,764;16,91212
 841,68; 5739,302;  201,864;32647,874;17,06662
 842,25; 5825,270;  233,326;32675,214;17,23680
 842,81; 5795,007;  216,865;32375,862;17,34551
 843,37; 5839,051;  203,326;32457,818;17,47268
 843,93; 5869,942;  219,019;32301,235;17,61388
 844,49; 5867,064;  236,327;32407,114;17,50264
 845,05; 5843,647;  202,481;32140,223;17,66301
 845,61; 5954,461;  240,712;32194,333;17,88138
 846,17; 5941,198;  222,558;32115,442;17,93077
 846,73; 5952,705;  241,558;31954,705;18,00877
 847,29; 5883,057;  217,558;31844,969;17,91325
 847,86; 5914,563;  224,405;31739,848;18,05514
 848,42; 5948,070;  217,251;31625,419;18,24627
 848,98; 5988,576;  236,174;31507,528;18,39512
 849,54; 6006,851;  221,944;31605,176;18,43312
 850,10; 6009,281;  239,713;31471,439;18,47342
 850,66; 6008,864;  209,329;31321,164;18,64093
 851,22; 5991,909;  212,406;31243,735;18,62474
 851,78; 6091,031;  258,945;31300,537;18,78797
 852,34; 6072,998;  238,945;31069,031;18,92325
 852,90; 6079,428;  223,406;30879,756;19,10215
 853,46; 6051,242;  207,022;30728,712;19,14776
 854,02; 6098,825;  230,561;30788,667;19,20363
 854,58; 6034,331;  227,715;30500,315;19,18110
 855,14; 6072,299;  213,023;30355,040;19,43890
 855,70; 6048,575;  195,792;30256,227;19,47005
 856,26; 6093,850;  236,485;30235,336;19,52530
 856,82; 6070,664;  216,869;30076,369;19,60446
 857,38; 6105,094;  251,639;29990,401;19,68291
 857,94; 6101,831;  217,870;29903,972;19,82059
 858,50; 6084,568;  237,485;29723,774;19,82984
 859,06; 6041,074;  221,562;29591,422;19,81457
 859,62; 6121,734;  232,716;29511,224;20,11379
 860,18; 6087,164;  230,178;29303,103;20,14584
 860,74; 6060,593;  202,486;29158,597;20,23099
 861,30; 6066,792;  208,794;29032,706;20,32340
 861,86; 6117,144;  256,794;29131,739;20,29562
 862,42; 6068,881;  226,948;28895,002;20,37785
 862,98; 6147,695;  257,641;28947,496;20,53009
 863,54; 6119,278;  230,948;28754,067;20,64406
 864,10; 6157,554;  217,564;28841,331;20,75195
 864,66; 6101,676;  206,410;28451,594;20,87175
 865,22; 6098,182;  221,026;28344,165;20,89794
 865,78; 6122,919;  228,565;28329,044;20,97599
 866,34; 6122,425;  204,411;28194,923;21,14293
 866,90; 6111,393;  231,411;28029,186;21,15271
 867,45; 6106,515;  226,180;27833,834;21,29965
 868,01; 6102,483;  232,335;27762,097;21,32292
 868,57; 6088,143;  226,335;27564,284;21,44202
 869,13; 6046,111;  215,412;27424,547;21,42920
 869,69; 6076,001;  223,720;27325,657;21,59359
 870,25; 6022,431;  205,104;27248,074;21,51142
 870,81; 6131,476;  214,797;27234,183;21,89790
 871,37; 6137,905;  228,259;27130,062;21,96747
 871,93; 6170,334;  237,951;26948,402;22,20997
 872,49; 6105,533;  250,259;26770,127;22,07882
 873,04; 6038,347;  205,105;26583,621;22,11361
 873,60; 6050,238;  203,644;26479,423;22,25089
 874,16; 6098,129;  228,798;26312,994;22,50148
 874,72; 6111,513;  234,798;26265,994;22,57566
 875,28; 6123,513;  225,952;26218,071;22,68981
 875,84; 6154,129;  221,413;26150,840;22,88024
 876,40; 6128,360;  223,260;26084,687;22,83362
 876,95; 6157,360;  229,567;26084,763;22,92689
 877,51; 6231,667;  254,106;26150,917;23,08223
 878,07; 6257,052;  258,567;26079,302;23,23127
 878,63; 6225,052;  224,490;26101,071;23,18916
 879,19; 6299,360;  245,644;26162,610;23,35812
 879,75; 6292,667;  215,183;26039,763;23,53372
 880,30; 6300,360;  219,798;26138,302;23,46031
 880,86; 6405,667;  270,183;26322,071;23,55102
 881,42; 6368,206;  204,952;26312,917;23,60679
 881,98; 6454,744;  234,644;26374,687;23,79529
 882,54; 6455,360;  218,952;26490,456;23,73830
 883,09; 6493,667;  236,644;26540,917;23,78710
 883,65; 6534,667;  208,413;26670,302;23,90704
 884,21; 6642,052;  251,490;26876,994;24,00165
 884,77; 6665,129;  212,875;26862,302;24,21160
 885,32; 6713,821;  221,798;27080,840;24,17072
 885,88; 6785,437;  257,721;27137,225;24,28510
 886,44; 6806,437;  234,875;27328,302;24,25519
 887,00; 6882,129;  251,106;27380,533;24,44218
 887,56; 6908,590;  213,413;27505,687;24,53140
 888,11; 6922,437;  221,260;27419,456;24,63831
 888,67; 7012,052;  261,260;27616,302;24,67842
 889,23; 7042,744;  234,413;27533,687;24,93960
 889,79; 6987,975;  210,260;27540,917;24,79895
 890,34; 7059,129;  226,106;27470,071;25,08087
 890,90; 7103,052;  294,644;27616,994;24,91882
 891,46; 7067,667;  220,798;27534,533;25,06750
 892,01; 7100,206;  244,644;27523,456;25,13145
 892,57; 7119,898;  260,413;27453,302;25,22529
 893,13; 7058,129;  229,029;27264,763;25,25953
 893,69; 7092,898;  219,183;27267,533;25,41270
 894,24; 7095,129;  226,567;27064,456;25,59278
 894,80; 7097,667;  234,952;26923,840;25,71375
 895,36; 7064,975;  236,644;26942,533;25,56863
 895,91; 7047,590;  227,337;26708,610;25,75501
 896,47; 7054,975;  231,183;26520,610;25,95641
 897,03; 7005,898;  225,490;26411,610;25,89314
 897,58; 7003,437;  231,875;26314,302;25,96216
 898,14; 6992,437;  231,798;26087,994;26,14707
 898,70; 6931,283;  210,952;26039,917;26,01858
 899,25; 7012,590;  222,567;25972,994;26,36858
 899,81; 6996,513;  241,567;25747,610;26,48371
 900,37; 6941,052;  203,337;25559,994;26,57178
 900,92; 6975,283;  228,029;25551,225;26,64456
 901,48; 6936,437;  232,567;25357,148;26,68251
 902,03; 6929,052;  230,106;25230,763;26,79508
 902,59; 6939,206;  229,029;25168,456;26,90590
 903,15; 6937,206;  242,721;25028,917;27,00892
 903,70; 6884,437;  230,721;24732,148;27,15644
 904,26; 6879,975;  220,413;24704,071;27,20003
 904,82; 6891,590;  231,183;24668,533;27,25503
 905,37; 6879,052;  237,490;24476,148;27,40070
 905,93; 6878,360;  212,721;24354,610;27,61026
 906,48; 6879,513;  234,183;24239,071;27,68324
 907,04; 6862,437;  245,490;24157,302;27,67229
 907,60; 6839,590;  224,567;23999,225;27,82384
 908,15; 6784,283;  215,260;23918,379;27,71375
 908,71; 6848,360;  234,413;23916,379;27,92820
 909,26; 6815,513;  219,029;23684,071;28,11197
 909,82; 6800,437;  238,413;23621,148;28,06354
 910,37; 6830,975;  267,567;23505,302;28,24461
 910,93; 6742,437;  208,721;23351,456;28,23225
 911,48; 6730,052;  207,644;23160,302;28,41679
 912,04; 6691,744;  216,567;23097,225;28,29978
 912,60; 6716,667;  226,260;23162,610;28,29747
 913,15; 6748,667;  230,106;22853,994;28,81274
 913,71; 6658,667;  207,183;22832,379;28,51460
 914,26; 6679,667;  206,490;22688,994;28,79206
 914,82; 6687,590;  222,875;22636,225;28,84315
 915,37; 6667,667;  226,029;22542,763;28,86461
 915,93; 6690,283;  272,644;22429,302;28,96483
 916,48; 6635,975;  208,952;22349,225;29,02865
 917,04; 6635,437;  239,567;22178,302;29,15332
 917,59; 6688,590;  240,029;22202,225;29,36210
 918,15; 6596,052;  191,413;21888,763;29,51807
 918,70; 6593,898;  211,644;21913,225;29,40917
 919,26; 6587,821;  224,490;21790,456;29,50636
 919,81; 6595,513;  210,644;21615,610;29,82892
 920,37; 6562,129;  221,260;21555,071;29,72216
 920,92; 6558,360;  229,875;21505,917;29,74465
 921,48; 6530,206;  199,260;21192,610;30,15691
 922,03; 6535,975;  213,337;21282,533;30,00892
 922,59; 6509,975;  220,721;21178,225;30,00956
 923,14; 6473,513;  210,644;20958,840;30,18513
 923,69; 6515,744;  242,029;20983,687;30,24693
 924,25; 6501,975;  241,337;20912,917;30,28621
 924,80; 6426,513;  212,029;20666,917;30,38142
 925,36; 6427,206;  218,183;20677,763;30,34775
 925,91; 6436,590;  207,567;20433,225;30,79763
 926,47; 6411,437;  197,644;20463,071;30,66204
 927,02; 6475,206;  262,183;20304,302;30,99983
 927,57; 6429,437;  222,260;20204,763;31,06306
 928,13; 6420,590;  200,644;20080,379;31,28787
 928,68; 6429,283;  219,490;20057,533;31,30245
 929,24; 6334,667;  189,567;19852,994;31,25142
 929,79; 6360,898;  204,644;19766,225;31,47115
 930,34; 6353,898;  217,875;19599,148;31,65955
 930,90; 6327,052;  208,413;19598,071;31,55620
 931,45; 6341,975;  226,798;19589,687;31,58195
 932,01; 6390,667;  225,875;19484,917;32,00986
 932,56; 6352,206;  241,029;19277,610;32,10228
 933,11; 6377,129;  236,183;19262,456;32,27614
 933,67; 6318,052;  202,029;19151,994;32,27459
 934,22; 6286,129;  223,644;19085,840;32,14093
 934,77; 6328,667;  240,567;19040,840;32,38304
 935,33; 6313,744;  224,952;18787,071;32,80225
 935,88; 6277,129;  227,337;18815,687;32,54615
 936,43; 6259,360;  214,644;18585,071;32,90460
 936,99; 6248,513;  230,337;18601,071;32,75959
 937,54; 6178,513;  210,490;18365,994;32,87170
 938,09; 6196,283;  230,260;18385,763;32,86069
 938,65; 6199,206;  230,567;18225,610;33,16824
 939,20; 6149,975;  208,337;18174,610;33,07107
 939,75; 6100,052;  207,337;18083,302;32,96446
 940,31; 6078,052;  204,567;17974,148;33,05359
 940,86; 6142,360;  221,798;17970,687;33,35737
 941,41; 6155,821;  278,106;17849,225;33,45100
 941,96; 6048,283;  214,183;17739,302;33,28993
 942,52; 6057,360;  207,183;17673,225;33,49458
 943,07; 6011,898;  188,567;17594,379;33,45624
 943,62; 6040,898;  210,952;17491,994;33,73608
 944,18; 5974,590;  200,029;17384,456;33,60346
 944,73; 6006,667;  213,413;17338,687;33,82868
 945,28; 5942,513;  186,337;17155,763;33,92087
 945,83; 5977,821;  216,029;17138,225;34,04873
 946,39; 5987,437;  206,952;17032,148;34,35612
 946,94; 5985,513;  233,183;17082,763;34,13931
 947,49; 5925,667;  212,798;16888,379;34,25889
 948,04; 5958,667;  233,413;16788,994;34,58202
 948,59; 5958,052;  234,875;16769,225;34,61386
 949,15; 5909,206;  200,798;16703,917;34,58987
 949,70; 5907,667;  213,490;16628,071;34,68975
 950,25; 5900,898;  234,875;16506,148;34,82225
 950,80; 5900,360;  175,029;16403,687;35,27914
 951,36; 5850,821;  186,490;16339,148;35,06748
 951,91; 5916,667;  227,106;16320,840;35,35265
 952,46; 5817,437;  192,798;16107,840;35,34165
 953,01; 5842,975;  225,183;16155,071;35,26574
 953,56; 5825,283;  195,567;16003,687;35,61281
 954,11; 5816,975;  222,106;16020,917;35,41323
 954,67; 5828,975;  211,721;15927,225;35,74339
 955,22; 5783,744;  193,106;15771,687;35,88670
 955,77; 5812,283;  227,567;15740,610;36,00013
 956,32; 5771,206;  253,952;15657,610;35,81782
 956,87; 5696,898;  205,029;15556,687;35,77379
 957,42; 5703,437;  209,413;15469,687;36,00213
 957,98; 5704,283;  201,106;15390,456;36,23050
 958,53; 5719,821;  233,413;15342,148;36,31282
 959,08; 5715,898;  209,798;15222,917;36,67526
 959,63; 5719,513;  199,721;15171,610;36,86771
 960,18; 5711,052;  228,952;15133,533;36,78131
 960,73; 5656,667;  210,490;15066,225;36,66043
 961,28; 5612,590;  198,798;14966,533;36,65960
 961,83; 5607,744;  229,644;14875,610;36,72069
 962,39; 5549,590;  187,106;14830,994;36,61927
 962,94; 5573,590;  223,644;14681,687;37,00325
 963,49; 5528,206;  223,029;14572,840;36,97036
 964,04; 5555,437;  228,567;14541,533;37,21709
 964,59; 5517,975;  189,644;14497,610;37,24031
 965,14; 5537,206;  219,798;14450,148;37,36667
 965,69; 5471,821;  209,567;14309,687;37,32063
 966,24; 5465,513;  208,567;14240,840;37,46325
 966,79; 5487,206;  226,413;14153,302;37,77436
 967,34; 5452,129;  195,567;14021,917;38,01843
 967,89; 5399,437;  206,260;13932,840;37,83300
 968,44; 5372,975;  217,490;13869,840;37,76262
 968,99; 5409,437;  223,183;13789,379;38,22924
 969,55; 5344,052;  220,952;13681,302;38,06067
 970,10; 5347,360;  223,490;13670,917;38,10297
 970,65; 5362,744;  237,183;13548,917;38,50408
 971,20; 5306,898;  202,875;13451,302;38,52550
 971,75; 5254,129;  183,721;13331,071;38,56601
 972,30; 5221,821;  226,798;13326,225;38,13162
 972,85; 5207,667;  199,644;13197,533;38,52951
 973,40; 5163,513;  198,490;13063,302;38,59383
 973,95; 5161,744;  217,490;13014,148;38,63707
 974,50; 5136,744;  228,337;12915,763;38,68718
 975,05; 5127,129;  216,106;12833,379;38,92301
 975,60; 5125,360;  221,875;12801,302;38,98019
 976,15; 5063,206;  219,183;12669,225;38,90768
 976,70; 5068,360;  221,567;12644,610;39,01454
 977,25; 5063,898;  224,337;12556,917;39,24208
 977,80; 4998,975;  209,952;12405,763;39,26777
 978,35; 4977,821;  226,183;12277,917;39,42701
 978,89; 4941,360;  192,798;12233,071;39,43899
 979,44; 4958,129;  221,106;12146,610;39,72179
 979,99; 4853,590;  201,413;11979,763;39,49770
 980,54; 4898,975;  232,952;11965,840;39,76875
 981,09; 4861,898;  237,029;11898,917;39,65798
 981,64; 4897,821;  221,644;11731,148;40,62883
 982,19; 4821,590;  252,183;11704,379;39,89984
 982,74; 4791,283;  226,644;11581,763;40,19895
 983,29; 4698,206;  204,413;11452,687;39,95095
 983,84; 4673,667;  221,183;11384,687;39,88429
 984,39; 4729,821;  270,413;11316,917;40,36940
 984,94; 4627,052;  196,183;11127,379;40,53417
 985,49; 4685,206;  241,260;11073,071;41,02680
 986,03; 4652,975;  239,490;11012,610;40,96756
 986,58; 4637,821;  264,260;10886,302;41,17439
 987,13; 4516,667;  222,260;10744,763;40,81165
 987,68; 4525,590;  228,106;10678,610;41,12227
 988,23; 4454,129;  235,183;10680,917;40,38918
 988,78; 4437,667;  207,029;10469,148;41,22578
 989,33; 4419,283;  244,183;10394,763;41,13164
 989,88; 4421,744;  249,721;10333,840;41,37221
 990,42; 4374,667;  214,490;10215,994;41,59551
 990,97; 4367,744;  214,029;10109,763;41,97481
 991,52; 4331,744;  240,721;10078,302;41,58566
 992,07; 4327,283;  261,106; 9958,840;41,92914
 992,62; 4298,975;  231,106; 9851,148;42,28536
 993,17; 4230,052;  240,875; 9734,533;42,01939
 993,71; 4211,744;  239,952; 9705,302;41,96139
 994,26; 4135,821;  208,952; 9585,071;41,88161
 994,81; 4136,898;  243,029; 9526,148;41,94570
 995,36; 4086,975;  217,106; 9366,225;42,29772
 995,91; 4059,744;  225,183; 9292,687;42,28905
 996,45; 4035,590;  227,183; 9195,687;42,46425
 997,00; 3988,821;  203,183; 9082,302;42,63529
 997,55; 3985,360;  228,413; 9089,687;42,39736
 998,10; 3951,283;  250,029; 8904,225;42,76831
 998,65; 3933,206;  231,798; 8834,840;43,02440
 999,19; 3882,360;  243,029; 8749,456;42,78331
 999,74; 3871,975;  234,798; 8674,533;43,09587
1000,29; 3833,206;  242,183; 8586,687;43,03459
1000,84; 3778,513;  219,413; 8432,917;43,33230
1001,38; 3740,283;  229,798; 8328,071;43,34856
1001,93; 3739,283;  239,952; 8324,379;43,28483
1002,48; 3678,513;  218,413; 8117,840;43,80191
1003,03; 3658,744;  236,798; 8113,071;43,44626
1003,57; 3652,590;  239,644; 7983,610;44,07233
1004,12; 3623,667;  261,413; 7926,917;43,86214
1004,67; 3551,821;  228,183; 7833,917;43,69911
1005,22; 3482,283;  213,567; 7710,456;43,60096
1005,76; 3444,590;  204,106; 7588,225;43,88451
1006,31; 3445,590;  245,106; 7535,225;43,90168
1006,86; 3400,975;  227,106; 7445,225;43,97086
1007,40; 3332,898;  206,260; 7318,379;43,96212
1007,95; 3301,744;  225,337; 7230,456;43,91656
1008,50; 3267,437;  243,567; 7130,379;43,90812
1009,04; 3228,283;  225,337; 7031,071;44,12376
1009,59; 3177,437;  231,875; 6879,687;44,30874
1010,14; 3156,744;  221,183; 6783,225;44,73549
1010,68; 3106,360;  225,260; 6735,225;44,25676
1011,23; 3074,975;  213,721; 6606,302;44,75898
1011,78; 3041,283;  230,029; 6518,994;44,70137
1012,32; 2982,437;  246,875; 6430,225;44,24077
1012,87; 2988,898;  245,644; 6391,840;44,63336
1013,42; 2916,744;  216,413; 6275,763;44,56469
1013,96; 2957,129;  251,337; 6292,687;44,78788
1014,51; 2855,360;  187,952; 6186,225;44,46959
1015,06; 2901,360;  203,337; 6183,225;45,11828
1015,60; 2977,590;  258,798; 6229,763;45,53355
1016,15; 2930,667;  223,952; 6194,533;45,33421
1016,69; 2945,206;  218,490; 6249,225;45,21365
1017,24; 2924,437;  204,567; 6251,071;44,98251
1017,79; 2991,667;  247,952; 6322,610;45,16658
1018,33; 2961,744;  208,798; 6294,148;45,23891
1018,88; 2987,590;  234,644; 6369,148;44,87643
1019,42; 2983,360;  213,567; 6337,917;45,22590
1019,97; 2997,821;  209,490; 6343,763;45,45495
1020,51; 3008,898;  238,337; 6399,071;44,97129
1021,06; 3000,283;  197,260; 6375,840;45,36678
1021,61; 2965,360;  183,337; 6371,302;44,95861
1022,15; 2943,129;  171,952; 6338,610;44,93807
1022,70; 2991,744;  211,337; 6305,763;45,62214
1023,24; 2930,898;  211,106; 6307,917;44,61008
1023,79; 2939,898;  225,644; 6242,610;45,11001
1024,33; 2902,206;  208,567; 6146,763;45,36122
1024,88; 2910,667;  222,875; 6127,302;45,52165
1025,42; 2850,052;  213,183; 5989,302;45,65123
1025,97; 2840,052;  208,183; 5937,610;45,93599
1026,51; 2765,975;  188,183; 5812,302;45,83460
1027,06; 2753,667;  203,106; 5776,610;45,76226
1027,60; 2707,667;  224,413; 5656,533;45,71427
1028,15; 2712,667;  228,644; 5570,071;46,50486
1028,69; 2597,052;  187,183; 5457,917;45,72170
1029,24; 2637,744;  201,029; 5413,840;46,74474
1029,78; 2559,590;  198,644; 5283,071;46,43485
1030,33; 2506,821;  192,798; 5191,148;46,29574
1030,87; 2525,590;  205,490; 5153,071;46,89363
1031,42; 2452,283;  194,721; 5033,840;46,65232
1031,96; 2460,360;  216,413; 5004,302;46,86714
1032,51; 2399,590;  192,644; 4923,840;46,64668
1033,05; 2409,975;  217,413; 4854,302;47,28519
1033,60; 2329,667;  191,260; 4731,148;47,10265
1034,14; 2343,437;  213,029; 4687,610;47,61134
1034,69; 2306,052;  201,490; 4605,379;47,78871
1035,23; 2284,283;  211,490; 4546,071;47,81990
1035,77; 2248,283;  213,875; 4543,456;46,98856
1036,32; 2218,129;  178,952; 4452,610;47,71503
1036,86; 2197,437;  213,183; 4367,456;47,76416
1037,41; 2175,052;  216,798; 4314,456;47,78959
1037,95; 2132,437;  186,260; 4246,917;47,92763
1038,50; 2110,821;  198,875; 4213,533;47,62414
1039,04; 2074,513;  216,875; 4176,763;46,91138
1039,58; 2041,129;  198,413; 4087,302;47,38412
1040,13; 2037,590;  213,721; 4031,840;47,76879
1040,67; 2041,821;  233,952; 4042,148;47,47311
1041,21; 2012,513;  235,567; 3937,840;47,99609
1041,76; 1951,513;  187,875; 3880,917;47,75571
1042,30; 1930,667;  205,952; 3822,687;47,68709
1042,85; 1911,360;  213,721; 3760,533;47,86379
1043,39; 1872,360;  195,029; 3645,917;48,60577
1043,93; 1878,437;  226,413; 3657,225;48,15255
1044,48; 1842,129;  210,567; 3598,225;48,16194
1045,02; 1824,129;  207,183; 3529,610;48,66762
1045,56; 1823,590;  227,029; 3501,225;48,76194
1046,11; 1791,206;  218,721; 3483,687;48,16237
1046,65; 1757,283;  216,875; 3398,071;48,42228
1047,19; 1742,744;  199,490; 3356,533;48,88290
1047,74; 1672,052;  194,567; 3310,225;47,42128
1048,28; 1704,206;  214,875; 3257,148;48,95454
1048,82; 1706,513;  229,875; 3236,071;49,11983
1049,37; 1657,052;  231,413; 3183,071;48,29959
1049,91; 1627,360;  220,567; 3134,533;48,27759
1050,45; 1634,437;  234,490; 3112,456;48,64361
1050,99; 1606,513;  209,952; 3043,302;49,29012
1051,54; 1558,360;  201,721; 2997,533;48,52396
1052,08; 1584,590;  235,952; 2957,610;49,55210
1052,62; 1556,360;  222,798; 2949,610;48,90553
1053,16; 1510,437;  204,875; 2872,456;48,94178
1053,71; 1496,667;  229,875; 2844,840;48,44394
1054,25; 1508,513;  218,337; 2780,456;50,35585
1054,79; 1472,360;  212,798; 2783,533;48,99617
1055,33; 1438,052;  189,337; 2702,610;49,68483
1055,88; 1478,667;  221,567; 2684,302;51,04488
1056,42; 1457,513;  231,798; 2657,148;50,53767
1056,96; 1419,283;  224,490; 2626,687;49,73750
1057,50; 1389,898;  223,567; 2588,379;49,32024
1058,05; 1380,744;  215,721; 2517,994;50,60317
1058,59; 1405,590;  237,413; 2514,533;51,30065
1059,13; 1315,898;  192,798; 2448,917;49,78017
1059,67; 1351,744;  225,413; 2413,071;51,48570
1060,21; 1318,590;  221,260; 2392,379;50,54217
1060,76; 1304,360;  231,952; 2373,610;50,07372
1061,30; 1302,821;  240,567; 2339,994;50,59732
1061,84; 1259,283;  215,875; 2290,533;50,29300
1062,38; 1219,744;  210,644; 2223,994;50,12045
1062,92; 1262,667;  251,490; 2261,533;50,30625
1063,46; 1225,898;  239,490; 2193,071;50,49229
1064,01; 1200,129;  209,798; 2161,687;50,73706
1064,55; 1187,821;  230,413; 2137,148;50,21190
1065,09; 1149,898;  198,106; 2081,148;50,54546
1065,63; 1190,667;  254,260; 2103,917;50,62600
1066,17; 1169,360;  250,337; 2071,379;50,46687
1066,71; 1153,283;  241,183; 2052,533;50,35471
1067,25; 1135,206;  221,644; 1987,840;51,72481
1067,80; 1134,898;  237,413; 1981,917;51,44641
1068,34; 1126,975;  257,337; 1969,379;50,79538
1068,88; 1085,360;  225,490; 1907,533;51,12055
1069,42; 1100,898;  254,952; 1935,840;50,32732
1069,96; 1066,898;  225,952; 1885,071;50,68630
1070,50; 1098,898;  256,798; 1878,379;51,93081
1071,04; 1047,052;  216,337; 1818,456;51,85103
1071,58; 1027,590;  219,721; 1813,763;50,68054
1072,12; 1013,437;  219,413; 1766,071;51,33800
1072,66; 1036,437;  216,260; 1775,994;52,58439
1073,21; 1029,360;  230,260; 1769,148;51,92709
1073,75; 1001,437;  232,952; 1724,071;51,53744
1074,29; 1001,360;  227,644; 1711,687;52,13567
1074,83; 1004,590;  238,029; 1710,071;52,07469
1075,37;  983,513;  240,106; 1682,763;51,53043
1075,91;  966,360;  240,106; 1678,687;50,48405
1076,45;  956,513;  236,183; 1638,763;51,35753
1076,99;  961,821;  243,260; 1613,225;52,45107
1077,53;  929,590;  219,721; 1585,225;51,98588
1078,07;  935,667;  233,644; 1603,225;51,25825
1078,61;  913,206;  226,644; 1542,071;52,19306
1079,15;  889,898;  222,337; 1536,302;50,80511
1079,69;  891,206;  233,260; 1518,456;51,19422
1080,23;  908,129;  244,029; 1516,456;52,19160
1080,77;  933,513;  263,260; 1528,687;52,96662
1081,31;  865,975;  226,029; 1467,071;51,56522
1081,85;  870,975;  236,337; 1460,687;51,83473
1082,39;  848,898;  224,413; 1428,763;51,85242
1082,93;  850,437;  234,952; 1434,071;51,32806
1083,47;  811,437;  212,567; 1393,994;50,69033
1084,01;  865,590;  238,490; 1411,763;53,44877
1084,55;  809,360;  225,490; 1355,456;51,67143
1085,09;  841,437;  245,644; 1366,225;53,16817
1085,63;  806,129;  231,106; 1337,148;51,98925
1086,17;  793,513;  225,260; 1316,994;52,05055
1086,71;  792,283;  219,952; 1281,302;53,92479
1087,24;  825,744;  257,490; 1297,840;54,62141
1087,78;  799,898;  243,721; 1308,302;52,24375
1088,32;  756,821;  217,875; 1249,225;52,25638
1088,86;  799,513;  251,644; 1246,994;55,04287
1089,40;  772,437;  231,952; 1233,533;53,96316
1089,94;  735,744;  202,875; 1207,763;53,02770
1090,48;  749,052;  246,183; 1217,071;51,79475
1091,02;  749,052;  249,413; 1206,379;52,21071
1091,56;  727,821;  229,644; 1182,533;52,28072
1092,10;  710,744;  214,952; 1152,456;52,88430
1092,63;  728,206;  242,952; 1179,994;51,78569
1093,17;  723,513;  228,183; 1145,917;53,97320
1093,71;  701,898;  222,798; 1115,225;53,68507
1094,25;  713,821;  251,644; 1126,302;52,84089
1094,79;  690,744;  230,183; 1088,302;53,67104
1095,33;  688,898;  229,183; 1093,225;53,20519
1095,87;  688,206;  235,183; 1074,610;53,96814
1096,40;  662,744;  212,106; 1042,687;54,25583
1096,94;  664,437;  232,183; 1052,302;52,70622
1097,48;  670,975;  244,798; 1048,687;53,01443
1098,02;  635,206;  221,337; 1013,148;52,26865
1098,56;  619,590;  203,567;  984,071;53,30186
1099,10;  614,821;  202,260;  984,610;52,73363
1099,63;  608,206;  210,029;  972,456;52,22493
1100,17;  634,667;  236,260;  985,071;53,20534
1100,71;  639,437;  245,413; 1000,763;52,16430

