
Integration time [ms]: 120,000
Averaging Nr. [scans]: 13
Smoothing Nr. [pixels]: 0
Data measured with spectrometer [name]: 2009305U1
Wave   ;Sample   ;Dark     ;Reference;Reflectance
[nm]   ;[counts] ;[counts] ;[counts] ;[%]

 175,72;  195,812;  198,725;  209,729;-26,46740
 176,32;  222,949;  233,791;  221,495; 0,00000
 176,92;  246,682;  251,952;  246,144; 0,00000
 177,52;  267,066;  249,569;  261,381;148,12526
 178,12;  237,608;  210,945;  220,620;275,57674
 178,72;  258,664;  248,635;  250,038;714,66025
 179,32;  252,553;  255,406;  241,911; 0,00000
 179,92;  245,694;  255,641;  248,129; 0,00000
 180,52;  242,392;  233,115;  240,492;125,74836
 181,12;  257,298;  249,103;  245,056; 0,00000
 181,73;  275,342;  265,873;  272,598;140,79498
 182,33;  338,130;  349,879;  341,303; 0,00000
 182,93;  267,560;  259,492;  262,580;261,23052
 183,53;  236,577;  241,402;  230,123; 0,00000
 184,13;  238,478;  231,942;  223,284; 0,00000
 184,73;  277,798;  262,785;  270,840;186,37789
 185,33;  255,189;  235,800;  340,235;18,56489
 185,93;  265,082;  233,331;  341,231;29,42624
 186,53;  272,981;  252,412;  358,480;19,39239
 187,13;  302,033;  259,651;  408,456;28,48119
 187,73;  261,016;  235,102;  356,651;21,31978
 188,33;  263,227;  242,097;  355,217;18,67854
 188,93;  278,343;  252,084;  372,324;21,83850
 189,53;  268,336;  250,458;  375,462;14,30215
 190,13;  318,476;  288,441;  393,447;28,60292
 190,73;  255,504;  221,607;  354,699;25,46882
 191,34;  282,026;  261,772;  383,107;16,69225
 191,94;  252,723;  243,170;  355,212; 8,52651
 192,54;  275,601;  244,657;  378,976;23,03776
 193,14;  291,879;  261,650;  386,945;24,12611
 193,74;  283,220;  256,803;  371,292;23,07427
 194,34;  269,043;  254,345;  379,723;11,72337
 194,94;  239,835;  215,650;  345,606;18,61017
 195,54;  227,991;  198,339;  325,621;23,29580
 196,14;  241,570;  226,731;  350,792;11,96087
 196,74;  256,365;  216,030;  338,690;32,88386
 197,34;  217,908;  203,967;  338,400;10,37052
 197,94;  253,714;  224,267;  375,503;19,47084
 198,54;  261,405;  232,346;  384,669;19,07704
 199,14;  239,500;  223,046;  367,104;11,42167
 199,74;  231,929;  202,354;  368,520;17,79814
 200,34;  226,390;  194,509;  366,971;18,48561
 200,94;  259,612;  234,889;  406,748;14,38587
 201,54;  243,940;  216,814;  407,160;14,25101
 202,14;  271,730;  240,665;  454,320;14,53951
 202,74;  252,808;  228,200;  447,857;11,20294
 203,34;  219,673;  181,976;  463,089;13,40981
 203,94;  204,410;  166,204;  459,631;13,02068
 204,54;  277,900;  236,729;  542,983;13,44353
 205,14;  233,720;  194,585;  536,212;11,45553
 205,74;  284,585;  237,668;  639,180;11,68506
 206,34;  257,521;  204,050;  630,780;12,53043
 206,94;  263,631;  210,433;  685,452;11,19917
 207,54;  236,631;  177,588;  721,425;10,85678
 208,14;  254,773;  208,358;  795,906; 7,89984
 208,74;  261,984;  208,200;  848,241; 8,40323
 209,34;  262,885;  207,355;  912,599; 7,87387
 209,94;  278,247;  216,431; 1015,259; 7,73836
 210,54;  276,674;  207,205; 1109,050; 7,70294
 211,14;  287,929;  214,662; 1195,427; 7,47041
 211,73;  289,446;  208,506; 1299,988; 7,41563
 212,33;  304,876;  222,812; 1397,255; 6,98751
 212,93;  299,896;  208,738; 1479,640; 7,17272
 213,53;  286,182;  184,046; 1538,349; 7,54156
 214,13;  298,243;  193,748; 1630,932; 7,27081
 214,73;  295,576;  179,434; 1625,550; 8,03125
 215,33;  273,478;  163,585; 1674,567; 7,27296
 215,93;  318,629;  208,899; 1774,717; 7,00788
 216,53;  290,028;  168,430; 1832,838; 7,30580
 217,13;  358,091;  229,436; 2022,497; 7,17517
 217,73;  352,871;  197,822; 2208,241; 7,71227
 218,33;  329,913;  156,057; 2364,675; 7,87172
 218,93;  372,129;  181,834; 2630,757; 7,77056
 219,53;  405,649;  180,903; 2889,476; 8,29758
 220,13;  408,923;  168,059; 3125,529; 8,14427
 220,73;  441,720;  190,893; 3430,322; 7,74293
 221,32;  487,061;  184,508; 3811,856; 8,34090
 221,92;  522,858;  193,366; 4182,543; 8,25964
 222,52;  552,453;  172,284; 4562,289; 8,65988
 223,12;  601,585;  184,900; 4945,153; 8,75342
 223,72;  639,552;  200,285; 5311,646; 8,59394
 224,32;  681,244;  192,747; 5676,679; 8,90779
 224,92;  689,683;  183,362; 5950,894; 8,77882
 225,52;  760,291;  207,356; 6276,099; 9,11118
 226,12;  793,113;  187,051; 6571,650; 9,49256
 226,72;  809,333;  160,666; 6841,878; 9,70883
 227,31;  826,235;  156,666; 7219,939; 9,47958
 227,91;  881,599;  190,894; 7541,280; 9,39685
 228,51;  935,370;  186,812; 7911,520; 9,69043
 229,11;  996,059;  181,820; 8271,138;10,06561
 229,71; 1027,600;  176,122; 8541,977;10,17801
 230,31; 1077,496;  169,748; 8933,640;10,35781
 230,91; 1096,580;  158,502; 9183,125;10,39465
 231,51; 1149,849;  167,360; 9538,918;10,48373
 232,10; 1230,704;  169,980; 9825,075;10,98616
 232,70; 1276,351;  177,422;10037,261;11,14551
 233,30; 1347,036;  204,206;10330,930;11,28529
 233,90; 1390,707;  173,898;10431,145;11,86291
 234,50; 1417,146;  173,514;10561,102;11,97228
 235,10; 1469,145;  170,439;10679,048;12,35850
 235,70; 1513,621;  196,355;10707,048;12,53262
 236,29; 1550,424;  189,507;10660,055;12,99757
 236,89; 1550,129;  164,349;10563,896;13,32539
 237,49; 1600,026;  187,436;10546,988;13,63562
 238,09; 1581,444;  169,434;10299,934;13,93820
 238,69; 1636,152;  199,577;10085,824;14,53104
 239,29; 1591,609;  173,126; 9816,008;14,71016
 239,89; 1616,228;  193,964; 9557,989;15,18859
 240,48; 1596,960;  169,819; 9189,380;15,82274
 241,08; 1565,763;  173,895; 8870,359;16,00499
 241,68; 1543,312;  202,973; 8542,428;16,07226
 242,28; 1497,608;  173,206; 8296,267;16,30422
 242,88; 1535,056;  210,364; 8015,271;16,97256
 243,48; 1529,212;  214,359; 7813,649;17,30232
 244,07; 1485,115;  190,279; 7524,495;17,65474
 244,67; 1509,861;  193,589; 7335,200;18,43103
 245,27; 1496,139;  198,121; 7224,988;18,47221
 245,87; 1508,298;  202,978; 7137,422;18,82372
 246,47; 1490,314;  186,737; 7152,619;18,71375
 247,06; 1508,598;  178,433; 7115,577;19,17453
 247,66; 1515,751;  190,742; 7171,967;18,97960
 248,26; 1568,600;  211,199; 7383,422;18,92580
 248,86; 1584,018;  187,583; 7554,528;18,95541
 249,46; 1583,190;  151,745; 7751,040;18,83655
 250,05; 1691,180;  205,203; 8059,625;18,91899
 250,65; 1720,919;  156,351; 8391,138;18,99949
 251,25; 1806,763;  175,510; 8846,420;18,81295
 251,85; 1875,195;  188,657; 9377,235;18,35473
 252,44; 1950,731;  152,046;10031,610;18,20612
 253,04; 2088,720;  201,662;10746,245;17,89599
 253,64; 2154,381;  153,197;11314,012;17,93045
 254,24; 2272,290;  191,741;12220,363;17,29665
 254,84; 2398,651;  166,745;13137,194;17,20763
 255,43; 2545,753;  180,354;13986,565;17,13286
 256,03; 2636,359;  179,120;14914,490;16,67578
 256,63; 2777,646;  182,657;15992,265;16,41400
 257,23; 2870,129;  178,195;16766,067;16,22832
 257,82; 3020,372;  187,423;17744,651;16,13552
 258,42; 3048,736;  152,113;18540,057;15,75284
 259,02; 3220,511;  195,508;19439,475;15,71923
 259,62; 3253,560;  174,574;20014,745;15,51895
 260,21; 3268,973;  187,584;20539,271;15,14070
 260,81; 3333,103;  174,128;20993,664;15,17313
 261,41; 3312,867;  166,037;21535,894;14,72555
 262,01; 3378,572;  206,264;21932,846;14,60104
 262,60; 3316,590;  161,657;22263,375;14,27461
 263,20; 3392,699;  174,198;22619,064;14,33959
 263,80; 3377,287;  197,880;22817,691;14,05585
 264,40; 3359,099;  155,342;23010,849;14,01744
 264,99; 3353,078;  195,802;23187,520;13,73223
 265,59; 3287,871;  168,336;23290,435;13,49158
 266,19; 3298,100;  175,572;23408,876;13,43988
 266,78; 3331,639;  207,185;23564,540;13,37675
 267,38; 3286,893;  185,875;23535,671;13,28071
 267,98; 3273,573;  178,493;23588,757;13,22104
 268,58; 3244,640;  189,029;23610,424;13,04624
 269,17; 3231,005;  178,179;23588,237;13,04066
 269,77; 3176,426;  192,578;23479,767;12,81326
 270,37; 3116,715;  161,110;23253,673;12,79895
 270,96; 3165,823;  219,115;23179,220;12,83404
 271,56; 3063,316;  181,041;22949,788;12,65891
 272,16; 3059,823;  181,652;22839,153;12,70295
 272,75; 3027,153;  179,345;22647,263;12,67500
 273,35; 3027,350;  185,962;22752,668;12,59106
 273,95; 2999,812;  182,345;22634,525;12,54875
 274,54; 2981,049;  162,280;22661,239;12,52844
 275,14; 3081,273;  199,500;23009,838;12,63363
 275,74; 3045,472;  157,729;22979,523;12,65344
 276,33; 3152,701;  206,040;23339,167;12,73784
 276,93; 3145,532;  185,666;23789,475;12,53978
 277,53; 3214,468;  184,200;24196,394;12,61970
 278,12; 3283,392;  159,196;24656,393;12,75328
 278,72; 3420,479;  210,968;25209,099;12,83900
 279,32; 3476,567;  177,353;25795,343;12,87851
 279,91; 3550,699;  173,275;26468,338;12,84433
 280,51; 3691,929;  180,661;27006,795;13,08898
 281,11; 3816,908;  181,582;27679,169;13,22053
 281,70; 3907,886;  155,889;28143,812;13,40577
 282,30; 4030,777;  175,887;28664,557;13,53131
 282,90; 4164,206;  184,733;29140,880;13,74310
 283,49; 4282,240;  191,654;29639,315;13,89104
 284,09; 4397,931;  209,735;30013,118;14,05275
 284,69; 4547,798;  208,352;30383,634;14,38080
 285,28; 4711,425;  198,581;30659,164;14,81536
 285,88; 4836,175;  234,268;31004,553;14,95569
 286,47; 4930,085;  178,656;30948,156;15,44201
 287,07; 5094,831;  220,122;30971,081;15,85222
 287,67; 5249,289;  205,282;31249,572;16,24778
 288,26; 5413,996;  173,583;31154,111;16,91518
 288,86; 5607,887;  177,427;31163,873;17,52527
 289,46; 5805,633;  194,890;31354,786;18,00630
 290,05; 6025,719;  176,971;31383,773;18,74190
 290,65; 6326,525;  191,425;31591,261;19,53864
 291,24; 6620,215;  197,814;31745,730;20,35761
 291,84; 6876,492;  198,734;31851,188;21,09713
 292,44; 7191,773;  193,513;31994,544;22,00639
 293,03; 7466,435;  249,968;32153,222;22,61985
 293,63; 7731,876;  186,964;32285,480;23,50549
 294,22; 7998,150;  208,736;32427,446;24,17668
 294,82; 8217,176;  179,111;32457,635;24,90221
 295,41; 8288,040;  168,197;32179,428;25,36561
 296,01; 8546,692;  220,882;32137,119;26,08644
 296,61; 8616,776;  209,660;31938,498;26,49676
 297,20; 8645,142;  198,652;31498,260;26,98593
 297,80; 8772,038;  189,818;31371,885;27,52293
 298,39; 8724,733;  168,349;31012,542;27,74067
 298,99; 8807,614;  196,577;30953,082;27,99745
 299,58; 8887,279;  210,666;30637,168;28,51663
 300,18; 8925,434;  218,664;30536,651;28,71817
 300,78; 8912,929;  187,969;30175,812;29,09499
 301,37; 8905,749;  210,801;30210,608;28,98334
 301,97; 8983,765;  192,736;30210,385;29,28620
 302,56; 9019,426;  180,117;30097,031;29,54619
 303,16; 8979,163;  178,501;30021,826;29,48955
 303,75; 9056,467;  188,816;30056,938;29,68935
 304,35; 9134,607;  181,592;30296,229;29,72978
 304,94; 9152,073;  192,275;30223,710;29,83473
 305,54; 9209,215;  202,738;30212,702;30,01162
 306,13; 9152,090;  162,515;30220,877;29,90707
 306,73; 9151,740;  171,667;29981,020;30,12502
 307,33; 9188,180;  197,897;30003,878;30,16268
 307,92; 9187,072;  200,276;30009,930;30,14727
 308,52; 9272,680;  164,039;30460,332;30,06520
 309,11; 9431,230;  184,805;30865,317;30,13778
 309,71; 9525,506;  165,957;31097,892;30,25853
 310,30; 9571,281;  168,199;31341,744;30,16366
 310,90; 9729,358;  214,660;31732,359;30,18843
 311,49; 9720,007;  187,198;31844,388;30,11262
 312,09; 9756,917;  150,125;31981,436;30,18032
 312,68; 9969,643;  221,508;32445,118;30,25153
 313,28; 9921,918;  164,968;32508,776;30,16636
 313,87; 9922,732;  155,737;32612,835;30,09202
 314,47;10075,922;  179,883;32880,460;30,26258
 315,06; 9996,512;  164,892;33020,392;29,92382
 315,66;10029,840;  163,895;33161,590;29,89889
 316,25; 9992,899;  153,271;33134,720;29,83383
 316,85; 9940,203;  150,895;33146,514;29,66851
 317,44; 9993,571;  168,882;33320,627;29,63551
 318,04; 9941,382;  157,041;33358,819;29,46933
 318,63; 9887,520;  156,129;33413,451;29,26090
 319,22; 9921,316;  181,886;33687,260;29,06826
 319,82; 9849,282;  176,965;33726,732;28,82976
 320,41; 9777,415;  188,887;33581,370;28,71463
 321,01; 9806,983;  194,740;33730,664;28,66253
 321,60; 9751,821;  183,350;33856,364;28,41584
 322,20; 9653,688;  167,276;33758,639;28,24063
 322,79; 9677,753;  207,430;33929,362;28,08357
 323,39; 9634,124;  173,438;34018,334;27,95307
 323,98; 9587,830;  164,200;33942,472;27,89850
 324,58; 9463,460;  173,116;33789,917;27,63601
 325,17; 9365,448;  185,502;33722,475;27,37261
 325,76; 9320,358;  194,121;33481,634;27,41640
 326,36; 9088,796;  166,894;33169,218;27,03416
 326,95; 9089,227;  201,197;32821,858;27,24663
 327,55; 8906,524;  172,273;32580,839;26,95044
 328,14; 8695,719;  161,050;32147,564;26,68209
 328,74; 8603,690;  198,502;31792,923;26,60339
 329,33; 8449,577;  195,278;31370,401;26,47720
 329,92; 8229,000;  154,959;30887,103;26,27230
 330,52; 8049,905;  189,204;30203,412;26,18993
 331,11; 7891,832;  187,197;29806,103;26,01256
 331,71; 7685,238;  178,967;29282,569;25,79155
 332,30; 7568,919;  195,506;28842,479;25,73889
 332,89; 7419,225;  236,124;28405,815;25,49940
 333,49; 7174,777;  194,351;27811,673;25,27553
 334,08; 7030,821;  177,196;27493,100;25,09024
 334,68; 6864,238;  192,581;27000,316;24,88706
 335,27; 6791,399;  191,512;26650,986;24,94338
 335,86; 6664,601;  222,889;26456,564;24,55513
 336,46; 6504,399;  194,436;26199,541;24,26433
 337,05; 6418,194;  176,966;26018,241;24,15217
 337,65; 6332,019;  160,811;25875,670;23,99860
 338,24; 6317,413;  224,123;25891,948;23,73902
 338,83; 6278,863;  200,738;25754,918;23,78525
 339,43; 6188,976;  173,348;25758,583;23,51211
 340,02; 6138,800;  175,578;25570,534;23,48192
 340,61; 6129,732;  177,122;25648,038;23,37022
 341,21; 6101,151;  210,963;25690,769;23,11708
 341,80; 6022,799;  189,657;25615,084;22,94216
 342,40; 6040,510;  180,589;25697,459;22,96489
 342,99; 5985,610;  179,355;25775,661;22,68396
 343,58; 6017,346;  181,355;25977,863;22,62318
 344,18; 6005,181;  197,971;26092,927;22,42603
 344,77; 6023,613;  165,732;26394,318;22,33396
 345,36; 6042,381;  166,658;26652,242;22,18461
 345,96; 6124,214;  207,432;26959,571;22,11704
 346,55; 6095,585;  170,207;27168,889;21,94692
 347,14; 6097,312;  163,435;27487,598;21,71659
 347,74; 6181,231;  144,827;27869,864;21,77239
 348,33; 6287,770;  178,596;28420,892;21,63130
 348,92; 6351,164;  181,599;29109,307;21,32753
 349,52; 6389,857;  159,597;29486,131;21,24445
 350,11; 6410,932;  177,654;29780,485;21,05636
 350,70; 6433,006;  172,122;29801,438;21,13071
 351,29; 6299,925;  170,031;29587,678;20,83747
 351,89; 6307,604;  198,574;29521,502;20,83363
 352,48; 6286,435;  154,891;29577,683;20,83943
 353,07; 6295,542;  190,436;29611,494;20,75081
 353,67; 6212,933;  195,061;29508,263;20,52956
 354,26; 6110,246;  186,127;29303,183;20,34587
 354,85; 6102,774;  183,049;29206,884;20,39608
 355,45; 6024,788;  160,580;28976,851;20,35034
 356,04; 5997,454;  177,667;28863,558;20,28798
 356,63; 5940,689;  201,736;28756,951;20,09774
 357,22; 5882,836;  182,033;28529,688;20,11032
 357,82; 5848,495;  178,573;28303,126;20,16004
 358,41; 5798,424;  197,198;28225,802;19,98397
 359,00; 5732,756;  169,194;28039,475;19,96235
 359,60; 5738,556;  190,200;27965,671;19,97574
 360,19; 5675,948;  189,283;27739,961;19,91481
 360,78; 5608,920;  188,811;27658,808;19,73101
 361,37; 5600,348;  176,735;27434,916;19,89720
 361,97; 5558,062;  189,428;27383,861;19,74166
 362,56; 5505,647;  173,116;27056,561;19,83574
 363,15; 5458,283;  215,273;26861,468;19,67639
 363,74; 5417,516;  191,806;26488,153;19,87238
 364,34; 5356,855;  201,425;26092,628;19,91190
 364,93; 5177,405;  181,423;25766,867;19,52666
 365,52; 5150,909;  158,350;25396,410;19,78186
 366,11; 5093,767;  179,348;25099,599;19,72058
 366,71; 5053,855;  171,271;24664,030;19,93481
 367,30; 4999,051;  181,274;24351,150;19,93298
 367,89; 4941,411;  218,356;24117,806;19,76219
 368,48; 4922,757;  193,114;23831,370;20,00843
 369,07; 4820,929;  180,045;23481,745;19,91650
 369,67; 4806,955;  211,038;23145,589;20,03927
 370,26; 4725,017;  176,584;22904,962;20,01213
 370,85; 4720,975;  189,581;22579,595;20,23846
 371,44; 4665,765;  185,197;22472,583;20,10361
 372,03; 4640,020;  164,425;22167,136;20,34111
 372,63; 4578,051;  157,812;21893,705;20,33613
 373,22; 4560,809;  178,276;21618,236;20,44096
 373,81; 4440,656;  160,581;21348,164;20,20086
 374,40; 4485,422;  189,357;21109,918;20,53513
 374,99; 4476,074;  173,119;20805,236;20,85562
 375,59; 4416,356;  172,818;20548,239;20,82675
 376,18; 4485,019;  201,657;20421,884;21,18355
 376,77; 4449,589;  195,044;20284,216;21,17830
 377,36; 4458,403;  210,812;20218,225;21,23009
 377,95; 4417,635;  197,579;19936,400;21,37947
 378,55; 4407,137;  170,740;19722,664;21,66742
 379,14; 4426,854;  197,196;19652,640;21,74023
 379,73; 4461,492;  190,195;19586,848;22,02080
 380,32; 4487,381;  193,428;19698,446;22,01460
 380,91; 4507,724;  180,730;19479,572;22,42100
 381,50; 4531,614;  201,731;19462,208;22,48066
 382,10; 4496,304;  173,582;19341,830;22,55147
 382,69; 4526,667;  153,196;19281,655;22,86369
 383,28; 4590,273;  205,655;19266,811;23,00290
 383,87; 4575,635;  175,116;19108,719;23,24185
 384,46; 4639,132;  165,112;19057,158;23,68203
 385,05; 4653,295;  219,270;19032,316;23,56889
 385,64; 4707,767;  181,194;19079,829;23,95185
 386,24; 4693,121;  165,265;19008,018;24,02969
 386,83; 4793,836;  200,649;19082,215;24,32630
 387,42; 4839,932;  206,964;19161,969;24,44192
 388,01; 4933,893;  193,645;19331,088;24,76949
 388,60; 5062,110;  194,266;19613,654;25,06693
 389,19; 5186,005;  170,485;19711,863;25,66615
 389,78; 5267,092;  180,564;20001,915;25,66187
 390,37; 5470,738;  238,340;20408,716;25,94100
 390,96; 5537,352;  193,188;20570,771;26,22570
 391,56; 5612,753;  191,407;20731,732;26,39368
 392,15; 5712,400;  188,103;21012,597;26,52788
 392,74; 5821,922;  164,630;21139,528;26,97172
 393,33; 5937,138;  186,714;21382,297;27,13030
 393,92; 6117,022;  192,780;21783,988;27,43822
 394,51; 6192,600;  170,175;21988,050;27,60317
 395,10; 6362,071;  212,461;22189,538;27,98193
 395,69; 6454,730;  206,155;22317,361;28,25976
 396,28; 6552,996;  205,150;22429,043;28,56316
 396,87; 6598,330;  208,293;22506,720;28,65690
 397,46; 6742,674;  212,979;22584,582;29,18742
 398,06; 6838,513;  224,355;22908,699;29,15737
 398,65; 6907,016;  211,721;22862,365;29,55896
 399,24; 7079,930;  227,025;23077,241;29,99055
 399,83; 7095,262;  208,688;23078,877;30,11157
 400,42; 7194,175;  248,124;23183,898;30,28479
 401,01; 7302,815;  221,325;23296,255;30,68911
 401,60; 7385,724;  244,208;23371,456;30,87923
 402,19; 7454,321;  257,022;23296,956;31,23837
 402,78; 7474,728;  257,588;23374,469;31,22022
 403,37; 7494,354;  233,156;23158,178;31,67368
 403,96; 7570,841;  244,024;23048,728;32,12853
 404,55; 7565,177;  262,271;22963,326;32,16990
 405,14; 7565,862;  238,215;22846,319;32,41159
 405,73; 7600,529;  260,611;22788,222;32,58187
 406,32; 7694,901;  259,029;22622,115;33,25065
 406,91; 7632,562;  257,594;22411,638;33,28949
 407,50; 7628,684;  264,260;22245,873;33,50265
 408,09; 7633,285;  226,473;21951,682;34,09317
 408,68; 7644,709;  254,536;21879,207;34,17473
 409,27; 7635,492;  246,476;21712,453;34,42199
 409,86; 7660,991;  256,439;21553,202;34,76844
 410,45; 7698,745;  293,934;21550,876;34,83479
 411,04; 7727,663;  292,352;21485,723;35,08319
 411,63; 7628,808;  286,935;21190,695;35,12226
 412,22; 7636,481;  280,668;20981,662;35,53363
 412,81; 7571,739;  302,989;20780,234;35,49672
 413,40; 7554,467;  310,469;20416,348;36,02925
 413,99; 7469,107;  342,848;20183,307;35,91781
 414,58; 7326,347;  277,159;19746,662;36,20630
 415,17; 7264,167;  279,605;19575,189;36,19773
 415,76; 7297,889;  270,666;19419,040;36,69880
 416,35; 7280,643;  276,443;19110,200;37,18961
 416,94; 7348,612;  310,670;19268,010;37,12516
 417,53; 7471,299;  280,221;19408,256;37,59444
 418,12; 7495,077;  269,533;19521,995;37,53049
 418,71; 7678,697;  298,316;19861,765;37,72536
 419,30; 7741,890;  287,073;20065,109;37,69240
 419,89; 7894,844;  272,460;20163,447;38,32079
 420,48; 8026,906;  294,085;20362,535;38,53223
 421,07; 8079,520;  290,165;20498,503;38,54525
 421,66; 8130,263;  266,558;20466,188;38,92995
 422,25; 8151,641;  271,189;20540,583;38,87858
 422,84; 8200,628;  299,962;20440,598;39,22749
 423,43; 8094,961;  287,647;20178,320;39,25113
 424,02; 8066,729;  302,727;19996,442;39,42375
 424,60; 7916,566;  280,439;19584,206;39,55771
 425,19; 7850,406;  296,044;19327,453;39,69418
 425,78; 7882,252;  293,661;19228,750;40,07687
 426,37; 7805,688;  300,437;19061,951;40,00344
 426,96; 7816,040;  276,206;18925,136;40,43038
 427,55; 7809,397;  275,294;18888,508;40,47718
 428,14; 7749,813;  267,837;18586,022;40,84452
 428,73; 7634,146;  288,366;18469,381;40,40357
 429,32; 7748,677;  285,513;18413,992;41,16818
 429,91; 7755,531;  320,982;18460,799;40,98469
 430,50; 7729,649;  300,065;18279,640;41,32236
 431,08; 7642,822;  307,455;18121,157;41,17823
 431,67; 7683,358;  330,460;18059,181;41,47450
 432,26; 7588,488;  352,773;17866,633;41,31422
 432,85; 7465,797;  372,079;17525,688;41,35408
 433,44; 7376,365;  388,471;17227,983;41,49701
 434,03; 7256,931;  402,711;16826,982;41,73227
 434,62; 7092,529;  359,087;16459,216;41,82229
 435,21; 7029,521;  365,618;16298,030;41,82608
 435,79; 6979,296;  376,323;16109,888;41,96743
 436,38; 6939,863;  368,410;15986,717;42,07532
 436,97; 6899,961;  351,796;15943,277;41,99835
 437,56; 6835,515;  366,118;15775,296;41,98405
 438,15; 6821,088;  330,960;15658,418;42,34315
 438,74; 6850,373;  358,116;15673,578;42,39021
 439,33; 6829,638;  334,421;15641,739;42,43210
 439,91; 6828,810;  308,120;15728,245;42,28688
 440,50; 6911,316;  353,275;15720,771;42,67475
 441,09; 6942,598;  352,437;15858,362;42,50092
 441,68; 6918,440;  330,291;15871,755;42,39079
 442,27; 6926,376;  309,595;15870,416;42,52205
 442,86; 6888,103;  286,691;15851,837;42,41151
 443,44; 6955,699;  306,610;15894,282;42,65607
 444,03; 7032,675;  376,999;16005,300;42,58733
 444,62; 6923,125;  300,075;15815,177;42,68776
 445,21; 6821,698;  324,227;15685,782;42,29696
 445,80; 6849,364;  356,622;15621,797;42,53303
 446,39; 6743,463;  367,697;15356,081;42,53805
 446,97; 6598,590;  300,708;15192,640;42,29056
 447,56; 6528,476;  305,024;14946,971;42,50427
 448,15; 6449,843;  323,939;14810,409;42,28707
 448,74; 6365,315;  331,940;14558,368;42,40963
 449,33; 6274,092;  323,946;14452,718;42,11368
 449,91; 6199,483;  318,033;14243,239;42,23600
 450,50; 6089,814;  307,954;13988,738;42,26264
 451,09; 6063,165;  335,493;13900,297;42,22451
 451,68; 6039,976;  356,497;13844,731;42,13657
 452,26; 5980,183;  340,040;13735,304;42,10550
 452,85; 5967,327;  319,499;13610,323;42,49419
 453,44; 5925,288;  341,974;13683,567;41,84893
 454,03; 5924,940;  314,351;13625,594;42,14925
 454,61; 5883,101;  311,590;13609,495;41,89766
 455,20; 6006,637;  338,979;13743,391;42,28204
 455,79; 5980,081;  348,740;13741,725;42,04694
 456,38; 5996,063;  342,063;13817,793;41,95691
 456,97; 6018,646;  330,061;13863,829;42,03253
 457,55; 6007,841;  329,759;13876,516;41,91470
 458,14; 6002,207;  356,290;13890,729;41,71519
 458,73; 5998,654;  341,529;13835,213;41,92425
 459,31; 5998,255;  366,306;13850,064;41,76839
 459,90; 6037,191;  383,302;13974,214;41,60052
 460,49; 6107,610;  420,299;14008,495;41,85479
 461,08; 6031,506;  340,310;14107,021;41,34027
 461,66; 6098,838;  341,306;14143,370;41,71501
 462,25; 6099,878;  349,006;14205,437;41,50327
 462,84; 6100,549;  376,465;14250,179;41,25849
 463,43; 6038,346;  301,938;14247,046;41,13563
 464,01; 6073,334;  339,172;14309,864;41,04422
 464,60; 6057,216;  396,704;14200,171;41,00790
 465,19; 5947,179;  339,251;13997,782;41,05806
 465,77; 5900,001;  340,871;13977,125;40,76728
 466,36; 5864,280;  371,245;13839,631;40,78466
 466,95; 5704,049;  353,477;13528,774;40,61064
 467,53; 5605,218;  350,645;13289,085;40,61211
 468,12; 5486,965;  372,646;13030,152;40,40542
 468,71; 5424,321;  349,714;12788,109;40,79792
 469,29; 5296,294;  337,032;12597,465;40,44932
 469,88; 5174,809;  341,805;12287,066;40,45960
 470,47; 5233,685;  410,505;12431,822;40,12189
 471,06; 5149,729;  365,120;12397,793;39,76347
 471,64; 5193,092;  375,118;12462,030;39,86109
 472,23; 5158,415;  332,518;12524,681;39,58196
 472,81; 5240,946;  330,972;12651,188;39,85298
 473,40; 5209,811;  343,056;12714,206;39,33955
 473,99; 5368,525;  441,364;12943,375;39,41094
 474,57; 5357,075;  349,979;13036,466;39,46795
 475,16; 5369,022;  370,204;13165,595;39,06733
 475,75; 5426,270;  376,600;13294,845;39,08944
 476,33; 5466,410;  383,837;13411,872;39,01259
 476,92; 5460,513;  386,288;13452,566;38,83451
 477,51; 5460,005;  371,757;13544,460;38,62721
 478,09; 5443,664;  368,526;13511,952;38,61350
 478,68; 5408,201;  375,529;13454,486;38,47916
 479,27; 5452,072;  407,139;13495,077;38,54643
 479,85; 5391,630;  381,605;13495,561;38,20376
 480,44; 5410,640;  364,993;13660,405;37,95028
 481,02; 5868,923;  382,306;14973,490;37,60228
 481,61; 6558,023;  404,380;16859,203;37,39720
 482,20; 6982,824;  382,844;18027,106;37,40581
 482,78; 7338,080;  415,453;18824,862;37,60374
 483,37; 7417,007;  404,160;19388,819;36,93955
 483,95; 7576,083;  414,546;19540,072;37,44492
 484,54; 7587,287;  429,918;19769,660;37,00861
 485,13; 7540,476;  405,860;19637,609;37,09811
 485,71; 7447,400;  383,088;19561,922;36,83390
 486,30; 7362,444;  414,396;19225,799;36,93530
 486,88; 7215,498;  453,937;18897,130;36,66156
 487,47; 6963,322;  439,784;18158,769;36,81665
 488,05; 6647,650;  423,480;17350,736;36,77011
 488,64; 6097,351;  419,870;16087,163;36,23779
 489,23; 5494,660;  438,174;14340,035;36,37273
 489,81; 4696,352;  428,406;12265,536;36,05558
 490,40; 4421,802;  387,177;11679,649;35,72845
 490,98; 4323,185;  377,333;11388,277;35,83573
 491,57; 4252,440;  389,405;11305,362;35,38888
 492,15; 4208,415;  379,719;11271,497;35,15217
 492,74; 4200,430;  391,249;11185,046;35,29046
 493,32; 4136,262;  401,179;11096,090;34,92393
 493,91; 4066,920;  371,029;10997,172;34,78111
 494,50; 4053,596;  396,040;10987,804;34,53208
 495,08; 4000,442;  367,578;10899,848;34,49270
 495,67; 4012,184;  393,490;10870,398;34,53971
 496,25; 3923,203;  329,188;10741,795;34,51599
 496,84; 3887,041;  352,951;10758,565;33,96330
 497,42; 3888,521;  346,344;10738,589;34,08481
 498,01; 3875,755;  371,414;10640,741;34,12435
 498,59; 3807,487;  337,653;10625,516;33,72745
 499,18; 3786,963;  341,722;10495,159;33,93177
 499,76; 3783,565;  361,958;10446,642;33,92876
 500,35; 3671,935;  344,581;10305,032;33,40566
 500,93; 3604,323;  327,267;10285,849;32,90686
 501,52; 3605,586;  332,883;10186,900;33,21187
 502,10; 3588,516;  357,201;10166,328;32,94192
 502,69; 3536,998;  332,974; 9938,653;33,35552
 503,27; 3435,101;  315,963; 9848,314;32,72160
 503,86; 3396,603;  333,818; 9763,892;32,47891
 504,44; 3369,656;  317,822; 9600,262;32,87750
 505,03; 3231,898;  297,206; 9442,846;32,08842
 505,61; 3204,987;  323,205; 9319,101;32,03440
 506,19; 3176,799;  353,052; 9155,045;32,08077
 506,78; 3088,840;  304,906; 8972,804;32,11775
 507,36; 3044,569;  317,744; 8825,028;32,05282
 507,95; 2950,256;  315,679; 8697,312;31,43274
 508,53; 2925,774;  315,444; 8551,911;31,69235
 509,12; 2865,893;  330,293; 8424,091;31,32770
 509,70; 2835,057;  337,141; 8297,561;31,37920
 510,29; 2787,045;  342,760; 8155,917;31,28421
 510,87; 2686,136;  312,906; 7973,279;30,98061
 511,46; 2635,245;  299,523; 7826,672;31,03064
 512,04; 2587,694;  312,219; 7675,583;30,90266
 512,62; 2526,520;  315,985; 7551,241;30,55227
 513,21; 2470,935;  298,068; 7394,888;30,61747
 513,79; 2439,577;  304,542; 7274,481;30,63206
 514,38; 2367,425;  278,384; 7111,677;30,57152
 514,96; 2363,283;  328,691; 7037,290;30,32812
 515,54; 2276,524;  293,309; 6884,424;30,08921
 516,13; 2265,160;  316,540; 6833,644;29,90009
 516,71; 2217,488;  308,699; 6687,051;29,92605
 517,30; 2161,706;  285,396; 6596,440;29,73058
 517,88; 2121,915;  311,780; 6533,254;29,09495
 518,46; 2067,342;  281,167; 6366,725;29,35105
 519,05; 2073,835;  310,247; 6315,772;29,36609
 519,63; 2048,297;  301,630; 6284,195;29,19596
 520,22; 2030,338;  318,330; 6201,767;29,09878
 520,80; 1979,162;  306,715; 6200,647;28,37574
 521,38; 2002,110;  338,325; 6179,452;28,48396
 521,97; 1942,501;  302,334; 6099,770;28,29125
 522,55; 1953,314;  319,257; 6071,093;28,40932
 523,13; 1941,742;  281,260; 6101,751;28,52821
 523,72; 1912,320;  296,397; 6063,462;28,01985
 524,30; 1956,696;  310,955; 6224,858;27,82834
 524,89; 1934,017;  285,719; 6213,573;27,80598
 525,47; 1990,454;  315,803; 6325,757;27,86462
 526,05; 1970,332;  278,958; 6353,561;27,84338
 526,64; 2000,815;  316,421; 6509,940;27,19607
 527,22; 2023,245;  310,033; 6629,372;27,11061
 527,80; 2052,529;  341,652; 6780,615;26,57070
 528,39; 2047,363;  301,808; 6769,289;26,98972
 528,97; 2079,144;  299,345; 6970,083;26,68069
 529,55; 2139,994;  317,491; 7159,382;26,63742
 530,14; 2193,868;  338,810; 7344,514;26,47925
 530,72; 2175,419;  298,422; 7454,499;26,22941
 531,30; 2226,999;  278,888; 7545,394;26,80947
 531,89; 2246,747;  310,657; 7640,840;26,41257
 532,47; 2277,988;  338,274; 7729,848;26,24222
 533,05; 2278,870;  343,267; 7796,815;25,96888
 533,63; 2298,822;  332,891; 7857,868;26,12542
 534,22; 2279,240;  304,506; 7869,622;26,10315
 534,80; 2313,853;  328,588; 7970,261;25,97945
 535,38; 2387,933;  410,504; 8060,182;25,84983
 535,97; 2310,207;  323,198; 8016,588;25,82749
 536,55; 2344,226;  368,974; 8064,957;25,66602
 537,13; 2331,098;  373,810; 8034,684;25,54915
 537,71; 2352,582;  417,348; 8098,650;25,19409
 538,30; 2370,492;  430,431; 8181,139;25,03076
 538,88; 2414,005;  465,362; 8229,021;25,09954
 539,46; 2460,051;  506,050; 8422,968;24,68133
 540,05; 2516,478;  525,283; 8532,797;24,86658
 540,63; 2576,016;  571,745; 8710,352;24,62671
 541,21; 2576,806;  617,364; 8894,721;23,67232
 541,79; 2640,861;  626,210; 9006,166;24,04131
 542,38; 2682,423;  656,437; 9154,071;23,84177
 542,96; 2667,354;  673,291; 9277,109;23,17649
 543,54; 2747,762;  681,055; 9495,579;23,44661
 544,12; 2763,685;  650,903; 9687,525;23,38022
 544,70; 2749,793;  649,214; 9723,665;23,14827
 545,29; 2791,094;  661,052; 9906,533;23,03873
 545,87; 2787,246;  639,902; 9891,628;23,21019
 546,45; 2747,171;  584,052; 9943,577;23,11142
 547,03; 2757,510;  577,285; 9993,574;23,15376
 547,62; 2773,575;  551,441;10139,292;23,17656
 548,20; 2814,464;  553,444;10248,429;23,32154
 548,78; 2802,206;  521,916;10419,246;23,03945
 549,36; 2828,976;  482,684;10605,949;23,17722
 549,94; 2823,223;  446,673;10779,283;23,00048
 550,53; 2856,845;  442,298;10983,233;22,90638
 551,11; 2895,194;  426,534;11153,871;23,01280
 551,69; 2932,042;  445,376;11457,040;22,58211
 552,27; 2964,230;  393,296;11683,084;22,77221
 552,85; 3040,304;  399,918;12082,685;22,60069
 553,44; 3093,910;  399,145;12322,039;22,60160
 554,02; 3189,580;  410,224;12702,216;22,61111
 554,60; 3168,853;  360,611;12983,243;22,24768
 555,18; 3271,800;  398,377;13365,010;22,16013
 555,76; 3328,206;  365,609;13720,647;22,18337
 556,34; 3413,104;  378,230;14113,353;22,09572
 556,93; 3475,448;  370,454;14482,627;22,00224
 557,51; 3524,708;  350,077;14769,016;22,01710
 558,09; 3596,569;  382,300;15199,180;21,69329
 558,67; 3702,751;  375,465;15515,784;21,97633
 559,25; 3755,334;  390,386;15819,991;21,80839
 559,83; 3799,761;  365,467;16095,458;21,83278
 560,41; 3843,632;  368,768;16443,224;21,61731
 561,00; 3929,388;  367,234;16785,108;21,69681
 561,58; 3961,676;  344,767;17004,453;21,71055
 562,16; 4007,612;  347,534;17336,702;21,54360
 562,74; 4073,382;  347,378;17721,201;21,44608
 563,32; 4141,255;  347,775;18125,965;21,33783
 563,90; 4258,377;  361,234;18462,138;21,53010
 564,48; 4285,314;  365,305;18914,710;21,13280
 565,06; 4424,795;  365,772;19433,227;21,28770
 565,65; 4535,704;  363,088;20044,403;21,20090
 566,23; 4718,883;  410,542;20815,016;21,11469
 566,81; 4839,598;  353,232;21434,806;21,28098
 567,39; 5020,969;  363,315;22300,678;21,23160
 567,97; 5129,872;  385,694;22920,733;21,05245
 568,55; 5307,860;  388,621;23740,671;21,06556
 569,13; 5452,410;  364,696;24467,832;21,10810
 569,71; 5589,568;  359,610;25327,132;20,94704
 570,29; 5862,163;  396,608;26245,011;21,14465
 570,87; 5952,502;  396,840;26985,343;20,89498
 571,45; 6083,663;  377,926;27601,029;20,95917
 572,03; 6122,914;  343,239;27961,222;20,92721
 572,61; 6266,036;  334,236;28658,824;20,94223
 573,20; 6387,258;  385,616;29390,848;20,69158
 573,78; 6537,728;  367,006;29875,934;20,91137
 574,36; 6609,783;  373,312;30441,759;20,74092
 574,94; 6700,704;  435,086;30797,227;20,63629
 575,52; 6714,075;  378,016;31008,304;20,68560
 576,10; 6844,900;  432,859;31624,738;20,55676
 576,68; 6921,034;  417,700;32064,698;20,54961
 577,26; 7063,447;  439,173;32824,747;20,45440
 577,84; 7135,388;  435,082;33311,515;20,38027
 578,42; 7237,703;  473,857;33478,651;20,49353
 579,00; 7161,200;  436,775;33635,442;20,25511
 579,58; 7218,451;  469,932;33937,228;20,16452
 580,16; 7194,077;  456,089;33933,363;20,12705
 580,74; 7201,999;  449,474;34083,319;20,07658
 581,32; 7174,000;  440,779;34167,862;19,96384
 581,90; 7193,791;  464,781;34101,747;20,00481
 582,48; 7164,703;  455,012;34282,332;19,83512
 583,06; 7188,759;  455,856;34362,937;19,85692
 583,64; 7172,990;  454,471;34531,442;19,71572
 584,22; 7113,305;  456,171;34396,463;19,61425
 584,80; 7027,154;  481,857;34079,390;19,48148
 585,38; 6922,159;  479,538;33694,321;19,39685
 585,96; 6875,574;  448,161;33857,462;19,23839
 586,54; 6888,569;  469,478;33797,750;19,26020
 587,12; 6836,164;  449,398;34103,124;18,97789
 587,70; 6875,650;  476,238;34127,726;19,01673
 588,28; 6853,274;  458,244;34244,785;18,92774
 588,86; 6833,295;  462,169;34299,191;18,82886
 589,44; 6784,061;  442,022;34369,330;18,69302
 590,02; 6838,447;  447,020;34636,214;18,69429
 590,59; 6804,130;  429,477;34723,288;18,58835
 591,17; 6844,904;  426,029;35011,854;18,55927
 591,75; 6790,862;  422,101;35141,481;18,34353
 592,33; 6883,896;  444,407;35301,180;18,47414
 592,91; 6823,465;  385,181;35532,062;18,31822
 593,49; 6891,760;  390,569;35894,385;18,31125
 594,07; 6917,321;  415,030;36051,230;18,24631
 594,65; 6873,448;  419,478;36152,307;18,06174
 595,23; 6938,985;  409,558;36498,582;18,09256
 595,81; 6962,028;  407,252;36607,944;18,10677
 596,39; 6914,006;  398,945;36722,423;17,93623
 596,97; 6935,982;  397,027;36945,738;17,89107
 597,55; 6879,645;  380,480;36785,822;17,85223
 598,12; 6857,265;  392,801;36843,285;17,73492
 598,70; 6857,135;  377,413;36958,283;17,71342
 599,28; 6873,168;  393,182;37213,576;17,59890
 599,86; 6865,102;  380,797;37142,896;17,63856
 600,44; 6840,112;  347,645;37263,443;17,58723
 601,02; 6862,999;  410,961;37241,988;17,51794
 601,60; 6806,994;  387,409;37168,790;17,45335
 602,18; 6795,595;  361,493;37299,344;17,41872
 602,75; 6791,105;  359,559;37367,219;17,37896
 603,33; 6811,728;  377,951;37360,591;17,39675
 603,91; 6767,561;  361,573;37324,497;17,33085
 604,49; 6782,519;  386,490;37421,470;17,27024
 605,07; 6728,664;  387,870;37436,834;17,11463
 605,65; 6721,651;  397,030;37586,878;17,00631
 606,23; 6756,504;  457,246;37731,038;16,89997
 606,80; 6752,237;  498,175;37784,818;16,77293
 607,38; 6768,319;  531,418;37725,308;16,76862
 607,96; 6761,567;  575,328;37784,125;16,62574
 608,54; 6781,552;  649,646;37914,093;16,45511
 609,12; 6787,655;  630,406;37903,880;16,51912
 609,70; 6748,553;  660,566;38026,295;16,29297
 610,27; 6759,370;  682,020;38081,214;16,24995
 610,85; 6729,366;  702,489;38111,217;16,11089
 611,43; 6706,047;  688,720;38030,852;16,11404
 612,01; 6620,753;  662,254;37782,215;16,05201
 612,59; 6624,157;  667,258;37907,018;15,99607
 613,16; 6544,250;  620,863;37815,017;15,92558
 613,74; 6471,915;  589,336;37665,576;15,86617
 614,32; 6435,486;  559,569;37691,925;15,82425
 614,90; 6364,334;  529,102;37567,978;15,75434
 615,48; 6285,348;  482,018;37205,946;15,80259
 616,05; 6276,470;  448,093;37231,614;15,84508
 616,63; 6202,515;  445,630;37017,359;15,74135
 617,21; 6152,666;  452,174;36928,245;15,62803
 617,79; 6147,742;  431,945;36883,378;15,68058
 618,36; 6094,258;  443,332;36837,895;15,52684
 618,94; 5983,996;  381,250;36430,579;15,54189
 619,52; 5975,130;  405,554;36255,639;15,53574
 620,10; 5947,171;  391,944;36205,497;15,51152
 620,67; 5897,548;  395,630;36085,806;15,41578
 621,25; 5852,521;  413,794;35996,666;15,28468
 621,83; 5829,084;  393,481;35913,241;15,30304
 622,41; 5828,744;  443,096;35948,624;15,16848
 622,98; 5758,076;  398,553;35616,127;15,21832
 623,56; 5716,131;  406,860;35652,446;15,06365
 624,14; 5649,312;  388,334;35464,029;14,99893
 624,72; 5648,810;  383,634;35382,209;15,04397
 625,29; 5597,164;  375,091;35419,278;14,90140
 625,87; 5612,457;  404,484;35448,009;14,86144
 626,45; 5543,494;  358,474;35305,518;14,83679
 627,02; 5491,676;  376,638;35172,688;14,70005
 627,60; 5468,673;  365,953;35208,750;14,64498
 628,18; 5434,193;  336,406;35183,034;14,62921
 628,76; 5436,075;  343,630;35152,622;14,62968
 629,33; 5430,283;  377,787;35141,849;14,53368
 629,91; 5392,171;  360,329;35171,958;14,45449
 630,49; 5397,185;  375,401;35215,998;14,41360
 631,06; 5425,086;  374,785;35425,240;14,40866
 631,64; 5373,263;  362,321;35408,705;14,29803
 632,22; 5325,935;  332,395;35337,755;14,26507
 632,79; 5379,814;  357,395;35576,586;14,26046
 633,37; 5351,126;  343,793;35634,186;14,18894
 633,95; 5307,417;  348,089;35788,117;13,99358
 634,52; 5295,293;  335,557;35793,285;13,98774
 635,10; 5330,051;  331,174;35839,663;14,07798
 635,68; 5325,945;  337,703;36062,263;13,96306
 636,25; 5311,925;  323,237;35952,922;14,00149
 636,83; 5297,075;  314,784;36204,083;13,88239
 637,41; 5269,001;  339,240;36289,950;13,71256
 637,98; 5330,177;  345,009;36452,163;13,80659
 638,56; 5306,530;  340,005;36522,485;13,72633
 639,13; 5267,977;  318,860;36600,787;13,64072
 639,71; 5282,602;  363,554;36768,087;13,51219
 640,29; 5183,379;  288,554;36497,658;13,51822
 640,86; 5246,982;  312,093;36735,158;13,54880
 641,44; 5180,969;  313,478;36666,581;13,38948
 642,02; 5188,340;  344,939;36703,158;13,32134
 642,59; 5168,327;  316,555;36858,197;13,27738
 643,17; 5094,698;  318,863;36784,774;13,09671
 643,74; 5096,839;  307,786;36875,121;13,09653
 644,32; 5082,442;  335,248;36776,006;13,02715
 644,89; 5074,890;  329,633;36777,275;13,01938
 645,47; 5057,877;  340,479;36918,852;12,89669
 646,05; 5040,172;  337,787;36779,199;12,90396
 646,62; 4977,158;  322,326;36798,930;12,76115
 647,20; 4954,684;  333,403;36934,507;12,62607
 647,77; 4935,363;  306,018;36822,392;12,67745
 648,35; 4890,427;  310,711;36681,738;12,59166
 648,92; 4903,721;  327,557;36769,469;12,55742
 649,50; 4865,401;  287,327;36593,124;12,60976
 650,08; 4845,234;  298,173;36527,470;12,55078
 650,65; 4829,759;  301,481;36760,893;12,42005
 651,23; 4876,977;  294,789;37478,009;12,32327
 651,80; 5018,810;  282,097;38426,279;12,41792
 652,38; 5104,335;  297,943;38764,010;12,49515
 652,95; 5069,245;  282,251;39119,125;12,32590
 653,53; 5126,694;  318,021;39376,395;12,31150
 654,10; 5148,373;  339,328;39472,357;12,28897
 654,68; 5080,668;  289,021;39460,626;12,23245
 655,25; 5090,347;  285,867;39602,434;12,21999
 655,83; 5083,257;  284,637;39603,857;12,20426
 656,40; 5083,782;  318,252;39534,204;12,15202
 656,98; 5015,308;  288,714;39457,089;12,06737
 657,55; 5024,679;  299,253;39281,589;12,12197
 658,13; 4970,358;  294,407;39005,397;12,07913
 658,70; 4879,422;  310,869;38751,436;11,88472
 659,28; 4768,024;  314,253;37982,782;11,82359
 659,85; 4619,396;  305,254;37119,206;11,71877
 660,43; 4620,460;  321,177;37207,629;11,65545
 661,00; 4636,293;  304,100;37314,591;11,70531
 661,58; 4619,972;  300,639;37590,860;11,58302
 662,15; 4647,497;  281,024;37801,361;11,63762
 662,73; 4694,023;  346,409;38066,938;11,52586
 663,30; 4663,010;  300,409;38285,515;11,48503
 663,88; 4683,074;  315,178;38452,169;11,45317
 664,45; 4672,830;  290,717;38705,285;11,40742
 665,03; 4694,663;  296,333;38921,093;11,38733
 665,60; 4803,804;  372,563;39514,747;11,32088
 666,17; 4723,790;  304,718;39569,709;11,25449
 666,75; 4790,470;  301,564;39834,209;11,35493
 667,32; 4789,303;  321,718;40222,863;11,19663
 667,90; 4836,059;  297,872;40553,979;11,27329
 668,47; 4843,507;  316,257;40718,941;11,20532
 669,05; 4842,417;  299,719;41088,210;11,13721
 669,62; 4826,481;  274,565;41105,710;11,14815
 670,19; 4804,391;  287,411;41229,826;11,03252
 670,77; 4834,686;  293,719;41441,249;11,03582
 671,34; 4808,903;  301,258;41367,134;10,97662
 671,92; 4797,737;  281,643;41697,327;10,90431
 672,49; 4822,877;  309,643;41711,443;10,90106
 673,06; 4769,403;  256,643;41810,404;10,86005
 673,64; 4803,928;  287,720;41795,982;10,88026
 674,21; 4752,761;  279,721;41652,251;10,81162
 674,79; 4794,825;  305,567;41889,982;10,79553
 675,36; 4786,350;  307,106;42048,405;10,73097
 675,93; 4748,491;  269,798;41923,290;10,75226
 676,51; 4778,017;  296,337;42038,791;10,73650
 677,08; 4761,003;  300,029;42205,676;10,64528
 677,65; 4765,760;  300,876;42223,945;10,65018
 678,23; 4788,285;  299,722;42528,138;10,62925
 678,80; 4779,656;  287,261;42656,253;10,60303
 679,38; 4766,566;  284,030;42765,984;10,55162
 679,95; 4775,092;  303,184;42939,100;10,48859
 680,52; 4786,079;  285,338;43307,216;10,46152
 681,10; 4801,220;  299,338;43558,870;10,40668
 681,67; 4821,514;  298,493;43842,832;10,38716
 682,24; 4802,116;  268,570;43972,563;10,37330
 682,82; 4855,565;  280,108;44494,448;10,34835
 683,39; 4923,013;  326,186;44959,179;10,29917
 683,96; 4922,308;  289,032;45091,371;10,34159
 684,54; 4915,449;  276,109;45456,641;10,26845
 685,11; 4960,666;  309,340;45702,833;10,24668
 685,68; 5013,499;  286,186;46266,487;10,28117
 686,25; 4969,871;  269,033;46346,142;10,20211
 686,83; 4968,396;  281,187;46473,950;10,14706
 687,40; 5006,306;  273,418;46719,296;10,19012
 687,97; 5074,601;  297,110;47163,489;10,19386
 688,55; 5034,434;  260,264;47251,297;10,15975
 689,12; 5007,806;  244,188;47453,335;10,09046
 689,69; 5028,562;  250,342;47563,451;10,09915
 690,26; 5070,318;  267,880;47710,336;10,12266
 690,84; 5089,689;  276,958;47853,298;10,11581
 691,41; 5105,522;  288,496;48013,567;10,09328
 691,98; 5110,971;  295,189;48194,683;10,05393
 692,56; 5100,881;  278,881;48329,260;10,03530
 693,13; 5118,099;  328,728;48309,991; 9,98175
 693,70; 5149,009;  300,574;48497,568;10,05962
 694,27; 5116,226;  272,728;48602,222;10,02183
 694,84; 5138,982;  274,344;48711,184;10,04326
 695,42; 5157,815;  331,728;48858,454; 9,94521
 695,99; 5123,341;  292,190;49050,723; 9,90832
 696,56; 5124,559;  285,575;48886,531; 9,95656
 697,13; 5167,699;  302,960;49344,339; 9,91966
 697,71; 5162,148;  269,806;49297,147; 9,97880
 698,28; 5167,442;  279,345;49636,724; 9,90348
 698,85; 5150,583;  255,422;49652,917; 9,90974
 699,42; 5193,955;  259,884;49787,879; 9,96219
 699,99; 5235,249;  299,115;49910,456; 9,94961
 700,57; 5212,621;  294,269;50012,802; 9,89239
 701,14; 5224,454;  271,423;50102,610; 9,93962
 701,71; 5238,133;  310,808;50372,803; 9,84245
 702,28; 5245,428;  286,193;50343,765; 9,90706
 702,85; 5232,953;  287,193;50442,034; 9,86098
 703,43; 5292,709;  305,116;50729,842; 9,89117
 704,00; 5246,158;  323,270;50879,650; 9,73742
 704,57; 5292,529;  295,193;50869,381; 9,88120
 705,14; 5342,824;  320,578;51078,189; 9,89457
 705,71; 5328,580;  325,348;51209,536; 9,83259
 706,28; 5301,336;  297,425;51085,036; 9,85262
 706,86; 5320,400;  334,810;51220,152; 9,79769
 707,43; 5365,848;  349,502;51187,113; 9,86739
 708,00; 5333,681;  322,272;51296,614; 9,83124
 708,57; 5299,745;  303,964;51216,191; 9,81254
 709,14; 5328,886;  323,118;51342,845; 9,81144
 709,71; 5352,335;  303,426;51511,961; 9,85951
 710,28; 5362,398;  294,888;51644,769; 9,86859
 710,86; 5387,616;  311,196;51785,884; 9,86197
 711,43; 5399,372;  324,196;51754,539; 9,86806
 712,00; 5384,821;  315,504;51848,654; 9,83700
 712,57; 5401,961;  311,350;52033,308; 9,84226
 713,14; 5466,410;  300,735;52068,655; 9,97852
 713,71; 5446,781;  311,428;52110,540; 9,91398
 714,28; 5421,230;  294,043;52009,194; 9,91428
 714,85; 5398,601;  282,428;51853,925; 9,92054
 715,42; 5460,050;  290,121;52085,887; 9,98137
 716,00; 5502,960;  358,659;52233,310; 9,91679
 716,57; 5497,024;  290,044;52298,579;10,01178
 717,14; 5457,472;  278,967;52131,541; 9,98698
 717,71; 5483,613;  261,045;52118,965;10,07092
 718,28; 5483,215;  308,429;52350,926; 9,94338
 718,85; 5469,510;  262,891;52374,504; 9,99128
 719,42; 5507,727;  289,661;52479,081; 9,99832
 719,99; 5521,484;  269,122;52273,735;10,09980
 720,56; 5551,855;  299,353;52573,851;10,04792
 721,13; 5551,534;  271,661;52641,043;10,08198
 721,70; 5570,521;  261,969;52528,851;10,15663
 722,27; 5570,354;  285,969;52482,890;10,12394
 722,84; 5631,187;  332,354;52699,775;10,11857
 723,41; 5589,482;  267,662;52779,891;10,13444
 723,98; 5653,392;  282,970;52943,391;10,19821
 724,55; 5648,994;  312,509;52994,814;10,12956
 725,12; 5606,674;  239,124;52916,776;10,18942
 725,69; 5675,891;  274,586;53109,584;10,22297
 726,27; 5676,724;  278,586;53314,700;10,17823
 726,84; 5730,250;  291,817;53571,892;10,20725
 727,41; 5805,698;  292,048;53460,008;10,37025
 727,98; 5806,993;  301,202;53736,508;10,30366
 728,55; 5835,210;  322,202;53596,470;10,34835
 729,12; 5836,890;  271,664;53726,816;10,41102
 729,69; 5898,877;  304,741;53872,086;10,44318
 730,26; 5879,094;  303,665;54140,048;10,35625
 730,82; 5907,466;  291,203;54027,163;10,45159
 731,39; 5943,683;  297,204;54132,971;10,48834
 731,96; 5948,901;  271,434;54460,395;10,47716
 732,53; 5972,657;  293,204;54703,357;10,43822
 733,10; 6074,490;  303,281;54686,011;10,61221
 733,67; 6097,093;  296,358;54987,973;10,60626
 734,24; 6060,849;  282,743;54595,704;10,63854
 734,81; 6085,451;  323,897;54758,819;10,58430
 735,38; 6070,823;  284,436;54541,550;10,66475
 735,95; 6079,425;  291,282;54325,974;10,71190
 736,52; 6103,258;  307,975;54542,320;10,68563
 737,09; 6081,014;  300,052;54205,128;10,72434
 737,66; 6156,155;  338,283;54294,628;10,78255
 738,23; 6163,834;  283,206;54435,282;10,85947
 738,80; 6300,206;  347,206;54783,244;10,93577
 739,37; 6282,116;  307,360;54988,283;10,92658
 739,94; 6317,487;  291,361;54960,783;11,02285
 740,51; 6380,474;  398,822;54989,976;10,95718
 741,07; 6347,230;  287,669;55001,784;11,07495
 741,64; 6390,756;  305,361;55283,207;11,06881
 742,21; 6382,435;  287,438;55298,861;11,07951
 742,78; 6404,191;  265,515;55003,439;11,21467
 743,35; 6464,178;  296,054;55360,631;11,20162
 743,92; 6540,780;  321,439;55485,901;11,27418
 744,49; 6526,306;  315,978;55347,324;11,28507
 745,06; 6551,446;  283,747;55364,517;11,37911
 745,63; 6532,818;  276,132;55307,940;11,36922
 746,19; 6578,112;  284,978;55291,671;11,44067
 746,76; 6618,484;  295,440;55333,787;11,48843
 747,33; 6638,548;  284,671;55331,287;11,54272
 747,90; 6711,381;  304,287;55570,172;11,59322
 748,47; 6714,445;  292,595;55467,287;11,63912
 749,04; 6734,509;  314,133;55417,095;11,65160
 749,61; 6768,034;  324,903;55368,827;11,70544
 750,17; 6810,636;  311,672;55477,865;11,78070
 750,74; 6826,392;  301,749;55411,981;11,83926
 751,31; 6795,533;  267,826;55307,404;11,86002
 751,88; 6838,520;  266,980;55142,289;11,97540
 752,45; 6909,353;  287,750;55391,174;12,01668
 753,02; 6874,648;  298,442;55082,674;12,00383
 753,58; 6915,865;  276,981;55049,098;12,12092
 754,15; 6939,775;  283,751;55229,829;12,11374
 754,72; 6962,070;  282,828;54954,406;12,21703
 755,29; 6953,288;  267,597;54789,445;12,26241
 755,86; 6967,659;  284,597;54987,330;12,21705
 756,42; 7026,800;  286,828;54919,830;12,33681
 756,99; 7003,402;  251,136;54833,253;12,37084
 757,56; 7053,851;  270,060;54787,677;12,44330
 758,13; 7020,838;  211,367;54778,869;12,47898
 758,70; 7109,748;  238,598;54822,677;12,58819
 759,26; 7174,581;  228,060;54837,562;12,72035
 759,83; 7188,260;  239,060;54939,293;12,70415
 760,40; 7163,093;  226,753;54823,793;12,70461
 760,97; 7156,618;  217,830;54841,678;12,70286
 761,53; 7174,990;  200,446;54453,948;12,85547
 762,10; 7210,054;  212,984;54440,756;12,90311
 762,67; 7266,118;  244,523;54427,102;12,95914
 763,24; 7182,951;  202,292;54032,295;12,96797
 763,80; 7273,861;  238,677;54121,334;13,05649
 764,37; 7289,694;  240,139;54150,218;13,07651
 764,94; 7220,988;  216,524;53655,411;13,10743
 765,50; 7287,821;  229,447;53698,681;13,20081
 766,07; 7350,731;  273,909;53765,258;13,22985
 766,64; 7337,565;  237,909;53484,912;13,33344
 767,21; 7365,705;  249,525;53336,874;13,40466
 767,77; 7389,000;  272,371;53316,989;13,41631
 768,34; 7367,064;  278,294;53213,182;13,39149
 768,91; 7399,974;  270,371;53061,836;13,50522
 769,47; 7441,884;  263,449;53144,952;13,57457
 770,04; 7404,332;  273,680;52968,529;13,53197
 770,61; 7431,473;  255,988;52776,106;13,66236
 771,18; 7441,229;  248,142;52584,299;13,74401
 771,74; 7515,524;  271,449;52771,953;13,79810
 772,31; 7559,203;  262,527;52573,530;13,94865
 772,88; 7499,190;  234,988;52332,800;13,94339
 773,44; 7523,023;  253,066;52111,300;14,01891
 774,01; 7570,702;  270,373;52206,262;14,05642
 774,58; 7571,766;  249,527;51799,300;14,20421
 775,14; 7636,830;  247,220;51982,955;14,28338
 775,71; 7624,740;  249,605;51886,147;14,28278
 776,27; 7684,496;  309,605;51837,878;14,31232
 776,84; 7788,329;  331,990;51829,917;14,47891
 777,41; 7741,008;  277,836;51661,109;14,52452
 777,97; 7721,303;  251,606;51326,225;14,62507
 778,54; 7781,521;  273,991;51381,572;14,68966
 779,11; 7788,200;  286,837;51416,610;14,67122
 779,67; 7807,264;  251,376;51394,803;14,77392
 780,24; 7800,789;  269,453;51262,457;14,76935
 780,80; 7864,699;  285,068;51128,957;14,90765
 781,37; 7866,917;  275,684;51131,765;14,92689
 781,94; 7922,673;  254,684;50875,035;15,14804
 782,50; 7946,814;  269,607;50789,920;15,19628
 783,07; 7983,877;  292,454;50872,805;15,20635
 783,63; 7979,018;  257,685;50595,997;15,33888
 784,20; 8033,082;  279,685;50630,651;15,39871
 784,77; 8050,607;  267,685;50313,844;15,55149
 785,33; 8014,440;  241,993;50191,806;15,56051
 785,90; 8055,889;  267,686;50231,998;15,58753
 786,46; 8081,799;  278,840;50231,191;15,62080
 787,03; 8052,940;  248,763;49988,460;15,69004
 787,59; 8095,773;  260,840;49854,807;15,79816
 788,16; 8158,990;  281,610;49774,076;15,91632
 788,73; 8148,977;  269,533;49591,192;15,97563
 789,29; 8078,733;  263,302;49230,615;15,96051
 789,86; 8151,874;  282,918;49188,731;16,09002
 790,42; 8128,630;  270,380;49006,693;16,12402
 790,99; 8124,002;  279,611;48804,424;16,16573
 791,55; 8200,527;  258,611;48747,001;16,37901
 792,12; 8209,514;  286,457;48744,194;16,35045
 792,68; 8185,963;  266,611;48385,386;16,45792
 793,25; 8193,873;  275,227;48188,348;16,52709
 793,81; 8257,706;  330,227;47839,233;16,68627
 794,38; 8157,077;  239,458;47655,426;16,69821
 794,94; 8218,141;  249,997;47471,003;16,87415
 795,51; 8219,513;  282,074;47346,272;16,86513
 796,07; 8179,115;  257,536;47077,696;16,91916
 796,64; 8261,410;  295,997;47173,273;16,99205
 797,20; 8195,781;  280,075;46664,312;17,06551
 797,77; 8130,537;  235,921;46331,043;17,12679
 798,33; 8179,832;  269,767;46193,928;17,22419
 798,90; 8183,511;  287,537;46098,505;17,23599
 799,46; 8116,883;  270,229;45575,928;17,31935
 800,03; 8108,639;  273,383;45513,275;17,31935
 800,59; 8155,703;  285,768;45370,390;17,45592
 801,15; 8128,305;  288,230;45134,198;17,48223
 801,72; 8089,907;  270,845;44878,006;17,52871
 802,28; 8089,279;  294,615;44557,122;17,61008
 802,85; 8114,112;  274,307;44399,930;17,76701
 803,41; 8090,099;  263,000;44169,892;17,82658
 803,98; 8057,239;  261,616;43746,777;17,92709
 804,54; 8055,996;  270,154;43444,738;18,03339
 805,11; 8054,213;  287,539;43330,623;18,04395
 805,67; 8032,123;  308,078;43278,200;17,97539
 806,23; 8027,187;  266,001;42761,085;18,26373
 806,80; 8023,866;  288,617;42695,124;18,24071
 807,36; 8087,546;  287,463;42689,394;18,39558
 807,93; 8069,763;  300,848;42473,740;18,42159
 808,49; 7986,058;  249,386;42084,317;18,49333
 809,05; 8024,891;  251,156;41995,356;18,62231
 809,62; 8033,801;  289,002;41842,933;18,63794
 810,18; 8054,403;  281,541;41730,818;18,75271
 810,74; 8010,236;  245,849;41519,780;18,81184
 811,31; 8038,685;  250,618;41268,511;18,98700
 811,87; 8042,287;  259,157;41163,627;19,02758
 812,44; 8111,735;  294,926;41136,204;19,13948
 813,00; 8079,953;  220,004;40883,166;19,32941
 813,56; 8106,940;  274,696;40935,204;19,26253
 814,13; 8139,004;  259,850;40745,474;19,46161
 814,69; 8152,452;  253,235;40594,666;19,58090
 815,25; 8083,670;  236,928;40200,705;19,63464
 815,82; 8137,503;  280,697;40209,436;19,67707
 816,38; 8213,028;  300,005;40000,552;19,93177
 816,94; 8089,785;  251,928;39694,129;19,87175
 817,51; 8143,925;  238,928;39506,322;20,13120
 818,07; 8061,220;  245,775;39250,976;20,03693
 818,63; 8060,207;  273,006;39023,861;20,09556
 819,20; 8087,655;  259,006;38979,823;20,21819
 819,76; 7998,412;  242,391;38565,092;20,23871
 820,32; 8051,168;  295,853;38508,823;20,29498
 820,89; 8032,539;  276,237;38269,323;20,41504
 821,45; 7981,911;  245,930;37985,747;20,49819
 822,01; 7956,359;  270,084;37748,939;20,50830
 822,57; 7982,115;  262,853;37571,747;20,69014
 823,14; 7973,179;  237,854;37367,786;20,83313
 823,70; 7983,551;  235,854;37118,902;21,00612
 824,26; 7953,999;  249,085;36961,325;20,98732
 824,82; 7988,294;  268,854;36806,748;21,12722
 825,39; 7930,435;  246,854;36566,787;21,15527
 825,95; 7981,114;  264,239;36537,211;21,27445
 826,51; 7985,639;  262,547;36125,634;21,53493
 827,08; 7973,241;  306,240;36207,211;21,35597
 827,64; 8004,459;  270,317;36035,481;21,62479
 828,20; 7930,600;  246,471;35772,519;21,62956
 828,76; 7999,818;  269,625;35703,635;21,81574
 829,32; 7957,266;  276,317;35643,289;21,71786
 829,89; 7958,253;  231,241;35524,712;21,89360
 830,45; 7995,932;  258,010;35444,982;21,99087
 831,01; 7995,150;  252,703;35229,790;22,13577
 831,57; 7973,291;  254,011;35069,983;22,17166
 832,14; 8009,893;  246,703;35026,252;22,32113
 832,70; 8048,341;  243,088;34855,522;22,55043
 833,26; 8029,559;  214,704;34669,560;22,68143
 833,82; 8058,238;  252,242;34709,291;22,65428
 834,38; 8062,302;  247,089;34666,407;22,70589
 834,95; 8099,366;  241,473;34489,753;22,94390
 835,51; 8051,276;  209,243;34402,561;22,93440
 836,07; 8149,417;  253,705;34454,908;23,08607
 836,63; 8181,404;  264,013;34434,485;23,17027
 837,19; 8194,698;  247,859;34274,139;23,35500
 837,75; 8140,993;  219,551;33980,563;23,46328
 838,32; 8229,595;  260,167;34076,371;23,56689
 838,88; 8272,505;  262,090;34127,948;23,65336
 839,44; 8348,492;  255,783;34055,756;23,94295
 840,00; 8287,710;  252,014;33936,179;23,85600
 840,56; 8301,389;  239,860;33756,295;24,05247
 841,12; 8313,530;  235,476;33652,410;24,17353
 841,68; 8335,670;  226,091;33490,526;24,37913
 842,25; 8382,119;  231,322;33469,488;24,52240
 842,81; 8358,029;  231,246;33316,142;24,56342
 843,37; 8390,477;  214,938;33260,950;24,73987
 843,93; 8436,003;  237,938;33145,219;24,91262
 844,49; 8514,067;  247,400;33174,566;25,10592
 845,05; 8472,130;  210,170;33065,912;25,14617
 845,61; 8598,963;  248,170;33106,643;25,41443
 846,17; 8545,104;  235,785;32907,298;25,43292
 846,73; 8576,014;  241,940;32803,721;25,59465
 847,29; 8539,617;  217,324;32683,913;25,63340
 847,86; 8612,142;  235,248;32657,260;25,83706
 848,42; 8556,283;  221,017;32423,376;25,88402
 848,98; 8557,731;  249,402;32411,414;25,83274
 849,54; 8584,410;  232,864;32420,376;25,94654
 850,10; 8600,320;  239,172;32242,261;26,12607
 850,66; 8615,615;  223,326;32169,223;26,27032
 851,22; 8592,217;  216,018;32044,492;26,31668
 851,78; 8629,973;  262,172;32190,300;26,20824
 852,34; 8580,345;  247,480;31902,878;26,32368
 852,90; 8605,486;  239,711;31744,301;26,55415
 853,46; 8577,703;  221,327;31626,878;26,60796
 854,02; 8615,460;  241,096;31540,686;26,75551
 854,58; 8595,523;  237,558;31283,648;26,92115
 855,14; 8653,972;  227,712;31230,148;27,17935
 855,70; 8595,266;  199,404;31072,802;27,19449
 856,26; 8676,099;  247,482;30999,610;27,40824
 856,82; 8670,009;  223,174;30911,803;27,52432
 857,38; 8694,458;  260,405;30765,842;27,64770
 857,94; 8666,906;  225,559;30693,342;27,70581
 858,50; 8714,432;  250,790;30567,073;27,91781
 859,06; 8723,496;  231,560;30390,266;28,15749
 859,62; 8732,790;  239,868;30330,612;28,22437
 860,18; 8716,931;  229,406;30161,112;28,35630
 860,74; 8721,302;  209,945;29971,689;28,59832
 861,30; 8637,212;  208,791;29742,882;28,53794
 861,86; 8769,122;  270,638;29919,075;28,66419
 862,42; 8738,494;  237,946;29764,806;28,78921
 862,98; 8751,942;  266,176;29637,075;28,89175
 863,54; 8661,776;  236,946;29389,960;28,89866
 864,10; 8759,378;  220,638;29537,691;29,12550
 864,66; 8696,211;  213,639;29320,191;29,14317
 865,22; 8723,121;  229,485;29208,769;29,30934
 865,78; 8768,877;  242,639;29062,269;29,58483
 866,34; 8739,710;  221,255;28983,154;29,61715
 866,90; 8725,774;  246,716;28842,346;29,65158
 867,45; 8713,915;  234,024;28601,462;29,89304
 868,01; 8695,055;  240,717;28463,808;29,95540
 868,57; 8660,196;  228,640;28331,924;30,00203
 869,13; 8663,875;  212,025;28131,732;30,27199
 869,69; 8632,632;  229,871;28104,463;30,14487
 870,25; 8650,465;  212,025;28013,425;30,35257
 870,81; 8652,298;  233,103;27915,694;30,41332
 871,37; 8682,977;  241,103;27851,426;30,57507
 871,93; 8640,810;  241,334;27679,310;30,61259
 872,49; 8624,258;  262,719;27451,272;30,75390
 873,04; 8486,861;  217,411;27275,849;30,56144
 873,60; 8565,848;  217,181;27180,965;30,96252
 874,16; 8548,604;  238,719;27138,312;30,89223
 874,72; 8510,065;  230,104;27081,927;30,83575
 875,28; 8537,758;  240,258;26971,773;31,04014
 875,84; 8544,912;  230,258;26915,388;31,15838
 876,40; 8577,758;  222,027;26777,388;31,46532
 876,95; 8608,988;  237,104;26837,004;31,47337
 877,51; 8672,373;  264,181;26826,235;31,65490
 878,07; 8681,142;  270,719;26808,004;31,69285
 878,63; 8687,912;  226,335;26831,004;31,80486
 879,19; 8768,450;  242,873;26770,696;32,13825
 879,75; 8748,219;  233,488;26885,388;31,94793
 880,30; 8845,912;  235,258;26834,388;32,37194
 880,86; 8936,065;  274,335;27011,312;32,39607
 881,42; 8962,065;  217,181;26987,696;32,66610
 881,98; 9032,758;  251,104;27128,850;32,67258
 882,54; 9098,988;  229,796;27205,542;32,87839
 883,09; 9197,912;  240,104;27280,927;33,12698
 883,65; 9231,681;  221,027;27450,235;33,09187
 884,21; 9330,296;  258,642;27607,927;33,16962
 884,77; 9393,912;  217,412;27540,696;33,58491
 885,32; 9448,450;  232,104;27752,158;33,48956
 885,88; 9606,219;  269,642;27948,927;33,73128
 886,44; 9612,912;  234,258;28056,773;33,70886
 887,00; 9630,912;  260,796;28002,388;33,77642
 887,56; 9715,219;  226,873;28174,927;33,94994
 888,11; 9755,373;  234,565;28173,465;34,07725
 888,67; 9909,065;  261,258;28362,927;34,33180
 889,23; 9931,681;  247,104;28360,696;34,44802
 889,79; 9918,219;  219,873;28214,927;34,64307
 890,34; 9921,527;  241,565;28168,235;34,66207
 890,90;10045,065;  303,642;28337,619;34,74863
 891,46; 9996,373;  222,335;28240,235;34,88498
 892,01;10104,296;  253,950;28197,927;35,25034
 892,57;10104,758;  271,027;28211,465;35,19533
 893,13;10075,912;  224,335;27922,235;35,56796
 893,69;10108,450;  227,642;27872,081;35,74248
 894,24;10131,758;  245,027;27818,542;35,85590
 894,80;10090,912;  248,181;27712,004;35,83890
 895,36;10098,142;  239,642;27574,235;36,06602
 895,91;10024,912;  226,950;27331,773;36,14841
 896,47;10058,988;  252,335;27288,619;36,27219
 897,03;10017,681;  230,488;27012,158;36,54437
 897,58;10069,065;  254,719;27080,619;36,58534
 898,14; 9989,142;  246,796;26719,235;36,80185
 898,70;10000,065;  204,950;26620,312;37,08113
 899,25;10036,758;  242,181;26628,465;37,11995
 899,81;10011,142;  248,104;26450,696;37,25982
 900,37; 9975,065;  208,258;26203,696;37,57124
 900,92;10004,912;  239,642;26209,081;37,60293
 901,48; 9959,065;  225,412;26078,465;37,64992
 902,03; 9930,219;  212,335;25948,773;37,75924
 902,59; 9963,065;  229,950;25837,081;38,00939
 903,15; 9902,450;  256,488;25704,542;37,90452
 903,70; 9915,219;  245,027;25477,081;38,32503
 904,26; 9884,604;  223,873;25315,773;38,50139
 904,82; 9955,065;  242,873;25352,542;38,67909
 905,37; 9903,527;  246,719;25189,619;38,71566
 905,93; 9852,296;  228,719;25007,312;38,83827
 906,48; 9880,988;  243,796;25006,850;38,91762
 907,04; 9936,681;  253,335;24911,388;39,27052
 907,60; 9806,912;  237,950;24700,542;39,11671
 908,15; 9820,681;  230,027;24588,696;39,37265
 908,71; 9814,681;  257,027;24614,081;39,23978
 909,26; 9779,065;  228,181;24422,619;39,47554
 909,82; 9765,835;  257,412;24211,388;39,69455
 910,37; 9781,681;  277,027;24242,081;39,66047
 910,93; 9661,296;  226,104;24083,312;39,54860
 911,48; 9643,065;  220,181;23858,388;39,86294
 912,04; 9653,373;  236,796;23776,312;40,00327
 912,60; 9703,142;  243,258;23848,235;40,07581
 913,15; 9631,835;  239,873;23565,619;40,26436
 913,71; 9585,912;  219,873;23403,696;40,39902
 914,26; 9559,604;  215,104;23348,850;40,39337
 914,82; 9603,835;  236,412;23261,312;40,68388
 915,37; 9550,604;  223,642;23194,927;40,60270
 915,93; 9584,681;  272,642;23073,158;40,84135
 916,48; 9535,527;  225,719;22937,081;40,99185
 917,04; 9505,835;  247,104;22802,696;41,04849
 917,59; 9542,758;  263,181;22762,158;41,24444
 918,15; 9439,835;  196,488;22562,388;41,32785
 918,70; 9463,604;  220,873;22468,696;41,54443
 919,26; 9454,527;  231,950;22437,081;41,53354
 919,81; 9391,681;  220,719;22235,312;41,65856
 920,37; 9376,912;  228,642;22167,158;41,69958
 920,92; 9454,142;  246,873;22137,081;42,06113
 921,48; 9356,296;  214,488;21839,081;42,27505
 922,03; 9357,912;  225,950;21859,081;42,21285
 922,59; 9284,219;  225,796;21713,158;42,15698
 923,14; 9284,065;  224,796;21644,312;42,29446
 923,69; 9303,219;  250,565;21559,388;42,48312
 924,25; 9333,988;  238,027;21438,619;42,90428
 924,80; 9240,142;  233,719;21291,312;42,77043
 925,36; 9258,142;  226,104;21189,312;43,08519
 925,91; 9214,219;  211,181;21066,542;43,16894
 926,47; 9208,450;  208,565;20966,081;43,35723
 927,02; 9243,681;  280,335;20992,235;43,27631
 927,57; 9202,219;  225,104;20790,696;43,65114
 928,13; 9168,604;  213,796;20660,388;43,79609
 928,68; 9119,988;  225,258;20638,312;43,57374
 929,24; 9010,604;  199,719;20421,388;43,57150
 929,79; 9023,912;  206,335;20327,235;43,82297
 930,34; 9033,681;  226,873;20180,465;44,13645
 930,90; 8972,065;  212,027;20141,465;43,95527
 931,45; 9027,296;  229,027;20157,927;44,14829
 932,01; 8955,065;  225,873;20021,465;44,09665
 932,56; 8923,604;  249,719;19868,388;44,21240
 933,11; 8952,219;  253,488;19857,927;44,37123
 933,67; 8891,527;  220,488;19695,388;44,52417
 934,22; 8932,219;  236,181;19596,312;44,91725
 934,77; 8849,758;  257,950;19538,158;44,56284
 935,33; 8834,988;  227,796;19370,850;44,96248
 935,88; 8858,835;  228,258;19341,158;45,15577
 936,43; 8842,065;  228,642;19217,235;45,36104
 936,99; 8838,988;  232,719;19116,927;45,57390
 937,54; 8812,142;  210,719;18954,773;45,88881
 938,09; 8829,912;  227,412;18975,388;45,88495
 938,65; 8805,219;  220,950;18836,850;46,11257
 939,20; 8787,681;  204,335;18707,773;46,38784
 939,75; 8758,296;  211,565;18689,619;46,25341
 940,31; 8771,373;  210,412;18486,850;46,84152
 940,86; 8764,758;  225,027;18508,004;46,70864
 941,41; 8790,373;  290,565;18399,542;46,93698
 941,96; 8726,988;  219,258;18250,619;47,18296
 942,52; 8683,835;  216,027;18174,235;47,15286
 943,07; 8634,219;  197,488;18061,696;47,22701
 943,62; 8570,912;  217,719;17999,081;46,97724
 944,18; 8553,065;  195,565;17954,158;47,06173
 944,73; 8534,296;  233,027;17856,388;47,10378
 945,28; 8480,142;  191,027;17627,927;47,53778
 945,83; 8504,450;  217,642;17686,773;47,43686
 946,39; 8468,142;  223,335;17662,004;47,27888
 946,94; 8440,758;  245,335;17545,542;47,37182
 947,49; 8394,527;  219,565;17453,696;47,43472
 948,04; 8416,450;  253,719;17367,542;47,69671
 948,59; 8427,988;  244,950;17351,773;47,83494
 949,15; 8343,988;  202,719;17219,850;47,84161
 949,70; 8325,912;  218,104;17085,235;48,06868
 950,25; 8344,912;  237,181;17045,158;48,23740
 950,80; 8343,758;  196,027;16909,081;48,75070
 951,36; 8263,527;  197,873;16863,235;48,39771
 951,91; 8311,142;  230,565;16832,927;48,67125
 952,46; 8220,142;  199,719;16575,158;48,97837
 953,01; 8236,296;  242,950;16650,619;48,71713
 953,56; 8192,527;  195,104;16489,542;49,08069
 954,11; 8221,604;  233,565;16458,312;49,23367
 954,67; 8234,296;  219,719;16418,312;49,47700
 955,22; 8107,065;  207,181;16251,773;49,23705
 955,77; 8168,835;  242,412;16265,004;49,47029
 956,32; 8151,219;  275,181;16178,927;49,52317
 956,87; 8127,142;  206,565;15991,235;50,17892
 957,42; 8124,604;  211,258;15955,850;50,26072
 957,98; 8062,296;  214,335;15911,465;49,99615
 958,53; 8054,912;  238,412;15814,004;50,18429
 959,08; 8034,450;  201,796;15706,619;50,51753
 959,63; 8008,835;  206,796;15611,312;50,64774
 960,18; 8030,758;  229,873;15587,312;50,79548
 960,73; 8011,527;  226,796;15466,158;51,08305
 961,28; 7913,912;  199,873;15403,312;50,73878
 961,83; 7960,527;  238,181;15367,619;51,04186
 962,39; 7916,758;  204,642;15236,542;51,30499
 962,94; 7909,912;  228,181;15135,158;51,53111
 963,49; 7865,450;  223,565;15083,158;51,42728
 964,04; 7891,604;  235,642;15060,927;51,64124
 964,59; 7824,527;  190,873;14878,773;51,97240
 965,14; 7836,142;  237,950;14853,158;51,98826
 965,69; 7802,450;  226,181;14738,388;52,20618
 966,24; 7715,450;  216,104;14616,465;52,07749
 966,79; 7759,219;  233,488;14561,158;52,52586
 967,34; 7677,758;  193,104;14409,696;52,64731
 967,89; 7648,296;  206,027;14404,312;52,41668
 968,44; 7645,065;  216,027;14305,773;52,72656
 968,99; 7641,450;  221,950;14292,465;52,73083
 969,55; 7601,142;  222,027;14166,619;52,91740
 970,10; 7539,373;  226,488;14098,312;52,71755
 970,65; 7505,604;  246,873;14004,696;52,76075
 971,20; 7429,219;  214,181;13909,773;52,68146
 971,75; 7400,835;  197,796;13668,542;53,47171
 972,30; 7382,758;  223,104;13699,081;53,12902
 972,85; 7334,912;  212,181;13631,004;53,08015
 973,40; 7306,912;  206,258;13559,158;53,17687
 973,95; 7312,065;  222,719;13453,312;53,58298
 974,50; 7301,835;  246,565;13406,773;53,61062
 975,05; 7252,296;  227,335;13275,619;53,83820
 975,60; 7222,912;  233,642;13192,388;53,93476
 976,15; 7172,835;  213,719;13086,158;54,06214
 976,70; 7133,835;  225,719;13024,312;53,97559
 977,25; 7131,758;  228,950;12980,388;54,13356
 977,80; 7080,988;  205,104;12853,542;54,36153
 978,35; 7055,065;  228,565;12647,773;54,96727
 978,89; 6963,373;  198,719;12588,388;54,59915
 979,44; 7020,065;  228,873;12625,081;54,78443
 979,99; 6930,681;  209,873;12401,619;55,12588
 980,54; 6953,988;  243,412;12386,850;55,26093
 981,09; 6905,065;  239,258;12232,388;55,58021
 981,64; 6842,835;  234,873;12097,773;55,70275
 982,19; 6866,142;  261,027;12125,081;55,67334
 982,74; 6781,835;  245,027;11893,081;56,11931
 983,29; 6671,604;  213,950;11764,619;55,90718
 983,84; 6690,219;  235,258;11668,773;56,45649
 984,39; 6756,373;  303,104;11711,542;56,56575
 984,94; 6593,835;  203,027;11481,619;56,66317
 985,49; 6602,527;  250,873;11470,542;56,61177
 986,03; 6554,527;  250,488;11413,235;56,47390
 986,58; 6510,142;  276,027;11242,619;56,84642
 987,13; 6376,912;  237,027;11119,465;56,42012
 987,68; 6353,450;  235,335;11045,773;56,59452
 988,23; 6371,296;  237,258;10984,850;57,07361
 988,78; 6290,604;  223,873;10863,235;57,02157
 989,33; 6270,988;  241,873;10732,696;57,47038
 989,88; 6265,373;  249,642;10721,619;57,44599
 990,42; 6135,219;  232,642;10586,158;57,01037
 990,97; 6124,835;  224,950;10463,004;57,62701
 991,52; 6068,912;  253,719;10376,850;57,44460
 992,07; 6033,296;  255,873;10301,927;57,50938
 992,62; 5952,758;  239,873;10217,773;57,25538
 993,17; 5890,065;  238,181;10072,004;57,47393
 993,71; 5867,065;  248,950; 9954,235;57,88718
 994,26; 5799,527;  222,181; 9825,850;58,07516
 994,81; 5819,988;  250,181; 9767,850;58,52071
 995,36; 5719,065;  226,719; 9628,773;58,41645
 995,91; 5676,988;  235,258; 9593,004;58,15215
 996,45; 5638,835;  236,335; 9483,619;58,42256
 997,00; 5554,988;  207,950; 9335,850;58,57906
 997,55; 5609,988;  233,873; 9334,927;59,07135
 998,10; 5487,219;  265,488; 9163,773;58,68244
 998,65; 5485,835;  231,412; 9172,465;58,76738
 999,19; 5443,912;  252,104; 9013,158;59,26008
 999,74; 5434,758;  276,181; 8985,542;59,23025
1000,29; 5449,296;  246,719; 8828,773;60,62158
1000,84; 5335,219;  223,104; 8741,696;60,01127
1001,38; 5339,988;  237,412; 8648,388;60,66569
1001,93; 5279,142;  248,181; 8601,158;60,22956
1002,48; 5176,142;  221,950; 8410,542;60,50115
1003,03; 5200,450;  238,565; 8394,696;60,83626
1003,57; 5165,219;  249,719; 8249,158;61,44806
1004,12; 5121,142;  272,412; 8205,235;61,12239
1004,67; 5052,527;  226,719; 8094,235;61,33840
1005,22; 5018,373;  217,796; 7967,081;61,94865
1005,76; 4951,450;  217,335; 7848,235;62,03876
1006,31; 4910,758;  247,642; 7815,850;61,61453
1006,86; 4874,219;  222,104; 7678,850;62,38801
1007,40; 4800,604;  210,950; 7571,850;62,35180
1007,95; 4796,527;  236,873; 7480,158;62,95009
1008,50; 4701,142;  231,642; 7337,388;62,89980
1009,04; 4658,988;  219,950; 7249,004;63,15272
1009,59; 4586,065;  240,412; 7142,312;62,96315
1010,14; 4517,912;  216,335; 7033,312;63,10095
1010,68; 4466,373;  229,565; 6973,773;62,82143
1011,23; 4389,450;  224,950; 6797,542;63,36161
1011,78; 4375,373;  234,181; 6780,465;63,26019
1012,32; 4298,988;  247,565; 6639,465;63,38371
1012,87; 4296,988;  253,412; 6621,081;63,50168
1013,42; 4185,681;  218,258; 6484,004;63,31924
1013,96; 4218,450;  258,488; 6507,081;63,37366
1014,51; 4184,296;  198,335; 6424,619;64,01830
1015,06; 4149,988;  204,335; 6429,158;63,38580
1015,60; 4231,142;  268,565; 6443,619;64,17073
1016,15; 4155,450;  224,104; 6407,542;63,57864
1016,69; 4202,681;  233,950; 6431,158;64,04063
1017,24; 4189,758;  205,258; 6454,927;63,75537
1017,79; 4244,912;  251,796; 6551,081;63,38998
1018,33; 4249,604;  218,412; 6526,158;63,90860
1018,88; 4297,835;  242,258; 6598,927;63,80035
1019,42; 4308,527;  229,412; 6609,388;63,93621
1019,97; 4268,219;  209,642; 6586,388;63,64652
1020,51; 4342,450;  243,335; 6614,927;64,33424
1021,06; 4306,988;  199,258; 6623,081;63,94527
1021,61; 4288,604;  204,258; 6566,081;64,20088
1022,15; 4239,988;  180,027; 6530,927;63,92734
1022,70; 4340,912;  223,873; 6544,388;65,13770
1023,24; 4296,296;  217,104; 6506,696;64,85623
1023,79; 4262,373;  214,873; 6440,312;65,01550
1024,33; 4209,527;  219,642; 6432,696;64,21777
1024,88; 4211,373;  224,565; 6301,158;65,60927
1025,42; 4116,604;  216,335; 6201,773;65,16263
1025,97; 4062,527;  219,027; 6159,696;64,69810
1026,51; 3996,835;  185,488; 6011,927;65,41468
1027,06; 4003,835;  206,488; 5991,850;65,63715
1027,60; 3950,681;  239,258; 5887,235;65,71243
1028,15; 3864,681;  245,873; 5774,696;65,45349
1028,69; 3798,065;  198,950; 5671,004;65,77266
1029,24; 3814,296;  217,104; 5593,542;66,90660
1029,78; 3717,142;  215,181; 5512,696;66,10574
1030,33; 3636,758;  196,565; 5423,542;65,81610
1030,87; 3629,296;  222,642; 5339,312;66,57952
1031,42; 3539,296;  202,181; 5270,850;65,83810
1031,96; 3544,758;  233,488; 5172,465;67,04363
1032,51; 3490,450;  211,796; 5112,696;66,89902
1033,05; 3485,527;  216,104; 5063,465;67,44748
1033,60; 3392,373;  191,950; 4923,927;67,63395
1034,14; 3384,142;  213,565; 4874,388;68,02612
1034,69; 3334,373;  219,642; 4796,312;68,05672
1035,23; 3287,065;  208,796; 4739,927;67,93601
1035,77; 3295,758;  201,412; 4670,388;69,24059
1036,32; 3200,758;  190,950; 4605,312;68,18217
1036,86; 3185,835;  214,335; 4557,312;68,42081
1037,41; 3161,604;  225,104; 4481,542;68,98960
1037,95; 3110,988;  194,104; 4382,773;69,63750
1038,50; 3068,065;  206,412; 4372,696;68,68599
1039,04; 3054,912;  233,027; 4333,235;68,82297
1039,58; 2983,219;  196,488; 4222,388;69,22007
1040,13; 2959,527;  218,181; 4185,004;69,10684
1040,67; 2958,681;  237,488; 4167,081;69,24872
1041,21; 2910,988;  238,565; 4070,696;69,73726
1041,76; 2851,835;  199,104; 4016,850;69,48421
1042,30; 2811,142;  215,104; 3950,158;69,50471
1042,85; 2798,065;  217,335; 3897,235;70,13046
1043,39; 2737,988;  207,258; 3822,235;70,00683
1043,93; 2735,835;  223,335; 3783,773;70,56715
1044,48; 2694,835;  223,412; 3736,850;70,34201
1045,02; 2632,065;  213,104; 3690,850;69,55544
1045,56; 2635,296;  232,719; 3675,850;69,77885
1046,11; 2605,835;  220,642; 3615,004;70,26925
1046,65; 2544,988;  229,488; 3556,773;69,59128
1047,19; 2503,296;  207,104; 3511,465;69,48974
1047,74; 2468,219;  197,950; 3420,388;70,45190
1048,28; 2446,681;  220,181; 3400,927;69,99930
1048,82; 2441,988;  238,719; 3362,388;70,53465
1049,37; 2415,065;  228,412; 3294,004;71,32892
1049,91; 2393,450;  230,796; 3252,158;71,57878
1050,45; 2356,065;  233,258; 3229,158;70,85709
1050,99; 2348,373;  216,642; 3161,927;72,37775
1051,54; 2304,065;  208,796; 3103,696;72,37795
1052,08; 2298,065;  250,796; 3090,235;72,10120
1052,62; 2276,835;  236,719; 3048,696;72,55093
1053,16; 2229,604;  217,412; 2967,004;73,18148
1053,71; 2201,373;  230,565; 2937,465;72,80682
1054,25; 2171,835;  241,719; 2895,773;72,72329
1054,79; 2151,988;  231,642; 2873,235;72,69654
1055,33; 2095,527;  195,488; 2796,696;73,04447
1055,88; 2106,988;  231,412; 2778,312;73,64156
1056,42; 2085,065;  245,873; 2757,388;73,23038
1056,96; 2069,142;  238,565; 2705,158;74,21482
1057,50; 2023,296;  224,104; 2676,312;73,37031
1058,05; 1986,988;  221,335; 2629,773;73,31115
1058,59; 1985,219;  247,565; 2595,850;73,99673
1059,13; 1907,988;  206,181; 2532,158;73,16529
1059,67; 1917,912;  224,642; 2534,235;73,31464
1060,21; 1877,373;  218,796; 2464,235;73,86428
1060,76; 1856,219;  229,565; 2448,081;73,32173
1061,30; 1860,681;  248,565; 2444,773;73,40450
1061,84; 1828,296;  229,796; 2349,312;75,41818
1062,38; 1758,527;  218,335; 2286,542;74,46991
1062,92; 1803,142;  266,488; 2345,081;73,92762
1063,46; 1771,835;  247,181; 2274,388;75,20955
1064,01; 1720,912;  224,412; 2233,927;74,47069
1064,55; 1722,296;  231,565; 2217,773;75,05412
1065,09; 1694,758;  204,565; 2145,388;76,78146
1065,63; 1714,527;  253,719; 2166,388;76,37534
1066,17; 1691,142;  262,796; 2143,465;75,94882
1066,71; 1661,296;  247,258; 2125,388;75,28967
1067,25; 1610,142;  241,950; 2079,927;74,44012
1067,80; 1624,527;  256,873; 2061,696;75,77772
1068,34; 1628,604;  258,950; 2065,619;75,81099
1068,88; 1556,065;  225,181; 1990,696;75,38222
1069,42; 1588,142;  252,488; 2018,696;75,62269
1069,96; 1535,758;  234,642; 1949,081;75,89164
1070,50; 1573,758;  276,488; 1963,081;76,91659
1071,04; 1499,296;  220,950; 1888,696;76,65112
1071,58; 1497,988;  232,796; 1878,081;76,89808
1072,12; 1471,988;  233,796; 1855,081;76,37106
1072,66; 1449,296;  227,181; 1840,158;75,76769
1073,21; 1475,527;  243,104; 1838,004;77,27275
1073,75; 1422,604;  238,488; 1792,850;76,18018
1074,29; 1412,758;  245,950; 1790,388;75,54899
1074,83; 1418,142;  250,642; 1768,542;76,91548
1075,37; 1399,835;  255,796; 1760,542;76,02867
1075,91; 1387,296;  255,873; 1747,312;75,86120
1076,45; 1365,604;  236,565; 1700,004;77,14971
1076,99; 1341,065;  245,488; 1654,004;77,78239
1077,53; 1316,373;  229,104; 1627,004;77,77876
1078,07; 1328,065;  242,258; 1641,927;77,57602
1078,61; 1303,142;  237,412; 1612,081;77,52634
1079,15; 1275,758;  235,719; 1601,004;76,17741
1079,69; 1277,065;  236,796; 1561,235;78,54417
1080,23; 1284,681;  253,335; 1567,850;78,45828
1080,77; 1288,988;  284,719; 1574,388;77,87029
1081,31; 1224,988;  219,565; 1499,235;78,56898
1081,85; 1238,219;  250,719; 1528,004;77,31245
1082,39; 1218,604;  228,027; 1476,927;79,31595
1082,93; 1196,527;  249,950; 1489,312;76,37617
1083,47; 1151,604;  228,565; 1438,773;76,27108
1084,01; 1150,835;  246,027; 1466,388;74,14259
1084,55; 1148,296;  235,258; 1420,004;77,06617
1085,09; 1153,219;  247,950; 1420,004;77,23785
1085,63; 1136,142;  254,335; 1380,158;78,32560
1086,17; 1111,296;  224,719; 1372,158;77,26575
1086,71; 1100,296;  229,796; 1356,773;77,24204
1087,24; 1116,604;  266,642; 1373,927;76,76089
1087,78; 1094,681;  249,258; 1344,235;77,20921
1088,32; 1057,912;  234,488; 1302,312;77,11231
1088,86; 1080,450;  255,027; 1325,696;77,09413
1089,40; 1052,450;  239,335; 1279,004;78,20905
1089,94; 1025,527;  223,027; 1243,081;78,67232
1090,48; 1025,142;  243,258; 1242,312;78,26251
1091,02; 1027,527;  254,258; 1254,081;77,34061
1091,56; 1001,758;  240,642; 1240,312;76,13672
1092,10;  988,296;  213,412; 1184,927;79,76041
1092,63; 1022,142;  259,258; 1217,465;79,61579
1093,17;  986,219;  244,719; 1203,004;77,37785
1093,71;  966,604;  229,488; 1160,235;79,19618
1094,25;  980,835;  264,950; 1180,158;78,22100
1094,79;  967,527;  240,488; 1147,542;80,15384
1095,33;  961,835;  247,796; 1127,312;81,18544
1095,87;  940,681;  240,412; 1124,619;79,19737
1096,40;  922,527;  216,950; 1088,619;80,94549
1096,94;  916,219;  242,104; 1091,927;79,32420
1097,48;  916,373;  251,181; 1084,465;79,82774
1098,02;  900,988;  236,181; 1071,927;79,54661
1098,56;  847,835;  208,104; 1018,388;78,95137
1099,10;  861,219;  220,719; 1013,850;80,75591
1099,63;  864,142;  216,642; 1022,465;80,35263
1100,17;  878,219;  235,565; 1028,696;81,02748
1100,71;  879,988;  259,719; 1034,465;80,06096

