
Integration time [ms]: 120,000
Averaging Nr. [scans]: 13
Smoothing Nr. [pixels]: 0
Data measured with spectrometer [name]: 2009305U1
Wave   ;Sample   ;Dark     ;Reference;Reflectance
[nm]   ;[counts] ;[counts] ;[counts] ;[%]

 175,72;  181,133;  177,341;  181,932;82,59787
 176,32;  214,580;  201,724;  196,771; 0,00000
 176,92;  218,406;  221,879;  219,181; 0,00000
 177,52;  233,906;  236,264;  242,747;-36,36547
 178,12;  217,535;  222,186;  203,032; 0,00000
 178,72;  248,677;  235,570;  241,190;233,22965
 179,32;  237,494;  226,263;  215,572; 0,00000
 179,92;  232,361;  222,494;  228,231;172,00180
 180,52;  227,089;  212,495;  231,073;78,55696
 181,12;  236,713;  229,494;  229,818; 0,00000
 181,73;  259,268;  243,725;  240,244; 0,00000
 182,33;  293,805;  287,726;  289,153;426,01670
 182,93;  251,482;  243,495;  244,568;744,29797
 183,53;  224,020;  225,801;  215,804; 0,00000
 184,13;  233,801;  233,878;  221,748; 0,00000
 184,73;  238,587;  235,186;  246,963;28,88104
 185,33;  252,939;  222,410;  328,091;28,88786
 185,93;  251,131;  220,871;  340,951;25,19986
 186,53;  257,220;  221,564;  345,642;28,73674
 187,13;  285,571;  256,795;  382,267;22,93392
 187,73;  254,188;  218,487;  342,172;28,86423
 188,33;  259,290;  217,102;  349,994;31,74610
 188,93;  253,186;  225,023;  355,606;21,56690
 189,53;  272,559;  231,946;  360,495;31,59339
 190,13;  308,805;  260,790;  374,664;42,16500
 190,73;  230,883;  203,637;  324,040;22,62878
 191,34;  272,983;  230,100;  361,556;32,62168
 191,94;  250,842;  219,640;  320,107;31,05709
 192,54;  276,502;  232,719;  366,990;32,60793
 193,14;  273,517;  242,103;  367,943;24,96343
 193,74;  266,362;  225,334;  348,583;33,28879
 194,34;  249,935;  221,488;  354,873;21,32716
 194,94;  226,401;  190,257;  330,995;25,68151
 195,54;  207,884;  193,949;  319,846;11,06900
 196,14;  231,795;  208,103;  347,636;16,97910
 196,74;  226,082;  198,333;  322,302;22,38362
 197,34;  211,833;  177,642;  328,720;22,63116
 197,94;  240,323;  209,642;  343,536;22,91447
 198,54;  237,477;  204,103;  360,975;21,27449
 199,14;  239,652;  191,258;  377,922;25,92586
 199,74;  215,153;  188,950;  353,563;15,91807
 200,34;  216,277;  174,489;  370,816;21,28485
 200,94;  252,727;  205,258;  408,507;23,35541
 201,54;  230,825;  195,796;  401,959;16,99057
 202,14;  241,630;  204,643;  439,225;15,76721
 202,74;  240,121;  191,566;  464,224;17,80828
 203,34;  222,243;  177,951;  461,232;15,63528
 203,94;  202,828;  159,181;  475,658;13,79136
 204,54;  268,491;  228,257;  554,835;12,31987
 205,14;  233,796;  186,489;  573,954;12,20947
 205,74;  274,933;  220,105;  660,874;12,43916
 206,34;  239,350;  182,566;  660,309;11,88583
 206,94;  254,033;  201,027;  722,261;10,16924
 207,54;  234,702;  169,027;  758,893;11,13386
 208,14;  249,277;  185,489;  854,947; 9,52832
 208,74;  255,918;  180,258;  919,616;10,23323
 209,34;  253,329;  178,720; 1013,779; 8,93466
 209,94;  278,779;  201,566; 1125,300; 8,35879
 210,54;  286,758;  197,643; 1211,193; 8,79232
 211,14;  281,930;  199,335; 1303,480; 7,48048
 211,73;  288,579;  190,027; 1385,199; 8,24588
 212,33;  310,688;  208,027; 1506,251; 7,90780
 212,93;  300,070;  187,258; 1602,566; 7,97083
 213,53;  283,035;  163,566; 1644,026; 8,06972
 214,13;  289,888;  164,567; 1721,959; 8,04689
 214,73;  288,476;  169,104; 1749,148; 7,55496
 215,33;  262,779;  138,873; 1751,454; 7,68367
 215,93;  325,065;  178,566; 1916,196; 8,43093
 216,53;  287,519;  140,873; 1993,856; 7,91405
 217,13;  355,557;  195,874; 2192,251; 7,99863
 217,73;  360,913;  170,797; 2356,938; 8,69641
 218,33;  353,223;  138,490; 2563,892; 8,85349
 218,93;  397,899;  166,106; 2857,633; 8,61195
 219,53;  447,878;  157,490; 3136,840; 9,74668
 220,13;  440,640;  142,336; 3441,437; 9,04199
 220,73;  500,396;  173,181; 3800,273; 9,02142
 221,32;  537,149;  167,489; 4182,539; 9,20686
 221,92;  588,743;  177,951; 4617,624; 9,25273
 222,52;  615,022;  160,874; 4992,892; 9,39872
 223,12;  664,371;  158,951; 5412,198; 9,62110
 223,72;  724,565;  177,489; 5814,839; 9,70448
 224,32;  761,934;  174,413; 6193,234; 9,76140
 224,92;  783,684;  160,720; 6601,683; 9,67190
 225,52;  850,303;  180,335; 6905,287; 9,96242
 226,12;  863,738;  173,874; 7275,258; 9,71450
 226,72;  905,589;  150,720; 7658,740;10,05417
 227,31;  931,262;  139,412; 8048,574;10,01180
 227,91; 1003,942;  166,258; 8442,578;10,12145
 228,51; 1060,848;  164,335; 8899,863;10,26284
 229,11; 1125,404;  167,951; 9314,710;10,46767
 229,71; 1164,549;  161,412; 9644,990;10,57762
 230,31; 1199,062;  163,567;10083,280;10,43876
 230,91; 1239,897;  149,257;10450,494;10,58747
 231,51; 1288,739;  142,643;10690,464;10,86571
 232,10; 1357,704;  149,721;11114,366;11,01708
 232,70; 1446,935;  172,642;11178,411;11,57841
 233,30; 1494,869;  179,643;11481,659;11,63709
 233,90; 1513,695;  160,720;11584,646;11,84335
 234,50; 1569,268;  164,720;11639,573;12,24022
 235,10; 1609,222;  158,797;11682,683;12,58625
 235,70; 1657,815;  169,643;11671,969;12,93801
 236,29; 1703,983;  180,643;11603,598;13,33578
 236,89; 1672,815;  157,488;11503,165;13,35598
 237,49; 1742,805;  166,258;11408,521;14,02339
 238,09; 1730,580;  164,797;11035,462;14,40375
 238,69; 1729,988;  186,642;10723,353;14,64732
 239,29; 1723,998;  151,566;10441,644;15,28105
 239,89; 1721,450;  167,950;10145,100;15,57058
 240,48; 1691,791;  153,951; 9725,758;16,06636
 241,08; 1647,167;  158,027; 9326,172;16,24254
 241,68; 1644,054;  182,643; 8973,788;16,62367
 242,28; 1586,683;  159,874; 8630,859;16,84349
 242,88; 1595,005;  173,720; 8364,985;17,35122
 243,48; 1583,227;  186,566; 8108,726;17,62980
 244,07; 1530,922;  180,027; 7829,104;17,66088
 244,67; 1575,126;  180,874; 7690,229;18,56687
 245,27; 1540,579;  185,642; 7588,352;18,30326
 245,87; 1570,115;  185,643; 7528,705;18,85414
 246,47; 1544,061;  172,335; 7486,057;18,75551
 247,06; 1575,296;  165,566; 7526,292;19,15205
 247,66; 1569,334;  164,797; 7580,166;18,94090
 248,26; 1625,710;  199,566; 7732,215;18,93284
 248,86; 1662,832;  184,412; 7934,031;19,07733
 249,46; 1683,623;  140,336; 8112,977;19,35729
 250,05; 1755,174;  184,335; 8512,015;18,86286
 250,65; 1805,843;  152,719; 8839,150;19,03110
 251,25; 1877,944;  162,874; 9312,090;18,74554
 251,85; 1992,267;  166,181; 9884,581;18,78999
 252,44; 2066,591;  135,719;10514,296;18,60439
 253,04; 2237,012;  180,950;11273,504;18,53551
 253,64; 2305,635;  134,181;11946,749;18,38258
 254,24; 2459,980;  183,489;12942,605;17,84208
 254,84; 2598,392;  166,028;13818,824;17,81587
 255,43; 2767,449;  174,489;14779,699;17,75367
 256,03; 2917,062;  167,488;15689,670;17,71383
 256,63; 3048,641;  179,104;16716,460;17,35185
 257,23; 3193,192;  154,565;17496,170;17,52218
 257,82; 3336,847;  164,950;18468,138;17,32976
 258,42; 3384,343;  137,026;19182,702;17,05015
 259,02; 3575,962;  171,566;20123,742;17,06278
 259,62; 3648,507;  164,488;20744,052;16,92951
 260,21; 3692,139;  169,412;21255,648;16,70629
 260,81; 3750,582;  164,643;21699,592;16,65172
 261,41; 3806,361;  152,257;22165,871;16,59929
 262,01; 3888,794;  196,180;22529,910;16,53380
 262,60; 3862,577;  150,873;22870,247;16,33717
 263,20; 3888,376;  164,104;23219,129;16,15384
 263,80; 3925,129;  180,564;23188,763;16,27491
 264,40; 3943,607;  160,180;23480,805;16,22352
 264,99; 3964,010;  174,718;23595,996;16,17884
 265,59; 3933,260;  161,410;23718,360;16,01162
 266,19; 3937,707;  145,718;23942,404;15,93494
 266,78; 3965,868;  194,718;24002,266;15,84014
 267,38; 3945,633;  167,102;24073,702;15,80539
 267,98; 3917,639;  160,872;23940,240;15,79843
 268,58; 3921,844;  171,641;23985,151;15,74822
 269,17; 3870,785;  156,256;23999,133;15,57920
 269,77; 3854,459;  178,257;23721,092;15,61495
 270,37; 3799,268;  153,564;23632,157;15,52778
 270,96; 3817,837;  202,488;23497,862;15,51960
 271,56; 3759,314;  159,873;23256,293;15,58441
 272,16; 3729,099;  161,872;23131,225;15,53037
 272,75; 3704,419;  167,334;23064,935;15,44740
 273,35; 3668,043;  179,719;23096,752;15,22154
 273,95; 3658,074;  165,026;23117,576;15,21856
 274,54; 3665,586;  138,643;23112,099;15,35225
 275,14; 3753,420;  174,257;23418,065;15,39835
 275,74; 3734,744;  139,719;23576,359;15,33934
 276,33; 3816,660;  177,796;23952,958;15,30532
 276,93; 3867,037;  176,181;24209,057;15,35753
 277,53; 3985,253;  165,566;24918,316;15,43137
 278,12; 4024,437;  153,181;25338,854;15,37087
 278,72; 4177,278;  174,489;25937,503;15,53696
 279,32; 4286,765;  157,796;26444,229;15,70760
 279,91; 4362,314;  148,258;27234,118;15,55814
 280,51; 4528,399;  161,489;27651,475;15,88546
 281,11; 4660,141;  162,335;28428,720;15,91221
 281,70; 4701,675;  152,258;28857,697;15,84862
 282,30; 4887,083;  148,181;29421,216;16,18863
 282,90; 4949,053;  173,027;29883,544;16,07521
 283,49; 5176,390;  174,796;30307,777;16,59841
 284,09; 5271,730;  198,950;30772,403;16,59211
 284,69; 5431,081;  188,796;30996,377;17,01621
 285,28; 5548,075;  183,950;31311,147;17,23292
 285,88; 5711,684;  183,565;31501,552;17,65158
 286,47; 5795,014;  158,411;31740,211;17,84763
 287,07; 5968,341;  194,489;31615,896;18,37554
 287,67; 6151,688;  184,028;31838,342;18,85260
 288,26; 6274,128;  164,027;31731,936;19,35542
 288,86; 6440,067;  173,258;31840,768;19,78940
 289,46; 6727,778;  177,258;31941,937;20,62203
 290,05; 6864,443;  165,874;32058,372;21,00359
 290,65; 7178,625;  173,642;32137,957;21,91501
 291,24; 7475,403;  180,258;32389,830;22,64900
 291,84; 7722,103;  180,719;32478,075;23,34985
 292,44; 8023,924;  164,182;32602,519;24,22979
 293,03; 8264,316;  216,258;32726,555;24,75541
 293,63; 8526,187;  163,719;32731,147;25,67740
 294,22; 8760,612;  179,412;33033,304;26,11928
 294,82; 8943,522;  165,334;32990,272;26,74244
 295,41; 9015,829;  158,335;32669,235;27,24469
 296,01; 9190,988;  208,642;32537,990;27,78388
 296,61; 9261,199;  168,181;32216,222;28,37309
 297,20; 9262,962;  178,257;31982,957;28,56403
 297,80; 9302,345;  188,951;31755,900;28,87005
 298,39; 9285,190;  157,104;31294,658;29,31536
 298,99; 9366,934;  168,257;31256,644;29,58879
 299,58; 9359,317;  175,258;31083,742;29,71371
 300,18; 9384,455;  192,027;30836,159;29,99735
 300,78; 9335,315;  156,720;30591,942;30,15781
 301,37; 9338,705;  188,026;30595,197;30,09382
 301,97; 9392,143;  180,412;30708,078;30,17503
 302,56; 9356,828;  167,334;30499,719;30,29598
 303,16; 9384,829;  165,180;30443,255;30,44992
 303,75; 9337,677;  171,873;30465,112;30,25693
 304,35; 9509,630;  158,489;30694,205;30,62362
 304,94; 9510,520;  165,104;30738,161;30,56749
 305,54; 9463,918;  180,181;30623,155;30,49550
 306,13; 9475,642;  137,643;30507,992;30,74709
 306,73; 9385,817;  146,028;30341,923;30,59949
 307,33; 9403,051;  179,643;30299,740;30,62211
 307,92; 9393,874;  173,027;30382,875;30,52265
 308,52; 9541,201;  164,565;30861,852;30,54549
 309,11; 9674,080;  162,872;31265,133;30,58044
 309,71; 9729,496;  143,411;31510,955;30,56052
 310,30; 9794,093;  149,719;31742,934;30,52672
 310,90; 9885,631;  167,950;32029,549;30,49966
 311,49; 9945,984;  164,258;32162,442;30,56963
 312,09; 9946,859;  142,412;32349,249;30,44213
 312,68;10034,650;  199,950;32648,564;30,30854
 313,28;10013,489;  147,335;32801,183;30,21437
 313,87;10000,552;  143,335;32931,884;30,06299
 314,47;10061,511;  168,103;33190,770;29,95944
 315,06;10073,154;  149,873;33381,253;29,86118
 315,66;10012,475;  149,643;33479,095;29,59194
 316,25; 9945,399;  136,180;33478,362;29,41985
 316,85; 9913,524;  128,797;33573,396;29,25653
 317,44; 9967,410;  164,334;33708,350;29,22451
 318,04; 9868,150;  139,411;33736,633;28,95697
 318,63; 9830,827;  141,335;33789,968;28,79609
 319,22; 9867,575;  159,873;33951,502;28,72813
 319,82; 9772,631;  150,873;33838,648;28,56157
 320,41; 9683,280;  168,027;33812,982;28,28137
 321,01; 9613,788;  171,643;33846,732;28,03896
 321,60; 9614,623;  155,258;33959,731;27,98258
 322,20; 9444,328;  153,027;33870,188;27,55659
 322,79; 9504,318;  190,796;33855,682;27,66539
 323,39; 9377,164;  146,797;33954,951;27,30219
 323,98; 9290,303;  145,335;33857,693;27,12646
 324,58; 9232,288;  158,950;33743,128;27,01671
 325,17; 9107,325;  167,873;33449,413;26,86009
 325,76; 9013,493;  183,642;33364,538;26,61125
 326,36; 8822,989;  139,950;32890,828;26,51238
 326,95; 8684,943;  166,258;32515,595;26,33341
 327,55; 8538,494;  146,411;32245,072;26,14465
 328,14; 8351,012;  163,720;31834,097;25,85158
 328,74; 8208,788;  181,950;31429,694;25,68774
 329,33; 8087,160;  178,797;31074,483;25,59698
 329,92; 7889,149;  150,565;30396,062;25,58591
 330,52; 7712,034;  161,258;29905,006;25,38609
 331,11; 7499,787;  169,950;29379,622;25,09387
 331,71; 7286,776;  168,489;28929,887;24,74945
 332,30; 7118,289;  182,719;28383,622;24,59343
 332,89; 6950,744;  193,412;27902,452;24,38674
 333,49; 6790,337;  164,335;27411,255;24,31835
 334,08; 6623,100;  172,181;27028,258;24,02033
 334,68; 6501,514;  173,104;26531,085;24,00947
 335,27; 6354,349;  168,028;26267,157;23,70317
 335,86; 6259,941;  188,642;25965,852;23,55297
 336,46; 6138,803;  173,797;25740,778;23,33090
 337,05; 6072,459;  158,565;25557,071;23,28442
 337,65; 5941,909;  155,027;25393,745;22,92859
 338,24; 5928,965;  217,489;25378,559;22,69966
 338,83; 5913,179;  183,335;25302,750;22,81042
 339,43; 5777,238;  163,719;25188,906;22,43148
 340,02; 5776,772;  164,642;25127,037;22,48234
 340,61; 5719,760;  159,796;25157,208;22,24216
 341,21; 5711,865;  194,334;25129,924;22,12713
 341,80; 5673,465;  161,027;25127,322;22,07952
 342,40; 5626,324;  172,181;25220,198;21,77475
 342,99; 5661,897;  168,489;25325,991;21,83607
 343,58; 5639,083;  166,950;25538,483;21,56800
 344,18; 5664,750;  169,412;25496,449;21,69752
 344,77; 5663,281;  159,565;25907,518;21,37535
 345,36; 5686,174;  137,719;26210,672;21,28050
 345,96; 5755,257;  177,720;26431,649;21,24458
 346,55; 5770,925;  146,412;26695,649;21,18521
 347,14; 5825,123;  148,489;27061,409;21,09260
 347,74; 5857,894;  136,259;27342,266;21,03078
 348,33; 6015,686;  164,721;28083,865;20,95682
 348,92; 6095,674;  174,875;28706,289;20,75186
 349,52; 6187,027;  135,567;29030,333;20,94310
 350,11; 6208,690;  160,950;29170,398;20,84749
 350,70; 6190,653;  170,027;29261,381;20,69559
 351,29; 6092,002;  138,564;28959,100;20,65693
 351,89; 6096,993;  163,334;29015,781;20,56553
 352,48; 6112,008;  136,335;29084,401;20,64274
 353,07; 6030,254;  168,335;28952,656;20,36497
 353,67; 6051,889;  178,721;28944,993;20,41686
 354,26; 5991,979;  161,489;28651,608;20,46496
 354,85; 5931,015;  163,720;28462,991;20,37966
 355,45; 5881,778;  154,334;28235,651;20,39592
 356,04; 5882,152;  171,182;28214,546;20,36478
 356,63; 5828,012;  177,412;28050,062;20,27292
 357,22; 5786,469;  167,487;27855,638;20,29381
 357,82; 5734,463;  166,872;27716,388;20,20940
 358,41; 5768,721;  179,027;27646,796;20,35001
 359,00; 5659,786;  155,796;27384,951;20,21359
 359,60; 5674,648;  172,027;27350,822;20,24601
 360,19; 5627,859;  161,489;27152,383;20,25264
 360,78; 5660,966;  169,258;27025,501;20,44853
 361,37; 5575,775;  174,873;26787,527;20,29449
 361,97; 5588,064;  174,027;26742,567;20,37762
 362,56; 5549,179;  156,950;26426,482;20,52655
 363,15; 5513,569;  176,950;26173,099;20,52850
 363,74; 5463,406;  170,026;25917,533;20,55881
 364,34; 5405,737;  200,488;25535,420;20,54574
 364,93; 5305,646;  154,642;25066,887;20,67660
 365,52; 5242,633;  143,335;24786,160;20,69283
 366,11; 5216,873;  165,565;24413,765;20,83168
 366,71; 5173,268;  155,796;24158,810;20,90351
 367,30; 5123,615;  162,335;23806,352;20,98324
 367,89; 5122,658;  195,489;23583,075;21,06746
 368,48; 5053,716;  179,103;23309,814;21,07420
 369,07; 5009,653;  170,258;22909,228;21,28239
 369,67; 4952,741;  183,026;22635,081;21,24400
 370,26; 4950,809;  163,104;22324,432;21,60387
 370,85; 4901,700;  165,027;22224,115;21,47266
 371,44; 4896,851;  162,950;21915,452;21,76256
 372,03; 4829,054;  148,411;21735,464;21,68264
 372,63; 4830,300;  146,796;21467,665;21,96676
 373,22; 4827,775;  163,335;21191,812;22,18154
 373,81; 4750,305;  145,719;20838,455;22,25219
 374,40; 4757,791;  160,951;20675,604;22,40760
 374,99; 4749,135;  145,565;20441,721;22,68198
 375,59; 4722,740;  164,104;20102,791;22,86327
 376,18; 4739,301;  187,104;20097,739;22,86314
 376,77; 4726,277;  175,950;19803,374;23,18352
 377,36; 4745,132;  185,335;19830,750;23,21049
 377,95; 4723,731;  171,642;19514,783;23,53335
 378,55; 4718,480;  153,720;19393,116;23,72611
 379,14; 4725,045;  163,181;19295,167;23,84417
 379,73; 4778,426;  164,796;19295,064;24,11691
 380,32; 4825,689;  188,335;19260,688;24,31454
 380,91; 4832,364;  146,642;19173,460;24,62693
 381,50; 4845,911;  174,334;19098,122;24,68627
 382,10; 4861,843;  154,796;18972,842;25,01347
 382,69; 4916,708;  148,411;18954,725;25,35476
 383,28; 4961,243;  175,950;18916,543;25,53438
 383,87; 4957,608;  156,257;18817,684;25,72874
 384,46; 4990,014;  154,026;18687,175;26,09372
 385,05; 5057,824;  194,334;18760,539;26,19539
 385,64; 5057,796;  161,873;18800,073;26,26822
 386,24; 5107,550;  143,257;18689,202;26,76754
 386,83; 5238,746;  181,872;18791,198;27,17387
 387,42; 5282,106;  187,027;18847,354;27,30434
 388,01; 5401,926;  175,872;19030,790;27,71719
 388,60; 5510,586;  174,488;19302,564;27,89668
 389,19; 5629,585;  147,794;19585,188;28,20229
 389,78; 5706,326;  160,641;19742,875;28,31998
 390,37; 5924,696;  210,872;20148,460;28,65855
 390,96; 6005,019;  181,257;20369,504;28,84729
 391,56; 6136,850;  169,871;20426,752;29,45655
 392,15; 6217,834;  162,410;20697,820;29,48772
 392,74; 6328,004;  147,563;20920,637;29,75218
 393,33; 6496,565;  157,794;21195,812;30,13008
 393,92; 6643,292;  180,332;21547,336;30,24739
 394,51; 6782,803;  148,409;21753,422;30,70766
 395,10; 6908,661;  187,946;21973,125;30,84994
 395,69; 7018,808;  178,638;22062,414;31,25681
 396,28; 7116,244;  180,945;22180,037;31,52539
 396,87; 7176,254;  187,406;22212,066;31,73192
 397,46; 7318,790;  184,482;22312,288;32,24137
 398,06; 7445,025;  189,251;22514,144;32,50082
 398,65; 7538,012;  180,172;22560,711;32,87606
 399,24; 7641,879;  191,018;22802,205;32,95210
 399,83; 7714,290;  181,169;22734,628;33,40118
 400,42; 7828,650;  217,090;22979,373;33,43935
 401,01; 7961,931;  190,087;22995,087;34,07956
 401,60; 8049,093;  197,775;23016,172;34,40784
 402,19; 8114,088;  221,157;22987,970;34,66858
 402,78; 8161,016;  229,614;22979,760;34,86308
 403,37; 8176,782;  209,224;22870,945;35,15866
 403,96; 8255,409;  211,681;22675,927;35,80680
 404,55; 8253,458;  213,598;22688,617;35,77243
 405,14; 8273,687;  198,362;22519,915;36,17725
 405,73; 8334,947;  216,663;22322,151;36,72520
 406,32; 8399,909;  218,736;22266,543;37,10651
 406,91; 8323,203;  212,270;22036,164;37,16538
 407,50; 8382,466;  211,190;21858,589;37,74715
 408,09; 8367,835;  191,573;21526,878;38,32269
 408,68; 8344,793;  210,957;21422,809;38,34571
 409,27; 8352,470;  213,497;21213,179;38,75760
 409,86; 8398,819;  217,654;21093,623;39,18939
 410,45; 8446,218;  244,350;21142,410;39,24703
 411,04; 8456,374;  235,892;21005,027;39,58028
 411,63; 8388,377;  238,973;20728,095;39,77430
 412,22; 8352,185;  231,361;20515,569;40,03520
 412,81; 8320,033;  248,132;20245,693;40,36443
 413,40; 8299,307;  252,826;19939,565;40,87260
 413,99; 8275,187;  268,364;19703,148;41,19842
 414,58; 8131,628;  232,210;19356,809;41,30502
 415,17; 8106,534;  227,824;19147,564;41,64280
 415,76; 8130,328;  217,130;18916,318;42,31840
 416,35; 8079,619;  221,669;18849,059;42,18492
 416,94; 8199,104;  251,669;18938,677;42,52920
 417,53; 8376,399;  228,670;19199,348;42,94907
 418,12; 8427,225;  229,055;19185,855;43,24659
 418,71; 8636,907;  249,980;19542,806;43,47174
 419,30; 8762,765;  232,902;19708,599;43,79747
 419,89; 8861,857;  226,440;19861,723;43,97908
 420,48; 9066,418;  253,057;20143,030;44,31057
 421,07; 9071,865;  238,903;20122,711;44,42289
 421,66; 9208,901;  223,673;20134,727;45,12683
 422,25; 9180,204;  225,905;20062,293;45,14077
 422,84; 9227,787;  250,598;20054,166;45,33117
 423,43; 9134,244;  228,520;19729,645;45,66774
 424,02; 9153,844;  259,213;19542,557;46,12598
 424,60; 8964,202;  228,753;19152,118;46,16224
 425,19; 8903,021;  237,983;18881,942;46,47638
 425,78; 8943,760;  244,599;18850,271;46,75542
 426,37; 8928,687;  257,753;18690,792;47,04018
 426,96; 8899,265;  231,676;18590,586;47,21189
 427,55; 8880,002;  235,062;18431,651;47,50857
 428,14; 8806,432;  212,601;18207,500;47,75704
 428,73; 8729,566;  226,369;18042,012;47,72882
 429,32; 8801,631;  243,061;18062,110;48,03046
 429,91; 8848,089;  267,446;18083,100;48,16350
 430,50; 8776,814;  241,754;17920,625;48,27831
 431,08; 8744,520;  264,832;17747,215;48,50419
 431,67; 8758,290;  288,217;17636,556;48,82354
 432,26; 8705,509;  309,986;17422,417;49,06096
 432,85; 8601,017;  324,833;17128,614;49,25191
 433,44; 8490,140;  320,987;16755,749;49,70655
 434,03; 8342,572;  345,296;16480,246;49,56493
 434,62; 8144,443;  308,064;16046,651;49,79087
 435,21; 8053,870;  317,833;15877,765;49,71768
 435,79; 8025,813;  302,372;15751,387;49,99309
 436,38; 8006,560;  294,912;15675,802;50,13785
 436,97; 7912,311;  300,296;15600,304;49,75170
 437,56; 7906,749;  306,067;15323,393;50,61275
 438,15; 7893,970;  273,220;15373,984;50,46599
 438,74; 7970,366;  298,836;15367,389;50,91086
 439,33; 7908,611;  276,451;15361,402;50,59453
 439,91; 7968,362;  246,221;15399,475;50,96028
 440,50; 8046,541;  288,375;15516,127;50,94754
 441,09; 8121,738;  282,914;15620,906;51,10724
 441,68; 8097,332;  271,530;15612,087;51,01380
 442,27; 8069,141;  264,530;15579,286;50,96138
 442,86; 8074,030;  248,147;15552,234;51,13590
 443,44; 8127,194;  250,378;15678,991;51,05330
 444,03; 8127,745;  304,147;15667,682;50,92316
 444,62; 8049,581;  254,840;15566,714;50,90651
 445,21; 8005,064;  267,378;15409,568;51,10018
 445,80; 7960,669;  283,763;15283,693;51,17961
 446,39; 7834,050;  275,302;15009,206;51,30174
 446,97; 7775,848;  248,764;14829,512;51,62344
 447,56; 7653,336;  255,150;14607,252;51,54775
 448,15; 7575,030;  262,610;14492,211;51,38879
 448,74; 7493,470;  272,380;14216,047;51,78760
 449,33; 7388,997;  274,919;14100,219;51,45695
 449,91; 7278,947;  264,074;13933,703;51,31722
 450,50; 7203,028;  252,535;13791,595;51,33660
 451,09; 7151,883;  277,458;13653,642;51,39302
 451,68; 7092,962;  287,997;13562,365;51,26395
 452,26; 7047,274;  273,690;13481,292;51,28549
 452,85; 7018,648;  269,382;13355,885;51,57426
 453,44; 6987,075;  284,229;13344,416;51,32274
 454,03; 6994,949;  254,382;13372,846;51,38229
 454,61; 6952,399;  247,998;13295,765;51,38351
 455,20; 7096,808;  282,691;13519,705;51,47775
 455,79; 7054,171;  283,767;13512,989;51,17764
 456,38; 7098,872;  280,307;13621,648;51,10854
 456,97; 7129,596;  273,538;13732,316;50,94116
 457,55; 7123,244;  268,154;13677,764;51,12073
 458,14; 7099,361;  301,384;13571,674;51,22704
 458,73; 7045,338;  287,231;13564,498;50,89983
 459,31; 7070,860;  298,231;13617,316;50,84906
 459,90; 7079,308;  303,154;13699,421;50,58240
 460,49; 7122,337;  320,846;13770,577;50,56971
 461,08; 7161,688;  267,693;13847,103;50,76800
 461,66; 7194,992;  280,154;13949,330;50,58708
 462,25; 7174,725;  286,001;14054,905;50,03103
 462,84; 7226,397;  307,847;14014,453;50,47603
 463,43; 7126,706;  254,541;13985,829;50,04749
 464,01; 7168,505;  283,541;14008,174;50,16501
 464,60; 7094,279;  313,233;13914,776;49,85498
 465,19; 6978,359;  267,541;13666,993;50,08278
 465,77; 6951,825;  277,388;13645,074;49,92963
 466,36; 6911,178;  295,387;13538,028;49,95824
 466,95; 6732,839;  283,541;13268,050;49,66918
 467,53; 6601,593;  282,388;12991,519;49,72177
 468,12; 6422,227;  311,465;12780,764;49,00646
 468,71; 6304,473;  290,695;12519,817;49,17587
 469,29; 6178,986;  271,927;12258,414;49,28098
 469,88; 6074,782;  279,081;12066,171;49,16990
 470,47; 6134,521;  329,082;12242,536;48,73011
 471,06; 6037,707;  302,390;12120,336;48,53057
 471,64; 6096,979;  297,774;12299,895;48,31817
 472,23; 6041,717;  263,698;12297,375;48,01540
 472,81; 6100,298;  283,852;12422,720;47,91588
 473,40; 6145,257;  285,852;12554,271;47,76007
 473,99; 6239,123;  345,699;12738,207;47,55635
 474,57; 6233,226;  291,083;12822,779;47,41691
 475,16; 6332,021;  310,006;12987,369;47,50212
 475,75; 6373,028;  313,622;13064,535;47,52135
 476,33; 6322,150;  318,776;13200,156;46,60505
 476,92; 6346,691;  320,699;13232,959;46,66876
 477,51; 6361,053;  304,238;13274,780;46,69670
 478,09; 6319,784;  297,853;13241,036;46,52589
 478,68; 6292,254;  314,853;13194,701;46,40894
 479,27; 6267,050;  338,237;13286,752;45,78759
 479,85; 6285,847;  304,546;13250,330;46,20270
 480,44; 6306,927;  284,161;13482,359;45,63325
 481,02; 7042,755;  303,085;15318,995;44,88353
 481,61; 7773,535;  322,008;16982,727;44,72513
 482,20; 8244,958;  321,469;17993,988;44,83508
 482,78; 8502,861;  350,777;18693,940;44,44209
 483,37; 8672,143;  328,316;19128,672;44,38122
 483,95; 8776,251;  357,163;19354,782;44,31654
 484,54; 8802,442;  360,623;19489,224;44,13192
 485,13; 8691,070;  334,702;19283,272;44,10026
 485,71; 8585,985;  310,317;19077,145;44,09732
 486,30; 8438,563;  347,548;18842,170;43,74793
 486,88; 8231,336;  367,779;18319,504;43,80391
 487,47; 7867,724;  365,471;17668,607;43,35776
 488,05; 7476,506;  355,318;16738,834;43,46557
 488,64; 6917,879;  360,164;15456,159;43,44009
 489,23; 5993,547;  361,779;13396,604;43,20555
 489,81; 5221,878;  356,010;11829,565;42,40942
 490,40; 4986,291;  319,010;11393,164;42,14572
 490,98; 4860,907;  297,164;11155,449;42,03005
 491,57; 4821,534;  335,010;11071,665;41,78698
 492,15; 4743,800;  318,703;11051,625;41,22919
 492,74; 4707,116;  331,856;10970,659;41,12549
 493,32; 4640,615;  323,087;10811,823;41,16347
 493,91; 4593,602;  310,472;10719,403;41,14860
 494,50; 4548,971;  323,089;10708,045;40,69234
 495,08; 4500,217;  291,704;10712,573;40,38543
 495,67; 4452,123;  322,703;10659,900;39,94720
 496,25; 4391,967;  268,396;10586,039;39,96621
 496,84; 4394,072;  286,395;10522,241;40,13030
 497,42; 4349,762;  277,935;10462,589;39,98003
 498,01; 4332,130;  293,857;10421,051;39,87554
 498,59; 4243,241;  256,319;10385,093;39,36233
 499,18; 4201,857;  281,626;10324,208;39,03608
 499,76; 4175,632;  275,165;10235,417;39,16033
 500,35; 4106,309;  277,858;10074,466;39,07935
 500,93; 4013,884;  263,704;10030,174;38,39852
 501,52; 4021,653;  272,781; 9983,176;38,60679
 502,10; 3985,611;  289,782; 9974,348;38,16205
 502,69; 3869,216;  268,782; 9793,822;37,79967
 503,27; 3784,310;  257,550; 9571,845;37,86395
 503,86; 3759,867;  272,090; 9561,129;37,54723
 504,44; 3665,356;  250,167; 9440,116;37,16221
 505,03; 3563,212;  247,782; 9203,546;37,02006
 505,61; 3496,729;  245,859; 9099,096;36,71956
 506,19; 3452,200;  265,859; 8971,989;36,59881
 506,78; 3342,471;  243,091; 8756,487;36,40592
 507,36; 3289,592;  252,244; 8566,215;36,53306
 507,95; 3223,940;  270,399; 8487,616;35,94333
 508,53; 3168,489;  257,552; 8399,680;35,75155
 509,12; 3117,614;  258,014; 8283,370;35,63206
 509,70; 3064,262;  272,783; 8088,069;35,71819
 510,29; 2985,061;  277,015; 7980,491;35,15356
 510,87; 2892,777;  256,168; 7758,591;35,14343
 511,46; 2802,761;  252,014; 7607,758;34,67694
 512,04; 2766,167;  263,168; 7505,417;34,56107
 512,62; 2731,031;  258,322; 7359,014;34,82350
 513,21; 2600,939;  234,861; 7188,830;34,02486
 513,79; 2613,310;  260,785; 7095,679;34,41933
 514,38; 2506,201;  233,862; 6965,129;33,75797
 514,96; 2488,542;  262,323; 6845,465;33,81696
 515,54; 2401,167;  235,169; 6743,642;33,27967
 516,13; 2409,318;  256,554; 6631,363;33,76986
 516,71; 2311,116;  249,170; 6510,942;32,92911
 517,30; 2253,745;  243,632; 6406,221;32,61800
 517,88; 2255,964;  264,786; 6356,588;32,68619
 518,46; 2168,481;  246,017; 6198,811;32,29515
 519,05; 2182,950;  255,632; 6205,786;32,39105
 519,63; 2154,618;  262,017; 6169,286;32,03852
 520,22; 2095,521;  258,787; 6085,080;31,52492
 520,80; 2070,094;  254,325; 6071,161;31,21574
 521,38; 2062,128;  273,479; 6022,899;31,11008
 521,97; 2031,870;  243,403; 5969,290;31,23477
 522,55; 2031,687;  258,787; 5957,694;31,10947
 523,13; 1994,342;  246,018; 5964,236;30,57463
 523,72; 2002,392;  242,863; 5936,485;30,90351
 524,30; 2024,049;  261,019; 6077,744;30,30968
 524,89; 1995,366;  247,172; 6092,909;29,90545
 525,47; 2037,917;  249,634; 6207,271;30,01665
 526,05; 2005,770;  220,326; 6261,190;29,55609
 526,64; 2060,113;  251,865; 6368,939;29,56067
 527,22; 2055,790;  253,634; 6522,201;28,74910
 527,80; 2148,686;  278,019; 6634,172;29,43082
 528,39; 2117,593;  247,250; 6692,726;29,01791
 528,97; 2158,494;  259,865; 6919,122;28,51113
 529,55; 2204,747;  263,403; 7014,633;28,75541
 530,14; 2259,348;  267,942; 7250,174;28,52104
 530,72; 2251,303;  251,250; 7301,917;28,36687
 531,30; 2247,844;  223,866; 7446,640;28,02217
 531,89; 2298,516;  255,173; 7502,550;28,19424
 532,47; 2323,780;  285,635; 7603,403;27,85201
 533,05; 2330,647;  276,711; 7658,531;27,82425
 533,63; 2323,124;  287,097; 7778,226;27,17918
 534,22; 2320,077;  257,866; 7741,053;27,55793
 534,80; 2331,847;  283,943; 7831,393;27,13372
 535,38; 2380,446;  327,020; 7893,162;27,13967
 535,97; 2304,070;  269,250; 7797,748;27,02823
 536,55; 2350,199;  313,097; 7903,673;26,83725
 537,13; 2325,725;  311,096; 7869,410;26,65447
 537,71; 2370,152;  362,481; 7982,253;26,34818
 538,30; 2376,890;  364,558; 8048,950;26,18726
 538,88; 2393,864;  400,021; 8129,492;25,79533
 539,46; 2480,125;  441,251; 8299,336;25,94620
 540,05; 2526,389;  457,944; 8431,960;25,93981
 540,63; 2561,612;  504,097; 8605,735;25,39628
 541,21; 2592,540;  527,482; 8763,890;25,07231
 541,79; 2627,289;  560,328; 8855,955;24,91627
 542,38; 2681,662;  587,790; 8999,649;24,89191
 542,96; 2705,889;  584,021; 9218,023;24,57572
 543,54; 2742,439;  603,944; 9379,239;24,36949
 544,12; 2741,624;  579,790; 9506,657;24,21716
 544,70; 2736,700;  556,867; 9558,483;24,21602
 545,29; 2799,096;  567,097; 9751,103;24,30311
 545,87; 2771,674;  546,021; 9795,416;24,06269
 546,45; 2704,188;  502,174; 9721,323;23,88522
 547,03; 2710,603;  484,944; 9852,666;23,75881
 547,62; 2724,294;  463,790;10005,440;23,69091
 548,20; 2774,172;  465,098;10194,526;23,73289
 548,78; 2749,686;  430,714;10273,585;23,55991
 549,36; 2757,947;  408,945;10501,640;23,27428
 549,94; 2768,285;  374,944;10664,140;23,26072
 550,53; 2809,174;  380,714;10876,768;23,13689
 551,11; 2830,230;  353,253;11063,969;23,12616
 551,69; 2864,329;  345,176;11348,205;22,89509
 552,27; 2887,627;  321,637;11596,180;22,75915
 552,85; 2966,883;  327,792;11920,405;22,76528
 553,44; 3016,126;  320,945;12230,058;22,63125
 554,02; 3075,437;  332,791;12571,469;22,40966
 554,60; 3084,947;  282,022;12883,928;22,24207
 555,18; 3200,696;  313,637;13266,935;22,28822
 555,76; 3218,216;  301,868;13585,206;21,95493
 556,34; 3301,467;  301,561;14024,638;21,86030
 556,93; 3363,872;  286,868;14331,075;21,90942
 557,51; 3407,065;  283,561;14675,753;21,70277
 558,09; 3508,766;  309,868;15061,248;21,68541
 558,67; 3531,705;  297,100;15338,921;21,50408
 559,25; 3610,344;  318,484;15667,133;21,44723
 559,83; 3608,869;  293,946;15947,559;21,17673
 560,41; 3680,265;  290,638;16300,028;21,17274
 561,00; 3731,417;  290,100;16663,395;21,01787
 561,58; 3767,473;  294,023;16859,272;20,96830
 562,16; 3800,337;  282,792;17198,564;20,79447
 562,74; 3851,467;  261,330;17469,141;20,86341
 563,32; 3929,061;  262,254;17898,073;20,79181
 563,90; 4016,100;  281,177;18331,197;20,69207
 564,48; 4086,139;  297,407;18661,955;20,63068
 565,06; 4211,691;  288,869;19340,160;20,59084
 565,65; 4340,283;  284,178;19949,599;20,62557
 566,23; 4491,139;  326,792;20678,222;20,46218
 566,81; 4577,536;  285,254;21412,415;20,31641
 567,39; 4728,888;  287,562;22234,190;20,23694
 567,97; 4834,783;  301,715;22862,457;20,09272
 568,55; 5027,981;  299,485;23599,638;20,29384
 569,13; 5100,814;  289,331;24319,105;20,02301
 569,71; 5270,297;  290,715;25220,847;19,97415
 570,29; 5520,900;  313,330;26080,774;20,20988
 570,87; 5615,645;  315,945;26772,716;20,03154
 571,45; 5696,395;  318,946;27435,332;19,83099
 572,03; 5738,878;  263,947;27823,993;19,86546
 572,61; 5866,393;  274,177;28535,260;19,78769
 573,20; 5981,529;  294,715;29149,572;19,70834
 573,78; 6092,147;  292,946;29730,040;19,70032
 574,36; 6162,243;  298,946;30153,385;19,63961
 574,94; 6237,636;  324,408;30560,259;19,55701
 575,52; 6242,581;  295,332;30773,665;19,51304
 576,10; 6361,792;  357,101;31384,443;19,35290
 576,68; 6423,079;  330,485;31964,244;19,25978
 577,26; 6511,257;  347,102;32544,527;19,14487
 577,84; 6581,448;  352,716;32928,043;19,12101
 578,42; 6635,044;  378,793;33129,451;19,10267
 579,00; 6578,157;  358,100;33314,085;18,87383
 579,58; 6620,686;  382,947;33482,867;18,84518
 580,16; 6630,004;  365,947;33531,044;18,88750
 580,74; 6600,065;  346,870;33760,209;18,71467
 581,32; 6519,980;  358,331;33807,928;18,42070
 581,90; 6501,493;  372,947;33736,282;18,36910
 582,48; 6507,167;  384,178;33939,242;18,24759
 583,06; 6489,755;  391,178;34076,180;18,10473
 583,64; 6481,001;  370,101;34097,862;18,11831
 584,22; 6441,620;  379,255;33869,154;18,10207
 584,80; 6372,642;  401,639;33647,566;17,96010
 585,38; 6255,532;  385,869;33384,389;17,78765
 585,96; 6240,655;  368,793;33436,601;17,75704
 586,54; 6232,611;  383,870;33576,491;17,62060
 587,12; 6204,891;  355,793;33627,737;17,57967
 587,70; 6222,179;  377,485;33819,381;17,47716
 588,28; 6203,082;  381,563;33897,789;17,36926
 588,86; 6220,140;  373,947;33906,444;17,43441
 589,44; 6147,242;  355,102;34122,593;17,15301
 590,02; 6217,988;  355,717;34262,708;17,28927
 590,59; 6176,562;  341,255;34531,575;17,06713
 591,17; 6164,189;  339,795;34596,049;17,00243
 591,75; 6199,811;  336,487;34831,551;16,99757
 592,33; 6178,286;  358,025;35062,795;16,77078
 592,91; 6217,570;  314,179;35214,946;16,91479
 593,49; 6242,769;  315,795;35574,281;16,81006
 594,07; 6260,796;  323,180;35758,749;16,75609
 594,65; 6227,472;  331,717;35779,713;16,63212
 595,23; 6275,380;  330,948;36117,010;16,61103
 595,81; 6255,143;  317,717;36234,991;16,53084
 596,39; 6247,723;  324,333;36308,221;16,46123
 596,97; 6278,551;  331,179;36680,164;16,36186
 597,55; 6219,773;  308,563;36482,233;16,34120
 598,12; 6199,378;  294,026;36523,492;16,29986
 598,70; 6188,589;  297,487;36596,499;16,22937
 599,28; 6203,157;  313,718;36743,018;16,16677
 599,86; 6216,798;  303,564;36780,898;16,21071
 600,44; 6172,524;  277,256;36927,366;16,08527
 601,02; 6216,788;  325,334;36933,946;16,09308
 601,60; 6173,937;  312,871;36922,159;16,00978
 602,18; 6166,798;  289,103;36981,340;16,01891
 602,75; 6149,620;  275,025;37051,519;15,97378
 603,33; 6130,639;  313,564;37070,800;15,82566
 603,91; 6145,438;  296,488;37072,278;15,90435
 604,49; 6090,574;  310,872;37082,972;15,71763
 605,07; 6120,232;  307,641;37095,449;15,80032
 605,65; 6094,116;  329,872;37204,690;15,63193
 606,23; 6118,882;  394,024;37306,360;15,50934
 606,80; 6095,369;  422,640;37310,506;15,37831
 607,38; 6115,074;  461,641;37379,826;15,31341
 607,96; 6099,550;  492,640;37482,436;15,15799
 608,54; 6122,327;  556,487;37526,139;15,05516
 609,12; 6080,707;  554,717;37539,794;14,94113
 609,70; 6066,873;  585,872;37571,002;14,81947
 610,27; 6055,988;  597,563;37680,862;14,71936
 610,85; 6112,466;  587,025;37716,631;14,88150
 611,43; 6091,502;  604,102;37724,916;14,78254
 612,01; 5982,650;  570,794;37411,170;14,69001
 612,59; 5974,324;  551,795;37424,572;14,70605
 613,16; 5913,794;  531,255;37421,628;14,59063
 613,74; 5882,207;  505,718;37292,857;14,61513
 614,32; 5832,329;  468,026;37273,882;14,57459
 614,90; 5798,098;  428,102;37115,233;14,63727
 615,48; 5733,014;  383,332;36769,585;14,70248
 616,05; 5713,884;  373,409;36769,797;14,67309
 616,63; 5616,523;  379,947;36526,855;14,48693
 617,21; 5644,747;  381,948;36544,048;14,55336
 617,79; 5549,147;  352,025;36390,400;14,42108
 618,36; 5544,751;  360,717;36369,821;14,39645
 618,94; 5425,951;  310,332;36014,423;14,32782
 619,52; 5431,654;  339,255;35777,641;14,36973
 620,10; 5363,371;  320,794;35728,557;14,24145
 620,67; 5378,399;  328,255;35576,143;14,32751
 621,25; 5320,466;  334,564;35564,884;14,15230
 621,83; 5288,269;  327,948;35450,545;14,12288
 622,41; 5297,324;  357,486;35413,328;14,09134
 622,98; 5249,473;  339,486;35204,247;14,08295
 623,56; 5207,938;  327,639;35200,449;13,99457
 624,14; 5182,586;  305,564;35064,166;14,03112
 624,72; 5151,306;  324,409;34963,520;13,93482
 625,29; 5053,045;  296,716;35012,737;13,70067
 625,87; 5131,860;  345,871;34931,181;13,83821
 626,45; 5060,872;  298,870;34875,107;13,77247
 627,02; 5016,373;  311,717;34781,840;13,64850
 627,60; 5029,320;  294,949;34693,450;13,76331
 628,18; 4965,091;  284,332;34841,641;13,54492
 628,76; 4985,150;  283,332;34808,566;13,61850
 629,33; 4998,131;  313,178;34893,070;13,54820
 629,91; 4941,218;  300,871;34831,480;13,43836
 630,49; 4958,988;  319,024;34971,804;13,38987
 631,06; 4986,145;  313,178;35078,391;13,44150
 631,64; 4944,087;  313,101;35084,502;13,31838
 632,22; 4911,759;  271,947;34986,358;13,36567
 632,79; 4935,558;  299,408;35208,261;13,28073
 633,37; 4917,632;  278,794;35387,977;13,21261
 633,95; 4885,495;  289,409;35393,024;13,09291
 634,52; 4935,487;  282,025;35503,450;13,21202
 635,10; 4903,270;  286,256;35479,828;13,11891
 635,68; 4919,077;  284,408;35690,864;13,08990
 636,25; 4892,787;  283,639;35719,615;13,00697
 636,83; 4925,381;  254,486;35938,950;13,08944
 637,41; 4890,549;  273,793;36007,906;12,91975
 637,98; 4886,430;  286,562;36122,062;12,83607
 638,56; 4883,277;  289,485;36144,850;12,81201
 639,13; 4915,769;  275,024;36255,306;12,89802
 639,71; 4924,118;  289,255;36347,691;12,85375
 640,29; 4852,509;  252,717;36144,876;12,81559
 640,86; 4880,413;  266,024;36367,752;12,78163
 641,44; 4866,317;  271,563;36536,705;12,66989
 642,02; 4849,451;  292,486;36372,811;12,63006
 642,59; 4813,201;  263,409;36518,918;12,54924
 643,17; 4799,259;  266,409;36512,332;12,50582
 643,74; 4795,778;  264,255;36535,361;12,49348
 644,32; 4814,220;  285,563;36407,237;12,53723
 644,89; 4766,508;  275,794;36465,728;12,40874
 645,47; 4755,720;  301,871;36483,373;12,30974
 646,05; 4740,546;  260,255;36403,864;12,39580
 646,62; 4717,066;  277,101;36363,509;12,30370
 647,20; 4710,354;  272,255;36558,616;12,23076
 647,77; 4656,488;  258,486;36456,645;12,14980
 648,35; 4626,546;  242,025;36263,675;12,17191
 648,92; 4626,219;  285,255;36337,166;12,04087
 649,50; 4583,123;  244,948;36268,195;12,04271
 650,08; 4543,334;  240,102;36146,610;11,98455
 650,65; 4592,623;  255,794;36414,178;11,99398
 651,23; 4664,372;  235,871;37371,361;11,92525
 651,80; 4807,507;  253,025;38148,083;12,01867
 652,38; 4811,641;  263,871;38457,651;11,90710
 652,95; 4826,084;  222,256;38802,373;11,93316
 653,53; 4866,526;  258,332;39008,787;11,89197
 654,10; 4880,507;  276,563;39204,201;11,82693
 654,68; 4803,410;  240,948;38966,692;11,78147
 655,25; 4797,622;  238,563;39112,645;11,72776
 655,83; 4794,295;  250,640;39190,136;11,66850
 656,40; 4780,198;  276,025;39135,781;11,59084
 656,98; 4750,794;  251,794;39020,118;11,60484
 657,55; 4763,083;  260,717;38890,378;11,65520
 658,13; 4650,910;  243,563;38524,331;11,51321
 658,70; 4612,890;  259,871;38232,130;11,46368
 659,28; 4458,102;  244,794;37292,775;11,37257
 659,85; 4354,698;  256,794;36790,035;11,21692
 660,43; 4396,063;  272,640;36842,603;11,27544
 661,00; 4388,736;  245,640;37033,940;11,26199
 661,58; 4404,563;  244,179;37265,047;11,23794
 662,15; 4423,236;  230,871;37462,615;11,26019
 662,73; 4459,601;  290,794;37841,644;11,10176
 663,30; 4423,736;  252,948;37984,905;11,05373
 663,88; 4451,716;  258,256;38130,242;11,07272
 664,45; 4436,697;  250,256;38406,348;10,97188
 665,03; 4467,293;  256,641;38698,147;10,95340
 665,60; 4573,735;  297,564;39203,331;10,99110
 666,17; 4513,100;  266,641;39281,899;10,88410
 666,75; 4533,004;  254,641;39616,928;10,86919
 667,32; 4546,139;  268,641;39890,496;10,79580
 667,90; 4543,966;  262,025;40139,218;10,73782
 668,47; 4587,946;  268,795;40390,171;10,76521
 669,05; 4577,004;  255,641;40646,662;10,69882
 669,62; 4578,677;  234,564;40704,076;10,73429
 670,19; 4590,965;  237,410;40810,644;10,73012
 670,77; 4606,177;  262,718;41151,673;10,62257
 671,34; 4572,234;  246,641;40857,242;10,65139
 671,92; 4587,215;  245,256;41280,040;10,58117
 672,49; 4593,888;  272,102;41219,916;10,55437
 673,06; 4540,253;  225,025;41408,792;10,47798
 673,64; 4576,849;  242,025;41259,590;10,56821
 674,21; 4536,137;  234,564;41124,928;10,51977
 674,79; 4570,580;  257,102;41488,803;10,46156
 675,36; 4587,560;  257,872;41607,218;10,47100
 675,93; 4574,079;  242,872;41375,786;10,52979
 676,51; 4593,445;  257,026;41598,277;10,48933
 677,08; 4572,887;  257,872;41691,614;10,41425
 677,65; 4594,021;  263,487;41835,490;10,41695
 678,23; 4615,617;  253,103;42044,519;10,43878
 678,80; 4588,829;  242,487;42217,241;10,35466
 679,38; 4583,579;  235,641;42347,194;10,32481
 679,95; 4626,790;  248,103;42539,377;10,35364
 680,52; 4621,617;  244,564;42854,099;10,27247
 681,10; 4700,521;  248,872;43315,513;10,33665
 681,67; 4682,348;  255,564;43660,697;10,19876
 682,24; 4730,405;  232,487;43679,341;10,35269
 682,82; 4706,924;  222,718;44193,833;10,19807
 683,39; 4799,443;  273,487;44550,170;10,22199
 683,96; 4817,270;  240,180;44680,738;10,29935
 684,54; 4830,482;  228,257;45008,767;10,27729
 685,11; 4863,847;  250,872;45270,951;10,24648
 685,68; 4896,058;  237,718;45817,903;10,22010
 686,25; 4888,962;  217,949;45772,625;10,25364
 686,83; 4874,712;  234,103;45986,347;10,14291
 687,40; 4915,462;  218,026;46307,454;10,19200
 687,97; 4965,904;  260,872;46582,099;10,15740
 688,55; 4938,423;  213,641;46655,128;10,17362
 689,12; 4905,404;  199,257;46942,311;10,06812
 689,69; 4989,000;  228,411;46987,956;10,18100
 690,26; 4973,827;  235,949;47032,909;10,12433
 690,84; 5011,500;  235,565;47260,939;10,15608
 691,41; 4998,403;  252,103;47316,584;10,08468
 691,98; 5047,153;  247,642;47707,075;10,11287
 692,56; 4976,673;  220,334;47711,873;10,01513
 693,13; 5057,576;  292,334;47773,518;10,03606
 693,70; 5025,326;  253,949;47925,240;10,00891
 694,27; 5050,768;  242,334;48087,116;10,05007
 694,84; 5070,826;  236,642;48209,453;10,07693
 695,42; 5057,268;  271,334;48307,867; 9,96311
 695,99; 5089,403;  247,872;48456,051;10,04296
 696,56; 5042,614;  234,872;48261,926;10,01049
 697,13; 5096,749;  257,488;48843,418; 9,96021
 697,71; 5077,037;  215,642;48735,832;10,01932
 698,28; 5126,556;  241,642;49050,630;10,00823
 698,85; 5090,460;  212,719;49156,506; 9,96601
 699,42; 5093,210;  222,257;49245,382; 9,93603
 699,99; 5184,421;  253,796;49343,334;10,04415
 700,57; 5156,479;  253,488;49435,518; 9,96907
 701,14; 5166,075;  234,257;49521,394;10,00630
 701,71; 5212,671;  255,180;49731,731;10,01988
 702,28; 5188,344;  237,334;49772,991; 9,99484
 702,85; 5208,709;  254,873;49842,713; 9,99002
 703,43; 5262,074;  261,950;50054,896;10,04183
 704,00; 5261,440;  272,411;50188,695; 9,99479
 704,57; 5267,574;  256,411;50230,186;10,02759
 705,14; 5330,247;  285,796;50395,370;10,06684
 705,71; 5354,151;  281,104;50459,630;10,11000
 706,28; 5292,131;  258,411;50428,660;10,03328
 706,86; 5325,651;  286,411;50726,766; 9,99049
 707,43; 5333,477;  288,411;50512,180;10,04518
 708,00; 5334,381;  274,104;50540,825;10,06685
 708,57; 5283,900;  254,411;50508,932;10,00803
 709,14; 5325,112;  275,258;50590,423;10,03645
 709,71; 5382,554;  266,565;50679,606;10,14815
 710,28; 5367,842;  247,258;50823,636;10,12446
 710,86; 5415,746;  264,565;51017,127;10,14960
 711,43; 5459,727;  275,796;50994,079;10,22103
 712,00; 5417,015;  260,258;51132,340;10,13671
 712,57; 5462,303;  260,873;51295,138;10,19204
 713,14; 5465,438;  252,719;51329,091;10,20573
 713,71; 5473,111;  271,488;51252,813;10,20300
 714,28; 5497,015;  258,412;51254,227;10,27261
 714,85; 5431,303;  238,412;51039,257;10,22206
 715,42; 5481,668;  245,027;51211,517;10,27468
 716,00; 5547,726;  276,412;51335,470;10,32396
 716,57; 5512,707;  237,796;51470,884;10,29591
 717,14; 5512,995;  236,412;51438,760;10,30535
 717,71; 5549,745;  223,796;51422,481;10,40251
 718,28; 5563,418;  252,181;51575,819;10,34852
 718,85; 5545,014;  231,642;51546,233;10,35450
 719,42; 5599,148;  255,181;51709,262;10,38590
 719,99; 5590,360;  242,181;51471,138;10,43976
 720,56; 5596,725;  249,643;51755,014;10,38160
 721,13; 5590,475;  235,643;51894,043;10,36585
 721,70; 5564,379;  234,027;51750,381;10,34691
 722,27; 5600,975;  250,104;51793,949;10,38120
 722,84; 5637,109;  272,643;51888,132;10,39313
 723,41; 5627,859;  228,489;51968,700;10,43554
 723,98; 5618,917;  248,873;52073,037;10,36205
 724,55; 5697,128;  271,104;52246,298;10,43964
 725,12; 5631,647;  200,104;52149,404;10,45547
 725,69; 5721,013;  231,797;52368,510;10,52850
 726,27; 5722,378;  243,181;52399,925;10,50525
 726,84; 5766,435;  241,181;52682,800;10,53601
 727,41; 5773,493;  256,412;52616,445;10,53682
 727,98; 5821,935;  265,027;53006,783;10,53607
 728,55; 5848,454;  280,412;52754,504;10,61103
 729,12; 5845,358;  221,643;52956,995;10,66403
 729,69; 5904,108;  261,335;53028,102;10,69380
 730,26; 5920,089;  262,720;53308,132;10,66514
 730,82; 5893,454;  254,797;53184,930;10,65302
 731,39; 5880,204;  236,566;53269,883;10,64168
 731,96; 5987,031;  228,412;53613,451;10,78695
 732,53; 6018,780;  252,412;53726,096;10,78356
 733,10; 6024,838;  261,951;53735,510;10,77708
 733,67; 6056,973;  255,951;54002,232;10,79335
 734,24; 6048,030;  237,643;53779,877;10,85197
 734,81; 6077,549;  265,181;53850,753;10,84689
 735,38; 6033,530;  258,335;53510,782;10,84494
 735,95; 6060,895;  251,028;53377,735;10,93587
 736,52; 6087,876;  263,643;53533,995;10,93335
 737,09; 6061,395;  260,720;53275,486;10,94162
 737,66; 6123,683;  297,720;53398,131;10,97160
 738,23; 6121,895;  249,028;53464,545;11,03600
 738,80; 6170,491;  284,643;53748,344;11,00905
 739,37; 6194,087;  275,182;53944,066;11,02856
 739,94; 6196,606;  263,182;54030,865;11,03530
 740,51; 6232,356;  307,643;53980,971;11,03847
 741,07; 6260,721;  245,643;53904,231;11,20991
 741,64; 6286,933;  277,951;54078,415;11,16901
 742,21; 6323,759;  252,105;54203,291;11,25398
 742,78; 6262,817;  229,336;54034,166;11,21364
 743,35; 6287,182;  249,105;54354,427;11,15986
 743,92; 6365,240;  274,566;54428,995;11,24686
 744,49; 6357,374;  250,874;54328,024;11,29220
 745,06; 6348,278;  244,182;54277,669;11,29688
 745,63; 6404,874;  237,336;54250,699;11,41854
 746,19; 6377,932;  236,105;54194,728;11,38247
 746,76; 6432,066;  255,643;54330,604;11,42196
 747,33; 6429,739;  237,951;54267,557;11,45999
 747,90; 6464,874;  270,951;54414,971;11,43972
 748,47; 6490,931;  260,105;54308,077;11,52833
 749,04; 6508,143;  255,644;54397,414;11,54838
 749,61; 6512,970;  274,951;54310,367;11,54431
 750,17; 6560,873;  269,259;54364,627;11,63060
 750,74; 6561,700;  275,644;54258,734;11,64449
 751,31; 6539,450;  239,721;54096,533;11,69718
 751,88; 6568,661;  231,105;54064,639;11,77251
 752,45; 6619,796;  249,490;54176,976;11,81273
 753,02; 6588,854;  247,567;54046,467;11,78702
 753,58; 6596,450;  244,721;53948,882;11,82726
 754,15; 6661,892;  248,413;54144,373;11,89974
 754,72; 6649,180;  232,413;53798,941;11,97906
 755,29; 6629,776;  235,644;53757,740;11,94672
 755,86; 6669,526;  244,182;53816,692;11,99373
 756,42; 6707,738;  248,259;53672,491;12,09091
 756,99; 6669,026;  213,952;53711,059;12,06621
 757,56; 6694,699;  218,875;53750,550;12,09718
 758,13; 6719,141;  189,952;53569,118;12,23172
 758,70; 6795,506;  207,798;53646,840;12,32752
 759,26; 6847,256;  187,567;53640,716;12,45893
 759,83; 6835,929;  202,259;53748,745;12,38862
 760,40; 6873,141;  191,721;53546,698;12,52258
 760,97; 6833,121;  194,875;53715,727;12,40310
 761,53; 6826,256;  177,490;53277,603;12,52119
 762,10; 6870,929;  172,106;53148,171;12,64500
 762,67; 6905,448;  214,029;53222,970;12,62319
 763,24; 6866,813;  166,567;52805,846;12,72861
 763,80; 6923,332;  194,721;52941,721;12,75639
 764,37; 6878,390;  203,798;52877,366;12,67162
 764,94; 6836,909;  188,875;52464,165;12,71735
 765,50; 6906,890;  185,952;52357,502;12,88238
 766,07; 6944,870;  226,336;52546,686;12,84115
 766,64; 6876,466;  212,413;52185,331;12,82216
 767,21; 6895,678;  208,490;51985,437;12,91538
 767,77; 6954,889;  231,183;51931,005;13,00528
 768,34; 6897,870;  230,952;51842,265;12,91755
 768,91; 6907,774;  231,798;51800,064;12,94590
 769,47; 6936,370;  230,875;51802,248;13,00236
 770,04; 6981,427;  240,029;51611,662;13,12280
 770,61; 6946,793;  220,106;51433,768;13,13456
 771,18; 6982,542;  215,183;51327,798;13,24010
 771,74; 7036,523;  230,798;51420,135;13,29520
 772,31; 6999,888;  233,029;51218,472;13,27214
 772,88; 7016,638;  216,029;51003,425;13,39035
 773,44; 7016,619;  213,568;50748,993;13,46195
 774,01; 7086,215;  230,260;50902,484;13,53001
 774,58; 7089,119;  218,798;50579,206;13,64231
 775,14; 7157,715;  220,029;50682,466;13,74822
 775,71; 7159,695;  218,260;50524,496;13,79836
 776,27; 7219,138;  253,645;50421,141;13,88447
 776,84; 7302,195;  263,568;50475,786;14,01776
 777,41; 7284,176;  229,952;50344,431;14,07622
 777,97; 7243,387;  218,722;50052,460;14,09620
 778,54; 7282,060;  234,183;50233,643;14,09591
 779,11; 7325,503;  247,183;50042,365;14,21487
 779,67; 7344,022;  216,491;50041,703;14,30507
 780,24; 7305,925;  231,106;49856,655;14,25640
 780,80; 7397,060;  252,029;49890,146;14,39424
 781,37; 7432,733;  245,568;49794,560;14,50517
 781,94; 7406,175;  230,568;49558,513;14,54674
 782,50; 7476,002;  237,337;49458,312;14,70646
 783,07; 7490,752;  259,029;49630,418;14,64760
 783,63; 7482,117;  217,799;49306,063;14,79848
 784,20; 7516,790;  246,106;49188,324;14,85565
 784,77; 7533,617;  242,260;49076,661;14,93078
 785,33; 7512,059;  219,568;48788,613;15,01469
 785,90; 7601,963;  232,568;48798,105;15,17412
 786,46; 7640,405;  249,953;48682,596;15,25924
 787,03; 7623,540;  224,568;48553,087;15,30974
 787,59; 7614,366;  223,183;48395,347;15,34327
 788,16; 7646,193;  242,876;48427,223;15,36457
 788,73; 7680,635;  252,491;48291,714;15,46267
 789,29; 7671,924;  230,260;47965,820;15,58935
 789,86; 7705,827;  242,107;47806,696;15,69176
 790,42; 7757,347;  237,799;47782,187;15,81585
 790,99; 7737,173;  249,953;47390,371;15,88281
 791,55; 7774,693;  225,491;47342,708;16,02217
 792,12; 7801,289;  242,184;47204,276;16,09618
 792,68; 7817,192;  239,491;46999,536;16,20550
 793,25; 7840,481;  241,568;46866,873;16,29783
 793,81; 7779,692;  265,645;46431,134;16,27633
 794,38; 7761,904;  213,568;46336,240;16,36578
 794,94; 7838,500;  216,645;46150,500;16,59311
 795,51; 7873,019;  239,876;45838,453;16,73987
 796,07; 7848,538;  240,414;45637,944;16,75889
 796,64; 7897,134;  255,953;45735,589;16,80132
 797,20; 7849,115;  247,645;45281,619;16,87941
 797,77; 7786,095;  222,030;44940,187;16,91498
 798,33; 7785,230;  221,645;44821,370;16,95881
 798,90; 7864,287;  262,415;44707,323;17,10404
 799,46; 7789,653;  224,492;44268,429;17,17640
 800,03; 7809,402;  231,953;44114,074;17,26774
 800,59; 7805,306;  238,568;43861,873;17,34563
 801,15; 7794,979;  244,030;43687,826;17,38096
 801,72; 7768,268;  242,722;43469,163;17,40959
 802,28; 7785,940;  262,722;43109,500;17,55842
 802,85; 7746,921;  235,722;42915,376;17,59902
 803,41; 7789,979;  236,261;42795,098;17,74888
 803,98; 7729,652;  225,646;42440,819;17,77561
 804,54; 7760,017;  239,107;42121,003;17,95742
 805,11; 7793,228;  244,415;42022,186;18,06897
 805,67; 7798,286;  254,030;41902,985;18,11391
 806,23; 7784,959;  243,261;41480,399;18,28861
 806,80; 7833,940;  250,030;41395,736;18,43184
 807,36; 7837,920;  263,799;41287,997;18,46257
 807,93; 7854,055;  251,261;41077,488;18,62233
 808,49; 7800,651;  222,492;40710,748;18,71693
 809,05; 7771,939;  213,261;40645,932;18,69448
 809,62; 7855,920;  234,030;40570,884;18,89560
 810,18; 7838,977;  242,492;40343,606;18,94333
 810,74; 7844,189;  213,184;40125,251;19,11954
 811,31; 7863,939;  207,646;39957,281;19,26129
 811,87; 7941,458;  211,338;39817,618;19,51741
 812,44; 7978,439;  259,030;39809,417;19,51791
 813,00; 7909,188;  195,030;39443,523;19,65466
 813,56; 7971,246;  242,415;39555,706;19,65959
 814,13; 7994,996;  236,107;39380,582;19,82116
 814,69; 8010,669;  236,261;39266,612;19,91888
 815,25; 7934,957;  204,723;38783,410;20,03758
 815,82; 7954,630;  248,107;38800,979;19,98949
 816,38; 8014,226;  249,031;38621,393;20,23643
 816,94; 7922,284;  211,338;38295,038;20,24736
 817,51; 7921,572;  212,415;38056,606;20,37078
 818,07; 7909,322;  224,646;37847,327;20,42565
 818,63; 7941,534;  240,415;37617,588;20,60380
 819,20; 7970,745;  231,108;37646,156;20,68589
 819,76; 7909,880;  209,415;37148,185;20,84656
 820,32; 7957,706;  261,492;37058,984;20,91505
 820,89; 7952,149;  254,108;36890,706;21,01189
 821,45; 7879,360;  214,800;36627,120;21,04936
 822,01; 7908,648;  239,185;36344,227;21,24208
 822,57; 7958,552;  233,492;36234,410;21,45795
 823,14; 7845,917;  204,646;36094,517;21,29089
 823,70; 7870,667;  215,262;35798,777;21,51391
 824,26; 7828,725;  217,877;35647,422;21,48164
 824,82; 7879,321;  230,108;35519,682;21,67556
 825,39; 7857,609;  217,185;35304,481;21,77547
 825,95; 7927,744;  245,646;35297,972;21,91608
 826,51; 7871,955;  240,569;34839,155;22,05693
 827,08; 7922,013;  264,877;35037,800;22,02040
 827,64; 7889,070;  235,954;34721,445;22,19228
 828,20; 7878,282;  213,800;34453,167;22,38500
 828,76; 7918,109;  244,108;34526,581;22,38462
 829,32; 7874,089;  236,877;34258,919;22,44784
 829,89; 7829,608;  209,646;34195,333;22,42109
 830,45; 7865,358;  228,031;34079,901;22,56102
 831,01; 7874,185;  210,262;33996,161;22,68379
 831,57; 7826,473;  232,647;33860,498;22,58196
 832,14; 7887,300;  225,647;33830,066;22,79954
 832,70; 7843,896;  215,185;33656,865;22,81199
 833,26; 7849,031;  202,493;33467,972;22,98641
 833,82; 7844,550;  221,800;33428,155;22,95570
 834,38; 7919,608;  214,416;33497,800;23,15027
 834,95; 7864,665;  214,262;33343,599;23,09253
 835,51; 7876,877;  190,262;33138,474;23,32938
 836,07; 7943,319;  227,262;33274,196;23,34878
 836,63; 8023,838;  230,954;33193,533;23,64161
 837,19; 7988,972;  218,801;32938,717;23,74753
 837,75; 7901,492;  188,647;32749,054;23,68780
 838,32; 8054,549;  240,185;32824,314;23,98212
 838,88; 8070,222;  239,493;32837,190;24,02234
 839,44; 8089,433;  222,570;32724,989;24,20393
 840,00; 8064,722;  227,801;32701,249;24,13332
 840,56; 8063,933;  212,262;32495,586;24,32114
 841,12; 8052,683;  203,339;32331,385;24,43144
 841,68; 7997,202;  194,416;32177,261;24,39679
 842,25; 8013,568;  201,647;32197,137;24,41569
 842,81; 8049,702;  205,416;31977,935;24,68890
 843,37; 8037,837;  196,878;31961,965;24,68420
 843,93; 8064,663;  203,416;31936,764;24,77283
 844,49; 8072,106;  215,724;31937,563;24,76648
 845,05; 8041,009;  183,493;31775,131;24,87214
 845,61; 8110,221;  226,262;31838,160;24,93985
 846,17; 8081,740;  219,493;31653,344;25,01204
 846,73; 8090,259;  229,493;31543,681;25,10289
 847,29; 8104,855;  189,262;31464,326;25,30960
 847,86; 8062,374;  199,493;31337,586;25,25165
 848,42; 8135,509;  189,724;31205,462;25,61856
 848,98; 8167,951;  208,339;31137,261;25,73517
 849,54; 8155,393;  203,416;31192,752;25,66037
 850,10; 8170,297;  206,724;30940,704;25,91130
 850,66; 8127,662;  200,109;30774,272;25,92893
 851,22; 8150,104;  202,801;30788,379;25,98383
 851,78; 8199,470;  228,340;30870,562;26,01355
 852,34; 8155,296;  215,263;30637,361;26,09956
 852,90; 8167,200;  209,801;30447,237;26,31638
 853,46; 8137,565;  206,263;30321,343;26,33665
 854,02; 8227,315;  222,417;30400,142;26,52585
 854,58; 8160,065;  206,570;30024,864;26,67321
 855,14; 8182,738;  193,109;29942,124;26,85679
 855,70; 8131,796;  176,724;29833,923;26,82341
 856,26; 8178,315;  222,955;29809,875;26,88810
 856,82; 8180,911;  192,263;29631,982;27,13561
 857,38; 8164,045;  225,801;29541,319;27,07864
 857,94; 8188,180;  212,032;29512,733;27,22170
 858,50; 8172,315;  213,263;29401,994;27,26755
 859,06; 8162,603;  203,955;29174,869;27,47117
 859,62; 8140,199;  218,801;29136,591;27,39282
 860,18; 8133,180;  213,032;28933,390;27,57677
 860,74; 8127,853;  169,571;28844,727;27,75323
 861,30; 8081,141;  185,648;28604,757;27,78234
 861,86; 8117,891;  218,648;28699,248;27,73552
 862,42; 8068,179;  203,571;28560,970;27,73388
 862,98; 8149,468;  222,802;28505,769;28,02629
 863,54; 8101,448;  221,032;28284,183;28,08101
 864,10; 8133,352;  215,417;28338,366;28,15471
 864,66; 8138,640;  191,417;28138,473;28,43671
 865,22; 8086,775;  206,340;27941,579;28,41308
 865,78; 8092,909;  209,571;27853,762;28,51716
 866,34; 8135,813;  205,263;27816,484;28,72220
 866,90; 8141,948;  213,648;27697,591;28,84702
 867,45; 8110,005;  225,571;27458,851;28,95147
 868,01; 8057,370;  208,879;27301,496;28,96912
 868,57; 8042,120;  216,186;27160,064;29,04531
 869,13; 8053,178;  200,494;27059,632;29,23654
 869,69; 8013,159;  214,725;26940,662;29,17927
 870,25; 8071,139;  195,186;26880,845;29,51380
 870,81; 8014,120;  212,033;26829,952;29,31141
 871,37; 7981,639;  213,956;26673,904;29,35638
 871,93; 7998,543;  218,110;26586,318;29,50687
 872,49; 7919,446;  210,956;26263,656;29,58807
 873,04; 7902,812;  195,110;26154,377;29,69152
 873,60; 7846,869;  186,648;26029,099;29,64201
 874,16; 7895,158;  218,956;26023,513;29,74747
 874,72; 7874,312;  195,956;25841,129;29,94074
 875,28; 7909,388;  220,802;25912,821;29,92597
 875,84; 7881,542;  197,110;25677,667;30,15802
 876,40; 7907,004;  202,879;25768,744;30,13442
 876,95; 7927,158;  214,110;25704,360;30,25882
 877,51; 7963,158;  227,571;25639,206;30,44112
 878,07; 8015,388;  244,110;25657,975;30,57889
 878,63; 7987,158;  203,648;25651,360;30,58629
 879,19; 8090,542;  218,340;25695,052;30,89960
 879,75; 8082,465;  206,725;25729,052;30,85824
 880,30; 8131,542;  200,494;25758,206;31,03192
 880,86; 8270,158;  244,956;25900,437;31,28065
 881,42; 8205,158;  200,417;25944,283;31,09378
 881,98; 8295,004;  219,340;25919,437;31,42270
 882,54; 8350,081;  198,187;26137,667;31,42659
 883,09; 8364,004;  221,802;26160,744;31,38988
 883,65; 8430,927;  200,725;26201,975;31,65310
 884,21; 8498,465;  232,417;26420,821;31,56377
 884,77; 8519,773;  214,571;26508,437;31,58608
 885,32; 8554,696;  219,417;26620,283;31,57199
 885,88; 8712,004;  249,110;26783,667;31,89386
 886,44; 8734,312;  215,340;26951,206;31,86346
 887,00; 8738,004;  223,417;26868,513;31,95555
 887,56; 8779,696;  211,340;26938,052;32,05915
 888,11; 8843,004;  207,956;27005,513;32,22327
 888,67; 8937,312;  242,571;27206,667;32,24562
 889,23; 8934,235;  220,648;27159,206;32,34615
 889,79; 8854,542;  205,494;27040,898;32,22999
 890,34; 8898,388;  216,263;27020,898;32,39039
 890,90; 9046,312;  262,110;27093,898;32,73804
 891,46; 9018,465;  204,263;27036,590;32,84919
 892,01; 9006,927;  230,110;26989,667;32,79881
 892,57; 9044,388;  237,879;26907,590;33,02064
 893,13; 8969,158;  205,956;26723,206;33,04717
 893,69; 8974,235;  211,648;26735,975;33,03604
 894,24; 8987,312;  222,340;26588,437;33,24334
 894,80; 8960,081;  226,263;26441,360;33,31598
 895,36; 8901,312;  214,879;26394,590;33,18002
 895,91; 8855,312;  206,263;26173,744;33,30723
 896,47; 8824,696;  221,110;26024,360;33,34303
 897,03; 8785,158;  209,648;25893,975;33,38810
 897,58; 8789,773;  224,340;25703,206;33,61779
 898,14; 8809,235;  217,879;25519,437;33,95584
 898,70; 8768,696;  189,033;25415,206;34,01096
 899,25; 8774,235;  209,494;25394,667;34,00707
 899,81; 8734,158;  227,571;25239,590;34,01000
 900,37; 8702,388;  186,571;24999,821;34,31964
 900,92; 8726,696;  213,571;24986,898;34,36408
 901,48; 8719,619;  193,879;24784,667;34,67046
 902,03; 8707,850;  212,725;24677,206;34,72432
 902,59; 8669,696;  206,110;24592,975;34,70551
 903,15; 8673,312;  228,033;24452,513;34,86258
 903,70; 8549,619;  215,187;24229,513;34,70608
 904,26; 8562,388;  196,110;24163,821;34,90646
 904,82; 8600,235;  213,725;24170,129;35,00738
 905,37; 8530,081;  222,725;23949,513;35,01256
 905,93; 8413,927;  194,110;23913,360;34,65463
 906,48; 8438,619;  214,263;23811,283;34,85337
 907,04; 8488,465;  231,802;23793,513;35,04272
 907,60; 8395,542;  197,494;23544,744;35,11355
 908,15; 8355,081;  201,879;23446,821;35,07517
 908,71; 8392,465;  233,263;23399,129;35,22079
 909,26; 8346,312;  199,187;23244,744;35,35226
 909,82; 8299,850;  233,110;23115,283;35,25338
 910,37; 8325,465;  245,648;23032,437;35,45834
 910,93; 8261,696;  208,879;22863,052;35,54673
 911,48; 8217,388;  195,263;22746,513;35,57286
 912,04; 8166,312;  199,494;22630,129;35,51757
 912,60; 8182,312;  218,571;22609,821;35,56631
 913,15; 8157,542;  213,263;22461,283;35,70780
 913,71; 8119,312;  211,494;22301,667;35,79790
 914,26; 8097,619;  195,648;22222,590;35,87412
 914,82; 8099,927;  217,725;22144,975;35,94706
 915,37; 8087,081;  200,725;22062,898;36,07306
 915,93; 8118,081;  247,648;21986,283;36,20482
 916,48; 8064,542;  206,725;21832,206;36,33592
 917,04; 8074,773;  222,725;21693,283;36,57123
 917,59; 8078,773;  236,263;21655,975;36,61352
 918,15; 8003,388;  188,110;21457,206;36,74476
 918,70; 8009,619;  198,033;21383,744;36,87196
 919,26; 7987,773;  209,187;21347,975;36,79769
 919,81; 7970,850;  201,494;21164,744;37,06179
 920,37; 7976,927;  197,417;20969,360;37,45201
 920,92; 7974,927;  220,956;21054,821;37,21811
 921,48; 7914,312;  194,571;20816,898;37,43390
 922,03; 7910,004;  206,417;20802,437;37,40328
 922,59; 7888,542;  200,033;20617,129;37,65721
 923,14; 7894,312;  185,956;20435,821;38,06621
 923,69; 7896,158;  213,802;20427,360;38,00596
 924,25; 7919,465;  213,187;20355,052;38,26001
 924,80; 7830,927;  215,494;20264,898;37,98334
 925,36; 7808,158;  211,340;20125,667;38,14750
 925,91; 7771,773;  206,571;20017,821;38,18639
 926,47; 7747,773;  194,417;19930,129;38,27253
 927,02; 7692,388;  220,725;19821,821;38,11860
 927,57; 7593,158;  207,033;19709,206;37,87334
 928,13; 7588,773;  198,571;19656,437;37,98054
 928,68; 7557,235;  192,187;19530,898;38,08448
 929,24; 7529,696;  177,340;19394,052;38,26022
 929,79; 7491,312;  195,956;19279,052;38,22941
 930,34; 7457,465;  205,033;19124,206;38,33377
 930,90; 7458,542;  194,340;19078,590;38,46699
 931,45; 7503,312;  207,956;19046,590;38,72550
 932,01; 7469,927;  210,263;18951,052;38,73724
 932,56; 7435,158;  221,033;18812,052;38,80435
 933,11; 7498,235;  222,648;18800,513;39,16266
 933,67; 7427,773;  195,340;18585,206;39,32836
 934,22; 7447,850;  203,879;18465,975;39,66670
 934,77; 7406,696;  225,033;18457,206;39,39006
 935,33; 7437,542;  222,110;18322,129;39,86423
 935,88; 7391,235;  220,263;18243,206;39,78802
 936,43; 7393,235;  190,494;18182,821;40,03229
 936,99; 7378,773;  215,033;18030,437;40,21093
 937,54; 7294,312;  195,802;17887,821;40,12267
 938,09; 7360,312;  210,571;17846,437;40,54091
 938,65; 7310,235;  211,033;17797,667;40,36703
 939,20; 7244,388;  193,494;17754,129;40,15171
 939,75; 7216,004;  189,494;17553,513;40,46592
 940,31; 7220,235;  185,340;17522,590;40,57676
 940,86; 7255,773;  207,110;17490,129;40,78375
 941,41; 7229,004;  236,110;17362,206;40,83181
 941,96; 7170,388;  201,033;17271,052;40,82805
 942,52; 7130,388;  208,802;17200,513;40,73508
 943,07; 7093,004;  187,110;17082,513;40,87440
 943,62; 7071,696;  190,110;16966,129;41,02038
 944,18; 7056,158;  191,033;16920,513;41,03609
 944,73; 7010,773;  198,648;16802,206;41,02810
 945,28; 6958,773;  176,802;16623,129;41,23700
 945,83; 6997,696;  198,110;16666,590;41,28849
 946,39; 7002,081;  196,956;16634,821;41,39908
 946,94; 6987,081;  212,340;16557,437;41,44815
 947,49; 6944,235;  203,340;16414,129;41,58277
 948,04; 6916,465;  210,187;16335,052;41,58967
 948,59; 6952,235;  217,417;16326,975;41,80635
 949,15; 6895,081;  179,802;16232,129;41,83368
 949,70; 6881,850;  198,725;16105,821;42,01348
 950,25; 6842,004;  215,571;16030,052;41,90104
 950,80; 6794,388;  169,340;15931,360;42,03172
 951,36; 6822,542;  176,110;15829,975;42,45873
 951,91; 6809,542;  214,571;15831,513;42,22959
 952,46; 6747,696;  167,340;15631,821;42,55142
 953,01; 6788,004;  211,417;15699,360;42,46262
 953,56; 6662,850;  175,648;15591,129;42,08238
 954,11; 6738,773;  204,110;15460,744;42,83162
 954,67; 6684,773;  193,033;15488,513;42,44221
 955,22; 6645,542;  173,263;15304,129;42,77534
 955,77; 6649,773;  212,417;15267,052;42,75996
 956,32; 6649,465;  237,263;15128,590;43,05998
 956,87; 6532,081;  192,571;15020,129;42,75491
 957,42; 6534,927;  201,417;15001,283;42,79437
 957,98; 6526,004;  197,187;14918,975;42,98946
 958,53; 6511,312;  214,417;14863,513;42,98487
 959,08; 6518,004;  184,263;14812,898;43,29687
 959,63; 6472,235;  190,110;14639,206;43,47763
 960,18; 6544,081;  205,187;14643,283;43,90395
 960,73; 6469,465;  201,340;14581,821;43,58773
 961,28; 6448,696;  179,187;14473,052;43,86154
 961,83; 6454,619;  211,571;14420,129;43,93865
 962,39; 6408,696;  188,263;14322,283;44,01036
 962,94; 6466,542;  210,879;14231,667;44,61706
 963,49; 6371,158;  193,956;14075,513;44,49934
 964,04; 6405,542;  212,340;14071,590;44,68641
 964,59; 6364,696;  181,956;13975,975;44,82189
 965,14; 6369,619;  202,802;13928,283;44,92970
 965,69; 6335,312;  199,033;13779,898;45,18327
 966,24; 6315,081;  198,110;13730,898;45,20111
 966,79; 6269,235;  204,494;13601,129;45,27063
 967,34; 6239,004;  188,648;13501,590;45,44717
 967,89; 6238,081;  190,725;13435,052;45,65997
 968,44; 6233,004;  202,494;13446,052;45,53542
 968,99; 6211,004;  204,033;13359,513;45,66136
 969,55; 6197,312;  214,187;13250,052;45,89741
 970,10; 6121,465;  211,417;13165,898;45,62165
 970,65; 6126,619;  210,725;13052,744;46,06670
 971,20; 6077,081;  187,110;12991,590;45,99930
 971,75; 6047,158;  182,571;12848,975;46,30033
 972,30; 6053,081;  198,110;12814,975;46,40591
 972,85; 6033,158;  192,110;12700,898;46,69555
 973,40; 5983,388;  190,110;12581,975;46,75066
 973,95; 5998,542;  211,263;12541,437;46,93591
 974,50; 5985,081;  219,802;12477,667;47,03330
 975,05; 6001,388;  209,494;12387,667;47,55963
 975,60; 5961,927;  221,110;12254,898;47,70582
 976,15; 5877,773;  196,648;12189,283;47,37178
 976,70; 5894,619;  211,802;12185,513;47,46078
 977,25; 5870,773;  202,340;12097,821;47,65198
 977,80; 5811,465;  200,187;11959,360;47,71831
 978,35; 5782,081;  213,340;11800,590;48,05921
 978,89; 5800,542;  187,340;11762,206;48,49475
 979,44; 5810,619;  204,187;11699,360;48,77206
 979,99; 5728,388;  183,187;11515,206;48,93393
 980,54; 5740,235;  226,417;11494,590;48,93266
 981,09; 5710,619;  208,725;11372,206;49,28476
 981,64; 5673,850;  215,725;11240,052;49,50983
 982,19; 5618,004;  247,494;11238,744;48,86168
 982,74; 5601,465;  207,571;11094,590;49,54427
 983,29; 5521,312;  181,033;10943,206;49,62082
 983,84; 5523,696;  206,187;10919,821;49,63311
 984,39; 5488,619;  224,417;10813,744;49,71234
 984,94; 5444,235;  181,571;10697,283;50,04572
 985,49; 5415,158;  225,802;10665,590;49,70748
 986,03; 5428,081;  220,956;10572,744;50,30169
 986,58; 5394,542;  237,802;10437,052;50,56000
 987,13; 5364,773;  209,494;10338,129;50,89806
 987,68; 5282,927;  224,725;10302,206;50,19312
 988,23; 5312,850;  212,802;10206,360;51,03336
 988,78; 5240,927;  202,110;10071,052;51,05732
 989,33; 5224,235;  213,494; 9962,129;51,39941
 989,88; 5204,465;  223,956; 9953,129;51,19150
 990,42; 5156,235;  204,571; 9827,821;51,45521
 990,97; 5103,312;  209,725; 9712,821;51,49465
 991,52; 5084,696;  234,417; 9590,744;51,83956
 992,07; 5080,773;  238,263; 9554,437;51,97960
 992,62; 4998,312;  220,879; 9386,513;52,12332
 993,17; 4959,388;  218,802; 9376,513;51,76606
 993,71; 4942,850;  213,417; 9236,052;52,41742
 994,26; 4857,312;  195,033; 9142,744;52,10582
 994,81; 4860,696;  232,187; 9116,667;52,09657
 995,36; 4795,619;  212,956; 8961,283;52,38331
 995,91; 4766,312;  215,725; 8968,590;51,98968
 996,45; 4737,773;  213,263; 8783,437;52,79368
 997,00; 4668,158;  193,879; 8655,744;52,87580
 997,55; 4629,158;  204,956; 8638,360;52,46045
 998,10; 4619,773;  235,879; 8491,283;53,10333
 998,65; 4581,235;  205,725; 8467,590;52,96031
 999,19; 4530,388;  221,340; 8296,975;53,35863
 999,74; 4506,696;  254,187; 8302,360;52,83820
1000,29; 4461,696;  233,571; 8201,744;53,06267
1000,84; 4379,696;  215,340; 8101,821;52,80373
1001,38; 4353,619;  208,263; 7931,590;53,67319
1001,93; 4345,158;  228,802; 7911,360;53,58054
1002,48; 4283,004;  207,494; 7752,744;54,01424
1003,03; 4305,081;  204,187; 7704,821;54,67396
1003,57; 4217,158;  227,648; 7650,513;53,74622
1004,12; 4226,081;  225,033; 7524,744;54,81104
1004,67; 4165,004;  209,879; 7477,975;54,41762
1005,22; 4116,388;  192,340; 7328,360;54,98931
1005,76; 4056,850;  195,879; 7255,744;54,68902
1006,31; 4052,542;  225,340; 7204,821;54,83505
1006,86; 3984,081;  201,802; 7096,898;54,85462
1007,40; 3899,696;  188,725; 6925,052;55,08894
1007,95; 3910,388;  212,802; 6857,975;55,64319
1008,50; 3859,235;  211,494; 6749,513;55,79274
1009,04; 3784,696;  207,494; 6649,667;55,52788
1009,59; 3768,081;  221,187; 6508,206;56,41615
1010,14; 3678,773;  202,263; 6433,206;55,79428
1010,68; 3668,004;  209,956; 6367,206;56,16222
1011,23; 3598,004;  193,571; 6201,206;56,66844
1011,78; 3581,696;  225,340; 6189,667;56,27384
1012,32; 3510,773;  200,879; 6068,283;56,41156
1012,87; 3520,388;  238,879; 6048,667;56,48243
1013,42; 3459,388;  194,494; 5951,821;56,70851
1013,96; 3498,081;  233,340; 5975,129;56,85929
1014,51; 3406,850;  177,187; 5912,898;56,30798
1015,06; 3408,235;  177,417; 5921,206;56,24889
1015,60; 3472,773;  245,879; 5960,513;56,46720
1016,15; 3440,004;  196,571; 5891,821;56,94979
1016,69; 3460,388;  205,340; 5941,744;56,74371
1017,24; 3477,696;  185,263; 5920,283;57,40927
1017,79; 3503,235;  222,956; 6036,206;56,42762
1018,33; 3489,388;  194,494; 5964,667;57,10217
1018,88; 3533,542;  215,417; 6037,129;56,99570
1019,42; 3529,927;  208,802; 6047,437;56,88188
1019,97; 3531,235;  210,494; 6020,821;57,15238
1020,51; 3531,004;  207,494; 6064,744;56,74181
1021,06; 3524,235;  191,033; 6054,898;56,84308
1021,61; 3523,081;  182,187; 6020,360;57,22499
1022,15; 3511,235;  155,802; 5972,129;57,68989
1022,70; 3526,542;  200,725; 5947,821;57,86953
1023,24; 3499,465;  190,956; 5910,975;57,84088
1023,79; 3471,542;  202,110; 5853,052;57,85642
1024,33; 3430,619;  207,648; 5828,590;57,33863
1024,88; 3404,696;  209,879; 5753,590;57,62957
1025,42; 3376,158;  203,263; 5647,667;58,27808
1025,97; 3331,312;  192,110; 5566,667;58,40856
1026,51; 3243,235;  163,956; 5430,821;58,46511
1027,06; 3238,850;  193,340; 5414,590;58,32913
1027,60; 3186,542;  208,340; 5311,206;58,36333
1028,15; 3170,696;  207,187; 5207,360;59,26814
1028,69; 3081,542;  178,802; 5083,590;59,18177
1029,24; 3051,388;  189,033; 5043,129;58,96784
1029,78; 3023,542;  191,725; 4975,590;59,19517
1030,33; 2951,312;  168,494; 4851,206;59,42748
1030,87; 2954,312;  191,648; 4812,052;59,79268
1031,42; 2887,619;  181,956; 4730,129;59,48902
1031,96; 2891,850;  200,879; 4662,437;60,31461
1032,51; 2832,850;  181,879; 4575,898;60,33135
1033,05; 2801,235;  202,187; 4556,513;59,68886
1033,60; 2738,004;  174,879; 4415,975;60,43544
1034,14; 2722,542;  198,571; 4418,744;59,80729
1034,69; 2673,696;  189,802; 4337,975;59,87923
1035,23; 2663,619;  196,571; 4287,975;60,29833
1035,77; 2604,312;  198,571; 4187,513;60,31023
1036,32; 2571,465;  175,648; 4151,821;60,25435
1036,86; 2554,158;  184,725; 4074,283;60,91779
1037,41; 2528,312;  209,879; 4020,590;60,83989
1037,95; 2467,004;  184,263; 3956,667;60,51156
1038,50; 2451,158;  187,110; 3915,821;60,71931
1039,04; 2428,235;  199,263; 3880,283;60,55310
1039,58; 2376,773;  186,802; 3822,206;60,24011
1040,13; 2354,850;  194,263; 3740,821;60,92067
1040,67; 2377,004;  221,417; 3707,744;61,82973
1041,21; 2338,081;  215,879; 3643,283;61,91864
1041,76; 2248,235;  182,648; 3566,206;61,04777
1042,30; 2241,312;  198,571; 3555,898;60,84425
1042,85; 2217,542;  189,956; 3485,513;61,52484
1043,39; 2175,619;  180,648; 3409,437;61,78699
1043,93; 2163,158;  204,494; 3375,821;61,76164
1044,48; 2140,696;  195,110; 3353,667;61,59731
1045,02; 2075,619;  187,879; 3279,590;61,05810
1045,56; 2082,004;  209,187; 3237,975;61,83388
1046,11; 2071,081;  199,725; 3214,206;62,07888
1046,65; 2038,158;  198,033; 3154,360;62,24362
1047,19; 2007,619;  200,110; 3119,513;61,91365
1047,74; 1960,235;  180,263; 3057,821;61,85701
1048,28; 1956,081;  199,033; 3020,744;62,26888
1048,82; 1953,312;  218,417; 3018,129;61,96689
1049,37; 1906,927;  198,187; 2950,283;62,08869
1049,91; 1858,158;  179,033; 2870,667;62,38310
1050,45; 1876,388;  223,571; 2867,052;62,52428
1050,99; 1819,158;  196,263; 2786,744;62,64838
1051,54; 1804,235;  185,110; 2756,283;62,97223
1052,08; 1813,235;  214,033; 2744,513;63,19755
1052,62; 1786,773;  219,802; 2709,590;62,93592
1053,16; 1761,158;  195,033; 2629,052;64,34316
1053,71; 1735,696;  200,802; 2631,821;63,13789
1054,25; 1712,465;  212,956; 2565,360;63,74372
1054,79; 1704,081;  216,802; 2560,206;63,46660
1055,33; 1651,696;  177,956; 2463,821;64,47188
1055,88; 1680,158;  222,802; 2498,667;64,03524
1056,42; 1656,696;  220,956; 2463,821;64,01367
1056,96; 1621,081;  212,263; 2419,052;63,84016
1057,50; 1588,696;  207,725; 2370,590;63,84915
1058,05; 1566,696;  205,340; 2326,513;64,17938
1058,59; 1567,158;  218,571; 2295,821;64,92173
1059,13; 1519,927;  192,879; 2238,744;64,86488
1059,67; 1525,773;  218,340; 2239,437;64,68929
1060,21; 1493,619;  207,263; 2182,667;65,11862
1060,76; 1501,542;  224,110; 2173,360;65,53457
1061,30; 1481,927;  220,956; 2157,360;65,11922
1061,84; 1439,312;  214,110; 2104,975;64,79583
1062,38; 1401,388;  194,494; 2046,898;65,15287
1062,92; 1446,388;  237,879; 2090,129;65,24549
1063,46; 1418,542;  226,494; 2027,590;66,18459
1064,01; 1380,388;  205,648; 1999,898;65,47250
1064,55; 1375,927;  212,110; 1967,590;66,29622
1065,09; 1327,696;  172,494; 1919,667;66,11835
1065,63; 1359,388;  233,956; 1942,206;65,88220
1066,17; 1344,465;  232,648; 1925,744;65,66770
1066,71; 1325,850;  232,340; 1880,052;66,36536
1067,25; 1287,235;  202,648; 1842,590;66,13565
1067,80; 1285,850;  231,187; 1831,129;65,91884
1068,34; 1300,158;  229,187; 1823,744;67,16415
1068,88; 1247,696;  199,802; 1776,744;66,45102
1069,42; 1265,927;  237,033; 1794,206;66,07449
1069,96; 1230,465;  199,879; 1723,437;67,64342
1070,50; 1239,619;  234,879; 1744,590;66,55181
1071,04; 1184,927;  208,187; 1677,667;66,46840
1071,58; 1186,312;  211,879; 1670,898;66,78683
1072,12; 1167,542;  203,417; 1651,898;66,56112
1072,66; 1150,850;  209,494; 1662,744;64,77590
1073,21; 1170,004;  230,571; 1618,052;67,70780
1073,75; 1145,388;  222,340; 1624,590;65,82621
1074,29; 1135,081;  220,340; 1595,206;66,53309
1074,83; 1115,850;  237,956; 1584,898;65,17683
1075,37; 1110,312;  220,648; 1525,206;68,19656
1075,91; 1120,850;  225,263; 1536,975;68,27618
1076,45; 1062,619;  221,571; 1532,821;64,14094
1076,99; 1057,465;  227,340; 1488,513;65,82166
1077,53; 1031,927;  213,187; 1477,360;64,76490
1078,07; 1040,696;  218,494; 1461,975;66,12100
1078,61; 1035,235;  215,340; 1431,129;67,43724
1079,15; 1023,696;  223,110; 1401,744;67,92491
1079,69; 1009,542;  215,110; 1423,360;65,75069
1080,23;  998,465;  230,802; 1400,437;65,63276
1080,77; 1016,773;  247,110; 1374,437;68,27332
1081,31;  969,465;  208,263; 1345,821;66,91546
1081,85;  982,619;  219,725; 1349,513;67,52540
1082,39;  945,004;  207,033; 1318,283;66,40910
1082,93;  946,235;  215,417; 1299,590;67,40781
1083,47;  934,004;  203,187; 1299,898;66,63715
1084,01;  932,388;  227,725; 1284,667;66,67000
1084,55;  901,004;  211,879; 1258,283;65,85650
1085,09;  916,927;  228,802; 1244,206;67,76860
1085,63;  898,619;  217,340; 1250,052;65,96991
1086,17;  887,619;  214,340; 1222,129;66,80756
1086,71;  872,465;  203,956; 1194,975;67,45678
1087,24;  893,542;  242,110; 1208,744;67,39182
1087,78;  864,388;  215,033; 1189,898;66,60979
1088,32;  838,773;  206,187; 1150,206;67,00992
1088,86;  862,388;  231,725; 1173,283;66,98086
1089,40;  854,927;  212,648; 1142,667;69,06081
1089,94;  801,158;  196,110; 1116,667;65,72625
1090,48;  827,465;  216,417; 1111,821;68,24274
1091,02;  813,158;  221,879; 1088,821;68,20279
1091,56;  812,696;  236,417; 1115,667;65,54209
1092,10;  772,312;  198,494; 1079,744;65,11402
1092,63;  789,081;  236,417; 1072,821;66,07615
1093,17;  793,927;  227,725; 1065,206;67,60775
1093,71;  782,619;  210,571; 1034,283;69,44762
1094,25;  779,465;  230,187; 1041,667;67,68846
1094,79;  761,388;  216,648; 1032,667;66,75583
1095,33;  745,235;  208,648; 1000,052;67,80186
1095,87;  755,388;  225,571;  995,898;68,77824
1096,40;  711,542;  197,340;  986,206;65,18247
1096,94;  730,773;  214,802;  973,667;67,99245
1097,48;  737,158;  221,110;  965,206;69,35234
1098,02;  719,542;  211,956;  937,975;69,91365
1098,56;  681,850;  190,187;  920,129;67,35648
1099,10;  685,388;  191,802;  920,206;67,76276
1099,63;  679,235;  195,725;  910,821;67,61463
1100,17;  694,004;  220,648;  901,206;69,55410
1100,71;  703,927;  228,340;  913,590;69,40336

