
Integration time [ms]: 120,000
Averaging Nr. [scans]: 13
Smoothing Nr. [pixels]: 0
Data measured with spectrometer [name]: 2009305U1
Wave   ;Sample   ;Dark     ;Reference;Reflectance
[nm]   ;[counts] ;[counts] ;[counts] ;[%]

 175,72;  205,393;  198,725;  209,729;60,60391
 176,32;  216,735;  233,791;  221,495; 0,00000
 176,92;  256,965;  251,952;  246,144; 0,00000
 177,52;  256,392;  249,569;  261,381;57,76499
 178,12;  237,307;  210,945;  220,620;272,46495
 178,72;  254,210;  248,635;  250,038;397,24562
 179,32;  239,649;  255,406;  241,911; 0,00000
 179,92;  244,297;  255,641;  248,129; 0,00000
 180,52;  241,441;  233,115;  240,492;112,86163
 181,12;  248,804;  249,103;  245,056; 0,00000
 181,73;  272,977;  265,873;  272,598;105,63090
 182,33;  344,376;  349,879;  341,303; 0,00000
 182,93;  265,583;  259,492;  262,580;197,20948
 183,53;  235,241;  241,402;  230,123; 0,00000
 184,13;  241,103;  231,942;  223,284; 0,00000
 184,73;  265,035;  262,785;  270,840;27,93264
 185,33;  257,376;  235,800;  340,235;20,65985
 185,93;  252,856;  233,331;  341,231;18,09501
 186,53;  280,340;  252,412;  358,480;26,32993
 187,13;  301,867;  259,651;  408,456;28,36967
 187,73;  255,069;  235,102;  356,651;16,42713
 188,33;  265,391;  242,097;  355,217;20,59183
 188,93;  271,559;  252,084;  372,324;16,19642
 189,53;  275,442;  250,458;  375,462;19,98653
 190,13;  301,028;  288,441;  393,447;11,98659
 190,73;  247,675;  221,607;  354,699;19,58669
 191,34;  287,961;  261,772;  383,107;21,58354
 191,94;  265,854;  243,170;  355,212;20,24584
 192,54;  267,198;  244,657;  378,976;16,78174
 193,14;  284,349;  261,650;  386,945;18,11622
 193,74;  270,113;  256,803;  371,292;11,62573
 194,34;  269,157;  254,345;  379,723;11,81384
 194,94;  247,309;  215,650;  345,606;24,36126
 195,54;  212,323;  198,339;  325,621;10,98608
 196,14;  246,175;  226,731;  350,792;15,67278
 196,74;  240,592;  216,030;  338,690;20,02467
 197,34;  227,303;  203,967;  338,400;17,35937
 197,94;  254,773;  224,267;  375,503;20,17105
 198,54;  258,165;  232,346;  384,669;16,94987
 199,14;  233,438;  223,046;  367,104; 7,21327
 199,74;  229,632;  202,354;  368,520;16,41566
 200,34;  215,296;  194,509;  366,971;12,05302
 200,94;  261,041;  234,889;  406,748;15,21708
 201,54;  237,299;  216,814;  407,160;10,76167
 202,14;  262,347;  240,665;  454,320;10,14824
 202,74;  240,445;  228,200;  447,857; 5,57444
 203,34;  229,508;  181,976;  463,089;16,90830
 203,94;  202,470;  166,204;  459,631;12,35947
 204,54;  266,174;  236,729;  542,983; 9,61440
 205,14;  235,966;  194,585;  536,212;12,11301
 205,74;  268,043;  237,668;  639,180; 7,56511
 206,34;  244,759;  204,050;  630,780; 9,53981
 206,94;  257,747;  210,433;  685,452; 9,96038
 207,54;  224,572;  177,588;  721,425; 8,63942
 208,14;  246,380;  208,358;  795,906; 6,47138
 208,74;  248,856;  208,200;  848,241; 6,35216
 209,34;  252,578;  207,355;  912,599; 6,41239
 209,94;  271,411;  216,431; 1015,259; 6,88253
 210,54;  271,556;  207,205; 1109,050; 7,13550
 211,14;  273,023;  214,662; 1195,427; 5,95060
 211,73;  278,206;  208,506; 1299,988; 6,38578
 212,33;  296,924;  222,812; 1397,255; 6,31040
 212,93;  288,776;  208,738; 1479,640; 6,29776
 213,53;  260,512;  184,046; 1538,349; 5,64611
 214,13;  287,468;  193,748; 1630,932; 6,52108
 214,73;  280,117;  179,434; 1625,550; 6,96225
 215,33;  278,565;  163,585; 1674,567; 7,60959
 215,93;  287,943;  208,899; 1774,717; 5,04812
 216,53;  270,840;  168,430; 1832,838; 6,15295
 217,13;  327,048;  229,436; 2022,497; 5,44386
 217,73;  343,946;  197,822; 2208,241; 7,26834
 218,33;  314,113;  156,057; 2364,675; 7,15632
 218,93;  362,118;  181,834; 2630,757; 7,36176
 219,53;  382,614;  180,903; 2889,476; 7,44713
 220,13;  379,536;  168,059; 3125,529; 7,15060
 220,73;  432,183;  190,893; 3430,322; 7,44853
 221,32;  478,933;  184,508; 3811,856; 8,11683
 221,92;  505,636;  193,366; 4182,543; 7,82794
 222,52;  512,364;  172,284; 4562,289; 7,74668
 223,12;  562,176;  184,900; 4945,153; 7,92555
 223,72;  620,216;  200,285; 5311,646; 8,21565
 224,32;  638,356;  192,747; 5676,679; 8,12573
 224,92;  678,028;  183,362; 5950,894; 8,57674
 225,52;  732,787;  207,356; 6276,099; 8,65798
 226,12;  740,844;  187,051; 6571,650; 8,67389
 226,72;  765,694;  160,666; 6841,878; 9,05566
 227,31;  814,366;  156,666; 7219,939; 9,31155
 227,91;  857,269;  190,894; 7541,280; 9,06585
 228,51;  902,625;  186,812; 7911,520; 9,26653
 229,11;  954,661;  181,820; 8271,138; 9,55385
 229,71;  972,793;  176,122; 8541,977; 9,52289
 230,31; 1013,488;  169,748; 8933,640; 9,62746
 230,91; 1044,591;  158,502; 9183,125; 9,81856
 231,51; 1108,695;  167,360; 9538,918;10,04459
 232,10; 1154,979;  169,980; 9825,075;10,20185
 232,70; 1203,926;  177,422;10037,261;10,41096
 233,30; 1271,592;  204,206;10330,930;10,54029
 233,90; 1284,957;  173,898;10431,145;10,83194
 234,50; 1323,224;  173,514;10561,102;11,06811
 235,10; 1347,798;  170,439;10679,048;11,20375
 235,70; 1412,219;  196,355;10707,048;11,56788
 236,29; 1443,151;  189,507;10660,055;11,97305
 236,89; 1429,818;  164,349;10563,896;12,16850
 237,49; 1434,142;  187,436;10546,988;12,03436
 238,09; 1445,220;  169,434;10299,934;12,59352
 238,69; 1496,753;  199,577;10085,824;13,12102
 239,29; 1447,867;  173,126; 9816,008;13,21950
 239,89; 1444,684;  193,964; 9557,989;13,35664
 240,48; 1407,739;  169,819; 9189,380;13,72484
 241,08; 1393,958;  173,895; 8870,359;14,02941
 241,68; 1383,695;  202,973; 8542,428;14,15826
 242,28; 1351,867;  173,206; 8296,267;14,51007
 242,88; 1354,970;  210,364; 8015,271;14,66521
 243,48; 1331,794;  214,359; 7813,649;14,70447
 244,07; 1296,941;  190,279; 7524,495;15,08904
 244,67; 1297,383;  193,589; 7335,200;15,45582
 245,27; 1283,360;  198,121; 7224,988;15,44413
 245,87; 1274,077;  202,978; 7137,422;15,44607
 246,47; 1272,918;  186,737; 7152,619;15,59287
 247,06; 1283,241;  178,433; 7115,577;15,92598
 247,66; 1286,514;  190,742; 7171,967;15,69598
 248,26; 1335,031;  211,199; 7383,422;15,66923
 248,86; 1363,152;  187,583; 7554,528;15,95734
 249,46; 1335,886;  151,745; 7751,040;15,58225
 250,05; 1436,351;  205,203; 8059,625;15,67459
 250,65; 1456,237;  156,351; 8391,138;15,78529
 251,25; 1505,964;  175,510; 8846,420;15,34389
 251,85; 1596,885;  188,657; 9377,235;15,32585
 252,44; 1659,529;  152,046;10031,610;15,25860
 253,04; 1798,645;  201,662;10746,245;15,14505
 253,64; 1867,642;  153,197;11314,012;15,36129
 254,24; 2013,773;  191,741;12220,363;15,14747
 254,84; 2114,579;  166,745;13137,194;15,01747
 255,43; 2262,926;  180,354;13986,565;15,08431
 256,03; 2395,223;  179,120;14914,490;15,03935
 256,63; 2555,798;  182,657;15992,265;15,01075
 257,23; 2635,195;  178,195;16766,067;14,81203
 257,82; 2840,303;  187,423;17744,651;15,10990
 258,42; 2919,716;  152,113;18540,057;15,05118
 259,02; 3075,210;  195,508;19439,475;14,96418
 259,62; 3133,493;  174,574;20014,745;14,91378
 260,21; 3234,462;  187,584;20539,271;14,97113
 260,81; 3263,456;  174,128;20993,664;14,83860
 261,41; 3383,200;  166,037;21535,894;15,05467
 262,01; 3492,622;  206,264;21932,846;15,12598
 262,60; 3488,349;  161,657;22263,375;15,05174
 263,20; 3563,079;  174,198;22619,064;15,09869
 263,80; 3576,649;  197,880;22817,691;14,93721
 264,40; 3594,206;  155,342;23010,849;15,04611
 264,99; 3650,144;  195,802;23187,520;15,02429
 265,59; 3688,765;  168,336;23290,435;15,22539
 266,19; 3670,765;  175,572;23408,876;15,04389
 266,78; 3784,073;  207,185;23564,540;15,31375
 267,38; 3736,680;  185,875;23535,671;15,20701
 267,98; 3764,537;  178,493;23588,757;15,31826
 268,58; 3765,506;  189,029;23610,424;15,27013
 269,17; 3743,052;  178,179;23588,237;15,22795
 269,77; 3746,919;  192,578;23479,767;15,26307
 270,37; 3701,863;  161,110;23253,673;15,33287
 270,96; 3711,985;  219,115;23179,220;15,21278
 271,56; 3662,855;  181,041;22949,788;15,29207
 272,16; 3639,474;  181,652;22839,153;15,26127
 272,75; 3627,410;  179,345;22647,263;15,34662
 273,35; 3624,115;  185,962;22752,668;15,23551
 273,95; 3656,066;  182,345;22634,525;15,47164
 274,54; 3627,224;  162,280;22661,239;15,40047
 275,14; 3695,339;  199,500;23009,838;15,32568
 275,74; 3664,812;  157,729;22979,523;15,36725
 276,33; 3778,274;  206,040;23339,167;15,44207
 276,93; 3839,909;  185,666;23789,475;15,48158
 277,53; 3907,883;  184,200;24196,394;15,50747
 278,12; 3995,057;  159,196;24656,393;15,65837
 278,72; 4142,292;  210,968;25209,099;15,72647
 279,32; 4224,393;  177,353;25795,343;15,79765
 279,91; 4328,323;  173,275;26468,338;15,80163
 280,51; 4432,953;  180,661;27006,795;15,85130
 281,11; 4605,765;  181,582;27679,169;16,08935
 281,70; 4722,451;  155,889;28143,812;16,31619
 282,30; 4878,701;  175,887;28664,557;16,50766
 282,90; 4962,209;  184,733;29140,880;16,49900
 283,49; 5101,847;  191,654;29639,315;16,67431
 284,09; 5306,890;  209,735;30013,118;17,10260
 284,69; 5410,092;  208,352;30383,634;17,23841
 285,28; 5569,157;  198,581;30659,164;17,63123
 285,88; 5702,598;  234,268;31004,553;17,77147
 286,47; 5770,861;  178,656;30948,156;18,17451
 287,07; 5936,506;  220,122;30971,081;18,58929
 287,67; 6131,640;  205,282;31249,572;19,09001
 288,26; 6219,293;  173,583;31154,111;19,51455
 288,86; 6422,689;  177,427;31163,873;20,15482
 289,46; 6656,788;  194,890;31354,786;20,73787
 290,05; 6860,078;  176,971;31383,773;21,41555
 290,65; 7070,471;  191,425;31591,261;21,90790
 291,24; 7332,646;  197,814;31745,730;22,61586
 291,84; 7647,567;  198,734;31851,188;23,53319
 292,44; 7831,646;  193,513;31994,544;24,01851
 293,03; 8163,175;  249,968;32153,222;24,80376
 293,63; 8337,189;  186,964;32285,480;25,39128
 294,22; 8599,006;  208,736;32427,446;26,04161
 294,82; 8757,122;  179,111;32457,635;26,57498
 295,41; 8795,759;  168,197;32179,428;26,95167
 296,01; 8926,900;  220,882;32137,119;27,27771
 296,61; 8989,673;  209,660;31938,498;27,67203
 297,20; 8987,184;  198,652;31498,260;28,07873
 297,80; 9033,368;  189,818;31371,885;28,36101
 298,39; 9017,038;  168,349;31012,542;28,68835
 298,99; 9015,543;  196,577;30953,082;28,67350
 299,58; 9027,497;  210,666;30637,168;28,97747
 300,18; 9024,245;  218,664;30536,651;29,04408
 300,78; 8886,869;  187,969;30175,812;29,00809
 301,37; 8925,299;  210,801;30210,608;29,04851
 301,97; 8934,691;  192,736;30210,385;29,12272
 302,56; 8894,444;  180,117;30097,031;29,12843
 303,16; 8899,980;  178,501;30021,826;29,22422
 303,75; 8913,464;  188,816;30056,938;29,21057
 304,35; 8981,357;  181,592;30296,229;29,22089
 304,94; 8901,376;  192,275;30223,710;28,99995
 305,54; 8940,318;  202,738;30212,702;29,11559
 306,13; 8852,293;  162,515;30220,877;28,90969
 306,73; 8796,539;  171,667;29981,020;28,93344
 307,33; 8781,694;  197,897;30003,878;28,79891
 307,92; 8746,272;  200,276;30009,930;28,66855
 308,52; 8838,967;  164,039;30460,332;28,63363
 309,11; 8938,760;  184,805;30865,317;28,53262
 309,71; 8984,401;  165,957;31097,892;28,50919
 310,30; 9010,489;  168,199;31341,744;28,36473
 310,90; 9088,336;  214,660;31732,359;28,15458
 311,49; 9082,380;  187,198;31844,388;28,09845
 312,09; 9107,496;  150,125;31981,436;28,14013
 312,68; 9200,665;  221,508;32445,118;27,86515
 313,28; 9156,272;  164,968;32508,776;27,79915
 313,87; 9148,640;  155,737;32612,835;27,70705
 314,47; 9163,732;  179,883;32880,460;27,47306
 315,06; 9168,629;  164,892;33020,392;27,40405
 315,66; 9173,727;  163,895;33161,590;27,30443
 316,25; 9056,936;  153,271;33134,720;26,99598
 316,85; 9057,623;  150,895;33146,514;26,99367
 317,44; 9004,167;  168,882;33320,627;26,65104
 318,04; 8952,383;  157,041;33358,819;26,49058
 318,63; 8923,088;  156,129;33413,451;26,36099
 319,22; 8855,805;  181,886;33687,260;25,88814
 319,82; 8847,790;  176,965;33726,732;25,84466
 320,41; 8794,972;  188,887;33581,370;25,77252
 321,01; 8737,192;  194,740;33730,664;25,47254
 321,60; 8661,321;  183,350;33856,364;25,17735
 322,20; 8573,111;  167,276;33758,639;25,02380
 322,79; 8549,255;  207,430;33929,362;24,73709
 323,39; 8498,505;  173,438;34018,334;24,59770
 323,98; 8371,164;  164,200;33942,472;24,29658
 324,58; 8352,592;  173,116;33789,917;24,33151
 325,17; 8284,093;  185,502;33722,475;24,14825
 325,76; 8117,042;  194,121;33481,634;23,80148
 326,36; 7978,855;  166,894;33169,218;23,67094
 326,95; 7895,873;  201,197;32821,858;23,58835
 327,55; 7692,807;  172,273;32580,839;23,20539
 328,14; 7564,729;  161,050;32147,564;23,14625
 328,74; 7434,173;  198,502;31792,923;22,90174
 329,33; 7302,102;  195,278;31370,401;22,79646
 329,92; 7091,214;  154,959;30887,103;22,57003
 330,52; 6943,213;  189,204;30203,412;22,50271
 331,11; 6779,024;  187,197;29806,103;22,25547
 331,71; 6585,170;  178,967;29282,569;22,01172
 332,30; 6486,300;  195,506;28842,479;21,95972
 332,89; 6345,762;  236,124;28405,815;21,68869
 333,49; 6168,037;  194,351;27811,673;21,63021
 334,08; 6050,797;  177,196;27493,100;21,50249
 334,68; 5905,288;  192,581;27000,316;21,30992
 335,27; 5762,761;  191,512;26650,986;21,05578
 335,86; 5704,331;  222,889;26456,564;20,89468
 336,46; 5566,293;  194,436;26199,541;20,65693
 337,05; 5479,542;  176,966;26018,241;20,51979
 337,65; 5378,914;  160,811;25875,670;20,29217
 338,24; 5412,672;  224,123;25891,948;20,21422
 338,83; 5315,040;  200,738;25754,918;20,01356
 339,43; 5269,775;  173,348;25758,583;19,91941
 340,02; 5259,308;  175,578;25570,534;20,01866
 340,61; 5212,312;  177,122;25648,038;19,76839
 341,21; 5189,481;  210,963;25690,769;19,53907
 341,80; 5137,854;  189,657;25615,084;19,46161
 342,40; 5105,043;  180,589;25697,459;19,29882
 342,99; 5132,685;  179,355;25775,661;19,35174
 343,58; 5109,871;  181,355;25977,863;19,10536
 344,18; 5115,924;  197,971;26092,927;18,99194
 344,77; 5130,586;  165,732;26394,318;18,92917
 345,36; 5156,642;  166,658;26652,242;18,84038
 345,96; 5198,353;  207,432;26959,571;18,65616
 346,55; 5236,498;  170,207;27168,889;18,76496
 347,14; 5254,303;  163,435;27487,598;18,63138
 347,74; 5313,095;  144,827;27869,864;18,64116
 348,33; 5432,500;  178,596;28420,892;18,60297
 348,92; 5530,343;  181,599;29109,307;18,49004
 349,52; 5583,154;  159,597;29486,131;18,49368
 350,11; 5622,071;  177,654;29780,485;18,39154
 350,70; 5629,359;  172,122;29801,438;18,41837
 351,29; 5588,130;  170,031;29587,678;18,41785
 351,89; 5597,519;  198,574;29521,502;18,41203
 352,48; 5563,329;  154,891;29577,683;18,38180
 353,07; 5562,898;  190,436;29611,494;18,26060
 353,67; 5552,714;  195,061;29508,263;18,27727
 354,26; 5482,544;  186,127;29303,183;18,19008
 354,85; 5478,191;  183,049;29206,884;18,24412
 355,45; 5447,088;  160,580;28976,851;18,34557
 356,04; 5408,028;  177,667;28863,558;18,23322
 356,63; 5430,481;  201,736;28756,951;18,31100
 357,22; 5416,064;  182,033;28529,688;18,46372
 357,82; 5386,601;  178,573;28303,126;18,51773
 358,41; 5375,270;  197,198;28225,802;18,47424
 359,00; 5342,708;  169,194;28039,475;18,56284
 359,60; 5356,355;  190,200;27965,671;18,59970
 360,19; 5349,582;  189,283;27739,961;18,73021
 360,78; 5336,201;  188,811;27658,808;18,73823
 361,37; 5302,164;  176,735;27434,916;18,80327
 361,97; 5343,457;  189,428;27383,861;18,95252
 362,56; 5277,406;  173,116;27056,561;18,98674
 363,15; 5326,419;  215,273;26861,468;19,18152
 363,74; 5253,551;  191,806;26488,153;19,24885
 364,34; 5220,659;  201,425;26092,628;19,38587
 364,93; 5142,871;  181,423;25766,867;19,39168
 365,52; 5097,485;  158,350;25396,410;19,57018
 366,11; 5066,642;  179,348;25099,599;19,61174
 366,71; 5052,036;  171,271;24664,030;19,92738
 367,30; 5028,007;  181,274;24351,150;20,05278
 367,89; 5072,526;  218,356;24117,806;20,31080
 368,48; 4996,016;  193,114;23831,370;20,31834
 369,07; 4956,436;  180,045;23481,745;20,49803
 369,67; 4943,657;  211,038;23145,589;20,63533
 370,26; 4874,285;  176,584;22904,962;20,66888
 370,85; 4920,091;  189,581;22579,595;21,12776
 371,44; 4896,397;  185,197;22472,583;21,13841
 372,03; 4870,130;  164,425;22167,136;21,38693
 372,63; 4853,154;  157,812;21893,705;21,60179
 373,22; 4857,787;  178,276;21618,236;21,82612
 373,81; 4855,773;  160,581;21348,164;22,16011
 374,40; 4815,047;  189,357;21109,918;22,11073
 374,99; 4871,369;  173,119;20805,236;22,77154
 375,59; 4779,378;  172,818;20548,239;22,60842
 376,18; 4828,767;  201,657;20421,884;22,88357
 376,77; 4820,517;  195,044;20284,216;23,02471
 377,36; 4871,753;  210,812;20218,225;23,29607
 377,95; 4878,501;  197,579;19936,400;23,71429
 378,55; 4851,115;  170,740;19722,664;23,93818
 379,14; 4933,512;  197,196;19652,640;24,34442
 379,73; 4906,811;  190,195;19586,848;24,31665
 380,32; 5015,467;  193,428;19698,446;24,72204
 380,91; 5004,664;  180,730;19479,572;24,99598
 381,50; 5042,907;  201,731;19462,208;25,13529
 382,10; 5076,006;  173,582;19341,830;25,57575
 382,69; 5089,405;  153,196;19281,655;25,80558
 383,28; 5146,625;  205,655;19266,811;25,92167
 383,87; 5167,144;  175,116;19108,719;26,36597
 384,46; 5225,460;  165,112;19057,158;26,78560
 385,05; 5270,436;  219,270;19032,316;26,84927
 385,64; 5329,257;  181,194;19079,829;27,24040
 386,24; 5326,688;  165,265;19008,018;27,39208
 386,83; 5439,036;  200,649;19082,215;27,74339
 387,42; 5497,029;  206,964;19161,969;27,90854
 388,01; 5617,589;  193,645;19331,088;28,34205
 388,60; 5756,881;  194,266;19613,654;28,64464
 389,19; 5880,618;  170,485;19711,863;29,22073
 389,78; 6011,132;  180,564;20001,915;29,41559
 390,37; 6223,981;  238,340;20408,716;29,67541
 390,96; 6272,695;  193,188;20570,771;29,83429
 391,56; 6384,493;  191,407;20731,732;30,15087
 392,15; 6498,796;  188,103;21012,597;30,30418
 392,74; 6568,089;  164,630;21139,528;30,52915
 393,33; 6760,821;  186,714;21382,297;31,01640
 393,92; 6939,290;  192,780;21783,988;31,24656
 394,51; 7029,598;  170,175;21988,050;31,43946
 395,10; 7213,322;  212,461;22189,538;31,85528
 395,69; 7266,243;  206,155;22317,361;31,92991
 396,28; 7367,664;  205,150;22429,043;32,22889
 396,87; 7451,263;  208,293;22506,720;32,48197
 397,46; 7541,012;  212,979;22584,582;32,75596
 398,06; 7617,994;  224,355;22908,699;32,59357
 398,65; 7743,468;  211,721;22862,365;33,25180
 399,24; 7859,709;  227,025;23077,241;33,40312
 399,83; 7870,505;  208,688;23078,877;33,50133
 400,42; 8025,334;  248,124;23183,898;33,90865
 401,01; 8104,689;  221,325;23296,255;34,16420
 401,60; 8151,821;  244,208;23371,456;34,19176
 402,19; 8189,038;  257,022;23296,956;34,42725
 402,78; 8258,527;  257,588;23374,469;34,61081
 403,37; 8232,628;  233,156;23158,178;34,89407
 403,96; 8221,033;  244,024;23048,728;34,97966
 404,55; 8274,995;  262,271;22963,326;35,29671
 405,14; 8243,614;  238,215;22846,319;35,40942
 405,73; 8277,163;  260,611;22788,222;35,58545
 406,32; 8312,161;  259,029;22622,115;36,01083
 406,91; 8272,089;  257,594;22411,638;36,17622
 407,50; 8261,668;  264,260;22245,873;36,38226
 408,09; 8213,218;  226,473;21951,682;36,76257
 408,68; 8245,910;  254,536;21879,207;36,95489
 409,27; 8197,632;  246,476;21712,453;37,04074
 409,86; 8153,933;  256,439;21553,202;37,08307
 410,45; 8213,575;  293,934;21550,876;37,25673
 411,04; 8200,744;  292,352;21485,723;37,31540
 411,63; 8163,635;  286,935;21190,695;37,68078
 412,22; 8120,088;  280,668;20981,662;37,86978
 412,81; 8022,281;  302,989;20780,234;37,69693
 413,40; 7962,219;  310,469;20416,348;38,05728
 413,99; 7930,777;  342,848;20183,307;38,24472
 414,58; 7750,228;  277,159;19746,662;38,38346
 415,17; 7694,398;  279,605;19575,189;38,42741
 415,76; 7666,535;  270,666;19419,040;38,62400
 416,35; 7622,848;  276,443;19110,200;39,00658
 416,94; 7665,628;  310,670;19268,010;38,79742
 417,53; 7769,882;  280,221;19408,256;39,15541
 418,12; 7827,718;  269,533;19521,995;39,25828
 418,71; 8003,513;  298,316;19861,765;39,38568
 419,30; 8060,800;  287,073;20065,109;39,30485
 419,89; 8156,131;  272,460;20163,447;39,63439
 420,48; 8300,486;  294,085;20362,535;39,89546
 421,07; 8308,326;  290,165;20498,503;39,67749
 421,66; 8331,615;  266,558;20466,188;39,92675
 422,25; 8361,498;  271,189;20540,583;39,91392
 422,84; 8398,859;  299,962;20440,598;40,21173
 423,43; 8221,836;  287,647;20178,320;39,88899
 424,02; 8181,445;  302,727;19996,442;40,00626
 424,60; 8063,084;  280,439;19584,206;40,31672
 425,19; 7950,569;  296,044;19327,453;40,22049
 425,78; 7899,311;  293,661;19228,750;40,16696
 426,37; 7892,257;  300,437;19061,951;40,46486
 426,96; 7822,989;  276,206;18925,136;40,46765
 427,55; 7752,293;  275,294;18888,508;40,17038
 428,14; 7723,120;  267,837;18586,022;40,69881
 428,73; 7616,999;  288,366;18469,381;40,30926
 429,32; 7613,967;  285,513;18413,992;40,42509
 429,91; 7678,447;  320,982;18460,799;40,55975
 430,50; 7584,495;  300,065;18279,640;40,51503
 431,08; 7566,676;  307,455;18121,157;40,75077
 431,67; 7512,768;  330,460;18059,181;40,51227
 432,26; 7453,154;  352,773;17866,633;40,54150
 432,85; 7325,427;  372,079;17525,688;40,53577
 433,44; 7193,031;  388,471;17227,983;40,40830
 434,03; 7054,720;  402,711;16826,982;40,50109
 434,62; 6863,643;  359,087;16459,216;40,40065
 435,21; 6770,128;  365,618;16298,030;40,19799
 435,79; 6745,798;  376,323;16109,888;40,48335
 436,38; 6696,109;  368,410;15986,717;40,51463
 436,97; 6630,094;  351,796;15943,277;40,26749
 437,56; 6558,494;  366,118;15775,296;40,18628
 438,15; 6509,551;  330,960;15658,418;40,31061
 438,74; 6510,105;  358,116;15673,578;40,16848
 439,33; 6527,113;  334,421;15641,739;40,45576
 439,91; 6475,883;  308,120;15728,245;39,99814
 440,50; 6560,755;  353,275;15720,771;40,39357
 441,09; 6576,820;  352,437;15858,362;40,14197
 441,68; 6560,745;  330,291;15871,755;40,08923
 442,27; 6562,467;  309,595;15870,416;40,18343
 442,86; 6513,636;  286,691;15851,837;40,00570
 443,44; 6562,098;  306,610;15894,282;40,13100
 444,03; 6582,197;  376,999;16005,300;39,70488
 444,62; 6516,495;  300,075;15815,177;40,06690
 445,21; 6414,741;  324,227;15685,782;39,64777
 445,80; 6419,604;  356,622;15621,797;39,71774
 446,39; 6316,827;  367,697;15356,081;39,69160
 446,97; 6183,193;  300,708;15192,640;39,50115
 447,56; 6078,703;  305,024;14946,971;39,43245
 448,15; 6020,989;  323,939;14810,409;39,32670
 448,74; 5923,433;  331,940;14558,368;39,30356
 449,33; 5839,437;  323,946;14452,718;39,03730
 449,91; 5786,721;  318,033;14243,239;39,27187
 450,50; 5669,643;  307,954;13988,738;39,19139
 451,09; 5644,040;  335,493;13900,297;39,13471
 451,68; 5613,668;  356,497;13844,731;38,97597
 452,26; 5538,068;  340,040;13735,304;38,80497
 452,85; 5492,127;  319,499;13610,323;38,91879
 453,44; 5474,050;  341,974;13683,567;38,46675
 454,03; 5463,366;  314,351;13625,594;38,68170
 454,61; 5428,608;  311,590;13609,495;38,47988
 455,20; 5496,567;  338,979;13743,391;38,47679
 455,79; 5494,678;  348,740;13741,725;38,42264
 456,38; 5518,111;  342,063;13817,793;38,41015
 456,97; 5524,599;  330,061;13863,829;38,38205
 457,55; 5470,492;  329,759;13876,516;37,94808
 458,14; 5508,513;  356,290;13890,729;38,06751
 458,73; 5440,819;  341,529;13835,213;37,79020
 459,31; 5482,517;  366,306;13850,064;37,94351
 459,90; 5514,107;  383,302;13974,214;37,75173
 460,49; 5535,745;  420,299;14008,495;37,64625
 461,08; 5478,817;  340,310;14107,021;37,32560
 461,66; 5532,801;  341,306;14143,370;37,61391
 462,25; 5536,402;  349,006;14205,437;37,43674
 462,84; 5568,452;  376,465;14250,179;37,42319
 463,43; 5506,868;  301,938;14247,046;37,32442
 464,01; 5517,446;  339,172;14309,864;37,06526
 464,60; 5512,587;  396,704;14200,171;37,06230
 465,19; 5411,922;  339,251;13997,782;37,13921
 465,77; 5387,322;  340,871;13977,125;37,00761
 466,36; 5360,493;  371,245;13839,631;37,04414
 466,95; 5178,773;  353,477;13528,774;36,62381
 467,53; 5112,334;  350,645;13289,085;36,80265
 468,12; 5011,510;  372,646;13030,152;36,64911
 468,71; 4906,884;  349,714;12788,109;36,63793
 469,29; 4773,733;  337,032;12597,465;36,18715
 469,88; 4674,846;  341,805;12287,066;36,27415
 470,47; 4754,220;  410,505;12431,822;36,13344
 471,06; 4660,945;  365,120;12397,793;35,70134
 471,64; 4717,981;  375,118;12462,030;35,93029
 472,23; 4716,528;  332,518;12524,681;35,95760
 472,81; 4739,244;  330,972;12651,188;35,78080
 473,40; 4786,223;  343,056;12714,206;35,91555
 473,99; 4881,012;  441,364;12943,375;35,51147
 474,57; 4833,882;  349,979;13036,466;35,34393
 475,16; 4896,664;  370,204;13165,595;35,37570
 475,75; 4938,084;  376,600;13294,845;35,31040
 476,33; 5009,837;  383,837;13411,872;35,50804
 476,92; 4958,660;  386,288;13452,566;34,99368
 477,51; 4965,117;  371,757;13544,460;34,87030
 478,09; 4991,311;  368,526;13511,952;35,17184
 478,68; 4962,326;  375,529;13454,486;35,07005
 479,27; 4955,876;  407,139;13495,077;34,75519
 479,85; 4901,610;  381,605;13495,561;34,46714
 480,44; 4977,851;  364,993;13660,405;34,69512
 481,02; 5410,539;  382,306;14973,490;34,46076
 481,61; 6129,698;  404,380;16859,203;34,79416
 482,20; 6472,819;  382,844;18027,106;34,51533
 482,78; 6812,244;  415,453;18824,862;34,74740
 483,37; 6963,256;  404,160;19388,819;34,54946
 483,95; 7112,291;  414,546;19540,072;35,01993
 484,54; 7134,910;  429,918;19769,660;34,66950
 485,13; 7084,050;  405,860;19637,609;34,72482
 485,71; 6979,113;  383,088;19561,922;34,39221
 486,30; 6908,230;  414,396;19225,799;34,52073
 486,88; 6796,469;  453,937;18897,130;34,38956
 487,47; 6528,708;  439,784;18158,769;34,36384
 488,05; 6235,805;  423,480;17350,736;34,33708
 488,64; 5791,117;  419,870;16087,163;34,28318
 489,23; 5173,543;  438,174;14340,035;34,06284
 489,81; 4445,417;  428,406;12265,536;33,93569
 490,40; 4183,526;  387,177;11679,649;33,61841
 490,98; 4039,918;  377,333;11388,277;33,26314
 491,57; 4016,301;  389,405;11305,362;33,22564
 492,15; 3953,891;  379,719;11271,497;32,81532
 492,74; 3963,109;  391,249;11185,046;33,09178
 493,32; 3949,086;  401,179;11096,090;33,17379
 493,91; 3899,546;  371,029;10997,172;33,20600
 494,50; 3854,559;  396,040;10987,804;32,65291
 495,08; 3847,265;  367,578;10899,848;33,03834
 495,67; 3849,527;  393,490;10870,398;32,98719
 496,25; 3756,695;  329,188;10741,795;32,91689
 496,84; 3758,936;  352,951;10758,565;32,73218
 497,42; 3763,419;  346,344;10738,589;32,88100
 498,01; 3712,229;  371,414;10640,741;32,53197
 498,59; 3678,592;  337,653;10625,516;32,47456
 499,18; 3652,496;  341,722;10495,159;32,60741
 499,76; 3651,283;  361,958;10446,642;32,61704
 500,35; 3559,058;  344,581;10305,032;32,27240
 500,93; 3545,309;  327,267;10285,849;32,31426
 501,52; 3519,234;  332,883;10186,900;32,33555
 502,10; 3531,371;  357,201;10166,328;32,35936
 502,69; 3473,602;  332,974; 9938,653;32,69553
 503,27; 3380,438;  315,963; 9848,314;32,14816
 503,86; 3381,787;  333,818; 9763,892;32,32179
 504,44; 3299,977;  317,822; 9600,262;32,12685
 505,03; 3205,603;  297,206; 9442,846;31,80091
 505,61; 3176,808;  323,205; 9319,101;31,72117
 506,19; 3128,205;  353,052; 9155,045;31,52869
 506,78; 3038,037;  304,906; 8972,804;31,53164
 507,36; 3008,366;  317,744; 8825,028;31,62727
 507,95; 2955,745;  315,679; 8697,312;31,49824
 508,53; 2900,438;  315,444; 8551,911;31,38474
 509,12; 2848,954;  330,293; 8424,091;31,11841
 509,70; 2844,608;  337,141; 8297,561;31,49918
 510,29; 2751,647;  342,760; 8155,917;30,83116
 510,87; 2690,034;  312,906; 7973,279;31,03149
 511,46; 2630,330;  299,523; 7826,672;30,96533
 512,04; 2611,516;  312,219; 7675,583;31,22617
 512,62; 2559,369;  315,985; 7551,241;31,00629
 513,21; 2489,911;  298,068; 7394,888;30,88486
 513,79; 2435,852;  304,542; 7274,481;30,57860
 514,38; 2376,655;  278,384; 7111,677;30,70659
 514,96; 2384,994;  328,691; 7037,290;30,65175
 515,54; 2314,627;  293,309; 6884,424;30,66731
 516,13; 2295,164;  316,540; 6833,644;30,36048
 516,71; 2243,975;  308,699; 6687,051;30,34132
 517,30; 2204,847;  285,396; 6596,440;30,41416
 517,88; 2190,449;  311,780; 6533,254;30,19653
 518,46; 2126,126;  281,167; 6366,725;30,31701
 519,05; 2116,912;  310,247; 6315,772;30,08337
 519,63; 2111,730;  301,630; 6284,195;30,25625
 520,22; 2086,806;  318,330; 6201,767;30,05855
 520,80; 2045,688;  306,715; 6200,647;29,50446
 521,38; 2068,938;  338,325; 6179,452;29,62807
 521,97; 1997,781;  302,334; 6099,770;29,24478
 522,55; 2027,444;  319,257; 6071,093;29,69812
 523,13; 1980,030;  281,260; 6101,751;29,18602
 523,72; 1993,036;  296,397; 6063,462;29,41945
 524,30; 2047,592;  310,955; 6224,858;29,36532
 524,89; 2019,048;  285,719; 6213,573;29,24041
 525,47; 2060,848;  315,803; 6325,757;29,03591
 526,05; 2055,780;  278,958; 6353,561;29,25001
 526,64; 2094,667;  316,421; 6509,940;28,71140
 527,22; 2125,875;  310,033; 6629,372;28,73467
 527,80; 2179,701;  341,652; 6780,615;28,54573
 528,39; 2169,615;  301,808; 6769,289;28,87997
 528,97; 2240,512;  299,345; 6970,083;29,09974
 529,55; 2254,511;  317,491; 7159,382;28,31118
 530,14; 2320,529;  338,810; 7344,514;28,28722
 530,72; 2356,245;  298,422; 7454,499;28,75630
 531,30; 2363,565;  278,888; 7545,394;28,68885
 531,89; 2369,853;  310,657; 7640,840;28,09201
 532,47; 2451,968;  338,274; 7729,848;28,59599
 533,05; 2426,430;  343,267; 7796,815;27,94862
 533,63; 2464,469;  332,891; 7857,868;28,32670
 534,22; 2451,345;  304,506; 7869,622;28,37813
 534,80; 2469,129;  328,588; 7970,261;28,01141
 535,38; 2583,247;  410,504; 8060,182;28,40306
 535,97; 2461,874;  323,198; 8016,588;27,79888
 536,55; 2520,559;  368,974; 8064,957;27,95726
 537,13; 2492,137;  373,810; 8034,684;27,65124
 537,71; 2527,717;  417,348; 8098,650;27,47410
 538,30; 2551,931;  430,431; 8181,139;27,37170
 538,88; 2584,388;  465,362; 8229,021;27,29417
 539,46; 2640,099;  506,050; 8422,968;26,95555
 540,05; 2685,139;  525,283; 8532,797;26,97286
 540,63; 2729,440;  571,745; 8710,352;26,51184
 541,21; 2770,376;  617,364; 8894,721;26,01087
 541,79; 2819,433;  626,210; 9006,166;26,17225
 542,38; 2869,872;  656,437; 9154,071;26,04767
 542,96; 2906,506;  673,291; 9277,109;25,95609
 543,54; 2954,658;  681,055; 9495,579;25,79382
 544,12; 2984,232;  650,903; 9687,525;25,82081
 544,70; 2973,087;  649,214; 9723,665;25,60897
 545,29; 3020,845;  661,052; 9906,533;25,52375
 545,87; 3036,741;  639,902; 9891,628;25,90694
 546,45; 2997,936;  584,052; 9943,577;25,79067
 547,03; 2998,204;  577,285; 9993,574;25,70991
 547,62; 3024,132;  551,441;10139,292;25,78983
 548,20; 3046,172;  553,444;10248,429;25,71152
 548,78; 3060,790;  521,916;10419,246;25,65211
 549,36; 3097,741;  482,684;10605,949;25,83215
 549,94; 3135,973;  446,673;10779,283;26,02730
 550,53; 3189,810;  442,298;10983,233;26,06516
 551,11; 3209,955;  426,534;11153,871;25,94700
 551,69; 3287,892;  445,376;11457,040;25,81368
 552,27; 3324,257;  393,296;11683,084;25,96117
 552,85; 3402,531;  399,918;12082,685;25,70121
 553,44; 3482,457;  399,145;12322,039;25,86043
 554,02; 3542,773;  410,224;12702,216;25,48447
 554,60; 3590,597;  360,611;12983,243;25,58885
 555,18; 3699,952;  398,377;13365,010;25,46209
 555,76; 3761,245;  365,609;13720,647;25,42588
 556,34; 3868,897;  378,230;14113,353;25,41416
 556,93; 3978,513;  370,454;14482,627;25,56700
 557,51; 3996,649;  350,077;14769,016;25,29016
 558,09; 4104,560;  382,300;15199,180;25,12175
 558,67; 4211,837;  375,465;15515,784;25,33878
 559,25; 4274,317;  390,386;15819,991;25,17194
 559,83; 4305,623;  365,467;16095,458;25,04869
 560,41; 4405,768;  368,768;16443,224;25,11438
 561,00; 4466,703;  367,234;16785,108;24,96955
 561,58; 4477,668;  344,767;17004,453;24,80780
 562,16; 4525,139;  347,534;17336,702;24,58982
 562,74; 4614,342;  347,378;17721,201;24,55973
 563,32; 4706,122;  347,775;18125,965;24,51513
 563,90; 4811,847;  361,234;18462,138;24,58779
 564,48; 4894,254;  365,305;18914,710;24,41561
 565,06; 5027,513;  365,772;19433,227;24,44868
 565,65; 5155,280;  363,088;20044,403;24,34895
 566,23; 5383,117;  410,542;20815,016;24,37003
 566,81; 5472,508;  353,232;21434,806;24,28318
 567,39; 5728,261;  363,315;22300,678;24,45575
 567,97; 5825,988;  385,694;22920,733;24,14149
 568,55; 6039,503;  388,621;23740,671;24,19866
 569,13; 6119,331;  364,696;24467,832;23,87505
 569,71; 6375,791;  359,610;25327,132;24,09603
 570,29; 6626,310;  396,608;26245,011;24,10092
 570,87; 6774,137;  396,840;26985,343;23,98517
 571,45; 6883,834;  377,926;27601,029;23,89848
 572,03; 6923,407;  343,239;27961,222;23,82566
 572,61; 7094,684;  334,236;28658,824;23,86777
 573,20; 7220,114;  385,616;29390,848;23,56298
 573,78; 7348,978;  367,006;29875,934;23,66054
 574,36; 7461,377;  373,312;30441,759;23,57310
 574,94; 7544,322;  435,086;30797,227;23,41480
 575,52; 7514,978;  378,016;31008,304;23,30034
 576,10; 7649,104;  432,859;31624,738;23,13501
 576,68; 7731,223;  417,700;32064,698;23,10969
 577,26; 7866,968;  439,173;32824,747;22,93551
 577,84; 7965,892;  435,082;33311,515;22,90641
 578,42; 8020,889;  473,857;33478,651;22,86647
 579,00; 7976,911;  436,775;33635,442;22,71217
 579,58; 8007,372;  469,932;33937,228;22,52181
 580,16; 7942,082;  456,089;33933,363;22,36142
 580,74; 7945,760;  449,474;34083,319;22,28793
 581,32; 7946,823;  440,779;34167,862;22,25524
 581,90; 7939,109;  464,781;34101,747;22,22058
 582,48; 7934,246;  455,012;34282,332;22,11004
 583,06; 7927,365;  455,856;34362,937;22,03525
 583,64; 7906,071;  454,471;34531,442;21,86697
 584,22; 7840,635;  456,171;34396,463;21,75722
 584,80; 7759,103;  481,857;34079,390;21,66006
 585,38; 7599,576;  479,538;33694,321;21,43635
 585,96; 7580,719;  448,161;33857,462;21,34902
 586,54; 7569,854;  469,478;33797,750;21,30436
 587,12; 7556,512;  449,398;34103,124;21,11836
 587,70; 7550,244;  476,238;34127,726;21,02138
 588,28; 7511,395;  458,244;34244,785;20,87562
 588,86; 7511,688;  462,169;34299,191;20,83375
 589,44; 7431,038;  442,022;34369,330;20,59997
 590,02; 7509,318;  447,020;34636,214;20,65652
 590,59; 7484,342;  429,477;34723,288;20,57183
 591,17; 7510,081;  426,029;35011,854;20,48253
 591,75; 7471,691;  422,101;35141,481;20,30448
 592,33; 7543,469;  444,407;35301,180;20,36638
 592,91; 7466,458;  385,181;35532,062;20,14767
 593,49; 7534,203;  390,569;35894,385;20,12075
 594,07; 7636,846;  415,030;36051,230;20,26539
 594,65; 7521,793;  419,478;36152,307;19,87616
 595,23; 7557,863;  409,558;36498,582;19,80742
 595,81; 7565,169;  407,252;36607,944;19,77287
 596,39; 7586,443;  398,945;36722,423;19,78747
 596,97; 7532,822;  397,027;36945,738;19,52407
 597,55; 7534,022;  380,480;36785,822;19,64970
 598,12; 7507,202;  392,801;36843,285;19,51799
 598,70; 7442,634;  377,413;36958,283;19,31398
 599,28; 7494,895;  393,182;37213,576;19,28744
 599,86; 7429,457;  380,797;37142,896;19,17371
 600,44; 7354,572;  347,645;37263,443;18,98084
 601,02; 7444,704;  410,961;37241,988;19,09733
 601,60; 7367,895;  387,409;37168,790;18,97831
 602,18; 7302,851;  361,493;37299,344;18,79199
 602,75; 7250,337;  359,559;37367,219;18,61987
 603,33; 7206,299;  377,951;37360,591;18,46366
 603,91; 7196,038;  361,573;37324,497;18,49006
 604,49; 7184,389;  386,490;37421,470;18,35535
 605,07; 7084,420;  387,870;37436,834;18,07486
 605,65; 7118,551;  397,030;37586,878;18,07354
 606,23; 7141,661;  457,246;37731,038;17,93328
 606,80; 7113,163;  498,175;37784,818;17,74091
 607,38; 7069,518;  531,418;37725,308;17,57842
 607,96; 7070,959;  575,328;37784,125;17,45725
 608,54; 7099,608;  649,646;37914,093;17,30862
 609,12; 7056,193;  630,406;37903,880;17,23957
 609,70; 7061,300;  660,566;38026,295;17,12996
 610,27; 6974,856;  682,020;38081,214;16,82613
 610,85; 6940,200;  702,489;38111,217;16,67448
 611,43; 6917,624;  688,720;38030,852;16,68063
 612,01; 6819,528;  662,254;37782,215;16,58750
 612,59; 6795,367;  667,258;37907,018;16,45582
 613,16; 6743,194;  620,863;37815,017;16,46046
 613,74; 6687,329;  589,336;37665,576;16,44717
 614,32; 6652,919;  559,569;37691,925;16,40981
 614,90; 6566,443;  529,102;37567,978;16,30001
 615,48; 6459,724;  482,018;37205,946;16,27741
 616,05; 6391,435;  448,093;37231,614;16,15762
 616,63; 6365,223;  445,630;37017,359;16,18625
 617,21; 6331,385;  452,174;36928,245;16,11799
 617,79; 6201,098;  431,945;36883,378;15,82696
 618,36; 6219,247;  443,332;36837,895;15,87027
 618,94; 6066,509;  381,250;36430,579;15,77078
 619,52; 6031,125;  405,554;36255,639;15,69193
 620,10; 5969,705;  391,944;36205,497;15,57444
 620,67; 5914,099;  395,630;36085,806;15,46215
 621,25; 5933,808;  413,794;35996,666;15,51312
 621,83; 5861,366;  393,481;35913,241;15,39392
 622,41; 5780,958;  443,096;35948,624;15,03389
 622,98; 5738,481;  398,553;35616,127;15,16268
 623,56; 5706,789;  406,860;35652,446;15,03714
 624,14; 5628,010;  388,334;35464,029;14,93820
 624,72; 5580,864;  383,634;35382,209;14,84983
 625,29; 5526,973;  375,091;35419,278;14,70110
 625,87; 5520,118;  404,484;35448,009;14,59795
 626,45; 5402,797;  358,474;35305,518;14,43419
 627,02; 5369,017;  376,638;35172,688;14,34755
 627,60; 5315,214;  365,953;35208,750;14,20455
 628,18; 5277,962;  336,406;35183,034;14,18087
 628,76; 5285,851;  343,630;35152,622;14,19812
 629,33; 5268,070;  377,787;35141,849;14,06706
 629,91; 5234,705;  360,329;35171,958;14,00215
 630,49; 5240,308;  375,401;35215,998;13,96333
 631,06; 5208,386;  374,785;35425,240;13,79041
 631,64; 5164,322;  362,321;35408,705;13,70184
 632,22; 5102,064;  332,395;35337,755;13,62554
 632,79; 5094,940;  357,395;35576,586;13,45160
 633,37; 5080,357;  343,793;35634,186;13,42168
 633,95; 5055,804;  348,089;35788,117;13,28361
 634,52; 5027,814;  335,557;35793,285;13,23338
 635,10; 5058,602;  331,174;35839,663;13,31351
 635,68; 5061,689;  337,703;36062,263;13,22336
 636,25; 4995,927;  323,237;35952,922;13,11460
 636,83; 5016,698;  314,784;36204,083;13,10116
 637,41; 4976,312;  339,240;36289,950;12,89842
 637,98; 4982,577;  345,009;36452,163;12,84390
 638,56; 4971,490;  340,005;36522,485;12,80035
 639,13; 4946,468;  318,860;36600,787;12,75458
 639,71; 5017,744;  363,554;36768,087;12,78464
 640,29; 4870,289;  288,554;36497,658;12,65354
 640,86; 4914,270;  312,093;36735,158;12,63534
 641,44; 4854,405;  313,478;36666,581;12,49117
 642,02; 4874,771;  344,939;36703,158;12,45889
 642,59; 4850,906;  316,555;36858,197;12,40872
 643,17; 4785,272;  318,863;36784,774;12,24818
 643,74; 4761,638;  307,786;36875,121;12,17986
 644,32; 4738,081;  335,248;36776,006;12,08217
 644,89; 4707,216;  329,633;36777,275;12,01061
 645,47; 4696,582;  340,479;36918,852;11,90896
 646,05; 4650,717;  337,787;36779,199;11,83524
 646,62; 4609,237;  322,326;36798,930;11,75249
 647,20; 4593,449;  333,403;36934,507;11,63912
 647,77; 4541,737;  306,018;36822,392;11,59951
 648,35; 4506,411;  310,711;36681,738;11,53583
 648,92; 4475,085;  327,557;36769,469;11,38120
 649,50; 4430,374;  287,327;36593,124;11,41153
 650,08; 4413,124;  298,173;36527,470;11,35808
 650,65; 4415,182;  301,481;36760,893;11,28296
 651,23; 4431,471;  294,789;37478,009;11,12513
 651,80; 4557,991;  282,097;38426,279;11,20982
 652,38; 4573,280;  297,943;38764,010;11,11457
 652,95; 4580,569;  282,251;39119,125;11,06762
 653,53; 4586,011;  318,021;39376,395;10,92721
 654,10; 4598,223;  339,328;39472,357;10,88312
 654,68; 4537,743;  289,021;39460,626;10,84643
 655,25; 4532,570;  285,867;39602,434;10,80131
 655,83; 4469,629;  284,637;39603,857;10,64363
 656,40; 4517,994;  318,252;39534,204;10,70927
 656,98; 4457,283;  288,714;39457,089;10,64269
 657,55; 4429,957;  299,253;39281,589;10,59635
 658,13; 4346,707;  294,407;39005,397;10,46809
 658,70; 4321,842;  310,869;38751,436;10,43422
 659,28; 4178,208;  314,253;37982,782;10,25778
 659,85; 4064,651;  305,254;37119,206;10,21188
 660,43; 4098,402;  321,177;37207,629;10,24014
 661,00; 4071,998;  304,100;37314,591;10,18062
 661,58; 4060,518;  300,639;37590,860;10,08275
 662,15; 4052,499;  281,024;37801,361;10,05182
 662,73; 4145,250;  346,409;38066,938;10,07102
 663,30; 4092,692;  300,409;38285,515; 9,98361
 663,88; 4084,058;  315,178;38452,169; 9,88248
 664,45; 4095,886;  290,717;38705,285; 9,90554
 665,03; 4105,175;  296,333;38921,093; 9,86114
 665,60; 4180,540;  372,563;39514,747; 9,72858
 666,17; 4108,291;  304,718;39569,709; 9,68693
 666,75; 4146,811;  301,564;39834,209; 9,72676
 667,32; 4180,946;  321,718;40222,863; 9,67197
 667,90; 4137,773;  297,872;40553,979; 9,53868
 668,47; 4174,677;  316,257;40718,941; 9,54991
 669,05; 4159,274;  299,719;41088,210; 9,46236
 669,62; 4135,332;  274,565;41105,710; 9,45545
 670,19; 4141,467;  287,411;41229,826; 9,41336
 670,77; 4170,064;  293,719;41441,249; 9,42060
 671,34; 4124,430;  301,258;41367,134; 9,30985
 671,92; 4154,026;  281,643;41697,327; 9,35004
 672,49; 4140,238;  309,643;41711,443; 9,25224
 673,06; 4100,604;  256,643;41810,404; 9,25057
 673,64; 4098,047;  287,720;41795,982; 9,17968
 674,21; 4090,797;  279,721;41652,251; 9,21161
 674,79; 4090,932;  305,567;41889,982; 9,10285
 675,36; 4128,760;  307,106;42048,405; 9,15557
 675,93; 4059,895;  269,798;41923,290; 9,09911
 676,51; 4046,261;  296,337;42038,791; 8,98348
 677,08; 4070,165;  300,029;42205,676; 8,99672
 677,65; 4064,839;  300,876;42223,945; 8,97826
 678,23; 4061,358;  299,722;42528,138; 8,90783
 678,80; 4067,647;  287,261;42656,253; 8,92253
 679,38; 4087,398;  284,030;42765,984; 8,95290
 679,95; 4086,071;  303,184;42939,100; 8,87254
 680,52; 4075,514;  285,338;43307,216; 8,80988
 681,10; 4138,418;  299,338;43558,870; 8,87453
 681,67; 4163,092;  298,493;43842,832; 8,87509
 682,24; 4144,073;  268,570;43972,563; 8,86762
 682,82; 4183,208;  280,108;44494,448; 8,82768
 683,39; 4213,420;  326,186;44959,179; 8,70933
 683,96; 4220,709;  289,032;45091,371; 8,77561
 684,54; 4216,383;  276,109;45456,641; 8,72118
 685,11; 4240,210;  309,340;45702,833; 8,65955
 685,68; 4274,422;  286,186;46266,487; 8,67379
 686,25; 4258,788;  269,033;46346,142; 8,65887
 686,83; 4284,461;  281,187;46473,950; 8,66645
 687,40; 4283,827;  273,418;46719,296; 8,63459
 687,97; 4404,270;  297,110;47163,489; 8,76355
 688,55; 4322,097;  260,264;47251,297; 8,64385
 689,12; 4353,463;  244,188;47453,335; 8,70441
 689,69; 4330,214;  250,342;47563,451; 8,62313
 690,26; 4349,195;  267,880;47710,336; 8,60266
 690,84; 4357,869;  276,958;47853,298; 8,57761
 691,41; 4376,927;  288,496;48013,567; 8,56663
 691,98; 4400,985;  295,189;48194,683; 8,57169
 692,56; 4425,197;  278,881;48329,260; 8,62910
 693,13; 4423,332;  328,728;48309,991; 8,53376
 693,70; 4424,082;  300,574;48497,568; 8,55553
 694,27; 4406,141;  272,728;48602,222; 8,55257
 694,84; 4462,353;  274,344;48711,184; 8,64633
 695,42; 4482,180;  331,728;48858,454; 8,55292
 695,99; 4451,777;  292,190;49050,723; 8,53099
 696,56; 4445,373;  285,575;48886,531; 8,55909
 697,13; 4500,277;  302,960;49344,339; 8,55873
 697,71; 4477,489;  269,806;49297,147; 8,58232
 698,28; 4512,163;  279,345;49636,724; 8,57586
 698,85; 4466,760;  255,422;49652,917; 8,52541
 699,42; 4516,818;  259,884;49787,879; 8,59501
 699,99; 4536,953;  299,115;49910,456; 8,54208
 700,57; 4567,242;  294,269;50012,802; 8,59433
 701,14; 4591,454;  271,423;50102,610; 8,66933
 701,71; 4583,050;  310,808;50372,803; 8,53390
 702,28; 4592,801;  286,193;50343,765; 8,60331
 702,85; 4591,398;  287,193;50442,034; 8,58183
 703,43; 4637,533;  305,116;50729,842; 8,59185
 704,00; 4639,129;  323,270;50879,650; 8,53672
 704,57; 4649,649;  295,193;50869,381; 8,61004
 705,14; 4703,399;  320,578;51078,189; 8,63481
 705,71; 4712,227;  325,348;51209,536; 8,62130
 706,28; 4691,439;  297,425;51085,036; 8,65174
 706,86; 4749,035;  334,810;51220,152; 8,67485
 707,43; 4784,863;  349,502;51187,113; 8,72457
 708,00; 4743,229;  322,272;51296,614; 8,67291
 708,57; 4722,825;  303,964;51216,191; 8,67937
 709,14; 4752,883;  323,118;51342,845; 8,68246
 709,71; 4735,557;  303,426;51511,961; 8,65506
 710,28; 4769,692;  294,888;51644,769; 8,71434
 710,86; 4793,289;  311,196;51785,884; 8,70737
 711,43; 4833,962;  324,196;51754,539; 8,76869
 712,00; 4820,251;  315,504;51848,654; 8,74146
 712,57; 4863,617;  311,350;52033,308; 8,80142
 713,14; 4849,675;  300,735;52068,655; 8,78718
 713,71; 4903,733;  311,428;52110,540; 8,86561
 714,28; 4871,561;  294,043;52009,194; 8,85141
 714,85; 4874,311;  282,428;51853,925; 8,90392
 715,42; 4874,600;  290,121;52085,887; 8,85107
 716,00; 4990,735;  358,659;52233,310; 8,92936
 716,57; 4953,101;  290,044;52298,579; 8,96595
 717,14; 4963,390;  278,967;52131,541; 9,03412
 717,71; 4949,987;  261,045;52118,965; 9,04190
 718,28; 5002,506;  308,429;52350,926; 9,01970
 718,85; 4939,411;  262,891;52374,504; 8,97404
 719,42; 5013,623;  289,661;52479,081; 9,05157
 719,99; 5005,758;  269,122;52273,735; 9,10811
 720,56; 5084,970;  299,353;52573,851; 9,15478
 721,13; 5048,259;  271,661;52641,043; 9,12097
 721,70; 5063,163;  261,969;52528,851; 9,18592
 722,27; 5104,298;  285,969;52482,890; 9,23106
 722,84; 5183,972;  332,354;52699,775; 9,26457
 723,41; 5109,260;  267,662;52779,891; 9,21994
 723,98; 5197,319;  282,970;52943,391; 9,33215
 724,55; 5224,146;  312,509;52994,814; 9,32313
 725,12; 5184,743;  239,124;52916,776; 9,38846
 725,69; 5255,416;  274,586;53109,584; 9,42714
 726,27; 5268,782;  278,586;53314,700; 9,40905
 726,84; 5341,302;  291,817;53571,892; 9,47725
 727,41; 5359,591;  292,048;53460,008; 9,53120
 727,98; 5395,418;  301,202;53736,508; 9,53343
 728,55; 5475,476;  322,202;53596,470; 9,67310
 729,12; 5459,457;  271,664;53726,816; 9,70495
 729,69; 5492,900;  304,741;53872,086; 9,68530
 730,26; 5560,804;  303,665;54140,048; 9,76503
 730,82; 5483,016;  291,203;54027,163; 9,66171
 731,39; 5573,998;  297,204;54132,971; 9,80165
 731,96; 5609,210;  271,434;54460,395; 9,85030
 732,53; 5678,422;  293,204;54703,357; 9,89745
 733,10; 5728,018;  303,281;54686,011; 9,97511
 733,67; 5773,153;  296,358;54987,973;10,01396
 734,24; 5737,673;  282,743;54595,704;10,04351
 734,81; 5803,347;  323,897;54758,819;10,06606
 735,38; 5759,943;  284,436;54541,550;10,09178
 735,95; 5791,925;  291,282;54325,974;10,17983
 736,52; 5842,752;  307,975;54542,320;10,20530
 737,09; 5873,502;  300,052;54205,128;10,33938
 737,66; 5913,637;  338,283;54294,628;10,33308
 738,23; 5898,003;  283,206;54435,282;10,36857
 738,80; 5999,523;  347,206;54783,244;10,38341
 739,37; 6027,350;  307,360;54988,283;10,46067
 739,94; 6030,716;  291,361;54960,783;10,49829
 740,51; 6129,851;  398,822;54989,976;10,49809
 741,07; 6085,140;  287,669;55001,784;10,59593
 741,64; 6108,121;  305,361;55283,207;10,55472
 742,21; 6148,718;  287,438;55298,861;10,65466
 742,78; 6165,699;  265,515;55003,439;10,77897
 743,35; 6194,142;  296,054;55360,631;10,71122
 743,92; 6284,046;  321,439;55485,901;10,80878
 744,49; 6247,874;  315,978;55347,324;10,77912
 745,06; 6290,009;  283,747;55364,517;10,90446
 745,63; 6245,452;  276,132;55307,940;10,84704
 746,19; 6311,433;  284,978;55291,671;10,95586
 746,76; 6345,722;  295,440;55333,787;10,99285
 747,33; 6373,703;  284,671;55331,287;11,06159
 747,90; 6457,377;  304,287;55570,172;11,13361
 748,47; 6474,127;  292,595;55467,287;11,20356
 749,04; 6502,262;  314,133;55417,095;11,23012
 749,61; 6552,936;  324,903;55368,827;11,31466
 750,17; 6590,225;  311,672;55477,865;11,38116
 750,74; 6592,590;  301,749;55411,981;11,41501
 751,31; 6561,418;  267,826;55307,404;11,43467
 751,88; 6628,399;  266,980;55142,289;11,59250
 752,45; 6658,996;  287,750;55391,174;11,56234
 753,02; 6670,054;  298,442;55082,674;11,63037
 753,58; 6701,727;  276,981;55049,098;11,72996
 754,15; 6763,401;  283,751;55229,829;11,79274
 754,72; 6767,382;  282,828;54954,406;11,86092
 755,29; 6777,594;  267,597;54789,445;11,94016
 755,86; 6851,422;  284,597;54987,330;12,00456
 756,42; 6917,864;  286,828;54919,830;12,13742
 756,99; 6915,999;  251,136;54833,253;12,21071
 757,56; 6891,750;  270,060;54787,677;12,14596
 758,13; 6904,116;  211,367;54778,869;12,26508
 758,70; 7020,943;  238,598;54822,677;12,42550
 759,26; 7015,001;  228,060;54837,562;12,42813
 759,83; 7074,367;  239,060;54939,293;12,49594
 760,40; 7093,656;  226,753;54823,793;12,57743
 760,97; 7069,407;  217,830;54841,678;12,54320
 761,53; 7102,234;  200,446;54453,948;12,72137
 762,10; 7130,677;  212,984;54440,756;12,75673
 762,67; 7194,196;  244,523;54427,102;12,82640
 763,24; 7172,331;  202,292;54032,295;12,94824
 763,80; 7206,390;  238,677;54121,334;12,93127
 764,37; 7202,755;  240,139;54150,218;12,91524
 764,94; 7165,352;  216,524;53655,411;13,00332
 765,50; 7209,333;  229,447;53698,681;13,05402
 766,07; 7276,238;  273,909;53765,258;13,09058
 766,64; 7236,911;  237,909;53484,912;13,14441
 767,21; 7260,662;  249,525;53336,874;13,20679
 767,77; 7326,797;  272,371;53316,989;13,29904
 768,34; 7305,778;  278,294;53213,182;13,27571
 768,91; 7353,375;  270,371;53061,836;13,41695
 769,47; 7331,971;  263,449;53144,952;13,36672
 770,04; 7401,337;  273,680;52968,529;13,52629
 770,61; 7373,626;  255,988;52776,106;13,55221
 771,18; 7383,146;  248,142;52584,299;13,63303
 771,74; 7491,050;  271,449;52771,953;13,75149
 772,31; 7459,647;  262,527;52573,530;13,75833
 772,88; 7438,012;  234,988;52332,800;13,82596
 773,44; 7438,071;  253,066;52111,300;13,85509
 774,01; 7522,513;  270,373;52206,262;13,96364
 774,58; 7548,341;  249,527;51799,300;14,15877
 775,14; 7544,937;  247,220;51982,955;14,10576
 775,71; 7607,380;  249,605;51886,147;14,24916
 776,27; 7678,131;  309,605;51837,878;14,29997
 776,84; 7717,804;  331,990;51829,917;14,34196
 777,41; 7694,324;  277,836;51661,109;14,43366
 777,97; 7633,382;  251,606;51326,225;14,45292
 778,54; 7728,594;  273,991;51381,572;14,58610
 779,11; 7740,114;  286,837;51416,610;14,57718
 779,67; 7730,864;  251,376;51394,803;14,62454
 780,24; 7762,307;  269,453;51262,457;14,69389
 780,80; 7847,904;  285,068;51128,957;14,87462
 781,37; 7791,192;  275,684;51131,765;14,77799
 781,94; 7811,712;  254,684;50875,035;14,92883
 782,50; 7887,540;  269,607;50789,920;15,07895
 783,07; 7893,675;  292,454;50872,805;15,02801
 783,63; 7887,733;  257,685;50595,997;15,15754
 784,20; 7952,637;  279,685;50630,651;15,23894
 784,77; 7954,080;  267,685;50313,844;15,35861
 785,33; 7940,830;  241,993;50191,806;15,41315
 785,90; 7937,658;  267,686;50231,998;15,35090
 786,46; 7994,639;  278,840;50231,191;15,44632
 787,03; 7930,928;  248,763;49988,460;15,44474
 787,59; 8005,525;  260,840;49854,807;15,61618
 788,16; 8046,352;  281,610;49774,076;15,68874
 788,73; 8088,718;  269,533;49591,192;15,85345
 789,29; 8034,468;  263,302;49230,615;15,87011
 789,86; 8048,142;  282,918;49188,731;15,87792
 790,42; 8099,431;  270,380;49006,693;16,06410
 790,99; 8067,643;  279,611;48804,424;16,04959
 791,55; 8106,855;  258,611;48747,001;16,18582
 792,12; 8151,528;  286,457;48744,194;16,23079
 792,68; 8155,202;  266,611;48385,386;16,39400
 793,25; 8070,568;  275,227;48188,348;16,26974
 793,81; 8117,933;  330,227;47839,233;16,39206
 794,38; 8081,684;  239,458;47655,426;16,53921
 794,94; 8085,050;  249,997;47471,003;16,59230
 795,51; 8107,339;  282,074;47346,272;16,62679
 796,07; 8120,628;  257,536;47077,696;16,79424
 796,64; 8169,609;  295,997;47173,273;16,79622
 797,20; 8107,129;  280,075;46664,312;16,87438
 797,77; 8077,264;  235,921;46331,043;17,01122
 798,33; 8107,091;  269,767;46193,928;17,06580
 798,90; 8131,918;  287,537;46098,505;17,12337
 799,46; 8050,592;  270,229;45575,928;17,17303
 800,03; 8042,266;  273,383;45513,275;17,17264
 800,59; 8070,785;  285,768;45370,390;17,26757
 801,15; 8099,074;  288,230;45134,198;17,41705
 801,72; 8014,132;  270,845;44878,006;17,35884
 802,28; 8046,575;  294,615;44557,122;17,51360
 802,85; 8009,095;  274,307;44399,930;17,52902
 803,41; 8059,768;  263,000;44169,892;17,75750
 803,98; 7991,980;  261,616;43746,777;17,77702
 804,54; 7990,038;  270,154;43444,738;17,88062
 805,11; 7987,250;  287,539;43330,623;17,88838
 805,67; 8027,616;  308,078;43278,200;17,96490
 806,23; 7973,751;  266,001;42761,085;18,13798
 806,80; 8001,579;  288,617;42695,124;18,18816
 807,36; 8040,252;  287,463;42689,394;18,28405
 807,93; 8044,772;  300,848;42473,740;18,36233
 808,49; 7947,292;  249,386;42084,317;18,40066
 809,05; 7942,658;  251,156;41995,356;18,42532
 809,62; 8030,100;  289,002;41842,933;18,62904
 810,18; 8046,543;  281,541;41730,818;18,73375
 810,74; 7960,063;  245,849;41519,780;18,69028
 811,31; 7988,044;  250,618;41268,511;18,86354
 811,87; 7986,641;  259,157;41163,627;18,89154
 812,44; 8045,776;  294,926;41136,204;18,97798
 813,00; 8023,372;  220,004;40883,166;19,19027
 813,56; 8058,277;  274,696;40935,204;19,14285
 814,13; 8077,104;  259,850;40745,474;19,30872
 814,69; 8043,393;  253,235;40594,666;19,31056
 815,25; 8003,528;  236,928;40200,705;19,43410
 815,82; 8048,740;  280,697;40209,436;19,45477
 816,38; 8088,260;  300,005;40000,552;19,61750
 816,94; 7993,241;  251,928;39694,129;19,62698
 817,51; 7967,376;  238,928;39506,322;19,68159
 818,07; 7950,819;  245,775;39250,976;19,75389
 818,63; 7972,800;  273,006;39023,861;19,87000
 819,20; 8022,858;  259,006;38979,823;20,05085
 819,76; 7982,301;  242,391;38565,092;20,19667
 820,32; 8016,744;  295,853;38508,823;20,20490
 820,89; 7993,033;  276,237;38269,323;20,31105
 821,45; 7957,476;  245,930;37985,747;20,43345
 822,01; 7948,303;  270,084;37748,939;20,48680
 822,57; 7952,130;  262,853;37571,747;20,60977
 823,14; 7889,265;  237,854;37367,786;20,60713
 823,70; 7892,477;  235,854;37118,902;20,75919
 824,26; 7894,689;  249,085;36961,325;20,82576
 824,82; 7921,901;  268,854;36806,748;20,94551
 825,39; 7863,421;  246,854;36566,787;20,97076
 825,95; 7929,479;  264,239;36537,211;21,13210
 826,51; 7868,614;  262,547;36125,634;21,20862
 827,08; 7936,134;  306,240;36207,211;21,25261
 827,64; 7906,346;  270,317;36035,481;21,35047
 828,20; 7860,327;  246,471;35772,519;21,43176
 828,76; 7887,308;  269,625;35703,635;21,49823
 829,32; 7910,674;  276,317;35643,289;21,58612
 829,89; 7886,425;  231,241;35524,712;21,69009
 830,45; 7907,791;  258,010;35444,982;21,74038
 831,01; 7881,464;  252,703;35229,790;21,81074
 831,57; 7958,368;  254,011;35069,983;22,12880
 832,14; 7908,888;  246,703;35026,252;22,03072
 832,70; 7886,023;  243,088;34855,522;22,08147
 833,26; 7862,466;  214,704;34669,560;22,19647
 833,82; 7899,986;  252,242;34709,291;22,19500
 834,38; 7933,352;  247,089;34666,407;22,33125
 834,95; 7927,717;  241,473;34489,753;22,44272
 835,51; 7892,929;  209,243;34402,561;22,47131
 836,07; 7988,757;  253,705;34454,908;22,61632
 836,63; 8082,892;  264,013;34434,485;22,88198
 837,19; 8048,719;  247,859;34274,139;22,92599
 837,75; 7994,470;  219,551;33980,563;23,02928
 838,32; 8041,297;  260,167;34076,371;23,01006
 838,88; 8101,586;  262,090;34127,948;23,14867
 839,44; 8131,337;  255,783;34055,756;23,30047
 840,00; 8120,472;  252,014;33936,179;23,35952
 840,56; 8068,453;  239,860;33756,295;23,35747
 841,12; 8143,973;  235,476;33652,410;23,66613
 841,68; 8068,877;  226,091;33490,526;23,57709
 842,25; 8095,627;  231,322;33469,488;23,66047
 842,81; 8046,378;  231,246;33316,142;23,62145
 843,37; 8086,590;  214,938;33260,950;23,82028
 843,93; 8122,879;  237,938;33145,219;23,96108
 844,49; 8182,706;  247,400;33174,566;24,09957
 845,05; 8090,226;  210,170;33065,912;23,98380
 845,61; 8168,592;  248,170;33106,643;24,10466
 846,17; 8147,342;  235,785;32907,298;24,21546
 846,73; 8215,939;  241,940;32803,721;24,48883
 847,29; 8087,458;  217,324;32683,913;24,24072
 847,86; 8074,132;  235,248;32657,260;24,17766
 848,42; 8125,729;  221,017;32423,376;24,54700
 848,98; 8131,556;  249,402;32411,414;24,50765
 849,54; 8176,845;  232,864;32420,376;24,68032
 850,10; 8162,826;  239,172;32242,261;24,75903
 850,66; 8128,500;  223,326;32169,223;24,74551
 851,22; 8144,404;  216,018;32044,492;24,90973
 851,78; 8220,308;  262,172;32190,300;24,92516
 852,34; 8176,520;  247,480;31902,878;25,04799
 852,90; 8203,194;  239,711;31744,301;25,27721
 853,46; 8207,790;  221,327;31626,878;25,43010
 854,02; 8177,310;  241,096;31540,686;25,35565
 854,58; 8162,445;  237,558;31283,648;25,52620
 855,14; 8145,580;  227,712;31230,148;25,53950
 855,70; 8186,485;  199,404;31072,802;25,87043
 856,26; 8194,543;  247,482;30999,610;25,84231
 856,82; 8215,216;  223,174;30911,803;26,04236
 857,38; 8231,198;  260,405;30765,842;26,12909
 857,94; 8215,640;  225,559;30693,342;26,22469
 858,50; 8194,622;  250,790;30567,073;26,20318
 859,06; 8183,295;  231,560;30390,266;26,36630
 859,62; 8185,276;  239,868;30330,612;26,40483
 860,18; 8158,488;  229,406;30161,112;26,49058
 860,74; 8125,700;  209,945;29971,689;26,59708
 861,30; 8078,528;  208,791;29742,882;26,64628
 861,86; 8195,509;  270,638;29919,075;26,72947
 862,42; 8145,029;  237,946;29764,806;26,77929
 862,98; 8208,625;  266,176;29637,075;27,04190
 863,54; 8076,068;  236,946;29389,960;26,88958
 864,10; 8132,819;  220,638;29537,691;26,98832
 864,66; 8045,261;  213,639;29320,191;26,90673
 865,22; 8099,166;  229,485;29208,769;27,15623
 865,78; 8095,455;  242,639;29062,269;27,24815
 866,34; 8075,897;  221,255;28983,154;27,30919
 866,90; 8098,725;  246,716;28842,346;27,45877
 867,45; 8065,475;  234,024;28601,462;27,60718
 868,01; 8089,226;  240,717;28463,808;27,80882
 868,57; 8025,284;  228,640;28331,924;27,74282
 869,13; 8026,419;  212,025;28131,732;27,98881
 869,69; 8046,323;  229,871;28104,463;28,04149
 870,25; 8030,612;  212,025;28013,425;28,12300
 870,81; 8039,593;  233,103;27915,694;28,20000
 871,37; 8111,113;  241,103;27851,426;28,50387
 871,93; 8085,171;  241,334;27679,310;28,58752
 872,49; 8064,999;  262,719;27451,272;28,69693
 873,04; 7998,826;  217,411;27275,849;28,75781
 873,60; 8027,576;  217,181;27180,965;28,96625
 874,16; 8042,635;  238,719;27138,312;29,01128
 874,72; 8041,250;  230,104;27081,927;29,08982
 875,28; 8003,096;  240,258;26971,773;29,04002
 875,84; 7963,865;  230,258;26915,388;28,98096
 876,40; 8016,635;  222,027;26777,388;29,35229
 876,95; 8024,250;  237,104;26837,004;29,27510
 877,51; 8078,865;  264,181;26826,235;29,42048
 878,07; 8083,019;  270,719;26808,004;29,43896
 878,63; 8123,635;  226,335;26831,004;29,68389
 879,19; 8125,788;  242,873;26770,696;29,71565
 879,75; 8145,019;  233,488;26885,388;29,68468
 880,30; 8195,096;  235,258;26834,388;29,92518
 880,86; 8314,173;  274,335;27011,312;30,07011
 881,42; 8234,712;  217,181;26987,696;29,94911
 881,98; 8335,019;  251,104;27128,850;30,07661
 882,54; 8366,635;  229,796;27205,542;30,16353
 883,09; 8433,865;  240,104;27280,927;30,30145
 883,65; 8520,096;  221,027;27450,235;30,47856
 884,21; 8631,096;  258,642;27607,927;30,61306
 884,77; 8629,481;  217,412;27540,696;30,78718
 885,32; 8692,404;  232,104;27752,158;30,74231
 885,88; 8791,404;  269,642;27948,927;30,78751
 886,44; 8809,096;  234,258;28056,773;30,81978
 887,00; 8876,404;  260,796;28002,388;31,05664
 887,56; 8935,096;  226,873;28174,927;31,15860
 888,11; 8989,019;  234,565;28173,465;31,33428
 888,67; 9022,865;  261,258;28362,927;31,17825
 889,23; 9074,327;  247,104;28360,696;31,39842
 889,79; 9003,865;  219,873;28214,927;31,37694
 890,34; 9089,712;  241,565;28168,235;31,68350
 890,90; 9212,712;  303,642;28337,619;31,77954
 891,46; 9133,942;  222,335;28240,235;31,80684
 892,01; 9183,327;  253,950;28197,927;31,95457
 892,57; 9177,865;  271,027;28211,465;31,87795
 893,13; 9138,019;  224,335;27922,235;32,18181
 893,69; 9141,327;  227,642;27872,081;32,24404
 894,24; 9188,635;  245,027;27818,542;32,43550
 894,80; 9180,712;  248,181;27712,004;32,52472
 895,36; 9111,404;  239,642;27574,235;32,45617
 895,91; 9052,865;  226,950;27331,773;32,56216
 896,47; 9062,865;  252,335;27288,619;32,58780
 897,03; 9010,481;  230,488;27012,158;32,78359
 897,58; 9001,173;  254,719;27080,619;32,60451
 898,14; 8906,250;  246,796;26719,235;32,71121
 898,70; 8822,019;  204,950;26620,312;32,62143
 899,25; 8901,635;  242,181;26628,465;32,81801
 899,81; 8913,019;  248,104;26450,696;33,06892
 900,37; 8801,712;  208,258;26203,696;33,05755
 900,92; 8861,481;  239,642;26209,081;33,19994
 901,48; 8800,404;  225,412;26078,465;33,16820
 902,03; 8822,327;  212,335;25948,773;33,45448
 902,59; 8782,019;  229,950;25837,081;33,39722
 903,15; 8813,250;  256,488;25704,542;33,62442
 903,70; 8780,327;  245,027;25477,081;33,82721
 904,26; 8708,327;  223,873;25315,773;33,81352
 904,82; 8763,865;  242,873;25352,542;33,93510
 905,37; 8736,173;  246,719;25189,619;34,03555
 905,93; 8727,788;  228,719;25007,312;34,30005
 906,48; 8728,865;  243,796;25006,850;34,26504
 907,04; 8780,019;  253,335;24911,388;34,57971
 907,60; 8641,712;  237,950;24700,542;34,35352
 908,15; 8610,481;  230,027;24588,696;34,40440
 908,71; 8660,558;  257,027;24614,081;34,50143
 909,26; 8649,173;  228,181;24422,619;34,80549
 909,82; 8613,788;  257,412;24211,388;34,88513
 910,37; 8609,173;  277,027;24242,081;34,76790
 910,93; 8539,173;  226,104;24083,312;34,84511
 911,48; 8507,019;  220,181;23858,388;35,05697
 912,04; 8466,096;  236,796;23776,312;34,95951
 912,60; 8561,481;  243,258;23848,235;35,23928
 913,15; 8452,096;  239,873;23565,619;35,20669
 913,71; 8500,404;  219,873;23403,696;35,71685
 914,26; 8462,096;  215,104;23348,850;35,64919
 914,82; 8482,327;  236,412;23261,312;35,81303
 915,37; 8521,712;  223,642;23194,927;36,12366
 915,93; 8491,635;  272,642;23073,158;36,04740
 916,48; 8471,788;  225,719;22937,081;36,30812
 917,04; 8501,019;  247,104;22802,696;36,59365
 917,59; 8470,712;  263,181;22762,158;36,47957
 918,15; 8393,250;  196,488;22562,388;36,64848
 918,70; 8371,250;  220,873;22468,696;36,63449
 919,26; 8369,173;  231,950;22437,081;36,64569
 919,81; 8294,942;  220,719;22235,312;36,67669
 920,37; 8346,635;  228,642;22167,158;37,00338
 920,92; 8321,096;  246,873;22137,081;36,88509
 921,48; 8275,712;  214,488;21839,081;37,27803
 922,03; 8264,942;  225,950;21859,081;37,16056
 922,59; 8231,327;  225,796;21713,158;37,25693
 923,14; 8237,019;  224,796;21644,312;37,40618
 923,69; 8187,327;  250,565;21559,388;37,24636
 924,25; 8227,788;  238,027;21438,619;37,68650
 924,80; 8127,942;  233,719;21291,312;37,48873
 925,36; 8129,481;  226,104;21189,312;37,70118
 925,91; 8101,173;  211,181;21066,542;37,83196
 926,47; 8091,788;  208,565;20966,081;37,97768
 927,02; 8067,865;  280,335;20992,235;37,59931
 927,57; 8002,327;  225,104;20790,696;37,81667
 928,13; 7949,942;  213,796;20660,388;37,83587
 928,68; 7923,865;  225,258;20638,312;37,71414
 929,24; 7902,019;  199,719;20421,388;38,08934
 929,79; 7879,635;  206,335;20327,235;38,13597
 930,34; 7841,712;  226,873;20180,465;38,16274
 930,90; 7801,865;  212,027;20141,465;38,08355
 931,45; 7831,942;  229,027;20157,927;38,15020
 932,01; 7791,173;  225,873;20021,465;38,21709
 932,56; 7761,788;  249,719;19868,388;38,29041
 933,11; 7755,558;  253,488;19857,927;38,26720
 933,67; 7706,865;  220,488;19695,388;38,44116
 934,22; 7712,865;  236,181;19596,312;38,61898
 934,77; 7659,404;  257,950;19538,158;38,38887
 935,33; 7649,712;  227,796;19370,850;38,77080
 935,88; 7647,404;  228,258;19341,158;38,81748
 936,43; 7618,250;  228,642;19217,235;38,91604
 936,99; 7590,096;  232,719;19116,927;38,96047
 937,54; 7553,173;  210,719;18954,773;39,17218
 938,09; 7542,558;  227,412;18975,388;39,01832
 938,65; 7562,404;  220,950;18836,850;39,43647
 939,20; 7502,327;  204,335;18707,773;39,44128
 939,75; 7475,250;  211,565;18689,619;39,30979
 940,31; 7415,635;  210,412;18486,850;39,42356
 940,86; 7484,558;  225,027;18508,004;39,70650
 941,41; 7513,019;  290,565;18399,542;39,88328
 941,96; 7403,481;  219,258;18250,619;39,84293
 942,52; 7416,404;  216,027;18174,235;40,09519
 943,07; 7382,096;  197,488;18061,696;40,21789
 943,62; 7334,712;  217,719;17999,081;40,02501
 944,18; 7336,635;  195,565;17954,158;40,21191
 944,73; 7336,019;  233,027;17856,388;40,30441
 945,28; 7284,788;  191,027;17627,927;40,68247
 945,83; 7321,173;  217,642;17686,773;40,66333
 946,39; 7339,788;  223,335;17662,004;40,80847
 946,94; 7313,942;  245,335;17545,542;40,85851
 947,49; 7271,096;  219,565;17453,696;40,91608
 948,04; 7327,250;  253,719;17367,542;41,33227
 948,59; 7240,635;  244,950;17351,773;40,89412
 949,15; 7241,712;  202,719;17219,850;41,36415
 949,70; 7228,481;  218,104;17085,235;41,56236
 950,25; 7177,942;  237,181;17045,158;41,29445
 950,80; 7167,788;  196,027;16909,081;41,71447
 951,36; 7133,865;  197,873;16863,235;41,61921
 951,91; 7202,327;  230,565;16832,927;41,99259
 952,46; 7085,019;  199,719;16575,158;42,04651
 953,01; 7121,865;  242,950;16650,619;41,92500
 953,56; 7084,173;  195,104;16489,542;42,27865
 954,11; 7100,096;  233,565;16458,312;42,32134
 954,67; 7098,404;  219,719;16418,312;42,46471
 955,22; 7001,942;  207,181;16251,773;42,34923
 955,77; 7062,865;  242,412;16265,004;42,56773
 956,32; 7040,173;  275,181;16178,927;42,53710
 956,87; 6996,942;  206,565;15991,235;43,01881
 957,42; 6939,865;  211,258;15955,850;42,73599
 957,98; 6926,788;  214,335;15911,465;42,76230
 958,53; 6939,712;  238,412;15814,004;43,02437
 959,08; 6867,404;  201,796;15706,619;42,99054
 959,63; 6833,096;  206,796;15611,312;43,01531
 960,18; 6869,865;  229,873;15587,312;43,23633
 960,73; 6861,865;  226,796;15466,158;43,53902
 961,28; 6794,865;  199,873;15403,312;43,37829
 961,83; 6812,250;  238,181;15367,619;43,45217
 962,39; 6765,865;  204,642;15236,542;43,64866
 962,94; 6769,250;  228,181;15135,158;43,87925
 963,49; 6732,712;  223,565;15083,158;43,80434
 964,04; 6762,019;  235,642;15060,927;44,02193
 964,59; 6684,404;  190,873;14878,773;44,21007
 965,14; 6706,558;  237,950;14853,158;44,25943
 965,69; 6634,865;  226,181;14738,388;44,16065
 966,24; 6587,173;  216,104;14616,465;44,24243
 966,79; 6579,096;  233,488;14561,158;44,28918
 967,34; 6585,558;  193,104;14409,696;44,96474
 967,89; 6568,404;  206,027;14404,312;44,81088
 968,44; 6528,019;  216,027;14305,773;44,79848
 968,99; 6525,865;  221,950;14292,465;44,80231
 969,55; 6532,942;  222,027;14166,619;45,25708
 970,10; 6488,250;  226,488;14098,312;45,14015
 970,65; 6437,481;  246,873;14004,696;44,99700
 971,20; 6429,788;  214,181;13909,773;45,38400
 971,75; 6334,712;  197,796;13668,542;45,55735
 972,30; 6354,250;  223,104;13699,081;45,49686
 972,85; 6324,250;  212,181;13631,004;45,54847
 973,40; 6269,250;  206,258;13559,158;45,40581
 973,95; 6296,481;  222,719;13453,312;45,90695
 974,50; 6273,788;  246,565;13406,773;45,79884
 975,05; 6253,865;  227,335;13275,619;46,18638
 975,60; 6233,942;  233,642;13192,388;46,30309
 976,15; 6201,019;  213,719;13086,158;46,51255
 976,70; 6155,404;  225,719;13024,312;46,33076
 977,25; 6156,865;  228,950;12980,388;46,48821
 977,80; 6069,250;  205,104;12853,542;46,36261
 978,35; 6009,019;  228,565;12647,773;46,54447
 978,89; 5957,712;  198,719;12588,388;46,48221
 979,44; 5990,019;  228,873;12625,081;46,47507
 979,99; 5912,558;  209,873;12401,619;46,77496
 980,54; 5861,173;  243,412;12386,850;46,26170
 981,09; 5841,019;  239,258;12232,388;46,70808
 981,64; 5774,635;  234,873;12097,773;46,69821
 982,19; 5819,096;  261,027;12125,081;46,84798
 982,74; 5710,173;  245,027;11893,081;46,91896
 983,29; 5650,019;  213,950;11764,619;47,06281
 983,84; 5682,250;  235,258;11668,773;47,64057
 984,39; 5703,788;  303,104;11711,542;47,33939
 984,94; 5595,942;  203,027;11481,619;47,81550
 985,49; 5588,327;  250,873;11470,542;47,57229
 986,03; 5557,712;  250,488;11413,235;47,54406
 986,58; 5537,788;  276,027;11242,619;47,97991
 987,13; 5434,712;  237,027;11119,465;47,76213
 987,68; 5433,558;  235,335;11045,773;48,08522
 988,23; 5410,558;  237,258;10984,850;48,13450
 988,78; 5335,635;  223,873;10863,235;48,04575
 989,33; 5327,173;  241,873;10732,696;48,47379
 989,88; 5328,942;  249,642;10721,619;48,50374
 990,42; 5216,019;  232,642;10586,158;48,13222
 990,97; 5176,635;  224,950;10463,004;48,36549
 991,52; 5180,558;  253,719;10376,850;48,66912
 992,07; 5143,788;  255,873;10301,927;48,65508
 992,62; 5098,327;  239,873;10217,773;48,69215
 993,17; 5044,481;  238,181;10072,004;48,87519
 993,71; 5003,404;  248,950; 9954,235;48,98830
 994,26; 4920,173;  222,181; 9825,850;48,91872
 994,81; 4951,865;  250,181; 9767,850;49,39954
 995,36; 4848,712;  226,719; 9628,773;49,15939
 995,91; 4884,481;  235,258; 9593,004;49,68315
 996,45; 4811,404;  236,335; 9483,619;49,47473
 997,00; 4728,788;  207,950; 9335,850;49,52769
 997,55; 4775,865;  233,873; 9334,927;49,90622
 998,10; 4737,712;  265,488; 9163,773;50,25938
 998,65; 4638,558;  231,412; 9172,465;49,29113
 999,19; 4629,865;  252,104; 9013,158;49,96844
 999,74; 4614,865;  276,181; 8985,542;49,81633
1000,29; 4568,404;  246,719; 8828,773;50,35723
1000,84; 4451,635;  223,104; 8741,696;49,63884
1001,38; 4435,250;  237,412; 8648,388;49,90905
1001,93; 4442,173;  248,181; 8601,158;50,20955
1002,48; 4354,942;  221,950; 8410,542;50,47256
1003,03; 4332,173;  238,565; 8394,696;50,19056
1003,57; 4309,712;  249,719; 8249,158;50,75347
1004,12; 4297,404;  272,412; 8205,235;50,73846
1004,67; 4207,173;  226,719; 8094,235;50,59353
1005,22; 4148,635;  217,796; 7967,081;50,72518
1005,76; 4094,019;  217,335; 7848,235;50,80246
1006,31; 4080,404;  247,642; 7815,850;50,64292
1006,86; 4011,019;  222,104; 7678,850;50,81191
1007,40; 3942,635;  210,950; 7571,850;50,69604
1007,95; 3963,019;  236,873; 7480,158;51,44277
1008,50; 3882,865;  231,642; 7337,388;51,38409
1009,04; 3855,558;  219,950; 7249,004;51,72258
1009,59; 3800,712;  240,412; 7142,312;51,58435
1010,14; 3744,404;  216,335; 7033,312;51,75416
1010,68; 3697,865;  229,565; 6973,773;51,42635
1011,23; 3627,481;  224,950; 6797,542;51,76847
1011,78; 3608,173;  234,181; 6780,465;51,54057
1012,32; 3560,558;  247,565; 6639,465;51,83110
1012,87; 3542,327;  253,412; 6621,081;51,65022
1013,42; 3476,942;  218,258; 6484,004;52,00793
1013,96; 3519,865;  258,488; 6507,081;52,19379
1014,51; 3446,481;  198,335; 6424,619;52,16829
1015,06; 3467,327;  204,335; 6429,158;52,41904
1015,60; 3496,404;  268,565; 6443,619;52,27223
1016,15; 3447,942;  224,104; 6407,542;52,13666
1016,69; 3495,865;  233,950; 6431,158;52,63524
1017,24; 3499,327;  205,258; 6454,927;52,70790
1017,79; 3554,096;  251,796; 6551,081;52,42341
1018,33; 3523,788;  218,412; 6526,158;52,40187
1018,88; 3586,635;  242,258; 6598,927;52,61210
1019,42; 3595,635;  229,412; 6609,388;52,76231
1019,97; 3548,404;  209,642; 6586,388;52,35839
1020,51; 3624,558;  243,335; 6614,927;53,06716
1021,06; 3597,788;  199,258; 6623,081;52,90511
1021,61; 3555,635;  204,258; 6566,081;52,67951
1022,15; 3561,327;  180,027; 6530,927;53,24127
1022,70; 3583,173;  223,873; 6544,388;53,14915
1023,24; 3565,481;  217,104; 6506,696;53,23679
1023,79; 3554,481;  214,873; 6440,312;53,64454
1024,33; 3495,096;  219,642; 6432,696;52,71890
1024,88; 3488,788;  224,565; 6301,158;53,71799
1025,42; 3442,250;  216,335; 6201,773;53,89606
1025,97; 3381,558;  219,027; 6159,696;53,23526
1026,51; 3333,019;  185,488; 6011,927;54,02152
1027,06; 3326,635;  206,488; 5991,850;53,93174
1027,60; 3270,788;  239,258; 5887,235;53,67463
1028,15; 3275,096;  245,873; 5774,696;54,78965
1028,69; 3174,788;  198,950; 5671,004;54,38248
1029,24; 3154,712;  217,104; 5593,542;54,63854
1029,78; 3074,558;  215,181; 5512,696;53,97581
1030,33; 3044,788;  196,565; 5423,542;54,49083
1030,87; 3030,635;  222,642; 5339,312;54,87930
1031,42; 2986,250;  202,181; 5270,850;54,92703
1031,96; 2956,250;  233,488; 5172,465;55,12805
1032,51; 2891,096;  211,796; 5112,696;54,66955
1033,05; 2880,712;  216,104; 5063,465;54,97027
1033,60; 2790,250;  191,950; 4923,927;54,90940
1034,14; 2793,327;  213,565; 4874,388;55,34991
1034,69; 2775,481;  219,642; 4796,312;55,84495
1035,23; 2737,788;  208,796; 4739,927;55,81371
1035,77; 2705,558;  201,412; 4670,388;56,03399
1036,32; 2636,173;  190,950; 4605,312;55,39245
1036,86; 2616,635;  214,335; 4557,312;55,31459
1037,41; 2604,635;  225,104; 4481,542;55,90427
1037,95; 2532,404;  194,104; 4382,773;55,82441
1038,50; 2524,019;  206,412; 4372,696;55,62769
1039,04; 2523,250;  233,027; 4333,235;55,85627
1039,58; 2445,788;  196,488; 4222,388;55,87074
1040,13; 2447,865;  218,181; 4185,004;56,20832
1040,67; 2439,481;  237,488; 4167,081;56,03615
1041,21; 2390,327;  238,565; 4070,696;56,15052
1041,76; 2330,019;  199,104; 4016,850;55,81606
1042,30; 2306,865;  215,104; 3950,158;56,00352
1042,85; 2286,942;  217,335; 3897,235;56,24087
1043,39; 2245,173;  207,258; 3822,235;56,37423
1043,93; 2253,250;  223,335; 3783,773;57,01307
1044,48; 2227,019;  223,412; 3736,850;57,02698
1045,02; 2181,173;  213,104; 3690,850;56,59036
1045,56; 2179,327;  232,719; 3675,850;56,53598
1046,11; 2153,250;  220,642; 3615,004;56,93582
1046,65; 2127,635;  229,488; 3556,773;57,04790
1047,19; 2076,865;  207,104; 3511,465;56,58465
1047,74; 2044,635;  197,950; 3420,388;57,30706
1048,28; 2018,635;  220,181; 3400,927;56,54189
1048,82; 2046,788;  238,719; 3362,388;57,88286
1049,37; 2013,173;  228,412; 3294,004;58,21914
1049,91; 1968,635;  230,796; 3252,158;57,51839
1050,45; 1953,173;  233,258; 3229,158;57,40897
1050,99; 1938,865;  216,642; 3161,927;58,47391
1051,54; 1905,481;  208,796; 3103,696;58,60944
1052,08; 1901,942;  250,796; 3090,235;58,15045
1052,62; 1874,327;  236,719; 3048,696;58,23688
1053,16; 1823,558;  217,412; 2967,004;58,41397
1053,71; 1807,019;  230,565; 2937,465;58,23835
1054,25; 1783,635;  241,719; 2895,773;58,09661
1054,79; 1764,404;  231,642; 2873,235;58,02415
1055,33; 1713,712;  195,488; 2796,696;58,36608
1055,88; 1737,250;  231,412; 2778,312;59,12437
1056,42; 1726,327;  245,873; 2757,388;58,94664
1056,96; 1666,250;  238,565; 2705,158;57,88085
1057,50; 1644,788;  224,104; 2676,312;57,93492
1058,05; 1613,558;  221,335; 2629,773;57,80605
1058,59; 1630,865;  247,565; 2595,850;58,90683
1059,13; 1573,788;  206,181; 2532,158;58,79713
1059,67; 1597,173;  224,642; 2534,235;59,42740
1060,21; 1563,558;  218,796; 2464,235;59,88859
1060,76; 1539,865;  229,565; 2448,081;59,06202
1061,30; 1528,481;  248,565; 2444,773;58,27843
1061,84; 1496,096;  229,796; 2349,312;59,74479
1062,38; 1464,481;  218,335; 2286,542;60,25247
1062,92; 1495,788;  266,488; 2345,081;59,14099
1063,46; 1436,481;  247,181; 2274,388;58,66690
1064,01; 1413,788;  224,412; 2233,927;59,18725
1064,55; 1409,865;  231,565; 2217,773;59,32411
1065,09; 1379,250;  204,565; 2145,388;60,52507
1065,63; 1400,096;  253,719; 2166,388;59,93597
1066,17; 1408,481;  262,796; 2143,465;60,91899
1066,71; 1372,481;  247,258; 2125,388;59,91186
1067,25; 1327,096;  241,950; 2079,927;59,04025
1067,80; 1333,558;  256,873; 2061,696;59,65596
1068,34; 1326,019;  258,950; 2065,619;59,06279
1068,88; 1278,019;  225,181; 1990,696;59,63349
1069,42; 1303,327;  252,488; 2018,696;59,49688
1069,96; 1260,865;  234,642; 1949,081;59,85768
1070,50; 1284,712;  276,488; 1963,081;59,77871
1071,04; 1244,019;  220,950; 1888,696;61,34442
1071,58; 1242,019;  232,796; 1878,081;61,34033
1072,12; 1220,788;  233,796; 1855,081;60,87718
1072,66; 1187,404;  227,181; 1840,158;59,53111
1073,21; 1233,712;  243,104; 1838,004;62,11096
1073,75; 1192,327;  238,488; 1792,850;61,36529
1074,29; 1195,173;  245,950; 1790,388;61,46073
1074,83; 1192,942;  250,642; 1768,542;62,07919
1075,37; 1168,327;  255,796; 1760,542;60,64350
1075,91; 1158,481;  255,873; 1747,312;60,51927
1076,45; 1130,635;  236,565; 1700,004;61,09374
1076,99; 1127,481;  245,488; 1654,004;62,61858
1077,53; 1099,481;  229,104; 1627,004;62,26317
1078,07; 1100,096;  242,258; 1641,927;61,28866
1078,61; 1092,558;  237,412; 1612,081;62,20741
1079,15; 1070,635;  235,719; 1601,004;61,15321
1079,69; 1072,865;  236,796; 1561,235;63,12632
1080,23; 1073,327;  253,335; 1567,850;62,37982
1080,77; 1085,635;  284,719; 1574,388;62,10239
1081,31; 1022,019;  219,565; 1499,235;62,70791
1081,85; 1043,096;  250,719; 1528,004;62,03605
1082,39; 1018,481;  228,027; 1476,927;63,29200
1082,93; 1021,250;  249,950; 1489,312;62,23366
1083,47;  990,173;  228,565; 1438,773;62,93198
1084,01; 1019,096;  246,027; 1466,388;63,34756
1084,55;  956,404;  235,258; 1420,004;60,86925
1085,09;  978,096;  247,950; 1420,004;62,29630
1085,63;  952,404;  254,335; 1380,158;62,00523
1086,17;  948,635;  224,719; 1372,158;63,08969
1086,71;  931,942;  229,796; 1356,773;62,30351
1087,24;  963,788;  266,642; 1373,927;62,95998
1087,78;  924,942;  249,258; 1344,235;61,70766
1088,32;  888,712;  234,488; 1302,312;61,26699
1088,86;  905,865;  255,027; 1325,696;60,78800
1089,40;  888,173;  239,335; 1279,004;62,40816
1089,94;  855,712;  223,027; 1243,081;62,02463
1090,48;  869,327;  243,258; 1242,312;62,66621
1091,02;  876,788;  254,258; 1254,081;62,26409
1091,56;  855,942;  240,642; 1240,312;61,55036
1092,10;  823,481;  213,412; 1184,927;62,79563
1092,63;  877,404;  259,258; 1217,465;64,51066
1093,17;  843,096;  244,719; 1203,004;62,44251
1093,71;  819,404;  229,488; 1160,235;63,38091
1094,25;  842,019;  264,950; 1180,158;63,05336
1094,79;  805,481;  240,488; 1147,542;62,28873
1095,33;  811,173;  247,796; 1127,312;64,05538
1095,87;  787,173;  240,412; 1124,619;61,83632
1096,40;  774,019;  216,950; 1088,619;63,90833
1096,94;  780,635;  242,104; 1091,927;63,36975
1097,48;  762,173;  251,181; 1084,465;61,32266
1098,02;  755,096;  236,181; 1071,927;62,09007
1098,56;  729,788;  208,104; 1018,388;64,38289
1099,10;  712,712;  220,719; 1013,850;62,03168
1099,63;  717,019;  216,642; 1022,465;62,09513
1100,17;  744,404;  235,565; 1028,696;64,15568
1100,71;  738,481;  259,719; 1034,465;61,79592

