
Integration time [ms]: 120,000
Averaging Nr. [scans]: 13
Smoothing Nr. [pixels]: 0
Data measured with spectrometer [name]: 2009305U1
Wave   ;Sample   ;Dark     ;Reference;Reflectance
[nm]   ;[counts] ;[counts] ;[counts] ;[%]

 175,72;  204,270;  198,725;  209,729;50,39800
 176,32;  225,135;  233,791;  221,495; 0,00000
 176,92;  243,949;  251,952;  246,144; 0,00000
 177,52;  256,128;  249,569;  261,381;55,53108
 178,12;  246,029;  210,945;  220,620;362,60973
 178,72;  257,660;  248,635;  250,038;643,08878
 179,32;  254,809;  255,406;  241,911; 0,00000
 179,92;  245,610;  255,641;  248,129; 0,00000
 180,52;  241,265;  233,115;  240,492;110,46817
 181,12;  253,899;  249,103;  245,056; 0,00000
 181,73;  273,741;  265,873;  272,598;116,99119
 182,33;  352,263;  349,879;  341,303; 0,00000
 182,93;  277,055;  259,492;  262,580;568,63029
 183,53;  232,950;  241,402;  230,123; 0,00000
 184,13;  229,374;  231,942;  223,284; 0,00000
 184,73;  272,906;  262,785;  270,840;125,65299
 185,33;  255,585;  235,800;  340,235;18,94435
 185,93;  270,738;  233,331;  341,231;34,66783
 186,53;  289,674;  252,412;  358,480;35,13007
 187,13;  319,352;  259,651;  408,456;40,12044
 187,73;  267,653;  235,102;  356,651;26,78046
 188,33;  287,567;  242,097;  355,217;40,19592
 188,93;  283,524;  252,084;  372,324;26,14788
 189,53;  294,535;  250,458;  375,462;35,26072
 190,13;  311,710;  288,441;  393,447;22,15957
 190,73;  257,633;  221,607;  354,699;27,06841
 191,34;  308,584;  261,772;  383,107;38,58099
 191,94;  269,239;  243,170;  355,212;23,26723
 192,54;  295,738;  244,657;  378,976;38,02985
 193,14;  295,583;  261,650;  386,945;27,08260
 193,74;  291,100;  256,803;  371,292;29,95702
 194,34;  292,345;  254,345;  379,723;30,30843
 194,94;  259,356;  215,650;  345,606;33,63160
 195,54;  231,922;  198,339;  325,621;26,38430
 196,14;  261,223;  226,731;  350,792;27,80255
 196,74;  256,468;  216,030;  338,690;32,96792
 197,34;  233,866;  203,967;  338,400;22,24102
 197,94;  257,539;  224,267;  375,503;22,00018
 198,54;  274,436;  232,346;  384,669;27,63169
 199,14;  243,854;  223,046;  367,104;14,44386
 199,74;  238,235;  202,354;  368,520;21,59320
 200,34;  238,747;  194,509;  366,971;25,65093
 200,94;  259,551;  234,889;  406,748;14,35062
 201,54;  263,177;  216,814;  407,160;24,35704
 202,14;  276,750;  240,665;  454,320;16,88942
 202,74;  256,495;  228,200;  447,857;12,88147
 203,34;  247,837;  181,976;  463,089;23,42850
 203,94;  216,655;  166,204;  459,631;17,19351
 204,54;  287,773;  236,729;  542,983;16,66732
 205,14;  244,528;  194,585;  536,212;14,61919
 205,74;  305,306;  237,668;  639,180;16,84570
 206,34;  271,197;  204,050;  630,780;15,73534
 206,94;  283,381;  210,433;  685,452;15,35679
 207,54;  264,227;  177,588;  721,425;15,93104
 208,14;  277,798;  208,358;  795,906;11,81856
 208,74;  280,019;  208,200;  848,241;11,22102
 209,34;  275,264;  207,355;  912,599; 9,62920
 209,94;  295,407;  216,431; 1015,259; 9,88646
 210,54;  295,863;  207,205; 1109,050; 9,83072
 211,14;  317,030;  214,662; 1195,427;10,43758
 211,73;  316,481;  208,506; 1299,988; 9,89252
 212,33;  334,478;  222,812; 1397,255; 9,50805
 212,93;  327,642;  208,738; 1479,640; 9,35586
 213,53;  306,861;  184,046; 1538,349; 9,06852
 214,13;  332,019;  193,748; 1630,932; 9,62095
 214,73;  332,212;  179,434; 1625,550;10,56466
 215,33;  312,484;  163,585; 1674,567; 9,85444
 215,93;  348,661;  208,899; 1774,717; 8,92585
 216,53;  319,862;  168,430; 1832,838; 9,09823
 217,13;  389,380;  229,436; 2022,497; 8,92013
 217,73;  395,115;  197,822; 2208,241; 9,81354
 218,33;  366,879;  156,057; 2364,675; 9,54545
 218,93;  427,294;  181,834; 2630,757;10,02318
 219,53;  476,491;  180,903; 2889,476;10,91305
 220,13;  464,641;  168,059; 3125,529;10,02823
 220,73;  540,323;  190,893; 3430,322;10,78676
 221,32;  580,019;  184,508; 3811,856;10,90360
 221,92;  636,864;  193,366; 4182,543;11,11754
 222,52;  650,547;  172,284; 4562,289;10,89437
 223,12;  726,921;  184,900; 4945,153;11,38639
 223,72;  769,225;  200,285; 5311,646;11,13090
 224,32;  807,173;  192,747; 5676,679;11,20413
 224,92;  835,829;  183,362; 5950,894;11,31276
 225,52;  921,685;  207,356; 6276,099;11,77062
 226,12;  946,673;  187,051; 6571,650;11,89772
 226,72;  959,321;  160,666; 6841,878;11,95375
 227,31; 1016,208;  156,666; 7219,939;12,16917
 227,91; 1127,147;  190,894; 7541,280;12,73746
 228,51; 1159,533;  186,812; 7911,520;12,59233
 229,11; 1219,581;  181,820; 8271,138;12,82879
 229,71; 1268,224;  176,122; 8541,977;13,05428
 230,31; 1331,286;  169,748; 8933,640;13,25368
 230,91; 1381,266;  158,502; 9183,125;13,54920
 231,51; 1447,156;  167,360; 9538,918;13,65616
 232,10; 1525,531;  169,980; 9825,075;14,03975
 232,70; 1613,268;  177,422;10037,261;14,56257
 233,30; 1700,211;  204,206;10330,930;14,77284
 233,90; 1700,943;  173,898;10431,145;14,88748
 234,50; 1775,907;  173,514;10561,102;15,42603
 235,10; 1814,598;  170,439;10679,048;15,64583
 235,70; 1867,132;  196,355;10707,048;15,89597
 236,29; 1902,162;  189,507;10660,055;16,35688
 236,89; 1905,772;  164,349;10563,896;16,74518
 237,49; 1953,654;  187,436;10546,988;17,04918
 238,09; 1941,197;  169,434;10299,934;17,48939
 238,69; 2006,758;  199,577;10085,824;18,27974
 239,29; 1967,523;  173,126; 9816,008;18,60852
 239,89; 1933,424;  193,964; 9557,989;18,57598
 240,48; 1893,391;  169,819; 9189,380;19,10927
 241,08; 1903,267;  173,895; 8870,359;19,88593
 241,68; 1861,054;  202,973; 8542,428;19,88237
 242,28; 1843,010;  173,206; 8296,267;20,55634
 242,88; 1852,323;  210,364; 8015,271;21,03752
 243,48; 1814,120;  214,359; 7813,649;21,05145
 244,07; 1807,956;  190,279; 7524,495;22,05658
 244,67; 1773,406;  193,589; 7335,200;22,12129
 245,27; 1792,558;  198,121; 7224,988;22,69058
 245,87; 1774,111;  202,978; 7137,422;22,65694
 246,47; 1774,210;  186,737; 7152,619;22,78926
 247,06; 1779,274;  178,433; 7115,577;23,07637
 247,66; 1805,915;  190,742; 7171,967;23,13595
 248,26; 1870,019;  211,199; 7383,422;23,12840
 248,86; 1893,510;  187,583; 7554,528;23,15651
 249,46; 1902,006;  151,745; 7751,040;23,03188
 250,05; 2012,014;  205,203; 8059,625;23,00374
 250,65; 2047,730;  156,351; 8391,138;22,96816
 251,25; 2185,678;  175,510; 8846,420;23,18289
 251,85; 2302,061;  188,657; 9377,235;23,00034
 252,44; 2398,905;  152,046;10031,610;22,74250
 253,04; 2558,169;  201,662;10746,245;22,34803
 253,64; 2694,115;  153,197;11314,012;22,76643
 254,24; 2903,556;  191,741;12220,363;22,54469
 254,84; 3072,852;  166,745;13137,194;22,40560
 255,43; 3293,916;  180,354;13986,565;22,55190
 256,03; 3474,104;  179,120;14914,490;22,36105
 256,63; 3675,197;  182,657;15992,265;22,09125
 257,23; 3829,977;  178,195;16766,067;22,01477
 257,82; 4040,355;  187,423;17744,651;21,94499
 258,42; 4162,883;  152,113;18540,057;21,81196
 259,02; 4371,077;  195,508;19439,475;21,69807
 259,62; 4480,950;  174,574;20014,745;21,70534
 260,21; 4620,385;  187,584;20539,271;21,78100
 260,81; 4703,988;  174,128;20993,664;21,75774
 261,41; 4749,795;  166,037;21535,894;21,44964
 262,01; 4900,353;  206,264;21932,846;21,60528
 262,60; 4931,592;  161,657;22263,375;21,58174
 263,20; 5022,697;  174,198;22619,064;21,60182
 263,80; 5066,493;  197,880;22817,691;21,52367
 264,40; 5071,796;  155,342;23010,849;21,51103
 264,99; 5109,811;  195,802;23187,520;21,37295
 265,59; 5128,132;  168,336;23290,435;21,45046
 266,19; 5125,797;  175,572;23408,876;21,30659
 266,78; 5165,157;  207,185;23564,540;21,22660
 267,38; 5123,373;  185,875;23535,671;21,14579
 267,98; 5102,841;  178,493;23588,757;21,03500
 268,58; 5135,644;  189,029;23610,424;21,12007
 269,17; 5175,840;  178,179;23588,237;21,34835
 269,77; 5137,190;  192,578;23479,767;21,23318
 270,37; 5063,181;  161,110;23253,673;21,22792
 270,96; 5066,491;  219,115;23179,220;21,11217
 271,56; 4990,621;  181,041;22949,788;21,12361
 272,16; 4937,132;  181,652;22839,153;20,98855
 272,75; 4938,220;  179,345;22647,263;21,18076
 273,35; 4889,652;  185,962;22752,668;20,84349
 273,95; 4882,524;  182,345;22634,525;20,93418
 274,54; 4877,538;  162,280;22661,239;20,95767
 275,14; 4971,780;  199,500;23009,838;20,92156
 275,74; 4938,956;  157,729;22979,523;20,95027
 276,33; 5086,904;  206,040;23339,167;21,09902
 276,93; 5131,856;  185,666;23789,475;20,95505
 277,53; 5249,158;  184,200;24196,394;21,09328
 278,12; 5343,672;  159,196;24656,393;21,16355
 278,72; 5510,690;  210,968;25209,099;21,20047
 279,32; 5650,144;  177,353;25795,343;21,36308
 279,91; 5809,980;  173,275;26468,338;21,43636
 280,51; 5921,825;  180,661;27006,795;21,40138
 281,11; 6187,174;  181,582;27679,169;21,84043
 281,70; 6300,727;  155,889;28143,812;21,95532
 282,30; 6486,083;  175,887;28664,557;22,14984
 282,90; 6640,644;  184,733;29140,880;22,29547
 283,49; 6845,033;  191,654;29639,315;22,59391
 284,09; 7029,621;  209,735;30013,118;22,88293
 284,69; 7164,939;  208,352;30383,634;23,05392
 285,28; 7348,317;  198,581;30659,164;23,47209
 285,88; 7630,770;  234,268;31004,553;24,03781
 286,47; 7655,416;  178,656;30948,156;24,29926
 287,07; 7905,302;  220,122;30971,081;24,99168
 287,67; 8109,273;  205,282;31249,572;25,46037
 288,26; 8283,115;  173,583;31154,111;26,17622
 288,86; 8558,599;  177,427;31163,873;27,04786
 289,46; 8823,587;  194,890;31354,786;27,69168
 290,05; 9123,374;  176,971;31383,773;28,66812
 290,65; 9444,585;  191,425;31591,261;29,46882
 291,24; 9810,173;  197,814;31745,730;30,46908
 291,84;10182,427;  198,734;31851,188;31,54161
 292,44;10499,259;  193,513;31994,544;32,40695
 293,03;10964,232;  249,968;32153,222;33,58361
 293,63;11206,915;  186,964;32285,480;34,33165
 294,22;11572,961;  208,736;32427,446;35,27213
 294,82;11849,232;  179,111;32457,635;36,15444
 295,41;11992,650;  168,197;32179,428;36,93845
 296,01;12242,246;  220,882;32137,119;37,66535
 296,61;12321,774;  209,660;31938,498;38,17383
 297,20;12328,176;  198,652;31498,260;38,75296
 297,80;12466,366;  189,818;31371,885;39,37054
 298,39;12453,753;  168,349;31012,542;39,83053
 298,99;12549,374;  196,577;30953,082;40,16320
 299,58;12529,409;  210,666;30637,168;40,48689
 300,18;12588,769;  218,664;30536,651;40,80121
 300,78;12504,953;  187,969;30175,812;41,07326
 301,37;12572,083;  210,801;30210,608;41,20454
 301,97;12629,859;  192,736;30210,385;41,43270
 302,56;12690,369;  180,117;30097,031;41,81665
 303,16;12668,802;  178,501;30021,826;41,85291
 303,75;12676,106;  188,816;30056,938;41,80809
 304,35;12852,368;  181,592;30296,229;42,07514
 304,94;12785,833;  192,275;30223,710;41,93459
 305,54;12816,404;  202,738;30212,702;42,03159
 306,13;12824,763;  162,515;30220,877;42,12554
 306,73;12703,127;  171,667;29981,020;42,03868
 307,33;12727,475;  197,897;30003,878;42,03713
 307,92;12743,038;  200,276;30009,930;42,07617
 308,52;12878,637;  164,039;30460,332;41,96750
 309,11;13109,298;  184,805;30865,317;42,12607
 309,71;13150,218;  165,957;31097,892;41,97688
 310,30;13269,873;  168,199;31341,744;42,02818
 310,90;13379,104;  214,660;31732,359;41,76842
 311,49;13398,518;  187,198;31844,388;41,73245
 312,09;13469,729;  150,125;31981,436;41,84434
 312,68;13607,861;  221,508;32445,118;41,54207
 313,28;13645,038;  164,968;32508,776;41,67743
 313,87;13619,419;  155,737;32612,835;41,48147
 314,47;13655,502;  179,883;32880,460;41,20912
 315,06;13653,744;  164,892;33020,392;41,05508
 315,66;13693,652;  163,895;33161,590;41,00213
 316,25;13560,157;  153,271;33134,720;40,64978
 316,85;13533,513;  150,895;33146,514;40,55877
 317,44;13566,173;  168,882;33320,627;40,41202
 318,04;13420,065;  157,041;33358,819;39,94673
 318,63;13356,299;  156,129;33413,451;39,69102
 319,22;13396,417;  181,886;33687,260;39,44003
 319,82;13253,053;  176,965;33726,732;38,97520
 320,41;13110,120;  188,887;33581,370;38,69504
 321,01;13054,223;  194,740;33730,664;38,34540
 321,60;13008,104;  183,350;33856,364;38,08615
 322,20;12908,473;  167,276;33758,639;37,92998
 322,79;12847,378;  207,430;33929,362;37,48287
 323,39;12788,229;  173,438;34018,334;37,27236
 323,98;12599,865;  164,200;33942,472;36,81558
 324,58;12451,578;  173,116;33789,917;36,52478
 325,17;12304,303;  185,502;33722,475;36,13564
 325,76;12160,770;  194,121;33481,634;35,94936
 326,36;11926,707;  166,894;33169,218;35,63329
 326,95;11771,731;  201,197;32821,858;35,46996
 327,55;11527,790;  172,273;32580,839;35,03863
 328,14;11297,296;  161,050;32147,564;34,81544
 328,74;11089,142;  198,502;31792,923;34,47014
 329,33;10871,597;  195,278;31370,401;34,24628
 329,92;10604,656;  154,959;30887,103;34,00250
 330,52;10312,248;  189,204;30203,412;33,72751
 331,11;10090,200;  187,197;29806,103;33,43474
 331,71; 9763,672;  178,967;29282,569;32,93305
 332,30; 9562,602;  195,506;28842,479;32,69838
 332,89; 9310,011;  236,124;28405,815;32,21153
 333,49; 9102,364;  194,351;27811,673;32,25517
 334,08; 8855,002;  177,196;27493,100;31,76833
 334,68; 8610,442;  192,581;27000,316;31,40087
 335,27; 8447,149;  191,512;26650,986;31,20106
 335,86; 8296,046;  222,889;26456,564;30,77402
 336,46; 8125,508;  194,436;26199,541;30,49814
 337,05; 8005,932;  176,966;26018,241;30,29636
 337,65; 7849,229;  160,811;25875,670;29,89874
 338,24; 7808,426;  224,123;25891,948;29,54790
 338,83; 7737,920;  200,738;25754,918;29,49491
 339,43; 7629,131;  173,348;25758,583;29,14096
 340,02; 7583,377;  175,578;25570,534;29,17035
 340,61; 7503,265;  177,122;25648,038;28,76278
 341,21; 7434,296;  210,963;25690,769;28,34924
 341,80; 7414,581;  189,657;25615,084;28,41613
 342,40; 7298,589;  180,589;25697,459;27,89527
 342,99; 7312,165;  179,355;25775,661;27,86656
 343,58; 7284,059;  181,355;25977,863;27,53359
 344,18; 7280,604;  197,971;26092,927;27,35140
 344,77; 7311,091;  165,732;26394,318;27,24264
 345,36; 7279,808;  166,658;26652,242;26,85668
 345,96; 7374,403;  207,432;26959,571;26,79027
 346,55; 7389,126;  170,207;27168,889;26,73804
 347,14; 7376,644;  163,435;27487,598;26,39865
 347,74; 7420,641;  144,827;27869,864;26,24276
 348,33; 7598,795;  178,596;28420,892;26,27336
 348,92; 7686,171;  181,599;29109,307;25,94250
 349,52; 7747,479;  159,597;29486,131;25,87378
 350,11; 7801,469;  177,654;29780,485;25,75367
 350,70; 7741,979;  172,122;29801,438;25,54854
 351,29; 7655,658;  170,031;29587,678;25,44604
 351,89; 7628,202;  198,574;29521,502;25,33727
 352,48; 7560,616;  154,891;29577,683;25,17003
 353,07; 7524,182;  190,436;29611,494;24,92686
 353,67; 7483,043;  195,061;29508,263;24,86245
 354,26; 7398,047;  186,127;29303,183;24,76871
 354,85; 7347,875;  183,049;29206,884;24,68601
 355,45; 7271,229;  160,580;28976,851;24,67581
 356,04; 7248,035;  177,667;28863,558;24,64755
 356,63; 7198,628;  201,736;28756,951;24,50303
 357,22; 7102,588;  182,033;28529,688;24,41315
 357,82; 7091,891;  178,573;28303,126;24,58108
 358,41; 7073,701;  197,198;28225,802;24,53388
 359,00; 7001,226;  169,194;28039,475;24,51368
 359,60; 6993,407;  190,200;27965,671;24,49358
 360,19; 6981,962;  189,283;27739,961;24,65522
 360,78; 6929,500;  188,811;27658,808;24,53837
 361,37; 6934,343;  176,735;27434,916;24,79112
 361,97; 6934,481;  189,428;27383,861;24,80307
 362,56; 6827,608;  173,116;27056,561;24,75312
 363,15; 6809,259;  215,273;26861,468;24,74644
 363,74; 6753,209;  191,806;26488,153;24,95177
 364,34; 6709,750;  201,425;26092,628;25,13721
 364,93; 6610,718;  181,423;25766,867;25,12872
 365,52; 6509,969;  158,350;25396,410;25,16683
 366,11; 6523,783;  179,348;25099,599;25,45895
 366,71; 6422,109;  171,271;24664,030;25,52117
 367,30; 6400,925;  181,274;24351,150;25,73307
 367,89; 6414,245;  218,356;24117,806;25,92482
 368,48; 6396,202;  193,114;23831,370;26,24173
 369,07; 6296,748;  180,045;23481,745;26,25003
 369,67; 6308,070;  211,038;23145,589;26,58448
 370,26; 6280,510;  176,584;22904,962;26,85597
 370,85; 6296,412;  189,581;22579,595;27,27480
 371,44; 6277,679;  185,197;22472,583;27,33601
 372,03; 6253,615;  164,425;22167,136;27,67473
 372,63; 6260,822;  157,812;21893,705;28,07803
 373,22; 6259,778;  178,276;21618,236;28,36527
 373,81; 6224,625;  160,581;21348,164;28,62074
 374,40; 6247,545;  189,357;21109,918;28,95806
 374,99; 6265,629;  173,119;20805,236;29,52925
 375,59; 6236,153;  172,818;20548,239;29,75808
 376,18; 6326,870;  201,657;20421,884;30,29250
 376,77; 6358,899;  195,044;20284,216;30,68247
 377,36; 6361,357;  210,812;20218,225;30,74133
 377,95; 6437,179;  197,579;19936,400;31,61080
 378,55; 6487,147;  170,740;19722,664;32,30580
 379,14; 6496,339;  197,196;19652,640;32,37728
 379,73; 6589,940;  190,195;19586,848;32,99407
 380,32; 6668,346;  193,428;19698,446;33,19616
 380,91; 6739,557;  180,730;19479,572;33,98560
 381,50; 6857,681;  201,731;19462,208;34,55755
 382,10; 6835,654;  173,582;19341,830;34,75577
 382,69; 6997,592;  153,196;19281,655;35,78122
 383,28; 7084,010;  205,655;19266,811;36,08572
 383,87; 7163,589;  175,116;19108,719;36,91042
 384,46; 7238,441;  165,112;19057,158;37,44078
 385,05; 7371,278;  219,270;19032,316;38,01622
 385,64; 7451,398;  181,194;19079,829;38,46947
 386,24; 7567,602;  165,265;19008,018;39,28479
 386,83; 7714,331;  200,649;19082,215;39,79374
 387,42; 7928,622;  206,964;19161,969;40,73678
 388,01; 8099,399;  193,645;19331,088;41,31040
 388,60; 8409,942;  194,266;19613,654;42,30657
 389,19; 8571,481;  170,485;19711,863;42,99081
 389,78; 8805,679;  180,564;20001,915;43,51426
 390,37; 9180,141;  238,340;20408,716;44,33136
 390,96; 9369,935;  193,188;20570,771;45,03354
 391,56; 9558,240;  191,407;20731,732;45,60217
 392,15; 9828,576;  188,103;21012,597;46,29391
 392,74;10048,851;  164,630;21139,528;47,12405
 393,33;10330,318;  186,714;21382,297;47,85716
 393,92;10719,043;  192,780;21783,988;48,75254
 394,51;10925,805;  170,175;21988,050;49,29733
 395,10;11238,069;  212,461;22189,538;50,16867
 395,69;11440,988;  206,155;22317,361;50,81058
 396,28;11678,096;  205,150;22429,043;51,62438
 396,87;11804,444;  208,293;22506,720;52,00434
 397,46;12065,014;  212,979;22584,582;52,97803
 398,06;12344,589;  224,355;22908,699;53,42995
 398,65;12507,189;  211,721;22862,365;54,28309
 399,24;12735,685;  227,025;23077,241;54,74198
 399,83;12902,919;  208,688;23078,877;55,50558
 400,42;13161,533;  248,124;23183,898;56,30248
 401,01;13414,460;  221,325;23296,255;57,17519
 401,60;13618,805;  244,208;23371,456;57,83047
 402,19;13793,326;  257,022;23296,956;58,75149
 402,78;13944,498;  257,588;23374,469;59,20743
 403,37;13972,010;  233,156;23158,178;59,92951
 403,96;14090,415;  244,024;23048,728;60,71726
 404,55;14199,771;  262,271;22963,326;61,39583
 405,14;14277,787;  238,215;22846,319;62,09973
 405,73;14480,258;  260,611;22788,222;63,12097
 406,32;14590,579;  259,029;22622,115;64,08574
 406,91;14603,378;  257,594;22411,638;64,75470
 407,50;14673,801;  264,260;22245,873;65,55270
 408,09;14642,361;  226,473;21951,682;66,35558
 408,68;14718,652;  254,536;21879,207;66,88710
 409,27;14724,400;  246,476;21712,453;67,44591
 409,86;14841,887;  256,439;21553,202;68,48669
 410,45;14912,644;  293,934;21550,876;68,77146
 411,04;14968,804;  292,352;21485,723;69,25020
 411,63;14935,703;  286,935;21190,695;70,07719
 412,22;14947,688;  280,668;20981,662;70,85177
 412,81;14854,353;  302,989;20780,234;71,06114
 413,40;14803,933;  310,469;20416,348;72,08570
 413,99;14640,459;  342,848;20183,307;72,06290
 414,58;14538,501;  277,159;19746,662;73,24965
 415,17;14418,734;  279,605;19575,189;73,27651
 415,76;14465,879;  270,666;19419,040;74,13273
 416,35;14432,294;  276,443;19110,200;75,16212
 416,94;14578,830;  310,670;19268,010;75,26457
 417,53;14910,492;  280,221;19408,256;76,48601
 418,12;15097,227;  269,533;19521,995;77,01713
 418,71;15470,727;  298,316;19861,765;77,55489
 419,30;15614,479;  287,073;20065,109;77,49711
 419,89;15866,918;  272,460;20163,447;78,39962
 420,48;16211,357;  294,085;20362,535;79,31490
 421,07;16315,202;  290,165;20498,503;79,29913
 421,66;16406,009;  266,558;20466,188;79,89973
 422,25;16440,516;  271,189;20540,583;79,77213
 422,84;16567,163;  299,962;20440,598;80,76806
 423,43;16453,971;  287,647;20178,320;81,27590
 424,02;16313,201;  302,727;19996,442;81,29738
 424,60;16028,527;  280,439;19584,206;81,58039
 425,19;15929,256;  296,044;19327,453;82,14427
 425,78;15912,076;  293,661;19228,750;82,48398
 426,37;15856,114;  300,437;19061,951;82,91270
 426,96;15886,110;  276,206;18925,136;83,70402
 427,55;15876,454;  275,294;18888,508;83,81766
 428,14;15699,738;  267,837;18586,022;84,24361
 428,73;15686,599;  288,366;18469,381;84,69402
 429,32;15726,660;  285,513;18413,992;85,17619
 429,91;15736,547;  320,982;18460,799;84,98192
 430,50;15652,926;  300,065;18279,640;85,39057
 431,08;15605,961;  307,455;18121,157;85,88055
 431,67;15601,369;  330,460;18059,181;86,13655
 432,26;15479,228;  352,773;17866,633;86,36848
 432,85;15204,844;  372,079;17525,688;86,47023
 433,44;15037,178;  388,471;17227,983;86,99010
 434,03;14717,948;  402,711;16826,982;87,15904
 434,62;14425,991;  359,087;16459,216;87,37138
 435,21;14272,129;  365,618;16298,030;87,28441
 435,79;14086,656;  376,323;16109,888;87,14066
 436,38;14094,451;  368,410;15986,717;87,88431
 436,97;14053,513;  351,796;15943,277;87,87951
 437,56;13808,185;  366,118;15775,296;87,23416
 438,15;13836,010;  330,960;15658,418;88,11018
 438,74;13836,435;  358,116;15673,578;88,00465
 439,33;13831,157;  334,421;15641,739;88,17179
 439,91;13893,473;  308,120;15728,245;88,10145
 440,50;13923,418;  353,275;15720,771;88,30419
 441,09;14046,097;  352,437;15858,362;88,31243
 441,68;13981,401;  330,291;15871,755;87,83671
 442,27;14028,549;  309,595;15870,416;88,16343
 442,86;14041,975;  286,691;15851,837;88,37234
 443,44;14095,067;  306,610;15894,282;88,45745
 444,03;14087,465;  376,999;16005,300;87,72845
 444,62;13965,908;  300,075;15815,177;88,08085
 445,21;13858,657;  324,227;15685,782;88,10585
 445,80;13767,078;  356,622;15621,797;87,85000
 446,39;13575,294;  367,697;15356,081;88,11889
 446,97;13319,279;  300,708;15192,640;87,42030
 447,56;13201,760;  305,024;14946,971;88,08074
 448,15;13007,034;  323,939;14810,409;87,55132
 448,74;12839,949;  331,940;14558,368;87,92094
 449,33;12688,914;  323,946;14452,718;87,51623
 449,91;12501,031;  318,033;14243,239;87,48882
 450,50;12294,659;  307,954;13988,738;87,61709
 451,09;12178,244;  335,493;13900,297;87,30499
 451,68;12092,624;  356,497;13844,731;87,01011
 452,26;11981,457;  340,040;13735,304;86,90696
 452,85;11845,389;  319,499;13610,323;86,72065
 453,44;11794,098;  341,974;13683,567;85,83775
 454,03;11805,540;  314,351;13625,594;86,32695
 454,61;11792,556;  311,590;13609,495;86,33665
 455,20;11885,580;  338,979;13743,391;86,14030
 455,79;11867,469;  348,740;13741,725;86,00569
 456,38;11865,496;  342,063;13817,793;85,51250
 456,97;11914,647;  330,061;13863,829;85,59764
 457,55;11876,257;  329,759;13876,516;85,23441
 458,14;11854,018;  356,290;13890,729;84,95164
 458,73;11719,638;  341,529;13835,213;84,32174
 459,31;11750,052;  366,306;13850,064;84,42562
 459,90;11753,200;  383,302;13974,214;83,65810
 460,49;11798,667;  420,299;14008,495;83,73715
 461,08;11805,857;  340,310;14107,021;83,28458
 461,66;11798,177;  341,306;14143,370;83,00839
 462,25;11854,555;  349,006;14205,437;83,03400
 462,84;11814,468;  376,465;14250,179;82,44370
 463,43;11729,929;  301,938;14247,046;81,94982
 464,01;11706,986;  339,172;14309,864;81,36902
 464,60;11640,275;  396,704;14200,171;81,45469
 465,19;11354,293;  339,251;13997,782;80,64588
 465,77;11322,511;  340,871;13977,125;80,53268
 466,36;11211,332;  371,245;13839,631;80,48542
 466,95;10946,537;  353,477;13528,774;80,40092
 467,53;10624,850;  350,645;13289,085;79,40838
 468,12;10408,069;  372,646;13030,152;79,28436
 468,71;10098,249;  349,714;12788,109;78,37454
 469,29; 9911,619;  337,032;12597,465;78,09338
 469,88; 9670,914;  341,805;12287,066;78,09883
 470,47; 9725,325;  410,505;12431,822;77,48585
 471,06; 9679,526;  365,120;12397,793;77,40929
 471,64; 9655,927;  375,118;12462,030;76,78395
 472,23; 9605,188;  332,518;12524,681;76,05435
 472,81; 9629,480;  330,972;12651,188;75,47358
 473,40; 9710,566;  343,056;12714,206;75,72061
 473,99; 9825,987;  441,364;12943,375;75,06490
 474,57; 9810,595;  349,979;13036,466;74,57239
 475,16; 9871,249;  370,204;13165,595;74,25365
 475,75; 9929,282;  376,600;13294,845;73,94721
 476,33; 9935,364;  383,837;13411,872;73,31518
 476,92; 9894,609;  386,288;13452,566;72,76993
 477,51; 9924,200;  371,757;13544,460;72,51696
 478,09; 9866,427;  368,526;13511,952;72,26351
 478,68; 9832,965;  375,529;13454,486;72,31032
 479,27; 9726,849;  407,139;13495,077;71,20839
 479,85; 9679,782;  381,605;13495,561;70,90291
 480,44; 9735,440;  364,993;13660,405;70,47880
 481,02;10555,350;  382,306;14973,490;69,72048
 481,61;11801,311;  404,380;16859,203;69,26195
 482,20;12460,826;  382,844;18027,106;68,45275
 482,78;13033,660;  415,453;18824,862;68,54216
 483,37;13367,417;  404,160;19388,819;68,28280
 483,95;13484,955;  414,546;19540,072;68,34013
 484,54;13546,084;  429,918;19769,660;67,81976
 485,13;13483,253;  405,860;19637,609;67,99898
 485,71;13246,023;  383,088;19561,922;67,06839
 486,30;13005,942;  414,396;19225,799;66,93571
 486,88;12820,264;  453,937;18897,130;67,05090
 487,47;12239,432;  439,784;18158,769;66,59325
 488,05;11636,262;  423,480;17350,736;66,24099
 488,64;10752,611;  419,870;16087,163;65,95103
 489,23; 9541,510;  438,174;14340,035;65,48286
 489,81; 8086,100;  428,406;12265,536;64,69215
 490,40; 7633,876;  387,177;11679,649;64,17283
 490,98; 7403,849;  377,333;11388,277;63,81393
 491,57; 7321,528;  389,405;11305,362;63,50449
 492,15; 7202,131;  379,719;11271,497;62,63819
 492,74; 7144,921;  391,249;11185,046;62,56994
 493,32; 7075,901;  401,179;11096,090;62,41026
 493,91; 6945,459;  371,029;10997,172;61,87034
 494,50; 6904,693;  396,040;10987,804;61,45014
 495,08; 6850,360;  367,578;10899,848;61,55162
 495,67; 6797,694;  393,490;10870,398;61,12685
 496,25; 6640,600;  329,188;10741,795;60,61318
 496,84; 6600,764;  352,951;10758,565;60,04271
 497,42; 6508,643;  346,344;10738,589;59,29709
 498,01; 6461,672;  371,414;10640,741;59,30533
 498,59; 6374,563;  337,653;10625,516;58,67992
 499,18; 6304,481;  341,722;10495,159;58,72651
 499,76; 6280,923;  361,958;10446,642;58,69262
 500,35; 6112,645;  344,581;10305,032;57,90967
 500,93; 6056,365;  327,267;10285,849;57,52926
 501,52; 5939,163;  332,883;10186,900;56,89335
 502,10; 5943,922;  357,201;10166,328;56,95431
 502,69; 5767,136;  332,974; 9938,653;56,57240
 503,27; 5617,203;  315,963; 9848,314;55,61314
 503,86; 5573,580;  333,818; 9763,892;55,56438
 504,44; 5514,799;  317,822; 9600,262;55,98719
 505,03; 5316,586;  297,206; 9442,846;54,88276
 505,61; 5267,144;  323,205; 9319,101;54,95771
 506,19; 5173,422;  353,052; 9155,045;54,76452
 506,78; 5020,492;  304,906; 8972,804;54,40288
 507,36; 4896,755;  317,744; 8825,028;53,82459
 507,95; 4833,751;  315,679; 8697,312;53,90443
 508,53; 4757,074;  315,444; 8551,911;53,92640
 509,12; 4705,608;  330,293; 8424,091;54,05763
 509,70; 4571,831;  337,141; 8297,561;53,19682
 510,29; 4474,734;  342,760; 8155,917;52,88482
 510,87; 4355,192;  312,906; 7973,279;52,76878
 511,46; 4210,708;  299,523; 7826,672;51,96104
 512,04; 4146,739;  312,219; 7675,583;52,07566
 512,62; 4058,473;  315,985; 7551,241;51,72572
 513,21; 3971,705;  298,068; 7394,888;51,76455
 513,79; 3877,114;  304,542; 7274,481;51,25687
 514,38; 3820,065;  278,384; 7111,677;51,82978
 514,96; 3741,468;  328,691; 7037,290;50,87168
 515,54; 3640,613;  293,309; 6884,424;50,78510
 516,13; 3607,188;  316,540; 6833,644;50,49249
 516,71; 3511,274;  308,699; 6687,051;50,21007
 517,30; 3409,665;  285,396; 6596,440;49,50478
 517,88; 3427,192;  311,780; 6533,254;50,07515
 518,46; 3309,213;  281,167; 6366,725;49,75790
 519,05; 3256,857;  310,247; 6315,772;49,06498
 519,63; 3231,498;  301,630; 6284,195;48,97345
 520,22; 3197,851;  318,330; 6201,767;48,94284
 520,80; 3100,660;  306,715; 6200,647;47,40376
 521,38; 3106,648;  338,325; 6179,452;47,39364
 521,97; 3064,304;  302,334; 6099,770;47,64123
 522,55; 3025,710;  319,257; 6071,093;47,05373
 523,13; 3015,219;  281,260; 6101,751;46,97127
 523,72; 2993,972;  296,397; 6063,462;46,77551
 524,30; 3070,811;  310,955; 6224,858;46,66724
 524,89; 3023,882;  285,719; 6213,573;46,19147
 525,47; 3053,100;  315,803; 6325,757;45,54605
 526,05; 3070,539;  278,958; 6353,561;45,95495
 526,64; 3097,216;  316,421; 6509,940;44,89846
 527,22; 3155,547;  310,033; 6629,372;45,02865
 527,80; 3239,304;  341,652; 6780,615;45,00184
 528,39; 3217,233;  301,808; 6769,289;45,07821
 528,97; 3257,175;  299,345; 6970,083;44,34037
 529,55; 3348,640;  317,491; 7159,382;44,30279
 530,14; 3435,434;  338,810; 7344,514;44,20147
 530,72; 3429,633;  298,422; 7454,499;43,75597
 531,30; 3490,320;  278,888; 7545,394;44,19500
 531,89; 3520,591;  310,657; 7640,840;43,79064
 532,47; 3559,968;  338,274; 7729,848;43,58603
 533,05; 3567,615;  343,267; 7796,815;43,25924
 533,63; 3579,385;  332,891; 7857,868;43,14291
 534,22; 3565,594;  304,506; 7869,622;43,10691
 534,80; 3597,541;  328,588; 7970,261;42,77797
 535,38; 3671,261;  410,504; 8060,182;42,62607
 535,97; 3563,539;  323,198; 8016,588;42,11851
 536,55; 3609,907;  368,974; 8064,957;42,11201
 537,13; 3604,639;  373,810; 8034,684;42,17311
 537,71; 3583,907;  417,348; 8098,650;41,22424
 538,30; 3666,912;  430,431; 8181,139;41,75723
 538,88; 3674,308;  465,362; 8229,021;41,33291
 539,46; 3775,793;  506,050; 8422,968;41,30071
 540,05; 3798,814;  525,283; 8532,797;40,88074
 540,63; 3885,865;  571,745; 8710,352;40,72098
 541,21; 3938,055;  617,364; 8894,721;40,11777
 541,79; 4020,018;  626,210; 9006,166;40,49912
 542,38; 4042,390;  656,437; 9154,071;39,84583
 542,96; 4092,200;  673,291; 9277,109;39,73711
 543,54; 4160,033;  681,055; 9495,579;39,46870
 544,12; 4179,340;  650,903; 9687,525;39,04598
 544,70; 4179,727;  649,214; 9723,665;38,90608
 545,29; 4234,096;  661,052; 9906,533;38,64639
 545,87; 4186,480;  639,902; 9891,628;38,33423
 546,45; 4152,225;  584,052; 9943,577;38,12344
 547,03; 4174,638;  577,285; 9993,574;38,20351
 547,62; 4197,080;  551,441;10139,292;38,02353
 548,20; 4212,409;  553,444;10248,429;37,74080
 548,78; 4224,394;  521,916;10419,246;37,40885
 549,36; 4236,266;  482,684;10605,949;37,07877
 549,94; 4283,545;  446,673;10779,283;37,13361
 550,53; 4357,637;  442,298;10983,233;37,14413
 551,11; 4353,554;  426,534;11153,871;36,60760
 551,69; 4423,427;  445,376;11457,040;36,12579
 552,27; 4499,176;  393,296;11683,084;36,36809
 552,85; 4618,866;  399,918;12082,685;36,11257
 553,44; 4739,567;  399,145;12322,039;36,40409
 554,02; 4821,965;  410,224;12702,216;35,89118
 554,60; 4890,114;  360,611;12983,243;35,88399
 555,18; 5032,922;  398,377;13365,010;35,74208
 555,76; 5106,522;  365,609;13720,647;35,49906
 556,34; 5242,688;  378,230;14113,353;35,41619
 556,93; 5343,951;  370,454;14482,627;35,24260
 557,51; 5486,567;  350,077;14769,016;35,62322
 558,09; 5550,358;  382,300;15199,180;34,87953
 558,67; 5632,793;  375,465;15515,784;34,72403
 559,25; 5718,611;  390,386;15819,991;34,53248
 559,83; 5773,939;  365,467;16095,458;34,38318
 560,41; 5925,875;  368,768;16443,224;34,57105
 561,00; 5994,676;  367,234;16785,108;34,27631
 561,58; 6032,231;  344,767;17004,453;34,13908
 562,16; 6110,994;  347,534;17336,702;33,92432
 562,74; 6237,020;  347,378;17721,201;33,89952
 563,32; 6331,481;  347,775;18125,965;33,65757
 563,90; 6465,427;  361,234;18462,138;33,72314
 564,48; 6536,217;  365,305;18914,710;33,26744
 565,06; 6725,713;  365,772;19433,227;33,35495
 565,65; 6906,179;  363,088;20044,403;33,24519
 566,23; 7177,192;  410,542;20815,016;33,16258
 566,81; 7311,691;  353,232;21434,806;33,00731
 567,39; 7600,850;  363,315;22300,678;32,99182
 567,97; 7728,533;  385,694;22920,733;32,58410
 568,55; 8018,642;  388,621;23740,671;32,67388
 569,13; 8131,687;  364,696;24467,832;32,22398
 569,71; 8427,690;  359,610;25327,132;32,31430
 570,29; 8780,321;  396,608;26245,011;32,43416
 570,87; 8999,580;  396,840;26985,343;32,35511
 571,45; 9090,339;  377,926;27601,029;32,00375
 572,03; 9202,861;  343,239;27961,222;32,07918
 572,61; 9338,397;  334,236;28658,824;31,78920
 573,20; 9558,098;  385,616;29390,848;31,62354
 573,78; 9742,268;  367,006;29875,934;31,77094
 574,36; 9835,899;  373,312;30441,759;31,47016
 574,94; 9985,333;  435,086;30797,227;31,45446
 575,52; 9965,030;  378,016;31008,304;31,29913
 576,10;10138,251;  432,859;31624,738;31,11512
 576,68;10271,114;  417,700;32064,698;31,13538
 577,26;10421,806;  439,173;32824,747;30,82432
 577,84;10594,521;  435,082;33311,515;30,90189
 578,42;10643,768;  473,857;33478,651;30,81344
 579,00;10618,440;  436,775;33635,442;30,66890
 579,58;10662,348;  469,932;33937,228;30,45485
 580,16;10588,108;  456,089;33933,363;30,26537
 580,74;10637,057;  449,474;34083,319;30,28968
 581,32;10614,135;  440,779;34167,862;30,16376
 581,90;10542,632;  464,781;34101,747;29,96064
 582,48;10605,742;  455,012;34282,332;30,00749
 583,06;10575,706;  455,856;34362,937;29,84583
 583,64;10544,758;  454,471;34531,442;29,61028
 584,22;10492,132;  456,171;34396,463;29,56946
 584,80;10356,263;  481,857;34079,390;29,39027
 585,38;10202,446;  479,538;33694,321;29,27284
 585,96;10158,165;  448,161;33857,462;29,06378
 586,54;10119,085;  469,478;33797,750;28,95322
 587,12;10097,511;  449,398;34103,124;28,66878
 587,70;10092,422;  476,238;34127,726;28,57581
 588,28;10108,745;  458,244;34244,785;28,56315
 588,86;10055,346;  462,169;34299,191;28,35113
 589,44;10000,958;  442,022;34369,330;28,17476
 590,02;10035,215;  447,020;34636,214;28,04452
 590,59;10037,147;  429,477;34723,288;28,01576
 591,17;10039,956;  426,029;35011,854;27,79730
 591,75;10007,756;  422,101;35141,481;27,60895
 592,33;10054,940;  444,407;35301,180;27,57149
 592,91;10065,326;  385,181;35532,062;27,54198
 593,49;10078,512;  390,569;35894,385;27,28705
 594,07;10117,036;  415,030;36051,230;27,22514
 594,65;10035,550;  419,478;36152,307;26,91103
 595,23;10139,857;  409,558;36498,582;26,96193
 595,81;10086,237;  407,252;36607,944;26,73702
 596,39;10108,533;  398,945;36722,423;26,73089
 596,97;10063,597;  397,027;36945,738;26,44846
 597,55;10011,392;  380,480;36785,822;26,45467
 598,12; 9946,354;  392,801;36843,285;26,20967
 598,70; 9944,238;  377,413;36958,283;26,15254
 599,28; 9931,831;  393,182;37213,576;25,90589
 599,86; 9902,978;  380,797;37142,896;25,90217
 600,44; 9847,432;  347,645;37263,443;25,73366
 601,02; 9871,938;  410,961;37241,988;25,68752
 601,60; 9814,155;  387,409;37168,790;25,62912
 602,18; 9719,365;  361,493;37299,344;25,33410
 602,75; 9679,981;  359,559;37367,219;25,18511
 603,33; 9669,637;  377,951;37360,591;25,12445
 603,91; 9594,283;  361,573;37324,497;24,97830
 604,49; 9623,725;  386,490;37421,470;24,94192
 605,07; 9540,913;  387,870;37436,834;24,70526
 605,65; 9612,816;  397,030;37586,878;24,78038
 606,23; 9593,360;  457,246;37731,038;24,51083
 606,80; 9577,021;  498,175;37784,818;24,34879
 607,38; 9534,522;  531,418;37725,308;24,20587
 607,96; 9514,160;  575,328;37784,125;24,02344
 608,54; 9473,164;  649,646;37914,093;23,67811
 609,12; 9517,307;  630,406;37903,880;23,84243
 609,70; 9491,909;  660,566;38026,295;23,63487
 610,27; 9449,139;  682,020;38081,214;23,44200
 610,85; 9472,033;  702,489;38111,217;23,44251
 611,43; 9395,143;  688,720;38030,852;23,31528
 612,01; 9275,240;  662,254;37782,215;23,20311
 612,59; 9253,198;  667,258;37907,018;23,05584
 613,16; 9191,707;  620,863;37815,017;23,04352
 613,74; 9119,000;  589,336;37665,576;23,00574
 614,32; 9073,772;  559,569;37691,925;22,92934
 614,90; 8990,517;  529,102;37567,978;22,84469
 615,48; 8831,795;  482,018;37205,946;22,73661
 616,05; 8830,766;  448,093;37231,614;22,78921
 616,63; 8758,430;  445,630;37017,359;22,73013
 617,21; 8709,351;  452,174;36928,245;22,63724
 617,79; 8661,991;  431,945;36883,378;22,57811
 618,36; 8630,800;  443,332;36837,895;22,49640
 618,94; 8462,414;  381,250;36430,579;22,41696
 619,52; 8383,199;  405,554;36255,639;22,25279
 620,10; 8372,629;  391,944;36205,497;22,28398
 620,67; 8324,869;  395,630;36085,806;22,21687
 621,25; 8231,060;  413,794;35996,666;21,96918
 621,83; 8181,586;  393,481;35913,241;21,92612
 622,41; 8173,018;  443,096;35948,624;21,77104
 622,98; 8069,415;  398,553;35616,127;21,78135
 623,56; 8076,379;  406,860;35652,446;21,76023
 624,14; 7986,916;  388,334;35464,029;21,66338
 624,72; 7961,436;  383,634;35382,209;21,65174
 625,29; 7917,972;  375,091;35419,278;21,52392
 625,87; 7902,105;  404,484;35448,009;21,39517
 626,45; 7820,753;  358,474;35305,518;21,35311
 627,02; 7754,727;  376,638;35172,688;21,20381
 627,60; 7741,109;  365,953;35208,750;21,16695
 628,18; 7698,307;  336,406;35183,034;21,12658
 628,76; 7662,287;  343,630;35152,622;21,02519
 629,33; 7647,608;  377,787;35141,849;20,91189
 629,91; 7604,552;  360,329;35171,958;20,80978
 630,49; 7602,136;  375,401;35215,998;20,74228
 631,06; 7595,561;  374,785;35425,240;20,60109
 631,64; 7544,625;  362,321;35408,705;20,49371
 632,22; 7483,692;  332,395;35337,755;20,42915
 632,79; 7517,054;  357,395;35576,586;20,32886
 633,37; 7490,503;  343,793;35634,186;20,25115
 633,95; 7465,625;  348,089;35788,117;20,08332
 634,52; 7424,883;  335,557;35793,285;19,99374
 635,10; 7414,223;  331,174;35839,663;19,94748
 635,68; 7426,941;  337,703;36062,263;19,84416
 636,25; 7376,444;  323,237;35952,922;19,79587
 636,83; 7333,902;  314,784;36204,083;19,55769
 637,41; 7368,853;  339,240;36289,950;19,55348
 637,98; 7372,403;  345,009;36452,163;19,46261
 638,56; 7351,016;  340,005;36522,485;19,37681
 639,13; 7320,174;  318,860;36600,787;19,29697
 639,71; 7358,884;  363,554;36768,087;19,21555
 640,29; 7222,820;  288,554;36497,658;19,15061
 640,86; 7232,926;  312,093;36735,158;19,00124
 641,44; 7230,956;  313,478;36666,581;19,02858
 642,02; 7200,524;  344,939;36703,158;18,85567
 642,59; 7159,784;  316,555;36858,197;18,72721
 643,17; 7110,737;  318,863;36784,774;18,62527
 643,74; 7081,535;  307,786;36875,121;18,52404
 644,32; 7041,642;  335,248;36776,006;18,40355
 644,89; 7057,979;  329,633;36777,275;18,46031
 645,47; 7049,855;  340,479;36918,852;18,34247
 646,05; 6965,654;  337,787;36779,199;18,18773
 646,62; 6964,914;  322,326;36798,930;18,21054
 647,20; 6961,097;  333,403;36934,507;18,10791
 647,77; 6883,819;  306,018;36822,392;18,01329
 648,35; 6855,080;  310,711;36681,738;17,99336
 648,92; 6840,648;  327,557;36769,469;17,87253
 649,50; 6770,139;  287,327;36593,124;17,85613
 650,08; 6737,322;  298,173;36527,470;17,77332
 650,65; 6731,890;  301,481;36760,893;17,63717
 651,23; 6794,458;  294,789;37478,009;17,48011
 651,80; 6991,488;  282,097;38426,279;17,58955
 652,38; 7034,210;  297,943;38764,010;17,51223
 652,95; 7083,624;  282,251;39119,125;17,51267
 653,53; 7064,730;  318,021;39376,395;17,27340
 654,10; 7088,375;  339,328;39472,357;17,24642
 654,68; 7026,020;  289,021;39460,626;17,19868
 655,25; 7004,511;  285,867;39602,434;17,08858
 655,83; 6995,541;  284,637;39603,857;17,06774
 656,40; 6950,109;  318,252;39534,204;16,91112
 656,98; 6968,446;  288,714;39457,089;17,05389
 657,55; 6929,783;  299,253;39281,589;17,00906
 658,13; 6816,659;  294,407;39005,397;16,84858
 658,70; 6773,073;  310,869;38751,436;16,81090
 659,28; 6577,333;  314,253;37982,782;16,62682
 659,85; 6400,517;  305,254;37119,206;16,55694
 660,43; 6436,316;  321,177;37207,629;16,57828
 661,00; 6416,884;  304,100;37314,591;16,51635
 661,58; 6453,606;  300,639;37590,860;16,50021
 662,15; 6432,174;  281,024;37801,361;16,39418
 662,73; 6508,665;  346,409;38066,938;16,33661
 663,30; 6459,771;  300,409;38285,515;16,21520
 663,88; 6464,647;  315,178;38452,169;16,12468
 664,45; 6477,061;  290,717;38705,285;16,10416
 665,03; 6525,321;  296,333;38921,093;16,12693
 665,60; 6615,043;  372,563;39514,747;15,94822
 666,17; 6506,611;  304,718;39569,709;15,79497
 666,75; 6544,256;  301,564;39834,209;15,79123
 667,32; 6603,978;  321,718;40222,863;15,74456
 667,90; 6624,085;  297,872;40553,979;15,71491
 668,47; 6630,806;  316,257;40718,941;15,62904
 669,05; 6675,836;  299,719;41088,210;15,63215
 669,62; 6566,866;  274,565;41105,710;15,41054
 670,19; 6583,587;  287,411;41229,826;15,37813
 670,77; 6637,232;  293,719;41441,249;15,41651
 671,34; 6622,954;  301,258;41367,134;15,39404
 671,92; 6681,984;  281,643;41697,327;15,45391
 672,49; 6647,936;  309,643;41711,443;15,30922
 673,06; 6601,120;  256,643;41810,404;15,26812
 673,64; 6622,457;  287,720;41795,982;15,26139
 674,21; 6589,025;  279,721;41652,251;15,24998
 674,79; 6572,824;  305,567;41889,982;15,07117
 675,36; 6603,315;  307,106;42048,405;15,08388
 675,93; 6537,498;  269,798;41923,290;15,04724
 676,51; 6585,759;  296,337;42038,791;15,06721
 677,08; 6600,865;  300,029;42205,676;15,03577
 677,65; 6560,895;  300,876;42223,945;14,93216
 678,23; 6580,001;  299,722;42528,138;14,87216
 678,80; 6565,108;  287,261;42656,253;14,81708
 679,38; 6581,060;  284,030;42765,984;14,82284
 679,95; 6608,551;  303,184;42939,100;14,78886
 680,52; 6618,273;  285,338;43307,216;14,72027
 681,10; 6695,918;  299,338;43558,870;14,78652
 681,67; 6697,179;  298,493;43842,832;14,69465
 682,24; 6712,362;  268,570;43972,563;14,74417
 682,82; 6775,392;  280,108;44494,448;14,69045
 683,39; 6836,883;  326,186;44959,179;14,58718
 683,96; 6848,605;  289,032;45091,371;14,64114
 684,54; 6851,326;  276,109;45456,641;14,55321
 685,11; 6924,202;  309,340;45702,833;14,57227
 685,68; 6959,924;  286,186;46266,487;14,51434
 686,25; 6923,569;  269,033;46346,142;14,44217
 686,83; 6987,983;  281,187;46473,950;14,51915
 687,40; 7037,013;  273,418;46719,296;14,56231
 687,97; 7108,735;  297,110;47163,489;14,53414
 688,55; 7088,303;  260,264;47251,297;14,53051
 689,12; 7055,794;  244,188;47453,335;14,42857
 689,69; 7092,977;  250,342;47563,451;14,46245
 690,26; 7042,776;  267,880;47710,336;14,28024
 690,84; 7149,421;  276,958;47853,298;14,44513
 691,41; 7080,758;  288,496;48013,567;14,23206
 691,98; 7183,403;  295,189;48194,683;14,38056
 692,56; 7130,971;  278,881;48329,260;14,26022
 693,13; 7188,462;  328,728;48309,991;14,29669
 693,70; 7208,876;  300,574;48497,568;14,33347
 694,27; 7180,444;  272,728;48602,222;14,29296
 694,84; 7216,782;  274,344;48711,184;14,33297
 695,42; 7260,888;  331,728;48858,454;14,27906
 695,99; 7246,764;  292,190;49050,723;14,26330
 696,56; 7195,870;  285,575;48886,531;14,21843
 697,13; 7285,823;  302,960;49344,339;14,23872
 697,71; 7244,237;  269,806;49297,147;14,22559
 698,28; 7261,267;  279,345;49636,724;14,14565
 698,85; 7259,681;  255,422;49652,917;14,17938
 699,42; 7276,864;  259,884;49787,879;14,16771
 699,99; 7333,817;  299,115;49910,456;14,17962
 700,57; 7288,000;  294,269;50012,802;14,06665
 701,14; 7337,261;  271,423;50102,610;14,17955
 701,71; 7335,367;  310,808;50372,803;14,03172
 702,28; 7362,320;  286,193;50343,765;14,13598
 702,85; 7397,580;  287,193;50442,034;14,17687
 703,43; 7396,225;  305,116;50729,842;14,06276
 704,00; 7426,947;  323,270;50879,650;14,05100
 704,57; 7434,053;  295,193;50869,381;14,11562
 705,14; 7533,237;  320,578;51078,189;14,21000
 705,71; 7501,189;  325,348;51209,536;14,10230
 706,28; 7497,065;  297,425;51085,036;14,17598
 706,86; 7553,787;  334,810;51220,152;14,18675
 707,43; 7559,509;  349,502;51187,113;14,18243
 708,00; 7578,846;  322,272;51296,614;14,23574
 708,57; 7557,260;  303,964;51216,191;14,24667
 709,14; 7579,521;  323,118;51342,845;14,22274
 709,71; 7603,473;  303,426;51511,961;14,25553
 710,28; 7636,734;  294,888;51644,769;14,29769
 710,86; 7602,609;  311,196;51785,884;14,16505
 711,43; 7692,870;  324,196;51754,539;14,32748
 712,00; 7635,130;  315,504;51848,654;14,20372
 712,57; 7715,159;  311,350;52033,308;14,31463
 713,14; 7742,112;  300,735;52068,655;14,37449
 713,71; 7707,680;  311,428;52110,540;14,27872
 714,28; 7700,171;  294,043;52009,194;14,32100
 714,85; 7689,355;  282,428;51853,925;14,36244
 715,42; 7756,076;  290,121;52085,887;14,41422
 716,00; 7805,491;  358,659;52233,310;14,35543
 716,57; 7777,828;  290,044;52298,579;14,39722
 717,14; 7807,319;  278,967;52131,541;14,51876
 717,71; 7820,887;  261,045;52118,965;14,57799
 718,28; 7891,147;  308,429;52350,926;14,57024
 718,85; 7876,331;  262,891;52374,504;14,60987
 719,42; 7917,668;  289,661;52479,081;14,61600
 719,99; 7885,390;  269,122;52273,735;14,64537
 720,56; 7964,804;  299,353;52573,851;14,66384
 721,13; 7967,680;  271,661;52641,043;14,69565
 721,70; 7952,171;  261,969;52528,851;14,71334
 722,27; 8020,123;  285,969;52482,890;14,81726
 722,84; 8052,615;  332,354;52699,775;14,74249
 723,41; 8074,798;  267,662;52779,891;14,86727
 723,98; 8086,904;  282,970;52943,391;14,81935
 724,55; 8169,857;  312,509;52994,814;14,91459
 725,12; 8159,964;  239,124;52916,776;15,03643
 725,69; 8241,532;  274,586;53109,584;15,07892
 726,27; 8274,330;  278,586;53314,700;15,07604
 726,84; 8352,437;  291,817;53571,892;15,12877
 727,41; 8383,390;  292,048;53460,008;15,21845
 727,98; 8442,650;  301,202;53736,508;15,23608
 728,55; 8495,679;  322,202;53596,470;15,34226
 729,12; 8498,324;  271,664;53726,816;15,38984
 729,69; 8609,969;  304,741;53872,086;15,50427
 730,26; 8620,230;  303,665;54140,048;15,44785
 730,82; 8562,721;  291,203;54027,163;15,39289
 731,39; 8680,520;  297,204;54132,971;15,57202
 731,96; 8714,857;  271,434;54460,395;15,58144
 732,53; 8789,348;  293,204;54703,357;15,61500
 733,10; 8832,916;  303,281;54686,011;15,68446
 733,67; 8849,945;  296,358;54987,973;15,63967
 734,24; 8858,052;  282,743;54595,704;15,78870
 734,81; 8920,081;  323,897;54758,819;15,79167
 735,38; 8904,726;  284,436;54541,550;15,88785
 735,95; 8885,910;  291,282;54325,974;15,90576
 736,52; 8980,324;  307,975;54542,320;15,99051
 737,09; 8971,046;  300,052;54205,128;16,08567
 737,66; 9037,845;  338,283;54294,628;16,12333
 738,23; 9118,797;  283,206;54435,282;16,31626
 738,80; 9207,981;  347,206;54783,244;16,27741
 739,37; 9213,933;  307,360;54988,283;16,28826
 739,94; 9269,886;  291,361;54960,783;16,42330
 740,51; 9423,992;  398,822;54989,976;16,53229
 741,07; 9417,022;  287,669;55001,784;16,68555
 741,64; 9495,590;  305,361;55283,207;16,71624
 742,21; 9542,235;  287,438;55298,861;16,82341
 742,78; 9509,418;  265,515;55003,439;16,88757
 743,35; 9630,140;  296,054;55360,631;16,95116
 743,92; 9697,170;  321,439;55485,901;16,99596
 744,49; 9687,507;  315,978;55347,324;17,02944
 745,06; 9724,383;  283,747;55364,517;17,13962
 745,63; 9759,489;  276,132;55307,940;17,23250
 746,19; 9832,442;  284,978;55291,671;17,35691
 746,76; 9807,241;  295,440;55333,787;17,28213
 747,33; 9867,039;  284,671;55331,287;17,40773
 747,90; 9971,992;  304,287;55570,172;17,49308
 748,47;10040,406;  292,595;55467,287;17,66718
 749,04;10024,590;  314,133;55417,095;17,62239
 749,61;10098,927;  324,903;55368,827;17,75677
 750,17;10177,572;  311,672;55477,865;17,88396
 750,74;10170,678;  301,749;55411,981;17,90762
 751,31;10182,016;  267,826;55307,404;18,01284
 751,88;10218,507;  266,980;55142,289;18,13480
 752,45;10298,382;  287,750;55391,174;18,16699
 753,02;10332,489;  298,442;55082,674;18,31557
 753,58;10377,980;  276,981;55049,098;18,44186
 754,15;10451,625;  283,751;55229,829;18,50519
 754,72;10392,424;  282,828;54954,406;18,49150
 755,29;10418,223;  267,597;54789,445;18,61754
 755,86;10529,252;  284,597;54987,330;18,72787
 756,42;10674,051;  286,828;54919,830;19,01273
 756,99;10658,542;  251,136;54833,253;19,06743
 757,56;10626,033;  270,060;54787,677;18,99565
 758,13;10680,986;  211,367;54778,869;19,18655
 758,70;10815,092;  238,598;54822,677;19,37652
 759,26;10845,122;  228,060;54837,562;19,44178
 759,83;10925,151;  239,060;54939,293;19,53573
 760,40;10962,335;  226,753;54823,793;19,66330
 760,97;10965,134;  217,830;54841,678;19,67511
 761,53;10951,009;  200,446;54453,948;19,81543
 762,10;10998,962;  212,984;54440,756;19,89014
 762,67;11080,684;  244,523;54427,102;19,99934
 763,24;11006,483;  202,292;54032,295;20,07094
 763,80;11101,281;  238,677;54121,334;20,15974
 764,37;11088,157;  240,139;54150,218;20,12243
 764,94;11109,648;  216,524;53655,411;20,38426
 765,50;11151,293;  229,447;53698,681;20,42641
 766,07;11253,784;  273,909;53765,258;20,52645
 766,64;11221,506;  237,909;53484,912;20,62763
 767,21;11289,228;  249,525;53336,874;20,79536
 767,77;11326,411;  272,371;53316,989;20,83914
 768,34;11359,441;  278,294;53213,182;20,93354
 768,91;11360,317;  270,371;53061,836;21,00708
 769,47;11466,192;  263,449;53144,952;21,18462
 770,04;11433,068;  273,680;52968,529;21,17738
 770,61;11489,636;  255,988;52776,106;21,38923
 771,18;11500,435;  248,142;52584,299;21,50004
 771,74;11629,849;  271,449;52771,953;21,63484
 772,31;11646,725;  262,527;52573,530;21,76253
 772,88;11649,447;  234,988;52332,800;21,90967
 773,44;11605,553;  253,066;52111,300;21,89139
 774,01;11740,736;  270,373;52206,262;22,08562
 774,58;11768,689;  249,527;51799,300;22,34571
 775,14;11814,488;  247,220;51982,955;22,35837
 775,71;11790,364;  249,605;51886,147;22,34998
 776,27;11981,932;  309,605;51837,878;22,65228
 776,84;12009,654;  331,990;51829,917;22,67599
 777,41;12055,606;  277,836;51661,109;22,92141
 777,97;12024,097;  251,606;51326,225;23,04959
 778,54;12130,742;  273,991;51381,572;23,19959
 779,11;12242,003;  286,837;51416,610;23,38200
 779,67;12301,571;  251,376;51394,803;23,56157
 780,24;12325,446;  269,453;51262,457;23,64245
 780,80;12404,553;  285,068;51128,957;23,83666
 781,37;12453,044;  275,684;51131,765;23,94475
 781,94;12466,150;  254,684;50875,035;24,12363
 782,50;12563,180;  269,607;50789,920;24,33392
 783,07;12562,825;  292,454;50872,805;24,25917
 783,63;12588,008;  257,685;50595,997;24,49491
 784,20;12624,961;  279,685;50630,651;24,51845
 784,77;12584,760;  267,685;50313,844;24,61143
 785,33;12642,635;  241,993;50191,806;24,82620
 785,90;12761,896;  267,686;50231,998;25,00627
 786,46;12749,694;  278,840;50231,191;24,96550
 787,03;12793,647;  248,763;49988,460;25,22107
 787,59;12765,446;  260,840;49854,807;25,21397
 788,16;12940,552;  281,610;49774,076;25,57751
 788,73;12936,274;  269,533;49591,192;25,68190
 789,29;12901,073;  263,302;49230,615;25,80859
 789,86;12954,487;  282,918;49188,731;25,91015
 790,42;12991,363;  270,380;49006,693;26,10165
 790,99;12979,777;  279,611;48804,424;26,17252
 791,55;13059,653;  258,611;48747,001;26,40022
 792,12;13150,682;  286,457;48744,194;26,54731
 792,68;13078,327;  266,611;48385,386;26,62519
 793,25;13133,203;  275,227;48188,348;26,83602
 793,81;13122,079;  330,227;47839,233;26,92511
 794,38;13056,031;  239,458;47655,426;27,03008
 794,94;13143,753;  249,997;47471,003;27,30513
 795,51;13108,244;  282,074;47346,272;27,25250
 796,07;13140,120;  257,536;47077,696;27,51504
 796,64;13291,073;  295,997;47173,273;27,72148
 797,20;13189,333;  280,075;46664,312;27,83113
 797,77;13166,286;  235,921;46331,043;28,05148
 798,33;13240,546;  269,767;46193,928;28,24391
 798,90;13340,037;  287,537;46098,505;28,49209
 799,46;13294,528;  270,229;45575,928;28,74760
 800,03;13292,250;  273,383;45513,275;28,77741
 800,59;13330,895;  285,768;45370,390;28,93476
 801,15;13353,386;  288,230;45134,198;29,13340
 801,72;13276,185;  270,845;44878,006;29,15527
 802,28;13289,984;  294,615;44557,122;29,35977
 802,85;13359,706;  274,307;44399,930;29,65487
 803,41;13296,966;  263,000;44169,892;29,68547
 803,98;13289,995;  261,616;43746,777;29,96052
 804,54;13301,487;  270,154;43444,738;30,18288
 805,11;13237,747;  287,539;43330,623;30,08662
 805,67;13361,161;  308,078;43278,200;30,37711
 806,23;13332,806;  266,001;42761,085;30,74898
 806,80;13348,143;  288,617;42695,124;30,79604
 807,36;13418,327;  287,463;42689,394;30,96761
 807,93;13386,202;  300,848;42473,740;31,02788
 808,49;13380,847;  249,386;42084,317;31,38875
 809,05;13319,723;  251,156;41995,356;31,30631
 809,62;13421,137;  289,002;41842,933;31,60263
 810,18;13410,936;  281,541;41730,818;31,67581
 810,74;13404,812;  245,849;41519,780;31,88202
 811,31;13394,610;  250,618;41268,511;32,04453
 811,87;13493,948;  259,157;41163,627;32,35537
 812,44;13494,439;  294,926;41136,204;32,31905
 813,00;13514,468;  220,004;40883,166;32,69412
 813,56;13580,421;  274,696;40935,204;32,72395
 814,13;13638,989;  259,850;40745,474;33,04664
 814,69;13632,249;  253,235;40594,666;33,16445
 815,25;13585,894;  236,928;40200,705;33,40267
 815,82;13619,847;  280,697;40209,436;33,40739
 816,38;13629,492;  300,005;40000,552;33,57507
 816,94;13543,675;  251,928;39694,129;33,69930
 817,51;13569,397;  238,928;39506,322;33,94793
 818,07;13515,273;  245,775;39250,976;34,01982
 818,63;13555,841;  273,006;39023,861;34,27753
 819,20;13596,101;  259,006;38979,823;34,44425
 819,76;13468,823;  242,391;38565,092;34,51331
 820,32;13600,699;  295,853;38508,823;34,81762
 820,89;13553,344;  276,237;38269,323;34,94611
 821,45;13497,989;  245,930;37985,747;35,11426
 822,01;13554,095;  270,084;37748,939;35,44402
 822,57;13518,432;  262,853;37571,747;35,52927
 823,14;13510,770;  237,854;37367,786;35,74721
 823,70;13534,799;  235,854;37118,902;36,05707
 824,26;13546,906;  249,085;36961,325;36,22176
 824,82;13584,705;  268,854;36806,748;36,44395
 825,39;13494,580;  246,854;36566,787;36,47508
 825,95;13628,841;  264,239;36537,211;36,84452
 826,51;13542,716;  262,547;36125,634;37,03019
 827,08;13674,361;  306,240;36207,211;37,23610
 827,64;13655,698;  270,317;36035,481;37,42575
 828,20;13634,113;  246,471;35772,519;37,68402
 828,76;13665,373;  269,625;35703,635;37,80478
 829,32;13634,479;  276,317;35643,289;37,77016
 829,89;13588,663;  231,241;35524,712;37,84672
 830,45;13671,154;  258,010;35444,982;38,11963
 831,01;13647,030;  252,703;35229,790;38,29458
 831,57;13677,213;  254,011;35069,983;38,55473
 832,14;13770,012;  246,703;35026,252;38,88293
 832,70;13730,811;  243,088;34855,522;38,96785
 833,26;13717,302;  214,704;34669,560;39,18924
 833,82;13756,870;  252,242;34709,291;39,19264
 834,38;13849,361;  247,089;34666,407;39,51930
 834,95;13805,314;  241,473;34489,753;39,60444
 835,51;13801,420;  209,243;34402,561;39,75097
 836,07;13827,296;  253,705;34454,908;39,68747
 836,63;13961,787;  264,013;34434,485;40,08658
 837,19;13907,663;  247,859;34274,139;40,14486
 837,75;13881,923;  219,551;33980,563;40,46790
 838,32;13963,106;  260,167;34076,371;40,52181
 838,88;14079,290;  262,090;34127,948;40,79979
 839,44;14071,319;  255,783;34055,756;40,87440
 840,00;14127,887;  252,014;33936,179;41,19405
 840,56;14079,455;  239,860;33756,295;41,29197
 841,12;14070,100;  235,476;33652,410;41,40004
 841,68;14090,591;  226,091;33490,526;41,67965
 842,25;14210,621;  231,322;33469,488;42,05797
 842,81;14207,343;  231,246;33316,142;42,24313
 843,37;14266,218;  214,938;33260,950;42,52035
 843,93;14348,940;  237,938;33145,219;42,88109
 844,49;14405,970;  247,400;33174,566;42,99966
 845,05;14436,846;  210,170;33065,912;43,30042
 845,61;14537,260;  248,170;33106,643;43,48677
 846,17;14522,289;  235,785;32907,298;43,72771
 846,73;14606,088;  241,940;32803,721;44,11352
 847,29;14527,041;  217,324;32683,913;44,07521
 847,86;14579,993;  235,248;32657,260;44,24385
 848,42;14542,408;  221,017;32423,376;44,47311
 848,98;14635,976;  249,402;32411,414;44,73157
 849,54;14669,697;  232,864;32420,376;44,85228
 850,10;14712,804;  239,172;32242,261;45,22573
 850,66;14677,603;  223,326;32169,223;45,24611
 851,22;14657,402;  216,018;32044,492;45,37253
 851,78;14753,893;  262,172;32190,300;45,38857
 852,34;14703,076;  247,480;31902,878;45,66550
 852,90;14711,644;  239,711;31744,301;45,93595
 853,46;14683,597;  221,327;31626,878;46,05004
 854,02;14750,703;  241,096;31540,686;46,35718
 854,58;14681,117;  237,558;31283,648;46,52296
 855,14;14701,147;  227,712;31230,148;46,68483
 855,70;14611,330;  199,404;31072,802;46,68072
 856,26;14671,668;  247,482;30999,610;46,90467
 856,82;14732,389;  223,174;30911,803;47,27880
 857,38;14715,727;  260,405;30765,842;47,38605
 857,94;14697,833;  225,559;30693,342;47,50025
 858,50;14696,555;  250,790;30567,073;47,65019
 859,06;14720,200;  231,560;30390,266;48,04132
 859,62;14726,999;  239,868;30330,612;48,14481
 860,18;14732,413;  229,406;30161,112;48,45366
 860,74;14757,750;  209,945;29971,689;48,88089
 861,30;14691,549;  208,791;29742,882;49,03743
 861,86;14873,963;  270,638;29919,075;49,25496
 862,42;14855,377;  237,946;29764,806;49,50554
 862,98;14952,099;  266,176;29637,075;50,00161
 863,54;14823,206;  236,946;29389,960;50,03345
 864,10;14905,312;  220,638;29537,691;50,08919
 864,66;14829,188;  213,639;29320,191;50,21395
 865,22;14789,602;  229,485;29208,769;50,24319
 865,78;14809,016;  242,639;29062,269;50,54325
 866,34;14901,661;  221,255;28983,154;51,04116
 866,90;14884,229;  246,716;28842,346;51,18794
 867,45;14924,874;  234,024;28601,462;51,78772
 868,01;14871,596;  240,717;28463,808;51,84010
 868,57;14860,856;  228,640;28331,924;52,06586
 869,13;14854,271;  212,025;28131,732;52,44412
 869,69;14810,300;  229,871;28104,463;52,30724
 870,25;14794,022;  212,025;28013,425;52,45058
 870,81;14835,051;  233,103;27915,694;52,74777
 871,37;14824,081;  241,103;27851,426;52,81712
 871,93;14844,726;  241,334;27679,310;53,22328
 872,49;14706,602;  262,719;27451,272;53,12487
 873,04;14665,324;  217,411;27275,849;53,39522
 873,60;14591,661;  217,181;27180,965;53,31032
 874,16;14631,844;  238,719;27138,312;53,50685
 874,72;14654,383;  230,104;27081,927;53,71806
 875,28;14678,383;  240,258;26971,773;54,01162
 875,84;14683,537;  230,258;26915,388;54,16229
 876,40;14713,152;  222,027;26777,388;54,56949
 876,95;14781,844;  237,104;26837,004;54,67968
 877,51;14920,383;  264,181;26826,235;55,17722
 878,07;14972,921;  270,719;26808,004;55,40206
 878,63;15014,152;  226,335;26831,004;55,58354
 879,19;15089,075;  242,873;26770,696;55,96464
 879,75;15116,767;  233,488;26885,388;55,84322
 880,30;15205,921;  235,258;26834,388;56,28253
 880,86;15374,921;  274,335;27011,312;56,47829
 881,42;15449,690;  217,181;26987,696;56,90032
 881,98;15640,844;  251,104;27128,850;57,25830
 882,54;15685,306;  229,796;27205,542;57,29409
 883,09;15837,998;  240,104;27280,927;57,68276
 883,65;15935,460;  221,027;27450,235;57,71168
 884,21;16201,460;  258,642;27607,927;58,29336
 884,77;16303,537;  217,412;27540,696;58,87332
 885,32;16398,613;  232,104;27752,158;58,74447
 885,88;16668,613;  269,642;27948,927;59,24637
 886,44;16720,613;  234,258;28056,773;59,25545
 887,00;16847,460;  260,796;28002,388;59,78988
 887,56;16910,921;  226,873;28174,927;59,69664
 888,11;17016,152;  234,565;28173,465;60,06531
 888,67;17217,690;  261,258;28362,927;60,33959
 889,23;17262,690;  247,104;28360,696;60,52441
 889,79;17304,537;  219,873;28214,927;61,02744
 890,34;17316,075;  241,565;28168,235;61,14052
 890,90;17560,460;  303,642;28337,619;61,55679
 891,46;17576,229;  222,335;28240,235;61,93860
 892,01;17627,229;  253,950;28197,927;62,17182
 892,57;17609,613;  271,027;28211,465;62,05553
 893,13;17565,229;  224,335;27922,235;62,60725
 893,69;17652,767;  227,642;27872,081;63,03302
 894,24;17656,460;  245,027;27818,542;63,14549
 894,80;17631,152;  248,181;27712,004;63,29407
 895,36;17650,460;  239,642;27574,235;63,69518
 895,91;17489,383;  226,950;27331,773;63,68768
 896,47;17573,537;  252,335;27288,619;64,06650
 897,03;17534,460;  230,488;27012,158;64,61125
 897,58;17469,767;  254,719;27080,619;64,17324
 898,14;17459,767;  246,796;26719,235;65,02224
 898,70;17366,767;  204,950;26620,312;64,96908
 899,25;17443,152;  242,181;26628,465;65,18906
 899,81;17341,690;  248,104;26450,696;65,23624
 900,37;17264,921;  208,258;26203,696;65,61406
 900,92;17361,921;  239,642;26209,081;65,93242
 901,48;17286,690;  225,412;26078,465;65,99328
 902,03;17251,613;  212,335;25948,773;66,20683
 902,59;17290,690;  229,950;25837,081;66,62496
 903,15;17287,613;  256,488;25704,542;66,92506
 903,70;17093,844;  245,027;25477,081;66,77545
 904,26;17143,152;  223,873;25315,773;67,42925
 904,82;17052,383;  242,873;25352,542;66,94437
 905,37;17050,537;  246,719;25189,619;67,36914
 905,93;17022,460;  228,719;25007,312;67,77520
 906,48;17123,921;  243,796;25006,850;68,16657
 907,04;17087,921;  253,335;24911,388;68,27216
 907,60;16947,690;  237,950;24700,542;68,30732
 908,15;16906,921;  230,027;24588,696;68,46390
 908,71;16966,537;  257,027;24614,081;68,60234
 909,26;16813,537;  228,181;24422,619;68,55028
 909,82;16772,998;  257,412;24211,388;68,94716
 910,37;16867,306;  277,027;24242,081;69,22696
 910,93;16718,767;  226,104;24083,312;69,13074
 911,48;16752,921;  220,181;23858,388;69,94075
 912,04;16736,998;  236,796;23776,312;70,09576
 912,60;16842,152;  243,258;23848,235;70,31947
 913,15;16722,152;  239,873;23565,619;70,66131
 913,71;16659,613;  219,873;23403,696;70,91039
 914,26;16751,921;  215,104;23348,850;71,48353
 914,82;16703,229;  236,412;23261,312;71,51743
 915,37;16683,383;  223,642;23194,927;71,65355
 915,93;16724,844;  272,642;23073,158;72,15715
 916,48;16735,075;  225,719;22937,081;72,69206
 917,04;16686,767;  247,104;22802,696;72,88509
 917,59;16686,229;  263,181;22762,158;72,99464
 918,15;16558,383;  196,488;22562,388;73,15554
 918,70;16557,998;  220,873;22468,696;73,43247
 919,26;16598,921;  231,950;22437,081;73,70806
 919,81;16524,613;  220,719;22235,312;74,05949
 920,37;16576,690;  228,642;22167,158;74,51757
 920,92;16527,075;  246,873;22137,081;74,37208
 921,48;16397,229;  214,488;21839,081;74,83489
 922,03;16452,229;  225,950;21859,081;75,00661
 922,59;16413,690;  225,796;21713,158;75,33682
 923,14;16372,767;  224,796;21644,312;75,38906
 923,69;16388,075;  250,565;21559,388;75,73159
 924,25;16361,844;  238,027;21438,619;76,05362
 924,80;16296,152;  233,719;21291,312;76,27858
 925,36;16251,075;  226,104;21189,312;76,44332
 925,91;16159,075;  211,181;21066,542;76,46904
 926,47;16169,921;  208,565;20966,081;76,89435
 927,02;16199,229;  280,335;20992,235;76,85869
 927,57;16076,537;  225,104;20790,696;77,07744
 928,13;16110,767;  213,796;20660,388;77,74876
 928,68;16097,229;  225,258;20638,312;77,75403
 929,24;15936,767;  199,719;20421,388;77,82270
 929,79;15922,460;  206,335;20327,235;78,10846
 930,34;15849,613;  226,873;20180,465;78,29538
 930,90;15881,537;  212,027;20141,465;78,62494
 931,45;15938,075;  229,027;20157,927;78,82546
 932,01;15848,229;  225,873;20021,465;78,91835
 932,56;15789,921;  249,719;19868,388;79,21129
 933,11;15820,460;  253,488;19857,927;79,40534
 933,67;15594,767;  220,488;19695,388;78,94407
 934,22;15657,537;  236,181;19596,312;79,65523
 934,77;15581,075;  257,950;19538,158;79,47593
 935,33;15543,075;  227,796;19370,850;80,00437
 935,88;15516,306;  228,258;19341,158;79,98811
 936,43;15528,767;  228,642;19217,235;80,57535
 936,99;15395,383;  232,719;19116,927;80,29282
 937,54;15400,383;  210,719;18954,773;81,03724
 938,09;15391,998;  227,412;18975,388;80,88652
 938,65;15308,844;  220,950;18836,850;81,04843
 939,20;15303,844;  204,335;18707,773;81,60380
 939,75;15314,998;  211,565;18689,619;81,73714
 940,31;15204,998;  210,412;18486,850;82,04326
 940,86;15253,229;  225,027;18508,004;82,19778
 941,41;15256,537;  290,565;18399,542;82,64394
 941,96;15134,613;  219,258;18250,619;82,71897
 942,52;15055,767;  216,027;18174,235;82,63486
 943,07;14990,460;  197,488;18061,696;82,80788
 943,62;14980,844;  217,719;17999,081;83,02584
 944,18;14965,075;  195,565;17954,158;83,16825
 944,73;14911,152;  233,027;17856,388;83,28788
 945,28;14786,998;  191,027;17627,927;83,70737
 945,83;14864,690;  217,642;17686,773;83,84532
 946,39;14788,844;  223,335;17662,004;83,52420
 946,94;14793,690;  245,335;17545,542;84,09353
 947,49;14679,075;  219,565;17453,696;83,90043
 948,04;14672,767;  253,719;17367,542;84,25381
 948,59;14642,921;  244,950;17351,773;84,16508
 949,15;14602,152;  202,719;17219,850;84,61728
 949,70;14511,460;  218,104;17085,235;84,74088
 950,25;14473,383;  237,181;17045,158;84,69908
 950,80;14401,306;  196,027;16909,081;84,99511
 951,36;14343,152;  197,873;16863,235;84,87832
 951,91;14386,075;  230,565;16832,927;85,26202
 952,46;14245,075;  199,719;16575,158;85,77087
 953,01;14320,921;  242,950;16650,619;85,80116
 953,56;14187,998;  195,104;16489,542;85,87528
 954,11;14153,152;  233,565;16458,312;85,79232
 954,67;14088,537;  219,719;16418,312;85,61742
 955,22;14035,613;  207,181;16251,773;86,18750
 955,77;13949,921;  242,412;16265,004;85,55114
 956,32;13946,229;  275,181;16178,927;85,96118
 956,87;13879,613;  206,565;15991,235;86,62233
 957,42;13833,075;  211,258;15955,850;86,51743
 957,98;13809,921;  214,335;15911,465;86,61192
 958,53;13805,844;  238,412;15814,004;87,10701
 959,08;13666,537;  201,796;15706,619;86,84227
 959,63;13611,152;  206,796;15611,312;87,01576
 960,18;13604,690;  229,873;15587,312;87,09016
 960,73;13622,152;  226,796;15466,158;87,89972
 961,28;13583,690;  199,873;15403,312;88,03152
 961,83;13613,152;  238,181;15367,619;88,40362
 962,39;13458,921;  204,642;15236,542;88,17434
 962,94;13399,306;  228,181;15135,158;88,35544
 963,49;13291,998;  223,565;15083,158;87,94611
 964,04;13247,921;  235,642;15060,927;87,77085
 964,59;13131,767;  190,873;14878,773;88,10582
 965,14;13136,690;  237,950;14853,158;88,25561
 965,69;13098,998;  226,181;14738,388;88,70337
 966,24;13027,152;  216,104;14616,465;88,96338
 966,79;12944,075;  233,488;14561,158;88,71357
 967,34;12898,075;  193,104;14409,696;89,36720
 967,89;12847,998;  206,027;14404,312;89,03872
 968,44;12826,613;  216,027;14305,773;89,50187
 968,99;12816,767;  221,950;14292,465;89,51212
 969,55;12791,767;  222,027;14166,619;90,14061
 970,10;12695,229;  226,488;14098,312;89,88538
 970,65;12621,921;  246,873;14004,696;89,94917
 971,20;12510,537;  214,181;13909,773;89,78331
 971,75;12363,844;  197,796;13668,542;90,31458
 972,30;12352,998;  223,104;13699,081;90,01124
 972,85;12296,690;  212,181;13631,004;90,05640
 973,40;12211,152;  206,258;13559,158;89,90477
 973,95;12227,075;  222,719;13453,312;90,73181
 974,50;12179,383;  246,565;13406,773;90,67347
 975,05;12119,460;  227,335;13275,619;91,13937
 975,60;12057,767;  233,642;13192,388;91,24436
 976,15;11936,690;  213,719;13086,158;91,07032
 976,70;11947,075;  225,719;13024,312;91,58316
 977,25;11939,460;  228,950;12980,388;91,83677
 977,80;11734,460;  205,104;12853,542;91,15240
 978,35;11652,460;  228,565;12647,773;91,98569
 978,89;11661,844;  198,719;12588,388;92,52164
 979,44;11655,690;  228,873;12625,081;92,17994
 979,99;11501,152;  209,873;12401,619;92,61412
 980,54;11435,613;  243,412;12386,850;92,16666
 981,09;11423,460;  239,258;12232,388;93,25507
 981,64;11327,152;  234,873;12097,773;93,50394
 982,19;11333,998;  261,027;12125,081;93,33210
 982,74;11229,767;  245,027;11893,081;94,30537
 983,29;11123,383;  213,950;11764,619;94,44849
 983,84;11052,306;  235,258;11668,773;94,60824
 984,39;10973,844;  303,104;11711,542;93,53375
 984,94;10930,921;  203,027;11481,619;95,11732
 985,49;10882,844;  250,873;11470,542;94,76189
 986,03;10888,537;  250,488;11413,235;95,29956
 986,58;10731,306;  276,027;11242,619;95,33754
 987,13;10624,921;  237,027;11119,465;95,45558
 987,68;10596,075;  235,335;11045,773;95,84015
 988,23;10526,844;  237,258;10984,850;95,73853
 988,78;10412,998;  223,873;10863,235;95,76820
 989,33;10403,844;  241,873;10732,696;96,86534
 989,88;10367,152;  249,642;10721,619;96,61509
 990,42;10220,306;  232,642;10586,158;96,46640
 990,97;10118,229;  224,950;10463,004;96,63242
 991,52;10066,306;  253,719;10376,850;96,93233
 992,07;10022,537;  255,873;10301,927;97,21890
 992,62; 9909,152;  239,873;10217,773;96,90695
 993,17; 9822,537;  238,181;10072,004;97,46317
 993,71; 9785,998;  248,950; 9954,235;98,26655
 994,26; 9684,383;  222,181; 9825,850;98,52695
 994,81; 9650,767;  250,181; 9767,850;98,76984
 995,36; 9513,152;  226,719; 9628,773;98,77026
 995,91; 9455,383;  235,258; 9593,004;98,52933
 996,45; 9388,998;  236,335; 9483,619;98,97677
 997,00; 9237,229;  207,950; 9335,850;98,91956
 997,55; 9243,306;  233,873; 9334,927;98,99329
 998,10; 9154,690;  265,488; 9163,773;99,89793
 998,65; 9073,921;  231,412; 9172,465;98,89785
 999,19; 8924,229;  252,104; 9013,158;98,98495
 999,74; 8803,844;  276,181; 8985,542;97,91376
1000,29; 8820,460;  246,719; 8828,773;99,90313
1000,84; 8665,921;  223,104; 8741,696;99,11048
1001,38; 8561,460;  237,412; 8648,388;98,96648
1001,93; 8563,383;  248,181; 8601,158;99,54777
1002,48; 8408,844;  221,950; 8410,542;99,97926
1003,03; 8403,306;  238,565; 8394,696;100,10556
1003,57; 8350,537;  249,719; 8249,158;101,26732
1004,12; 8219,613;  272,412; 8205,235;100,18126
1004,67; 8136,767;  226,719; 8094,235;100,54061
1005,22; 8006,537;  217,796; 7967,081;100,50915
1005,76; 7930,998;  217,335; 7848,235;101,08458
1006,31; 7920,460;  247,642; 7815,850;101,38222
1006,86; 7785,306;  222,104; 7678,850;101,42764
1007,40; 7688,844;  210,950; 7571,850;101,58940
1007,95; 7576,229;  236,873; 7480,158;101,32635
1008,50; 7504,690;  231,642; 7337,388;102,35446
1009,04; 7418,075;  219,950; 7249,004;102,40532
1009,59; 7309,306;  240,412; 7142,312;102,41954
1010,14; 7208,460;  216,335; 7033,312;102,56929
1010,68; 7117,613;  229,565; 6973,773;102,13280
1011,23; 6984,306;  224,950; 6797,542;102,84155
1011,78; 6964,537;  234,181; 6780,465;102,81184
1012,32; 6808,537;  247,565; 6639,465;102,64508
1012,87; 6810,460;  253,412; 6621,081;102,97407
1013,42; 6726,383;  218,258; 6484,004;103,86832
1013,96; 6734,460;  258,488; 6507,081;103,63888
1014,51; 6624,152;  198,335; 6424,619;103,20468
1015,06; 6631,998;  204,335; 6429,158;103,25857
1015,60; 6713,613;  268,565; 6443,619;104,37234
1016,15; 6677,690;  224,104; 6407,542;104,36890
1016,69; 6723,921;  233,950; 6431,158;104,72412
1017,24; 6726,152;  205,258; 6454,927;104,33983
1017,79; 6794,767;  251,796; 6551,081;103,86848
1018,33; 6811,537;  218,412; 6526,158;104,52426
1018,88; 6872,460;  242,258; 6598,927;104,30308
1019,42; 6903,383;  229,412; 6609,388;104,60808
1019,97; 6893,613;  209,642; 6586,388;104,81790
1020,51; 6996,921;  243,335; 6614,927;105,99527
1021,06; 6972,767;  199,258; 6623,081;105,44359
1021,61; 6927,998;  204,258; 6566,081;105,68889
1022,15; 6883,767;  180,027; 6530,927;105,55575
1022,70; 6946,306;  223,873; 6544,388;106,35893
1023,24; 6883,306;  217,104; 6506,696;105,98782
1023,79; 6835,460;  214,873; 6440,312;106,34731
1024,33; 6800,306;  219,642; 6432,696;105,91673
1024,88; 6742,152;  224,565; 6301,158;107,25726
1025,42; 6666,921;  216,335; 6201,773;107,77133
1025,97; 6597,613;  219,027; 6159,696;107,37151
1026,51; 6454,767;  185,488; 6011,927;107,60053
1027,06; 6412,537;  206,488; 5991,850;107,27157
1027,60; 6326,998;  239,258; 5887,235;107,78621
1028,15; 6259,844;  245,873; 5774,696;108,77489
1028,69; 6155,460;  198,950; 5671,004;108,85327
1029,24; 6103,613;  217,104; 5593,542;109,48716
1029,78; 6008,152;  215,181; 5512,696;109,35261
1030,33; 5869,767;  196,565; 5423,542;108,53696
1030,87; 5866,921;  222,642; 5339,312;110,31158
1031,42; 5699,844;  202,181; 5270,850;108,46365
1031,96; 5715,306;  233,488; 5172,465;110,99095
1032,51; 5609,075;  211,796; 5112,696;110,12832
1033,05; 5530,767;  216,104; 5063,465;109,64034
1033,60; 5400,537;  191,950; 4923,927;110,07210
1034,14; 5342,383;  213,565; 4874,388;110,04102
1034,69; 5288,460;  219,642; 4796,312;110,75341
1035,23; 5237,306;  208,796; 4739,927;110,97693
1035,77; 5152,460;  201,412; 4670,388;110,78706
1036,32; 5073,844;  190,950; 4605,312;110,61383
1036,86; 5057,152;  214,335; 4557,312;111,50917
1037,41; 4990,229;  225,104; 4481,542;111,95099
1037,95; 4904,075;  194,104; 4382,773;112,44553
1038,50; 4827,844;  206,412; 4372,696;110,92456
1039,04; 4762,075;  233,027; 4333,235;110,45899
1039,58; 4709,537;  196,488; 4222,388;112,10035
1040,13; 4648,460;  218,181; 4185,004;111,68330
1040,67; 4602,613;  237,488; 4167,081;111,08341
1041,21; 4577,075;  238,565; 4070,696;113,21403
1041,76; 4471,229;  199,104; 4016,850;111,90176
1042,30; 4390,306;  215,104; 3950,158;111,78425
1042,85; 4326,690;  217,335; 3897,235;111,67031
1043,39; 4272,767;  207,258; 3822,235;112,46295
1043,93; 4215,690;  223,335; 3783,773;112,13101
1044,48; 4129,537;  223,412; 3736,850;111,17670
1045,02; 4097,690;  213,104; 3690,850;111,69839
1045,56; 4090,613;  232,719; 3675,850;112,04611
1046,11; 4002,229;  220,642; 3615,004;111,40789
1046,65; 3963,537;  229,488; 3556,773;112,22509
1047,19; 3878,152;  207,104; 3511,465;111,09705
1047,74; 3819,306;  197,950; 3420,388;112,37936
1048,28; 3781,844;  220,181; 3400,927;111,97572
1048,82; 3774,306;  238,719; 3362,388;113,18697
1049,37; 3720,383;  228,412; 3294,004;113,90853
1049,91; 3660,075;  230,796; 3252,158;113,50111
1050,45; 3640,998;  233,258; 3229,158;113,74680
1050,99; 3593,998;  216,642; 3161,927;114,66993
1051,54; 3530,690;  208,796; 3103,696;114,74988
1052,08; 3498,613;  250,796; 3090,235;114,38238
1052,62; 3458,075;  236,719; 3048,696;114,55840
1053,16; 3368,921;  217,412; 2967,004;114,61734
1053,71; 3356,921;  230,565; 2937,465;115,49580
1054,25; 3316,613;  241,719; 2895,773;115,85651
1054,79; 3269,306;  231,642; 2873,235;114,99365
1055,33; 3184,613;  195,488; 2796,696;114,91297
1055,88; 3176,306;  231,412; 2778,312;115,62661
1056,42; 3169,306;  245,873; 2757,388;116,40115
1056,96; 3077,537;  238,565; 2705,158;115,09689
1057,50; 3042,767;  224,104; 2676,312;114,94391
1058,05; 3012,690;  221,335; 2629,773;115,89899
1058,59; 2979,383;  247,565; 2595,850;116,33246
1059,13; 2868,921;  206,181; 2532,158;114,47837
1059,67; 2853,383;  224,642; 2534,235;113,81837
1060,21; 2855,383;  218,796; 2464,235;117,41967
1060,76; 2807,075;  229,565; 2448,081;116,18173
1061,30; 2773,383;  248,565; 2444,773;114,96259
1061,84; 2718,998;  229,796; 2349,312;117,44203
1062,38; 2660,844;  218,335; 2286,542;118,09789
1062,92; 2680,537;  266,488; 2345,081;116,13860
1063,46; 2636,767;  247,181; 2274,388;117,87576
1064,01; 2556,383;  224,412; 2233,927;116,04644
1064,55; 2553,767;  231,565; 2217,773;116,91637
1065,09; 2482,844;  204,565; 2145,388;117,38725
1065,63; 2498,460;  253,719; 2166,388;117,36166
1066,17; 2470,229;  262,796; 2143,465;117,37485
1066,71; 2432,383;  247,258; 2125,388;116,34573
1067,25; 2408,613;  241,950; 2079,927;117,88306
1067,80; 2374,613;  256,873; 2061,696;117,33784
1068,34; 2377,690;  258,950; 2065,619;117,27329
1068,88; 2294,921;  225,181; 1990,696;117,23151
1069,42; 2307,229;  252,488; 2018,696;116,33628
1069,96; 2238,460;  234,642; 1949,081;116,87893
1070,50; 2268,921;  276,488; 1963,081;118,13363
1071,04; 2200,921;  220,950; 1888,696;118,72137
1071,58; 2186,537;  232,796; 1878,081;118,74787
1072,12; 2153,690;  233,796; 1855,081;118,41809
1072,66; 2135,690;  227,181; 1840,158;118,32219
1073,21; 2139,844;  243,104; 1838,004;118,92535
1073,75; 2078,690;  238,488; 1792,850;118,38957
1074,29; 2077,152;  245,950; 1790,388;118,56749
1074,83; 2089,613;  250,642; 1768,542;121,15233
1075,37; 2045,613;  255,796; 1760,542;118,94480
1075,91; 2010,152;  255,873; 1747,312;117,62328
1076,45; 1992,152;  236,565; 1700,004;119,96313
1076,99; 1950,229;  245,488; 1654,004;121,03101
1077,53; 1900,690;  229,104; 1627,004;119,57841
1078,07; 1904,921;  242,258; 1641,927;118,78974
1078,61; 1896,767;  237,412; 1612,081;120,70946
1079,15; 1852,152;  235,719; 1601,004;118,39529
1079,69; 1836,537;  236,796; 1561,235;120,78631
1080,23; 1819,921;  253,335; 1567,850;119,17598
1080,77; 1834,767;  284,719; 1574,388;120,18958
1081,31; 1788,921;  219,565; 1499,235;122,63761
1081,85; 1777,844;  250,719; 1528,004;119,56028
1082,39; 1731,537;  228,027; 1476,927;120,38671
1082,93; 1725,383;  249,950; 1489,312;119,04780
1083,47; 1677,460;  228,565; 1438,773;119,72277
1084,01; 1700,306;  246,027; 1466,388;119,16787
1084,55; 1674,152;  235,258; 1420,004;121,45169
1085,09; 1654,229;  247,950; 1420,004;119,98415
1085,63; 1647,152;  254,335; 1380,158;123,71547
1086,17; 1624,383;  224,719; 1372,158;121,98157
1086,71; 1587,767;  229,796; 1356,773;120,49680
1087,24; 1609,998;  266,642; 1373,927;121,31983
1087,78; 1576,383;  249,258; 1344,235;121,20118
1088,32; 1510,537;  234,488; 1302,312;119,49995
1088,86; 1530,767;  255,027; 1325,696;119,15355
1089,40; 1502,383;  239,335; 1279,004;121,48557
1089,94; 1468,613;  223,027; 1243,081;122,10988
1090,48; 1477,152;  243,258; 1242,312;123,50628
1091,02; 1450,537;  254,258; 1254,081;119,64905
1091,56; 1431,306;  240,642; 1240,312;119,10574
1092,10; 1380,229;  213,412; 1184,927;120,10281
1092,63; 1433,998;  259,258; 1217,465;122,59768
1093,17; 1399,613;  244,719; 1203,004;120,51683
1093,71; 1352,075;  229,488; 1160,235;120,61146
1094,25; 1376,921;  264,950; 1180,158;121,49932
1094,79; 1349,690;  240,488; 1147,542;122,28623
1095,33; 1329,921;  247,796; 1127,312;123,03651
1095,87; 1309,537;  240,412; 1124,619;120,91333
1096,40; 1287,537;  216,950; 1088,619;122,82027
1096,94; 1274,921;  242,104; 1091,927;121,53322
1097,48; 1295,613;  251,181; 1084,465;125,33925
1098,02; 1253,306;  236,181; 1071,927;121,70262
1098,56; 1212,460;  208,104; 1018,388;123,95099
1099,10; 1206,690;  220,719; 1013,850;124,31382
1099,63; 1199,075;  216,642; 1022,465;121,91667
1100,17; 1189,075;  235,565; 1028,696;120,22098
1100,71; 1215,229;  259,719; 1034,465;123,33196

