
Integration time [ms]: 120,000
Averaging Nr. [scans]: 13
Smoothing Nr. [pixels]: 0
Data measured with spectrometer [name]: 2009305U1
Wave   ;Sample   ;Dark     ;Reference;Reflectance
[nm]   ;[counts] ;[counts] ;[counts] ;[%]

 175,72;  205,730;  198,725;  209,729;63,66420
 176,32;  226,348;  233,791;  221,495; 0,00000
 176,92;  250,481;  251,952;  246,144; 0,00000
 177,52;  254,431;  249,569;  261,381;41,16498
 178,12;  227,012;  210,945;  220,620;166,05963
 178,72;  255,177;  248,635;  250,038;466,18955
 179,32;  244,715;  255,406;  241,911; 0,00000
 179,92;  246,521;  255,641;  248,129; 0,00000
 180,52;  236,040;  233,115;  240,492;39,65535
 181,12;  255,812;  249,103;  245,056; 0,00000
 181,73;  266,963;  265,873;  272,598;16,19839
 182,33;  350,339;  349,879;  341,303; 0,00000
 182,93;  261,050;  259,492;  262,580;50,45763
 183,53;  235,696;  241,402;  230,123; 0,00000
 184,13;  240,891;  231,942;  223,284; 0,00000
 184,73;  269,804;  262,785;  270,840;87,13674
 185,33;  255,160;  235,800;  340,235;18,53786
 185,93;  268,071;  233,331;  341,231;32,19657
 186,53;  281,321;  252,412;  358,480;27,25512
 187,13;  303,627;  259,651;  408,456;29,55266
 187,73;  265,681;  235,102;  356,651;25,15759
 188,33;  270,896;  242,097;  355,217;25,45832
 188,93;  269,987;  252,084;  372,324;14,88941
 189,53;  280,906;  250,458;  375,462;24,35750
 190,13;  315,210;  288,441;  393,447;25,49232
 190,73;  257,995;  221,607;  354,699;27,34087
 191,34;  292,349;  261,772;  383,107;25,20035
 191,94;  262,100;  243,170;  355,212;16,89522
 192,54;  288,791;  244,657;  378,976;32,85766
 193,14;  291,857;  261,650;  386,945;24,10841
 193,74;  288,833;  256,803;  371,292;27,97685
 194,34;  278,390;  254,345;  379,723;19,17843
 194,94;  250,168;  215,650;  345,606;26,56128
 195,54;  233,729;  198,339;  325,621;27,80383
 196,14;  252,887;  226,731;  350,792;21,08283
 196,74;  252,195;  216,030;  338,690;29,48443
 197,34;  233,229;  203,967;  338,400;21,76728
 197,94;  254,660;  224,267;  375,503;20,09662
 198,54;  269,714;  232,346;  384,669;24,53219
 199,14;  239,375;  223,046;  367,104;11,33473
 199,74;  233,910;  202,354;  368,520;18,99045
 200,34;  233,039;  194,509;  366,971;22,34124
 200,94;  263,682;  234,889;  406,748;16,75405
 201,54;  254,311;  216,814;  407,160;19,69942
 202,14;  275,353;  240,665;  454,320;16,23552
 202,74;  253,554;  228,200;  447,857;11,54263
 203,34;  228,753;  181,976;  463,089;16,63965
 203,94;  211,720;  166,204;  459,631;15,51184
 204,54;  282,126;  236,729;  542,983;14,82336
 205,14;  231,280;  194,585;  536,212;10,74121
 205,74;  287,836;  237,668;  639,180;12,49480
 206,34;  249,261;  204,050;  630,780;10,59490
 206,94;  265,212;  210,433;  685,452;11,53204
 207,54;  240,829;  177,588;  721,425;11,62866
 208,14;  260,247;  208,358;  795,906; 8,83152
 208,74;  258,924;  208,200;  848,241; 7,92514
 209,34;  258,940;  207,355;  912,599; 7,31449
 209,94;  285,621;  216,431; 1015,259; 8,66137
 210,54;  287,007;  207,205; 1109,050; 8,84871
 211,14;  297,166;  214,662; 1195,427; 8,41225
 211,73;  289,768;  208,506; 1299,988; 7,44515
 212,33;  321,916;  222,812; 1397,255; 8,43844
 212,93;  311,469;  208,738; 1479,640; 8,08335
 213,53;  286,536;  184,046; 1538,349; 7,56771
 214,13;  322,862;  193,748; 1630,932; 8,98378
 214,73;  310,045;  179,434; 1625,550; 9,03185
 215,33;  295,775;  163,585; 1674,567; 8,74858
 215,93;  334,268;  208,899; 1774,717; 8,00665
 216,53;  306,458;  168,430; 1832,838; 8,29292
 217,13;  375,754;  229,436; 2022,497; 8,16024
 217,73;  363,877;  197,822; 2208,241; 8,25970
 218,33;  360,031;  156,057; 2364,675; 9,23539
 218,93;  410,996;  181,834; 2630,757; 9,35767
 219,53;  450,259;  180,903; 2889,476; 9,94455
 220,13;  444,257;  168,059; 3125,529; 9,33899
 220,73;  473,844;  190,893; 3430,322; 8,73461
 221,32;  520,001;  184,508; 3811,856; 9,24900
 221,92;  562,172;  193,366; 4182,543; 9,24517
 222,52;  587,079;  172,284; 4562,289; 9,44861
 223,12;  636,299;  184,900; 4945,153; 9,48267
 223,72;  675,218;  200,285; 5311,646; 9,29173
 224,32;  704,168;  192,747; 5676,679; 9,32581
 224,92;  709,746;  183,362; 5950,894; 9,12668
 225,52;  777,901;  207,356; 6276,099; 9,40137
 226,12;  790,124;  187,051; 6571,650; 9,44574
 226,72;  801,156;  160,666; 6841,878; 9,58644
 227,31;  823,197;  156,666; 7219,939; 9,43657
 227,91;  898,593;  190,894; 7541,280; 9,62805
 228,51;  909,049;  186,812; 7911,520; 9,34970
 229,11;  948,878;  181,820; 8271,138; 9,48236
 229,71;  981,975;  176,122; 8541,977; 9,63264
 230,31; 1000,745;  169,748; 8933,640; 9,48205
 230,91; 1027,087;  158,502; 9183,125; 9,62461
 231,51; 1080,840;  167,360; 9538,918; 9,74736
 232,10; 1101,837;  169,980; 9825,075; 9,65146
 232,70; 1140,775;  177,422;10037,261; 9,77048
 233,30; 1223,048;  204,206;10330,930;10,06092
 233,90; 1207,011;  173,898;10431,145;10,07203
 234,50; 1235,898;  173,514;10561,102;10,22744
 235,10; 1240,208;  170,439;10679,048;10,17993
 235,70; 1295,424;  196,355;10707,048;10,45667
 236,29; 1287,297;  189,507;10660,055;10,48455
 236,89; 1261,747;  164,349;10563,896;10,55236
 237,49; 1304,952;  187,436;10546,988;10,78730
 238,09; 1302,723;  169,434;10299,934;11,18690
 238,69; 1334,422;  199,577;10085,824;11,47902
 239,29; 1315,125;  173,126; 9816,008;11,84292
 239,89; 1295,860;  193,964; 9557,989;11,76733
 240,48; 1247,917;  169,819; 9189,380;11,95289
 241,08; 1258,253;  173,895; 8870,359;12,46895
 241,68; 1268,503;  202,973; 8542,428;12,77698
 242,28; 1232,461;  173,206; 8296,267;13,04011
 242,88; 1275,627;  210,364; 8015,271;13,64864
 243,48; 1264,725;  214,359; 7813,649;13,82189
 244,07; 1240,094;  190,279; 7524,495;14,31395
 244,67; 1262,471;  193,589; 7335,200;14,96696
 245,27; 1271,922;  198,121; 7224,988;15,28136
 245,87; 1292,953;  202,978; 7137,422;15,71827
 246,47; 1326,190;  186,737; 7152,619;16,35763
 247,06; 1348,337;  178,433; 7115,577;16,86435
 247,66; 1385,057;  190,742; 7171,967;17,10752
 248,26; 1455,000;  211,199; 7383,422;17,34192
 248,86; 1519,798;  187,583; 7554,528;18,08368
 249,46; 1534,151;  151,745; 7751,040;18,19124
 250,05; 1689,232;  205,203; 8059,625;18,89418
 250,65; 1751,555;  156,351; 8391,138;19,37152
 251,25; 1866,432;  175,510; 8846,420;19,50109
 251,85; 1993,190;  188,657; 9377,235;19,63887
 252,44; 2125,426;  152,046;10031,610;19,97436
 253,04; 2336,075;  201,662;10746,245;20,24180
 253,64; 2467,170;  153,197;11314,012;20,73301
 254,24; 2683,158;  191,741;12220,363;20,71241
 254,84; 2906,536;  166,745;13137,194;21,12333
 255,43; 3131,668;  180,354;13986,565;21,37671
 256,03; 3313,390;  179,120;14914,490;21,27038
 256,63; 3563,171;  182,657;15992,265;21,38266
 257,23; 3775,029;  178,195;16766,067;21,68351
 257,82; 4006,479;  187,423;17744,651;21,75205
 258,42; 4157,389;  152,113;18540,057;21,78208
 259,02; 4423,676;  195,508;19439,475;21,97139
 259,62; 4567,762;  174,574;20014,745;22,14289
 260,21; 4723,059;  187,584;20539,271;22,28550
 260,81; 4812,208;  174,128;20993,664;22,27754
 261,41; 4899,303;  166,037;21535,894;22,14926
 262,01; 5036,240;  206,264;21932,846;22,23072
 262,60; 5067,567;  161,657;22263,375;22,19696
 263,20; 5183,907;  174,198;22619,064;22,32007
 263,80; 5210,225;  197,880;22817,691;22,15910
 264,40; 5237,684;  155,342;23010,849;22,23684
 264,99; 5260,851;  195,802;23187,520;22,02988
 265,59; 5292,087;  168,336;23290,435;22,15954
 266,19; 5320,068;  175,572;23408,876;22,14276
 266,78; 5339,270;  207,185;23564,540;21,97203
 267,38; 5299,868;  185,875;23535,671;21,90166
 267,98; 5251,570;  178,493;23588,757;21,67031
 268,58; 5248,832;  189,029;23610,424;21,60334
 269,17; 5227,560;  178,179;23588,237;21,56928
 269,77; 5134,624;  192,578;23479,767;21,22217
 270,37; 5082,682;  161,110;23253,673;21,31237
 270,96; 5057,999;  219,115;23179,220;21,07518
 271,56; 4932,135;  181,041;22949,788;20,86673
 272,16; 4903,485;  181,652;22839,153;20,84004
 272,75; 4814,189;  179,345;22647,263;20,62872
 273,35; 4784,776;  185,962;22752,668;20,37876
 273,95; 4749,724;  182,345;22634,525;20,34270
 274,54; 4709,217;  162,280;22661,239;20,20954
 275,14; 4785,982;  199,500;23009,838;20,10703
 275,74; 4704,617;  157,729;22979,523;19,92345
 276,33; 4821,569;  206,040;23339,167;19,95203
 276,93; 4829,767;  185,666;23789,475;19,67522
 277,53; 4884,217;  184,200;24196,394;19,57346
 278,12; 4972,495;  159,196;24656,393;19,64837
 278,72; 5113,286;  210,968;25209,099;19,61074
 279,32; 5186,278;  177,353;25795,343;19,55237
 279,91; 5325,574;  173,275;26468,338;19,59417
 280,51; 5414,730;  180,661;27006,795;19,51108
 281,11; 5555,998;  181,582;27679,169;19,54505
 281,70; 5619,551;  155,889;28143,812;19,52150
 282,30; 5791,058;  175,887;28664,557;19,71019
 282,90; 5870,772;  184,733;29140,880;19,63672
 283,49; 5999,542;  191,654;29639,315;19,72275
 284,09; 6164,829;  209,735;30013,118;19,98127
 284,69; 6262,303;  208,352;30383,634;20,06262
 285,28; 6434,755;  198,581;30659,164;20,47293
 285,88; 6518,507;  234,268;31004,553;20,42308
 286,47; 6630,006;  178,656;30948,156;20,96670
 287,07; 6758,666;  220,122;30971,081;21,26290
 287,67; 6913,340;  205,282;31249,572;21,60803
 288,26; 7043,787;  173,583;31154,111;22,17588
 288,86; 7208,499;  177,427;31163,873;22,69080
 289,46; 7432,182;  194,890;31354,786;23,22630
 290,05; 7665,435;  176,971;31383,773;23,99626
 290,65; 7922,482;  191,425;31591,261;24,62133
 291,24; 8185,000;  197,814;31745,730;25,31763
 291,84; 8479,633;  198,734;31851,188;26,16195
 292,44; 8735,788;  193,513;31994,544;26,86163
 293,03; 9025,212;  249,968;32153,222;27,50580
 293,63; 9244,812;  186,964;32285,480;28,21890
 294,22; 9497,555;  208,736;32427,446;28,83051
 294,82; 9668,351;  179,111;32457,635;29,39800
 295,41; 9758,474;  168,197;32179,428;29,95910
 296,01; 9898,521;  220,882;32137,119;30,32199
 296,61; 9981,370;  209,660;31938,498;30,79757
 297,20; 9943,837;  198,652;31498,260;31,13517
 297,80; 9988,891;  189,818;31371,885;31,42535
 298,39; 9943,574;  168,349;31012,542;31,69227
 298,99;10005,190;  196,577;30953,082;31,89118
 299,58; 9987,475;  210,666;30637,168;32,13254
 300,18; 9886,370;  218,664;30536,651;31,88769
 300,78; 9821,628;  187,969;30175,812;32,12521
 301,37; 9834,967;  210,801;30210,608;32,08076
 301,97; 9861,530;  192,736;30210,385;32,21036
 302,56; 9777,574;  180,117;30097,031;32,08037
 303,16; 9793,005;  178,501;30021,826;32,21660
 303,75; 9784,167;  188,816;30056,938;32,12572
 304,35; 9888,207;  181,592;30296,229;32,23222
 304,94; 9827,197;  192,275;30223,710;32,08279
 305,54; 9811,847;  202,738;30212,702;32,01973
 306,13; 9700,218;  162,515;30220,877;31,73062
 306,73; 9616,963;  171,667;29981,020;31,68568
 307,33; 9644,079;  197,897;30003,878;31,69224
 307,92; 9584,788;  200,276;30009,930;31,48145
 308,52; 9706,455;  164,039;30460,332;31,49697
 309,11; 9795,649;  184,805;30865,317;31,32557
 309,71; 9822,104;  165,957;31097,892;31,21741
 310,30; 9877,315;  168,199;31341,744;31,14537
 310,90; 9985,392;  214,660;31732,359;31,00078
 311,49; 9984,036;  187,198;31844,388;30,94664
 312,09; 9977,176;  150,125;31981,436;30,87228
 312,68;10081,151;  221,508;32445,118;30,59758
 313,28;10032,249;  164,968;32508,776;30,50748
 313,87;10014,322;  155,737;32612,835;30,37420
 314,47;10047,471;  179,883;32880,460;30,17558
 315,06; 9982,956;  164,892;33020,392;29,88256
 315,66;10037,330;  163,895;33161,590;29,92159
 316,25; 9947,053;  153,271;33134,720;29,69482
 316,85; 9859,191;  150,895;33146,514;29,42298
 317,44; 9889,756;  168,882;33320,627;29,32236
 318,04; 9821,116;  157,041;33358,819;29,10710
 318,63; 9761,905;  156,129;33413,451;28,88319
 319,22; 9751,775;  181,886;33687,260;28,56225
 319,82; 9663,414;  176,965;33726,732;28,27575
 320,41; 9656,248;  188,887;33581,370;28,35177
 321,01; 9524,747;  194,740;33730,664;27,82093
 321,60; 9518,158;  183,350;33856,364;27,72193
 322,20; 9419,378;  167,276;33758,639;27,54310
 322,79; 9370,667;  207,430;33929,362;27,17293
 323,39; 9332,067;  173,438;34018,334;27,06059
 323,98; 9236,001;  164,200;33942,472;26,85691
 324,58; 9179,858;  173,116;33789,917;26,79238
 325,17; 9044,353;  185,502;33722,475;26,41518
 325,76; 8957,058;  194,121;33481,634;26,32500
 326,36; 8811,538;  166,894;33169,218;26,19405
 326,95; 8697,862;  201,197;32821,858;26,04688
 327,55; 8513,458;  172,273;32580,839;25,73759
 328,14; 8345,822;  161,050;32147,564;25,58820
 328,74; 8252,423;  198,502;31792,923;25,49159
 329,33; 8086,581;  195,278;31370,401;25,31282
 329,92; 7864,547;  154,959;30887,103;25,08640
 330,52; 7756,082;  189,204;30203,412;25,21099
 331,11; 7580,715;  187,197;29806,103;24,96216
 331,71; 7389,343;  178,967;29282,569;24,77486
 332,30; 7240,581;  195,506;28842,479;24,59274
 332,89; 7100,764;  236,124;28405,815;24,36889
 333,49; 6935,265;  194,351;27811,673;24,40828
 334,08; 6780,055;  177,196;27493,100;24,17222
 334,68; 6637,880;  192,581;27000,316;24,04268
 335,27; 6517,061;  191,512;26650,986;23,90656
 335,86; 6489,484;  222,889;26456,564;23,88760
 336,46; 6344,728;  194,436;26199,541;23,65033
 337,05; 6223,525;  176,966;26018,241;23,39884
 337,65; 6178,744;  160,811;25875,670;23,40255
 338,24; 6193,330;  224,123;25891,948;23,25560
 338,83; 6119,364;  200,738;25754,918;23,16108
 339,43; 6115,566;  173,348;25758,583;23,22518
 340,02; 6076,118;  175,578;25570,534;23,23509
 340,61; 6086,400;  177,122;25648,038;23,20010
 341,21; 6050,500;  210,963;25690,769;22,91829
 341,80; 6011,480;  189,657;25615,084;22,89764
 342,40; 6037,808;  180,589;25697,459;22,95430
 342,99; 6085,149;  179,355;25775,661;23,07284
 343,58; 6055,889;  181,355;25977,863;22,77259
 344,18; 6125,743;  197,971;26092,927;22,89161
 344,77; 6166,755;  165,732;26394,318;22,87971
 345,36; 6205,093;  166,658;26652,242;22,79895
 345,96; 6339,772;  207,432;26959,571;22,92280
 346,55; 6364,888;  170,207;27168,889;22,94438
 347,14; 6466,247;  163,435;27487,598;23,06681
 347,74; 6573,102;  144,827;27869,864;23,18581
 348,33; 6710,332;  178,596;28420,892;23,12750
 348,92; 6907,251;  181,599;29109,307;23,24986
 349,52; 6957,019;  159,597;29486,131;23,17840
 350,11; 7064,594;  177,654;29780,485;23,26446
 350,70; 7123,960;  172,122;29801,438;23,46270
 351,29; 7075,541;  170,031;29587,678;23,47404
 351,89; 7107,323;  198,574;29521,502;23,56091
 352,48; 7129,289;  154,891;29577,683;23,70407
 353,07; 7151,479;  190,436;29611,494;23,66007
 353,67; 7155,124;  195,061;29508,263;23,74378
 354,26; 7185,420;  186,127;29303,183;24,03846
 354,85; 7170,861;  183,049;29206,884;24,07612
 355,45; 7141,205;  160,580;28976,851;24,22459
 356,04; 7144,564;  177,667;28863,558;24,28684
 356,63; 7155,914;  201,736;28756,951;24,35344
 357,22; 7150,704;  182,033;28529,688;24,58289
 357,82; 7164,471;  178,573;28303,126;24,83915
 358,41; 7261,219;  197,198;28225,802;25,20290
 359,00; 7190,276;  169,194;28039,475;25,19200
 359,60; 7270,312;  190,200;27965,671;25,49052
 360,19; 7264,183;  189,283;27739,961;25,67959
 360,78; 7288,630;  188,811;27658,808;25,84572
 361,37; 7294,319;  176,735;27434,916;26,11174
 361,97; 7346,614;  189,428;27383,861;26,31857
 362,56; 7298,117;  173,116;27056,561;26,50331
 363,15; 7346,619;  215,273;26861,468;26,76309
 363,74; 7300,332;  191,806;26488,153;27,03237
 364,34; 7292,646;  201,425;26092,628;27,38854
 364,93; 7203,842;  181,423;25766,867;27,44693
 365,52; 7181,023;  158,350;25396,410;27,82572
 366,11; 7176,910;  179,348;25099,599;28,07982
 366,71; 7117,390;  171,271;24664,030;28,35989
 367,30; 7076,441;  181,274;24351,150;28,52794
 367,89; 7177,231;  218,356;24117,806;29,11730
 368,48; 7146,325;  193,114;23831,370;29,41507
 369,07; 7073,344;  180,045;23481,745;29,58282
 369,67; 7049,040;  211,038;23145,589;29,81529
 370,26; 7055,645;  176,584;22904,962;30,26640
 370,85; 7069,158;  189,581;22579,595;30,72610
 371,44; 7081,350;  185,197;22472,583;30,94195
 372,03; 7102,588;  164,425;22167,136;31,53322
 372,63; 7051,954;  157,812;21893,705;31,71777
 373,22; 7032,066;  178,276;21618,236;31,96736
 373,81; 6987,986;  160,581;21348,164;32,22362
 374,40; 7075,917;  189,357;21109,918;32,91766
 374,99; 7073,143;  173,119;20805,236;33,44312
 375,59; 7068,217;  172,818;20548,239;33,84175
 376,18; 7116,308;  201,657;20421,884;34,19670
 376,77; 7097,339;  195,044;20284,216;34,35829
 377,36; 7226,411;  210,812;20218,225;35,06500
 377,95; 7199,306;  197,579;19936,400;35,47186
 378,55; 7226,516;  170,740;19722,664;36,08737
 379,14; 7297,393;  197,196;19652,640;36,49465
 379,73; 7334,145;  190,195;19586,848;36,83084
 380,32; 7443,478;  193,428;19698,446;37,17018
 380,91; 7435,911;  180,730;19479,572;37,59387
 381,50; 7546,268;  201,731;19462,208;38,13268
 382,10; 7581,555;  173,582;19341,830;38,64710
 382,69; 7660,261;  153,196;19281,655;39,24553
 383,28; 7737,675;  205,655;19266,811;39,51502
 383,87; 7799,023;  175,116;19108,719;40,26654
 384,46; 7829,637;  165,112;19057,158;40,57012
 385,05; 7968,557;  219,270;19032,316;41,19103
 385,64; 7993,526;  181,194;19079,829;41,33807
 386,24; 8107,336;  165,265;19008,018;42,14921
 386,83; 8228,141;  200,649;19082,215;42,51497
 387,42; 8350,826;  206,964;19161,969;42,96418
 388,01; 8480,510;  193,645;19331,088;43,30184
 388,60; 8744,370;  194,266;19613,654;44,02870
 389,19; 8917,815;  170,485;19711,863;44,76312
 389,78; 9125,245;  180,564;20001,915;45,12650
 390,37; 9476,257;  238,340;20408,716;45,79943
 390,96; 9621,900;  193,188;20570,771;46,27002
 391,56; 9725,802;  191,407;20731,732;46,41794
 392,15; 9970,144;  188,103;21012,597;46,97373
 392,74;10142,325;  164,630;21139,528;47,56969
 393,33;10346,263;  186,714;21382,297;47,93239
 393,92;10646,819;  192,780;21783,988;48,41804
 394,51;10904,365;  170,175;21988,050;49,19906
 395,10;11088,214;  212,461;22189,538;49,48680
 395,69;11240,058;  206,155;22317,361;49,90186
 396,28;11409,773;  205,150;22429,043;50,41702
 396,87;11568,414;  208,293;22506,720;50,94584
 397,46;11772,128;  212,979;22584,582;51,66885
 398,06;11957,537;  224,355;22908,699;51,72370
 398,65;12051,032;  211,721;22862,365;52,26920
 399,24;12323,061;  227,025;23077,241;52,93620
 399,83;12369,483;  208,688;23078,877;53,17313
 400,42;12539,751;  248,124;23183,898;53,59151
 401,01;12707,942;  221,325;23296,255;54,11335
 401,60;12842,534;  244,208;23371,456;54,47396
 402,19;12915,623;  257,022;23296,956;54,94200
 402,78;13042,876;  257,588;23374,469;55,30715
 403,37;13005,088;  233,156;23158,178;55,71175
 403,96;13037,335;  244,024;23048,728;56,09944
 404,55;13058,523;  262,271;22963,326;56,36854
 405,14;13097,766;  238,215;22846,319;56,88027
 405,73;13125,910;  260,611;22788,222;57,10902
 406,32;13188,242;  259,029;22622,115;57,81498
 406,91;13166,044;  257,594;22411,638;58,26679
 407,50;13181,429;  264,260;22245,873;58,76352
 408,09;13127,269;  226,473;21951,682;59,38169
 408,68;13108,156;  254,536;21879,207;59,43961
 409,27;13087,621;  246,476;21712,453;59,82092
 409,86;13086,782;  256,439;21553,202;60,24551
 410,45;13127,819;  293,934;21550,876;60,37503
 411,04;13131,721;  292,352;21485,723;60,58200
 411,63;13048,994;  286,935;21190,695;61,05150
 412,22;12972,654;  280,668;20981,662;61,31100
 412,81;12935,339;  302,989;20780,234;61,68970
 413,40;12828,792;  310,469;20416,348;62,26200
 413,99;12679,232;  342,848;20183,307;62,17792
 414,58;12487,127;  277,159;19746,662;62,71330
 415,17;12374,567;  279,605;19575,189;62,68254
 415,76;12359,919;  270,666;19419,040;63,13462
 416,35;12303,884;  276,443;19110,200;63,86108
 416,94;12381,876;  310,670;19268,010;63,67563
 417,53;12572,403;  280,221;19408,256;64,26265
 418,12;12645,682;  269,533;19521,995;64,28346
 418,71;12982,895;  298,316;19861,765;64,83815
 419,30;13068,782;  287,073;20065,109;64,62578
 419,89;13196,379;  272,460;20163,447;64,97374
 420,48;13460,217;  294,085;20362,535;65,60612
 421,07;13561,144;  290,165;20498,503;65,67081
 421,66;13601,655;  266,558;20466,188;66,01654
 422,25;13650,108;  271,189;20540,583;66,00552
 422,84;13687,068;  299,962;20440,598;66,46814
 423,43;13566,559;  287,647;20178,320;66,75949
 424,02;13480,408;  302,727;19996,442;66,91313
 424,60;13197,070;  280,439;19584,206;66,91249
 425,19;13065,016;  296,044;19327,453;67,09420
 425,78;13022,145;  293,661;19228,750;67,22167
 426,37;12948,347;  300,437;19061,951;67,41412
 426,96;12961,112;  276,206;18925,136;68,01949
 427,55;12841,626;  275,294;18888,508;67,51296
 428,14;12759,994;  267,837;18586,022;68,19539
 428,73;12644,380;  288,366;18469,381;67,96108
 429,32;12606,737;  285,513;18413,992;67,96612
 429,91;12691,791;  320,982;18460,799;68,19699
 430,50;12589,562;  300,065;18279,640;68,35255
 431,08;12479,913;  307,455;18121,157;68,33199
 431,67;12491,713;  330,460;18059,181;68,59634
 432,26;12396,887;  352,773;17866,633;68,76904
 432,85;12159,270;  372,079;17525,688;68,71552
 433,44;11920,846;  388,471;17227,983;68,48402
 434,03;11775,322;  402,711;16826,982;69,24271
 434,62;11511,890;  359,087;16459,216;69,27152
 435,21;11346,249;  365,618;16298,030;68,92008
 435,79;11249,409;  376,323;16109,888;69,10758
 436,38;11176,680;  368,410;15986,717;69,20258
 436,97;11122,436;  351,796;15943,277;69,08029
 437,56;11000,284;  366,118;15775,296;69,01189
 438,15;10913,719;  330,960;15658,418;69,04445
 438,74;10958,146;  358,116;15673,578;69,21130
 439,33;10934,481;  334,421;15641,739;69,24831
 439,91;10959,268;  308,120;15728,245;69,07303
 440,50;10987,522;  353,275;15720,771;69,19960
 441,09;11080,366;  352,437;15858,362;69,18600
 441,68;11085,991;  330,291;15871,755;69,20648
 442,27;11027,441;  309,595;15870,416;68,87712
 442,86;11052,201;  286,691;15851,837;69,16421
 443,44;11099,135;  306,610;15894,282;69,23757
 444,03;11150,538;  376,999;16005,300;68,93609
 444,62;11000,212;  300,075;15815,177;68,96595
 445,21;10832,265;  324,227;15685,782;68,40478
 445,80;10826,470;  356,622;15621,797;68,58649
 446,39;10662,146;  367,697;15356,081;68,68284
 446,97;10488,839;  300,708;15192,640;68,41376
 447,56;10329,563;  305,024;14946,971;68,46452
 448,15;10208,594;  323,939;14810,409;68,23370
 448,74;10041,203;  331,940;14558,368;68,24808
 449,33; 9960,946;  323,946;14452,718;68,20834
 449,91; 9814,001;  318,033;14243,239;68,19265
 450,50; 9612,163;  307,954;13988,738;68,00933
 451,09; 9529,135;  335,493;13900,297;67,77571
 451,68; 9480,982;  356,497;13844,731;67,64774
 452,26; 9390,284;  340,040;13735,304;67,56301
 452,85; 9283,057;  319,499;13610,323;67,44170
 453,44; 9355,940;  341,974;13683,567;67,56289
 454,03; 9275,910;  314,351;13625,594;67,32323
 454,61; 9250,322;  311,590;13609,495;67,21910
 455,20; 9327,352;  338,979;13743,391;67,05533
 455,79; 9320,384;  348,740;13741,725;66,98764
 456,38; 9344,434;  342,063;13817,793;66,80433
 456,97; 9395,504;  330,061;13863,829;66,98388
 457,55; 9373,507;  329,759;13876,516;66,75951
 458,14; 9327,488;  356,290;13890,729;66,28422
 458,73; 9214,658;  341,529;13835,213;65,75765
 459,31; 9269,315;  366,306;13850,064;66,02765
 459,90; 9312,457;  383,302;13974,214;65,69946
 460,49; 9334,996;  420,299;14008,495;65,60619
 461,08; 9269,741;  340,310;14107,021;64,86249
 461,66; 9320,747;  341,306;14143,370;65,05868
 462,25; 9372,752;  349,006;14205,437;65,12316
 462,84; 9382,123;  376,465;14250,179;64,91166
 463,43; 9266,908;  301,938;14247,046;64,28757
 464,01; 9329,664;  339,172;14309,864;64,35252
 464,60; 9271,634;  396,704;14200,171;64,29494
 465,19; 9079,897;  339,251;13997,782;63,99404
 465,77; 9029,583;  340,871;13977,125;63,71774
 466,36; 8917,850;  371,245;13839,631;63,45679
 466,95; 8745,595;  353,477;13528,774;63,69585
 467,53; 8499,544;  350,645;13289,085;62,98208
 468,12; 8361,842;  372,646;13030,152;63,11825
 468,71; 8153,239;  349,714;12788,109;62,73739
 469,29; 7984,316;  337,032;12597,465;62,37369
 469,88; 7842,617;  341,805;12287,066;62,79320
 470,47; 7862,577;  410,505;12431,822;61,99048
 471,06; 7780,702;  365,120;12397,793;61,62872
 471,64; 7844,099;  375,118;12462,030;61,79396
 472,23; 7789,998;  332,518;12524,681;61,16618
 472,81; 7810,972;  330,972;12651,188;60,71322
 473,40; 7888,530;  343,056;12714,206;60,99250
 473,99; 8012,182;  441,364;12943,375;60,55680
 474,57; 8004,251;  349,979;13036,466;60,33406
 475,16; 8092,359;  370,204;13165,595;60,35106
 475,75; 8095,253;  376,600;13294,845;59,75002
 476,33; 8118,883;  383,837;13411,872;59,37232
 476,92; 8144,037;  386,288;13452,566;59,37229
 477,51; 8188,561;  371,757;13544,460;59,34093
 478,09; 8142,019;  368,526;13511,952;59,14358
 478,68; 8093,252;  375,529;13454,486;59,00871
 479,27; 8100,822;  407,139;13495,077;58,78453
 479,85; 8063,300;  381,605;13495,561;58,57648
 480,44; 8075,424;  364,993;13660,405;57,99317
 481,02; 8743,111;  382,306;14973,490;57,30039
 481,61; 9903,452;  404,380;16859,203;57,72820
 482,20;10551,510;  382,844;18027,106;57,63157
 482,78;11003,950;  415,453;18824,862;57,51677
 483,37;11320,651;  404,160;19388,819;57,50164
 483,95;11413,652;  414,546;19540,072;57,51009
 484,54;11541,378;  429,918;19769,660;57,45403
 485,13;11438,883;  405,860;19637,609;57,36880
 485,71;11237,957;  383,088;19561,922;56,59817
 486,30;11083,338;  414,396;19225,799;56,71529
 486,88;10917,124;  453,937;18897,130;56,73197
 487,47;10436,449;  439,784;18158,769;56,41782
 488,05; 9940,437;  423,480;17350,736;56,22268
 488,64; 9232,642;  419,870;16087,163;56,24948
 489,23; 8194,073;  438,174;14340,035;55,79036
 489,81; 6988,049;  428,406;12265,536;55,41582
 490,40; 6582,519;  387,177;11679,649;54,86259
 490,98; 6365,727;  377,333;11388,277;54,38584
 491,57; 6348,938;  389,405;11305,362;54,59469
 492,15; 6236,010;  379,719;11271,497;53,76800
 492,74; 6185,559;  391,249;11185,046;53,68184
 493,32; 6118,009;  401,179;11096,090;53,45374
 493,91; 6005,959;  371,029;10997,172;53,02893
 494,50; 5981,593;  396,040;10987,804;52,73487
 495,08; 5903,336;  367,578;10899,848;52,55997
 495,67; 5919,115;  393,490;10870,398;52,74099
 496,25; 5789,338;  329,188;10741,795;52,43788
 496,84; 5765,953;  352,951;10758,565;52,02002
 497,42; 5723,307;  346,344;10738,589;51,74015
 498,01; 5676,017;  371,414;10640,741;51,65483
 498,59; 5612,535;  337,653;10625,516;51,27287
 499,18; 5585,904;  341,722;10495,159;51,64933
 499,76; 5533,660;  361,958;10446,642;51,28274
 500,35; 5410,318;  344,581;10305,032;50,85851
 500,93; 5369,259;  327,267;10285,849;50,62962
 501,52; 5294,905;  332,883;10186,900;50,35532
 502,10; 5255,293;  357,201;10166,328;49,93403
 502,69; 5169,513;  332,974; 9938,653;50,35084
 503,27; 5072,410;  315,963; 9848,314;49,89795
 503,86; 5000,724;  333,818; 9763,892;49,48960
 504,44; 4923,794;  317,822; 9600,262;49,62027
 505,03; 4821,812;  297,206; 9442,846;49,47282
 505,61; 4699,906;  323,205; 9319,101;48,65219
 506,19; 4664,108;  353,052; 9155,045;48,97819
 506,78; 4536,960;  304,906; 8972,804;48,82445
 507,36; 4442,980;  317,744; 8825,028;48,49063
 507,95; 4343,070;  315,679; 8697,312;48,05019
 508,53; 4281,080;  315,444; 8551,911;48,14730
 509,12; 4193,310;  330,293; 8424,091;47,72811
 509,70; 4097,920;  337,141; 8297,561;47,24348
 510,29; 4027,983;  342,760; 8155,917;47,16689
 510,87; 3945,121;  312,906; 7973,279;47,41563
 511,46; 3821,947;  299,523; 7826,672;46,79625
 512,04; 3740,446;  312,219; 7675,583;46,55789
 512,62; 3661,482;  315,985; 7551,241;46,23881
 513,21; 3556,493;  298,068; 7394,888;45,91387
 513,79; 3485,535;  304,542; 7274,481;45,63876
 514,38; 3403,249;  278,384; 7111,677;45,72999
 514,96; 3383,189;  328,691; 7037,290;45,53109
 515,54; 3267,646;  293,309; 6884,424;45,12647
 516,13; 3226,376;  316,540; 6833,644;44,64922
 516,71; 3148,931;  308,699; 6687,051;44,52925
 517,30; 3107,097;  285,396; 6596,440;44,71053
 517,88; 3066,932;  311,780; 6533,254;44,28455
 518,46; 2986,110;  281,167; 6366,725;44,44856
 519,05; 2943,066;  310,247; 6315,772;43,83995
 519,63; 2926,782;  301,630; 6284,195;43,88005
 520,22; 2872,454;  318,330; 6201,767;43,41210
 520,80; 2840,418;  306,715; 6200,647;42,98833
 521,38; 2839,935;  338,325; 6179,452;42,82753
 521,97; 2806,605;  302,334; 6099,770;43,19617
 522,55; 2789,165;  319,257; 6071,093;42,94121
 523,13; 2751,754;  281,260; 6101,751;42,44477
 523,72; 2728,407;  296,397; 6063,462;42,17066
 524,30; 2788,966;  310,955; 6224,858;41,90145
 524,89; 2741,646;  285,719; 6213,573;41,43028
 525,47; 2799,642;  315,803; 6325,757;41,32875
 526,05; 2802,775;  278,958; 6353,561;41,54703
 526,64; 2867,224;  316,421; 6509,940;41,18503
 527,22; 2904,550;  310,033; 6629,372;41,05678
 527,80; 2966,004;  341,652; 6780,615;40,75737
 528,39; 2940,399;  301,808; 6769,289;40,79781
 528,97; 2989,569;  299,345; 6970,083;40,32874
 529,55; 3076,945;  317,491; 7159,382;40,33174
 530,14; 3147,295;  338,810; 7344,514;40,08855
 530,72; 3155,951;  298,422; 7454,499;39,93149
 531,30; 3190,105;  278,888; 7545,394;40,06351
 531,89; 3224,222;  310,657; 7640,840;39,74751
 532,47; 3278,217;  338,274; 7729,848;39,77425
 533,05; 3257,854;  343,267; 7796,815;39,10335
 533,63; 3286,405;  332,891; 7857,868;39,24948
 534,22; 3277,383;  304,506; 7869,622;39,29717
 534,80; 3304,568;  328,588; 7970,261;38,94409
 535,38; 3374,586;  410,504; 8060,182;38,74780
 535,97; 3273,943;  323,198; 8016,588;38,35429
 536,55; 3335,397;  368,974; 8064,957;38,54509
 537,13; 3290,808;  373,810; 8034,684;38,07656
 537,71; 3329,998;  417,348; 8098,650;37,91869
 538,30; 3353,704;  430,431; 8181,139;37,71621
 538,88; 3370,650;  465,362; 8229,021;37,42164
 539,46; 3475,205;  506,050; 8422,968;37,50393
 540,05; 3500,923;  525,283; 8532,797;37,16059
 540,63; 3589,513;  571,745; 8710,352;37,07966
 541,21; 3618,246;  617,364; 8894,721;36,25411
 541,79; 3697,209;  626,210; 9006,166;36,64696
 542,38; 3705,190;  656,437; 9154,071;35,87767
 542,96; 3761,166;  673,291; 9277,109;35,88959
 543,54; 3832,684;  681,055; 9495,579;35,75495
 544,12; 3895,532;  650,903; 9687,525;35,90533
 544,70; 3858,078;  649,214; 9723,665;35,36153
 545,29; 3920,897;  661,052; 9906,533;35,25879
 545,87; 3921,978;  639,902; 9891,628;35,47528
 546,45; 3869,563;  584,052; 9943,577;35,10340
 547,03; 3886,595;  577,285; 9993,574;35,14453
 547,62; 3874,733;  551,441;10139,292;34,66149
 548,20; 3959,912;  553,444;10248,429;35,13640
 548,78; 3975,605;  521,916;10419,246;34,89516
 549,36; 3980,861;  482,684;10605,949;34,55581
 549,94; 4005,585;  446,673;10779,283;34,44349
 550,53; 4059,613;  442,298;10983,233;34,31683
 551,11; 4091,769;  426,534;11153,871;34,16724
 551,69; 4203,714;  445,376;11457,040;34,13051
 552,27; 4226,457;  393,296;11683,084;33,95246
 552,85; 4349,234;  399,918;12082,685;33,80463
 553,44; 4422,237;  399,145;12322,039;33,74258
 554,02; 4546,869;  410,224;12702,216;33,65317
 554,60; 4596,099;  360,611;12983,243;33,55471
 555,18; 4725,439;  398,377;13365,010;33,37075
 555,76; 4845,118;  365,609;13720,647;33,54172
 556,34; 4953,371;  378,230;14113,353;33,30979
 556,93; 5023,469;  370,454;14482,627;32,97164
 557,51; 5073,789;  350,077;14769,016;32,76047
 558,09; 5200,645;  382,300;15199,180;32,51929
 558,67; 5339,481;  375,465;15515,784;32,78673
 559,25; 5392,988;  390,386;15819,991;32,42210
 559,83; 5438,169;  365,467;16095,458;32,24860
 560,41; 5524,172;  368,768;16443,224;32,07203
 561,00; 5663,748;  367,234;16785,108;32,26066
 561,58; 5669,603;  344,767;17004,453;31,96241
 562,16; 5748,362;  347,534;17336,702;31,78984
 562,74; 5821,078;  347,378;17721,201;31,50544
 563,32; 5961,788;  347,775;18125,965;31,57809
 563,90; 6029,345;  361,234;18462,138;31,31397
 564,48; 6111,665;  365,305;18914,710;30,97867
 565,06; 6268,707;  365,772;19433,227;30,95817
 565,65; 6438,955;  363,088;20044,403;30,87124
 566,23; 6656,342;  410,542;20815,016;30,60995
 566,81; 6814,992;  353,232;21434,806;30,65122
 567,39; 7073,544;  363,315;22300,678;30,58813
 567,97; 7258,527;  385,694;22920,733;30,49843
 568,55; 7494,333;  388,621;23740,671;30,42865
 569,13; 7664,375;  364,696;24467,832;30,28518
 569,71; 7878,212;  359,610;25327,132;30,11353
 570,29; 8204,608;  396,608;26245,011;30,20690
 570,87; 8346,409;  396,840;26985,343;29,89852
 571,45; 8486,565;  377,926;27601,029;29,78587
 572,03; 8608,018;  343,239;27961,222;29,92535
 572,61; 8782,318;  334,236;28658,824;29,82597
 573,20; 8944,628;  385,616;29390,848;29,50851
 573,78; 9074,191;  367,006;29875,934;29,50695
 574,36; 9212,127;  373,312;30441,759;29,39565
 574,94; 9296,107;  435,086;30797,227;29,18444
 575,52; 9279,429;  378,016;31008,304;29,06082
 576,10; 9451,954;  432,859;31624,738;28,91488
 576,68; 9525,039;  417,700;32064,698;28,77789
 577,26; 9695,209;  439,173;32824,747;28,58074
 577,84; 9809,519;  435,082;33311,515;28,51416
 578,42; 9859,545;  473,857;33478,651;28,43735
 579,00; 9805,824;  436,775;33635,442;28,22116
 579,58; 9822,660;  469,932;33937,228;27,94587
 580,16; 9770,502;  456,089;33933,363;27,82309
 580,74; 9795,605;  449,474;34083,319;27,78788
 581,32; 9734,679;  440,779;34167,862;27,55619
 581,90; 9740,795;  464,781;34101,747;27,57684
 582,48; 9684,289;  455,012;34282,332;27,28350
 583,06; 9649,250;  455,856;34362,937;27,11349
 583,64; 9669,839;  454,471;34531,442;27,04280
 584,22; 9587,841;  456,171;34396,463;26,90510
 584,80; 9444,039;  481,857;34079,390;26,67512
 585,38; 9291,821;  479,538;33694,321;26,53121
 585,96; 9213,551;  448,161;33857,462;26,23638
 586,54; 9220,638;  469,478;33797,750;26,25747
 587,12; 9151,522;  449,398;34103,124;25,85783
 587,70; 9228,500;  476,238;34127,726;26,00854
 588,28; 9176,602;  458,244;34244,785;25,80423
 588,86; 9155,743;  462,169;34299,191;25,69249
 589,44; 9094,135;  442,022;34369,330;25,50192
 590,02; 9124,544;  447,020;34636,214;25,38090
 590,59; 9165,854;  429,477;34723,288;25,47508
 591,17; 9180,451;  426,029;35011,854;25,31217
 591,75; 9118,244;  422,101;35141,481;25,04694
 592,33; 9169,964;  444,407;35301,180;25,03260
 592,91; 9158,742;  385,181;35532,062;24,96256
 593,49; 9216,317;  390,569;35894,385;24,85859
 594,07; 9231,302;  415,030;36051,230;24,73965
 594,65; 9198,719;  419,478;36152,307;24,56912
 595,23; 9283,261;  409,558;36498,582;24,58837
 595,81; 9236,029;  407,252;36607,944;24,38842
 596,39; 9170,557;  398,945;36722,423;24,14860
 596,97; 9216,782;  397,027;36945,738;24,13151
 597,55; 9129,179;  380,480;36785,822;24,03136
 598,12; 9053,623;  392,801;36843,285;23,76051
 598,70; 9068,117;  377,413;36958,283;23,75751
 599,28; 9011,941;  393,182;37213,576;23,40757
 599,86; 8994,087;  380,797;37142,896;23,42981
 600,44; 8972,774;  347,645;37263,443;23,36433
 601,02; 8950,446;  410,961;37241,988;23,18557
 601,60; 8847,490;  387,409;37168,790;23,00099
 602,18; 8812,787;  361,493;37299,344;22,87977
 602,75; 8783,310;  359,559;37367,219;22,76218
 603,33; 8737,516;  377,951;37360,591;22,60402
 603,91; 8708,710;  361,573;37324,497;22,58246
 604,49; 8709,528;  386,490;37421,470;22,47345
 605,07; 8643,709;  387,870;37436,834;22,28359
 605,65; 8644,236;  397,030;37586,878;22,17596
 606,23; 8602,065;  457,246;37731,038;21,85133
 606,80; 8630,427;  498,175;37784,818;21,81010
 607,38; 8564,793;  531,418;37725,308;21,59864
 607,96; 8540,874;  575,328;37784,125;21,40769
 608,54; 8563,815;  649,646;37914,093;21,23786
 609,12; 8537,867;  630,406;37903,880;21,21471
 609,70; 8513,863;  660,566;38026,295;21,01738
 610,27; 8495,774;  682,020;38081,214;20,89284
 610,85; 8487,449;  702,489;38111,217;20,81055
 611,43; 8467,560;  688,720;38030,852;20,83127
 612,01; 8347,265;  662,254;37782,215;20,70318
 612,59; 8306,306;  667,258;37907,018;20,51315
 613,16; 8227,031;  620,863;37815,017;20,44990
 613,74; 8170,187;  589,336;37665,576;20,44665
 614,32; 8097,423;  559,569;37691,925;20,29996
 614,90; 8048,931;  529,102;37567,978;20,30253
 615,48; 7921,582;  482,018;37205,946;20,25808
 616,05; 7833,474;  448,093;37231,614;20,07796
 616,63; 7803,288;  445,630;37017,359;20,11843
 617,21; 7713,217;  452,174;36928,245;19,90632
 617,79; 7671,092;  431,945;36883,378;19,85970
 618,36; 7590,288;  443,332;36837,895;19,63743
 618,94; 7468,279;  381,250;36430,579;19,65925
 619,52; 7396,443;  405,554;36255,639;19,50034
 620,10; 7381,189;  391,944;36205,497;19,51564
 620,67; 7321,036;  395,630;36085,806;19,40424
 621,25; 7290,010;  413,794;35996,666;19,32451
 621,83; 7193,451;  393,481;35913,241;19,14419
 622,41; 7205,652;  443,096;35948,624;19,04649
 622,98; 7112,658;  398,553;35616,127;19,06464
 623,56; 7085,544;  406,860;35652,446;18,94899
 624,14; 7028,792;  388,334;35464,029;18,93179
 624,72; 6945,147;  383,634;35382,209;18,74794
 625,29; 6954,599;  375,091;35419,278;18,77489
 625,87; 6963,821;  404,484;35448,009;18,71769
 626,45; 6815,455;  358,474;35305,518;18,47647
 627,02; 6773,598;  376,638;35172,688;18,38415
 627,60; 6724,990;  365,953;35208,750;18,25065
 628,18; 6698,175;  336,406;35183,034;18,25648
 628,76; 6621,684;  343,630;35152,622;18,03573
 629,33; 6592,856;  377,787;35141,849;17,87786
 629,91; 6585,728;  360,329;35171,958;17,88310
 630,49; 6551,459;  375,401;35215,998;17,72661
 631,06; 6551,421;  374,785;35425,240;17,62213
 631,64; 6519,250;  362,321;35408,705;17,56794
 632,22; 6440,467;  332,395;35337,755;17,44896
 632,79; 6518,445;  357,395;35576,586;17,49345
 633,37; 6460,529;  343,793;35634,186;17,33258
 633,95; 6484,865;  348,089;35788,117;17,31594
 634,52; 6439,286;  335,557;35793,285;17,21410
 635,10; 6411,628;  331,174;35839,663;17,12394
 635,68; 6458,639;  337,703;36062,263;17,13369
 636,25; 6356,367;  323,237;35952,922;16,93288
 636,83; 6377,761;  314,784;36204,083;16,89355
 637,41; 6394,704;  339,240;36289,950;16,84379
 637,98; 6431,407;  345,009;36452,163;16,85649
 638,56; 6363,476;  340,005;36522,485;16,64748
 639,13; 6349,801;  318,860;36600,787;16,62244
 639,71; 6410,821;  363,554;36768,087;16,61130
 640,29; 6282,064;  288,554;36497,658;16,55250
 640,86; 6285,633;  312,093;36735,158;16,40043
 641,44; 6281,047;  313,478;36666,581;16,41557
 642,02; 6285,000;  344,939;36703,158;16,33760
 642,59; 6256,953;  316,555;36858,197;16,25652
 643,17; 6261,137;  318,863;36784,774;16,29542
 643,74; 6240,628;  307,786;36875,121;16,22443
 644,32; 6189,427;  335,248;36776,006;16,06492
 644,89; 6199,765;  329,633;36777,275;16,10566
 645,47; 6211,256;  340,479;36918,852;16,04986
 646,05; 6156,286;  337,787;36779,199;15,96672
 646,62; 6133,701;  322,326;36798,930;15,93179
 647,20; 6113,654;  333,403;36934,507;15,79256
 647,77; 6019,376;  306,018;36822,392;15,64602
 648,35; 6044,944;  310,711;36681,738;15,76594
 648,92; 6062,205;  327,557;36769,469;15,73641
 649,50; 5966,773;  287,327;36593,124;15,64336
 650,08; 5952,264;  298,173;36527,470;15,60641
 650,65; 5981,756;  301,481;36760,893;15,57972
 651,23; 6104,017;  294,789;37478,009;15,62325
 651,80; 6193,585;  282,097;38426,279;15,49775
 652,38; 6236,384;  297,943;38764,010;15,43813
 652,95; 6296,260;  282,251;39119,125;15,48531
 653,53; 6303,213;  318,021;39376,395;15,32371
 654,10; 6342,089;  339,328;39472,357;15,33937
 654,68; 6295,888;  289,021;39460,626;15,33475
 655,25; 6278,841;  285,867;39602,434;15,24287
 655,83; 6264,948;  284,637;39603,857;15,20964
 656,40; 6267,670;  318,252;39534,204;15,17091
 656,98; 6212,008;  288,714;39457,089;15,12264
 657,55; 6214,422;  299,253;39281,589;15,17397
 658,13; 6170,837;  294,407;39005,397;15,18026
 658,70; 6124,866;  310,869;38751,436;15,12464
 659,28; 5954,819;  314,253;37982,782;14,97421
 659,85; 5834,772;  305,254;37119,206;15,02017
 660,43; 5821,110;  321,177;37207,629;14,91044
 661,00; 5801,678;  304,100;37314,591;14,85411
 661,58; 5820,170;  300,639;37590,860;14,80155
 662,15; 5820,661;  281,024;37801,361;14,76436
 662,73; 5911,768;  346,409;38066,938;14,75419
 663,30; 5897,798;  300,409;38285,515;14,73575
 663,88; 5912,828;  315,178;38452,169;14,67774
 664,45; 5959,627;  290,717;38705,285;14,75719
 665,03; 5997,195;  296,333;38921,093;14,75961
 665,60; 6113,840;  372,563;39514,747;14,66775
 666,17; 6114,870;  304,718;39569,709;14,79729
 666,75; 6114,746;  301,564;39834,209;14,70476
 667,32; 6204,007;  321,718;40222,863;14,74216
 667,90; 6192,729;  297,872;40553,979;14,64339
 668,47; 6269,297;  316,257;40718,941;14,73427
 669,05; 6282,481;  299,719;41088,210;14,66777
 669,62; 6290,742;  274,565;41105,710;14,73428
 670,19; 6289,926;  287,411;41229,826;14,66087
 670,77; 6339,878;  293,719;41441,249;14,69386
 671,34; 6325,831;  301,258;41367,134;14,67051
 671,92; 6358,092;  281,643;41697,327;14,67186
 672,49; 6414,199;  309,643;41711,443;14,74466
 673,06; 6348,460;  256,643;41810,404;14,66008
 673,64; 6376,412;  287,720;41795,982;14,66863
 674,21; 6373,827;  279,721;41652,251;14,72984
 674,79; 6430,703;  305,567;41889,982;14,72940
 675,36; 6441,964;  307,106;42048,405;14,69733
 675,93; 6392,686;  269,798;41923,290;14,69958
 676,51; 6411,793;  296,337;42038,791;14,65045
 677,08; 6450,976;  300,029;42205,676;14,67809
 677,65; 6451,237;  300,876;42223,945;14,67059
 678,23; 6482,651;  299,722;42528,138;14,64163
 678,80; 6497,451;  287,261;42656,253;14,65739
 679,38; 6527,404;  284,030;42765,984;14,69653
 679,95; 6573,972;  303,184;42939,100;14,70776
 680,52; 6599,771;  285,338;43307,216;14,67726
 681,10; 6659,955;  299,338;43558,870;14,70339
 681,67; 6694,600;  298,493;43842,832;14,68872
 682,24; 6724,245;  268,570;43972,563;14,77136
 682,82; 6796,660;  280,108;44494,448;14,73855
 683,39; 6875,228;  326,186;44959,179;14,67310
 683,96; 6953,796;  289,032;45091,371;14,87593
 684,54; 6986,980;  276,109;45456,641;14,85346
 685,11; 7074,164;  309,340;45702,833;14,90263
 685,68; 7089,963;  286,186;46266,487;14,79716
 686,25; 7151,762;  269,033;46346,142;14,93742
 686,83; 7239,177;  281,187;46473,950;15,06294
 687,40; 7266,360;  273,418;46719,296;15,05611
 687,97; 7364,390;  297,110;47163,489;15,07964
 688,55; 7336,112;  260,264;47251,297;15,05787
 689,12; 7384,758;  244,188;47453,335;15,12539
 689,69; 7454,172;  250,342;47563,451;15,22587
 690,26; 7488,894;  267,880;47710,336;15,22057
 690,84; 7538,847;  276,958;47853,298;15,26366
 691,41; 7534,262;  288,496;48013,567;15,18230
 691,98; 7577,292;  295,189;48194,683;15,20288
 692,56; 7609,014;  278,881;48329,260;15,25510
 693,13; 7733,813;  328,728;48309,991;15,43329
 693,70; 7752,766;  300,574;48497,568;15,46194
 694,27; 7682,180;  272,728;48602,222;15,33112
 694,84; 7749,210;  274,344;48711,184;15,43219
 695,42; 7869,855;  331,728;48858,454;15,53397
 695,99; 7869,116;  292,190;49050,723;15,53969
 696,56; 7845,992;  285,575;48886,531;15,55611
 697,13; 7924,253;  302,960;49344,339;15,54054
 697,71; 7939,744;  269,806;49297,147;15,64421
 698,28; 8001,543;  279,345;49636,724;15,64548
 698,85; 7972,112;  255,422;49652,917;15,62162
 699,42; 8039,065;  259,884;49787,879;15,70663
 699,99; 8088,556;  299,115;49910,456;15,70093
 700,57; 8172,278;  294,269;50012,802;15,84522
 701,14; 8163,462;  271,423;50102,610;15,83755
 701,71; 8242,569;  310,808;50372,803;15,84388
 702,28; 8278,675;  286,193;50343,765;15,96658
 702,85; 8298,552;  287,193;50442,034;15,97325
 703,43; 8401,351;  305,116;50729,842;16,05608
 704,00; 8448,227;  323,270;50879,650;16,07108
 704,57; 8430,795;  295,193;50869,381;16,08647
 705,14; 8546,825;  320,578;51078,189;16,20692
 705,71; 8548,778;  325,348;51209,536;16,16107
 706,28; 8529,577;  297,425;51085,036;16,20898
 706,86; 8657,684;  334,810;51220,152;16,35613
 707,43; 8658,175;  349,502;51187,113;16,34355
 708,00; 8686,743;  322,272;51296,614;16,40918
 708,57; 8679,312;  303,964;51216,191;16,45056
 709,14; 8795,726;  323,118;51342,845;16,60653
 709,71; 8791,295;  303,426;51511,961;16,57511
 710,28; 8890,555;  294,888;51644,769;16,73941
 710,86; 8914,047;  311,196;51785,884;16,71278
 711,43; 9026,307;  324,196;51754,539;16,92019
 712,00; 9022,337;  315,504;51848,654;16,89560
 712,57; 9077,367;  311,350;52033,308;16,94835
 713,14; 9199,243;  300,735;52068,655;17,18923
 713,71; 9184,658;  311,428;52110,540;17,13008
 714,28; 9256,841;  294,043;52009,194;17,33109
 714,85; 9197,487;  282,428;51853,925;17,28679
 715,42; 9239,670;  290,121;52085,887;17,27854
 716,00; 9442,239;  358,659;52233,310;17,51063
 716,57; 9407,576;  290,044;52298,579;17,53084
 717,14; 9424,991;  278,967;52131,541;17,63851
 717,71; 9544,636;  261,045;52118,965;17,90197
 718,28; 9577,512;  308,429;52350,926;17,81060
 718,85; 9588,311;  262,891;52374,504;17,89509
 719,42; 9682,033;  289,661;52479,081;17,99670
 719,99; 9638,679;  269,122;52273,735;18,01678
 720,56; 9751,939;  299,353;52573,851;18,08260
 721,13; 9805,892;  271,661;52641,043;18,20574
 721,70; 9814,230;  261,969;52528,851;18,27593
 722,27; 9902,106;  285,969;52482,890;18,42280
 722,84;10017,674;  332,354;52699,775;18,49493
 723,41;10007,627;  267,662;52779,891;18,54799
 723,98;10091,811;  282,970;52943,391;18,62659
 724,55;10121,302;  312,509;52994,814;18,61876
 725,12;10213,717;  239,124;52916,776;18,93515
 725,69;10267,747;  274,586;53109,584;18,91390
 726,27;10322,469;  278,586;53314,700;18,93782
 726,84;10460,960;  291,817;53571,892;19,08620
 727,41;10484,759;  292,048;53460,008;19,17078
 727,98;10597,943;  301,202;53736,508;19,26955
 728,55;10660,281;  322,202;53596,470;19,40539
 729,12;10697,541;  271,664;53726,816;19,50397
 729,69;10741,802;  304,741;53872,086;19,48400
 730,26;10871,293;  303,665;54140,048;19,62916
 730,82;10880,169;  291,203;54027,163;19,70555
 731,39;10905,353;  297,204;54132,971;19,70465
 731,96;11080,306;  271,434;54460,395;19,94663
 732,53;11166,797;  293,204;54703,357;19,98449
 733,10;11244,135;  303,281;54686,011;20,11825
 733,67;11329,703;  296,358;54987,973;20,17374
 734,24;11390,733;  282,743;54595,704;20,45182
 734,81;11500,378;  323,897;54758,819;20,53182
 735,38;11466,870;  284,436;54541,550;20,61008
 735,95;11500,130;  291,282;54325,974;20,74380
 736,52;11547,776;  307,975;54542,320;20,72451
 737,09;11551,806;  300,052;54205,128;20,87327
 737,66;11707,605;  338,283;54294,628;21,07133
 738,23;11762,019;  283,206;54435,282;21,19736
 738,80;11878,280;  347,206;54783,244;21,18279
 739,37;11963,387;  307,360;54988,283;21,31644
 739,94;11990,493;  291,361;54960,783;21,39977
 740,51;12171,523;  398,822;54989,976;21,56522
 741,07;12130,707;  287,669;55001,784;21,64531
 741,64;12232,429;  305,361;55283,207;21,69432
 742,21;12283,767;  287,438;55298,861;21,80698
 742,78;12276,104;  265,515;55003,439;21,94199
 743,35;12409,057;  296,054;55360,631;21,99781
 743,92;12534,549;  321,439;55485,901;22,13945
 744,49;12549,194;  315,978;55347,324;22,22954
 745,06;12580,147;  283,747;55364,517;22,32431
 745,63;12610,715;  276,132;55307,940;22,41355
 746,19;12680,822;  284,978;55291,671;22,53516
 746,76;12719,621;  295,440;55333,787;22,57368
 747,33;12802,805;  284,671;55331,287;22,74097
 747,90;12967,373;  304,287;55570,172;22,91303
 748,47;13000,480;  292,595;55467,287;23,03209
 749,04;13057,818;  314,133;55417,095;23,12704
 749,61;13092,232;  324,903;55368,827;23,19480
 750,17;13213,800;  311,672;55477,865;23,38774
 750,74;13215,907;  301,749;55411,981;23,43332
 751,31;13275,322;  267,826;55307,404;23,63299
 751,88;13293,659;  266,980;55142,289;23,73869
 752,45;13430,151;  287,750;55391,174;23,85042
 753,02;13436,719;  298,442;55082,674;23,98186
 753,58;13512,441;  276,981;55049,098;24,16459
 754,15;13628,394;  283,751;55229,829;24,28680
 754,72;13556,039;  282,828;54954,406;24,27808
 755,29;13592,069;  267,597;54789,445;24,43878
 755,86;13708,176;  284,597;54987,330;24,53914
 756,42;13836,283;  286,828;54919,830;24,80086
 756,99;13810,544;  251,136;54833,253;24,84222
 757,56;13820,035;  270,060;54787,677;24,85431
 758,13;13898,757;  211,367;54778,869;25,08341
 758,70;14062,479;  238,598;54822,677;25,32585
 759,26;14114,586;  228,060;54837,562;25,42877
 759,83;14160,385;  239,060;54939,293;25,45021
 760,40;14165,723;  226,753;54823,793;25,53063
 760,97;14193,676;  217,830;54841,678;25,58561
 761,53;14212,552;  200,446;54453,948;25,82710
 762,10;14224,351;  212,984;54440,756;25,83799
 762,67;14342,304;  244,523;54427,102;26,01903
 763,24;14236,872;  202,292;54032,295;26,07204
 763,80;14328,133;  238,677;54121,334;26,14841
 764,37;14420,240;  240,139;54150,218;26,30325
 764,94;14405,193;  216,524;53655,411;26,55121
 765,50;14389,069;  229,447;53698,681;26,48181
 766,07;14502,252;  273,909;53765,258;26,59934
 766,64;14449,359;  237,909;53484,912;26,68967
 767,21;14572,235;  249,525;53336,874;26,97952
 767,77;14546,342;  272,371;53316,989;26,90937
 768,34;14598,141;  278,294;53213,182;27,05181
 768,91;14690,709;  270,371;53061,836;27,31566
 769,47;14753,201;  263,449;53144,952;27,40042
 770,04;14727,615;  273,680;52968,529;27,42950
 770,61;14725,876;  255,988;52776,106;27,55113
 771,18;14774,983;  248,142;52584,299;27,75680
 771,74;14883,859;  271,449;52771,953;27,83289
 772,31;14931,196;  262,527;52573,530;28,04127
 772,88;14895,842;  234,988;52332,800;28,14102
 773,44;14897,948;  253,066;52111,300;28,24023
 774,01;15064,517;  270,373;52206,262;28,48540
 774,58;15012,008;  249,527;51799,300;28,63733
 775,14;15085,500;  247,220;51982,955;28,68091
 775,71;15159,914;  249,605;51886,147;28,87550
 776,27;15227,790;  309,605;51837,878;28,95146
 776,84;15270,512;  331,990;51829,917;29,00801
 777,41;15267,311;  277,836;51661,109;29,17190
 777,97;15222,803;  251,606;51326,225;29,31240
 778,54;15285,987;  273,991;51381,572;29,37333
 779,11;15405,478;  286,837;51416,610;29,56915
 779,67;15418,585;  251,376;51394,803;29,65622
 780,24;15409,461;  269,453;51262,457;29,69036
 780,80;15500,721;  285,068;51128,957;29,92622
 781,37;15541,290;  275,684;51131,765;30,01727
 781,94;15514,243;  254,684;50875,035;30,14511
 782,50;15635,426;  269,607;50789,920;30,41513
 783,07;15707,841;  292,454;50872,805;30,47703
 783,63;15659,948;  257,685;50595,997;30,59750
 784,20;15781,131;  279,685;50630,651;30,78679
 784,77;15751,392;  267,685;50313,844;30,93885
 785,33;15797,499;  241,993;50191,806;31,14227
 785,90;15908,529;  267,686;50231,998;31,30403
 786,46;15937,712;  278,840;50231,191;31,34762
 787,03;15871,281;  248,763;49988,460;31,40855
 787,59;15948,926;  260,840;49854,807;31,63305
 788,16;16057,033;  281,610;49774,076;31,87439
 788,73;16003,678;  269,533;49591,192;31,90109
 789,29;16020,400;  263,302;49230,615;32,17881
 789,86;16052,584;  282,918;49188,731;32,24497
 790,42;16098,922;  270,380;49006,693;32,47792
 790,99;15987,798;  279,611;48804,424;32,37145
 791,55;16089,520;  258,611;48747,001;32,64886
 792,12;16141,242;  286,457;48744,194;32,71879
 792,68;16045,503;  266,611;48385,386;32,79155
 793,25;16079,071;  275,227;48188,348;32,98438
 793,81;16073,562;  330,227;47839,233;33,13758
 794,38;15942,669;  239,458;47655,426;33,11798
 794,94;16037,622;  249,997;47471,003;33,43348
 795,51;15993,421;  282,074;47346,272;33,38280
 796,07;15995,759;  257,536;47077,696;33,61420
 796,64;16108,635;  295,997;47173,273;33,73199
 797,20;16056,895;  280,075;46664,312;34,01332
 797,77;15943,310;  235,921;46331,043;34,07603
 798,33;15958,186;  269,767;46193,928;34,16158
 798,90;16028,447;  287,537;46098,505;34,36057
 799,46;15941,553;  270,229;45575,928;34,59018
 800,03;16030,583;  273,383;45513,275;34,83032
 800,59;16030,690;  285,768;45370,390;34,92304
 801,15;16018,797;  288,230;45134,198;35,07688
 801,72;15971,058;  270,845;44878,006;35,19662
 802,28;15890,318;  294,615;44557,122;35,23457
 802,85;15891,040;  274,307;44399,930;35,39153
 803,41;15914,993;  263,000;44169,892;35,64815
 803,98;15835,100;  261,616;43746,777;35,81333
 804,54;15776,284;  270,154;43444,738;35,91495
 805,11;15850,852;  287,539;43330,623;36,15752
 805,67;15862,344;  308,078;43278,200;36,19786
 806,23;15687,527;  266,001;42761,085;36,29014
 806,80;15729,096;  288,617;42695,124;36,41064
 807,36;15804,433;  287,463;42689,394;36,59496
 807,93;15699,232;  300,848;42473,740;36,51252
 808,49;15678,262;  249,386;42084,317;36,88037
 809,05;15728,600;  251,156;41995,356;37,07687
 809,62;15682,091;  289,002;41842,933;37,04364
 810,18;15703,044;  281,541;41730,818;37,20572
 810,74;15645,766;  245,849;41519,780;37,31149
 811,31;15673,258;  250,618;41268,511;37,59979
 811,87;15578,518;  259,157;41163,627;37,45156
 812,44;15661,394;  294,926;41136,204;37,62485
 813,00;15572,886;  220,004;40883,166;37,75624
 813,56;15687,070;  274,696;40935,204;37,90502
 814,13;15729,023;  259,850;40745,474;38,20905
 814,69;15622,745;  253,235;40594,666;38,09857
 815,25;15595,621;  236,928;40200,705;38,43154
 815,82;15605,728;  280,697;40209,436;38,38095
 816,38;15622,065;  300,005;40000,552;38,59408
 816,94;15486,787;  251,928;39694,129;38,62578
 817,51;15467,817;  238,928;39506,322;38,78253
 818,07;15480,693;  245,775;39250,976;39,05868
 818,63;15415,262;  273,006;39023,861;39,07593
 819,20;15421,907;  259,006;38979,823;39,15956
 819,76;15359,398;  242,391;38565,092;39,44661
 820,32;15390,197;  295,853;38508,823;39,50058
 820,89;15350,689;  276,237;38269,323;39,67683
 821,45;15270,257;  245,930;37985,747;39,81028
 822,01;15213,210;  270,084;37748,939;39,87082
 822,57;15190,625;  262,853;37571,747;40,01129
 823,14;15129,116;  237,854;37367,786;40,10582
 823,70;15059,530;  235,854;37118,902;40,19103
 824,26;15077,483;  249,085;36961,325;40,39088
 824,82;15137,436;  268,854;36806,748;40,69359
 825,39;14990,620;  246,854;36566,787;40,59414
 825,95;15050,881;  264,239;36537,211;40,76490
 826,51;14981,449;  262,547;36125,634;41,04193
 827,08;15038,556;  306,240;36207,211;41,03598
 827,64;14984,124;  270,317;36035,481;41,14005
 828,20;14925,769;  246,471;35772,519;41,31982
 828,76;14966,645;  269,625;35703,635;41,47716
 829,32;14961,060;  276,317;35643,289;41,52106
 829,89;14940,398;  231,241;35524,712;41,67671
 830,45;14963,658;  258,010;35444,982;41,79288
 831,01;14897,150;  252,703;35229,790;41,86869
 831,57;14914,564;  254,011;35069,983;42,10870
 832,14;14929,748;  246,703;35026,252;42,21747
 832,70;14869,470;  243,088;34855,522;42,25759
 833,26;14887,269;  214,704;34669,560;42,58490
 833,82;14901,453;  252,242;34709,291;42,51441
 834,38;14957,252;  247,089;34666,407;42,73810
 834,95;15000,282;  241,473;34489,753;43,09358
 835,51;14933,466;  209,243;34402,561;43,06170
 836,07;15020,880;  253,705;34454,908;43,17736
 836,63;15161,371;  264,013;34434,485;43,59717
 837,19;15057,709;  247,859;34274,139;43,52474
 837,75;14975,200;  219,551;33980,563;43,70618
 838,32;15137,153;  260,167;34076,371;43,99366
 838,88;15161,260;  262,090;34127,948;43,99466
 839,44;15129,752;  255,783;34055,756;44,00586
 840,00;15258,551;  252,014;33936,179;44,55072
 840,56;15074,965;  239,860;33756,295;44,26218
 841,12;15134,072;  235,476;33652,410;44,58397
 841,68;15128,256;  226,091;33490,526;44,79909
 842,25;15148,362;  231,322;33469,488;44,87925
 842,81;15061,162;  231,246;33316,142;44,82382
 843,37;15142,345;  214,938;33260,950;45,17158
 843,93;15165,298;  237,938;33145,219;45,36188
 844,49;15248,713;  247,400;33174,566;45,55908
 845,05;15078,896;  210,170;33065,912;45,25458
 845,61;15233,542;  248,170;33106,643;45,60581
 846,17;15145,418;  235,785;32907,298;45,63496
 846,73;15212,678;  241,940;32803,721;45,97641
 847,29;15132,939;  217,324;32683,913;45,94143
 847,86;15127,892;  235,248;32657,260;45,93374
 848,42;15109,614;  221,017;32423,376;46,23449
 848,98;15238,567;  249,402;32411,414;46,60518
 849,54;15258,443;  232,864;32420,376;46,68139
 850,10;15282,011;  239,172;32242,261;47,00434
 850,66;15205,580;  223,326;32169,223;46,89884
 851,22;15184,994;  216,018;32044,492;47,03014
 851,78;15314,717;  262,172;32190,300;47,14509
 852,34;15253,516;  247,480;31902,878;47,40435
 852,90;15235,161;  239,711;31744,301;47,59767
 853,46;15182,345;  221,327;31626,878;47,63813
 854,02;15181,374;  241,096;31540,686;47,73314
 854,58;15115,327;  237,558;31283,648;47,92156
 855,14;15048,973;  227,712;31230,148;47,80676
 855,70;15021,156;  199,404;31072,802;48,00817
 856,26;15109,186;  247,482;30999,610;48,32740
 856,82;15056,062;  223,174;30911,803;48,33350
 857,38;15015,015;  260,405;30765,842;48,36715
 857,94;14996,353;  225,559;30693,342;48,48004
 858,50;14999,690;  250,790;30567,073;48,65009
 859,06;14905,951;  231,560;30390,266;48,65723
 859,62;14952,904;  239,868;30330,612;48,89555
 860,18;14893,011;  229,406;30161,112;48,99021
 860,74;14850,041;  209,945;29971,689;49,19099
 861,30;14780,686;  208,791;29742,882;49,33924
 861,86;14967,562;  270,638;29919,075;49,57065
 862,42;14879,976;  237,946;29764,806;49,58885
 862,98;14965,622;  266,176;29637,075;50,04765
 863,54;14841,882;  236,946;29389,960;50,09752
 864,10;14898,912;  220,638;29537,691;50,06736
 864,66;14837,634;  213,639;29320,191;50,24297
 865,22;14832,895;  229,485;29208,769;50,39258
 865,78;14830,925;  242,639;29062,269;50,61927
 866,34;14836,801;  221,255;28983,154;50,81565
 866,90;14817,369;  246,716;28842,346;50,95412
 867,45;14798,399;  234,024;28601,462;51,34188
 868,01;14758,275;  240,717;28463,808;51,43858
 868,57;14722,920;  228,640;28331,924;51,57504
 869,13;14650,104;  212,025;28131,732;51,71286
 869,69;14669,749;  229,871;28104,463;51,80301
 870,25;14626,856;  212,025;28013,425;51,84930
 870,81;14676,502;  233,103;27915,694;52,17502
 871,37;14684,839;  241,103;27851,426;52,31281
 871,93;14605,484;  241,334;27679,310;52,35135
 872,49;14563,283;  262,719;27451,272;52,59774
 873,04;14490,313;  217,411;27275,849;52,74843
 873,60;14416,882;  217,181;27180,965;52,66212
 874,16;14443,296;  238,719;27138,312;52,80592
 874,72;14376,527;  230,104;27081,927;52,68329
 875,28;14420,604;  240,258;26971,773;53,04730
 875,84;14437,527;  230,258;26915,388;53,24040
 876,40;14422,142;  222,027;26777,388;53,47363
 876,95;14478,758;  237,104;26837,004;53,54025
 877,51;14555,450;  264,181;26826,235;53,80333
 878,07;14568,758;  270,719;26808,004;53,87906
 878,63;14688,219;  226,335;26831,004;54,35845
 879,19;14624,142;  242,873;26770,696;54,21202
 879,75;14696,065;  233,488;26885,388;54,26471
 880,30;14770,219;  235,258;26834,388;54,64450
 880,86;14845,527;  274,335;27011,312;54,49828
 881,42;14892,296;  217,181;26987,696;54,81820
 881,98;15040,835;  251,104;27128,850;55,02593
 882,54;15086,219;  229,796;27205,542;55,07326
 883,09;15154,988;  240,104;27280,927;55,15692
 883,65;15195,065;  221,027;27450,235;54,99256
 884,21;15379,219;  258,642;27607,927;55,28692
 884,77;15488,758;  217,412;27540,696;55,89133
 885,32;15566,527;  232,104;27752,158;55,72091
 885,88;15751,988;  269,642;27948,927;55,93478
 886,44;15775,681;  234,258;28056,773;55,85916
 887,00;15859,988;  260,796;28002,388;56,23034
 887,56;15983,296;  226,873;28174,927;56,37753
 888,11;16040,373;  234,565;28173,465;56,57276
 888,67;16116,988;  261,258;28362,927;56,42274
 889,23;16227,373;  247,104;28360,696;56,84179
 889,79;16163,142;  219,873;28214,927;56,95031
 890,34;16217,527;  241,565;28168,235;57,20683
 890,90;16335,604;  303,642;28337,619;57,18761
 891,46;16282,527;  222,335;28240,235;57,32119
 892,01;16362,373;  253,950;28197,927;57,64542
 892,57;16429,527;  271,027;28211,465;57,83195
 893,13;16294,758;  224,335;27922,235;58,02037
 893,69;16301,450;  227,642;27872,081;58,14482
 894,24;16202,450;  245,027;27818,542;57,87228
 894,80;16227,912;  248,181;27712,004;58,18466
 895,36;16193,604;  239,642;27574,235;58,36546
 895,91;16052,681;  226,950;27331,773;58,38714
 896,47;16109,450;  252,335;27288,619;58,65124
 897,03;16036,681;  230,488;27012,158;59,01870
 897,58;15942,835;  254,719;27080,619;58,48123
 898,14;15869,219;  246,796;26719,235;59,01392
 898,70;15843,988;  204,950;26620,312;59,20433
 899,25;15869,912;  242,181;26628,465;59,22672
 899,81;15782,219;  248,104;26450,696;59,28465
 900,37;15685,296;  208,258;26203,696;59,53752
 900,92;15703,296;  239,642;26209,081;59,54558
 901,48;15593,142;  225,412;26078,465;59,44261
 902,03;15507,065;  212,335;25948,773;59,42831
 902,59;15475,296;  229,950;25837,081;59,53555
 903,15;15428,219;  256,488;25704,542;59,61843
 903,70;15385,835;  245,027;25477,081;60,00624
 904,26;15255,912;  223,873;25315,773;59,90793
 904,82;15304,835;  242,873;25352,542;59,98471
 905,37;15182,065;  246,719;25189,619;59,87815
 905,93;15212,450;  228,719;25007,312;60,47047
 906,48;15232,450;  243,796;25006,850;60,52829
 907,04;15206,065;  253,335;24911,388;60,64035
 907,60;15056,604;  237,950;24700,542;60,57679
 908,15;15015,912;  230,027;24588,696;60,70071
 908,71;15043,681;  257,027;24614,081;60,70789
 909,26;14934,604;  228,181;24422,619;60,78431
 909,82;14806,758;  257,412;24211,388;60,73875
 910,37;14830,065;  277,027;24242,081;60,72608
 910,93;14784,527;  226,104;24083,312;61,02316
 911,48;14599,373;  220,181;23858,388;60,83030
 912,04;14664,527;  236,796;23776,312;61,29154
 912,60;14685,296;  243,258;23848,235;61,18218
 913,15;14637,373;  239,873;23565,619;61,72364
 913,71;14546,296;  219,873;23403,696;61,79491
 914,26;14561,912;  215,104;23348,850;62,01679
 914,82;14495,065;  236,412;23261,312;61,92710
 915,37;14470,912;  223,642;23194,927;62,02208
 915,93;14455,527;  272,642;23073,158;62,20423
 916,48;14359,988;  225,719;22937,081;62,23435
 917,04;14390,450;  247,104;22802,696;62,70439
 917,59;14363,142;  263,181;22762,158;62,66935
 918,15;14281,142;  196,488;22562,388;62,97379
 918,70;14204,373;  220,873;22468,696;62,85334
 919,26;14187,681;  231,950;22437,081;62,84913
 919,81;14123,681;  220,719;22235,312;63,15339
 920,37;14105,142;  228,642;22167,158;63,25177
 920,92;14062,527;  246,873;22137,081;63,11340
 921,48;13941,835;  214,488;21839,081;63,48025
 922,03;14000,835;  225,950;21859,081;63,67495
 922,59;13909,296;  225,796;21713,158;63,68162
 923,14;13868,681;  224,796;21644,312;63,69838
 923,69;13865,681;  250,565;21559,388;63,89426
 924,25;13884,758;  238,027;21438,619;64,36957
 924,80;13837,373;  233,719;21291,312;64,60213
 925,36;13783,988;  226,104;21189,312;64,67467
 925,91;13750,527;  211,181;21066,542;64,92022
 926,47;13741,835;  208,565;20966,081;65,19696
 927,02;13732,604;  280,335;20992,235;64,94947
 927,57;13648,142;  225,104;20790,696;65,26940
 928,13;13665,912;  213,796;20660,388;65,79148
 928,68;13651,373;  225,258;20638,312;65,77220
 929,24;13549,219;  199,719;20421,388;66,01582
 929,79;13568,219;  206,335;20327,235;66,40799
 930,34;13471,912;  226,873;20180,465;66,37922
 930,90;13499,296;  212,027;20141,465;66,67157
 931,45;13541,450;  229,027;20157,927;66,79959
 932,01;13472,373;  225,873;20021,465;66,91641
 932,56;13437,373;  249,719;19868,388;67,21992
 933,11;13410,988;  253,488;19857,927;67,11490
 933,67;13285,835;  220,488;19695,388;67,08813
 934,22;13262,758;  236,181;19596,312;67,28558
 934,77;13283,681;  257,950;19538,158;67,56012
 935,33;13124,681;  227,796;19370,850;67,37109
 935,88;13116,681;  228,258;19341,158;67,43311
 936,43;13076,373;  228,642;19217,235;67,66026
 936,99;12929,450;  232,719;19116,927;67,23465
 937,54;12892,604;  210,719;18954,773;67,65817
 938,09;12824,988;  227,412;18975,388;67,19433
 938,65;12728,450;  220,950;18836,850;67,18719
 939,20;12776,758;  204,335;18707,773;67,94641
 939,75;12680,219;  211,565;18689,619;67,47818
 940,31;12614,988;  210,412;18486,850;67,87196
 940,86;12626,142;  225,027;18508,004;67,82875
 941,41;12650,604;  290,565;18399,542;68,25365
 941,96;12505,373;  219,258;18250,619;68,13748
 942,52;12478,373;  216,027;18174,235;68,28268
 943,07;12371,604;  197,488;18061,696;68,14808
 943,62;12317,527;  217,719;17999,081;68,04770
 944,18;12296,450;  195,565;17954,158;68,14101
 944,73;12279,142;  233,027;17856,388;68,35311
 945,28;12142,758;  191,027;17627,927;68,54275
 945,83;12195,450;  217,642;17686,773;68,56556
 946,39;12199,988;  223,335;17662,004;68,67871
 946,94;12137,604;  245,335;17545,542;68,74062
 947,49;12085,296;  219,565;17453,696;68,85018
 948,04;12066,065;  253,719;17367,542;69,02225
 948,59;12086,219;  244,950;17351,773;69,21957
 949,15;12007,988;  202,719;17219,850;69,37285
 949,70;11902,219;  218,104;17085,235;69,27151
 950,25;11912,758;  237,181;17045,158;69,46450
 950,80;11836,219;  196,027;16909,081;69,64731
 951,36;11821,527;  197,873;16863,235;69,74738
 951,91;11874,604;  230,565;16832,927;70,13483
 952,46;11686,373;  199,719;16575,158;70,14563
 953,01;11778,758;  242,950;16650,619;70,30741
 953,56;11697,758;  195,104;16489,542;70,59251
 954,11;11676,835;  233,565;16458,312;70,52973
 954,67;11591,604;  219,719;16418,312;70,20292
 955,22;11530,065;  207,181;16251,773;70,57135
 955,77;11578,604;  242,412;16265,004;70,75130
 956,32;11568,681;  275,181;16178,927;71,01157
 956,87;11441,065;  206,565;15991,235;71,17349
 957,42;11417,219;  211,258;15955,850;71,17340
 957,98;11443,142;  214,335;15911,465;71,53414
 958,53;11425,604;  238,412;15814,004;71,82515
 959,08;11312,527;  201,796;15706,619;71,65984
 959,63;11331,527;  206,796;15611,312;72,21734
 960,18;11287,296;  229,873;15587,312;72,00044
 960,73;11282,912;  226,796;15466,158;72,54973
 961,28;11201,450;  199,873;15403,312;72,36243
 961,83;11231,373;  238,181;15367,619;72,66094
 962,39;11136,065;  204,642;15236,542;72,72150
 962,94;11114,988;  228,181;15135,158;73,03163
 963,49;11067,450;  223,565;15083,158;72,97565
 964,04;11062,142;  235,642;15060,927;73,02727
 964,59;10983,681;  190,873;14878,773;73,48094
 965,14;10979,835;  237,950;14853,158;73,49799
 965,69;10971,758;  226,181;14738,388;74,04509
 966,24;10920,912;  216,104;14616,465;74,33708
 966,79;10890,527;  233,488;14561,158;74,38082
 967,34;10820,912;  193,104;14409,696;74,75637
 967,89;10820,681;  206,027;14404,312;74,76011
 968,44;10821,527;  216,027;14305,773;75,27105
 968,99;10754,527;  221,950;14292,465;74,85566
 969,55;10667,527;  222,027;14166,619;74,90717
 970,10;10615,065;  226,488;14098,312;74,88977
 970,65;10601,758;  246,873;14004,696;75,26543
 971,20;10487,142;  214,181;13909,773;75,00925
 971,75;10428,988;  197,796;13668,542;75,95119
 972,30;10465,835;  223,104;13699,081;76,00733
 972,85;10393,758;  212,181;13631,004;75,87533
 973,40;10274,988;  206,258;13559,158;75,40482
 973,95;10300,527;  222,719;13453,312;76,17050
 974,50;10222,835;  246,565;13406,773;75,80632
 975,05;10152,450;  227,335;13275,619;76,06452
 975,60;10091,296;  233,642;13192,388;76,06950
 976,15;10050,835;  213,719;13086,158;76,41998
 976,70;10013,912;  225,719;13024,312;76,47866
 977,25;10007,142;  228,950;12980,388;76,68305
 977,80; 9885,450;  205,104;12853,542;76,53392
 978,35; 9800,296;  228,565;12647,773;77,07199
 978,89; 9742,065;  198,719;12588,388;77,02664
 979,44; 9714,527;  228,873;12625,081;76,52061
 979,99; 9638,681;  209,873;12401,619;77,33763
 980,54; 9642,065;  243,412;12386,850;77,39697
 981,09; 9587,296;  239,258;12232,388;77,94494
 981,64; 9472,988;  234,873;12097,773;77,87401
 982,19; 9457,373;  261,027;12125,081;77,51437
 982,74; 9361,065;  245,027;11893,081;78,26233
 983,29; 9264,988;  213,950;11764,619;78,35943
 983,84; 9245,758;  235,258;11668,773;78,80778
 984,39; 9242,065;  303,104;11711,542;78,35394
 984,94; 9098,604;  203,027;11481,619;78,87134
 985,49; 9123,065;  250,873;11470,542;79,07713
 986,03; 9015,450;  250,488;11413,235;78,51976
 986,58; 8947,219;  276,027;11242,619;79,06916
 987,13; 8891,758;  237,027;11119,465;79,52933
 987,68; 8821,527;  235,335;11045,773;79,42501
 988,23; 8718,604;  237,258;10984,850;78,91392
 988,78; 8678,527;  223,873;10863,235;79,46580
 989,33; 8524,758;  241,873;10732,696;78,95362
 989,88; 8570,604;  249,642;10721,619;79,45932
 990,42; 8454,835;  232,642;10586,158;79,41450
 990,97; 8362,296;  224,950;10463,004;79,48138
 991,52; 8296,296;  253,719;10376,850;79,44753
 992,07; 8269,296;  255,873;10301,927;79,76687
 992,62; 8218,758;  239,873;10217,773;79,96557
 993,17; 8129,835;  238,181;10072,004;80,25011
 993,71; 8056,758;  248,950; 9954,235;80,44903
 994,26; 7972,373;  222,181; 9825,850;80,70033
 994,81; 7934,373;  250,181; 9767,850;80,73607
 995,36; 7846,912;  226,719; 9628,773;81,04817
 995,91; 7758,219;  235,258; 9593,004;80,39288
 996,45; 7730,065;  236,335; 9483,619;81,03709
 997,00; 7551,604;  207,950; 9335,850;80,45283
 997,55; 7625,296;  233,873; 9334,927;81,21502
 998,10; 7519,835;  265,488; 9163,773;81,52522
 998,65; 7457,681;  231,412; 9172,465;80,82122
 999,19; 7372,835;  252,104; 9013,158;81,27710
 999,74; 7244,219;  276,181; 8985,542;80,00631
1000,29; 7233,988;  246,719; 8828,773;81,41721
1000,84; 7081,527;  223,104; 8741,696;80,51123
1001,38; 7036,450;  237,412; 8648,388;80,83530
1001,93; 7025,219;  248,181; 8601,158;81,13321
1002,48; 6909,988;  221,950; 8410,542;81,67507
1003,03; 6902,912;  238,565; 8394,696;81,70965
1003,57; 6836,912;  249,719; 8249,158;82,34568
1004,12; 6760,912;  272,412; 8205,235;81,79308
1004,67; 6682,142;  226,719; 8094,235;82,05161
1005,22; 6553,373;  217,796; 7967,081;81,75693
1005,76; 6455,296;  217,335; 7848,235;81,74608
1006,31; 6445,758;  247,642; 7815,850;81,89674
1006,86; 6354,219;  222,104; 7678,850;82,23581
1007,40; 6267,681;  210,950; 7571,850;82,28248
1007,95; 6193,065;  236,873; 7480,158;82,23054
1008,50; 6114,450;  231,642; 7337,388;82,78944
1009,04; 6068,527;  219,950; 7249,004;83,20575
1009,59; 5952,142;  240,412; 7142,312;82,75592
1010,14; 5861,296;  216,335; 7033,312;82,80740
1010,68; 5786,988;  229,565; 6973,773;82,40291
1011,23; 5705,988;  224,950; 6797,542;83,39234
1011,78; 5691,912;  234,181; 6780,465;83,37143
1012,32; 5618,912;  247,565; 6639,465;84,03364
1012,87; 5582,988;  253,412; 6621,081;83,69745
1013,42; 5500,527;  218,258; 6484,004;84,30391
1013,96; 5530,142;  258,488; 6507,081;84,36546
1014,51; 5419,065;  198,335; 6424,619;83,84986
1015,06; 5436,758;  204,335; 6429,158;84,05738
1015,60; 5503,219;  268,565; 6443,619;84,77098
1016,15; 5455,373;  224,104; 6407,542;84,60130
1016,69; 5510,142;  233,950; 6431,158;85,13822
1017,24; 5499,373;  205,258; 6454,927;84,71033
1017,79; 5584,835;  251,796; 6551,081;84,66102
1018,33; 5540,065;  218,412; 6526,158;84,36696
1018,88; 5609,912;  242,258; 6598,927;84,44130
1019,42; 5600,527;  229,412; 6609,388;84,18707
1019,97; 5580,527;  209,642; 6586,388;84,22610
1020,51; 5686,219;  243,335; 6614,927;85,42424
1021,06; 5646,527;  199,258; 6623,081;84,79793
1021,61; 5624,450;  204,258; 6566,081;85,19873
1022,15; 5587,912;  180,027; 6530,927;85,15147
1022,70; 5599,065;  223,873; 6544,388;85,04358
1023,24; 5540,604;  217,104; 6506,696;84,63983
1023,79; 5520,758;  214,873; 6440,312;85,22909
1024,33; 5494,373;  219,642; 6432,696;84,89755
1024,88; 5423,758;  224,565; 6301,158;85,56099
1025,42; 5372,758;  216,335; 6201,773;86,14946
1025,97; 5341,219;  219,027; 6159,696;86,22248
1026,51; 5203,450;  185,488; 6011,927;86,12399
1027,06; 5178,373;  206,488; 5991,850;85,93905
1027,60; 5105,527;  239,258; 5887,235;86,15951
1028,15; 5057,835;  245,873; 5774,696;87,03410
1028,69; 4871,219;  198,950; 5671,004;85,38420
1029,24; 4865,219;  217,104; 5593,542;86,45343
1029,78; 4815,296;  215,181; 5512,696;86,83534
1030,33; 4711,296;  196,565; 5423,542;86,37365
1030,87; 4638,065;  222,642; 5339,312;86,29487
1031,42; 4555,681;  202,181; 5270,850;85,89039
1031,96; 4581,373;  233,488; 5172,465;88,03209
1032,51; 4445,835;  211,796; 5112,696;86,39308
1033,05; 4386,142;  216,104; 5063,465;86,02697
1033,60; 4306,527;  191,950; 4923,927;86,95260
1034,14; 4283,065;  213,565; 4874,388;87,31290
1034,69; 4250,219;  219,642; 4796,312;88,06791
1035,23; 4172,758;  208,796; 4739,927;87,48283
1035,77; 4103,758;  201,412; 4670,388;87,32079
1036,32; 4065,450;  190,950; 4605,312;87,77034
1036,86; 4039,450;  214,335; 4557,312;88,07589
1037,41; 3946,758;  225,104; 4481,542;87,43587
1037,95; 3846,835;  194,104; 4382,773;87,20504
1038,50; 3828,450;  206,412; 4372,696;86,93689
1039,04; 3799,912;  233,027; 4333,235;86,99278
1039,58; 3751,527;  196,488; 4222,388;88,30419
1040,13; 3661,912;  218,181; 4185,004;86,81332
1040,67; 3670,373;  237,488; 4167,081;87,35982
1041,21; 3591,065;  238,565; 4070,696;87,48397
1041,76; 3513,758;  199,104; 4016,850;86,82227
1042,30; 3512,681;  215,104; 3950,158;88,28727
1042,85; 3435,912;  217,335; 3897,235;87,46371
1043,39; 3404,065;  207,258; 3822,235;88,43231
1043,93; 3377,296;  223,335; 3783,773;88,58351
1044,48; 3325,450;  223,412; 3736,850;88,29067
1045,02; 3292,296;  213,104; 3690,850;88,53988
1045,56; 3260,681;  232,719; 3675,850;87,94210
1046,11; 3241,373;  220,642; 3615,004;88,99261
1046,65; 3182,681;  229,488; 3556,773;88,75683
1047,19; 3120,681;  207,104; 3511,465;88,17367
1047,74; 3082,373;  197,950; 3420,388;89,51057
1048,28; 3057,527;  220,181; 3400,927;89,20379
1048,82; 3032,219;  238,719; 3362,388;89,43008
1049,37; 2980,065;  228,412; 3294,004;89,75929
1049,91; 2941,065;  230,796; 3252,158;89,70357
1050,45; 2923,296;  233,258; 3229,158;89,79066
1050,99; 2850,835;  216,642; 3161,927;89,43761
1051,54; 2789,296;  208,796; 3103,696;89,13952
1052,08; 2810,835;  250,796; 3090,235;90,16003
1052,62; 2779,835;  236,719; 3048,696;90,43870
1053,16; 2713,219;  217,412; 2967,004;90,77010
1053,71; 2672,604;  230,565; 2937,465;90,21532
1054,25; 2636,912;  241,719; 2895,773;90,24656
1054,79; 2631,142;  231,642; 2873,235;90,83536
1055,33; 2551,373;  195,488; 2796,696;90,56888
1055,88; 2547,373;  231,412; 2778,312;90,93257
1056,42; 2515,835;  245,873; 2757,388;90,38215
1056,96; 2480,373;  238,565; 2705,158;90,88684
1057,50; 2428,912;  224,104; 2676,312;89,91113
1058,05; 2399,912;  221,335; 2629,773;90,45599
1058,59; 2392,527;  247,565; 2595,850;91,34163
1059,13; 2307,988;  206,181; 2532,158;90,36236
1059,67; 2288,219;  224,642; 2534,235;89,34810
1060,21; 2252,065;  218,796; 2464,235;90,55110
1060,76; 2241,681;  229,565; 2448,081;90,69648
1061,30; 2223,527;  248,565; 2444,773;89,92599
1061,84; 2183,681;  229,796; 2349,312;92,18544
1062,38; 2109,988;  218,335; 2286,542;91,46344
1062,92; 2160,450;  266,488; 2345,081;91,11751
1063,46; 2103,912;  247,181; 2274,388;91,59055
1064,01; 2083,681;  224,412; 2233,927;92,52326
1064,55; 2041,450;  231,565; 2217,773;91,12263
1065,09; 1980,681;  204,565; 2145,388;91,51351
1065,63; 2014,065;  253,719; 2166,388;92,03610
1066,17; 1978,912;  262,796; 2143,465;91,25025
1066,71; 1961,604;  247,258; 2125,388;91,27938
1067,25; 1896,604;  241,950; 2079,927;90,02582
1067,80; 1894,450;  256,873; 2061,696;90,73338
1068,34; 1901,142;  258,950; 2065,619;90,89612
1068,88; 1842,219;  225,181; 1990,696;91,59017
1069,42; 1839,681;  252,488; 2018,696;89,86442
1069,96; 1802,681;  234,642; 1949,081;91,46076
1070,50; 1814,758;  276,488; 1963,081;91,20575
1071,04; 1733,681;  220,950; 1888,696;90,70510
1071,58; 1759,835;  232,796; 1878,081;92,81303
1072,12; 1733,219;  233,796; 1855,081;92,48364
1072,66; 1716,912;  227,181; 1840,158;92,35909
1073,21; 1708,065;  243,104; 1838,004;91,85288
1073,75; 1679,142;  238,488; 1792,850;92,68460
1074,29; 1667,527;  245,950; 1790,388;92,04491
1074,83; 1666,142;  250,642; 1768,542;93,25384
1075,37; 1641,296;  255,796; 1760,542;92,07533
1075,91; 1625,373;  255,873; 1747,312;91,82410
1076,45; 1594,681;  236,565; 1700,004;92,80304
1076,99; 1586,912;  245,488; 1654,004;95,23666
1077,53; 1536,988;  229,104; 1627,004;93,56067
1078,07; 1539,758;  242,258; 1641,927;92,70047
1078,61; 1512,604;  237,412; 1612,081;92,76357
1079,15; 1486,219;  235,719; 1601,004;91,59262
1079,69; 1500,450;  236,796; 1561,235;95,41054
1080,23; 1485,065;  253,335; 1567,850;93,70227
1080,77; 1484,835;  284,719; 1574,388;93,05606
1081,31; 1421,065;  219,565; 1499,235;93,89145
1081,85; 1435,527;  250,719; 1528,004;92,75988
1082,39; 1427,758;  228,027; 1476,927;96,06300
1082,93; 1404,912;  249,950; 1489,312;93,19004
1083,47; 1364,988;  228,565; 1438,773;93,90314
1084,01; 1367,681;  246,027; 1466,388;91,91160
1084,55; 1339,681;  235,258; 1420,004;93,22023
1085,09; 1353,758;  247,950; 1420,004;94,34786
1085,63; 1331,450;  254,335; 1380,158;95,67359
1086,17; 1310,758;  224,719; 1372,158;94,64895
1086,71; 1280,373;  229,796; 1356,773;93,22080
1087,24; 1314,604;  266,642; 1373,927;94,64247
1087,78; 1277,988;  249,258; 1344,235;93,95000
1088,32; 1226,988;  234,488; 1302,312;92,94611
1088,86; 1256,373;  255,027; 1325,696;93,52526
1089,40; 1222,681;  239,335; 1279,004;94,58260
1089,94; 1191,373;  223,027; 1243,081;94,93089
1090,48; 1212,912;  243,258; 1242,312;97,05722
1091,02; 1200,758;  254,258; 1254,081;94,66675
1091,56; 1171,142;  240,642; 1240,312;93,08079
1092,10; 1155,527;  213,412; 1184,927;96,97380
1092,63; 1174,296;  259,258; 1217,465;95,49479
1093,17; 1157,681;  244,719; 1203,004;95,27040
1093,71; 1115,681;  229,488; 1160,235;95,21310
1094,25; 1138,758;  264,950; 1180,158;95,47644
1094,79; 1103,065;  240,488; 1147,542;95,09655
1095,33; 1104,219;  247,796; 1127,312;97,37443
1095,87; 1072,527;  240,412; 1124,619;94,10859
1096,40; 1043,527;  216,950; 1088,619;94,82690
1096,94; 1055,219;  242,104; 1091,927;95,68055
1097,48; 1051,604;  251,181; 1084,465;96,05638
1098,02; 1020,450;  236,181; 1071,927;93,84060
1098,56;  989,219;  208,104; 1018,388;96,40013
1099,10;  981,604;  220,719; 1013,850;95,93432
1099,63;  973,527;  216,642; 1022,465;93,92690
1100,17;  989,988;  235,565; 1028,696;95,11963
1100,71;  992,681;  259,719; 1034,465;94,60667

