
Integration time [ms]: 120,000
Averaging Nr. [scans]: 13
Smoothing Nr. [pixels]: 0
Data measured with spectrometer [name]: 2009305U1
Wave   ;Sample   ;Dark     ;Reference;Reflectance
[nm]   ;[counts] ;[counts] ;[counts] ;[%]

 175,72;  195,933;  198,725;  209,729;-25,36434
 176,32;  226,152;  233,791;  221,495; 0,00000
 176,92;  261,485;  251,952;  246,144; 0,00000
 177,52;  251,505;  249,569;  261,381;16,39270
 178,12;  223,871;  210,945;  220,620;133,59191
 178,72;  260,747;  248,635;  250,038;863,03771
 179,32;  245,758;  255,406;  241,911; 0,00000
 179,92;  249,182;  255,641;  248,129; 0,00000
 180,52;  237,731;  233,115;  240,492;62,57238
 181,12;  253,907;  249,103;  245,056; 0,00000
 181,73;  276,987;  265,873;  272,598;165,26246
 182,33;  345,051;  349,879;  341,303; 0,00000
 182,93;  271,391;  259,492;  262,580;385,24350
 183,53;  235,498;  241,402;  230,123; 0,00000
 184,13;  243,565;  231,942;  223,284; 0,00000
 184,73;  282,931;  262,785;  270,840;250,10523
 185,33;  244,960;  235,800;  340,235; 8,77092
 185,93;  265,648;  233,331;  341,231;29,95065
 186,53;  263,600;  252,412;  358,480;10,54808
 187,13;  287,293;  259,651;  408,456;18,57599
 187,73;  248,842;  235,102;  356,651;11,30472
 188,33;  256,699;  242,097;  355,217;12,90792
 188,93;  271,794;  252,084;  372,324;16,39197
 189,53;  265,241;  250,458;  375,462;11,82602
 190,13;  317,349;  288,441;  393,447;27,52998
 190,73;  239,952;  221,607;  354,699;13,78382
 191,34;  269,263;  261,772;  383,107; 6,17387
 191,94;  253,163;  243,170;  355,212; 8,91933
 192,54;  277,366;  244,657;  378,976;24,35183
 193,14;  282,174;  261,650;  386,945;16,37995
 193,74;  270,116;  256,803;  371,292;11,62859
 194,34;  278,872;  254,345;  379,723;19,56299
 194,94;  247,752;  215,650;  345,606;24,70175
 195,54;  220,439;  198,339;  325,621;17,36242
 196,14;  243,398;  226,731;  350,792;13,43480
 196,74;  244,355;  216,030;  338,690;23,09268
 197,34;  225,363;  203,967;  338,400;15,91616
 197,94;  239,580;  224,267;  375,503;10,12539
 198,54;  251,004;  232,346;  384,669;12,24904
 199,14;  239,604;  223,046;  367,104;11,49338
 199,74;  227,872;  202,354;  368,520;15,35660
 200,34;  215,365;  194,509;  366,971;12,09273
 200,94;  249,661;  234,889;  406,748; 8,59537
 201,54;  237,719;  216,814;  407,160;10,98243
 202,14;  254,301;  240,665;  454,320; 6,38230
 202,74;  232,923;  228,200;  447,857; 2,15001
 203,34;  225,864;  181,976;  463,089;15,61207
 203,94;  198,796;  166,204;  459,631;11,10729
 204,54;  266,893;  236,729;  542,983; 9,84935
 205,14;  226,517;  194,585;  536,212; 9,34716
 205,74;  275,020;  237,668;  639,180; 9,30270
 206,34;  233,485;  204,050;  630,780; 6,89794
 206,94;  250,109;  210,433;  685,452; 8,35247
 207,54;  225,228;  177,588;  721,425; 8,76012
 208,14;  240,327;  208,358;  795,906; 5,44115
 208,74;  236,799;  208,200;  848,241; 4,46833
 209,34;  242,888;  207,355;  912,599; 5,03850
 209,94;  255,420;  216,431; 1015,259; 4,88069
 210,54;  253,636;  207,205; 1109,050; 5,14843
 211,14;  272,422;  214,662; 1195,427; 5,88927
 211,73;  273,329;  208,506; 1299,988; 5,93899
 212,33;  279,315;  222,812; 1397,255; 4,81112
 212,93;  270,416;  208,738; 1479,640; 4,85312
 213,53;  253,144;  184,046; 1538,349; 5,10210
 214,13;  269,239;  193,748; 1630,932; 5,25270
 214,73;  265,147;  179,434; 1625,550; 5,92712
 215,33;  244,650;  163,585; 1674,567; 5,36507
 215,93;  285,157;  208,899; 1774,717; 4,87018
 216,53;  248,332;  168,430; 1832,838; 4,80064
 217,13;  316,126;  229,436; 2022,497; 4,83472
 217,73;  313,309;  197,822; 2208,241; 5,74441
 218,33;  271,252;  156,057; 2364,675; 5,21570
 218,93;  313,581;  181,834; 2630,757; 5,37978
 219,53;  339,443;  180,903; 2889,476; 5,85326
 220,13;  338,566;  168,059; 3125,529; 5,76530
 220,73;  379,648;  190,893; 3430,322; 5,82681
 221,32;  388,030;  184,508; 3811,856; 5,61077
 221,92;  416,213;  193,366; 4182,543; 5,58630
 222,52;  433,258;  172,284; 4562,289; 5,94473
 223,12;  469,909;  184,900; 4945,153; 5,98726
 223,72;  503,561;  200,285; 5311,646; 5,93339
 224,32;  526,692;  192,747; 5676,679; 6,08953
 224,92;  536,981;  183,362; 5950,894; 6,13121
 225,52;  577,223;  207,356; 6276,099; 6,09462
 226,12;  588,233;  187,051; 6571,650; 6,28358
 226,72;  594,708;  160,666; 6841,878; 6,49645
 227,31;  606,074;  156,666; 7219,939; 6,36260
 227,91;  698,565;  190,894; 7541,280; 6,90673
 228,51;  699,540;  186,812; 7911,520; 6,63750
 229,11;  763,528;  181,820; 8271,138; 7,19107
 229,71;  762,745;  176,122; 8541,977; 7,01210
 230,31;  814,258;  169,748; 8933,640; 7,35415
 230,91;  840,086;  158,502; 9183,125; 7,55249
 231,51;  879,675;  167,360; 9538,918; 7,60081
 232,10;  934,655;  169,980; 9825,075; 7,91991
 232,70;  976,565;  177,422;10037,261; 8,10503
 233,30; 1022,045;  204,206;10330,930; 8,07604
 233,90; 1018,103;  173,898;10431,145; 8,23032
 234,50; 1074,434;  173,514;10561,102; 8,67305
 235,10; 1103,674;  170,439;10679,048; 8,88067
 235,70; 1163,134;  196,355;10707,048; 9,19805
 236,29; 1171,946;  189,507;10660,055; 9,38287
 236,89; 1174,918;  164,349;10563,896; 9,71743
 237,49; 1232,146;  187,436;10546,988;10,08451
 238,09; 1229,485;  169,434;10299,934;10,46396
 238,69; 1276,359;  199,577;10085,824;10,89171
 239,29; 1224,221;  173,126; 9816,008;10,90022
 239,89; 1255,399;  193,964; 9557,989;11,33523
 240,48; 1225,774;  169,819; 9189,380;11,70739
 241,08; 1229,013;  173,895; 8870,359;12,13273
 241,68; 1272,954;  202,973; 8542,428;12,83035
 242,28; 1214,019;  173,206; 8296,267;12,81306
 242,88; 1257,738;  210,364; 8015,271;13,41943
 243,48; 1258,571;  214,359; 7813,649;13,74091
 244,07; 1231,854;  190,279; 7524,495;14,20159
 244,67; 1241,094;  193,589; 7335,200;14,66764
 245,27; 1250,175;  198,121; 7224,988;14,97188
 245,87; 1244,551;  202,978; 7137,422;15,02028
 246,47; 1267,502;  186,737; 7152,619;15,51512
 247,06; 1292,289;  178,433; 7115,577;16,05640
 247,66; 1303,309;  190,742; 7171,967;15,93655
 248,26; 1362,064;  211,199; 7383,422;16,04614
 248,86; 1378,730;  187,583; 7554,528;16,16881
 249,46; 1392,022;  151,745; 7751,040;16,32095
 250,05; 1480,238;  205,203; 8059,625;16,23334
 250,65; 1529,296;  156,351; 8391,138;16,67249
 251,25; 1580,102;  175,510; 8846,420;16,19890
 251,85; 1675,447;  188,657; 9377,235;16,18086
 252,44; 1758,934;  152,046;10031,610;16,26477
 253,04; 1889,725;  201,662;10746,245;16,00882
 253,64; 1936,638;  153,197;11314,012;15,97949
 254,24; 2103,662;  191,741;12220,363;15,89476
 254,84; 2191,022;  166,745;13137,194;15,60684
 255,43; 2319,864;  180,354;13986,565;15,49672
 256,03; 2457,288;  179,120;14914,490;15,46054
 256,63; 2580,361;  182,657;15992,265;15,16612
 257,23; 2655,676;  178,195;16766,067;14,93549
 257,82; 2823,461;  187,423;17744,651;15,01398
 258,42; 2859,830;  152,113;18540,057;14,72550
 259,02; 2988,448;  195,508;19439,475;14,51332
 259,62; 3055,241;  174,574;20014,745;14,51937
 260,21; 3090,636;  187,584;20539,271;14,26443
 260,81; 3121,158;  174,128;20993,664;14,15512
 261,41; 3122,908;  166,037;21535,894;13,83664
 262,01; 3230,242;  206,264;21932,846;13,91833
 262,60; 3208,138;  161,657;22263,375;13,78391
 263,20; 3247,282;  174,198;22619,064;13,69170
 263,80; 3242,503;  197,880;22817,691;13,45999
 264,40; 3173,275;  155,342;23010,849;13,20440
 264,99; 3190,006;  195,802;23187,520;13,02297
 265,59; 3174,407;  168,336;23290,435;13,00086
 266,19; 3167,617;  175,572;23408,876;12,87826
 266,78; 3198,205;  207,185;23564,540;12,80547
 267,38; 3161,688;  185,875;23535,671;12,74449
 267,98; 3136,126;  178,493;23588,757;12,63392
 268,58; 3118,285;  189,029;23610,424;12,50675
 269,17; 3073,514;  178,179;23588,237;12,36791
 269,77; 3034,658;  192,578;23479,767;12,20448
 270,37; 2976,806;  161,110;23253,673;12,19309
 270,96; 3016,836;  219,115;23179,220;12,18514
 271,56; 2909,650;  181,041;22949,788;11,98401
 272,16; 2873,112;  181,652;22839,153;11,87889
 272,75; 2842,735;  179,345;22647,263;11,85419
 273,35; 2823,573;  185,962;22752,668;11,68807
 273,95; 2813,080;  182,345;22634,525;11,71706
 274,54; 2789,653;  162,280;22661,239;11,67775
 275,14; 2860,100;  199,500;23009,838;11,66401
 275,74; 2782,910;  157,729;22979,523;11,50295
 276,33; 2901,015;  206,040;23339,167;11,64985
 276,93; 2914,856;  185,666;23789,475;11,56250
 277,53; 2953,521;  184,200;24196,394;11,53298
 278,12; 3002,758;  159,196;24656,393;11,60770
 278,72; 3118,784;  210,968;25209,099;11,63213
 279,32; 3162,355;  177,353;25795,343;11,65198
 279,91; 3254,920;  173,275;26468,338;11,71948
 280,51; 3324,356;  180,661;27006,795;11,71878
 281,11; 3423,133;  181,582;27679,169;11,78849
 281,70; 3482,983;  155,889;28143,812;11,88760
 282,30; 3637,419;  175,887;28664,557;12,15056
 282,90; 3696,622;  184,733;29140,880;12,12830
 283,49; 3828,380;  191,654;29639,315;12,34979
 284,09; 3901,735;  209,735;30013,118;12,38786
 284,69; 3993,828;  208,352;30383,634;12,54496
 285,28; 4133,852;  198,581;30659,164;12,91922
 285,88; 4296,315;  234,268;31004,553;13,20120
 286,47; 4303,123;  178,656;30948,156;13,40440
 287,07; 4468,702;  220,122;30971,081;13,81609
 287,67; 4618,417;  205,282;31249,572;14,21561
 288,26; 4730,954;  173,583;31154,111;14,71044
 288,86; 4915,379;  177,427;31163,873;15,29040
 289,46; 5096,841;  194,890;31354,786;15,73160
 290,05; 5245,526;  176,971;31383,773;16,24183
 290,65; 5551,666;  191,425;31591,261;17,07092
 291,24; 5803,526;  197,814;31745,730;17,76888
 291,84; 6035,746;  198,734;31851,188;18,44095
 292,44; 6320,182;  193,513;31994,544;19,26563
 293,03; 6581,978;  249,968;32153,222;19,84754
 293,63; 6790,834;  186,964;32285,480;20,57376
 294,22; 7033,988;  208,736;32427,446;21,18413
 294,82; 7209,110;  179,111;32457,635;21,77918
 295,41; 7313,983;  168,197;32179,428;22,32275
 296,01; 7523,012;  220,882;32137,119;22,87904
 296,61; 7615,017;  209,660;31938,498;23,33951
 297,20; 7617,518;  198,652;31498,260;23,70274
 297,80; 7707,797;  189,818;31371,885;24,10994
 298,39; 7736,755;  168,349;31012,542;24,53754
 298,99; 7745,085;  196,577;30953,082;24,54280
 299,58; 7768,211;  210,666;30637,168;24,83869
 300,18; 7870,687;  218,664;30536,651;25,23922
 300,78; 7770,499;  187,969;30175,812;25,28534
 301,37; 7854,714;  210,801;30210,608;25,47987
 301,97; 7910,592;  192,736;30210,385;25,71106
 302,56; 7914,482;  180,117;30097,031;25,85281
 303,16; 7912,115;  178,501;30021,826;25,91405
 303,75; 7872,541;  188,816;30056,938;25,72550
 304,35; 8015,939;  181,592;30296,229;26,01508
 304,94; 7987,119;  192,275;30223,710;25,95562
 305,54; 8020,953;  202,738;30212,702;26,05206
 306,13; 8011,484;  162,515;30220,877;26,11243
 306,73; 7941,923;  171,667;29981,020;26,06650
 307,33; 7961,477;  197,897;30003,878;26,04705
 307,92; 7986,073;  200,276;30009,930;26,11838
 308,52; 8120,492;  164,039;30460,332;26,26213
 309,11; 8239,957;  184,805;30865,317;26,25495
 309,71; 8290,790;  165,957;31097,892;26,26681
 310,30; 8368,835;  168,199;31341,744;26,30640
 310,90; 8501,681;  214,660;31732,359;26,29323
 311,49; 8515,502;  187,198;31844,388;26,30778
 312,09; 8513,167;  150,125;31981,436;26,27300
 312,68; 8662,836;  221,508;32445,118;26,19610
 313,28; 8663,150;  164,968;32508,776;26,27453
 313,87; 8641,530;  155,737;32612,835;26,14464
 314,47; 8712,912;  179,883;32880,460;26,09443
 315,06; 8699,736;  164,892;33020,392;25,97691
 315,66; 8731,552;  163,895;33161,590;25,96441
 316,25; 8692,218;  153,271;33134,720;25,89015
 316,85; 8683,291;  150,895;33146,514;25,85918
 317,44; 8713,743;  168,882;33320,627;25,77500
 318,04; 8663,410;  157,041;33358,819;25,62022
 318,63; 8626,855;  156,129;33413,451;25,47026
 319,22; 8668,696;  181,886;33687,260;25,32970
 319,82; 8692,257;  176,965;33726,732;25,38108
 320,41; 8576,780;  188,887;33581,370;25,11911
 321,01; 8542,565;  194,740;33730,664;24,89219
 321,60; 8571,630;  183,350;33856,364;24,91099
 322,20; 8511,523;  167,276;33758,639;24,84045
 322,79; 8495,206;  207,430;33929,362;24,57681
 323,39; 8485,174;  173,438;34018,334;24,55831
 323,98; 8364,722;  164,200;33942,472;24,27751
 324,58; 8357,809;  173,116;33789,917;24,34703
 325,17; 8268,523;  185,502;33722,475;24,10182
 325,76; 8176,550;  194,121;33481,634;23,98025
 326,36; 8052,460;  166,894;33169,218;23,89397
 326,95; 7952,176;  201,197;32821,858;23,76095
 327,55; 7818,355;  172,273;32580,839;23,59278
 328,14; 7682,457;  161,050;32147,564;23,51431
 328,74; 7601,752;  198,502;31792,923;23,43214
 329,33; 7517,943;  195,278;31370,401;23,48881
 329,92; 7274,177;  154,959;30887,103;23,16538
 330,52; 7123,782;  189,204;30203,412;23,10432
 331,11; 6984,563;  187,197;29806,103;22,94942
 331,71; 6819,690;  178,967;29282,569;22,81753
 332,30; 6672,504;  195,506;28842,479;22,60971
 332,89; 6607,070;  236,124;28405,815;22,61632
 333,49; 6395,801;  194,351;27811,673;22,45493
 334,08; 6288,269;  177,196;27493,100;22,37185
 334,68; 6148,604;  192,581;27000,316;22,21756
 335,27; 6005,237;  191,512;26650,986;21,97219
 335,86; 5952,024;  222,889;26456,564;21,83886
 336,46; 5874,764;  194,436;26199,541;21,84313
 337,05; 5770,929;  176,966;26018,241;21,64740
 337,65; 5747,383;  160,811;25875,670;21,72507
 338,24; 5711,771;  224,123;25891,948;21,37948
 338,83; 5663,750;  200,738;25754,918;21,37815
 339,43; 5616,898;  173,348;25758,583;21,27614
 340,02; 5563,364;  175,578;25570,534;21,21597
 340,61; 5533,418;  177,122;25648,038;21,02907
 341,21; 5559,290;  210,963;25690,769;20,99045
 341,80; 5466,096;  189,657;25615,084;20,75261
 342,40; 5520,299;  180,589;25697,459;20,92620
 342,99; 5522,917;  179,355;25775,661;20,87630
 343,58; 5479,019;  181,355;25977,863;20,53636
 344,18; 5525,987;  197,971;26092,927;20,57550
 344,77; 5561,336;  165,732;26394,318;20,57146
 345,36; 5631,792;  166,658;26652,242;20,63437
 345,96; 5645,884;  207,432;26959,571;20,32904
 346,55; 5684,085;  170,207;27168,889;20,42277
 347,14; 5735,020;  163,435;27487,598;20,39069
 347,74; 5744,369;  144,827;27869,864;20,19670
 348,33; 5897,942;  178,596;28420,892;20,25100
 348,92; 6004,495;  181,599;29109,307;20,12913
 349,52; 6050,718;  159,597;29486,131;20,08802
 350,11; 6134,676;  177,654;29780,485;20,12315
 350,70; 6111,390;  172,122;29801,438;20,04524
 351,29; 6025,724;  170,031;29587,678;19,90538
 351,89; 6073,256;  198,574;29521,502;20,03443
 352,48; 6012,901;  154,891;29577,683;19,90977
 353,07; 6013,370;  190,436;29611,494;19,79172
 353,67; 6031,472;  195,061;29508,263;19,91052
 354,26; 5950,721;  186,127;29303,183;19,79800
 354,85; 5908,857;  183,049;29206,884;19,72795
 355,45; 5849,725;  160,580;28976,851;19,74282
 356,04; 5834,030;  177,667;28863,558;19,71828
 356,63; 5796,165;  201,736;28756,951;19,59162
 357,22; 5792,162;  182,033;28529,688;19,79045
 357,82; 5753,054;  178,573;28303,126;19,82069
 358,41; 5735,245;  197,198;28225,802;19,75855
 359,00; 5674,754;  169,194;28039,475;19,75423
 359,60; 5653,915;  190,200;27965,671;19,67101
 360,19; 5639,497;  189,283;27739,961;19,78250
 360,78; 5654,210;  188,811;27658,808;19,89589
 361,37; 5584,017;  176,735;27434,916;19,83728
 361,97; 5592,517;  189,428;27383,861;19,86836
 362,56; 5554,014;  173,116;27056,561;20,01566
 363,15; 5571,049;  215,273;26861,468;20,09959
 363,74; 5466,574;  191,806;26488,153;20,05894
 364,34; 5413,707;  201,425;26092,628;20,13148
 364,93; 5339,027;  181,423;25766,867;20,15835
 365,52; 5262,024;  158,350;25396,410;20,22213
 366,11; 5271,225;  179,348;25099,599;20,43269
 366,71; 5193,927;  171,271;24664,030;20,50670
 367,30; 5181,696;  181,274;24351,150;20,68865
 367,89; 5159,887;  218,356;24117,806;20,67634
 368,48; 5113,880;  193,114;23831,370;20,81696
 369,07; 5055,237;  180,045;23481,745;20,92204
 369,67; 5042,740;  211,038;23145,589;21,06735
 370,26; 5005,311;  176,584;22904,962;21,24537
 370,85; 4940,630;  189,581;22579,595;21,21950
 371,44; 4979,230;  185,197;22472,583;21,51007
 372,03; 4944,793;  164,425;22167,136;21,72627
 372,63; 4876,838;  157,812;21893,705;21,71075
 373,22; 4885,287;  178,276;21618,236;21,95439
 373,81; 4802,621;  160,581;21348,164;21,90925
 374,40; 4821,082;  189,357;21109,918;22,13958
 374,99; 4827,695;  173,119;20805,236;22,55986
 375,59; 4805,422;  172,818;20548,239;22,73623
 376,18; 4802,241;  201,657;20421,884;22,75238
 376,77; 4817,650;  195,044;20284,216;23,01044
 377,36; 4862,756;  210,812;20218,225;23,25110
 377,95; 4836,078;  197,579;19936,400;23,49937
 378,55; 4829,181;  170,740;19722,664;23,82599
 379,14; 4873,593;  197,196;19652,640;24,03644
 379,73; 4874,384;  190,195;19586,848;24,14947
 380,32; 4948,527;  193,428;19698,446;24,37885
 380,91; 4884,059;  180,730;19479,572;24,37104
 381,50; 5001,282;  201,731;19462,208;24,91917
 382,10; 4962,296;  173,582;19341,830;24,98253
 382,69; 5009,488;  153,196;19281,655;25,38778
 383,28; 5106,989;  205,655;19266,811;25,71373
 383,87; 5090,047;  175,116;19108,719;25,95877
 384,46; 5150,600;  165,112;19057,158;26,38935
 385,05; 5202,734;  219,270;19032,316;26,48941
 385,64; 5210,379;  181,194;19079,829;26,61136
 386,24; 5241,448;  165,265;19008,018;26,93971
 386,83; 5348,424;  200,649;19082,215;27,26350
 387,42; 5422,992;  206,964;19161,969;27,51795
 388,01; 5550,050;  193,645;19331,088;27,98913
 388,60; 5673,162;  194,266;19613,654;28,21354
 389,19; 5768,175;  170,485;19711,863;28,64532
 389,78; 5888,820;  180,564;20001,915;28,79852
 390,37; 6116,012;  238,340;20408,716;29,14012
 390,96; 6189,306;  193,188;20570,771;29,42507
 391,56; 6280,544;  191,407;20731,732;29,64480
 392,15; 6398,236;  188,103;21012,597;29,82129
 392,74; 6499,885;  164,630;21139,528;30,20398
 393,33; 6678,194;  186,714;21382,297;30,62657
 393,92; 6883,305;  192,780;21783,988;30,98727
 394,51; 6943,282;  170,175;21988,050;31,04384
 395,10; 7134,757;  212,461;22189,538;31,49780
 395,69; 7195,803;  206,155;22317,361;31,61133
 396,28; 7344,247;  205,150;22429,043;32,12352
 396,87; 7401,019;  208,293;22506,720;32,25665
 397,46; 7520,190;  212,979;22584,582;32,66289
 398,06; 7678,777;  224,355;22908,699;32,86153
 398,65; 7702,431;  211,721;22862,365;33,07063
 399,24; 7823,197;  227,025;23077,241;33,24333
 399,83; 7877,881;  208,688;23078,877;33,53358
 400,42; 8052,851;  248,124;23183,898;34,02862
 401,01; 8113,646;  221,325;23296,255;34,20301
 401,60; 8166,477;  244,208;23371,456;34,25513
 402,19; 8247,711;  257,022;23296,956;34,68191
 402,78; 8334,519;  257,588;23374,469;34,93954
 403,37; 8335,357;  233,156;23158,178;35,34217
 403,96; 8331,021;  244,024;23048,728;35,46197
 404,55; 8356,354;  262,271;22963,326;35,65510
 405,14; 8368,627;  238,215;22846,319;35,96238
 405,73; 8395,305;  260,611;22788,222;36,10988
 406,32; 8448,295;  259,029;22622,115;36,61957
 406,91; 8381,486;  257,594;22411,638;36,67002
 407,50; 8436,591;  264,260;22245,873;37,17803
 408,09; 8356,460;  226,473;21951,682;37,42191
 408,68; 8382,147;  254,536;21879,207;37,58490
 409,27; 8336,193;  246,476;21712,453;37,68623
 409,86; 8375,427;  256,439;21553,202;38,12311
 410,45; 8403,185;  293,934;21550,876;38,14872
 411,04; 8433,840;  292,352;21485,723;38,41526
 411,63; 8372,193;  286,935;21190,695;38,67849
 412,22; 8350,642;  280,668;20981,662;38,98351
 412,81; 8298,823;  302,989;20780,234;39,04741
 413,40; 8215,061;  310,469;20416,348;39,31483
 413,99; 8176,177;  342,848;20183,307;39,48159
 414,58; 7971,950;  277,159;19746,662;39,52228
 415,17; 7961,091;  279,605;19575,189;39,80956
 415,76; 7908,884;  270,666;19419,040;39,88964
 416,35; 7915,828;  276,443;19110,200;40,56219
 416,94; 7981,071;  310,670;19268,010;40,46138
 417,53; 8064,323;  280,221;19408,256;40,69473
 418,12; 8139,173;  269,533;19521,995;40,87602
 418,71; 8329,038;  298,316;19861,765;41,04962
 419,30; 8393,461;  287,073;20065,109;40,98682
 419,89; 8490,121;  272,460;20163,447;41,31349
 420,48; 8652,008;  294,085;20362,535;41,64708
 421,07; 8671,486;  290,165;20498,503;41,47457
 421,66; 8693,783;  266,558;20466,188;41,71970
 422,25; 8738,625;  271,189;20540,583;41,77449
 422,84; 8809,390;  299,962;20440,598;42,25005
 423,43; 8664,717;  287,647;20178,320;42,11557
 424,02; 8594,503;  302,727;19996,442;42,10367
 424,60; 8423,658;  280,439;19584,206;42,18461
 425,19; 8366,698;  296,044;19327,453;42,40702
 425,78; 8349,883;  293,661;19228,750;42,54653
 426,37; 8269,095;  300,437;19061,951;42,47343
 426,96; 8268,055;  276,206;18925,136;42,85420
 427,55; 8198,403;  275,294;18888,508;42,56712
 428,14; 8137,687;  267,837;18586,022;42,96195
 428,73; 8029,259;  288,366;18469,381;42,57679
 429,32; 8068,746;  285,513;18413,992;42,93374
 429,91; 8106,160;  320,982;18460,799;42,91762
 430,50; 8043,188;  300,065;18279,640;43,06622
 431,08; 7984,659;  307,455;18121,157;43,09719
 431,67; 8014,431;  330,460;18059,181;43,34194
 432,26; 7936,734;  352,773;17866,633;43,30262
 432,85; 7826,110;  372,079;17525,688;43,45459
 433,44; 7682,818;  388,471;17227,983;43,31686
 434,03; 7540,489;  402,711;16826,982;43,45872
 434,62; 7340,112;  359,087;16459,216;43,36006
 435,21; 7289,181;  365,618;16298,030;43,45583
 435,79; 7206,246;  376,323;16109,888;43,40989
 436,38; 7161,005;  368,410;15986,717;43,49124
 436,97; 7164,120;  351,796;15943,277;43,69261
 437,56; 7063,577;  366,118;15775,296;43,46409
 438,15; 7032,776;  330,960;15658,418;43,72425
 438,74; 6983,073;  358,116;15673,578;43,25666
 439,33; 7007,731;  334,421;15641,739;43,59555
 439,91; 7014,926;  308,120;15728,245;43,49385
 440,50; 7046,864;  353,275;15720,771;43,55679
 441,09; 7088,633;  352,437;15858,362;43,44272
 441,68; 7052,026;  330,291;15871,755;43,25033
 442,27; 7044,349;  309,595;15870,416;43,28020
 442,86; 7064,664;  286,691;15851,837;43,54584
 443,44; 7057,343;  306,610;15894,282;43,30816
 444,03; 7145,142;  376,999;16005,300;43,30697
 444,62; 6993,671;  300,075;15815,177;43,14245
 445,21; 6970,571;  324,227;15685,782;43,26609
 445,80; 6920,030;  356,622;15621,797;42,99596
 446,39; 6827,360;  367,697;15356,081;43,09779
 446,97; 6716,300;  300,708;15192,640;43,08099
 447,56; 6578,356;  305,024;14946,971;42,84493
 448,15; 6547,715;  323,939;14810,409;42,96268
 448,74; 6410,524;  331,940;14558,368;42,72741
 449,33; 6338,194;  323,946;14452,718;42,56738
 449,91; 6270,308;  318,033;14243,239;42,74461
 450,50; 6118,957;  307,954;13988,738;42,47566
 451,09; 6142,025;  335,493;13900,297;42,80587
 451,68; 6044,814;  356,497;13844,731;42,17244
 452,26; 6050,679;  340,040;13735,304;42,63177
 452,85; 5959,399;  319,499;13610,323;42,43454
 453,44; 5965,019;  341,974;13683,567;42,14673
 454,03; 5890,697;  314,351;13625,594;41,89201
 454,61; 5863,330;  311,590;13609,495;41,74898
 455,20; 5968,982;  338,979;13743,391;42,00112
 455,79; 5956,229;  348,740;13741,725;41,86885
 456,38; 5997,019;  342,063;13817,793;41,96400
 456,97; 5977,390;  330,061;13863,829;41,72769
 457,55; 5966,110;  329,759;13876,516;41,60665
 458,14; 5962,873;  356,290;13890,729;41,42457
 458,73; 5895,421;  341,529;13835,213;41,15920
 459,31; 5917,442;  366,306;13850,064;41,16906
 459,90; 5922,031;  383,302;13974,214;40,75318
 460,49; 5966,865;  420,299;14008,495;40,81900
 461,08; 5907,521;  340,310;14107,021;40,43966
 461,66; 5986,426;  341,306;14143,370;40,90055
 462,25; 5972,351;  349,006;14205,437;40,58293
 462,84; 6024,832;  376,465;14250,179;40,71272
 463,43; 5925,896;  301,938;14247,046;40,32925
 464,01; 5933,792;  339,172;14309,864;40,04540
 464,60; 5930,821;  396,704;14200,171;40,09222
 465,19; 5792,920;  339,251;13997,782;39,92866
 465,77; 5739,861;  340,871;13977,125;39,59291
 466,36; 5734,674;  371,245;13839,631;39,82236
 466,95; 5552,244;  353,477;13528,774;39,45844
 467,53; 5472,634;  350,645;13289,085;39,58738
 468,12; 5309,482;  372,646;13030,152;39,00322
 468,71; 5213,634;  349,714;12788,109;39,10408
 469,29; 5100,993;  337,032;12597,465;38,85639
 469,88; 5019,815;  341,805;12287,066;39,16206
 470,47; 5043,600;  410,505;12431,822;38,54066
 471,06; 4954,549;  365,120;12397,793;38,14139
 471,64; 5002,006;  375,118;12462,030;38,28015
 472,23; 4985,528;  332,518;12524,681;38,16394
 472,81; 4980,519;  330,972;12651,188;37,73917
 473,40; 5079,218;  343,056;12714,206;38,28393
 473,99; 5167,314;  441,364;12943,375;37,80151
 474,57; 5113,654;  349,979;13036,466;37,54920
 475,16; 5155,681;  370,204;13165,595;37,40001
 475,75; 5219,990;  376,600;13294,845;37,49263
 476,33; 5234,410;  383,837;13411,872;37,23181
 476,92; 5245,093;  386,288;13452,566;37,18584
 477,51; 5241,429;  371,757;13544,460;36,96790
 478,09; 5243,851;  368,526;13511,952;37,09325
 478,68; 5199,517;  375,529;13454,486;36,88358
 479,27; 5231,622;  407,139;13495,077;36,86205
 479,85; 5182,731;  381,605;13495,561;36,61081
 480,44; 5196,846;  364,993;13660,405;36,34226
 481,02; 5654,599;  382,306;14973,490;36,13341
 481,61; 6385,720;  404,380;16859,203;36,35007
 482,20; 6771,491;  382,844;18027,106;36,20807
 482,78; 7078,334;  415,453;18824,862;36,19280
 483,37; 7256,869;  404,160;19388,819;36,09604
 483,95; 7314,185;  414,546;19540,072;36,07555
 484,54; 7410,717;  429,918;19769,660;36,09562
 485,13; 7286,063;  405,860;19637,609;35,77523
 485,71; 7212,781;  383,088;19561,922;35,61057
 486,30; 7126,280;  414,396;19225,799;35,67987
 486,88; 6976,412;  453,937;18897,130;35,36522
 487,47; 6725,621;  439,784;18158,769;35,47515
 488,05; 6406,130;  423,480;17350,736;35,34330
 488,64; 5950,492;  419,870;16087,163;35,30043
 489,23; 5276,301;  438,174;14340,035;34,80201
 489,81; 4541,298;  428,406;12265,536;34,74569
 490,40; 4301,693;  387,177;11679,649;34,66483
 490,98; 4184,733;  377,333;11388,277;34,57833
 491,57; 4120,661;  389,405;11305,362;34,18167
 492,15; 4051,072;  379,719;11271,497;33,70757
 492,74; 4040,732;  391,249;11185,046;33,81092
 493,32; 4021,679;  401,179;11096,090;33,85255
 493,91; 3948,753;  371,029;10997,172;33,66907
 494,50; 3933,737;  396,040;10987,804;33,40045
 495,08; 3899,375;  367,578;10899,848;33,53311
 495,67; 3893,673;  393,490;10870,398;33,40855
 496,25; 3809,352;  329,188;10741,795;33,42260
 496,84; 3786,397;  352,951;10758,565;32,99610
 497,42; 3770,347;  346,344;10738,589;32,94767
 498,01; 3754,359;  371,414;10640,741;32,94223
 498,59; 3713,427;  337,653;10625,516;32,81317
 499,18; 3663,691;  341,722;10495,159;32,71767
 499,76; 3683,937;  361,958;10446,642;32,94084
 500,35; 3585,420;  344,581;10305,032;32,53707
 500,93; 3541,321;  327,267;10285,849;32,27422
 501,52; 3521,534;  332,883;10186,900;32,35889
 502,10; 3533,044;  357,201;10166,328;32,37641
 502,69; 3438,595;  332,974; 9938,653;32,33110
 503,27; 3374,763;  315,963; 9848,314;32,08862
 503,86; 3317,962;  333,818; 9763,892;31,64497
 504,44; 3273,630;  317,822; 9600,262;31,84301
 505,03; 3167,716;  297,206; 9442,846;31,38665
 505,61; 3146,409;  323,205; 9319,101;31,38325
 506,19; 3097,401;  353,052; 9155,045;31,17872
 506,78; 3024,250;  304,906; 8972,804;31,37258
 507,36; 2954,258;  317,744; 8825,028;30,99126
 507,95; 2922,360;  315,679; 8697,312;31,09992
 508,53; 2887,963;  315,444; 8551,911;31,23328
 509,12; 2819,513;  330,293; 8424,091;30,75466
 509,70; 2826,288;  337,141; 8297,561;31,26904
 510,29; 2734,723;  342,760; 8155,917;30,61455
 510,87; 2659,252;  312,906; 7973,279;30,62965
 511,46; 2608,134;  299,523; 7826,672;30,67046
 512,04; 2582,173;  312,219; 7675,583;30,82767
 512,62; 2519,787;  315,985; 7551,241;30,45922
 513,21; 2455,211;  298,068; 7394,888;30,39590
 513,79; 2410,867;  304,542; 7274,481;30,22014
 514,38; 2350,204;  278,384; 7111,677;30,31949
 514,96; 2352,709;  328,691; 7037,290;30,17050
 515,54; 2260,450;  293,309; 6884,424;29,84535
 516,13; 2253,819;  316,540; 6833,644;29,72607
 516,71; 2229,467;  308,699; 6687,051;30,11386
 517,30; 2136,879;  285,396; 6596,440;29,33719
 517,88; 2174,410;  311,780; 6533,254;29,93873
 518,46; 2089,818;  281,167; 6366,725;29,72037
 519,05; 2079,236;  310,247; 6315,772;29,45602
 519,63; 2072,777;  301,630; 6284,195;29,60515
 520,22; 2055,341;  318,330; 6201,767;29,52375
 520,80; 1999,519;  306,715; 6200,647;28,72113
 521,38; 2035,481;  338,325; 6179,452;29,05529
 521,97; 1964,322;  302,334; 6099,770;28,66763
 522,55; 1954,832;  319,257; 6071,093;28,43571
 523,13; 1965,063;  281,260; 6101,751;28,92888
 523,72; 1940,964;  296,397; 6063,462;28,51653
 524,30; 1984,646;  310,955; 6224,858;28,30096
 524,89; 1953,192;  285,719; 6213,573;28,12944
 525,47; 2009,492;  315,803; 6325,757;28,18139
 526,05; 1992,793;  278,958; 6353,561;28,21312
 526,64; 2055,720;  316,421; 6509,940;28,08257
 527,22; 2063,752;  310,033; 6629,372;27,75162
 527,80; 2133,147;  341,652; 6780,615;27,82272
 528,39; 2126,165;  301,808; 6769,289;28,20816
 528,97; 2164,089;  299,345; 6970,083;27,95409
 529,55; 2213,159;  317,491; 7159,382;27,70678
 530,14; 2252,046;  338,810; 7344,514;27,30969
 530,72; 2251,511;  298,422; 7454,499;27,29274
 531,30; 2285,301;  278,888; 7545,394;27,61180
 531,89; 2303,205;  310,657; 7640,840;27,18279
 532,47; 2360,365;  338,274; 7729,848;27,35670
 533,05; 2350,648;  343,267; 7796,815;26,93188
 533,63; 2379,772;  332,891; 7857,868;27,20116
 534,22; 2343,954;  304,506; 7869,622;26,95858
 534,80; 2388,033;  328,588; 7970,261;26,95018
 535,38; 2469,045;  410,504; 8060,182;26,91016
 535,97; 2385,652;  323,198; 8016,588;26,80814
 536,55; 2433,143;  368,974; 8064,957;26,82139
 537,13; 2374,727;  373,810; 8034,684;26,11864
 537,71; 2427,780;  417,348; 8098,650;26,17306
 538,30; 2445,123;  430,431; 8181,139;25,99365
 538,88; 2483,904;  465,362; 8229,021;25,99988
 539,46; 2566,159;  506,050; 8422,968;26,02160
 540,05; 2566,224;  525,283; 8532,797;25,48782
 540,63; 2634,828;  571,745; 8710,352;25,34934
 541,21; 2668,787;  617,364; 8894,721;24,78355
 541,79; 2721,922;  626,210; 9006,166;25,00863
 542,38; 2765,893;  656,437; 9154,071;24,82404
 542,96; 2803,229;  673,291; 9277,109;24,75573
 543,54; 2848,003;  681,055; 9495,579;24,58383
 544,12; 2838,858;  650,903; 9687,525;24,21209
 544,70; 2851,726;  649,214; 9723,665;24,27157
 545,29; 2920,247;  661,052; 9906,533;24,43567
 545,87; 2900,614;  639,902; 9891,628;24,43557
 546,45; 2886,424;  584,052; 9943,577;24,59924
 547,03; 2871,799;  577,285; 9993,574;24,36750
 547,62; 2882,226;  551,441;10139,292;24,30977
 548,20; 2930,984;  553,444;10248,429;24,52340
 548,78; 2966,574;  521,916;10419,246;24,70017
 549,36; 2969,312;  482,684;10605,949;24,56349
 549,94; 2978,197;  446,673;10779,283;24,50033
 550,53; 3041,641;  442,298;10983,233;24,65951
 551,11; 3033,242;  426,534;11153,871;24,29968
 551,69; 3116,006;  445,376;11457,040;24,25274
 552,27; 3139,436;  393,296;11683,084;24,32411
 552,85; 3246,051;  399,918;12082,685;24,36180
 553,44; 3285,728;  399,145;12322,039;24,21042
 554,02; 3369,553;  410,224;12702,216;24,07526
 554,60; 3403,564;  360,611;12983,243;24,10712
 555,18; 3508,447;  398,377;13365,010;23,98518
 555,76; 3565,331;  365,609;13720,647;23,95892
 556,34; 3654,566;  378,230;14113,353;23,85370
 556,93; 3725,079;  370,454;14482,627;23,77114
 557,51; 3786,622;  350,077;14769,016;23,83355
 558,09; 3903,051;  382,300;15199,180;23,76175
 558,67; 3959,984;  375,465;15515,784;23,67532
 559,25; 4044,497;  390,386;15819,991;23,68247
 559,83; 4094,879;  365,467;16095,458;23,70892
 560,41; 4159,767;  368,768;16443,224;23,58400
 561,00; 4230,387;  367,234;16785,108;23,53017
 561,58; 4292,827;  344,767;17004,453;23,69829
 562,16; 4335,886;  347,534;17336,702;23,47585
 562,74; 4396,042;  347,378;17721,201;23,30324
 563,32; 4491,611;  347,775;18125,965;23,30854
 563,90; 4560,839;  361,234;18462,138;23,20108
 564,48; 4665,507;  365,305;18914,710;23,18243
 565,06; 4788,825;  365,772;19433,227;23,19687
 565,65; 4924,758;  363,088;20044,403;23,17767
 566,23; 5087,184;  410,542;20815,016;22,91969
 566,81; 5208,383;  353,232;21434,806;23,03031
 567,39; 5433,495;  363,315;22300,678;23,11208
 567,97; 5547,540;  385,694;22920,733;22,90586
 568,55; 5747,228;  388,621;23740,671;22,94705
 569,13; 5869,164;  364,696;24467,832;22,83714
 569,71; 6060,771;  359,610;25327,132;22,83431
 570,29; 6307,724;  396,608;26245,011;22,86840
 570,87; 6389,903;  396,840;26985,343;22,54005
 571,45; 6558,678;  377,926;27601,029;22,70407
 572,03; 6549,545;  343,239;27961,222;22,47198
 572,61; 6711,335;  334,236;28658,824;22,51436
 573,20; 6873,004;  385,616;29390,848;22,36627
 573,78; 7020,928;  367,006;29875,934;22,54884
 574,36; 7086,043;  373,312;30441,759;22,32483
 574,94; 7238,749;  435,086;30797,227;22,40838
 575,52; 7181,058;  378,016;31008,304;22,21018
 576,10; 7363,231;  432,859;31624,738;22,21851
 576,68; 7439,979;  417,700;32064,698;22,18940
 577,26; 7534,462;  439,173;32824,747;21,90880
 577,84; 7689,165;  435,082;33311,515;22,06469
 578,42; 7742,746;  473,857;33478,651;22,02374
 579,00; 7678,399;  436,775;33635,442;21,81300
 579,58; 7699,642;  469,932;33937,228;21,60231
 580,16; 7659,922;  456,089;33933,363;21,51858
 580,74; 7735,361;  449,474;34083,319;21,66237
 581,32; 7668,309;  440,779;34167,862;21,42945
 581,90; 7652,875;  464,781;34101,747;21,36963
 582,48; 7663,239;  455,012;34282,332;21,30889
 583,06; 7651,169;  455,856;34362,937;21,22068
 583,64; 7667,423;  454,471;34531,442;21,16665
 584,22; 7558,386;  456,171;34396,463;20,92561
 584,80; 7484,725;  481,857;34079,390;20,84340
 585,38; 7390,866;  479,538;33694,321;20,80799
 585,96; 7346,959;  448,161;33857,462;20,64933
 586,54; 7350,779;  469,478;33797,750;20,64704
 587,12; 7332,017;  449,398;34103,124;20,45128
 587,70; 7303,090;  476,238;34127,726;20,28692
 588,28; 7288,902;  458,244;34244,785;20,21710
 588,86; 7275,402;  462,169;34299,191;20,13544
 589,44; 7242,863;  442,022;34369,330;20,04533
 590,02; 7261,405;  447,020;34636,214;19,93140
 590,59; 7282,347;  429,477;34723,288;19,98282
 591,17; 7289,709;  426,029;35011,854;19,84536
 591,75; 7228,469;  422,101;35141,481;19,60394
 592,33; 7292,666;  444,407;35301,180;19,64685
 592,91; 7293,577;  385,181;35532,062;19,65579
 593,49; 7305,496;  390,569;35894,385;19,47657
 594,07; 7294,833;  415,030;36051,230;19,30566
 594,65; 7354,092;  419,478;36152,307;19,40684
 595,23; 7322,647;  409,558;36498,582;19,15565
 595,81; 7360,231;  407,252;36607,944;19,20676
 596,39; 7351,651;  398,945;36722,423;19,14108
 596,97; 7356,635;  397,027;36945,738;19,04201
 597,55; 7311,291;  380,480;36785,822;19,03790
 598,12; 7313,388;  392,801;36843,285;18,98627
 598,70; 7251,116;  377,413;36958,283;18,79043
 599,28; 7307,836;  393,182;37213,576;18,77941
 599,86; 7288,869;  380,797;37142,896;18,79129
 600,44; 7245,183;  347,645;37263,443;18,68451
 601,02; 7277,866;  410,961;37241,988;18,64435
 601,60; 7189,131;  387,409;37168,790;18,49230
 602,18; 7171,121;  361,493;37299,344;18,43537
 602,75; 7149,639;  359,559;37367,219;18,34777
 603,33; 7130,163;  377,951;37360,591;18,25779
 603,91; 7027,099;  361,573;37324,497;18,03300
 604,49; 7081,632;  386,490;37421,470;18,07789
 605,07; 7020,893;  387,870;37436,834;17,90340
 605,65; 7007,533;  397,030;37586,878;17,77502
 606,23; 7023,141;  457,246;37731,038;17,61531
 606,80; 7010,543;  498,175;37784,818;17,46569
 607,38; 6937,520;  531,418;37725,308;17,22353
 607,96; 6974,419;  575,328;37784,125;17,19779
 608,54; 6988,668;  649,646;37914,093;17,01091
 609,12; 6967,956;  630,406;37903,880;17,00284
 609,70; 6953,871;  660,566;38026,295;16,84245
 610,27; 6973,020;  682,020;38081,214;16,82122
 610,85; 6922,008;  702,489;38111,217;16,62585
 611,43; 6900,491;  688,720;38030,852;16,63475
 612,01; 6810,552;  662,254;37782,215;16,56332
 612,59; 6806,400;  667,258;37907,018;16,48545
 613,16; 6740,174;  620,863;37815,017;16,45234
 613,74; 6736,037;  589,336;37665,576;16,57854
 614,32; 6672,205;  559,569;37691,925;16,46175
 614,90; 6598,664;  529,102;37567,978;16,38700
 615,48; 6517,916;  482,018;37205,946;16,43587
 616,05; 6458,506;  448,093;37231,614;16,33996
 616,63; 6388,481;  445,630;37017,359;16,24985
 617,21; 6342,088;  452,174;36928,245;16,14734
 617,79; 6305,304;  431,945;36883,378;16,11283
 618,36; 6232,413;  443,332;36837,895;15,90645
 618,94; 6110,690;  381,250;36430,579;15,89333
 619,52; 6100,985;  405,554;36255,639;15,88680
 620,10; 6015,695;  391,944;36205,497;15,70286
 620,67; 5980,279;  395,630;36085,806;15,64758
 621,25; 5952,353;  413,794;35996,666;15,56524
 621,83; 5875,238;  393,481;35913,241;15,43298
 622,41; 5862,068;  443,096;35948,624;15,26233
 622,98; 5820,896;  398,553;35616,127;15,39670
 623,56; 5787,988;  406,860;35652,446;15,26753
 624,14; 5722,830;  388,334;35464,029;15,20853
 624,72; 5693,662;  383,634;35382,209;15,17213
 625,29; 5675,093;  375,091;35419,278;15,12377
 625,87; 5692,015;  404,484;35448,009;15,08847
 626,45; 5602,862;  358,474;35305,518;15,00667
 627,02; 5539,598;  376,638;35172,688;14,83778
 627,60; 5484,290;  365,953;35208,750;14,68980
 628,18; 5482,956;  336,406;35183,034;14,76915
 628,76; 5455,950;  343,630;35152,622;14,68678
 629,33; 5433,740;  377,787;35141,849;14,54362
 629,91; 5407,541;  360,329;35171,958;14,49864
 630,49; 5398,229;  375,401;35215,998;14,41660
 631,06; 5404,244;  374,785;35425,240;14,34920
 631,64; 5366,223;  362,321;35408,705;14,27794
 632,22; 5314,088;  332,395;35337,755;14,23123
 632,79; 5376,808;  357,395;35576,586;14,25193
 633,37; 5347,455;  343,793;35634,186;14,17854
 633,95; 5334,027;  348,089;35788,117;14,06866
 634,52; 5316,308;  335,557;35793,285;14,04701
 635,10; 5329,449;  331,174;35839,663;14,07628
 635,68; 5325,405;  337,703;36062,263;13,96155
 636,25; 5306,481;  323,237;35952,922;13,98621
 636,83; 5265,719;  314,784;36204,083;13,79502
 637,41; 5276,817;  339,240;36289,950;13,73430
 637,98; 5262,320;  345,009;36452,163;13,61866
 638,56; 5300,759;  340,005;36522,485;13,71038
 639,13; 5256,043;  318,860;36600,787;13,60783
 639,71; 5286,291;  363,554;36768,087;13,52232
 640,29; 5171,528;  288,554;36497,658;13,48549
 640,86; 5187,583;  312,093;36735,158;13,38572
 641,44; 5160,791;  313,478;36666,581;13,33397
 642,02; 5140,922;  344,939;36703,158;13,19092
 642,59; 5115,131;  316,555;36858,197;13,13180
 643,17; 5128,877;  318,863;36784,774;13,19044
 643,74; 5115,547;  307,786;36875,121;13,14769
 644,32; 5103,217;  335,248;36776,006;13,08417
 644,89; 5060,656;  329,633;36777,275;12,98033
 645,47; 5046,865;  340,479;36918,852;12,86658
 646,05; 5018,304;  337,787;36779,199;12,84395
 646,62; 4982,281;  322,326;36798,930;12,77519
 647,20; 4979,643;  333,403;36934,507;12,69426
 647,77; 4919,313;  306,018;36822,392;12,63350
 648,35; 4912,367;  310,711;36681,738;12,65198
 648,92; 4896,960;  327,557;36769,469;12,53887
 649,50; 4845,861;  287,327;36593,124;12,55594
 650,08; 4811,608;  298,173;36527,470;12,45797
 650,65; 4810,278;  301,481;36760,893;12,36662
 651,23; 4864,486;  294,789;37478,009;12,28968
 651,80; 4997,771;  282,097;38426,279;12,36276
 652,38; 5023,133;  297,943;38764,010;12,28405
 652,95; 4980,111;  282,251;39119,125;12,09639
 653,53; 5027,627;  318,021;39376,395;12,05787
 654,10; 5035,758;  339,328;39472,357;12,00119
 654,68; 5001,889;  289,021;39460,626;12,03134
 655,25; 4984,867;  285,867;39602,434;11,95170
 655,83; 4977,768;  284,637;39603,857;11,93597
 656,40; 4964,360;  318,252;39534,204;11,84750
 656,98; 4892,800;  288,714;39457,089;11,75460
 657,55; 4885,931;  299,253;39281,589;11,76604
 658,13; 4825,062;  294,407;39005,397;11,70380
 658,70; 4762,886;  310,869;38751,436;11,58156
 659,28; 4641,479;  314,253;37982,782;11,48764
 659,85; 4524,379;  305,254;37119,206;11,46067
 660,43; 4523,588;  321,177;37207,629;11,39283
 661,00; 4513,950;  304,100;37314,591;11,37475
 661,58; 4524,158;  300,639;37590,860;11,32608
 662,15; 4536,982;  281,024;37801,361;11,34307
 662,73; 4652,344;  346,409;38066,938;11,41536
 663,30; 4588,937;  300,409;38285,515;11,29003
 663,88; 4587,376;  315,178;38452,169;11,20224
 664,45; 4616,815;  290,717;38705,285;11,26161
 665,03; 4600,793;  296,333;38921,093;11,14430
 665,60; 4716,078;  372,563;39514,747;11,09676
 666,17; 4656,517;  304,718;39569,709;11,08315
 666,75; 4697,648;  301,564;39834,209;11,12014
 667,32; 4756,856;  321,718;40222,863;11,11532
 667,90; 4773,142;  297,872;40553,979;11,11700
 668,47; 4788,888;  316,257;40718,941;11,07013
 669,05; 4801,251;  299,719;41088,210;11,03628
 669,62; 4754,767;  274,565;41105,710;10,97251
 670,19; 4759,975;  287,411;41229,826;10,92403
 670,77; 4775,952;  293,719;41441,249;10,89308
 671,34; 4761,699;  301,258;41367,134;10,86167
 671,92; 4764,446;  281,643;41697,327;10,82393
 672,49; 4784,885;  309,643;41711,443;10,80929
 673,06; 4700,939;  256,643;41810,404;10,69529
 673,64; 4721,840;  287,720;41795,982;10,68250
 674,21; 4687,202;  279,721;41652,251;10,65316
 674,79; 4747,795;  305,567;41889,982;10,68244
 675,36; 4765,311;  307,106;42048,405;10,68056
 675,93; 4676,827;  269,798;41923,290;10,58021
 676,51; 4722,189;  296,337;42038,791;10,60276
 677,08; 4713,551;  300,029;42205,676;10,53205
 677,65; 4690,683;  300,876;42223,945;10,47110
 678,23; 4734,968;  299,722;42528,138;10,50299
 678,80; 4693,099;  287,261;42656,253;10,39873
 679,38; 4736,923;  284,030;42765,984;10,48185
 679,95; 4749,824;  303,184;42939,100;10,42933
 680,52; 4753,416;  285,338;43307,216;10,38560
 681,10; 4801,471;  299,338;43558,870;10,40726
 681,67; 4803,756;  298,493;43842,832;10,34638
 682,24; 4801,195;  268,570;43972,563;10,37119
 682,82; 4853,173;  280,108;44494,448;10,34294
 683,39; 4934,381;  326,186;44959,179;10,32464
 683,96; 4895,897;  289,032;45091,371;10,28264
 684,54; 4892,567;  276,109;45456,641;10,21780
 685,11; 4976,314;  309,340;45702,833;10,28115
 685,68; 4994,214;  286,186;46266,487;10,23923
 686,25; 4986,115;  269,033;46346,142;10,23737
 686,83; 4994,169;  281,187;46473,950;10,20286
 687,40; 4984,147;  273,418;46719,296;10,14240
 687,97; 5070,355;  297,110;47163,489;10,18480
 688,55; 5040,102;  260,264;47251,297;10,17181
 689,12; 5023,695;  244,188;47453,335;10,12411
 689,69; 5063,595;  250,342;47563,451;10,17319
 690,26; 5040,957;  267,880;47710,336;10,06077
 690,84; 5075,627;  276,958;47853,298;10,08625
 691,41; 5099,066;  288,496;48013,567;10,07975
 691,98; 5105,813;  295,189;48194,683;10,04316
 692,56; 5117,867;  278,881;48329,260;10,07065
 693,13; 5152,922;  328,728;48309,991;10,05433
 693,70; 5154,899;  300,574;48497,568;10,07184
 694,27; 5148,800;  272,728;48602,222;10,08923
 694,84; 5130,701;  274,344;48711,184;10,02616
 695,42; 5210,524;  331,728;48858,454;10,05383
 695,99; 5145,502;  292,190;49050,723; 9,95377
 696,56; 5160,710;  285,575;48886,531;10,03094
 697,13; 5210,380;  302,960;49344,339;10,00669
 697,71; 5183,742;  269,806;49297,147;10,02285
 698,28; 5224,027;  279,345;49636,724;10,01812
 698,85; 5214,697;  255,422;49652,917;10,03953
 699,42; 5224,444;  259,884;49787,879;10,02375
 699,99; 5266,421;  299,115;49910,456;10,01244
 700,57; 5254,322;  294,269;50012,802; 9,97627
 701,14; 5274,223;  271,423;50102,610;10,03950
 701,71; 5287,892;  310,808;50372,803; 9,94184
 702,28; 5245,178;  286,193;50343,765; 9,90656
 702,85; 5306,540;  287,193;50442,034;10,00770
 703,43; 5342,748;  305,116;50729,842; 9,99040
 704,00; 5352,495;  323,270;50879,650; 9,94775
 704,57; 5323,934;  295,193;50869,381; 9,94329
 705,14; 5363,834;  320,578;51078,189; 9,93596
 705,71; 5394,735;  325,348;51209,536; 9,96260
 706,28; 5338,790;  297,425;51085,036; 9,92637
 706,86; 5399,152;  334,810;51220,152; 9,95246
 707,43; 5390,514;  349,502;51187,113; 9,91591
 708,00; 5395,337;  322,272;51296,614; 9,95219
 708,57; 5362,777;  303,964;51216,191; 9,93634
 709,14; 5419,831;  323,118;51342,845; 9,98969
 709,71; 5431,116;  303,426;51511,961;10,01335
 710,28; 5431,555;  294,888;51644,769;10,00327
 710,86; 5457,764;  311,196;51785,884; 9,99825
 711,43; 5513,895;  324,196;51754,539;10,09073
 712,00; 5475,872;  315,504;51848,654;10,01369
 712,57; 5503,465;  311,350;52033,308;10,03851
 713,14; 5534,597;  300,735;52068,655;10,11024
 713,71; 5511,882;  311,428;52110,540;10,03966
 714,28; 5508,552;  294,043;52009,194;10,08314
 714,85; 5464,914;  282,428;51853,925;10,04913
 715,42; 5521,199;  290,121;52085,887;10,09943
 716,00; 5586,407;  358,659;52233,310;10,07765
 716,57; 5514,000;  290,044;52298,579;10,04442
 717,14; 5529,978;  278,967;52131,541;10,12681
 717,71; 5530,494;  261,045;52118,965;10,16132
 718,28; 5581,394;  308,429;52350,926;10,13204
 718,85; 5550,064;  262,891;52374,504;10,14586
 719,42; 5621,503;  289,661;52479,081;10,21633
 719,99; 5564,635;  269,122;52273,735;10,18277
 720,56; 5618,689;  299,353;52573,851;10,17578
 721,13; 5628,744;  271,661;52641,043;10,22942
 721,70; 5636,798;  261,969;52528,851;10,28343
 722,27; 5622,699;  285,969;52482,890;10,22422
 722,84; 5705,291;  332,354;52699,775;10,26008
 723,41; 5659,269;  267,662;52779,891;10,26734
 723,98; 5675,247;  282,970;52943,391;10,23971
 724,55; 5752,686;  312,509;52994,814;10,32638
 725,12; 5675,817;  239,124;52916,776;10,32068
 725,69; 5757,025;  274,586;53109,584;10,37653
 726,27; 5729,157;  278,586;53314,700;10,27709
 726,84; 5780,442;  291,817;53571,892;10,30146
 727,41; 5831,727;  292,048;53460,008;10,41921
 727,98; 5833,397;  301,202;53736,508;10,35307
 728,55; 5847,221;  322,202;53596,470;10,37089
 729,12; 5832,813;  271,664;53726,816;10,40339
 729,69; 5902,560;  304,741;53872,086;10,45006
 730,26; 5920,999;  303,665;54140,048;10,43409
 730,82; 5908,208;  291,203;54027,163;10,45297
 731,39; 5927,108;  297,204;54132,971;10,45755
 731,96; 5993,009;  271,434;54460,395;10,55856
 732,53; 6039,602;  293,204;54703,357;10,56126
 733,10; 6041,041;  303,281;54686,011;10,55070
 733,67; 6061,249;  296,358;54987,973;10,54072
 734,24; 6024,842;  282,743;54595,704;10,57224
 734,81; 6095,050;  323,897;54758,819;10,60193
 735,38; 6033,797;  284,436;54541,550;10,59651
 735,95; 6062,236;  291,282;54325,974;10,68009
 736,52; 6105,752;  307,975;54542,320;10,69023
 737,09; 6111,730;  300,052;54205,128;10,78132
 737,66; 6182,630;  338,283;54294,628;10,83162
 738,23; 6171,300;  283,206;54435,282;10,87326
 738,80; 6264,970;  347,206;54783,244;10,87104
 739,37; 6262,101;  307,360;54988,283;10,88998
 739,94; 6311,309;  291,361;54960,783;11,01155
 740,51; 6407,672;  398,822;54989,976;11,00700
 741,07; 6312,111;  287,669;55001,784;11,01076
 741,64; 6390,165;  305,361;55283,207;11,06774
 742,21; 6390,758;  287,438;55298,861;11,09464
 742,78; 6370,505;  265,515;55003,439;11,15313
 743,35; 6386,021;  296,054;55360,631;11,05968
 743,92; 6507,691;  321,439;55485,901;11,21420
 744,49; 6517,360;  315,978;55347,324;11,26882
 745,06; 6483,569;  283,747;55364,517;11,25587
 745,63; 6514,162;  276,132;55307,940;11,33532
 746,19; 6563,139;  284,978;55291,671;11,41345
 746,76; 6538,194;  295,440;55333,787;11,34255
 747,33; 6622,556;  284,671;55331,287;11,51367
 747,90; 6666,687;  304,287;55570,172;11,51235
 748,47; 6644,203;  292,595;55467,287;11,51181
 749,04; 6692,181;  314,133;55417,095;11,57478
 749,61; 6756,850;  324,903;55368,827;11,68512
 750,17; 6692,136;  311,672;55477,865;11,56589
 750,74; 6711,190;  301,749;55411,981;11,63022
 751,31; 6707,860;  267,826;55307,404;11,70073
 751,88; 6722,760;  266,980;55142,289;11,76445
 752,45; 6803,969;  287,750;55391,174;11,82543
 753,02; 6759,639;  298,442;55082,674;11,79390
 753,58; 6771,001;  276,981;55049,098;11,85643
 754,15; 6809,286;  283,751;55229,829;11,87625
 754,72; 6780,340;  282,828;54954,406;11,88463
 755,29; 6789,395;  267,597;54789,445;11,96181
 755,86; 6832,757;  284,597;54987,330;11,97044
 756,42; 6872,042;  286,828;54919,830;12,05355
 756,99; 6829,558;  251,136;54833,253;12,05234
 757,56; 6844,613;  270,060;54787,677;12,05950
 758,13; 6895,282;  211,367;54778,869;12,24889
 758,70; 6932,798;  238,598;54822,677;12,26402
 759,26; 6960,468;  228,060;54837,562;12,32827
 759,83; 6995,830;  239,060;54939,293;12,35236
 760,40; 6967,654;  226,753;54823,793;12,34664
 760,97; 6982,324;  217,830;54841,678;12,38377
 761,53; 6942,455;  200,446;54453,948;12,42687
 762,10; 6924,894;  212,984;54440,756;12,37726
 762,67; 7045,487;  244,523;54427,102;12,55194
 763,24; 6939,234;  202,292;54032,295;12,51522
 763,80; 7003,904;  238,677;54121,334;12,55548
 764,37; 7006,343;  240,139;54150,218;12,55091
 764,94; 6944,859;  216,524;53655,411;12,59071
 765,50; 6988,067;  229,447;53698,681;12,64020
 766,07; 7033,968;  273,909;53765,258;12,63767
 766,64; 6998,176;  237,909;53484,912;12,69605
 767,21; 6982,846;  249,525;53336,874;12,68348
 767,77; 7044,439;  272,371;53316,989;12,76674
 768,34; 7048,493;  278,294;53213,182;12,78967
 768,91; 7099,394;  270,371;53061,836;12,93585
 769,47; 7122,525;  263,449;53144,952;12,97065
 770,04; 7142,426;  273,680;52968,529;13,03495
 770,61; 7073,865;  255,988;52776,106;12,98146
 771,18; 7075,765;  248,142;52584,299;13,04571
 771,74; 7165,512;  271,449;52771,953;13,13142
 772,31; 7162,105;  262,527;52573,530;13,18954
 772,88; 7134,006;  234,988;52332,800;13,24243
 773,44; 7108,445;  253,066;52111,300;13,21946
 774,01; 7146,192;  270,373;52206,262;13,23905
 774,58; 7126,707;  249,527;51799,300;13,34085
 775,14; 7184,070;  247,220;51982,955;13,40824
 775,71; 7219,739;  249,605;51886,147;13,49845
 776,27; 7248,948;  309,605;51837,878;13,46706
 776,84; 7323,925;  331,990;51829,917;13,57712
 777,41; 7246,134;  277,836;51661,109;13,56141
 777,97; 7239,496;  251,606;51326,225;13,68173
 778,54; 7292,396;  273,991;51381,572;13,73261
 779,11; 7348,912;  286,837;51416,610;13,81206
 779,67; 7308,890;  251,376;51394,803;13,79946
 780,24; 7376,175;  269,453;51262,457;13,93666
 780,80; 7382,845;  285,068;51128,957;13,95994
 781,37; 7360,976;  275,684;51131,765;13,93205
 781,94; 7376,261;  254,684;50875,035;14,06861
 782,50; 7410,624;  269,607;50789,920;14,13494
 783,07; 7461,216;  292,454;50872,805;14,17302
 783,63; 7429,732;  257,685;50595,997;14,24769
 784,20; 7514,248;  279,685;50630,651;14,36827
 784,77; 7522,072;  267,685;50313,844;14,49539
 785,33; 7481,050;  241,993;50191,806;14,49266
 785,90; 7509,181;  267,686;50231,998;14,49334
 786,46; 7485,774;  278,840;50231,191;14,42762
 787,03; 7487,521;  248,763;49988,460;14,55328
 787,59; 7521,421;  260,840;49854,807;14,64005
 788,16; 7541,245;  281,610;49774,076;14,66816
 788,73; 7525,838;  269,533;49591,192;14,71221
 789,29; 7518,585;  263,302;49230,615;14,81658
 789,86; 7556,254;  282,918;49188,731;14,87213
 790,42; 7550,001;  270,380;49006,693;14,93675
 790,99; 7515,979;  279,611;48804,424;14,91272
 791,55; 7550,187;  258,611;48747,001;15,03778
 792,12; 7577,011;  286,457;48744,194;15,04518
 792,68; 7552,219;  266,611;48385,386;15,14088
 793,25; 7541,504;  275,227;48188,348;15,16553
 793,81; 7583,712;  330,227;47839,233;15,26760
 794,38; 7505,767;  239,458;47655,426;15,32460
 794,94; 7563,206;  249,997;47471,003;15,48719
 795,51; 7541,876;  282,074;47346,272;15,42532
 796,07; 7539,161;  257,536;47077,696;15,55233
 796,64; 7619,369;  295,997;47173,273;15,62244
 797,20; 7591,885;  280,075;46664,312;15,76357
 797,77; 7493,017;  235,921;46331,043;15,74374
 798,33; 7476,225;  269,767;46193,928;15,69208
 798,90; 7524,587;  287,537;46098,505;15,79764
 799,46; 7444,949;  270,229;45575,928;15,83624
 800,03; 7467,696;  273,383;45513,275;15,90259
 800,59; 7527,443;  285,768;45370,390;16,06241
 801,15; 7488,651;  288,230;45134,198;16,05589
 801,72; 7460,167;  270,845;44878,006;16,11697
 802,28; 7459,606;  294,615;44557,122;16,18750
 802,85; 7456,661;  274,307;44399,930;16,27706
 803,41; 7432,100;  263,000;44169,892;16,32796
 803,98; 7405,154;  261,616;43746,777;16,42753
 804,54; 7387,055;  270,154;43444,738;16,48400
 805,11; 7425,263;  287,539;43330,623;16,58274
 805,67; 7406,087;  308,078;43278,200;16,51847
 806,23; 7384,295;  266,001;42761,085;16,75086
 806,80; 7392,426;  288,617;42695,124;16,75170
 807,36; 7396,788;  287,463;42689,394;16,76651
 807,93; 7413,304;  300,848;42473,740;16,86500
 808,49; 7325,666;  249,386;42084,317;16,91476
 809,05; 7349,567;  251,156;41995,356;17,00454
 809,62; 7365,314;  289,002;41842,933;17,02922
 810,18; 7339,830;  281,541;41730,818;17,02874
 810,74; 7288,115;  245,849;41519,780;17,06226
 811,31; 7361,093;  250,618;41268,511;17,33506
 811,87; 7346,378;  259,157;41163,627;17,32627
 812,44; 7379,663;  294,926;41136,204;17,34700
 813,00; 7307,256;  220,004;40883,166;17,42917
 813,56; 7345,233;  274,696;40935,204;17,38920
 814,13; 7388,672;  259,850;40745,474;17,60828
 814,69; 7361,650;  253,235;40594,666;17,62063
 815,25; 7320,474;  236,928;40200,705;17,72492
 815,82; 7343,990;  280,697;40209,436;17,68975
 816,38; 7384,121;  300,005;40000,552;17,84388
 816,94; 7308,099;  251,928;39694,129;17,88990
 817,51; 7306,922;  238,928;39506,322;17,99965
 818,07; 7241,669;  245,775;39250,976;17,93580
 818,63; 7268,800;  273,006;39023,861;18,05327
 819,20; 7323,239;  259,006;38979,823;18,24402
 819,76; 7253,755;  242,391;38565,092;18,29559
 820,32; 7272,271;  295,853;38508,823;18,25668
 820,89; 7250,403;  276,237;38269,323;18,35641
 821,45; 7238,457;  245,930;37985,747;18,52825
 822,01; 7220,204;  270,084;37748,939;18,54411
 822,57; 7240,258;  262,853;37571,747;18,70172
 823,14; 7186,697;  237,854;37367,786;18,71494
 823,70; 7204,290;  235,854;37118,902;18,89333
 824,26; 7186,652;  249,085;36961,325;18,89715
 824,82; 7235,707;  268,854;36806,748;19,06747
 825,39; 7147,300;  246,854;36566,787;18,99906
 825,95; 7189,124;  264,239;36537,211;19,09103
 826,51; 7127,024;  262,547;36125,634;19,14079
 827,08; 7215,232;  306,240;36207,211;19,24458
 827,64; 7173,210;  270,317;36035,481;19,30061
 828,20; 7172,111;  246,471;35772,519;19,49454
 828,76; 7146,550;  269,625;35703,635;19,40770
 829,32; 7148,219;  276,317;35643,289;19,43028
 829,89; 7149,889;  231,241;35524,712;19,60320
 830,45; 7204,251;  258,010;35444,982;19,74095
 831,01; 7164,075;  252,703;35229,790;19,75971
 831,57; 7159,745;  254,011;35069,983;19,83496
 832,14; 7114,184;  246,703;35026,252;19,74574
 832,70; 7136,238;  243,088;34855,522;19,91524
 833,26; 7142,601;  214,704;34669,560;20,10717
 833,82; 7160,809;  252,242;34709,291;20,04979
 834,38; 7163,632;  247,089;34666,407;20,09495
 834,95; 7147,610;  241,473;34489,753;20,16491
 835,51; 7180,972;  209,243;34402,561;20,38916
 836,07; 7208,873;  253,705;34454,908;20,33603
 836,63; 7258,004;  264,013;34434,485;20,46794
 837,19; 7239,905;  247,859;34274,139;20,54896
 837,75; 7133,651;  219,551;33980,563;20,47954
 838,32; 7281,014;  260,167;34076,371;20,76178
 838,88; 7328,837;  262,090;34127,948;20,86688
 839,44; 7291,507;  255,783;34055,756;20,81577
 840,00; 7291,562;  252,014;33936,179;20,89869
 840,56; 7271,385;  239,860;33756,295;20,97933
 841,12; 7293,517;  235,476;33652,410;21,12115
 841,68; 7271,263;  226,091;33490,526;21,17929
 842,25; 7304,395;  231,322;33469,488;21,27997
 842,81; 7260,834;  231,246;33316,142;21,24712
 843,37; 7308,888;  214,938;33260,950;21,46689
 843,93; 7290,327;  237,938;33145,219;21,43109
 844,49; 7372,920;  247,400;33174,566;21,64025
 845,05; 7286,128;  210,170;33065,912;21,53644
 845,61; 7338,414;  248,170;33106,643;21,57813
 846,17; 7343,468;  235,785;32907,298;21,75499
 846,73; 7340,600;  241,940;32803,721;21,80059
 847,29; 7320,423;  217,324;32683,913;21,87818
 847,86; 7345,631;  235,248;32657,260;21,93073
 848,42; 7336,147;  221,017;32423,376;22,09506
 848,98; 7354,433;  249,402;32411,414;22,09138
 849,54; 7398,718;  232,864;32420,376;22,26284
 850,10; 7421,080;  239,172;32242,261;22,44130
 850,66; 7350,442;  223,326;32169,223;22,30996
 851,22; 7371,189;  216,018;32044,492;22,48041
 851,78; 7452,782;  262,172;32190,300;22,52124
 852,34; 7471,990;  247,480;31902,878;22,82236
 852,90; 7411,121;  239,711;31744,301;22,76307
 853,46; 7387,099;  221,327;31626,878;22,81690
 854,02; 7433,153;  241,096;31540,686;22,97812
 854,58; 7413,746;  237,558;31283,648;23,11463
 855,14; 7372,262;  227,712;31230,148;23,04513
 855,70; 7356,163;  199,404;31072,802;23,18099
 856,26; 7395,448;  247,482;30999,610;23,24381
 856,82; 7349,656;  223,174;30911,803;23,22190
 857,38; 7381,480;  260,405;30765,842;23,34363
 857,94; 7340,535;  225,559;30693,342;23,35246
 858,50; 7361,204;  250,790;30567,073;23,45411
 859,06; 7354,413;  231,560;30390,266;23,61790
 859,62; 7358,467;  239,868;30330,612;23,65711
 860,18; 7347,137;  229,406;30161,112;23,77990
 860,74; 7342,730;  209,945;29971,689;23,96629
 861,30; 7345,861;  208,791;29742,882;24,16553
 861,86; 7379,146;  270,638;29919,075;23,97600
 862,42; 7352,432;  237,946;29764,806;24,09496
 862,98; 7365,563;  266,176;29637,075;24,17150
 863,54; 7312,541;  236,946;29389,960;24,27054
 864,10; 7298,595;  220,638;29537,691;24,14280
 864,66; 7319,265;  213,639;29320,191;24,41246
 865,22; 7326,319;  229,485;29208,769;24,48934
 865,78; 7250,451;  242,639;29062,269;24,31611
 866,34; 7301,351;  221,255;28983,154;24,61623
 866,90; 7293,329;  246,716;28842,346;24,64227
 867,45; 7242,229;  234,024;28601,462;24,70510
 868,01; 7283,053;  240,717;28463,808;24,95239
 868,57; 7223,031;  228,640;28331,924;24,88816
 869,13; 7166,162;  212,025;28131,732;24,90763
 869,69; 7187,370;  229,871;28104,463;24,96000
 870,25; 7155,963;  212,025;28013,425;24,97694
 870,81; 7186,633;  233,103;27915,694;25,11878
 871,37; 7206,534;  241,103;27851,426;25,22763
 871,93; 7212,357;  241,334;27679,310;25,40648
 872,49; 7164,719;  262,719;27451,272;25,38569
 873,04; 7086,851;  217,411;27275,849;25,38742
 873,60; 7098,444;  217,181;27180,965;25,52039
 874,16; 7086,344;  238,719;27138,312;25,45624
 874,72; 7098,498;  230,104;27081,927;25,57887
 875,28; 7086,190;  240,258;26971,773;25,60997
 875,84; 7106,806;  230,258;26915,388;25,76921
 876,40; 7128,190;  222,027;26777,388;26,00666
 876,95; 7120,037;  237,104;26837,004;25,87578
 877,51; 7189,498;  264,181;26826,235;26,07222
 878,07; 7197,267;  270,719;26808,004;26,10119
 878,63; 7189,037;  226,335;26831,004;26,17098
 879,19; 7233,190;  242,873;26770,696;26,35089
 879,75; 7238,113;  233,488;26885,388;26,28190
 880,30; 7208,652;  235,258;26834,388;26,21662
 880,86; 7327,883;  274,335;27011,312;26,38125
 881,42; 7316,113;  217,181;26987,696;26,51773
 881,98; 7409,421;  251,104;27128,850;26,63288
 882,54; 7437,729;  229,796;27205,542;26,72005
 883,09; 7538,498;  240,104;27280,927;26,99028
 883,65; 7574,729;  221,027;27450,235;27,00667
 884,21; 7691,652;  258,642;27607,927;27,17808
 884,77; 7717,344;  217,412;27540,696;27,44887
 885,32; 7718,037;  232,104;27752,158;27,20174
 885,88; 7850,575;  269,642;27948,927;27,38847
 886,44; 7884,883;  234,258;28056,773;27,49796
 887,00; 7921,421;  260,796;28002,388;27,61422
 887,56; 7956,652;  226,873;28174,927;27,65766
 888,11; 8040,344;  234,565;28173,465;27,93875
 888,67; 8090,806;  261,258;28362,927;27,86151
 889,23; 8162,344;  247,104;28360,696;28,15450
 889,79; 8108,729;  219,873;28214,927;28,17946
 890,34; 8099,575;  241,565;28168,235;28,13801
 890,90; 8189,344;  303,642;28337,619;28,12909
 891,46; 8140,960;  222,335;28240,235;28,26274
 892,01; 8187,498;  253,950;28197,927;28,39091
 892,57; 8203,037;  271,027;28211,465;28,38899
 893,13; 8171,652;  224,335;27922,235;28,69285
 893,69; 8188,037;  227,642;27872,081;28,79564
 894,24; 8171,575;  245,027;27818,542;28,74696
 894,80; 8159,729;  248,181;27712,004;28,80716
 895,36; 8150,421;  239,642;27574,235;28,94054
 895,91; 8059,498;  226,950;27331,773;28,89725
 896,47; 8116,113;  252,335;27288,619;29,08602
 897,03; 8119,960;  230,488;27012,158;29,45847
 897,58; 8077,190;  254,719;27080,619;29,16014
 898,14; 8074,806;  246,796;26719,235;29,57041
 898,70; 7987,267;  204,950;26620,312;29,46133
 899,25; 8028,037;  242,181;26628,465;29,50721
 899,81; 8026,575;  248,104;26450,696;29,68588
 900,37; 8013,037;  208,258;26203,696;30,02365
 900,92; 8040,344;  239,642;26209,081;30,03801
 901,48; 7962,806;  225,412;26078,465;29,92836
 902,03; 7941,190;  212,335;25948,773;30,03079
 902,59; 7933,729;  229,950;25837,081;30,08451
 903,15; 7935,652;  256,488;25704,542;30,17584
 903,70; 7867,960;  245,027;25477,081;30,21130
 904,26; 7894,267;  223,873;25315,773;30,56920
 904,82; 7938,037;  242,873;25352,542;30,64622
 905,37; 7854,113;  246,719;25189,619;30,49924
 905,93; 7854,729;  228,719;25007,312;30,77661
 906,48; 7878,575;  243,796;25006,850;30,83133
 907,04; 7907,344;  253,335;24911,388;31,04061
 907,60; 7856,575;  237,950;24700,542;31,14398
 908,15; 7830,421;  230,027;24588,696;31,20201
 908,71; 7861,806;  257,027;24614,081;31,22208
 909,26; 7854,960;  228,181;24422,619;31,52286
 909,82; 7820,806;  257,412;24211,388;31,57469
 910,37; 7857,037;  277,027;24242,081;31,62943
 910,93; 7758,575;  226,104;24083,312;31,57315
 911,48; 7747,960;  220,181;23858,388;31,84581
 912,04; 7726,421;  236,796;23776,312;31,81724
 912,60; 7754,421;  243,258;23848,235;31,82025
 913,15; 7722,037;  239,873;23565,619;32,07685
 913,71; 7707,960;  219,873;23403,696;32,29876
 914,26; 7697,267;  215,104;23348,850;32,34307
 914,82; 7647,575;  236,412;23261,312;32,18760
 915,37; 7662,729;  223,642;23194,927;32,38429
 915,93; 7647,729;  272,642;23073,158;32,34614
 916,48; 7587,344;  225,719;22937,081;32,41384
 917,04; 7623,960;  247,104;22802,696;32,70522
 917,59; 7625,575;  263,181;22762,158;32,72324
 918,15; 7504,806;  196,488;22562,388;32,67616
 918,70; 7535,037;  220,873;22468,696;32,87586
 919,26; 7544,960;  231,950;22437,081;32,93387
 919,81; 7452,037;  220,719;22235,312;32,84784
 920,37; 7478,344;  228,642;22167,158;33,04554
 920,92; 7432,190;  246,873;22137,081;32,82435
 921,48; 7359,652;  214,488;21839,081;33,04184
 922,03; 7401,960;  225,950;21859,081;33,17139
 922,59; 7354,344;  225,796;21713,158;33,17554
 923,14; 7295,344;  224,796;21644,312;33,00984
 923,69; 7303,498;  250,565;21559,388;33,09865
 924,25; 7324,652;  238,027;21438,619;33,42654
 924,80; 7261,421;  233,719;21291,312;33,37372
 925,36; 7235,344;  226,104;21189,312;33,43592
 925,91; 7187,113;  211,181;21066,542;33,44911
 926,47; 7223,806;  208,565;20966,081;33,79615
 927,02; 7231,575;  280,335;20992,235;33,56158
 927,57; 7178,806;  225,104;20790,696;33,81231
 928,13; 7176,344;  213,796;20660,388;34,05236
 928,68; 7167,190;  225,258;20638,312;34,00732
 929,24; 7089,575;  199,719;20421,388;34,07165
 929,79; 7096,344;  206,335;20327,235;34,24305
 930,34; 7085,960;  226,873;20180,465;34,37520
 930,90; 7057,267;  212,027;20141,465;34,34738
 931,45; 7073,113;  229,027;20157,927;34,34252
 932,01; 7060,960;  225,873;20021,465;34,52833
 932,56; 7059,806;  249,719;19868,388;34,71228
 933,11; 7088,806;  253,488;19857,927;34,86617
 933,67; 7010,575;  220,488;19695,388;34,86584
 934,22; 7030,267;  236,181;19596,312;35,09319
 934,77; 7002,652;  257,950;19538,158;34,98252
 935,33; 7011,575;  227,796;19370,850;35,43729
 935,88; 6942,652;  228,258;19341,158;35,13017
 936,43; 6960,652;  228,642;19217,235;35,45292
 936,99; 6986,883;  232,719;19116,927;35,76620
 937,54; 6858,037;  210,719;18954,773;35,46361
 938,09; 6882,652;  227,412;18975,388;35,49845
 938,65; 6854,267;  220,950;18836,850;35,63254
 939,20; 6848,113;  204,335;18707,773;35,90564
 939,75; 6813,421;  211,565;18689,619;35,72809
 940,31; 6808,729;  210,412;18486,850;36,10286
 940,86; 6817,960;  225,027;18508,004;36,06050
 941,41; 6852,498;  290,565;18399,542;36,23580
 941,96; 6781,575;  219,258;18250,619;36,39391
 942,52; 6746,344;  216,027;18174,235;36,36397
 943,07; 6744,960;  197,488;18061,696;36,65134
 943,62; 6730,037;  217,719;17999,081;36,62440
 944,18; 6709,190;  195,565;17954,158;36,67872
 944,73; 6710,883;  233,027;17856,388;36,75721
 945,28; 6634,960;  191,027;17627,927;36,95572
 945,83; 6726,575;  217,642;17686,773;37,25963
 946,39; 6704,037;  223,335;17662,004;37,16282
 946,94; 6728,652;  245,335;17545,542;37,47537
 947,49; 6677,037;  219,565;17453,696;37,46909
 948,04; 6682,575;  253,719;17367,542;37,56528
 948,59; 6721,267;  244,950;17351,773;37,85809
 949,15; 6657,806;  202,719;17219,850;37,93287
 949,70; 6609,729;  218,104;17085,235;37,89397
 950,25; 6582,652;  237,181;17045,158;37,75274
 950,80; 6599,113;  196,027;16909,081;38,31189
 951,36; 6580,883;  197,873;16863,235;38,30106
 951,91; 6639,113;  230,565;16832,927;38,60022
 952,46; 6523,883;  199,719;16575,158;38,61981
 953,01; 6569,267;  242,950;16650,619;38,55707
 953,56; 6506,037;  195,104;16489,542;38,73059
 954,11; 6537,806;  233,565;16458,312;38,85571
 954,67; 6538,267;  219,719;16418,312;39,00677
 955,22; 6494,344;  207,181;16251,773;39,18556
 955,77; 6504,344;  242,412;16265,004;39,08189
 956,32; 6484,267;  275,181;16178,927;39,04166
 956,87; 6431,652;  206,565;15991,235;39,43755
 957,42; 6444,190;  211,258;15955,850;39,58777
 957,98; 6445,113;  214,335;15911,465;39,69374
 958,53; 6416,883;  238,412;15814,004;39,66765
 959,08; 6389,883;  201,796;15706,619;39,91072
 959,63; 6357,421;  206,796;15611,312;39,92742
 960,18; 6362,729;  229,873;15587,312;39,93411
 960,73; 6374,344;  226,796;15466,158;40,33993
 961,28; 6304,037;  199,873;15403,312;40,14989
 961,83; 6334,267;  238,181;15367,619;40,29288
 962,39; 6289,421;  204,642;15236,542;40,47911
 962,94; 6218,421;  228,181;15135,158;40,18414
 963,49; 6204,267;  223,565;15083,158;40,24809
 964,04; 6245,883;  235,642;15060,927;40,54047
 964,59; 6237,883;  190,873;14878,773;41,17001
 965,14; 6204,113;  237,950;14853,158;40,82161
 965,69; 6164,498;  226,181;14738,388;40,91946
 966,24; 6106,113;  216,104;14616,465;40,90182
 966,79; 6110,113;  233,488;14561,158;41,01592
 967,34; 6062,037;  193,104;14409,696;41,28227
 967,89; 6069,190;  206,027;14404,312;41,29487
 968,44; 6054,960;  216,027;14305,773;41,44101
 968,99; 6026,113;  221,950;14292,465;41,25054
 969,55; 6007,421;  222,027;14166,619;41,48844
 970,10; 6011,190;  226,488;14098,312;41,70109
 970,65; 5968,806;  246,873;14004,696;41,59039
 971,20; 5899,267;  214,181;13909,773;41,51034
 971,75; 5829,883;  197,796;13668,542;41,80976
 972,30; 5859,575;  223,104;13699,081;41,82607
 972,85; 5785,883;  212,181;13631,004;41,53644
 973,40; 5754,344;  206,258;13559,158;41,54967
 973,95; 5792,652;  222,719;13453,312;42,09889
 974,50; 5789,575;  246,565;13406,773;42,11947
 975,05; 5717,960;  227,335;13275,619;42,07929
 975,60; 5692,344;  233,642;13192,388;42,12369
 976,15; 5714,037;  213,719;13086,158;42,72941
 976,70; 5631,960;  225,719;13024,312;42,24090
 977,25; 5640,806;  228,950;12980,388;42,44114
 977,80; 5585,421;  205,104;12853,542;42,53740
 978,35; 5531,960;  228,565;12647,773;42,70316
 978,89; 5527,267;  198,719;12588,388;43,00799
 979,44; 5499,729;  228,873;12625,081;42,51991
 979,99; 5434,960;  209,873;12401,619;42,85757
 980,54; 5460,575;  243,412;12386,850;42,96282
 981,09; 5464,729;  239,258;12232,388;43,57053
 981,64; 5354,883;  234,873;12097,773;43,15985
 982,19; 5381,960;  261,027;12125,081;43,16343
 982,74; 5331,652;  245,027;11893,081;43,66931
 983,29; 5264,037;  213,950;11764,619;43,72116
 983,84; 5267,806;  235,258;11668,773;44,01575
 984,39; 5275,575;  303,104;11711,542;43,58591
 984,94; 5217,421;  203,027;11481,619;44,45940
 985,49; 5174,960;  250,873;11470,542;43,88798
 986,03; 5190,344;  250,488;11413,235;44,25305
 986,58; 5120,344;  276,027;11242,619;44,17341
 987,13; 5051,344;  237,027;11119,465;44,23932
 987,68; 5035,267;  235,335;11045,773;44,40091
 988,23; 5023,421;  237,258;10984,850;44,53242
 988,78; 4969,421;  223,873;10863,235;44,60369
 989,33; 4942,960;  241,873;10732,696;44,81142
 989,88; 4932,498;  249,642;10721,619;44,71797
 990,42; 4872,806;  232,642;10586,158;44,81727
 990,97; 4824,344;  224,950;10463,004;44,92450
 991,52; 4824,344;  253,719;10376,850;45,15031
 992,07; 4726,421;  255,873;10301,927;44,50054
 992,62; 4693,806;  239,873;10217,773;44,63798
 993,17; 4659,344;  238,181;10072,004;44,95875
 993,71; 4634,883;  248,950; 9954,235;45,19118
 994,26; 4584,037;  222,181; 9825,850;45,41864
 994,81; 4567,113;  250,181; 9767,850;45,35704
 995,36; 4508,729;  226,719; 9628,773;45,54334
 995,91; 4509,113;  235,258; 9593,004;45,67185
 996,45; 4467,960;  236,335; 9483,619;45,76073
 997,00; 4446,498;  207,950; 9335,850;46,43508
 997,55; 4393,190;  233,873; 9334,927;45,70149
 998,10; 4398,806;  265,488; 9163,773;46,45072
 998,65; 4392,806;  231,412; 9172,465;46,54255
 999,19; 4326,267;  252,104; 9013,158;46,50312
 999,74; 4294,806;  276,181; 8985,542;46,14144
1000,29; 4292,806;  246,719; 8828,773;47,14590
1000,84; 4197,806;  223,104; 8741,696;46,65914
1001,38; 4182,960;  237,412; 8648,388;46,90951
1001,93; 4158,806;  248,181; 8601,158;46,81714
1002,48; 4128,960;  221,950; 8410,542;47,71284
1003,03; 4127,113;  238,565; 8394,696;47,67638
1003,57; 4046,960;  249,719; 8249,158;47,46884
1004,12; 4014,267;  272,412; 8205,235;47,16928
1004,67; 3968,421;  226,719; 8094,235;47,55888
1005,22; 3873,190;  217,796; 7967,081;47,17073
1005,76; 3835,421;  217,335; 7848,235;47,41363
1006,31; 3812,729;  247,642; 7815,850;47,10609
1006,86; 3773,037;  222,104; 7678,850;47,62040
1007,40; 3700,190;  210,950; 7571,850;47,40236
1007,95; 3687,729;  236,873; 7480,158;47,64214
1008,50; 3619,652;  231,642; 7337,388;47,67986
1009,04; 3597,344;  219,950; 7249,004;48,04906
1009,59; 3520,113;  240,412; 7142,312;47,51883
1010,14; 3487,498;  216,335; 7033,312;47,98554
1010,68; 3435,113;  229,565; 6973,773;47,53039
1011,23; 3381,575;  224,950; 6797,542;48,02709
1011,78; 3403,883;  234,181; 6780,465;48,41986
1012,32; 3315,421;  247,565; 6639,465;47,99599
1012,87; 3312,190;  253,412; 6621,081;48,03608
1013,42; 3232,806;  218,258; 6484,004;48,11156
1013,96; 3273,883;  258,488; 6507,081;48,25718
1014,51; 3208,267;  198,335; 6424,619;48,34236
1015,06; 3219,421;  204,335; 6429,158;48,43650
1015,60; 3283,267;  268,565; 6443,619;48,82066
1016,15; 3218,421;  224,104; 6407,542;48,42479
1016,69; 3252,113;  233,950; 6431,158;48,70199
1017,24; 3240,729;  205,258; 6454,927;48,57011
1017,79; 3305,806;  251,796; 6551,081;48,48185
1018,33; 3301,421;  218,412; 6526,158;48,87656
1018,88; 3331,883;  242,258; 6598,927;48,60446
1019,42; 3341,421;  229,412; 6609,388;48,77776
1019,97; 3327,652;  209,642; 6586,388;48,89656
1020,51; 3380,190;  243,335; 6614,927;49,23190
1021,06; 3349,344;  199,258; 6623,081;49,03757
1021,61; 3331,652;  204,258; 6566,081;49,15877
1022,15; 3281,575;  180,027; 6530,927;48,83636
1022,70; 3302,883;  223,873; 6544,388;48,71453
1023,24; 3299,498;  217,104; 6506,696;49,00785
1023,79; 3279,344;  214,873; 6440,312;49,22499
1024,33; 3248,498;  219,642; 6432,696;48,74987
1024,88; 3242,498;  224,565; 6301,158;49,66489
1025,42; 3187,113;  216,335; 6201,773;49,63344
1025,97; 3134,344;  219,027; 6159,696;49,07389
1026,51; 3093,498;  185,488; 6011,927;49,91059
1027,06; 3079,421;  206,488; 5991,850;49,65865
1027,60; 3026,190;  239,258; 5887,235;49,34391
1028,15; 3003,113;  245,873; 5774,696;49,87030
1028,69; 2916,883;  198,950; 5671,004;49,66933
1029,24; 2905,344;  217,104; 5593,542;50,00039
1029,78; 2856,498;  215,181; 5512,696;49,85955
1030,33; 2812,575;  196,565; 5423,542;50,04823
1030,87; 2749,190;  222,642; 5339,312;49,37877
1031,42; 2720,575;  202,181; 5270,850;49,68551
1031,96; 2709,190;  233,488; 5172,465;50,12580
1032,51; 2655,267;  211,796; 5112,696;49,85760
1033,05; 2632,729;  216,104; 5063,465;49,85444
1033,60; 2550,498;  191,950; 4923,927;49,84276
1034,14; 2558,190;  213,565; 4874,388;50,30496
1034,69; 2506,960;  219,642; 4796,312;49,97777
1035,23; 2494,960;  208,796; 4739,927;50,45459
1035,77; 2467,037;  201,412; 4670,388;50,69673
1036,32; 2426,575;  190,950; 4605,312;50,64436
1036,86; 2390,421;  214,335; 4557,312;50,10587
1037,41; 2385,498;  225,104; 4481,542;50,75591
1037,95; 2307,883;  194,104; 4382,773;50,46421
1038,50; 2317,960;  206,412; 4372,696;50,68180
1039,04; 2294,344;  233,027; 4333,235;50,27349
1039,58; 2236,960;  196,488; 4222,388;50,68360
1040,13; 2217,037;  218,181; 4185,004;50,38934
1040,67; 2243,344;  237,488; 4167,081;51,04488
1041,21; 2196,729;  238,565; 4070,696;51,09856
1041,76; 2128,806;  199,104; 4016,850;50,54558
1042,30; 2130,037;  215,104; 3950,158;51,26921
1042,85; 2092,344;  217,335; 3897,235;50,95273
1043,39; 2047,037;  207,258; 3822,235;50,89324
1043,93; 2058,960;  223,335; 3783,773;51,55615
1044,48; 2013,190;  223,412; 3736,850;50,94095
1045,02; 1990,806;  213,104; 3690,850;51,11649
1045,56; 1984,883;  232,719; 3675,850;50,88867
1046,11; 1938,190;  220,642; 3615,004;50,60003
1046,65; 1931,806;  229,488; 3556,773;51,16236
1047,19; 1908,806;  207,104; 3511,465;51,49866
1047,74; 1854,113;  197,950; 3420,388;51,39473
1048,28; 1841,344;  220,181; 3400,927;50,96802
1048,82; 1859,498;  238,719; 3362,388;51,88702
1049,37; 1837,267;  228,412; 3294,004;52,48107
1049,91; 1798,267;  230,796; 3252,158;51,87963
1050,45; 1793,267;  233,258; 3229,158;52,07148
1050,99; 1770,575;  216,642; 3161,927;52,76002
1051,54; 1726,498;  208,796; 3103,696;52,42675
1052,08; 1732,806;  250,796; 3090,235;52,19376
1052,62; 1707,806;  236,719; 3048,696;52,31503
1053,16; 1681,344;  217,412; 2967,004;53,24181
1053,71; 1665,806;  230,565; 2937,465;53,02155
1054,25; 1651,344;  241,719; 2895,773;53,11215
1054,79; 1638,113;  231,642; 2873,235;53,24331
1055,33; 1581,190;  195,488; 2796,696;53,27148
1055,88; 1593,575;  231,412; 2778,312;53,48319
1056,42; 1581,806;  245,873; 2757,388;53,19230
1056,96; 1548,729;  238,565; 2705,158;53,11634
1057,50; 1538,883;  224,104; 2676,312;53,61613
1058,05; 1500,267;  221,335; 2629,773;53,10215
1058,59; 1507,806;  247,565; 2595,850;53,66642
1059,13; 1459,652;  206,181; 2532,158;53,89009
1059,67; 1460,883;  224,642; 2534,235;53,52635
1060,21; 1418,960;  218,796; 2464,235;53,44896
1060,76; 1432,267;  229,565; 2448,081;54,21202
1061,30; 1408,883;  248,565; 2444,773;52,83277
1061,84; 1369,113;  229,796; 2349,312;53,75367
1062,38; 1327,960;  218,335; 2286,542;53,65153
1062,92; 1363,806;  266,488; 2345,081;52,79137
1063,46; 1339,806;  247,181; 2274,388;53,89803
1064,01; 1294,190;  224,412; 2233,927;53,23566
1064,55; 1289,575;  231,565; 2217,773;53,26782
1065,09; 1241,190;  204,565; 2145,388;53,41162
1065,63; 1289,037;  253,719; 2166,388;54,12945
1066,17; 1280,498;  262,796; 2143,465;54,11382
1066,71; 1266,806;  247,258; 2125,388;54,28525
1067,25; 1223,883;  241,950; 2079,927;53,42465
1067,80; 1218,421;  256,873; 2061,696;53,27658
1068,34; 1213,421;  258,950; 2065,619;52,83043
1068,88; 1169,113;  225,181; 1990,696;53,46499
1069,42; 1212,729;  252,488; 2018,696;54,36735
1069,96; 1178,037;  234,642; 1949,081;55,02643
1070,50; 1183,113;  276,488; 1963,081;53,75484
1071,04; 1134,037;  220,950; 1888,696;54,74973
1071,58; 1130,498;  232,796; 1878,081;54,56211
1072,12; 1116,267;  233,796; 1855,081;54,43037
1072,66; 1096,806;  227,181; 1840,158;53,91429
1073,21; 1114,344;  243,104; 1838,004;54,62665
1073,75; 1086,037;  238,488; 1792,850;54,52709
1074,29; 1065,421;  245,950; 1790,388;53,05949
1074,83; 1081,421;  250,642; 1768,542;54,73212
1075,37; 1080,883;  255,796; 1760,542;54,83227
1075,91; 1049,498;  255,873; 1747,312;53,21205
1076,45; 1044,883;  236,565; 1700,004;55,23412
1076,99; 1029,421;  245,488; 1654,004;55,65667
1077,53;  993,498;  229,104; 1627,004;54,68161
1078,07;  997,883;  242,258; 1641,927;53,98597
1078,61;  997,190;  237,412; 1612,081;55,26994
1079,15;  988,421;  235,719; 1601,004;55,13150
1079,69;  962,267;  236,796; 1561,235;54,77575
1080,23;  977,729;  253,335; 1567,850;55,10732
1080,77;  995,113;  284,719; 1574,388;55,08344
1081,31;  943,883;  219,565; 1499,235;56,60192
1081,85;  938,960;  250,719; 1528,004;53,88309
1082,39;  934,960;  228,027; 1476,927;56,60443
1082,93;  949,190;  249,950; 1489,312;56,41940
1083,47;  894,652;  228,565; 1438,773;55,03903
1084,01;  942,883;  246,027; 1466,388;57,10240
1084,55;  882,498;  235,258; 1420,004;54,63114
1085,09;  906,498;  247,950; 1420,004;56,18753
1085,63;  875,652;  254,335; 1380,158;55,18783
1086,17;  852,037;  224,719; 1372,158;54,67111
1086,71;  865,883;  229,796; 1356,773;56,44184
1087,24;  880,575;  266,642; 1373,927;55,44489
1087,78;  864,729;  249,258; 1344,235;56,20860
1088,32;  797,652;  234,488; 1302,312;52,73940
1088,86;  849,037;  255,027; 1325,696;55,48022
1089,40;  831,575;  239,335; 1279,004;56,96431
1089,94;  792,575;  223,027; 1243,081;55,83510
1090,48;  793,960;  243,258; 1242,312;55,12235
1091,02;  813,729;  254,258; 1254,081;55,95702
1091,56;  809,037;  240,642; 1240,312;56,85823
1092,10;  769,960;  213,412; 1184,927;57,28659
1092,63;  803,498;  259,258; 1217,465;56,79775
1093,17;  777,806;  244,719; 1203,004;55,62925
1093,71;  752,190;  229,488; 1160,235;56,15945
1094,25;  782,498;  264,950; 1180,158;56,54980
1094,79;  753,498;  240,488; 1147,542;56,55779
1095,33;  754,498;  247,796; 1127,312;57,61149
1095,87;  739,498;  240,412; 1124,619;56,44449
1096,40;  722,729;  216,950; 1088,619;58,02417
1096,94;  741,421;  242,104; 1091,927;58,75544
1097,48;  724,498;  251,181; 1084,465;56,80140
1098,02;  714,652;  236,181; 1071,927;57,25078
1098,56;  682,344;  208,104; 1018,388;58,52763
1099,10;  658,960;  220,719; 1013,850;55,25449
1099,63;  683,190;  216,642; 1022,465;57,89709
1100,17;  677,190;  235,565; 1028,696;55,68123
1100,71;  700,806;  259,719; 1034,465;56,93304

