
Integration time [ms]: 120,000
Averaging Nr. [scans]: 13
Smoothing Nr. [pixels]: 0
Data measured with spectrometer [name]: 2009305U1
Wave   ;Sample   ;Dark     ;Reference;Reflectance
[nm]   ;[counts] ;[counts] ;[counts] ;[%]

 175,72;  198,183;  177,341;  181,932;453,97150
 176,32;  218,933;  201,724;  196,771; 0,00000
 176,92;  248,868;  221,879;  219,181; 0,00000
 177,52;  252,245;  236,264;  242,747;246,51621
 178,12;  227,662;  222,186;  203,032; 0,00000
 178,72;  259,521;  235,570;  241,190;426,20915
 179,32;  241,761;  226,263;  215,572; 0,00000
 179,92;  239,997;  222,494;  228,231;305,10480
 180,52;  237,652;  212,495;  231,073;135,41551
 181,12;  251,421;  229,494;  229,818; 0,00000
 181,73;  268,856;  243,725;  240,244; 0,00000
 182,33;  340,379;  287,726;  289,153;3689,92428
 182,93;  270,791;  243,495;  244,568;2543,56416
 183,53;  237,928;  225,801;  215,804; 0,00000
 184,13;  239,084;  233,878;  221,748; 0,00000
 184,73;  275,149;  235,186;  246,963;339,32183
 185,33;  263,934;  222,410;  328,091;39,29181
 185,93;  280,049;  220,871;  340,951;49,28163
 186,53;  287,267;  221,564;  345,642;52,95286
 187,13;  320,892;  256,795;  382,267;51,08445
 187,73;  262,475;  218,487;  342,172;35,56507
 188,33;  294,265;  217,102;  349,994;58,06407
 188,93;  279,642;  225,023;  355,606;41,82684
 189,53;  286,608;  231,946;  360,495;42,52213
 190,13;  327,824;  260,790;  374,664;58,86694
 190,73;  264,149;  203,637;  324,040;50,25755
 191,34;  296,032;  230,100;  361,556;50,15505
 191,94;  260,282;  219,640;  320,107;40,45355
 192,54;  289,587;  232,719;  366,990;42,35300
 193,14;  279,220;  242,103;  367,943;29,49503
 193,74;  280,311;  225,334;  348,583;44,60704
 194,34;  277,780;  221,488;  354,873;42,20314
 194,94;  243,996;  190,257;  330,995;38,18400
 195,54;  234,108;  193,949;  319,846;31,89828
 196,14;  255,153;  208,103;  347,636;33,71921
 196,74;  255,778;  198,333;  322,302;46,33823
 197,34;  224,438;  177,642;  328,720;30,97433
 197,94;  264,458;  209,642;  343,536;40,93995
 198,54;  265,212;  204,103;  360,975;38,95449
 199,14;  254,894;  191,258;  377,922;34,09131
 199,74;  237,810;  188,950;  353,563;29,68159
 200,34;  226,835;  174,489;  370,816;26,66261
 200,94;  270,001;  205,258;  408,507;31,85421
 201,54;  251,559;  195,796;  401,959;27,04804
 202,14;  289,321;  204,643;  439,225;36,09748
 202,74;  259,850;  191,566;  464,224;25,04374
 203,34;  245,321;  177,951;  461,232;23,78205
 203,94;  222,438;  159,181;  475,658;19,98763
 204,54;  286,830;  228,257;  554,835;17,93537
 205,14;  256,569;  186,489;  573,954;18,08688
 205,74;  298,105;  220,105;  660,874;17,69641
 206,34;  263,234;  182,566;  660,309;16,88528
 206,94;  283,063;  201,027;  722,261;15,73872
 207,54;  260,735;  169,027;  758,893;15,54725
 208,14;  280,281;  185,489;  854,947;14,15953
 208,74;  281,609;  180,258;  919,616;13,70797
 209,34;  291,676;  178,720; 1013,779;13,52673
 209,94;  303,212;  201,566; 1125,300;11,00384
 210,54;  307,393;  197,643; 1211,193;10,82826
 211,14;  328,611;  199,335; 1303,480;11,70829
 211,73;  331,956;  190,027; 1385,199;11,87523
 212,33;  348,855;  208,027; 1506,251;10,84773
 212,93;  335,085;  187,258; 1602,566;10,44490
 213,53;  324,140;  163,566; 1644,026;10,84624
 214,13;  344,820;  164,567; 1721,959;11,57402
 214,73;  330,783;  169,104; 1749,148;10,23251
 215,33;  300,904;  138,873; 1751,454;10,04792
 215,93;  356,778;  178,566; 1916,196;10,25600
 216,53;  327,852;  140,873; 1993,856;10,09070
 217,13;  400,830;  195,874; 2192,251;10,26639
 217,73;  403,224;  170,797; 2356,938;10,63184
 218,33;  384,117;  138,490; 2563,892;10,12729
 218,93;  446,561;  166,106; 2857,633;10,41994
 219,53;  478,033;  157,490; 3136,840;10,75883
 220,13;  487,909;  142,336; 3441,437;10,47476
 220,73;  543,505;  173,181; 3800,273;10,20993
 221,32;  593,455;  167,489; 4182,539;10,60924
 221,92;  635,222;  177,951; 4617,624;10,29964
 222,52;  678,415;  160,874; 4992,892;10,71066
 223,12;  721,854;  158,951; 5412,198;10,71534
 223,72;  781,770;  177,489; 5814,839;10,71923
 224,32;  846,782;  174,413; 6193,234;11,17112
 224,92;  867,132;  160,720; 6601,683;10,96749
 225,52;  918,286;  180,335; 6905,287;10,97333
 226,12;  966,897;  173,874; 7275,258;11,16716
 226,72;  990,636;  150,720; 7658,740;11,18692
 227,31; 1039,217;  139,412; 8048,574;11,37674
 227,91; 1099,460;  166,258; 8442,578;11,27557
 228,51; 1161,733;  164,335; 8899,863;11,41772
 229,11; 1228,445;  167,951; 9314,710;11,59421
 229,71; 1263,289;  161,412; 9644,990;11,61879
 230,31; 1321,316;  163,567;10083,280;11,67120
 230,91; 1376,373;  149,257;10450,494;11,91232
 231,51; 1442,420;  142,643;10690,464;12,32271
 232,10; 1512,844;  149,721;11114,366;12,43199
 232,70; 1582,627;  172,642;11178,411;12,81132
 233,30; 1689,261;  179,643;11481,659;13,35707
 233,90; 1729,534;  160,720;11584,646;13,73271
 234,50; 1766,326;  164,720;11639,573;13,95753
 235,10; 1823,978;  158,797;11682,683;14,44982
 235,70; 1894,604;  169,643;11671,969;14,99663
 236,29; 1925,453;  180,643;11603,598;15,27459
 236,89; 1926,326;  157,488;11503,165;15,59041
 237,49; 1977,187;  166,258;11408,521;16,10822
 238,09; 2002,465;  164,797;11035,462;16,90484
 238,69; 2043,068;  186,642;10723,353;17,61865
 239,29; 1990,964;  151,566;10441,644;17,87545
 239,89; 2003,361;  167,950;10145,100;18,39615
 240,48; 1972,430;  153,951; 9725,758;18,99829
 241,08; 1940,644;  158,027; 9326,172;19,44359
 241,68; 1974,621;  182,643; 8973,788;20,38390
 242,28; 1893,686;  159,874; 8630,859;20,46765
 242,88; 1901,274;  173,720; 8364,985;21,09019
 243,48; 1910,041;  186,566; 8108,726;21,75511
 244,07; 1851,041;  180,027; 7829,104;21,84595
 244,67; 1872,959;  180,874; 7690,229;22,53303
 245,27; 1837,187;  185,642; 7588,352;22,31000
 245,87; 1869,465;  185,643; 7528,705;22,93078
 246,47; 1871,606;  172,335; 7486,057;23,23402
 247,06; 1851,177;  165,566; 7526,292;22,90007
 247,66; 1904,708;  164,797; 7580,166;23,46358
 248,26; 1970,936;  199,566; 7732,215;23,51591
 248,86; 1994,515;  184,412; 7934,031;23,35732
 249,46; 1990,889;  140,336; 8112,977;23,21130
 250,05; 2099,291;  184,335; 8512,015;22,99507
 250,65; 2146,455;  152,719; 8839,150;22,95230
 251,25; 2260,522;  162,874; 9312,090;22,92708
 251,85; 2378,693;  166,181; 9884,581;22,76622
 252,44; 2461,728;  135,719;10514,296;22,41163
 253,04; 2616,505;  180,950;11273,504;21,95666
 253,64; 2731,706;  134,181;11946,749;21,98950
 254,24; 2927,145;  183,489;12942,605;21,50349
 254,84; 3056,735;  166,028;13818,824;21,17301
 255,43; 3204,423;  174,489;14779,699;20,74557
 256,03; 3379,376;  167,488;15689,670;20,69224
 256,63; 3515,907;  179,104;16716,460;20,17737
 257,23; 3676,909;  154,565;17496,170;20,31152
 257,82; 3848,763;  164,950;18468,138;20,12662
 258,42; 3922,800;  137,026;19182,702;19,87734
 259,02; 4061,726;  171,566;20123,742;19,49742
 259,62; 4166,356;  164,488;20744,052;19,44584
 260,21; 4235,053;  169,412;21255,648;19,28102
 260,81; 4323,681;  164,643;21699,592;19,31297
 261,41; 4366,066;  152,257;22165,871;19,14183
 262,01; 4406,644;  196,180;22529,910;18,85249
 262,60; 4375,294;  150,873;22870,247;18,59391
 263,20; 4430,793;  164,104;23219,129;18,50655
 263,80; 4429,019;  180,564;23188,763;18,46496
 264,40; 4405,991;  160,180;23480,805;18,20625
 264,99; 4458,118;  174,718;23595,996;18,28850
 265,59; 4416,029;  161,410;23718,360;18,06099
 266,19; 4413,780;  145,718;23942,404;17,93553
 266,78; 4457,058;  194,718;24002,266;17,90332
 267,38; 4412,704;  167,102;24073,702;17,75912
 267,98; 4386,351;  160,872;23940,240;17,76952
 268,58; 4382,054;  171,641;23985,151;17,68077
 269,17; 4352,118;  156,256;23999,133;17,59797
 269,77; 4322,393;  178,257;23721,092;17,60254
 270,37; 4257,262;  153,564;23632,157;17,47846
 270,96; 4304,207;  202,488;23497,862;17,60744
 271,56; 4221,411;  159,873;23256,293;17,58514
 272,16; 4176,490;  161,872;23131,225;17,47815
 272,75; 4151,416;  167,334;23064,935;17,39956
 273,35; 4183,048;  179,719;23096,752;17,46880
 273,95; 4135,024;  165,026;23117,576;17,29654
 274,54; 4131,204;  138,643;23112,099;17,37902
 275,14; 4209,631;  174,257;23418,065;17,36107
 275,74; 4213,311;  139,719;23576,359;17,38130
 276,33; 4309,264;  177,796;23952,958;17,37725
 276,93; 4418,649;  176,181;24209,057;17,65277
 277,53; 4475,676;  165,566;24918,316;17,41265
 278,12; 4619,435;  153,181;25338,854;17,73331
 278,72; 4764,758;  174,489;25937,503;17,81728
 279,32; 4859,532;  157,796;26444,229;17,88655
 279,91; 5046,088;  148,258;27234,118;18,08261
 280,51; 5144,874;  161,489;27651,475;18,12800
 281,11; 5356,130;  162,335;28428,720;18,37446
 281,70; 5448,237;  152,258;28857,697;18,44939
 282,30; 5646,334;  148,181;29421,216;18,78231
 282,90; 5800,128;  173,027;29883,544;18,93976
 283,49; 5972,118;  174,796;30307,777;19,23913
 284,09; 6187,832;  198,950;30772,403;19,58850
 284,69; 6347,564;  188,796;30996,377;19,99108
 285,28; 6493,224;  183,950;31311,147;20,26933
 285,88; 6710,669;  183,565;31501,552;20,84139
 286,47; 6819,674;  158,411;31740,211;21,09209
 287,07; 7038,693;  194,489;31615,896;21,78198
 287,67; 7175,041;  184,028;31838,342;22,08550
 288,26; 7424,589;  164,027;31731,936;22,99982
 288,86; 7677,961;  173,258;31840,768;23,69843
 289,46; 8000,458;  177,258;31941,937;24,62861
 290,05; 8273,529;  165,874;32058,372;25,42183
 290,65; 8612,703;  173,642;32137,957;26,40151
 291,24; 8962,783;  180,258;32389,830;27,26682
 291,84; 9342,984;  180,719;32478,075;28,36847
 292,44; 9670,780;  164,182;32602,519;29,30668
 293,03;10042,381;  216,258;32726,555;30,22465
 293,63;10391,170;  163,719;32731,147;31,40393
 294,22;10731,532;  179,412;33033,304;32,11833
 294,82;10961,728;  165,334;32990,272;32,89083
 295,41;11093,237;  158,335;32669,235;33,63457
 296,01;11310,391;  208,642;32537,990;34,33954
 296,61;11419,157;  168,181;32216,222;35,10660
 297,20;11466,463;  178,257;31982,957;35,49226
 297,80;11602,649;  188,951;31755,900;36,15711
 298,39;11550,463;  157,104;31294,658;36,59041
 298,99;11682,550;  168,257;31256,644;37,03728
 299,58;11636,428;  175,258;31083,742;37,08098
 300,18;11726,378;  192,027;30836,159;37,63967
 300,78;11627,073;  156,720;30591,942;37,68776
 301,37;11724,718;  188,026;30595,197;37,94070
 301,97;11719,577;  180,412;30708,078;37,79904
 302,56;11769,175;  167,334;30499,719;38,24902
 303,16;11739,021;  165,180;30443,255;38,22515
 303,75;11803,130;  171,873;30465,112;38,39555
 304,35;11899,383;  158,489;30694,205;38,44971
 304,94;11943,083;  165,104;30738,161;38,52405
 305,54;11956,763;  180,181;30623,155;38,68407
 306,13;11883,693;  137,643;30507,992;38,67604
 306,73;11832,882;  146,028;30341,923;38,70345
 307,33;11819,944;  179,643;30299,740;38,64629
 307,92;11870,877;  173,027;30382,875;38,72198
 308,52;12016,480;  164,565;30861,852;38,60900
 309,11;12162,840;  162,872;31265,133;38,58230
 309,71;12328,661;  143,411;31510,955;38,84668
 310,30;12364,721;  149,719;31742,934;38,66337
 310,90;12513,490;  167,950;32029,549;38,74739
 311,49;12467,991;  164,258;32162,442;38,45135
 312,09;12540,644;  142,412;32349,249;38,49565
 312,68;12696,371;  199,950;32648,564;38,51142
 313,28;12673,569;  147,335;32801,183;38,36067
 313,87;12669,274;  143,335;32931,884;38,20218
 314,47;12765,096;  168,103;33190,770;38,14650
 315,06;12739,041;  149,873;33381,253;37,88337
 315,66;12799,567;  149,643;33479,095;37,95419
 316,25;12653,058;  136,180;33478,362;37,54067
 316,85;12699,500;  128,797;33573,396;37,58665
 317,44;12669,937;  164,334;33708,350;37,28117
 318,04;12542,316;  139,411;33736,633;36,91646
 318,63;12507,668;  141,335;33789,968;36,75137
 319,22;12496,693;  159,873;33951,502;36,50851
 319,82;12470,813;  150,873;33838,648;36,57095
 320,41;12342,388;  168,027;33812,982;36,18481
 321,01;12285,383;  171,643;33846,732;35,97241
 321,60;12254,319;  155,258;33959,731;35,79130
 322,20;12137,229;  153,027;33870,188;35,54333
 322,79;12095,135;  190,796;33855,682;35,36129
 323,39;12080,028;  146,797;33954,951;35,29690
 323,98;11954,532;  145,335;33857,693;35,02928
 324,58;11882,497;  158,950;33743,128;34,90795
 325,17;11788,043;  167,873;33449,413;34,91476
 325,76;11638,554;  183,642;33364,538;34,52261
 326,36;11391,023;  139,950;32890,828;34,35350
 326,95;11289,475;  166,258;32515,595;34,38468
 327,55;11058,170;  146,411;32245,072;33,99444
 328,14;10862,028;  163,720;31834,097;33,78017
 328,74;10632,567;  181,950;31429,694;33,44439
 329,33;10550,688;  178,797;31074,483;33,57068
 329,92;10270,192;  150,565;30396,062;33,45830
 330,52;10020,510;  161,258;29905,006;33,14731
 331,11; 9822,490;  169,950;29379,622;33,04570
 331,71; 9548,934;  168,489;28929,887;32,61471
 332,30; 9385,775;  182,719;28383,622;32,63391
 332,89; 9161,728;  193,412;27902,452;32,36603
 333,49; 8912,492;  164,335;27411,255;32,10696
 334,08; 8731,922;  172,181;27028,258;31,87264
 334,68; 8518,589;  173,104;26531,085;31,66208
 335,27; 8403,542;  168,028;26267,157;31,55475
 335,86; 8279,490;  188,642;25965,852;31,38760
 336,46; 8079,586;  173,797;25740,778;30,92187
 337,05; 7963,994;  158,565;25557,071;30,73184
 337,65; 7873,760;  155,027;25393,745;30,58291
 338,24; 7909,941;  217,489;25378,559;30,57284
 338,83; 7799,046;  183,335;25302,750;30,31803
 339,43; 7740,641;  163,719;25188,906;30,27719
 340,02; 7638,902;  164,642;25127,037;29,94208
 340,61; 7663,408;  159,796;25157,208;30,01755
 341,21; 7584,336;  194,334;25129,924;29,63636
 341,80; 7504,041;  161,027;25127,322;29,41171
 342,40; 7537,998;  172,181;25220,198;29,40679
 342,99; 7487,728;  168,489;25325,991;29,09366
 343,58; 7479,919;  166,950;25538,483;28,82352
 344,18; 7509,068;  169,412;25496,449;28,97953
 344,77; 7541,388;  159,565;25907,518;28,66955
 345,36; 7577,321;  137,719;26210,672;28,53379
 345,96; 7683,031;  177,720;26431,649;28,58738
 346,55; 7673,380;  146,412;26695,649;28,35098
 347,14; 7706,897;  148,489;27061,409;28,08468
 347,74; 7775,006;  136,259;27342,266;28,07743
 348,33; 7913,641;  164,721;28083,865;27,75486
 348,92; 8082,854;  174,875;28706,289;27,71675
 349,52; 8149,356;  135,567;29030,333;27,73440
 350,11; 8201,162;  160,950;29170,398;27,71584
 350,70; 8222,817;  170,027;29261,381;27,68104
 351,29; 8121,254;  138,564;28959,100;27,69792
 351,89; 8124,592;  163,334;29015,781;27,59301
 352,48; 8072,381;  136,335;29084,401;27,41477
 353,07; 8023,646;  168,335;28952,656;27,29024
 353,67; 8046,020;  178,721;28944,993;27,34904
 354,26; 7908,376;  161,489;28651,608;27,19149
 354,85; 7913,706;  163,720;28462,991;27,38581
 355,45; 7847,703;  154,334;28235,651;27,39675
 356,04; 7815,333;  171,182;28214,546;27,25833
 356,63; 7791,443;  177,412;28050,062;27,31721
 357,22; 7744,133;  167,487;27855,638;27,36422
 357,82; 7662,778;  166,872;27716,388;27,20885
 358,41; 7697,646;  179,027;27646,796;27,37252
 359,00; 7651,889;  155,796;27384,951;27,52966
 359,60; 7636,232;  172,027;27350,822;27,46334
 360,19; 7605,244;  161,489;27152,383;27,57876
 360,78; 7596,110;  169,258;27025,501;27,65410
 361,37; 7603,795;  174,873;26787,527;27,91500
 361,97; 7604,669;  174,027;26742,567;27,96782
 362,56; 7510,460;  156,950;26426,482;27,99255
 363,15; 7536,569;  176,950;26173,099;28,31042
 363,74; 7480,952;  170,026;25917,533;28,39469
 364,34; 7403,418;  200,488;25535,420;28,43082
 364,93; 7302,507;  154,642;25066,887;28,69218
 365,52; 7245,798;  143,335;24786,160;28,82163
 366,11; 7266,368;  165,565;24413,765;29,28384
 366,71; 7189,693;  155,796;24158,810;29,30423
 367,30; 7147,902;  162,335;23806,352;29,54476
 367,89; 7176,542;  195,489;23583,075;29,84939
 368,48; 7125,321;  179,103;23309,814;30,03028
 369,07; 7041,202;  170,258;22909,228;30,21660
 369,67; 7051,480;  183,026;22635,081;30,59165
 370,26; 7013,110;  163,104;22324,432;30,90973
 370,85; 7014,011;  165,027;22224,115;31,04836
 371,44; 6981,718;  162,950;21915,452;31,34705
 372,03; 7027,128;  148,411;21735,464;31,86501
 372,63; 7004,100;  146,796;21467,665;32,16241
 373,22; 7003,857;  163,335;21191,812;32,52980
 373,81; 6981,532;  145,719;20838,455;33,03484
 374,40; 7010,969;  160,951;20675,604;33,39085
 374,99; 7007,406;  145,565;20441,721;33,80857
 375,59; 6997,051;  164,104;20102,791;34,26979
 376,18; 7125,947;  187,104;20097,739;34,84993
 376,77; 7160,542;  175,950;19803,374;35,58588
 377,36; 7215,113;  185,335;19830,750;35,78330
 377,95; 7237,602;  171,642;19514,783;36,52954
 378,55; 7256,306;  153,720;19393,116;36,91689
 379,14; 7299,249;  163,181;19295,167;37,29915
 379,73; 7410,125;  164,796;19295,064;37,87364
 380,32; 7538,686;  188,335;19260,688;38,53930
 380,91; 7555,435;  146,642;19173,460;38,93869
 381,50; 7687,991;  174,334;19098,122;39,70483
 382,10; 7754,532;  154,796;18972,842;40,38536
 382,69; 7795,659;  148,411;18954,725;40,66319
 383,28; 7926,381;  175,950;18916,543;41,35638
 383,87; 7953,654;  156,257;18817,684;41,78350
 384,46; 8089,704;  154,026;18687,175;42,81883
 385,05; 8202,897;  194,334;18760,539;43,13516
 385,64; 8277,753;  161,873;18800,073;43,54433
 386,24; 8364,180;  143,257;18689,202;44,32733
 386,83; 8535,235;  181,872;18791,198;44,88804
 387,42; 8749,584;  187,027;18847,354;45,88643
 388,01; 8975,024;  175,872;19030,790;46,66768
 388,60; 9193,495;  174,488;19302,564;47,15062
 389,19; 9376,170;  147,794;19585,188;47,47744
 389,78; 9640,026;  160,641;19742,875;48,40809
 390,37;10007,240;  210,872;20148,460;49,13517
 390,96;10191,135;  181,257;20369,504;49,58270
 391,56;10419,592;  169,871;20426,752;50,59871
 392,15;10693,051;  162,410;20697,820;51,28040
 392,74;10910,853;  147,563;20920,637;51,81366
 393,33;11156,689;  157,794;21195,812;52,28104
 393,92;11466,679;  180,332;21547,336;52,82138
 394,51;11817,798;  148,409;21753,422;54,01241
 395,10;12090,290;  187,946;21973,125;54,63505
 395,69;12289,397;  178,638;22062,414;55,34127
 396,28;12496,268;  180,945;22180,037;55,98105
 396,87;12691,099;  187,406;22212,066;56,77133
 397,46;12928,836;  184,482;22312,288;57,59430
 398,06;13120,544;  189,251;22514,144;57,92320
 398,65;13289,170;  180,172;22560,711;58,57320
 399,24;13551,681;  191,018;22802,205;59,08873
 399,83;13708,267;  181,169;22734,628;59,97793
 400,42;13955,305;  217,090;22979,373;60,35517
 401,01;14157,757;  190,087;22995,087;61,24828
 401,60;14327,508;  197,775;23016,172;61,92255
 402,19;14426,072;  221,157;22987,970;62,39307
 402,78;14547,959;  229,614;22979,760;62,93738
 403,37;14584,429;  209,224;22870,945;63,43386
 403,96;14697,224;  211,681;22675,927;64,48266
 404,55;14791,980;  213,598;22688,617;64,86483
 405,14;14818,634;  198,362;22519,915;65,49845
 405,73;14931,678;  216,663;22322,151;66,56725
 406,32;14951,496;  218,736;22266,543;66,82188
 406,91;14905,809;  212,270;22036,164;67,32776
 407,50;14939,505;  211,190;21858,589;68,03734
 408,09;14934,761;  191,573;21526,878;69,10231
 408,68;14958,920;  210,957;21422,809;69,52700
 409,27;14923,550;  213,497;21213,179;70,04893
 409,86;14936,886;  217,654;21093,623;70,50802
 410,45;15025,570;  244,350;21142,410;70,73011
 411,04;15091,637;  235,892;21005,027;71,52799
 411,63;14941,643;  238,973;20728,095;71,75842
 412,22;14968,456;  231,361;20515,569;72,65304
 412,81;14864,381;  248,132;20245,693;73,09016
 413,40;14680,961;  252,826;19939,565;73,28860
 413,99;14536,475;  268,364;19703,148;73,41533
 414,58;14324,810;  232,210;19356,809;73,68834
 415,17;14303,989;  227,824;19147,564;74,39936
 415,76;14298,530;  217,130;18916,318;75,30488
 416,35;14191,205;  221,669;18849,059;74,99460
 416,94;14351,778;  251,669;18938,677;75,45408
 417,53;14577,793;  228,670;19199,348;75,63843
 418,12;14654,820;  229,055;19185,855;76,09810
 418,71;14956,051;  249,980;19542,806;76,22559
 419,30;15140,651;  232,902;19708,599;76,54539
 419,89;15334,162;  226,440;19861,723;76,94171
 420,48;15610,061;  253,057;20143,030;77,20978
 421,07;15686,750;  238,903;20122,711;77,69059
 421,66;15738,805;  223,673;20134,727;77,92220
 422,25;15784,836;  225,905;20062,293;78,43631
 422,84;15824,169;  250,598;20054,166;78,64023
 423,43;15592,075;  228,520;19729,645;78,78291
 424,02;15449,918;  259,213;19542,557;78,77630
 424,60;15189,531;  228,753;19152,118;79,05982
 425,19;14994,663;  237,983;18881,942;79,14993
 425,78;15002,764;  244,599;18850,271;79,32079
 426,37;14878,782;  257,753;18690,792;79,31969
 426,96;14872,543;  231,676;18590,586;79,74802
 427,55;14712,000;  235,062;18431,651;79,55852
 428,14;14508,240;  212,601;18207,500;79,44273
 428,73;14445,020;  226,369;18042,012;79,80992
 429,32;14400,124;  243,061;18062,110;79,44904
 429,91;14466,570;  267,446;18083,100;79,70027
 430,50;14352,655;  241,754;17920,625;79,81788
 431,08;14270,396;  264,832;17747,215;80,11245
 431,67;14196,751;  288,217;17636,556;80,17214
 432,26;14078,026;  309,986;17422,417;80,45637
 432,85;13848,451;  324,833;17128,614;80,47961
 433,44;13562,830;  320,987;16755,749;80,57216
 434,03;13315,426;  345,296;16480,246;80,38531
 434,62;12925,091;  308,064;16046,651;80,16620
 435,21;12814,098;  317,833;15877,765;80,31054
 435,79;12641,073;  302,372;15751,387;79,86723
 436,38;12612,085;  294,912;15675,802;80,08102
 436,97;12517,267;  300,296;15600,304;79,84944
 437,56;12285,110;  306,067;15323,393;79,76815
 438,15;12186,569;  273,220;15373,984;78,89236
 438,74;12189,110;  298,836;15367,389;78,90787
 439,33;12152,189;  276,451;15361,402;78,72573
 439,91;12189,802;  246,221;15399,475;78,81859
 440,50;12208,576;  288,375;15516,127;78,27946
 441,09;12229,663;  282,914;15620,906;77,88992
 441,68;12184,214;  271,530;15612,087;77,65483
 442,27;12141,067;  264,530;15579,286;77,54964
 442,86;12104,648;  248,147;15552,234;77,47277
 443,44;12118,449;  250,378;15678,991;76,92248
 444,03;12171,667;  304,147;15667,682;77,24473
 444,62;12035,496;  254,840;15566,714;76,93804
 445,21;11847,531;  267,378;15409,568;76,47608
 445,80;11769,469;  283,763;15283,693;76,57173
 446,39;11542,114;  275,302;15009,206;76,46861
 446,97;11346,044;  248,764;14829,512;76,10913
 447,56;11091,696;  255,150;14607,252;75,50495
 448,15;10974,573;  262,610;14492,211;75,27943
 448,74;10741,076;  272,380;14216,047;75,07850
 449,33;10650,121;  274,919;14100,219;75,04504
 449,91;10404,220;  264,074;13933,703;74,18011
 450,50;10249,897;  252,535;13791,595;73,84089
 451,09;10117,222;  277,458;13653,642;73,56182
 451,68;10075,808;  287,997;13562,365;73,73467
 452,26; 9864,840;  273,690;13481,292;72,61841
 452,85; 9772,915;  269,382;13355,885;72,62087
 453,44; 9723,371;  284,229;13344,416;72,27417
 454,03; 9661,775;  254,382;13372,846;71,71109
 454,61; 9589,497;  247,998;13295,765;71,59462
 455,20; 9669,641;  282,691;13519,705;70,91441
 455,79; 9630,190;  283,767;13512,989;70,64983
 456,38; 9665,763;  280,307;13621,648;70,34867
 456,97; 9655,507;  273,538;13732,316;69,70892
 457,55; 9617,591;  268,154;13677,764;69,72192
 458,14; 9561,229;  301,384;13571,674;69,77877
 458,73; 9507,795;  287,231;13564,498;69,44625
 459,31; 9456,546;  298,231;13617,316;68,76084
 459,90; 9439,728;  303,154;13699,421;68,20238
 460,49; 9485,641;  320,846;13770,577;68,14110
 461,08; 9381,097;  267,693;13847,103;67,11193
 461,66; 9400,603;  280,154;13949,330;66,72274
 462,25; 9451,474;  286,001;14054,905;66,56647
 462,84; 9443,070;  307,847;14014,453;66,64832
 463,43; 9288,779;  254,541;13985,829;65,79309
 464,01; 9307,893;  283,541;14008,174;65,75296
 464,60; 9210,047;  313,233;13914,776;65,41033
 465,19; 9064,295;  267,541;13666,993;65,65010
 465,77; 8995,481;  277,388;13645,074;65,21767
 466,36; 8878,950;  295,387;13538,028;64,81761
 466,95; 8644,744;  283,541;13268,050;64,39368
 467,53; 8432,158;  282,388;12991,519;64,12532
 468,12; 8243,732;  311,465;12780,764;63,61437
 468,71; 8019,226;  290,695;12519,817;63,19776
 469,29; 7854,407;  271,927;12258,414;63,25856
 469,88; 7691,689;  279,081;12066,171;62,88752
 470,47; 7732,223;  329,082;12242,536;62,14101
 471,06; 7649,260;  302,390;12120,336;62,16706
 471,64; 7661,560;  297,774;12299,895;61,35404
 472,23; 7640,833;  263,698;12297,375;61,30408
 472,81; 7624,456;  283,852;12422,720;60,47190
 473,40; 7670,433;  285,852;12554,271;60,19179
 473,99; 7748,314;  345,699;12738,207;59,73460
 474,57; 7793,627;  291,083;12822,779;59,86854
 475,16; 7844,724;  310,006;12987,369;59,43443
 475,75; 7914,480;  313,622;13064,535;59,61030
 476,33; 7918,336;  318,776;13200,156;58,99648
 476,92; 7873,289;  320,699;13232,959;58,49162
 477,51; 7906,701;  304,238;13274,780;58,61330
 478,09; 7896,540;  297,853;13241,036;58,70802
 478,68; 7759,942;  314,853;13194,701;57,80416
 479,27; 7778,577;  338,237;13286,752;57,46095
 479,85; 7707,999;  304,546;13250,330;57,18814
 480,44; 7744,584;  284,161;13482,359;56,52607
 481,02; 8431,135;  303,085;15318,995;54,12959
 481,61; 9464,229;  322,008;16982,727;54,87291
 482,20;10038,299;  321,469;17993,988;54,98271
 482,78;10464,525;  350,777;18693,940;55,13634
 483,37;10731,152;  328,316;19128,672;55,33319
 483,95;10781,728;  357,163;19354,782;54,87301
 484,54;10832,641;  360,623;19489,224;54,74534
 485,13;10781,092;  334,702;19283,272;55,13023
 485,71;10618,691;  310,317;19077,145;54,92869
 486,30;10448,452;  347,548;18842,170;54,61536
 486,88;10262,192;  367,779;18319,504;55,11678
 487,47; 9879,470;  365,471;17668,607;54,98424
 488,05; 9377,457;  355,318;16738,834;55,06840
 488,64; 8675,963;  360,164;15456,159;55,08613
 489,23; 7675,589;  361,779;13396,604;56,10976
 489,81; 6578,209;  356,010;11829,565;54,23078
 490,40; 6199,338;  319,010;11393,164;53,09957
 490,98; 6053,092;  297,164;11155,449;53,00955
 491,57; 6021,894;  335,010;11071,665;52,96700
 492,15; 5946,194;  318,703;11051,625;52,43205
 492,74; 5903,718;  331,856;10970,659;52,37301
 493,32; 5842,772;  323,087;10811,823;52,62488
 493,91; 5744,985;  310,472;10719,403;52,21010
 494,50; 5694,722;  323,089;10708,045;51,72514
 495,08; 5669,248;  291,704;10712,573;51,60360
 495,67; 5685,628;  322,703;10659,900;51,87988
 496,25; 5546,844;  268,396;10586,039;51,15943
 496,84; 5511,018;  286,395;10522,241;51,04241
 497,42; 5500,449;  277,935;10462,589;51,27827
 498,01; 5434,045;  293,857;10421,051;50,75629
 498,59; 5381,807;  256,319;10385,093;50,60324
 499,18; 5369,067;  281,626;10324,208;50,65869
 499,76; 5338,469;  275,165;10235,417;50,83510
 500,35; 5187,221;  277,858;10074,466;50,11288
 500,93; 5141,566;  263,704;10030,174;49,94498
 501,52; 5076,566;  272,781; 9983,176;49,47054
 502,10; 5080,159;  289,782; 9974,348;49,46403
 502,69; 5006,742;  268,782; 9793,822;49,74215
 503,27; 4858,605;  257,550; 9571,845;49,39778
 503,86; 4820,149;  272,090; 9561,129;48,96156
 504,44; 4724,201;  250,167; 9440,116;48,68399
 505,03; 4608,141;  247,782; 9203,546;48,68774
 505,61; 4539,429;  245,859; 9099,096;48,49718
 506,19; 4461,523;  265,859; 8971,989;48,19207
 506,78; 4362,394;  243,091; 8756,487;48,38613
 507,36; 4284,171;  252,244; 8566,215;48,49581
 507,95; 4193,488;  270,399; 8487,616;47,74231
 508,53; 4119,674;  257,552; 8399,680;47,43382
 509,12; 4044,915;  258,014; 8283,370;47,18670
 509,70; 4006,399;  272,783; 8088,069;47,77324
 510,29; 3920,205;  277,015; 7980,491;47,29281
 510,87; 3830,640;  256,168; 7758,591;47,64423
 511,46; 3720,114;  252,014; 7607,758;47,14818
 512,04; 3649,426;  263,168; 7505,417;46,75700
 512,62; 3586,106;  258,322; 7359,014;46,86563
 513,21; 3464,242;  234,861; 7188,830;46,43940
 513,79; 3482,810;  260,785; 7095,679;47,14083
 514,38; 3370,711;  233,862; 6965,129;46,60117
 514,96; 3329,210;  262,323; 6845,465;46,58698
 515,54; 3220,520;  235,169; 6743,642;45,86869
 516,13; 3206,843;  256,554; 6631,363;46,28042
 516,71; 3147,726;  249,170; 6510,942;46,28971
 517,30; 3084,852;  243,632; 6406,221;46,10433
 517,88; 3037,927;  264,786; 6356,588;45,52251
 518,46; 2945,354;  246,017; 6198,811;45,34571
 519,05; 2939,832;  255,632; 6205,786;45,11144
 519,63; 2915,135;  262,017; 6169,286;44,91277
 520,22; 2843,609;  258,787; 6085,080;44,36478
 520,80; 2832,554;  254,325; 6071,161;44,32357
 521,38; 2836,222;  273,479; 6022,899;44,57394
 521,97; 2807,110;  243,403; 5969,290;44,77398
 522,55; 2780,135;  258,787; 5957,694;44,24265
 523,13; 2769,189;  246,018; 5964,236;44,12513
 523,72; 2766,736;  242,863; 5936,485;44,32807
 524,30; 2806,393;  261,019; 6077,744;43,75958
 524,89; 2793,979;  247,172; 6092,909;43,56690
 525,47; 2809,028;  249,634; 6207,271;42,95989
 526,05; 2817,983;  220,326; 6261,190;43,00141
 526,64; 2885,606;  251,865; 6368,939;43,05557
 527,22; 2930,941;  253,634; 6522,201;42,71004
 527,80; 2988,321;  278,019; 6634,172;42,64060
 528,39; 2983,872;  247,250; 6692,726;42,45802
 528,97; 3031,083;  259,865; 6919,122;41,61451
 529,55; 3118,301;  263,403; 7014,633;42,28708
 530,14; 3176,023;  267,942; 7250,174;41,64973
 530,72; 3213,306;  251,250; 7301,917;42,01101
 531,30; 3261,353;  223,866; 7446,640;42,05430
 531,89; 3271,857;  255,173; 7502,550;41,62449
 532,47; 3347,802;  285,635; 7603,403;41,84564
 533,05; 3325,713;  276,711; 7658,531;41,30420
 533,63; 3355,579;  287,097; 7778,226;40,96154
 534,22; 3345,938;  257,866; 7741,053;41,26681
 534,80; 3390,447;  283,943; 7831,393;41,15965
 535,38; 3484,273;  327,020; 7893,162;41,72871
 535,97; 3414,291;  269,250; 7797,748;41,77514
 536,55; 3467,871;  313,097; 7903,673;41,56172
 537,13; 3445,914;  311,096; 7869,410;41,47509
 537,71; 3485,814;  362,481; 7982,253;40,98986
 538,30; 3493,824;  364,558; 8048,950;40,72236
 538,88; 3530,789;  400,021; 8129,492;40,50430
 539,46; 3669,318;  441,251; 8299,336;41,07956
 540,05; 3706,879;  457,944; 8431,960;40,74402
 540,63; 3795,616;  504,097; 8605,735;40,62781
 541,21; 3873,032;  527,482; 8763,890;40,61904
 541,79; 3931,459;  560,328; 8855,955;40,63745
 542,38; 3961,933;  587,790; 8999,649;40,11175
 542,96; 4046,303;  584,021; 9218,023;40,10054
 543,54; 4109,874;  603,944; 9379,239;39,95227
 544,12; 4123,372;  579,790; 9506,657;39,69570
 544,70; 4176,204;  556,867; 9558,483;40,20763
 545,29; 4181,789;  567,097; 9751,103;39,35856
 545,87; 4208,382;  546,021; 9795,416;39,59568
 546,45; 4180,777;  502,174; 9721,323;39,90176
 547,03; 4173,122;  484,944; 9852,666;39,37113
 547,62; 4240,583;  463,790;10005,440;39,58218
 548,20; 4276,682;  465,098;10194,526;39,17583
 548,78; 4260,017;  430,714;10273,585;38,90433
 549,36; 4314,300;  408,945;10501,640;38,69487
 549,94; 4348,859;  374,944;10664,140;38,62221
 550,53; 4430,945;  380,714;10876,768;38,58813
 551,11; 4454,511;  353,253;11063,969;38,29117
 551,69; 4544,392;  345,176;11348,205;38,16418
 552,27; 4612,697;  321,637;11596,180;38,05973
 552,85; 4729,672;  327,792;11920,405;37,97143
 553,44; 4841,920;  320,945;12230,058;37,96232
 554,02; 4956,044;  332,791;12571,469;37,77576
 554,60; 4997,824;  282,022;12883,928;37,42133
 555,18; 5163,958;  313,637;13266,935;37,44468
 555,76; 5254,831;  301,868;13585,206;37,28704
 556,34; 5409,221;  301,561;14024,638;37,21949
 556,93; 5499,362;  286,868;14331,075;37,11491
 557,51; 5621,863;  283,561;14675,753;37,09165
 558,09; 5778,156;  309,868;15061,248;37,06967
 558,67; 5863,469;  297,100;15338,921;37,00595
 559,25; 5987,950;  318,484;15667,133;36,93788
 559,83; 6093,394;  293,946;15947,559;37,04862
 560,41; 6161,518;  290,638;16300,028;36,67148
 561,00; 6321,119;  290,100;16663,395;36,83448
 561,58; 6360,575;  294,023;16859,272;36,62216
 562,16; 6465,794;  282,792;17198,564;36,55170
 562,74; 6579,404;  261,330;17469,141;36,71632
 563,32; 6687,094;  262,254;17898,073;36,43063
 563,90; 6839,255;  281,177;18331,197;36,33280
 564,48; 6949,893;  297,407;18661,955;36,22461
 565,06; 7163,635;  288,869;19340,160;36,08556
 565,65; 7389,123;  284,178;19949,599;36,12913
 566,23; 7654,017;  326,792;20678,222;36,00349
 566,81; 7913,111;  285,254;21412,415;36,10451
 567,39; 8189,736;  287,562;22234,190;36,00633
 567,97; 8370,699;  301,715;22862,457;35,76560
 568,55; 8702,724;  299,485;23599,638;36,06517
 569,13; 8881,275;  289,331;24319,105;35,75541
 569,71; 9235,109;  290,715;25220,847;35,87785
 570,29; 9599,968;  313,330;26080,774;36,04020
 570,87; 9800,332;  315,945;26772,716;35,84862
 571,45;10008,560;  318,946;27435,332;35,73343
 572,03;10085,181;  263,947;27823,993;35,63577
 572,61;10347,483;  274,177;28535,260;35,64374
 573,20;10597,233;  294,715;29149,572;35,70462
 573,78;10810,957;  292,946;29730,040;35,73047
 574,36;10933,545;  298,946;30153,385;35,62150
 574,94;11053,240;  324,408;30560,259;35,48381
 575,52;11109,845;  295,332;30773,665;35,48263
 576,10;11300,903;  357,101;31384,443;35,27148
 576,68;11456,898;  330,485;31964,244;35,17259
 577,26;11690,550;  347,102;32544,527;35,23092
 577,84;11864,002;  352,716;32928,043;35,33744
 578,42;11941,553;  378,793;33129,451;35,30543
 579,00;11915,744;  358,100;33314,085;35,06994
 579,58;12034,481;  382,947;33482,867;35,20109
 580,16;12001,791;  365,947;33531,044;35,08461
 580,74;12063,573;  346,870;33760,209;35,06594
 581,32;12028,171;  358,331;33807,928;34,88783
 581,90;11972,781;  372,947;33736,282;34,76821
 582,48;12010,039;  384,178;33939,242;34,64711
 583,06;12001,756;  391,178;34076,180;34,46809
 583,64;11993,436;  370,101;34097,862;34,46222
 584,22;11935,915;  379,255;33869,154;34,50790
 584,80;11820,580;  401,639;33647,566;34,34689
 585,38;11586,756;  385,869;33384,389;33,94361
 585,96;11644,828;  368,793;33436,601;34,09974
 586,54;11582,667;  383,870;33576,491;33,73881
 587,12;11573,538;  355,793;33627,737;33,71533
 587,70;11675,071;  377,485;33819,381;33,78273
 588,28;11584,161;  381,563;33897,789;33,42440
 588,86;11608,957;  373,947;33906,444;33,50484
 589,44;11594,394;  355,102;34122,593;33,28436
 590,02;11654,235;  355,717;34262,708;33,32209
 590,59;11662,734;  341,255;34531,575;33,11311
 591,17;11730,984;  339,795;34596,049;33,25287
 591,75;11677,200;  336,487;34831,551;32,87634
 592,33;11770,049;  358,025;35062,795;32,88316
 592,91;11784,398;  314,179;35214,946;32,86524
 593,49;11804,962;  315,795;35574,281;32,58554
 594,07;11845,875;  323,180;35758,749;32,51731
 594,65;11895,731;  331,717;35779,713;32,62248
 595,23;11945,267;  330,948;36117,010;32,45487
 595,81;11904,451;  317,717;36234,991;32,25950
 596,39;11929,813;  324,333;36308,221;32,25188
 596,97;11902,671;  331,179;36680,164;31,83443
 597,55;11879,223;  308,563;36482,233;31,98641
 598,12;11783,530;  294,026;36523,492;31,71315
 598,70;11807,202;  297,487;36596,499;31,70807
 599,28;11868,793;  313,718;36743,018;31,71918
 599,86;11822,490;  303,564;36780,898;31,57831
 600,44;11781,128;  277,256;36927,366;31,38837
 601,02;11858,582;  325,334;36933,946;31,50419
 601,60;11758,518;  312,871;36922,159;31,26432
 602,18;11728,475;  289,103;36981,340;31,17655
 602,75;11691,515;  275,025;37051,519;31,04290
 603,33;11638,289;  313,564;37070,800;30,80951
 603,91;11542,081;  296,488;37072,278;30,57879
 604,49;11605,369;  310,872;37082,972;30,71485
 605,07;11528,592;  307,641;37095,449;30,50182
 605,65;11544,647;  329,872;37204,690;30,41310
 606,23;11557,505;  394,024;37306,360;30,24323
 606,80;11525,634;  422,640;37310,506;30,09931
 607,38;11526,039;  461,641;37379,826;29,97005
 607,96;11540,624;  492,640;37482,436;29,86765
 608,54;11513,535;  556,487;37526,139;29,63795
 609,12;11480,763;  554,717;37539,794;29,54177
 609,70;11484,582;  585,872;37571,002;29,46782
 610,27;11530,004;  597,563;37680,862;29,48077
 610,85;11506,870;  587,025;37716,631;29,41007
 611,43;11426,031;  604,102;37724,916;29,15326
 612,01;11385,552;  570,794;37411,170;29,35572
 612,59;11342,565;  551,795;37424,572;29,26487
 613,16;11231,411;  531,255;37421,628;29,00528
 613,74;11198,649;  505,718;37292,857;29,06704
 614,32;11155,289;  468,026;37273,882;29,03686
 614,90;11070,088;  428,102;37115,233;29,00741
 615,48;10917,625;  383,332;36769,585;28,95130
 616,05;10842,260;  373,409;36769,797;28,76343
 616,63;10800,049;  379,947;36526,855;28,82709
 617,21;10769,602;  381,948;36544,048;28,72525
 617,79;10687,113;  352,025;36390,400;28,67801
 618,36;10671,173;  360,717;36369,821;28,63291
 618,94;10466,227;  310,332;36014,423;28,44463
 619,52;10389,952;  339,255;35777,641;28,36105
 620,10;10342,619;  320,794;35728,557;28,30403
 620,67;10228,947;  328,255;35576,143;28,08875
 621,25;10210,116;  334,564;35564,884;28,03140
 621,83;10136,553;  327,948;35450,545;27,92676
 622,41;10137,379;  357,486;35413,328;27,89804
 622,98; 9975,577;  339,486;35204,247;27,63848
 623,56; 9933,101;  327,639;35200,449;27,54427
 624,14; 9879,540;  305,564;35064,166;27,54419
 624,72; 9833,098;  324,409;34963,520;27,45073
 625,29; 9779,076;  296,716;35012,737;27,31407
 625,87; 9785,917;  345,871;34931,181;27,29496
 626,45; 9676,503;  298,870;34875,107;27,12161
 627,02; 9590,681;  311,717;34781,840;26,91886
 627,60; 9520,733;  294,949;34693,450;26,82031
 628,18; 9475,686;  284,332;34841,641;26,59742
 628,76; 9444,590;  283,332;34808,566;26,53496
 629,33; 9412,925;  313,178;34893,070;26,31514
 629,91; 9392,927;  300,871;34831,480;26,33043
 630,49; 9373,481;  319,024;34971,804;26,12909
 631,06; 9407,081;  313,178;35078,391;26,15805
 631,64; 9348,131;  313,101;35084,502;25,98408
 632,22; 9265,188;  271,947;34986,358;25,90636
 632,79; 9290,317;  299,408;35208,261;25,75538
 633,37; 9303,272;  278,794;35387,977;25,70404
 633,95; 9280,612;  289,409;35393,024;25,61333
 634,52; 9247,012;  282,025;35503,450;25,45322
 635,10; 9220,845;  286,256;35479,828;25,38699
 635,68; 9200,436;  284,408;35690,864;25,18193
 636,25; 9159,732;  283,639;35719,615;25,04825
 636,83; 9179,513;  254,486;35938,950;25,01096
 637,41; 9211,915;  273,793;36007,906;25,01286
 637,98; 9167,014;  286,562;36122,062;24,78116
 638,56; 9151,491;  289,485;36144,850;24,71598
 639,13; 9107,575;  275,024;36255,306;24,54831
 639,71; 9102,937;  289,255;36347,691;24,44277
 640,29; 8964,257;  252,717;36144,876;24,27143
 640,86; 8967,743;  266,024;36367,752;24,10333
 641,44; 8939,613;  271,563;36536,705;23,90188
 642,02; 8876,868;  292,486;36372,811;23,79242
 642,59; 8862,815;  263,409;36518,918;23,71890
 643,17; 8839,224;  266,409;36512,332;23,65180
 643,74; 8804,479;  264,255;36535,361;23,54553
 644,32; 8859,811;  285,563;36407,237;23,73713
 644,89; 8812,142;  275,794;36465,728;23,58763
 645,47; 8785,782;  301,871;36483,373;23,44820
 646,05; 8672,268;  260,255;36403,864;23,27386
 646,62; 8648,907;  277,101;36363,509;23,19933
 647,20; 8617,547;  272,255;36558,616;22,99842
 647,77; 8580,032;  258,486;36456,645;22,98887
 648,35; 8504,595;  242,025;36263,675;22,93779
 648,92; 8468,234;  285,255;36337,166;22,69777
 649,50; 8416,028;  244,948;36268,195;22,68280
 650,08; 8410,206;  240,102;36146,610;22,75383
 650,65; 8350,922;  255,794;36414,178;22,38797
 651,23; 8511,485;  235,871;37371,361;22,28492
 651,80; 8700,355;  253,025;38148,083;22,29138
 652,38; 8780,225;  263,871;38457,651;22,29775
 652,95; 8816,019;  222,256;38802,373;22,27511
 653,53; 8826,581;  258,332;39008,787;22,11135
 654,10; 8850,298;  276,563;39204,201;22,02480
 654,68; 8765,630;  240,948;38966,692;22,01296
 655,25; 8728,961;  238,563;39112,645;21,84077
 655,83; 8653,601;  250,640;39190,136;21,57953
 656,40; 8678,625;  276,025;39135,781;21,62288
 656,98; 8607,957;  251,794;39020,118;21,55410
 657,55; 8528,596;  260,717;38890,378;21,40293
 658,13; 8429,390;  243,563;38524,331;21,38365
 658,70; 8366,952;  259,871;38232,130;21,35001
 659,28; 8103,669;  244,794;37292,775;21,21269
 659,85; 7889,231;  256,794;36790,035;20,89176
 660,43; 7893,025;  272,640;36842,603;20,83782
 661,00; 7869,049;  245,640;37033,940;20,72237
 661,58; 7868,150;  244,179;37265,047;20,59371
 662,15; 7895,713;  230,871;37462,615;20,58685
 662,73; 7980,506;  290,794;37841,644;20,47813
 663,30; 7924,145;  252,948;37984,905;20,33077
 663,88; 7908,400;  258,256;38130,242;20,20001
 664,45; 7863,963;  250,256;38406,348;19,95411
 665,03; 7971,526;  256,641;38698,147;20,06915
 665,60; 8063,934;  297,564;39203,331;19,96200
 666,17; 7992,035;  266,641;39281,899;19,80096
 666,75; 8051,213;  254,641;39616,928;19,80721
 667,32; 8099,776;  268,641;39890,496;19,76469
 667,90; 8082,339;  262,025;40139,218;19,61099
 668,47; 8104,286;  268,795;40390,171;19,52947
 669,05; 8103,310;  255,641;40646,662;19,42924
 669,62; 8129,257;  234,564;40704,076;19,50776
 670,19; 8060,897;  237,410;40810,644;19,28238
 670,77; 8064,305;  262,718;41151,673;19,07994
 671,34; 8010,483;  246,641;40857,242;19,11777
 671,92; 8052,200;  245,256;41280,040;19,02518
 672,49; 8033,070;  272,102;41219,916;18,95331
 673,06; 7941,248;  225,025;41408,792;18,73608
 673,64; 7891,734;  242,025;41259,590;18,64984
 674,21; 7869,835;  234,564;41124,928;18,67254
 674,79; 7918,628;  257,102;41488,803;18,58164
 675,36; 7896,729;  257,872;41607,218;18,47395
 675,93; 7818,446;  242,872;41375,786;18,41730
 676,51; 7847,393;  257,026;41598,277;18,36027
 677,08; 7799,494;  257,872;41691,614;18,20164
 677,65; 7793,518;  263,487;41835,490;18,11323
 678,23; 7806,388;  253,103;42044,519;18,07377
 678,80; 7768,720;  242,487;42217,241;17,93038
 679,38; 7692,898;  235,641;42347,194;17,70834
 679,95; 7783,461;  248,103;42539,377;17,81776
 680,52; 7744,793;  244,564;42854,099;17,60223
 681,10; 7820,586;  248,872;43315,513;17,58139
 681,67; 7824,072;  255,564;43660,697;17,43690
 682,24; 7818,634;  232,487;43679,341;17,46075
 682,82; 7862,735;  222,718;44193,833;17,37508
 683,39; 7914,759;  273,487;44550,170;17,25800
 683,96; 7883,860;  240,180;44680,738;17,19979
 684,54; 7894,961;  228,257;45008,767;17,12063
 685,11; 7971,139;  250,872;45270,951;17,14850
 685,68; 8007,702;  237,718;45817,903;17,04685
 686,25; 7969,034;  217,949;45772,625;17,01490
 686,83; 8009,443;  234,103;45986,347;16,99444
 687,40; 7992,774;  218,026;46307,454;16,86883
 687,97; 8067,568;  260,872;46582,099;16,85339
 688,55; 8049,592;  213,641;46655,128;16,87274
 689,12; 8064,462;  199,257;46942,311;16,82647
 689,69; 8105,333;  228,411;46987,956;16,84559
 690,26; 8067,587;  235,949;47032,909;16,73536
 690,84; 8094,073;  235,565;47260,939;16,71121
 691,41; 8093,174;  252,103;47316,584;16,66027
 691,98; 8130,352;  247,642;47707,075;16,60937
 692,56; 8114,299;  220,334;47711,873;16,62184
 693,13; 8146,323;  292,334;47773,518;16,54127
 693,70; 8095,578;  253,949;47925,240;16,44937
 694,27; 8082,603;  242,334;48087,116;16,38688
 694,84; 8104,704;  236,642;48209,453;16,40109
 695,42; 8134,497;  271,334;48307,867;16,36913
 695,99; 8111,906;  247,872;48456,051;16,31265
 696,56; 8036,545;  234,872;48261,926;16,24433
 697,13; 8119,800;  257,488;48843,418;16,18228
 697,71; 8085,901;  215,642;48735,832;16,22059
 698,28; 8123,771;  241,642;49050,630;16,14893
 698,85; 8075,642;  212,719;49156,506;16,06521
 699,42; 8053,512;  222,257;49245,382;15,97461
 699,99; 8127,767;  253,796;49343,334;16,04002
 700,57; 8118,868;  253,488;49435,518;15,99239
 701,14; 8111,661;  234,257;49521,394;15,98268
 701,71; 8167,301;  255,180;49731,731;15,99166
 702,28; 8203,171;  237,334;49772,991;16,08102
 702,85; 8154,118;  254,873;49842,713;15,92980
 703,43; 8211,989;  261,950;50054,896;15,96620
 704,00; 8248,474;  272,411;50188,695;15,97888
 704,57; 8167,345;  256,411;50230,186;15,83017
 705,14; 8229,676;  285,796;50395,370;15,85302
 705,71; 8265,777;  281,104;50459,630;15,91253
 706,28; 8186,725;  258,411;50428,660;15,80282
 706,86; 8263,441;  286,411;50726,766;15,81478
 707,43; 8203,311;  288,411;50512,180;15,75927
 708,00; 8208,874;  274,104;50540,825;15,78534
 708,57; 8098,437;  254,411;50508,932;15,60860
 709,14; 8149,999;  275,258;50590,423;15,65083
 709,71; 8156,177;  266,565;50679,606;15,64994
 710,28; 8143,894;  247,258;50823,636;15,61329
 710,86; 8172,149;  264,565;51017,127;15,58066
 711,43; 8184,096;  275,796;50994,079;15,59260
 712,00; 8167,197;  260,258;51132,340;15,54279
 712,57; 8225,375;  260,873;51295,138;15,60618
 713,14; 8193,937;  252,719;51329,091;15,54773
 713,71; 8186,346;  271,488;51252,813;15,52501
 714,28; 8185,524;  258,412;51254,227;15,54463
 714,85; 8166,394;  238,412;51039,257;15,60601
 715,42; 8151,265;  245,027;51211,517;15,51262
 716,00; 8228,981;  276,412;51335,470;15,57524
 716,57; 8166,313;  237,796;51470,884;15,47538
 717,14; 8152,491;  236,412;51438,760;15,46038
 717,71; 8130,438;  223,796;51422,481;15,44306
 718,28; 8214,616;  252,181;51575,819;15,51417
 718,85; 8162,025;  231,642;51546,233;15,45444
 719,42; 8206,203;  255,181;51709,262;15,45266
 719,99; 8142,535;  242,181;51471,138;15,42166
 720,56; 8175,097;  249,643;51755,014;15,38763
 721,13; 8207,737;  235,643;51894,043;15,43233
 721,70; 8184,453;  234,027;51750,381;15,43282
 722,27; 8227,631;  250,104;51793,949;15,47717
 722,84; 8294,963;  272,643;51888,132;15,54247
 723,41; 8239,603;  228,489;51968,700;15,48334
 723,98; 8291,473;  248,873;52073,037;15,51901
 724,55; 8328,497;  271,104;52246,298;15,50238
 725,12; 8255,290;  200,104;52149,404;15,50586
 725,69; 8317,853;  231,797;52368,510;15,50933
 726,27; 8308,800;  243,181;52399,925;15,46419
 726,84; 8393,901;  241,181;52682,800;15,54628
 727,41; 8426,925;  256,412;52616,445;15,60448
 727,98; 8463,642;  265,027;53006,783;15,54483
 728,55; 8513,820;  280,412;52754,504;15,69042
 729,12; 8492,382;  221,643;52956,995;15,68348
 729,69; 8520,406;  261,335;53028,102;15,65203
 730,26; 8611,508;  262,720;53308,132;15,73894
 730,82; 8563,839;  254,797;53184,930;15,69813
 731,39; 8607,633;  236,566;53269,883;15,78454
 731,96; 8663,041;  228,412;53613,451;15,79961
 732,53; 8716,527;  252,412;53726,096;15,82856
 733,10; 8713,321;  261,951;53735,510;15,80476
 733,67; 8834,960;  255,951;54002,232;15,96205
 734,24; 8810,215;  237,643;53779,877;16,01086
 734,81; 8836,778;  265,181;53850,753;15,99609
 735,38; 8800,186;  258,335;53510,782;16,04030
 735,95; 8799,133;  251,028;53377,735;16,09004
 736,52; 8880,081;  263,643;53533,995;16,17492
 737,09; 8860,951;  260,720;53275,486;16,22233
 737,66; 8946,283;  297,720;53398,131;16,28719
 738,23; 8951,845;  249,028;53464,545;16,35391
 738,80; 9098,331;  284,643;53748,344;16,48537
 739,37; 9119,817;  275,182;53944,066;16,48001
 739,94; 9149,764;  263,182;54030,865;16,52774
 740,51; 9254,096;  307,643;53980,971;16,66834
 741,07; 9203,889;  245,643;53904,231;16,69490
 741,64; 9200,144;  277,951;54078,415;16,58386
 742,21; 9292,784;  252,105;54203,291;16,75715
 742,78; 9235,192;  229,336;54034,166;16,73801
 743,35; 9310,755;  249,105;54354,427;16,74817
 743,92; 9376,164;  274,566;54428,995;16,80675
 744,49; 9411,649;  250,874;54328,024;16,94020
 745,06; 9370,750;  244,182;54277,669;16,89058
 745,63; 9364,313;  237,336;54250,699;16,89763
 746,19; 9432,183;  236,105;54194,728;17,04283
 746,76; 9481,284;  255,643;54330,604;17,06084
 747,33; 9433,308;  237,951;54267,557;17,01911
 747,90; 9564,563;  270,951;54414,971;17,16461
 748,47; 9588,664;  260,105;54308,077;17,25978
 749,04; 9611,458;  255,644;54397,414;17,28021
 749,61; 9662,713;  274,951;54310,367;17,37335
 750,17; 9694,737;  269,259;54364,627;17,42382
 750,74; 9736,684;  275,644;54258,734;17,52593
 751,31; 9639,170;  239,721;54096,533;17,45267
 751,88; 9687,578;  231,105;54064,639;17,56614
 752,45; 9805,449;  249,490;54176,976;17,72002
 753,02; 9826,781;  247,567;54046,467;17,80559
 753,58; 9837,189;  244,721;53948,882;17,86169
 754,15; 9888,213;  248,413;54144,373;17,88594
 754,72; 9894,468;  232,413;53798,941;18,03749
 755,29; 9857,954;  235,644;53757,740;17,97820
 755,86; 9947,978;  244,182;53816,692;18,11339
 756,42;10017,618;  248,259;53672,491;18,28638
 756,99; 9985,565;  213,952;53711,059;18,26569
 757,56;10045,512;  218,875;53750,550;18,35668
 758,13;10076,536;  189,952;53569,118;18,52143
 758,70;10139,022;  207,798;53646,840;18,58421
 759,26;10161,123;  187,567;53640,716;18,65850
 759,83;10231,686;  202,259;53748,745;18,73032
 760,40;10227,325;  191,721;53546,698;18,80912
 760,97;10217,042;  194,875;53715,727;18,72572
 761,53;10254,527;  177,490;53277,603;18,97743
 762,10;10254,782;  172,106;53148,171;19,03251
 762,67;10324,037;  214,029;53222,970;19,07227
 763,24;10272,830;  166,567;52805,846;19,19909
 763,80;10334,316;  194,721;52941,721;19,22307
 764,37;10396,494;  203,798;52877,366;19,35068
 764,94;10353,595;  188,875;52464,165;19,44460
 765,50;10390,696;  185,952;52357,502;19,55998
 766,07;10489,413;  226,336;52546,686;19,61584
 766,64;10493,437;  212,413;52185,331;19,78150
 767,21;10540,769;  208,490;51985,437;19,95536
 767,77;10582,716;  231,183;51931,005;20,02238
 768,34;10646,432;  230,952;51842,265;20,18061
 768,91;10661,764;  231,798;51800,064;20,22555
 769,47;10764,788;  230,875;51802,248;20,42589
 770,04;10765,735;  240,029;51611,662;20,48934
 770,61;10776,759;  220,106;51433,768;20,61296
 771,18;10778,937;  215,183;51327,798;20,66761
 771,74;10883,654;  230,798;51420,135;20,81069
 772,31;10924,063;  233,029;51218,472;20,96880
 772,88;10915,010;  216,029;51003,425;21,06621
 773,44;10866,726;  213,568;50748,993;21,08058
 774,01;11034,827;  230,260;50902,484;21,32247
 774,58;10994,005;  218,798;50579,206;21,39619
 775,14;11092,260;  220,029;50682,466;21,54520
 775,71;11082,592;  218,260;50524,496;21,59639
 776,27;11187,155;  253,645;50421,141;21,79401
 776,84;11185,256;  263,568;50475,786;21,75106
 777,41;11203,511;  229,952;50344,431;21,89698
 777,97;11211,689;  218,722;50052,460;22,05929
 778,54;11249,097;  234,183;50233,643;22,03007
 779,11;11337,660;  247,183;50042,365;22,27219
 779,67;11348,299;  216,491;50041,703;22,34172
 780,24;11449,477;  231,106;49856,655;22,60604
 780,80;11493,886;  252,029;49890,146;22,64763
 781,37;11546,910;  245,568;49794,560;22,80842
 781,94;11484,858;  230,568;49558,513;22,81524
 782,50;11630,189;  237,337;49458,312;23,14634
 783,07;11655,521;  259,029;49630,418;23,08319
 783,63;11678,007;  217,799;49306,063;23,34613
 784,20;11779,416;  246,106;49188,324;23,56515
 784,77;11741,824;  242,260;49076,661;23,54808
 785,33;11835,310;  219,568;48788,613;23,91594
 785,90;11870,565;  232,568;48798,105;23,96349
 786,46;11939,128;  249,953;48682,596;24,13491
 787,03;11938,998;  224,568;48553,087;24,23917
 787,59;11977,022;  223,183;48395,347;24,39965
 788,16;12011,354;  242,876;48427,223;24,42386
 788,73;12051,301;  252,491;48291,714;24,56078
 789,29;12031,710;  230,260;47965,820;24,72255
 789,86;12087,580;  242,107;47806,696;24,90397
 790,42;12066,527;  237,799;47782,187;24,87934
 790,99;12120,705;  249,953;47390,371;25,18169
 791,55;12111,422;  225,491;47342,708;25,22630
 792,12;12195,369;  242,184;47204,276;25,45284
 792,68;12150,162;  239,491;46999,536;25,47190
 793,25;12173,494;  241,568;46866,873;25,59109
 793,81;12167,672;  265,645;46431,134;25,78122
 794,38;12133,312;  213,568;46336,240;25,84357
 794,94;12196,951;  216,645;46150,500;26,08165
 795,51;12191,821;  239,876;45838,453;26,21122
 796,07;12157,230;  240,414;45637,944;26,24992
 796,64;12245,408;  255,953;45735,589;26,36225
 797,20;12225,048;  247,645;45281,619;26,59637
 797,77;12159,533;  222,030;44940,187;26,69498
 798,33;12200,404;  221,645;44821,370;26,85837
 798,90;12272,658;  262,415;44707,323;27,02277
 799,46;12242,221;  224,492;44268,429;27,28577
 800,03;12230,630;  231,953;44114,074;27,34297
 800,59;12275,577;  238,568;43861,873;27,59307
 801,15;12300,063;  244,030;43687,826;27,75087
 801,72;12309,933;  242,722;43469,163;27,91627
 802,28;12301,265;  262,722;43109,500;28,09673
 802,85;12327,135;  235,722;42915,376;28,33063
 803,41;12306,390;  236,261;42795,098;28,36104
 803,98;12254,876;  225,646;42440,819;28,49504
 804,54;12248,284;  239,107;42121,003;28,67391
 805,11;12287,770;  244,415;42022,186;28,82718
 805,67;12341,563;  254,030;41902,985;29,02242
 806,23;12251,126;  243,261;41480,399;29,11906
 806,80;12315,919;  250,030;41395,736;29,32478
 807,36;12358,328;  263,799;41287,997;29,48145
 807,93;12339,583;  251,261;41077,488;29,60921
 808,49;12279,453;  222,492;40710,748;29,77891
 809,05;12272,247;  213,261;40645,932;29,82486
 809,62;12372,348;  234,030;40570,884;30,09238
 810,18;12437,372;  242,492;40343,606;30,41033
 810,74;12356,934;  213,184;40125,251;30,42626
 811,31;12376,574;  207,646;39957,281;30,61394
 811,87;12391,137;  211,338;39817,618;30,75219
 812,44;12488,468;  259,030;39809,417;30,92116
 813,00;12434,800;  195,030;39443,523;31,18532
 813,56;12583,824;  242,415;39555,706;31,39246
 814,13;12580,772;  236,107;39380,582;31,53616
 814,69;12602,026;  236,261;39266,612;31,68243
 815,25;12588,589;  204,723;38783,410;32,10028
 815,82;12645,152;  248,107;38800,979;32,15596
 816,38;12691,330;  249,031;38621,393;32,42516
 816,94;12623,431;  211,338;38295,038;32,59161
 817,51;12603,147;  212,415;38056,606;32,74144
 818,07;12627,325;  224,646;37847,327;32,96596
 818,63;12657,118;  240,415;37617,588;33,22002
 819,20;12645,296;  231,108;37646,156;33,17967
 819,76;12557,090;  209,415;37148,185;33,42741
 820,32;12634,114;  261,492;37058,984;33,62355
 820,89;12661,138;  254,108;36890,706;33,86513
 821,45;12641,931;  214,800;36627,120;34,12892
 822,01;12624,879;  239,185;36344,227;34,30461
 822,57;12645,672;  233,492;36234,410;34,47740
 823,14;12631,312;  204,646;36094,517;34,62444
 823,70;12629,566;  215,262;35798,777;34,88780
 824,26;12595,821;  217,877;35647,422;34,93679
 824,82;12670,153;  230,108;35519,682;35,25133
 825,39;12591,254;  217,185;35304,481;35,26652
 825,95;12676,894;  245,646;35297,972;35,46483
 826,51;12580,303;  240,569;34839,155;35,66543
 827,08;12736,711;  264,877;35037,800;35,86651
 827,64;12731,582;  235,954;34721,445;36,23445
 828,20;12710,836;  213,800;34453,167;36,49903
 828,76;12722,322;  244,108;34526,581;36,39823
 829,32;12789,808;  236,877;34258,919;36,89647
 829,89;12752,447;  209,646;34195,333;36,90613
 830,45;12793,164;  228,031;34079,901;37,11799
 831,01;12869,572;  210,262;33996,161;37,46921
 831,57;12811,981;  232,647;33860,498;37,40749
 832,14;12888,159;  225,647;33830,066;37,68109
 832,70;12899,953;  215,185;33656,865;37,93101
 833,26;12905,207;  202,493;33467,972;38,18588
 833,82;12972,309;  221,800;33428,155;38,39780
 834,38;12989,717;  214,416;33497,800;38,38342
 834,95;12961,895;  214,262;33343,599;38,47838
 835,51;13012,996;  190,262;33138,474;38,91785
 836,07;13105,328;  227,262;33274,196;38,96902
 836,63;13173,506;  230,954;33193,533;39,26438
 837,19;13282,300;  218,801;32938,717;39,92522
 837,75;13183,401;  188,647;32749,054;39,90968
 838,32;13306,117;  240,185;32824,314;40,09907
 838,88;13428,218;  239,493;32837,190;40,45907
 839,44;13436,704;  222,570;32724,989;40,65585
 840,00;13407,420;  227,801;32701,249;40,58583
 840,56;13480,906;  212,262;32495,586;41,10061
 841,12;13449,468;  203,339;32331,385;41,22918
 841,68;13447,877;  194,416;32177,261;41,43928
 842,25;13553,209;  201,647;32197,137;41,72951
 842,81;13581,464;  205,416;31977,935;42,09942
 843,37;13651,103;  196,878;31961,965;42,35539
 843,93;13733,897;  203,416;31936,764;42,63805
 844,49;13781,921;  215,724;31937,563;42,76611
 845,05;13789,868;  183,493;31775,131;43,06955
 845,61;13920,508;  226,262;31838,160;43,31991
 846,17;13902,916;  219,493;31653,344;43,53085
 846,73;13956,325;  229,493;31543,681;43,83582
 847,29;13914,426;  189,262;31464,326;43,88533
 847,86;14015,450;  199,493;31337,586;44,36995
 848,42;13959,859;  189,724;31205,462;44,39725
 848,98;13983,345;  208,339;31137,261;44,53762
 849,54;14058,061;  203,416;31192,752;44,70778
 850,10;14042,316;  206,724;30940,704;45,01725
 850,66;14024,956;  200,109;30774,272;45,21742
 851,22;14069,903;  202,801;30788,379;45,33869
 851,78;14180,773;  228,340;30870,562;45,53336
 852,34;14062,413;  215,263;30637,361;45,51675
 852,90;14122,206;  209,801;30447,237;46,01053
 853,46;14044,538;  206,263;30321,343;45,95131
 854,02;14155,716;  222,417;30400,142;46,17081
 854,58;14092,894;  206,570;30024,864;46,56981
 855,14;14098,533;  193,109;29942,124;46,74247
 855,70;14159,865;  176,724;29833,923;47,14923
 856,26;14177,120;  222,955;29809,875;47,16329
 856,82;14146,990;  192,263;29631,982;47,40102
 857,38;14170,784;  225,801;29541,319;47,56860
 857,94;14182,885;  212,032;29512,733;47,68095
 858,50;14198,293;  213,263;29401,994;47,91243
 859,06;14159,087;  203,955;29174,869;48,16946
 859,62;14184,342;  218,801;29136,591;48,29394
 860,18;14199,366;  213,032;28933,390;48,69833
 860,74;14168,313;  169,571;28844,727;48,81836
 861,30;14086,568;  185,648;28604,757;48,91399
 861,86;14214,977;  218,648;28699,248;49,14338
 862,42;14188,770;  203,571;28560,970;49,31764
 862,98;14263,717;  222,802;28505,769;49,64442
 863,54;14173,280;  221,032;28284,183;49,71732
 864,10;14284,919;  215,417;28338,366;50,02855
 864,66;14290,021;  191,417;28138,473;50,44755
 865,22;14253,583;  206,340;27941,579;50,64764
 865,78;14253,300;  209,571;27853,762;50,80173
 866,34;14196,939;  205,263;27816,484;50,67388
 866,90;14198,117;  213,648;27697,591;50,88233
 867,45;14196,910;  225,571;27458,851;51,30245
 868,01;14142,242;  208,879;27301,496;51,42864
 868,57;14079,036;  216,186;27160,064;51,45083
 869,13;14115,829;  200,494;27059,632;51,80857
 869,69;14034,392;  214,725;26940,662;51,70882
 870,25;14054,877;  195,186;26880,845;51,93685
 870,81;14098,671;  212,033;26829,952;52,17026
 871,37;14094,541;  213,956;26673,904;52,45885
 871,93;14001,027;  218,110;26586,318;52,27096
 872,49;13961,205;  210,956;26263,656;52,77859
 873,04;13966,229;  195,110;26154,377;53,04895
 873,60;13913,022;  186,648;26029,099;53,11560
 874,16;13926,508;  218,956;26023,513;53,12066
 874,72;13880,431;  195,956;25841,129;53,36082
 875,28;13927,892;  220,802;25912,821;53,35155
 875,84;13934,123;  197,110;25677,667;53,91175
 876,40;14023,508;  202,879;25768,744;54,05891
 876,95;13993,969;  214,110;25704,360;54,05933
 877,51;14062,892;  227,571;25639,206;54,44483
 878,07;14136,815;  244,110;25657,975;54,66585
 878,63;14182,277;  203,648;25651,360;54,93079
 879,19;14245,585;  218,340;25695,052;55,05908
 879,75;14342,046;  206,725;25729,052;55,38414
 880,30;14414,815;  200,494;25758,206;55,61656
 880,86;14543,508;  244,956;25900,437;55,73293
 881,42;14600,738;  200,417;25944,283;55,93690
 881,98;14736,431;  219,340;25919,437;56,48652
 882,54;14842,277;  198,187;26137,667;56,45483
 883,09;15046,815;  221,802;26160,744;57,15350
 883,65;15160,277;  200,725;26201,975;57,53397
 884,21;15361,662;  232,417;26420,821;57,77078
 884,77;15456,046;  214,571;26508,437;57,96590
 885,32;15548,277;  219,417;26620,283;58,06196
 885,88;15694,123;  249,110;26783,667;58,20716
 886,44;15792,508;  215,340;26951,206;58,26319
 887,00;15917,046;  223,417;26868,513;58,89875
 887,56;16024,123;  211,340;26938,052;59,16471
 888,11;16047,585;  207,956;27005,513;59,10848
 888,67;16216,738;  242,571;27206,667;59,24236
 889,23;16197,123;  220,648;27159,206;59,30709
 889,79;16218,277;  205,494;27040,898;59,67036
 890,34;16188,046;  216,263;27020,898;59,58590
 890,90;16359,046;  262,110;27093,898;59,99204
 891,46;16309,892;  204,263;27036,590;60,02323
 892,01;16387,200;  230,110;26989,667;60,37876
 892,57;16458,046;  237,879;26907,590;60,81868
 893,13;16342,354;  205,956;26723,206;60,85246
 893,69;16407,738;  211,648;26735,975;61,06127
 894,24;16358,815;  222,340;26588,437;61,20161
 894,80;16391,200;  226,263;26441,360;61,66270
 895,36;16393,277;  214,879;26394,590;61,79747
 895,91;16391,508;  206,263;26173,744;62,32890
 896,47;16329,508;  221,110;26024,360;62,42779
 897,03;16283,046;  209,648;25893,975;62,58057
 897,58;16265,046;  224,340;25703,206;62,95691
 898,14;16238,738;  217,879;25519,437;63,31966
 898,70;16232,431;  189,033;25415,206;63,59822
 899,25;16297,662;  209,494;25394,667;63,87952
 899,81;16228,585;  227,571;25239,590;63,97330
 900,37;16197,969;  186,571;24999,821;64,52761
 900,92;16212,585;  213,571;24986,898;64,58161
 901,48;16072,815;  193,879;24784,667;64,57270
 902,03;16021,892;  212,725;24677,206;64,62090
 902,59;16077,123;  206,110;24592,975;65,08017
 903,15;16068,662;  228,033;24452,513;65,39099
 903,70;15959,892;  215,187;24229,513;65,56380
 904,26;15831,892;  196,110;24163,821;65,23686
 904,82;15890,046;  213,725;24170,129;65,43687
 905,37;15857,969;  222,725;23949,513;65,89701
 905,93;15741,431;  194,110;23913,360;65,54727
 906,48;15770,892;  214,263;23811,283;65,92625
 907,04;15903,738;  231,802;23793,513;66,51442
 907,60;15721,815;  197,494;23544,744;66,49315
 908,15;15713,123;  201,879;23446,821;66,72954
 908,71;15779,508;  233,263;23399,129;67,10841
 909,26;15754,354;  199,187;23244,744;67,49747
 909,82;15715,508;  233,110;23115,283;67,66140
 910,37;15668,277;  245,648;23032,437;67,68233
 910,93;15633,354;  208,879;22863,052;68,08668
 911,48;15526,892;  195,263;22746,513;67,98572
 912,04;15547,815;  199,494;22630,129;68,42571
 912,60;15603,508;  218,571;22609,821;68,70959
 913,15;15478,431;  213,263;22461,283;68,61360
 913,71;15464,354;  211,494;22301,667;69,04817
 914,26;15433,892;  195,648;22222,590;69,18003
 914,82;15441,123;  217,725;22144,975;69,42685
 915,37;15370,892;  200,725;22062,898;69,39002
 915,93;15346,431;  247,648;21986,283;69,45598
 916,48;15317,508;  206,725;21832,206;69,87490
 917,04;15327,046;  222,725;21693,283;70,34899
 917,59;15342,969;  236,263;21655,975;70,52712
 918,15;15213,662;  188,110;21457,206;70,64500
 918,70;15165,738;  198,033;21383,744;70,65000
 919,26;15122,662;  209,187;21347,975;70,55028
 919,81;15073,123;  201,494;21164,744;70,94143
 920,37;15009,123;  197,417;20969,360;71,30631
 920,92;14943,585;  220,956;21054,821;70,66681
 921,48;14935,738;  194,571;20816,898;71,48159
 922,03;14952,815;  206,417;20802,437;71,59829
 922,59;14922,431;  200,033;20617,129;72,10819
 923,14;14934,662;  185,956;20435,821;72,83360
 923,69;14927,815;  213,802;20427,360;72,79279
 924,25;14948,123;  213,187;20355,052;73,15577
 924,80;14815,815;  215,494;20264,898;72,82172
 925,36;14824,123;  211,340;20125,667;73,37824
 925,91;14885,431;  206,571;20017,821;74,09356
 926,47;14785,892;  194,417;19930,129;73,93438
 927,02;14761,277;  220,725;19821,821;74,18234
 927,57;14780,508;  207,033;19709,206;74,72744
 928,13;14733,431;  198,571;19656,437;74,69915
 928,68;14676,508;  192,187;19530,898;74,89807
 929,24;14558,738;  177,340;19394,052;74,83798
 929,79;14505,277;  195,956;19279,052;74,98427
 930,34;14474,431;  205,033;19124,206;75,42295
 930,90;14416,200;  194,340;19078,590;75,31069
 931,45;14467,969;  207,956;19046,590;75,69558
 932,01;14393,892;  210,263;18951,052;75,68320
 932,56;14338,431;  221,033;18812,052;75,93665
 933,11;14433,815;  222,648;18800,513;76,49516
 933,67;14265,662;  195,340;18585,206;76,51128
 934,22;14289,200;  203,879;18465,975;77,12872
 934,77;14233,123;  225,033;18457,206;76,83171
 935,33;14181,200;  222,110;18322,129;77,12196
 935,88;14170,969;  220,263;18243,206;77,40526
 936,43;14108,892;  190,494;18182,821;77,35741
 936,99;14123,123;  215,033;18030,437;78,06778
 937,54;13935,815;  195,802;17887,821;77,66221
 938,09;13955,585;  210,571;17846,437;77,93785
 938,65;13891,892;  211,033;17797,667;77,79123
 939,20;13812,200;  193,494;17754,129;77,55247
 939,75;13822,123;  189,494;17553,513;78,51079
 940,31;13786,585;  185,340;17522,590;78,45099
 940,86;13841,815;  207,110;17490,129;78,89076
 941,41;13774,354;  236,110;17362,206;79,05038
 941,96;13702,585;  201,033;17271,052;79,09512
 942,52;13665,431;  208,802;17200,513;79,19525
 943,07;13632,200;  187,110;17082,513;79,57839
 943,62;13589,123;  190,110;16966,129;79,87004
 944,18;13681,431;  191,033;16920,513;80,63847
 944,73;13612,815;  198,648;16802,206;80,79092
 945,28;13465,508;  176,802;16623,129;80,80045
 945,83;13504,662;  198,110;16666,590;80,80012
 946,39;13517,200;  196,956;16634,821;81,03391
 946,94;13384,969;  212,340;16557,437;80,59071
 947,49;13303,200;  203,340;16414,129;80,80952
 948,04;13407,277;  210,187;16335,052;81,84310
 948,59;13331,738;  217,417;16326,975;81,40708
 949,15;13267,431;  179,802;16232,129;81,53104
 949,70;13237,431;  198,725;16105,821;81,96786
 950,25;13218,508;  215,571;16030,052;82,22171
 950,80;13177,662;  169,340;15931,360;82,52953
 951,36;13106,508;  176,110;15829,975;82,60195
 951,91;13166,046;  214,571;15831,513;82,93221
 952,46;12997,585;  167,340;15631,821;82,96589
 953,01;13070,815;  211,417;15699,360;83,02845
 953,56;12935,738;  175,648;15591,129;82,77452
 954,11;12910,585;  204,110;15460,744;83,28491
 954,67;12850,354;  193,033;15488,513;82,75203
 955,22;12739,354;  173,263;15304,129;83,04938
 955,77;12796,815;  212,417;15267,052;83,59152
 956,32;12733,969;  237,263;15128,590;83,91936
 956,87;12603,354;  192,571;15020,129;83,70079
 957,42;12666,354;  201,417;15001,283;84,22331
 957,98;12610,431;  197,187;14918,975;84,31886
 958,53;12617,738;  214,417;14863,513;84,66953
 959,08;12536,662;  184,263;14812,898;84,43986
 959,63;12544,969;  190,110;14639,206;85,50611
 960,18;12595,892;  205,187;14643,283;85,81953
 960,73;12548,277;  201,340;14581,821;85,85900
 961,28;12474,354;  179,187;14473,052;86,01709
 961,83;12497,662;  211,571;14420,129;86,46965
 962,39;12476,892;  188,263;14322,283;86,94363
 962,94;12475,585;  210,879;14231,667;87,47515
 963,49;12355,969;  193,956;14075,513;87,61274
 964,04;12407,508;  212,340;14071,590;87,99298
 964,59;12338,200;  181,956;13975,975;88,12692
 965,14;12339,046;  202,802;13928,283;88,42127
 965,69;12271,046;  199,033;13779,898;88,88987
 966,24;12244,508;  198,110;13730,898;89,01638
 966,79;12195,969;  204,494;13601,129;89,51110
 967,34;12197,431;  188,648;13501,590;90,20382
 967,89;12149,123;  190,725;13435,052;90,29072
 968,44;12191,892;  202,494;13446,052;90,53004
 968,99;12125,508;  204,033;13359,513;90,61984
 969,55;12078,585;  214,187;13250,052;91,01351
 970,10;12045,354;  211,417;13165,898;91,35014
 970,65;11975,892;  210,725;13052,744;91,61462
 971,20;11997,046;  187,110;12991,590;92,23284
 971,75;11826,200;  182,571;12848,975;91,92529
 972,30;11881,815;  198,110;12814,975;92,60387
 972,85;11794,662;  192,110;12700,898;92,75520
 973,40;11640,277;  190,110;12581,975;92,40068
 973,95;11577,892;  211,263;12541,437;92,18548
 974,50;11607,815;  219,802;12477,667;92,90372
 975,05;11549,354;  209,494;12387,667;93,11626
 975,60;11487,200;  221,110;12254,898;93,62048
 976,15;11437,200;  196,648;12189,283;93,72880
 976,70;11384,738;  211,802;12185,513;93,31222
 977,25;11378,738;  202,340;12097,821;93,95499
 977,80;11200,123;  200,187;11959,360;93,54345
 978,35;11097,969;  213,340;11800,590;93,93626
 978,89;11078,585;  187,340;11762,206;94,09392
 979,44;11058,969;  204,187;11699,360;94,42905
 979,99;10899,354;  183,187;11515,206;94,56538
 980,54;10920,815;  226,417;11494,590;94,90800
 981,09;10896,662;  208,725;11372,206;95,74018
 981,64;10763,431;  215,725;11240,052;95,67664
 982,19;10717,277;  247,494;11238,744;95,25561
 982,74;10617,277;  207,571;11094,590;95,61576
 983,29;10528,431;  181,033;10943,206;96,14599
 983,84;10503,277;  206,187;10919,821;96,11202
 984,39;10431,892;  224,417;10813,744;96,39399
 984,94;10335,892;  181,571;10697,283;96,56333
 985,49;10356,508;  225,802;10665,590;97,03938
 986,03;10257,431;  220,956;10572,744;96,95402
 986,58;10210,354;  237,802;10437,052;97,77731
 987,13;10094,277;  209,494;10338,129;97,59245
 987,68;10056,815;  224,725;10302,206;97,56496
 988,23;10027,354;  212,802;10206,360;98,20879
 988,78; 9883,815;  202,110;10071,052;98,10277
 989,33; 9841,969;  213,494; 9962,129;98,76742
 989,88; 9831,969;  223,956; 9953,129;98,75468
 990,42; 9716,585;  204,571; 9827,821;98,84409
 990,97; 9634,431;  209,725; 9712,821;99,17511
 991,52; 9608,354;  234,417; 9590,744;100,18821
 992,07; 9521,354;  238,263; 9554,437;99,64489
 992,62; 9419,585;  220,879; 9386,513;100,36082
 993,17; 9363,200;  218,802; 9376,513;99,85462
 993,71; 9323,738;  213,417; 9236,052;100,97185
 994,26; 9175,662;  195,033; 9142,744;100,36789
 994,81; 9171,815;  232,187; 9116,667;100,62072
 995,36; 9047,277;  212,956; 8961,283;100,98298
 995,91; 9042,277;  215,725; 8968,590;100,84186
 996,45; 8954,431;  213,263; 8783,437;101,99522
 997,00; 8855,123;  193,879; 8655,744;102,35620
 997,55; 8769,354;  204,956; 8638,360;101,55328
 998,10; 8699,508;  235,879; 8491,283;102,52229
 998,65; 8704,892;  205,725; 8467,590;102,87226
 999,19; 8606,969;  221,340; 8296,975;103,83864
 999,74; 8507,508;  254,187; 8302,360;102,54900
1000,29; 8428,662;  233,571; 8201,744;102,84780
1000,84; 8298,738;  215,340; 8101,821;102,49690
1001,38; 8312,354;  208,263; 7931,590;104,93004
1001,93; 8303,200;  228,802; 7911,360;105,10039
1002,48; 8138,123;  207,494; 7752,744;105,10757
1003,03; 8134,123;  204,187; 7704,821;105,72354
1003,57; 8040,508;  227,648; 7650,513;105,25396
1004,12; 7984,277;  225,033; 7524,744;106,29522
1004,67; 7868,508;  209,879; 7477,975;105,37325
1005,22; 7801,277;  192,340; 7328,360;106,62719
1005,76; 7706,508;  195,879; 7255,744;106,38487
1006,31; 7685,431;  225,340; 7204,821;106,88604
1006,86; 7599,200;  201,802; 7096,898;107,28492
1007,40; 7480,585;  188,725; 6925,052;108,24682
1007,95; 7436,892;  212,802; 6857,975;108,71185
1008,50; 7374,431;  211,494; 6749,513;109,55821
1009,04; 7267,662;  207,494; 6649,667;109,59295
1009,59; 7183,508;  221,187; 6508,206;110,74121
1010,14; 7064,738;  202,263; 6433,206;110,13543
1010,68; 6933,738;  209,956; 6367,206;109,20107
1011,23; 6885,431;  193,571; 6201,206;111,38926
1011,78; 6816,123;  225,340; 6189,667;110,50338
1012,32; 6731,892;  200,879; 6068,283;111,31011
1012,87; 6729,892;  238,879; 6048,667;111,72547
1013,42; 6594,662;  194,494; 5951,821;111,16561
1013,96; 6606,969;  233,340; 5975,129;111,00424
1014,51; 6527,662;  177,187; 5912,898;110,71817
1015,06; 6501,892;  177,417; 5921,206;110,10982
1015,60; 6577,277;  245,879; 5960,513;110,79270
1016,15; 6563,354;  196,571; 5891,821;111,79110
1016,69; 6595,431;  205,340; 5941,744;111,39541
1017,24; 6620,431;  185,263; 5920,283;112,20830
1017,79; 6662,200;  222,956; 6036,206;110,76840
1018,33; 6616,892;  194,494; 5964,667;111,30339
1018,88; 6750,354;  215,417; 6037,129;112,25112
1019,42; 6756,969;  208,802; 6047,437;112,15237
1019,97; 6716,046;  210,494; 6020,821;111,96533
1020,51; 6799,354;  207,494; 6064,744;112,54189
1021,06; 6789,662;  191,033; 6054,898;112,53036
1021,61; 6780,738;  182,187; 6020,360;113,02426
1022,15; 6756,277;  155,802; 5972,129;113,48184
1022,70; 6766,815;  200,725; 5947,821;114,25057
1023,24; 6710,354;  190,956; 5910,975;113,97511
1023,79; 6658,431;  202,110; 5853,052;114,25212
1024,33; 6637,508;  207,648; 5828,590;114,39113
1024,88; 6522,892;  209,879; 5753,590;113,87702
1025,42; 6453,892;  203,263; 5647,667;114,80832
1025,97; 6441,815;  192,110; 5566,667;116,28316
1026,51; 6257,738;  163,956; 5430,821;115,70037
1027,06; 6293,662;  193,340; 5414,590;116,83641
1027,60; 6117,508;  208,340; 5311,206;115,80096
1028,15; 6092,277;  207,187; 5207,360;117,69773
1028,69; 5899,046;  178,802; 5083,590;116,62571
1029,24; 5946,969;  189,033; 5043,129;118,62016
1029,78; 5812,200;  191,725; 4975,590;117,48815
1030,33; 5692,200;  168,494; 4851,206;117,95956
1030,87; 5646,969;  191,648; 4812,052;118,07022
1031,42; 5548,585;  181,956; 4730,129;117,99526
1031,96; 5502,662;  200,879; 4662,437;118,83255
1032,51; 5409,123;  181,879; 4575,898;118,96271
1033,05; 5366,508;  202,187; 4556,513;118,60205
1033,60; 5209,123;  174,879; 4415,975;118,70149
1034,14; 5189,969;  198,571; 4418,744;118,27472
1034,69; 5132,354;  189,802; 4337,975;119,15009
1035,23; 5058,354;  196,571; 4287,975;118,82921
1035,77; 4988,431;  198,571; 4187,513;120,07844
1036,32; 4940,969;  175,648; 4151,821;119,84692
1036,86; 4860,354;  184,725; 4074,283;120,20978
1037,41; 4796,508;  209,879; 4020,590;120,36148
1037,95; 4730,277;  184,263; 3956,667;120,50707
1038,50; 4639,277;  187,110; 3915,821;119,40230
1039,04; 4603,277;  199,263; 3880,283;119,64114
1039,58; 4488,123;  186,802; 3822,206;118,31756
1040,13; 4444,508;  194,263; 3740,821;119,84140
1040,67; 4426,585;  221,417; 3707,744;120,61885
1041,21; 4344,508;  215,879; 3643,283;120,45936
1041,76; 4244,508;  182,648; 3566,206;120,04700
1042,30; 4217,738;  198,571; 3555,898;119,71331
1042,85; 4170,277;  189,956; 3485,513;120,77838
1043,39; 4102,200;  180,648; 3409,437;121,45583
1043,93; 4077,200;  204,494; 3375,821;122,11626
1044,48; 3991,046;  195,110; 3353,667;120,17943
1045,02; 3932,354;  187,879; 3279,590;121,11334
1045,56; 3917,354;  209,187; 3237,975;122,43071
1046,11; 3852,815;  199,725; 3214,206;121,18473
1046,65; 3815,815;  198,033; 3154,360;122,37424
1047,19; 3739,815;  200,110; 3119,513;121,24755
1047,74; 3689,508;  180,263; 3057,821;121,95218
1048,28; 3652,892;  199,033; 3020,744;122,40300
1048,82; 3638,431;  218,417; 3018,129;122,15592
1049,37; 3576,354;  198,187; 2950,283;122,74888
1049,91; 3568,354;  179,033; 2870,667;125,92055
1050,45; 3501,046;  223,571; 2867,052;123,98331
1050,99; 3437,200;  196,263; 2786,744;125,10946
1051,54; 3368,892;  185,110; 2756,283;123,82607
1052,08; 3379,969;  214,033; 2744,513;125,11206
1052,62; 3324,969;  219,802; 2709,590;124,71611
1053,16; 3262,815;  195,033; 2629,052;126,03773
1053,71; 3220,892;  200,802; 2631,821;124,23145
1054,25; 3176,662;  212,956; 2565,360;125,98627
1054,79; 3152,200;  216,802; 2560,206;125,26215
1055,33; 3065,508;  177,956; 2463,821;126,32205
1055,88; 3060,354;  222,802; 2498,667;124,68013
1056,42; 3008,585;  220,956; 2463,821;124,28873
1056,96; 2962,585;  212,263; 2419,052;124,63003
1057,50; 2930,123;  207,725; 2370,590;125,86997
1058,05; 2904,969;  205,340; 2326,513;127,27056
1058,59; 2860,815;  218,571; 2295,821;127,19914
1059,13; 2801,200;  192,879; 2238,744;127,49232
1059,67; 2797,892;  218,340; 2239,437;127,63133
1060,21; 2716,123;  207,263; 2182,667;127,00490
1060,76; 2703,969;  224,110; 2173,360;127,22122
1061,30; 2676,815;  220,956; 2157,360;126,82580
1061,84; 2632,662;  214,110; 2104,975;127,90714
1062,38; 2568,123;  194,494; 2046,898;128,13776
1062,92; 2602,200;  237,879; 2090,129;127,64590
1063,46; 2526,200;  226,494; 2027,590;127,68368
1064,01; 2521,046;  205,648; 1999,898;129,04546
1064,55; 2464,815;  212,110; 1967,590;128,32415
1065,09; 2405,738;  172,494; 1919,667;127,82044
1065,63; 2417,508;  233,956; 1942,206;127,82391
1066,17; 2385,508;  232,648; 1925,744;127,15519
1066,71; 2365,662;  232,340; 1880,052;129,47176
1067,25; 2310,123;  202,648; 1842,590;128,50909
1067,80; 2295,815;  231,187; 1831,129;129,04396
1068,34; 2274,354;  229,187; 1823,744;128,25922
1068,88; 2206,277;  199,802; 1776,744;127,23833
1069,42; 2221,123;  237,033; 1794,206;127,41618
1069,96; 2170,969;  199,879; 1723,437;129,37419
1070,50; 2164,354;  234,879; 1744,590;127,80422
1071,04; 2092,123;  208,187; 1677,667;128,20423
1071,58; 2096,277;  211,879; 1670,898;129,15512
1072,12; 2068,354;  203,417; 1651,898;128,75121
1072,66; 2041,815;  209,494; 1662,744;126,08437
1073,21; 2041,969;  230,571; 1618,052;130,55302
1073,75; 2008,662;  222,340; 1624,590;127,38963
1074,29; 1975,508;  220,340; 1595,206;127,66103
1074,83; 1968,123;  237,956; 1584,898;128,45148
1075,37; 1954,585;  220,648; 1525,206;132,91375
1075,91; 1931,815;  225,263; 1536,975;130,10116
1076,45; 1878,738;  221,571; 1532,821;126,38073
1076,99; 1879,662;  227,340; 1488,513;131,01462
1077,53; 1846,892;  213,187; 1477,360;129,23118
1078,07; 1833,738;  218,494; 1461,975;129,89700
1078,61; 1809,431;  215,340; 1431,129;131,11577
1079,15; 1780,277;  223,110; 1401,744;132,11620
1079,69; 1779,200;  215,110; 1423,360;129,45089
1080,23; 1772,046;  230,802; 1400,437;131,77143
1080,77; 1785,662;  247,110; 1374,437;136,47788
1081,31; 1717,738;  208,263; 1345,821;132,69437
1081,85; 1724,738;  219,725; 1349,513;133,21197
1082,39; 1690,354;  207,033; 1318,283;133,48222
1082,93; 1664,662;  215,417; 1299,590;133,67277
1083,47; 1638,354;  203,187; 1299,898;130,86097
1084,01; 1669,508;  227,725; 1284,667;136,41073
1084,55; 1617,046;  211,879; 1258,283;134,28537
1085,09; 1608,892;  228,802; 1244,206;135,91542
1085,63; 1591,508;  217,340; 1250,052;133,06400
1086,17; 1564,277;  214,340; 1222,129;133,95039
1086,71; 1559,815;  203,956; 1194,975;136,81466
1087,24; 1563,892;  242,110; 1208,744;136,74067
1087,78; 1536,738;  215,033; 1189,898;135,57828
1088,32; 1486,277;  206,187; 1150,206;135,60003
1088,86; 1507,200;  231,725; 1173,283;135,46435
1089,40; 1493,969;  212,648; 1142,667;137,77362
1089,94; 1440,508;  196,110; 1116,667;135,17872
1090,48; 1445,892;  216,417; 1111,821;137,30955
1091,02; 1433,508;  221,879; 1088,821;139,75888
1091,56; 1408,815;  236,417; 1115,667;133,34070
1092,10; 1373,200;  198,494; 1079,744;133,29995
1092,63; 1413,508;  236,417; 1072,821;140,73230
1093,17; 1374,508;  227,725; 1065,206;136,93242
1093,71; 1335,277;  210,571; 1034,283;136,54122
1094,25; 1365,123;  230,187; 1041,667;139,85994
1094,79; 1305,969;  216,648; 1032,667;133,49209
1095,33; 1292,969;  208,648; 1000,052;137,01237
1095,87; 1289,123;  225,571;  995,898;138,06501
1096,40; 1248,046;  197,340;  986,206;133,19202
1096,94; 1267,123;  214,802;  973,667;138,67033
1097,48; 1236,738;  221,110;  965,206;136,49161
1098,02; 1223,815;  211,956;  937,975;139,37091
1098,56; 1179,354;  190,187;  920,129;135,51308
1099,10; 1160,969;  191,802;  920,206;133,05357
1099,63; 1160,277;  195,725;  910,821;134,88423
1100,17; 1157,508;  220,648;  901,206;137,66057
1100,71; 1174,046;  228,340;  913,590;138,00887

