
Integration time [ms]: 120,000
Averaging Nr. [scans]: 13
Smoothing Nr. [pixels]: 0
Data measured with spectrometer [name]: 2009305U1
Wave   ;Sample   ;Dark     ;Reference;Reflectance
[nm]   ;[counts] ;[counts] ;[counts] ;[%]

 175,72;  205,682;  198,725;  209,729;63,22977
 176,32;  226,645;  233,791;  221,495; 0,00000
 176,92;  251,108;  251,952;  246,144; 0,00000
 177,52;  262,298;  249,569;  261,381;107,76383
 178,12;  229,340;  210,945;  220,620;190,11796
 178,72;  269,907;  248,635;  250,038;1515,75385
 179,32;  251,784;  255,406;  241,911; 0,00000
 179,92;  245,057;  255,641;  248,129; 0,00000
 180,52;  242,909;  233,115;  240,492;132,75964
 181,12;  252,495;  249,103;  245,056; 0,00000
 181,73;  285,159;  265,873;  272,598;286,77827
 182,33;  360,865;  349,879;  341,303; 0,00000
 182,93;  265,318;  259,492;  262,580;188,63652
 183,53;  235,603;  241,402;  230,123; 0,00000
 184,13;  235,018;  231,942;  223,284; 0,00000
 184,73;  280,628;  262,785;  270,840;221,52506
 185,33;  261,757;  235,800;  340,235;24,85455
 185,93;  272,209;  233,331;  341,231;36,03105
 186,53;  276,698;  252,412;  358,480;22,89636
 187,13;  304,782;  259,651;  408,456;30,32878
 187,73;  265,699;  235,102;  356,651;25,17238
 188,33;  269,922;  242,097;  355,217;24,59717
 188,93;  283,528;  252,084;  372,324;26,15119
 189,53;  287,374;  250,458;  375,462;29,53139
 190,13;  310,790;  288,441;  393,447;21,28318
 190,73;  247,987;  221,607;  354,699;19,82116
 191,34;  285,865;  261,772;  383,107;19,85658
 191,94;  265,401;  243,170;  355,212;19,84197
 192,54;  286,425;  244,657;  378,976;31,09574
 193,14;  283,406;  261,650;  386,945;17,36354
 193,74;  287,235;  256,803;  371,292;26,58106
 194,34;  278,964;  254,345;  379,723;19,63620
 194,94;  239,426;  215,650;  345,606;18,29524
 195,54;  224,823;  198,339;  325,621;20,80684
 196,14;  245,109;  226,731;  350,792;14,81369
 196,74;  239,111;  216,030;  338,690;18,81704
 197,34;  237,199;  203,967;  338,400;24,72051
 197,94;  253,406;  224,267;  375,503;19,26717
 198,54;  263,249;  232,346;  384,669;20,28741
 199,14;  232,498;  223,046;  367,104; 6,56082
 199,74;  226,324;  202,354;  368,520;14,42516
 200,34;  229,184;  194,509;  366,971;20,10590
 200,94;  266,561;  234,889;  406,748;18,42946
 201,54;  248,817;  216,814;  407,160;16,81305
 202,14;  276,409;  240,665;  454,320;16,72967
 202,74;  248,398;  228,200;  447,857; 9,19531
 203,34;  245,810;  181,976;  463,089;22,70748
 203,94;  205,771;  166,204;  459,631;13,48419
 204,54;  279,417;  236,729;  542,983;13,93878
 205,14;  242,407;  194,585;  536,212;13,99825
 205,74;  292,696;  237,668;  639,180;13,70513
 206,34;  250,030;  204,050;  630,780;10,77503
 206,94;  265,267;  210,433;  685,452;11,54346
 207,54;  238,873;  177,588;  721,425;11,26913
 208,14;  257,796;  208,358;  795,906; 8,41435
 208,74;  263,250;  208,200;  848,241; 8,60104
 209,34;  271,159;  207,355;  912,599; 9,04708
 209,94;  292,954;  216,431; 1015,259; 9,57933
 210,54;  287,112;  207,205; 1109,050; 8,86039
 211,14;  303,840;  214,662; 1195,427; 9,09270
 211,73;  298,037;  208,506; 1299,988; 8,20267
 212,33;  312,427;  222,812; 1397,255; 7,63050
 212,93;  322,675;  208,738; 1479,640; 8,96502
 213,53;  290,922;  184,046; 1538,349; 7,89160
 214,13;  313,388;  193,748; 1630,932; 8,32458
 214,73;  319,409;  179,434; 1625,550; 9,67934
 215,33;  290,415;  163,585; 1674,567; 8,39389
 215,93;  344,246;  208,899; 1774,717; 8,64387
 216,53;  306,008;  168,430; 1832,838; 8,26588
 217,13;  365,770;  229,436; 2022,497; 7,60344
 217,73;  358,052;  197,822; 2208,241; 7,96998
 218,33;  344,450;  156,057; 2364,675; 8,52992
 218,93;  396,603;  181,834; 2630,757; 8,76992
 219,53;  405,661;  180,903; 2889,476; 8,29802
 220,13;  408,624;  168,059; 3125,529; 8,13415
 220,73;  451,298;  190,893; 3430,322; 8,03862
 221,32;  487,327;  184,508; 3811,856; 8,34823
 221,92;  515,592;  193,366; 4182,543; 8,07752
 222,52;  532,670;  172,284; 4562,289; 8,20925
 223,12;  567,610;  184,900; 4945,153; 8,03971
 223,72;  613,206;  200,285; 5311,646; 8,07850
 224,32;  629,174;  192,747; 5676,679; 7,95830
 224,92;  651,069;  183,362; 5950,894; 8,10931
 225,52;  693,170;  207,356; 6276,099; 8,00518
 226,12;  694,468;  187,051; 6571,650; 7,94752
 226,72;  723,870;  160,666; 6841,878; 8,42967
 227,31;  736,073;  156,666; 7219,939; 8,20309
 227,91;  801,025;  190,894; 7541,280; 8,30066
 228,51;  803,692;  186,812; 7911,520; 7,98580
 229,11;  859,021;  181,820; 8271,138; 8,37155
 229,71;  869,128;  176,122; 8541,977; 8,28374
 230,31;  905,416;  169,748; 8933,640; 8,39431
 230,91;  956,536;  158,502; 9183,125; 8,84285
 231,51;  998,254;  167,360; 9538,918; 8,86612
 232,10; 1042,940;  169,980; 9825,075; 9,04145
 232,70; 1101,195;  177,422;10037,261; 9,36905
 233,30; 1180,998;  204,206;10330,930; 9,64569
 233,90; 1179,739;  173,898;10431,145; 9,80615
 234,50; 1198,471;  173,514;10561,102; 9,86713
 235,10; 1237,531;  170,439;10679,048;10,15445
 235,70; 1335,800;  196,355;10707,048;10,84081
 236,29; 1346,353;  189,507;10660,055;11,04857
 236,89; 1348,673;  164,349;10563,896;11,38822
 237,49; 1439,146;  187,436;10546,988;12,08267
 238,09; 1423,953;  169,434;10299,934;12,38358
 238,69; 1491,781;  199,577;10085,824;13,07073
 239,29; 1469,361;  173,126; 9816,008;13,44240
 239,89; 1504,009;  193,964; 9557,989;13,99018
 240,48; 1512,309;  169,819; 9189,380;14,88421
 241,08; 1524,315;  173,895; 8870,359;15,52839
 241,68; 1538,389;  202,973; 8542,428;16,01323
 242,28; 1529,995;  173,206; 8296,267;16,70294
 242,88; 1580,214;  210,364; 8015,271;17,55114
 243,48; 1581,166;  214,359; 7813,649;17,98599
 244,07; 1580,304;  190,279; 7524,495;18,95261
 244,67; 1613,218;  193,589; 7335,200;19,87827
 245,27; 1635,575;  198,121; 7224,988;20,45654
 245,87; 1670,160;  202,978; 7137,422;21,15789
 246,47; 1688,988;  186,737; 7152,619;21,56585
 247,06; 1720,962;  178,433; 7115,577;22,23579
 247,66; 1765,152;  190,742; 7171,967;22,55206
 248,26; 1842,259;  211,199; 7383,422;22,74134
 248,86; 1896,948;  187,583; 7554,528;23,20317
 249,46; 1929,736;  151,745; 7751,040;23,39679
 250,05; 2034,888;  205,203; 8059,625;23,29496
 250,65; 2107,906;  156,351; 8391,138;23,69891
 251,25; 2223,908;  175,510; 8846,420;23,62380
 251,85; 2362,505;  188,657; 9377,235;23,65815
 252,44; 2469,068;  152,046;10031,610;23,45267
 253,04; 2673,683;  201,662;10746,245;23,44351
 253,64; 2771,607;  153,197;11314,012;23,46074
 254,24; 2982,446;  191,741;12220,363;23,20054
 254,84; 3151,274;  166,745;13137,194;23,01022
 255,43; 3301,811;  180,354;13986,565;22,60908
 256,03; 3532,316;  179,120;14914,490;22,75610
 256,63; 3706,106;  182,657;15992,265;22,28676
 257,23; 3807,772;  178,195;16766,067;21,88091
 257,82; 3982,776;  187,423;17744,651;21,61704
 258,42; 4041,742;  152,113;18540,057;21,15315
 259,02; 4211,458;  195,508;19439,475;20,86862
 259,62; 4256,084;  174,574;20014,745;20,57195
 260,21; 4303,159;  187,584;20539,271;20,22228
 260,81; 4343,355;  174,128;20993,664;20,02555
 261,41; 4302,212;  166,037;21535,894;19,35518
 262,01; 4359,116;  206,264;21932,846;19,11415
 262,60; 4284,311;  161,657;22263,375;18,65309
 263,20; 4263,735;  174,198;22619,064;18,22037
 263,80; 4211,506;  197,880;22817,691;17,74386
 264,40; 4125,785;  155,342;23010,849;17,37193
 264,99; 4098,951;  195,802;23187,520;16,97632
 265,59; 4001,524;  168,336;23290,435;16,57803
 266,19; 3923,948;  175,572;23408,876;16,13363
 266,78; 3887,390;  207,185;23564,540;15,75609
 267,38; 3796,105;  185,875;23535,671;15,46151
 267,98; 3708,888;  178,493;23588,757;15,08055
 268,58; 3620,384;  189,029;23610,424;14,65052
 269,17; 3541,399;  178,179;23588,237;14,36656
 269,77; 3464,699;  192,578;23479,767;14,05116
 270,37; 3347,341;  161,110;23253,673;13,79765
 270,96; 3315,685;  219,115;23179,220;13,48674
 271,56; 3166,770;  181,041;22949,788;13,11327
 272,16; 3090,748;  181,652;22839,153;12,83944
 272,75; 3031,799;  179,345;22647,263;12,69567
 273,35; 2959,716;  185,962;22752,668;12,29136
 273,95; 2903,625;  182,345;22634,525;12,12034
 274,54; 2845,124;  162,280;22661,239;11,92430
 275,14; 2863,431;  199,500;23009,838;11,67861
 275,74; 2785,252;  157,729;22979,523;11,51322
 276,33; 2826,579;  206,040;23339,167;11,32808
 276,93; 2821,859;  185,666;23789,475;11,16851
 277,53; 2839,256;  184,200;24196,394;11,05712
 278,12; 2906,091;  159,196;24656,393;11,21310
 278,72; 2967,994;  210,968;25209,099;11,02893
 279,32; 2987,809;  177,353;25795,343;10,97063
 279,91; 3026,228;  173,275;26468,338;10,84977
 280,51; 3139,355;  180,661;27006,795;11,02915
 281,11; 3178,353;  181,582;27679,169;10,89831
 281,70; 3203,279;  155,889;28143,812;10,88823
 282,30; 3296,154;  175,887;28664,557;10,95266
 282,90; 3342,496;  184,733;29140,880;10,90533
 283,49; 3459,004;  191,654;29639,315;11,09545
 284,09; 3562,214;  209,735;30013,118;11,24865
 284,69; 3630,863;  208,352;30383,634;11,34210
 285,28; 3724,387;  198,581;30659,164;11,57498
 285,88; 3858,013;  234,268;31004,553;11,77677
 286,47; 3850,901;  178,656;30948,156;11,93469
 287,07; 3964,598;  220,122;30971,081;12,17678
 287,67; 4096,090;  205,282;31249,572;12,53309
 288,26; 4179,897;  173,583;31154,111;12,93172
 288,86; 4314,179;  177,427;31163,873;13,35020
 289,46; 4453,265;  194,890;31354,786;13,66620
 290,05; 4628,543;  176,971;31383,773;14,26475
 290,65; 4779,596;  191,425;31591,261;14,61209
 291,24; 4974,105;  197,814;31745,730;15,13980
 291,84; 5183,183;  198,734;31851,188;15,74743
 292,44; 5380,779;  193,513;31994,544;16,31163
 293,03; 5667,014;  249,968;32153,222;16,97960
 293,63; 5844,621;  186,964;32285,480;17,62592
 294,22; 6034,213;  208,736;32427,446;18,08104
 294,82; 6148,962;  179,111;32457,635;18,49481
 295,41; 6244,279;  168,197;32179,428;18,98110
 296,01; 6404,862;  220,882;32137,119;19,37565
 296,61; 6518,111;  209,660;31938,498;19,88239
 297,20; 6546,739;  198,652;31498,260;20,28168
 297,80; 6622,110;  189,818;31371,885;20,62818
 298,39; 6633,658;  168,349;31012,542;20,96119
 298,99; 6745,867;  196,577;30953,082;21,29400
 299,58; 6808,469;  210,666;30637,168;21,68439
 300,18; 6882,210;  218,664;30536,651;21,97885
 300,78; 6854,301;  187,969;30175,812;22,23012
 301,37; 6923,700;  210,801;30210,608;22,37647
 301,97; 7015,159;  192,736;30210,385;22,72804
 302,56; 7051,744;  180,117;30097,031;22,96904
 303,16; 7093,149;  178,501;30021,826;23,16983
 303,75; 7144,293;  188,816;30056,938;23,28729
 304,35; 7272,462;  181,592;30296,229;23,54626
 304,94; 7352,797;  192,275;30223,710;23,84342
 305,54; 7401,481;  202,738;30212,702;23,98784
 306,13; 7417,898;  162,515;30220,877;24,13765
 306,73; 7404,736;  171,667;29981,020;24,26443
 307,33; 7475,870;  197,897;30003,878;24,41783
 307,92; 7545,735;  200,276;30009,930;24,64121
 308,52; 7656,251;  164,039;30460,332;24,72980
 309,11; 7834,432;  184,805;30865,317;24,93318
 309,71; 7964,053;  165,957;31097,892;25,21050
 310,30; 8067,837;  168,199;31341,744;25,34084
 310,90; 8271,683;  214,660;31732,359;25,56349
 311,49; 8281,450;  187,198;31844,388;25,56845
 312,09; 8368,392;  150,125;31981,436;25,81819
 312,68; 8558,461;  221,508;32445,118;25,87219
 313,28; 8600,581;  164,968;32508,776;26,08107
 313,87; 8575,723;  155,737;32612,835;25,94190
 314,47; 8746,215;  179,883;32880,460;26,19627
 315,06; 8813,421;  164,892;33020,392;26,32293
 315,66; 8903,161;  163,895;33161,590;26,48448
 316,25; 8898,921;  153,271;33134,720;26,51688
 316,85; 8910,232;  150,895;33146,514;26,54697
 317,44; 8993,959;  168,882;33320,627;26,62025
 318,04; 8955,678;  157,041;33358,819;26,50050
 318,63; 9033,289;  156,129;33413,451;26,69235
 319,22; 9068,371;  181,886;33687,260;26,52256
 319,82; 9083,148;  176,965;33726,732;26,54618
 320,41; 9096,653;  188,887;33581,370;26,67596
 321,01; 9149,332;  194,740;33730,664;26,70149
 321,60; 9144,248;  183,350;33856,364;26,61151
 322,20; 9062,603;  167,276;33758,639;26,48100
 322,79; 9100,743;  207,430;33929,362;26,37249
 323,39; 9085,773;  173,438;34018,334;26,33288
 323,98; 9123,635;  164,200;33942,472;26,52425
 324,58; 9048,112;  173,116;33789,917;26,40048
 325,17; 9041,804;  185,502;33722,475;26,40758
 325,76; 9000,561;  194,121;33481,634;26,45569
 326,36; 8859,290;  166,894;33169,218;26,33874
 326,95; 8779,530;  201,197;32821,858;26,29724
 327,55; 8675,063;  172,273;32580,839;26,23624
 328,14; 8586,372;  161,050;32147,564;26,34023
 328,74; 8437,610;  198,502;31792,923;26,07773
 329,33; 8320,358;  195,278;31370,401;26,06270
 329,92; 8166,300;  154,959;30887,103;26,06828
 330,52; 7995,437;  189,204;30203,412;26,00846
 331,11; 7889,031;  187,197;29806,103;26,00310
 331,71; 7746,766;  178,967;29282,569;26,00296
 332,30; 7553,028;  195,506;28842,479;25,68342
 332,89; 7495,971;  236,124;28405,815;25,77184
 333,49; 7250,775;  194,351;27811,673;25,55072
 334,08; 7137,356;  177,196;27493,100;25,48025
 334,68; 7007,630;  192,581;27000,316;25,42195
 335,27; 6926,241;  191,512;26650,986;25,45299
 335,86; 6872,031;  222,889;26456,564;25,34583
 336,46; 6751,417;  194,436;26199,541;25,21421
 337,05; 6676,387;  176,966;26018,241;25,15132
 337,65; 6591,721;  160,811;25875,670;25,00854
 338,24; 6634,438;  224,123;25891,948;24,97413
 338,83; 6603,985;  200,738;25754,918;25,05753
 339,43; 6520,251;  173,348;25758,583;24,80690
 340,02; 6516,793;  175,578;25570,534;24,97037
 340,61; 6484,791;  177,122;25648,038;24,76420
 341,21; 6480,918;  210,963;25690,769;24,60754
 341,80; 6459,020;  189,657;25615,084;24,65785
 342,40; 6512,138;  180,589;25697,459;24,81319
 342,99; 6514,740;  179,355;25775,661;24,75117
 343,58; 6522,358;  181,355;25977,863;24,58086
 344,18; 6556,774;  197,971;26092,927;24,55615
 344,77; 6544,211;  165,732;26394,318;24,31881
 345,36; 6650,530;  166,658;26652,242;24,48076
 345,96; 6745,002;  207,432;26959,571;24,43756
 346,55; 6767,488;  170,207;27168,889;24,43557
 347,14; 6848,412;  163,435;27487,598;24,46544
 347,74; 6938,555;  144,827;27869,864;24,50395
 348,33; 7073,641;  178,596;28420,892;24,41390
 348,92; 7218,951;  181,599;29109,307;24,32737
 349,52; 7308,276;  159,597;29486,131;24,37615
 350,11; 7394,180;  177,654;29780,485;24,37782
 350,70; 7417,826;  172,122;29801,438;24,45451
 351,29; 7334,054;  170,031;29587,678;24,35281
 351,89; 7346,033;  198,574;29521,502;24,37498
 352,48; 7357,168;  154,891;29577,683;24,47856
 353,07; 7333,018;  190,436;29611,494;24,27711
 353,67; 7310,689;  195,061;29508,263;24,27448
 354,26; 7261,349;  186,127;29303,183;24,29923
 354,85; 7204,660;  183,049;29206,884;24,19257
 355,45; 7123,422;  160,580;28976,851;24,16288
 356,04; 7158,973;  177,667;28863,558;24,33707
 356,63; 7180,091;  201,736;28756,951;24,43811
 357,22; 7111,298;  182,033;28529,688;24,44388
 357,82; 7036,030;  178,573;28303,126;24,38246
 358,41; 7057,755;  197,198;28225,802;24,47698
 359,00; 6995,727;  169,194;28039,475;24,49395
 359,60; 7010,578;  190,200;27965,671;24,55540
 360,19; 6939,984;  189,283;27739,961;24,50285
 360,78; 6922,462;  188,811;27658,808;24,51274
 361,37; 6901,134;  176,735;27434,916;24,66929
 361,97; 6898,045;  189,428;27383,861;24,66908
 362,56; 6873,801;  173,116;27056,561;24,92495
 363,15; 6873,795;  215,273;26861,468;24,98864
 363,74; 6751,517;  191,806;26488,153;24,94533
 364,34; 6663,425;  201,425;26092,628;24,95829
 364,93; 6573,511;  181,423;25766,867;24,98330
 365,52; 6501,877;  158,350;25396,410;25,13477
 366,11; 6495,972;  179,348;25099,599;25,34735
 366,71; 6394,986;  171,271;24664,030;25,41043
 367,30; 6315,117;  181,274;24351,150;25,37805
 367,89; 6348,358;  218,356;24117,806;25,64913
 368,48; 6250,554;  193,114;23831,370;25,62558
 369,07; 6177,903;  180,045;23481,745;25,74000
 369,67; 6122,195;  211,038;23145,589;25,77402
 370,26; 6049,247;  176,584;22904,962;25,83846
 370,85; 6039,556;  189,581;22579,595;26,12761
 371,44; 6060,883;  185,197;22472,583;26,36328
 372,03; 5940,209;  164,425;22167,136;26,25033
 372,63; 5937,063;  157,812;21893,705;26,58851
 373,22; 5942,669;  178,276;21618,236;26,88621
 373,81; 5860,387;  160,581;21348,164;26,90164
 374,40; 5820,002;  189,357;21109,918;26,91440
 374,99; 5787,108;  173,119;20805,236;27,20995
 375,59; 5709,663;  172,818;20548,239;27,17413
 376,18; 5822,621;  201,657;20421,884;27,79872
 376,77; 5769,362;  195,044;20284,216;27,74787
 377,36; 5804,667;  210,812;20218,225;27,95891
 377,95; 5800,946;  197,579;19936,400;28,38755
 378,55; 5762,948;  170,740;19722,664;28,60183
 379,14; 5793,960;  197,196;19652,640;28,76708
 379,73; 5795,829;  190,195;19586,848;28,90001
 380,32; 5881,598;  193,428;19698,446;29,16260
 380,91; 5843,864;  180,730;19479,572;29,34443
 381,50; 5883,858;  201,731;19462,208;29,50149
 382,10; 5898,598;  173,582;19341,830;29,86718
 382,69; 5950,610;  153,196;19281,655;30,30779
 383,28; 5985,961;  205,655;19266,811;30,32505
 383,87; 5979,471;  175,116;19108,719;30,65637
 384,46; 6007,312;  165,112;19057,158;30,92413
 385,05; 6094,459;  219,270;19032,316;31,22934
 385,64; 6093,587;  181,194;19079,829;31,28476
 386,24; 6123,737;  165,265;19008,018;31,62209
 386,83; 6229,235;  200,649;19082,215;31,92842
 387,42; 6272,547;  206,964;19161,969;31,99991
 388,01; 6366,151;  193,645;19331,088;32,25355
 388,60; 6509,660;  194,266;19613,654;32,52107
 389,19; 6612,308;  170,485;19711,863;32,96504
 389,78; 6749,590;  180,564;20001,915;33,14116
 390,37; 7014,532;  238,340;20408,716;33,59477
 390,96; 7087,329;  193,188;20570,771;33,83199
 391,56; 7187,044;  191,407;20731,732;34,05807
 392,15; 7287,450;  188,103;21012,597;34,09133
 392,74; 7429,783;  164,630;21139,528;34,63737
 393,33; 7551,514;  186,714;21382,297;34,74686
 393,92; 7793,317;  192,780;21783,988;35,20200
 394,51; 7868,107;  170,175;21988,050;35,28268
 395,10; 8100,165;  212,461;22189,538;35,89059
 395,69; 8149,051;  206,155;22317,361;35,92249
 396,28; 8237,109;  205,150;22429,043;36,14110
 396,87; 8321,481;  208,293;22506,720;36,38457
 397,46; 8444,702;  212,979;22584,582;36,79541
 398,06; 8580,267;  224,355;22908,699;36,83559
 398,65; 8649,451;  211,721;22862,365;37,25161
 399,24; 8761,656;  227,025;23077,241;37,35033
 399,83; 8841,716;  208,688;23078,877;37,74795
 400,42; 8908,721;  248,124;23183,898;37,76021
 401,01; 9013,251;  221,325;23296,255;38,10164
 401,60; 9108,353;  244,208;23371,456;38,32771
 402,19; 9162,798;  257,022;23296,956;38,65365
 402,78; 9224,277;  257,588;23374,469;38,78849
 403,37; 9217,816;  233,156;23158,178;39,19150
 403,96; 9169,203;  244,024;23048,728;39,13745
 404,55; 9248,329;  262,271;22963,326;39,58432
 405,14; 9200,704;  238,215;22846,319;39,64282
 405,73; 9238,209;  260,611;22788,222;39,85153
 406,32; 9278,916;  259,029;22622,115;40,33382
 406,91; 9219,156;  257,594;22411,638;40,45114
 407,50; 9196,517;  264,260;22245,873;40,63513
 408,09; 9072,336;  226,473;21951,682;40,71704
 408,68; 9172,757;  254,536;21879,207;41,24095
 409,27; 9077,956;  246,476;21712,453;41,14176
 409,86; 9073,792;  256,439;21553,202;41,40232
 410,45; 9113,110;  293,934;21550,876;41,48845
 411,04; 9087,203;  292,352;21485,723;41,49812
 411,63; 9000,129;  286,935;21190,695;41,68243
 412,22; 8964,139;  280,668;20981,662;41,94712
 412,81; 8914,563;  302,989;20780,234;42,05436
 413,40; 8828,135;  310,469;20416,348;42,36406
 413,99; 8738,279;  342,848;20183,307;42,31470
 414,58; 8508,458;  277,159;19746,662;42,27791
 415,17; 8474,082;  279,605;19575,189;42,46815
 415,76; 8415,185;  270,666;19419,040;42,53373
 416,35; 8387,875;  276,443;19110,200;43,06858
 416,94; 8451,600;  310,670;19268,010;42,94342
 417,53; 8542,552;  280,221;19408,256;43,19487
 418,12; 8610,423;  269,533;19521,995;43,32376
 418,71; 8781,335;  298,316;19861,765;43,36157
 419,30; 8834,824;  287,073;20065,109;43,21840
 419,89; 8926,063;  272,460;20163,447;43,50514
 420,48; 9071,714;  294,085;20362,535;43,73845
 421,07; 9156,910;  290,165;20498,503;43,87666
 421,66; 9143,632;  266,558;20466,188;43,94671
 422,25; 9161,019;  271,189;20540,583;43,85839
 422,84; 9192,146;  299,962;20440,598;44,15047
 423,43; 9041,715;  287,647;20178,320;44,01092
 424,02; 8963,757;  302,727;19996,442;43,97865
 424,60; 8788,901;  280,439;19584,206;44,07670
 425,19; 8671,407;  296,044;19327,453;44,00811
 425,78; 8653,729;  293,661;19228,750;44,15120
 426,37; 8640,699;  300,437;19061,951;44,45410
 426,96; 8541,833;  276,206;18925,136;44,32226
 427,55; 8495,606;  275,294;18888,508;44,16385
 428,14; 8402,751;  267,837;18586,022;44,40895
 428,73; 8347,214;  288,366;18469,381;44,32562
 429,32; 8374,748;  285,513;18413,992;44,62170
 429,91; 8374,952;  320,982;18460,799;44,39940
 430,50; 8282,486;  300,065;18279,640;44,39716
 431,08; 8214,685;  307,455;18121,157;44,38847
 431,67; 8229,755;  330,460;18059,181;44,55648
 432,26; 8132,081;  352,773;17866,633;44,41801
 432,85; 7971,637;  372,079;17525,688;44,30297
 433,44; 7830,778;  388,471;17227,983;44,19551
 434,03; 7706,839;  402,711;16826,982;44,47155
 434,62; 7445,453;  359,087;16459,216;44,01435
 435,21; 7445,979;  365,618;16298,030;44,43998
 435,79; 7340,569;  376,323;16109,888;44,26362
 436,38; 7273,223;  368,410;15986,717;44,20974
 436,97; 7248,980;  351,796;15943,277;44,23688
 437,56; 7081,282;  366,118;15775,296;43,57899
 438,15; 7033,445;  330,960;15658,418;43,72862
 438,74; 7086,015;  358,116;15673,578;43,92880
 439,33; 7066,106;  334,421;15641,739;43,97691
 439,91; 7038,626;  308,120;15728,245;43,64755
 440,50; 7088,575;  353,275;15720,771;43,82822
 441,09; 7137,197;  352,437;15858,362;43,75592
 441,68; 7095,794;  330,291;15871,755;43,53195
 442,27; 7094,259;  309,595;15870,416;43,60094
 442,86; 7041,754;  286,691;15851,837;43,39865
 443,44; 7038,254;  306,610;15894,282;43,18569
 444,03; 7097,666;  376,999;16005,300;43,00318
 444,62; 7010,344;  300,075;15815,177;43,24992
 445,21; 6941,797;  324,227;15685,782;43,07878
 445,80; 6886,502;  356,622;15621,797;42,77632
 446,39; 6783,679;  367,697;15356,081;42,80636
 446,97; 6617,959;  300,708;15192,640;42,42062
 447,56; 6533,744;  305,024;14946,971;42,54024
 448,15; 6448,426;  323,939;14810,409;42,27729
 448,74; 6308,301;  331,940;14558,368;42,00886
 449,33; 6237,453;  323,946;14452,718;41,85436
 449,91; 6135,409;  318,033;14243,239;41,77587
 450,50; 6016,563;  307,954;13988,738;41,72721
 451,09; 5996,326;  335,493;13900,297;41,73177
 451,68; 5904,186;  356,497;13844,731;41,12984
 452,26; 5861,390;  340,040;13735,304;41,21867
 452,85; 5772,456;  319,499;13610,323;41,02798
 453,44; 5761,496;  341,974;13683,567;40,62126
 454,03; 5735,164;  314,351;13625,594;40,72357
 454,61; 5664,852;  311,590;13609,495;40,25644
 455,20; 5767,470;  338,979;13743,391;40,49779
 455,79; 5758,067;  348,740;13741,725;40,38925
 456,38; 5754,756;  342,063;13817,793;40,16623
 456,97; 5725,608;  330,061;13863,829;39,86730
 457,55; 5739,989;  329,759;13876,516;39,93746
 458,14; 5716,016;  356,290;13890,729;39,60065
 458,73; 5672,191;  341,529;13835,213;39,50487
 459,31; 5675,190;  366,306;13850,064;39,37243
 459,90; 5717,279;  383,302;13974,214;39,24665
 460,49; 5725,709;  420,299;14008,495;39,04426
 461,08; 5671,098;  340,310;14107,021;38,72231
 461,66; 5692,817;  341,306;14143,370;38,77326
 462,25; 5770,325;  349,006;14205,437;39,12493
 462,84; 5715,608;  376,465;14250,179;38,48388
 463,43; 5610,036;  301,938;14247,046;38,06423
 464,01; 5663,055;  339,172;14309,864;38,10751
 464,60; 5615,637;  396,704;14200,171;37,80886
 465,19; 5497,413;  339,251;13997,782;37,76513
 465,77; 5495,848;  340,871;13977,125;37,80347
 466,36; 5401,665;  371,245;13839,631;37,34983
 466,95; 5272,218;  353,477;13528,774;37,33305
 467,53; 5182,343;  350,645;13289,085;37,34374
 468,12; 5036,351;  372,646;13030,152;36,84537
 468,71; 4918,798;  349,714;12788,109;36,73371
 469,29; 4850,317;  337,032;12597,465;36,81179
 469,88; 4712,607;  341,805;12287,066;36,59026
 470,47; 4780,210;  410,505;12431,822;36,34963
 471,06; 4685,982;  365,120;12397,793;35,90940
 471,64; 4739,540;  375,118;12462,030;36,10866
 472,23; 4731,404;  332,518;12524,681;36,07962
 472,81; 4748,391;  330,972;12651,188;35,85504
 473,40; 4750,671;  343,056;12714,206;35,62818
 473,99; 4879,854;  441,364;12943,375;35,50220
 474,57; 4821,592;  349,979;13036,466;35,24705
 475,16; 4888,296;  370,204;13165,595;35,31031
 475,75; 4958,819;  376,600;13294,845;35,47091
 476,33; 4931,866;  383,837;13411,872;34,90956
 476,92; 4933,338;  386,288;13452,566;34,79988
 477,51; 4983,918;  371,757;13544,460;35,01302
 478,09; 4913,744;  368,526;13511,952;34,58168
 478,68; 4895,102;  375,529;13454,486;34,55607
 479,27; 4933,038;  407,139;13495,077;34,58069
 479,85; 4865,960;  381,605;13495,561;34,19528
 480,44; 4905,686;  364,993;13660,405;34,15233
 481,02; 5303,958;  382,306;14973,490;33,73032
 481,61; 5992,244;  404,380;16859,203;33,95882
 482,20; 6363,414;  382,844;18027,106;33,89527
 482,78; 6620,182;  415,453;18824,862;33,70412
 483,37; 6767,447;  404,160;19388,819;33,51805
 483,95; 6906,506;  414,546;19540,072;33,94396
 484,54; 6921,503;  429,918;19769,660;33,56604
 485,13; 6894,935;  405,860;19637,609;33,74147
 485,71; 6789,038;  383,088;19561,922;33,40115
 486,30; 6728,018;  414,396;19225,799;33,56274
 486,88; 6609,226;  453,937;18897,130;33,37431
 487,47; 6356,895;  439,784;18158,769;33,39419
 488,05; 6095,789;  423,480;17350,736;33,50992
 488,64; 5638,480;  419,870;16087,163;33,30895
 489,23; 5052,248;  438,174;14340,035;33,19033
 489,81; 4303,868;  428,406;12265,536;32,73988
 490,40; 4086,199;  387,177;11679,649;32,75653
 490,98; 3934,811;  377,333;11388,277;32,30856
 491,57; 3936,022;  389,405;11305,362;32,49021
 492,15; 3905,979;  379,719;11271,497;32,37543
 492,74; 3845,618;  391,249;11185,046;32,00328
 493,32; 3827,381;  401,179;11096,090;32,03582
 493,91; 3752,516;  371,029;10997,172;31,82234
 494,50; 3767,204;  396,040;10987,804;31,82816
 495,08; 3689,543;  367,578;10899,848;31,54083
 495,67; 3741,930;  393,490;10870,398;31,96019
 496,25; 3637,635;  329,188;10741,795;31,77347
 496,84; 3638,898;  352,951;10758,565;31,57860
 497,42; 3621,370;  346,344;10738,589;31,51413
 498,01; 3584,348;  371,414;10640,741;31,28671
 498,59; 3551,880;  337,653;10625,516;31,24290
 499,18; 3538,927;  341,722;10495,159;31,48889
 499,76; 3539,091;  361,958;10446,642;31,50454
 500,35; 3459,397;  344,581;10305,032;31,27184
 500,93; 3462,213;  327,267;10285,849;31,47985
 501,52; 3401,424;  332,883;10186,900;31,14000
 502,10; 3409,741;  357,201;10166,328;31,11939
 502,69; 3327,088;  332,974; 9938,653;31,17025
 503,27; 3271,822;  315,963; 9848,314;31,00871
 503,86; 3300,706;  333,818; 9763,892;31,46198
 504,44; 3203,612;  317,822; 9600,262;31,08870
 505,03; 3119,934;  297,206; 9442,846;30,86419
 505,61; 3074,658;  323,205; 9319,101;30,58564
 506,19; 3058,959;  353,052; 9155,045;30,74198
 506,78; 2987,699;  304,906; 8972,804;30,95090
 507,36; 2933,629;  317,744; 8825,028;30,74876
 507,95; 2889,114;  315,679; 8697,312;30,70327
 508,53; 2870,767;  315,444; 8551,911;31,02450
 509,12; 2778,182;  330,293; 8424,091;30,24401
 509,70; 2764,587;  337,141; 8297,561;30,49394
 510,29; 2715,375;  342,760; 8155,917;30,36692
 510,87; 2637,046;  312,906; 7973,279;30,33978
 511,46; 2569,072;  299,523; 7826,672;30,15151
 512,04; 2583,883;  312,219; 7675,583;30,85089
 512,62; 2519,744;  315,985; 7551,241;30,45862
 513,21; 2441,532;  298,068; 7394,888;30,20316
 513,79; 2410,159;  304,542; 7274,481;30,20998
 514,38; 2344,795;  278,384; 7111,677;30,24034
 514,96; 2339,434;  328,691; 7037,290;29,97262
 515,54; 2279,675;  293,309; 6884,424;30,13703
 516,13; 2264,849;  316,540; 6833,644;29,89531
 516,71; 2227,232;  308,699; 6687,051;30,07882
 517,30; 2172,989;  285,396; 6596,440;29,90937
 517,88; 2172,169;  311,780; 6533,254;29,90270
 518,46; 2120,485;  281,167; 6366,725;30,22431
 519,05; 2101,516;  310,247; 6315,772;29,82700
 519,63; 2089,895;  301,630; 6284,195;29,89127
 520,22; 2068,512;  318,330; 6201,767;29,74761
 520,80; 2037,167;  306,715; 6200,647;29,35989
 521,38; 2070,387;  338,325; 6179,452;29,65288
 521,97; 2018,351;  302,334; 6099,770;29,59959
 522,55; 2020,078;  319,257; 6071,093;29,57005
 523,13; 1996,901;  281,260; 6101,751;29,47588
 523,72; 1991,664;  296,397; 6063,462;29,39566
 524,30; 2063,909;  310,955; 6224,858;29,64123
 524,89; 1997,237;  285,719; 6213,573;28,87247
 525,47; 2063,262;  315,803; 6325,757;29,07607
 526,05; 2061,219;  278,958; 6353,561;29,33954
 526,64; 2090,660;  316,421; 6509,940;28,64670
 527,22; 2138,729;  310,033; 6629,372;28,93808
 527,80; 2204,489;  341,652; 6780,615;28,93070
 528,39; 2188,494;  301,808; 6769,289;29,17188
 528,97; 2240,372;  299,345; 6970,083;29,09763
 529,55; 2281,544;  317,491; 7159,382;28,70630
 530,14; 2359,787;  338,810; 7344,514;28,84759
 530,72; 2352,813;  298,422; 7454,499;28,70835
 531,30; 2376,750;  278,888; 7545,394;28,87030
 531,89; 2428,952;  310,657; 7640,840;28,89826
 532,47; 2467,587;  338,274; 7729,848;28,80730
 533,05; 2491,355;  343,267; 7796,815;28,81967
 533,63; 2482,972;  332,891; 7857,868;28,57259
 534,22; 2479,784;  304,506; 7869,622;28,75405
 534,80; 2517,546;  328,588; 7970,261;28,64501
 535,38; 2594,294;  410,504; 8060,182;28,54748
 535,97; 2536,980;  323,198; 8016,588;28,77513
 536,55; 2594,600;  368,974; 8064,957;28,91933
 537,13; 2550,041;  373,810; 8034,684;28,40708
 537,71; 2593,616;  417,348; 8098,650;28,33202
 538,30; 2618,048;  430,431; 8181,139;28,22474
 538,88; 2652,417;  465,362; 8229,021;28,17042
 539,46; 2697,888;  506,050; 8422,968;27,68550
 540,05; 2767,657;  525,283; 8532,797;28,00337
 540,63; 2832,526;  571,745; 8710,352;27,77847
 541,21; 2899,135;  617,364; 8894,721;27,56642
 541,79; 2899,952;  626,210; 9006,166;27,13311
 542,38; 2967,386;  656,437; 9154,071;27,19521
 542,96; 3011,282;  673,291; 9277,109;27,17388
 543,54; 3069,417;  681,055; 9495,579;27,09575
 544,12; 3094,553;  650,903; 9687,525;27,04164
 544,70; 3116,761;  649,214; 9723,665;27,19224
 545,29; 3148,457;  661,052; 9906,533;26,90401
 545,87; 3167,106;  639,902; 9891,628;27,31603
 546,45; 3142,643;  584,052; 9943,577;27,33676
 547,03; 3146,682;  577,285; 9993,574;27,28673
 547,62; 3175,796;  551,441;10139,292;27,37166
 548,20; 3227,333;  553,444;10248,429;27,58013
 548,78; 3235,007;  521,916;10419,246;27,41235
 549,36; 3273,377;  482,684;10605,949;27,56712
 549,94; 3300,721;  446,673;10779,283;27,62175
 550,53; 3351,785;  442,298;10983,233;27,60179
 551,11; 3392,482;  426,534;11153,871;27,64851
 551,69; 3500,109;  445,376;11457,040;27,74089
 552,27; 3512,580;  393,296;11683,084;27,62926
 552,85; 3632,502;  399,918;12082,685;27,66968
 553,44; 3675,577;  399,145;12322,039;27,48017
 554,02; 3800,938;  410,224;12702,216;27,58474
 554,60; 3855,046;  360,611;12983,243;27,68389
 555,18; 3986,887;  398,377;13365,010;27,67496
 555,76; 4077,799;  365,609;13720,647;27,79618
 556,34; 4168,339;  378,230;14113,353;27,59428
 556,93; 4252,260;  370,454;14482,627;27,50679
 557,51; 4321,270;  350,077;14769,016;27,54151
 558,09; 4460,833;  382,300;15199,180;27,52626
 558,67; 4523,523;  375,465;15515,784;27,39743
 559,25; 4626,629;  390,386;15819,991;27,45529
 559,83; 4722,226;  365,467;16095,458;27,69715
 560,41; 4752,749;  368,768;16443,224;27,27297
 561,00; 4892,090;  367,234;16785,108;27,56055
 561,58; 4922,068;  344,767;17004,453;27,47532
 562,16; 5007,832;  347,534;17336,702;27,43100
 562,74; 5076,519;  347,378;17721,201;27,21992
 563,32; 5156,785;  347,775;18125,965;27,05005
 563,90; 5324,691;  361,234;18462,138;27,42105
 564,48; 5406,852;  365,305;18914,710;27,17902
 565,06; 5578,974;  365,772;19433,227;27,34084
 565,65; 5773,918;  363,088;20044,403;27,49222
 566,23; 5967,902;  410,542;20815,016;27,23599
 566,81; 6112,572;  353,232;21434,806;27,31931
 567,39; 6381,235;  363,315;22300,678;27,43228
 567,97; 6580,543;  385,694;22920,733;27,48985
 568,55; 6750,286;  388,621;23740,671;27,24243
 569,13; 6956,834;  364,696;24467,832;27,34971
 569,71; 7161,006;  359,610;25327,132;27,24097
 570,29; 7507,728;  396,608;26245,011;27,51087
 570,87; 7674,314;  396,840;26985,343;27,37076
 571,45; 7861,256;  377,926;27601,029;27,48889
 572,03; 7954,739;  343,239;27961,222;27,55994
 572,61; 8139,369;  334,236;28658,824;27,55603
 573,20; 8308,077;  385,616;29390,848;27,31390
 573,78; 8490,568;  367,006;29875,934;27,52917
 574,36; 8640,965;  373,312;30441,759;27,49611
 574,94; 8772,166;  435,086;30797,227;27,45880
 575,52; 8717,743;  378,016;31008,304;27,22706
 576,10; 8935,487;  432,859;31624,738;27,25911
 576,68; 9043,004;  417,700;32064,698;27,25473
 577,26; 9247,210;  439,173;32824,747;27,19741
 577,84; 9400,150;  435,082;33311,515;27,26898
 578,42; 9450,864;  473,857;33478,651;27,19910
 579,00; 9428,660;  436,775;33635,442;27,08508
 579,58; 9516,391;  469,932;33937,228;27,03074
 580,16; 9453,863;  456,089;33933,363;26,87726
 580,74; 9558,447;  449,474;34083,319;27,08276
 581,32; 9534,012;  440,779;34167,862;26,96122
 581,90; 9483,485;  464,781;34101,747;26,81188
 582,48; 9495,032;  455,012;34282,332;26,72402
 583,06; 9532,106;  455,856;34362,937;26,76801
 583,64; 9561,753;  454,471;34531,442;26,72562
 584,22; 9424,011;  456,171;34396,463;26,42240
 584,80; 9377,949;  481,857;34079,390;26,47841
 585,38; 9248,057;  479,538;33694,321;26,39945
 585,96; 9229,813;  448,161;33857,462;26,28505
 586,54; 9218,632;  469,478;33797,750;26,25145
 587,12; 9219,937;  449,398;34103,124;26,06112
 587,70; 9232,936;  476,238;34127,726;26,02173
 588,28; 9236,573;  458,244;34244,785;25,98173
 588,86; 9241,869;  462,169;34299,191;25,94702
 589,44; 9239,252;  442,022;34369,330;25,92964
 590,02; 9220,862;  447,020;34636,214;25,66262
 590,59; 9212,638;  429,477;34723,288;25,61150
 591,17; 9244,712;  426,029;35011,854;25,49797
 591,75; 9309,291;  422,101;35141,481;25,59720
 592,33; 9280,075;  444,407;35301,180;25,34850
 592,91; 9343,812;  385,181;35532,062;25,48912
 593,49; 9399,170;  390,569;35894,385;25,37362
 594,07; 9435,715;  415,030;36051,230;25,31326
 594,65; 9453,951;  419,478;36152,307;25,28340
 595,23; 9491,608;  409,558;36498,582;25,16569
 595,81; 9522,110;  407,252;36607,944;25,17868
 596,39; 9552,357;  398,945;36722,423;25,19971
 596,97; 9550,322;  397,027;36945,738;25,04410
 597,55; 9483,375;  380,480;36785,822;25,00428
 598,12; 9463,672;  392,801;36843,285;24,88546
 598,70; 9468,744;  377,413;36958,283;24,85269
 599,28; 9540,402;  393,182;37213,576;24,84281
 599,86; 9525,755;  380,797;37142,896;24,87605
 600,44; 9494,851;  347,645;37263,443;24,77857
 601,02; 9484,767;  410,961;37241,988;24,63631
 601,60; 9448,824;  387,409;37168,790;24,63587
 602,18; 9465,962;  361,493;37299,344;24,64807
 602,75; 9373,526;  359,559;37367,219;24,35703
 603,33; 9391,815;  377,951;37360,591;24,37323
 603,91; 9430,369;  361,573;37324,497;24,53484
 604,49; 9407,635;  386,490;37421,470;24,35844
 605,07; 9401,773;  387,870;37436,834;24,32970
 605,65; 9384,458;  397,030;37586,878;24,16635
 606,23; 9388,324;  457,246;37731,038;23,96075
 606,80; 9394,266;  498,175;37784,818;23,85865
 607,38; 9419,648;  531,418;37725,308;23,89702
 607,96; 9480,349;  575,328;37784,125;23,93257
 608,54; 9499,045;  649,646;37914,093;23,74757
 609,12; 9468,771;  630,406;37903,880;23,71221
 609,70; 9473,487;  660,566;38026,295;23,58557
 610,27; 9439,862;  682,020;38081,214;23,41719
 610,85; 9462,499;  702,489;38111,217;23,41702
 611,43; 9433,729;  688,720;38030,852;23,41861
 612,01; 9349,642;  662,254;37782,215;23,40355
 612,59; 9302,165;  667,258;37907,018;23,18733
 613,16; 9236,501;  620,863;37815,017;23,16396
 613,74; 9194,473;  589,336;37665,576;23,20930
 614,32; 9218,005;  559,569;37691,925;23,31777
 614,90; 9196,396;  529,102;37567,978;23,40053
 615,48; 9085,466;  482,018;37205,946;23,42736
 616,05; 9027,572;  448,093;37231,614;23,32425
 616,63; 8960,755;  445,630;37017,359;23,28335
 617,21; 8919,848;  452,174;36928,245;23,21433
 617,79; 8847,414;  431,945;36883,378;23,08680
 618,36; 8837,898;  443,332;36837,895;23,06544
 618,94; 8720,708;  381,250;36430,579;23,13346
 619,52; 8619,131;  405,554;36255,639;22,91090
 620,10; 8635,611;  391,944;36205,497;23,01829
 620,67; 8572,567;  395,630;36085,806;22,91089
 621,25; 8527,041;  413,794;35996,666;22,80099
 621,83; 8467,107;  393,481;35913,241;22,72996
 622,41; 8475,811;  443,096;35948,624;22,62384
 622,98; 8398,837;  398,553;35616,127;22,71674
 623,56; 8424,664;  406,860;35652,446;22,74839
 624,14; 8350,997;  388,334;35464,029;22,70137
 624,72; 8236,281;  383,634;35382,209;22,43705
 625,29; 8268,014;  375,091;35419,278;22,52278
 625,87; 8287,520;  404,484;35448,009;22,49499
 626,45; 8200,775;  358,474;35305,518;22,44053
 627,02; 8157,474;  376,638;35172,688;22,36126
 627,60; 8138,396;  365,953;35208,750;22,30717
 628,18; 8094,694;  336,406;35183,034;22,26410
 628,76; 8130,806;  343,630;35152,622;22,37116
 629,33; 8089,620;  377,787;35141,849;22,18335
 629,91; 8069,303;  360,329;35171,958;22,14483
 630,49; 8097,808;  375,401;35215,998;22,16497
 631,06; 8116,712;  374,785;35425,240;22,08795
 631,64; 8097,590;  362,321;35408,705;22,07152
 632,22; 8022,872;  332,395;35337,755;21,96943
 632,79; 8090,146;  357,395;35576,586;21,95607
 633,37; 8081,804;  343,793;35634,186;21,92668
 633,95; 8116,522;  348,089;35788,117;21,91994
 634,52; 8055,517;  335,557;35793,285;21,77229
 635,10; 8094,816;  331,174;35839,663;21,86419
 635,68; 8124,810;  337,703;36062,263;21,79763
 636,25; 8084,132;  323,237;35952,922;21,78210
 636,83; 8094,652;  314,784;36204,083;21,67740
 637,41; 8106,459;  339,240;36289,950;21,60519
 637,98; 8152,673;  345,009;36452,163;21,62359
 638,56; 8170,312;  340,005;36522,485;21,64116
 639,13; 8078,863;  318,860;36600,787;21,38807
 639,71; 8206,783;  363,554;36768,087;21,54465
 640,29; 8060,793;  288,554;36497,658;21,46488
 640,86; 8065,799;  312,093;36735,158;21,28790
 641,44; 8053,112;  313,478;36666,581;21,29016
 642,02; 8063,426;  344,939;36703,158;21,22900
 642,59; 8073,509;  316,555;36858,197;21,22771
 643,17; 8069,361;  318,863;36784,774;21,25409
 643,74; 8071,136;  307,786;36875,121;21,23029
 644,32; 8091,757;  335,248;36776,006;21,28526
 644,89; 8033,763;  329,633;36777,275;21,13753
 645,47; 8090,154;  340,479;36918,852;21,18649
 646,05; 8015,006;  337,787;36779,199;21,06729
 646,62; 8013,858;  322,326;36798,930;21,08621
 647,20; 8021,633;  333,403;36934,507;21,00546
 647,77; 7992,793;  306,018;36822,392;21,05021
 648,35; 7958,799;  310,711;36681,738;21,02797
 648,92; 7960,036;  327,557;36769,469;20,94423
 649,50; 7930,580;  287,327;36593,124;21,05243
 650,08; 7884,894;  298,173;36527,470;20,94084
 650,65; 7907,746;  301,481;36760,893;20,86228
 651,23; 8117,675;  294,789;37478,009;21,03875
 651,80; 8259,142;  282,097;38426,279;20,91288
 652,38; 8396,456;  297,943;38764,010;21,05365
 652,95; 8455,154;  282,251;39119,125;21,04418
 653,53; 8473,237;  318,021;39376,395;20,87956
 654,10; 8507,550;  339,328;39472,357;20,87296
 654,68; 8442,172;  289,021;39460,626;20,81393
 655,25; 8420,562;  285,867;39602,434;20,69025
 655,83; 8451,645;  284,637;39603,857;20,77103
 656,40; 8487,343;  318,252;39534,204;20,83104
 656,98; 8411,657;  288,714;39457,089;20,73852
 657,55; 8369,432;  299,253;39281,589;20,70214
 658,13; 8266,130;  294,407;39005,397;20,59292
 658,70; 8189,675;  310,869;38751,436;20,49607
 659,28; 8003,527;  314,253;37982,782;20,41299
 659,85; 7843,917;  305,254;37119,206;20,47774
 660,43; 7840,462;  321,177;37207,629;20,38495
 661,00; 7774,621;  304,100;37314,591;20,18487
 661,58; 7811,858;  300,639;37590,860;20,14260
 662,15; 7882,556;  281,024;37801,361;20,25977
 662,73; 7973,870;  346,409;38066,938;20,22098
 663,30; 7992,337;  300,409;38285,515;20,24985
 663,88; 8008,574;  315,178;38452,169;20,17305
 664,45; 7993,349;  290,717;38705,285;20,05133
 665,03; 8106,355;  296,333;38921,093;20,22025
 665,60; 8251,361;  372,563;39514,747;20,12866
 666,17; 8153,444;  304,718;39569,709;19,98912
 666,75; 8218,065;  301,564;39834,209;20,02523
 667,32; 8300,994;  321,718;40222,863;19,99761
 667,90; 8347,692;  297,872;40553,979;19,99652
 668,47; 8377,929;  316,257;40718,941;19,95331
 669,05; 8410,781;  299,719;41088,210;19,88566
 669,62; 8480,172;  274,565;41105,710;20,09644
 670,19; 8475,101;  287,411;41229,826;19,99806
 670,77; 8564,645;  293,719;41441,249;20,10066
 671,34; 8487,497;  301,258;41367,134;19,93441
 671,92; 8563,657;  281,643;41697,327;19,99729
 672,49; 8553,894;  309,643;41711,443;19,91278
 673,06; 8561,746;  256,643;41810,404;19,98640
 673,64; 8515,521;  287,720;41795,982;19,82208
 674,21; 8513,834;  279,721;41652,251;19,90237
 674,79; 8585,763;  305,567;41889,982;19,91178
 675,36; 8602,538;  307,106;42048,405;19,87344
 675,93; 8539,083;  269,798;41923,290;19,85256
 676,51; 8559,935;  296,337;42038,791;19,79663
 677,08; 8575,787;  300,029;42205,676;19,74855
 677,65; 8579,178;  300,876;42223,945;19,74641
 678,23; 8613,876;  299,722;42528,138;19,68853
 678,80; 8575,420;  287,261;42656,253;19,56185
 679,38; 8640,195;  284,030;42765,984;19,66992
 679,95; 8642,509;  303,184;42939,100;19,55939
 680,52; 8633,207;  285,338;43307,216;19,40378
 681,10; 8784,905;  299,338;43558,870;19,61548
 681,67; 8768,757;  298,493;43842,832;19,45205
 682,24; 8784,763;  268,570;43972,563;19,48608
 682,82; 8878,154;  280,108;44494,448;19,44628
 683,39; 8962,621;  326,186;44959,179;19,34989
 683,96; 8993,550;  289,032;45091,371;19,42871
 684,54; 9023,787;  276,109;45456,641;19,36161
 685,11; 9094,408;  309,340;45702,833;19,35314
 685,68; 9174,876;  286,186;46266,487;19,33152
 686,25; 9127,805;  269,033;46346,142;19,22597
 686,83; 9154,580;  281,187;46473,950;19,20949
 687,40; 9227,047;  273,418;46719,296;19,27755
 687,97; 9317,976;  297,110;47163,489;19,24805
 688,55; 9299,521;  260,264;47251,297;19,23613
 689,12; 9296,680;  244,188;47453,335;19,17529
 689,69; 9292,917;  250,342;47563,451;19,11220
 690,26; 9326,769;  267,880;47710,336;19,09448
 690,84; 9347,006;  276,958;47853,298;19,06420
 691,41; 9399,704;  288,496;48013,567;19,09103
 691,98; 9497,633;  295,189;48194,683;19,21199
 692,56; 9467,793;  278,881;48329,260;19,12349
 693,13; 9536,414;  328,728;48309,991;19,19017
 693,70; 9528,959;  300,574;48497,568;19,14722
 694,27; 9437,811;  272,728;48602,222;18,96375
 694,84; 9487,817;  274,344;48711,184;19,02162
 695,42; 9642,207;  331,728;48858,454;19,18629
 695,99; 9552,444;  292,190;49050,723;18,99207
 696,56; 9578,527;  285,575;48886,531;19,12092
 697,13; 9637,917;  302,960;49344,339;19,03486
 697,71; 9626,154;  269,806;49297,147;19,08394
 698,28; 9675,006;  279,345;49636,724;19,03598
 698,85; 9655,627;  255,422;49652,917;19,02972
 699,42; 9689,864;  259,884;49787,879;19,03970
 699,99; 9724,716;  299,115;49910,456;18,99888
 700,57; 9709,722;  294,269;50012,802;18,93751
 701,14; 9725,343;  271,423;50102,610;18,97189
 701,71; 9808,426;  310,808;50372,803;18,97171
 702,28; 9763,355;  286,193;50343,765;18,93253
 702,85; 9778,669;  287,193;50442,034;18,92435
 703,43; 9847,059;  305,116;50729,842;18,92314
 704,00; 9907,450;  323,270;50879,650;18,95741
 704,57; 9799,609;  295,193;50869,381;18,79302
 705,14; 9937,769;  320,578;51078,189;18,94729
 705,71; 9929,621;  325,348;51209,536;18,87477
 706,28; 9871,858;  297,425;51085,036;18,85191
 706,86; 9914,633;  334,810;51220,152;18,82629
 707,43; 9944,408;  349,502;51187,113;18,87364
 708,00; 9958,030;  322,272;51296,614;18,90315
 708,57; 9961,036;  303,964;51216,191;18,96808
 709,14; 9961,041;  323,118;51342,845;18,89058
 709,71; 9980,432;  303,426;51511,961;18,89725
 710,28;10023,130;  294,888;51644,769;18,94501
 710,86;10058,751;  311,196;51785,884;18,93660
 711,43;10074,680;  324,196;51754,539;18,95862
 712,00;10052,456;  315,504;51848,654;18,89454
 712,57;10130,077;  311,350;52033,308;18,98367
 713,14;10101,775;  300,735;52068,655;18,93265
 713,71;10096,627;  311,428;52110,540;18,89067
 714,28;10101,710;  294,043;52009,194;18,96478
 714,85;10059,254;  282,428;51853,925;18,95781
 715,42;10105,030;  290,121;52085,887;18,94925
 716,00;10148,420;  358,659;52233,310;18,87196
 716,57;10117,041;  290,044;52298,579;18,89497
 717,14;10028,278;  278,967;52131,541;18,80198
 717,71;10067,976;  261,045;52118,965;18,91116
 718,28;10114,598;  308,429;52350,926;18,84262
 718,85; 9996,142;  262,891;52374,504;18,67770
 719,42;10134,686;  289,661;52479,081;18,86403
 719,99;10045,462;  269,122;52273,735;18,79898
 720,56;10119,083;  299,353;52573,851;18,78493
 721,13;10153,396;  271,661;52641,043;18,86930
 721,70;10099,402;  261,969;52528,851;18,82154
 722,27;10094,793;  285,969;52482,890;18,79196
 722,84;10217,799;  332,354;52699,775;18,87709
 723,41;10118,266;  267,662;52779,891;18,75869
 723,98;10137,811;  282,970;52943,391;18,71394
 724,55;10230,355;  312,509;52994,814;18,82576
 725,12;10112,592;  239,124;52916,776;18,74318
 725,69;10219,521;  274,586;53109,584;18,82263
 726,27;10175,142;  278,586;53314,700;18,66003
 726,84;10283,148;  291,817;53571,892;18,75247
 727,41;10323,231;  292,048;53460,008;18,86697
 727,98;10341,006;  301,202;53736,508;18,78871
 728,55;10325,858;  322,202;53596,470;18,77765
 729,12;10337,172;  271,664;53726,816;18,82982
 729,69;10421,024;  304,741;53872,086;18,88517
 730,26;10383,876;  303,665;54140,048;18,72379
 730,82;10380,420;  291,203;54027,163;18,77554
 731,39;10457,426;  297,204;54132,971;18,87262
 731,96;10510,201;  271,434;54460,395;18,89456
 732,53;10532,592;  293,204;54703,357;18,81889
 733,10;10544,598;  303,281;54686,011;18,83193
 733,67;10637,834;  296,358;54987,973;18,90871
 734,24;10540,840;  282,743;54595,704;18,88702
 734,81;10549,923;  323,897;54758,819;18,78578
 735,38;10531,929;  284,436;54541,550;18,88691
 735,95;10489,396;  291,282;54325,974;18,87327
 736,52;10490,864;  307,975;54542,320;18,77572
 737,09;10499,254;  300,052;54205,128;18,92067
 737,66;10581,414;  338,283;54294,628;18,98411
 738,23;10556,882;  283,206;54435,282;18,97190
 738,80;10642,965;  347,206;54783,244;18,91350
 739,37;10605,740;  307,360;54988,283;18,83359
 739,94;10681,130;  291,361;54960,783;19,00472
 740,51;10776,444;  398,822;54989,976;19,00971
 741,07;10625,834;  287,669;55001,784;18,89488
 741,64;10752,533;  305,361;55283,207;19,00251
 742,21;10759,923;  287,438;55298,861;19,03693
 742,78;10701,391;  265,515;55003,439;19,06516
 743,35;10749,935;  296,054;55360,631;18,98477
 743,92;10823,941;  321,439;55485,901;19,03853
 744,49;10882,870;  315,978;55347,324;19,20159
 745,06;10774,645;  283,747;55364,517;19,04639
 745,63;10786,343;  276,132;55307,940;19,09843
 746,19;10783,041;  284,978;55291,671;19,08507
 746,76;10794,817;  295,440;55333,787;19,07648
 747,33;10772,130;  284,671;55331,287;19,05196
 747,90;10852,982;  304,287;55570,172;19,08717
 748,47;10854,604;  292,595;55467,287;19,14285
 749,04;10869,225;  314,133;55417,095;19,15522
 749,61;10865,538;  324,903;55368,827;19,14950
 750,17;10874,006;  311,672;55477,865;19,14639
 750,74;10876,858;  301,749;55411,981;19,18901
 751,31;10826,172;  267,826;55307,404;19,18319
 751,88;10844,101;  266,980;55142,289;19,27483
 752,45;10934,722;  287,750;55391,174;19,32180
 753,02;10928,036;  298,442;55082,674;19,40265
 753,58;10894,734;  276,981;55049,098;19,38532
 754,15;10938,432;  283,751;55229,829;19,39116
 754,72;10894,592;  282,828;54954,406;19,41002
 755,29;10886,290;  267,597;54789,445;19,47603
 755,86;10917,911;  284,597;54987,330;19,43836
 756,42;10999,071;  286,828;54919,830;19,60764
 756,99;10934,462;  251,136;54833,253;19,57294
 757,56;10946,237;  270,060;54787,677;19,58299
 758,13;10904,012;  211,367;54778,869;19,59526
 758,70;10992,172;  238,598;54822,677;19,70093
 759,26;10940,870;  228,060;54837,562;19,61712
 759,83;11014,107;  239,060;54939,293;19,69836
 760,40;11016,036;  226,753;54823,793;19,76166
 760,97;10983,503;  217,830;54841,678;19,70874
 761,53;10931,201;  200,446;54453,948;19,77892
 762,10;10965,361;  212,984;54440,756;19,82817
 762,67;10940,598;  244,523;54427,102;19,74080
 763,24;10852,142;  202,292;54032,295;19,78423
 763,80;10963,379;  238,677;54121,334;19,90381
 764,37;10890,154;  240,139;54150,218;19,75515
 764,94;10821,391;  216,524;53655,411;19,84485
 765,50;10872,704;  229,447;53698,681;19,90539
 766,07;10859,556;  273,909;53765,258;19,78946
 766,64;10787,024;  237,909;53484,912;19,81166
 767,21;10788,722;  249,525;53336,874;19,85256
 767,77;10834,420;  272,371;53316,989;19,91163
 768,34;10817,965;  278,294;53213,182;19,91063
 768,91;10805,817;  270,371;53061,836;19,95672
 769,47;10780,361;  263,449;53144,952;19,88770
 770,04;10800,290;  273,680;52968,529;19,97655
 770,61;10736,834;  255,988;52776,106;19,95587
 771,18;10753,225;  248,142;52584,299;20,07232
 771,74;10815,308;  271,449;52771,953;20,08335
 772,31;10769,621;  262,527;52573,530;20,08582
 772,88;10727,012;  234,988;52332,800;20,13909
 773,44;10710,633;  253,066;52111,300;20,16568
 774,01;10778,408;  270,373;52206,262;20,23270
 774,58;10702,260;  249,527;51799,300;20,27697
 775,14;10784,882;  247,220;51982,955;20,36825
 775,71;10749,580;  249,605;51886,147;20,33439
 776,27;10830,278;  309,605;51837,878;20,41728
 776,84;10862,207;  331,990;51829,917;20,44785
 777,41;10783,213;  277,836;51661,109;20,44513
 777,97;10775,373;  251,606;51326,225;20,60469
 778,54;10824,609;  273,991;51381,572;20,64394
 779,11;10811,692;  286,837;51416,610;20,58459
 779,67;10903,698;  251,376;51394,803;20,82833
 780,24;10846,627;  269,453;51262,457;20,74240
 780,80;10817,864;  285,068;51128,957;20,71595
 781,37;10809,485;  275,684;51131,765;20,71296
 781,94;10827,030;  254,684;50875,035;20,88556
 782,50;10786,728;  269,607;50789,920;20,81761
 783,07;10875,041;  292,454;50872,805;20,92233
 783,63;10812,047;  257,685;50595,997;20,96686
 784,20;10823,053;  279,685;50630,651;20,93975
 784,77;10794,751;  267,685;50313,844;21,03471
 785,33;10764,911;  241,993;50191,806;21,06698
 785,90;10760,225;  267,686;50231,998;21,00007
 786,46;10790,231;  278,840;50231,191;21,04284
 787,03;10776,160;  248,763;49988,460;21,16498
 787,59;10849,550;  260,840;49854,807;21,35080
 788,16;10798,556;  281,610;49774,076;21,24959
 788,73;10738,408;  269,533;49591,192;21,22572
 789,29;10685,030;  263,302;49230,615;21,28303
 789,86;10765,266;  282,918;49188,731;21,43375
 790,42;10702,657;  270,380;49006,693;21,40555
 790,99;10625,432;  279,611;48804,424;21,32068
 791,55;10664,515;  258,611;48747,001;21,46061
 792,12;10725,367;  286,457;48744,194;21,54230
 792,68;10631,911;  266,611;48385,386;21,54107
 793,25;10600,456;  275,227;48188,348;21,54990
 793,81;10622,923;  330,227;47839,233;21,66473
 794,38;10543,006;  239,458;47655,426;21,73012
 794,94;10543,858;  249,997;47471,003;21,79933
 795,51;10498,633;  282,074;47346,272;21,70771
 796,07;10401,408;  257,536;47077,696;21,66561
 796,64;10485,260;  295,997;47173,273;21,73604
 797,20;10417,651;  280,075;46664,312;21,85565
 797,77;10327,349;  235,921;46331,043;21,89262
 798,33;10318,047;  269,767;46193,928;21,88016
 798,90;10386,284;  287,537;46098,505;22,04439
 799,46;10275,059;  270,229;45575,928;22,08294
 800,03;10293,219;  273,383;45513,275;22,14823
 800,59;10266,456;  285,768;45370,390;22,13768
 801,15;10183,385;  288,230;45134,198;22,06476
 801,72;10170,544;  270,845;44878,006;22,19307
 802,28;10140,473;  294,615;44557,122;22,24424
 802,85;10096,249;  274,307;44399,930;22,25904
 803,41;10090,485;  263,000;44169,892;22,38256
 803,98;10039,876;  261,616;43746,777;22,48643
 804,54; 9977,574;  270,154;43444,738;22,48411
 805,11; 9983,734;  287,539;43330,623;22,52672
 805,67;10044,663;  308,078;43278,200;22,65896
 806,23; 9920,822;  266,001;42761,085;22,71985
 806,80; 9952,905;  288,617;42695,124;22,78964
 807,36; 9967,296;  287,463;42689,394;22,82876
 807,93; 9955,225;  300,848;42473,740;22,89238
 808,49; 9853,538;  249,386;42084,317;22,95726
 809,05; 9843,391;  251,156;41995,356;22,97860
 809,62; 9826,166;  289,002;41842,933;22,95129
 810,18; 9836,095;  281,541;41730,818;23,05120
 810,74; 9783,793;  245,849;41519,780;23,10888
 811,31; 9769,876;  250,618;41268,511;23,20757
 811,87; 9776,266;  259,157;41163,627;23,26667
 812,44; 9799,811;  294,926;41136,204;23,27274
 813,00; 9738,432;  220,004;40883,166;23,40799
 813,56; 9755,130;  274,696;40935,204;23,31607
 814,13; 9816,213;  259,850;40745,474;23,60434
 814,69; 9746,373;  253,235;40594,666;23,53198
 815,25; 9675,763;  236,928;40200,705;23,61848
 815,82; 9685,231;  280,697;40209,436;23,55330
 816,38; 9710,467;  300,005;40000,552;23,70361
 816,94; 9602,166;  251,928;39694,129;23,70618
 817,51; 9607,864;  238,928;39506,322;23,85933
 818,07; 9523,639;  245,775;39250,976;23,78622
 818,63; 9573,107;  273,006;39023,861;23,99973
 819,20; 9555,728;  259,006;38979,823;24,00962
 819,76; 9514,657;  242,391;38565,092;24,19523
 820,32; 9516,509;  295,853;38508,823;24,12965
 820,89; 9481,130;  276,237;38269,323;24,22781
 821,45; 9400,213;  245,930;37985,747;24,25630
 822,01; 9466,373;  270,084;37748,939;24,53727
 822,57; 9424,994;  262,853;37571,747;24,55752
 823,14; 9430,615;  237,854;37367,786;24,75836
 823,70; 9356,775;  235,854;37118,902;24,72930
 824,26; 9362,704;  249,085;36961,325;24,82447
 824,82; 9373,864;  268,854;36806,748;24,91936
 825,39; 9344,485;  246,854;36566,787;25,04859
 825,95; 9327,953;  264,239;36537,211;24,98751
 826,51; 9342,036;  262,547;36125,634;25,31709
 827,08; 9421,811;  306,240;36207,211;25,39088
 827,64; 9409,201;  270,317;36035,481;25,55247
 828,20; 9331,822;  246,471;35772,519;25,57377
 828,76; 9428,521;  269,625;35703,635;25,84775
 829,32; 9395,680;  276,317;35643,289;25,78497
 829,89; 9377,686;  231,241;35524,712;25,91540
 830,45; 9433,692;  258,010;35444,982;26,07693
 831,01; 9447,237;  252,703;35229,790;26,28731
 831,57; 9417,935;  254,011;35069,983;26,32104
 832,14; 9429,172;  246,703;35026,252;26,40192
 832,70; 9352,716;  243,088;34855,522;26,31895
 833,26; 9419,568;  214,704;34669,560;26,71572
 833,82; 9413,805;  252,242;34709,291;26,58835
 834,38; 9475,734;  247,089;34666,407;26,81240
 834,95; 9434,278;  241,473;34489,753;26,84165
 835,51; 9422,438;  209,243;34402,561;26,94443
 836,07; 9483,598;  253,705;34454,908;26,98704
 836,63; 9564,219;  264,013;34434,485;27,21708
 837,19; 9475,840;  247,859;34274,139;27,12016
 837,75; 9490,385;  219,551;33980,563;27,46018
 838,32; 9551,852;  260,167;34076,371;27,47702
 838,88; 9580,243;  262,090;34127,948;27,51489
 839,44; 9601,325;  255,783;34055,756;27,64956
 840,00; 9640,101;  252,014;33936,179;27,87092
 840,56; 9559,030;  239,860;33756,295;27,80478
 841,12; 9578,497;  235,476;33652,410;27,95894
 841,68; 9548,811;  226,091;33490,526;28,02609
 842,25; 9634,740;  231,322;33469,488;28,29102
 842,81; 9576,284;  231,246;33316,142;28,24563
 843,37; 9578,598;  214,938;33260,950;28,33522
 843,93; 9632,142;  237,938;33145,219;28,54749
 844,49; 9666,379;  247,400;33174,566;28,60549
 845,05; 9596,923;  210,170;33065,912;28,56960
 845,61; 9738,391;  248,170;33106,643;28,88211
 846,17; 9707,473;  235,785;32907,298;28,99066
 846,73; 9732,402;  241,940;32803,721;29,14602
 847,29; 9688,024;  217,324;32683,913;29,17060
 847,86; 9713,722;  235,248;32657,260;29,23469
 848,42; 9730,728;  221,017;32423,376;29,53110
 848,98; 9726,888;  249,402;32411,414;29,46795
 849,54; 9754,278;  232,864;32420,376;29,58108
 850,10; 9718,361;  239,172;32242,261;29,61961
 850,66; 9724,982;  223,326;32169,223;29,74296
 851,22; 9782,142;  216,018;32044,492;30,05524
 851,78; 9865,071;  262,172;32190,300;30,07661
 852,34; 9828,308;  247,480;31902,878;30,26602
 852,90; 9787,083;  239,711;31744,301;30,30470
 853,46; 9780,012;  221,327;31626,878;30,43629
 854,02; 9816,249;  241,096;31540,686;30,59194
 854,58; 9775,639;  237,558;31283,648;30,72233
 855,14; 9829,030;  227,712;31230,148;30,96956
 855,70; 9786,189;  199,404;31072,802;31,05193
 856,26; 9818,811;  247,482;30999,610;31,12412
 856,82; 9814,201;  223,174;30911,803;31,25271
 857,38; 9874,669;  260,405;30765,842;31,51656
 857,94; 9857,598;  225,559;30693,342;31,61385
 858,50; 9898,527;  250,790;30567,073;31,82361
 859,06; 9831,763;  231,560;30390,266;31,83228
 859,62; 9889,385;  239,868;30330,612;32,06806
 860,18; 9885,160;  229,406;30161,112;32,25928
 860,74; 9910,550;  209,945;29971,689;32,59421
 861,30; 9862,249;  208,791;29742,882;32,68581
 861,86; 9959,562;  270,638;29919,075;32,67938
 862,42; 9936,876;  237,946;29764,806;32,84782
 862,98; 9981,882;  266,176;29637,075;33,07936
 863,54; 9926,195;  236,946;29389,960;33,23584
 864,10; 9980,509;  220,638;29537,691;33,29076
 864,66; 9867,053;  213,639;29320,191;33,16578
 865,22; 9925,367;  229,485;29208,769;33,45798
 865,78; 9955,142;  242,639;29062,269;33,70100
 866,34; 9970,840;  221,255;28983,154;33,89757
 866,90; 9920,308;  246,716;28842,346;33,82891
 867,45; 9925,006;  234,024;28601,462;34,16234
 868,01; 9942,012;  240,717;28463,808;34,37361
 868,57; 9910,556;  228,640;28331,924;34,45119
 869,13; 9860,639;  212,025;28131,732;34,55844
 869,69; 9857,414;  229,871;28104,463;34,53878
 870,25; 9914,728;  212,025;28013,425;34,90005
 870,81; 9942,041;  233,103;27915,694;35,07236
 871,37; 9940,432;  241,103;27851,426;35,12936
 871,93; 9924,899;  241,334;27679,310;35,29256
 872,49; 9935,675;  262,719;27451,272;35,57731
 873,04; 9886,527;  217,411;27275,849;35,73420
 873,60; 9880,379;  217,181;27180,965;35,83769
 874,16; 9899,692;  238,719;27138,312;35,91494
 874,72; 9897,769;  230,104;27081,927;36,00376
 875,28; 9930,308;  240,258;26971,773;36,24953
 875,84; 9928,846;  230,258;26915,388;36,34454
 876,40;10022,615;  222,027;26777,388;36,90625
 876,95; 9984,615;  237,104;26837,004;36,64492
 877,51;10044,923;  264,181;26826,235;36,82224
 878,07;10112,692;  270,719;26808,004;37,08734
 878,63;10095,538;  226,335;26831,004;37,09576
 879,19;10180,692;  242,873;26770,696;37,46187
 879,75;10202,077;  233,488;26885,388;37,40292
 880,30;10239,692;  235,258;26834,388;37,61189
 880,86;10288,000;  274,335;27011,312;37,45250
 881,42;10351,385;  217,181;26987,696;37,85584
 881,98;10444,846;  251,104;27128,850;37,92633
 882,54;10507,923;  229,796;27205,542;38,10136
 883,09;10640,077;  240,104;27280,927;38,46027
 883,65;10632,154;  221,027;27450,235;38,23514
 884,21;10816,077;  258,642;27607,927;38,60223
 884,77;10824,000;  217,412;27540,696;38,81886
 885,32;10938,769;  232,104;27752,158;38,90496
 885,88;11039,692;  269,642;27948,927;38,91015
 886,44;11126,077;  234,258;28056,773;39,14750
 887,00;11209,231;  260,796;28002,388;39,46578
 887,56;11253,231;  226,873;28174,927;39,45304
 888,11;11336,231;  234,565;28173,465;39,73551
 888,67;11447,308;  261,258;28362,927;39,80564
 889,23;11486,308;  247,104;28360,696;39,97783
 889,79;11500,231;  219,873;28214,927;40,29411
 890,34;11505,000;  241,565;28168,235;40,33218
 890,90;11651,077;  303,642;28337,619;40,47743
 891,46;11595,923;  222,335;28240,235;40,59401
 892,01;11670,308;  253,950;28197,927;40,85445
 892,57;11722,923;  271,027;28211,465;40,98682
 893,13;11635,462;  224,335;27922,235;41,19853
 893,69;11721,154;  227,642;27872,081;41,57622
 894,24;11704,385;  245,027;27818,542;41,55929
 894,80;11741,000;  248,181;27712,004;41,84712
 895,36;11701,769;  239,642;27574,235;41,93268
 895,91;11655,769;  226,950;27331,773;42,16526
 896,47;11691,385;  252,335;27288,619;42,30999
 897,03;11616,077;  230,488;27012,158;42,51262
 897,58;11588,154;  254,719;27080,619;42,24811
 898,14;11587,769;  246,796;26719,235;42,84068
 898,70;11610,385;  204,950;26620,312;43,17728
 899,25;11682,615;  242,181;26628,465;43,35750
 899,81;11653,692;  248,104;26450,696;43,52847
 900,37;11563,231;  208,258;26203,696;43,68064
 900,92;11649,615;  239,642;26209,081;43,93616
 901,48;11620,308;  225,412;26078,465;44,07563
 902,03;11560,308;  212,335;25948,773;44,09302
 902,59;11607,231;  229,950;25837,081;44,43013
 903,15;11657,385;  256,488;25704,542;44,80066
 903,70;11564,154;  245,027;25477,081;44,86011
 904,26;11582,385;  223,873;25315,773;45,26764
 904,82;11614,154;  242,873;25352,542;45,28646
 905,37;11554,615;  246,719;25189,619;45,33513
 905,93;11559,000;  228,719;25007,312;45,72609
 906,48;11574,846;  243,796;25006,850;45,75789
 907,04;11613,538;  253,335;24911,388;46,07097
 907,60;11543,692;  237,950;24700,542;46,21645
 908,15;11451,385;  230,027;24588,696;46,06720
 908,71;11607,000;  257,027;24614,081;46,59830
 909,26;11491,231;  228,181;24422,619;46,55223
 909,82;11508,538;  257,412;24211,388;46,96977
 910,37;11592,385;  277,027;24242,081;47,21607
 910,93;11422,000;  226,104;24083,312;46,92878
 911,48;11428,462;  220,181;23858,388;47,41595
 912,04;11353,615;  236,796;23776,312;47,22620
 912,60;11420,231;  243,258;23848,235;47,35007
 913,15;11395,154;  239,873;23565,619;47,82390
 913,71;11331,231;  219,873;23403,696;47,92720
 914,26;11334,462;  215,104;23348,850;48,06553
 914,82;11309,000;  236,412;23261,312;48,08963
 915,37;11257,538;  223,642;23194,927;48,03343
 915,93;11311,692;  272,642;23073,158;48,41579
 916,48;11243,154;  225,719;22937,081;48,51067
 917,04;11281,692;  247,104;22802,696;48,92174
 917,59;11274,769;  263,181;22762,158;48,94262
 918,15;11165,846;  196,488;22562,388;49,04501
 918,70;11205,308;  220,873;22468,696;49,37308
 919,26;11182,462;  231,950;22437,081;49,31523
 919,81;11090,385;  220,719;22235,312;49,37482
 920,37;11106,231;  228,642;22167,158;49,58215
 920,92;11113,154;  246,873;22137,081;49,63992
 921,48;11046,462;  214,488;21839,081;50,09099
 922,03;11078,231;  225,950;21859,081;50,16510
 922,59;11095,231;  225,796;21713,158;50,58525
 923,14;11065,231;  224,796;21644,312;50,61008
 923,69;11069,462;  250,565;21559,388;50,77191
 924,25;11080,308;  238,027;21438,619;51,14140
 924,80;11010,538;  233,719;21291,312;51,17783
 925,36;11026,846;  226,104;21189,312;51,52237
 925,91;10966,231;  211,181;21066,542;51,56971
 926,47;10988,538;  208,565;20966,081;51,93287
 927,02;11008,000;  280,335;20992,235;51,79469
 927,57;10962,769;  225,104;20790,696;52,21180
 928,13;10909,385;  213,796;20660,388;52,30988
 928,68;10947,846;  225,258;20638,312;52,52810
 929,24;10898,000;  199,719;20421,388;52,90503
 929,79;10825,231;  206,335;20327,235;52,77545
 930,34;10828,538;  226,873;20180,465;53,13161
 930,90;10816,846;  212,027;20141,465;53,21183
 931,45;10826,923;  229,027;20157,927;53,17853
 932,01;10757,000;  225,873;20021,465;53,19935
 932,56;10861,385;  249,719;19868,388;54,08963
 933,11;10839,154;  253,488;19857,927;53,99627
 933,67;10740,692;  220,488;19695,388;54,01930
 934,22;10723,538;  236,181;19596,312;54,16987
 934,77;10712,692;  257,950;19538,158;54,22526
 935,33;10683,385;  227,796;19370,850;54,61818
 935,88;10643,077;  228,258;19341,158;54,49105
 936,43;10677,538;  228,642;19217,235;55,02723
 936,99;10622,231;  232,719;19116,927;55,01693
 937,54;10549,231;  210,719;18954,773;55,15622
 938,09;10622,692;  227,412;18975,388;55,44748
 938,65;10536,308;  220,950;18836,850;55,41154
 939,20;10495,923;  204,335;18707,773;55,61987
 939,75;10477,769;  211,565;18689,619;55,55890
 940,31;10418,385;  210,412;18486,850;55,85319
 940,86;10467,846;  225,027;18508,004;56,02380
 941,41;10483,538;  290,565;18399,542;56,28685
 941,96;10428,923;  219,258;18250,619;56,62171
 942,52;10395,000;  216,027;18174,235;56,68145
 943,07;10337,308;  197,488;18061,696;56,76053
 943,62;10369,077;  217,719;17999,081;57,08988
 944,18;10334,615;  195,565;17954,158;57,09377
 944,73;10432,231;  233,027;17856,388;57,87320
 945,28;10248,385;  191,027;17627,927;57,67859
 945,83;10271,231;  217,642;17686,773;57,55059
 946,39;10266,308;  223,335;17662,004;57,59025
 946,94;10249,846;  245,335;17545,542;57,82885
 947,49;10237,923;  219,565;17453,696;58,13091
 948,04;10260,462;  253,719;17367,542;58,47169
 948,59;10206,231;  244,950;17351,773;58,22987
 949,15;10195,000;  202,719;17219,850;58,71895
 949,70;10153,077;  218,104;17085,235;58,90138
 950,25;10192,538;  237,181;17045,158;59,22996
 950,80;10131,615;  196,027;16909,081;59,44807
 951,36;10071,615;  197,873;16863,235;59,24709
 951,91;10189,538;  230,565;16832,927;59,98528
 952,46;10040,538;  199,719;16575,158;60,09500
 953,01;10157,769;  242,950;16650,619;60,42796
 953,56;10030,846;  195,104;16489,542;60,36257
 954,11;10024,538;  233,565;16458,312;60,34592
 954,67; 9998,846;  219,719;16418,312;60,37023
 955,22; 9957,769;  207,181;16251,773;60,77181
 955,77; 9990,000;  242,412;16265,004;60,83653
 956,32; 9969,000;  275,181;16178,927;60,95306
 956,87; 9893,231;  206,565;15991,235;61,36755
 957,42; 9863,308;  211,258;15955,850;61,30391
 957,98; 9860,615;  214,335;15911,465;61,45251
 958,53; 9834,538;  238,412;15814,004;61,61003
 959,08; 9809,923;  201,796;15706,619;61,96863
 959,63; 9794,846;  206,796;15611,312;62,24182
 960,18; 9741,077;  229,873;15587,312;61,93223
 960,73; 9704,846;  226,796;15466,158;62,19453
 961,28; 9642,154;  199,873;15403,312;62,10622
 961,83; 9650,923;  238,181;15367,619;62,21475
 962,39; 9645,385;  204,642;15236,542;62,80472
 962,94; 9613,231;  228,181;15135,158;62,95743
 963,49; 9547,000;  223,565;15083,158;62,74354
 964,04; 9522,385;  235,642;15060,927;62,64124
 964,59; 9480,769;  190,873;14878,773;63,24863
 965,14; 9444,769;  237,950;14853,158;62,99479
 965,69; 9427,923;  226,181;14738,388;63,40691
 966,24; 9327,385;  216,104;14616,465;63,27119
 966,79; 9350,615;  233,488;14561,158;63,63301
 967,34; 9315,385;  193,104;14409,696;64,16644
 967,89; 9307,308;  206,027;14404,312;64,10127
 968,44; 9266,769;  216,027;14305,773;64,23638
 968,99; 9205,000;  221,950;14292,465;63,84308
 969,55; 9159,308;  222,027;14166,619;64,09137
 970,10; 9178,077;  226,488;14098,312;64,53073
 970,65; 9139,000;  246,873;14004,696;64,63324
 971,20; 9041,385;  214,181;13909,773;64,45288
 971,75; 8975,000;  197,796;13668,542;65,15752
 972,30; 9007,615;  223,104;13699,081;65,18645
 972,85; 8954,923;  212,181;13631,004;65,15282
 973,40; 8873,000;  206,258;13559,158;64,90532
 973,95; 8919,538;  222,719;13453,312;65,73265
 974,50; 8889,769;  246,565;13406,773;65,67680
 975,05; 8864,615;  227,335;13275,619;66,19476
 975,60; 8846,231;  233,642;13192,388;66,46159
 976,15; 8787,308;  213,719;13086,158;66,60423
 976,70; 8769,692;  225,719;13024,312;66,75713
 977,25; 8767,462;  228,950;12980,388;66,96116
 977,80; 8716,154;  205,104;12853,542;67,28933
 978,35; 8577,385;  228,565;12647,773;67,22506
 978,89; 8560,462;  198,719;12588,388;67,48963
 979,44; 8535,615;  228,873;12625,081;67,01035
 979,99; 8443,769;  209,873;12401,619;67,53664
 980,54; 8442,615;  243,412;12386,850;67,51962
 981,09; 8411,308;  239,258;12232,388;68,13942
 981,64; 8353,538;  234,873;12097,773;68,43744
 982,19; 8300,077;  261,027;12125,081;67,75972
 982,74; 8245,385;  245,027;11893,081;68,68407
 983,29; 8103,923;  213,950;11764,619;68,30750
 983,84; 8108,923;  235,258;11668,773;68,86478
 984,39; 8134,615;  303,104;11711,542;68,64666
 984,94; 8002,308;  203,027;11481,619;69,15119
 985,49; 7977,692;  250,873;11470,542;68,86851
 986,03; 7941,154;  250,488;11413,235;68,89582
 986,58; 7894,077;  276,027;11242,619;69,46597
 987,13; 7838,846;  237,027;11119,465;69,85401
 987,68; 7776,692;  235,335;11045,773;69,75996
 988,23; 7737,846;  237,258;10984,850;69,78855
 988,78; 7649,846;  223,873;10863,235;69,79717
 989,33; 7586,769;  241,873;10732,696;70,01258
 989,88; 7596,385;  249,642;10721,619;70,15621
 990,42; 7484,769;  232,642;10586,158;70,04507
 990,97; 7421,923;  224,950;10463,004;70,29630
 991,52; 7395,923;  253,719;10376,850;70,55331
 992,07; 7348,692;  255,873;10301,927;70,60304
 992,62; 7309,231;  239,873;10217,773;70,85016
 993,17; 7225,692;  238,181;10072,004;71,05590
 993,71; 7168,385;  248,950; 9954,235;71,29554
 994,26; 7064,538;  222,181; 9825,850;71,24733
 994,81; 7041,923;  250,181; 9767,850;71,35930
 995,36; 6961,462;  226,719; 9628,773;71,63054
 995,91; 6948,385;  235,258; 9593,004;71,73872
 996,45; 6871,385;  236,335; 9483,619;71,75133
 997,00; 6779,462;  207,950; 9335,850;71,99368
 997,55; 6795,385;  233,873; 9334,927;72,09617
 998,10; 6718,077;  265,488; 9163,773;72,51497
 998,65; 6701,769;  231,412; 9172,465;72,36684
 999,19; 6598,077;  252,104; 9013,158;72,43390
 999,74; 6536,154;  276,181; 8985,542;71,87637
1000,29; 6471,769;  246,719; 8828,773;72,53567
1000,84; 6362,538;  223,104; 8741,696;72,07100
1001,38; 6314,692;  237,412; 8648,388;72,25416
1001,93; 6292,231;  248,181; 8601,158;72,35804
1002,48; 6171,538;  221,950; 8410,542;72,65704
1003,03; 6151,000;  238,565; 8394,696;72,49068
1003,57; 6072,154;  249,719; 8249,158;72,78554
1004,12; 6042,538;  272,412; 8205,235;72,73737
1004,67; 5931,000;  226,719; 8094,235;72,50422
1005,22; 5866,231;  217,796; 7967,081;72,88976
1005,76; 5716,154;  217,335; 7848,235;72,05990
1006,31; 5718,231;  247,642; 7815,850;72,28380
1006,86; 5655,769;  222,104; 7678,850;72,86912
1007,40; 5592,769;  210,950; 7571,850;73,11360
1007,95; 5528,308;  236,873; 7480,158;73,05297
1008,50; 5463,308;  231,642; 7337,388;73,62584
1009,04; 5402,615;  219,950; 7249,004;73,73205
1009,59; 5340,231;  240,412; 7142,312;73,89008
1010,14; 5286,846;  216,335; 7033,312;74,38065
1010,68; 5183,231;  229,565; 6973,773;73,45066
1011,23; 5146,538;  224,950; 6797,542;74,88048
1011,78; 5073,923;  234,181; 6780,465;73,93113
1012,32; 5007,231;  247,565; 6639,465;74,46402
1012,87; 4987,077;  253,412; 6621,081;74,33906
1013,42; 4911,154;  218,258; 6484,004;74,89764
1013,96; 4927,077;  258,488; 6507,081;74,71424
1014,51; 4851,000;  198,335; 6424,619;74,72619
1015,06; 4874,000;  204,335; 6429,158;75,01684
1015,60; 4974,692;  268,565; 6443,619;76,21192
1016,15; 4944,538;  224,104; 6407,542;76,33996
1016,69; 4974,154;  233,950; 6431,158;76,48935
1017,24; 4981,308;  205,258; 6454,927;76,42084
1017,79; 5051,769;  251,796; 6551,081;76,19870
1018,33; 5067,077;  218,412; 6526,158;76,86843
1018,88; 5112,154;  242,258; 6598,927;76,61082
1019,42; 5133,077;  229,412; 6609,388;76,86024
1019,97; 5107,462;  209,642; 6586,388;76,80750
1020,51; 5179,538;  243,335; 6614,927;77,47206
1021,06; 5177,846;  199,258; 6623,081;77,50195
1021,61; 5137,923;  204,258; 6566,081;77,55113
1022,15; 5144,000;  180,027; 6530,927;78,16173
1022,70; 5144,923;  223,873; 6544,388;77,85837
1023,24; 5116,769;  217,104; 6506,696;77,90116
1023,79; 5098,000;  214,873; 6440,312;78,43828
1024,33; 5065,077;  219,642; 6432,696;77,98797
1024,88; 5001,462;  224,565; 6301,158;78,61143
1025,42; 4904,769;  216,335; 6201,773;78,33068
1025,97; 4867,385;  219,027; 6159,696;78,24636
1026,51; 4772,692;  185,488; 6011,927;78,73084
1027,06; 4759,615;  206,488; 5991,850;78,70082
1027,60; 4679,000;  239,258; 5887,235;78,60766
1028,15; 4658,769;  245,873; 5774,696;79,81619
1028,69; 4512,769;  198,950; 5671,004;78,83364
1029,24; 4504,462;  217,104; 5593,542;79,74345
1029,78; 4396,615;  215,181; 5512,696;78,93200
1030,33; 4353,231;  196,565; 5423,542;79,52332
1030,87; 4272,385;  222,642; 5339,312;79,14802
1031,42; 4261,000;  202,181; 5270,850;80,07662
1031,96; 4216,846;  233,488; 5172,465;80,65147
1032,51; 4115,538;  211,796; 5112,696;79,65358
1033,05; 4120,154;  216,104; 5063,465;80,53969
1033,60; 4022,769;  191,950; 4923,927;80,95600
1034,14; 4011,846;  213,565; 4874,388;81,49378
1034,69; 3996,615;  219,642; 4796,312;82,52668
1035,23; 3927,615;  208,796; 4739,927;82,07265
1035,77; 3874,615;  201,412; 4670,388;82,19339
1036,32; 3806,769;  190,950; 4605,312;81,91036
1036,86; 3799,923;  214,335; 4557,312;82,56062
1037,41; 3712,769;  225,104; 4481,542;81,93858
1037,95; 3659,231;  194,104; 4382,773;82,72620
1038,50; 3650,769;  206,412; 4372,696;82,67217
1039,04; 3613,154;  233,027; 4333,235;82,43794
1039,58; 3575,769;  196,488; 4222,388;83,93852
1040,13; 3493,462;  218,181; 4185,004;82,56685
1040,67; 3513,462;  237,488; 4167,081;83,36674
1041,21; 3459,000;  238,565; 4070,696;84,03770
1041,76; 3369,538;  199,104; 4016,850;83,04467
1042,30; 3366,308;  215,104; 3950,158;84,36836
1042,85; 3294,077;  217,335; 3897,235;83,60940
1043,39; 3249,615;  207,258; 3822,235;84,15981
1043,93; 3246,692;  223,335; 3783,773;84,91532
1044,48; 3175,462;  223,412; 3736,850;84,02168
1045,02; 3148,231;  213,104; 3690,850;84,39739
1045,56; 3138,692;  232,719; 3675,850;84,39915
1046,11; 3112,923;  220,642; 3615,004;85,20839
1046,65; 3054,615;  229,488; 3556,773;84,90788
1047,19; 3019,923;  207,104; 3511,465;85,12444
1047,74; 2961,385;  197,950; 3420,388;85,75601
1048,28; 2939,846;  220,181; 3400,927;85,50401
1048,82; 2906,308;  238,719; 3362,388;85,39920
1049,37; 2876,000;  228,412; 3294,004;86,36466
1049,91; 2842,923;  230,796; 3252,158;86,45529
1050,45; 2813,615;  233,258; 3229,158;86,12963
1050,99; 2774,231;  216,642; 3161,927;86,83672
1051,54; 2716,385;  208,796; 3103,696;86,62090
1052,08; 2721,923;  250,796; 3090,235;87,02872
1052,62; 2683,231;  236,719; 3048,696;87,00326
1053,16; 2628,462;  217,412; 2967,004;87,68755
1053,71; 2616,077;  230,565; 2937,465;88,12707
1054,25; 2580,846;  241,719; 2895,773;88,13412
1054,79; 2543,077;  231,642; 2873,235;87,50157
1055,33; 2469,000;  195,488; 2796,696;87,40215
1055,88; 2471,000;  231,412; 2778,312;87,93390
1056,42; 2431,385;  245,873; 2757,388;87,01964
1056,96; 2408,923;  238,565; 2705,158;87,99013
1057,50; 2409,846;  224,104; 2676,312;89,13365
1058,05; 2342,385;  221,335; 2629,773;88,06744
1058,59; 2349,923;  247,565; 2595,850;89,52738
1059,13; 2269,077;  206,181; 2532,158;88,68945
1059,67; 2268,923;  224,642; 2534,235;88,51262
1060,21; 2229,846;  218,796; 2464,235;89,56157
1060,76; 2223,923;  229,565; 2448,081;89,89605
1061,30; 2200,308;  248,565; 2444,773;88,86875
1061,84; 2151,692;  229,796; 2349,312;90,67621
1062,38; 2087,462;  218,335; 2286,542;90,37424
1062,92; 2128,538;  266,488; 2345,081;89,58226
1063,46; 2080,077;  247,181; 2274,388;90,41482
1064,01; 2054,615;  224,412; 2233,927;91,07688
1064,55; 2002,385;  231,565; 2217,773;89,15579
1065,09; 1956,077;  204,565; 2145,388;90,24581
1065,63; 2002,615;  253,719; 2166,388;91,43746
1066,17; 1981,769;  262,796; 2143,465;91,40220
1066,71; 1931,385;  247,258; 2125,388;89,67038
1067,25; 1908,769;  241,950; 2079,927;90,68771
1067,80; 1907,385;  256,873; 2061,696;91,45005
1068,34; 1910,462;  258,950; 2065,619;91,41195
1068,88; 1833,000;  225,181; 1990,696;91,06798
1069,42; 1861,000;  252,488; 2018,696;91,07148
1069,96; 1788,538;  234,642; 1949,081;90,63587
1070,50; 1827,000;  276,488; 1963,081;91,93161
1071,04; 1754,769;  220,950; 1888,696;91,96959
1071,58; 1758,692;  232,796; 1878,081;92,74360
1072,12; 1736,077;  233,796; 1855,081;92,65990
1072,66; 1715,923;  227,181; 1840,158;92,29781
1073,21; 1714,615;  243,104; 1838,004;92,26356
1073,75; 1689,692;  238,488; 1792,850;93,36334
1074,29; 1666,615;  245,950; 1790,388;91,98588
1074,83; 1676,692;  250,642; 1768,542;93,94888
1075,37; 1656,846;  255,796; 1760,542;93,10873
1075,91; 1653,769;  255,873; 1747,312;93,72805
1076,45; 1606,000;  236,565; 1700,004;93,57651
1076,99; 1606,462;  245,488; 1654,004;96,62465
1077,53; 1562,462;  229,104; 1627,004;95,38291
1078,07; 1555,231;  242,258; 1641,927;93,80595
1078,61; 1519,308;  237,412; 1612,081;93,25124
1079,15; 1510,154;  235,719; 1601,004;93,34571
1079,69; 1517,769;  236,796; 1561,235;96,71820
1080,23; 1508,923;  253,335; 1567,850;95,51721
1080,77; 1519,308;  284,719; 1574,388;95,72908
1081,31; 1436,538;  219,565; 1499,235;95,10060
1081,85; 1457,462;  250,719; 1528,004;94,47717
1082,39; 1424,923;  228,027; 1476,927;95,83603
1082,93; 1423,769;  249,950; 1489,312;94,71161
1083,47; 1391,231;  228,565; 1438,773;96,07156
1084,01; 1373,692;  246,027; 1466,388;92,40421
1084,55; 1355,923;  235,258; 1420,004;94,59118
1085,09; 1380,077;  247,950; 1420,004;96,59342
1085,63; 1350,692;  254,335; 1380,158;97,38277
1086,17; 1345,615;  224,719; 1372,158;97,68682
1086,71; 1313,615;  229,796; 1356,773;96,17049
1087,24; 1329,923;  266,642; 1373,927;96,02597
1087,78; 1313,615;  249,258; 1344,235;97,20366
1088,32; 1259,615;  234,488; 1302,312;96,00157
1088,86; 1279,923;  255,027; 1325,696;95,72482
1089,40; 1254,538;  239,335; 1279,004;97,64681
1089,94; 1214,308;  223,027; 1243,081;97,17926
1090,48; 1229,769;  243,258; 1242,312;98,74458
1091,02; 1213,846;  254,258; 1254,081;95,97583
1091,56; 1201,154;  240,642; 1240,312;96,08294
1092,10; 1177,462;  213,412; 1184,927;99,23157
1092,63; 1204,692;  259,258; 1217,465;98,66698
1093,17; 1172,000;  244,719; 1203,004;96,76465
1093,71; 1141,462;  229,488; 1160,235;97,98301
1094,25; 1150,385;  264,950; 1180,158;96,74685
1094,79; 1133,538;  240,488; 1147,542;98,45612
1095,33; 1107,308;  247,796; 1127,312;97,72558
1095,87; 1103,077;  240,412; 1124,619;97,56366
1096,40; 1087,538;  216,950; 1088,619;99,87601
1096,94; 1070,385;  242,104; 1091,927;97,46508
1097,48; 1085,923;  251,181; 1084,465;100,17493
1098,02; 1048,308;  236,181; 1071,927;97,17388
1098,56; 1017,385;  208,104; 1018,388;99,87611
1099,10; 1007,231;  220,719; 1013,850;99,16543
1099,63; 1012,154;  216,642; 1022,465;98,72037
1100,17; 1016,000;  235,565; 1028,696;98,39924
1100,71; 1027,077;  259,719; 1034,465;99,04634

