
Integration time [ms]: 120,000
Averaging Nr. [scans]: 13
Smoothing Nr. [pixels]: 0
Data measured with spectrometer [name]: 2009305U1
Wave   ;Sample   ;Dark     ;Reference;Reflectance
[nm]   ;[counts] ;[counts] ;[counts] ;[%]

 175,72;  196,676;  177,341;  181,932;421,13904
 176,32;  220,140;  201,724;  196,771; 0,00000
 176,92;  245,303;  221,879;  219,181; 0,00000
 177,52;  245,601;  236,264;  242,747;144,02598
 178,12;  228,002;  222,186;  203,032; 0,00000
 178,72;  257,023;  235,570;  241,190;381,75089
 179,32;  241,439;  226,263;  215,572; 0,00000
 179,92;  246,768;  222,494;  228,231;423,13104
 180,52;  231,730;  212,495;  231,073;103,53746
 181,12;  245,400;  229,494;  229,818; 0,00000
 181,73;  266,151;  243,725;  240,244; 0,00000
 182,33;  325,461;  287,726;  289,153;2644,46938
 182,93;  268,105;  243,495;  244,568;2293,29331
 183,53;  228,272;  225,801;  215,804; 0,00000
 184,13;  230,535;  233,878;  221,748; 0,00000
 184,73;  271,966;  235,186;  246,963;312,29551
 185,33;  251,423;  222,410;  328,091;27,45267
 185,93;  256,977;  220,871;  340,951;30,06844
 186,53;  272,683;  221,564;  345,642;41,19878
 187,13;  298,802;  256,795;  382,267;33,47924
 187,73;  261,378;  218,487;  342,172;34,67781
 188,33;  264,177;  217,102;  349,994;35,42372
 188,93;  273,661;  225,023;  355,606;37,24671
 189,53;  283,116;  231,946;  360,495;39,80622
 190,13;  308,382;  260,790;  374,664;41,79326
 190,73;  250,643;  203,637;  324,040;39,04062
 191,34;  284,682;  230,100;  361,556;41,52141
 191,94;  250,977;  219,640;  320,107;31,19144
 192,54;  277,583;  232,719;  366,990;33,41275
 193,14;  278,393;  242,103;  367,943;28,83815
 193,74;  270,061;  225,334;  348,583;36,29029
 194,34;  271,434;  221,488;  354,873;37,44508
 194,94;  241,590;  190,257;  330,995;36,47404
 195,54;  224,585;  193,949;  319,846;24,33387
 196,14;  248,996;  208,103;  347,636;29,30703
 196,74;  240,236;  198,333;  322,302;33,80120
 197,34;  217,000;  177,642;  328,720;26,05088
 197,94;  256,084;  209,642;  343,536;34,68611
 198,54;  257,526;  204,103;  360,975;34,05495
 199,14;  248,868;  191,258;  377,922;30,86316
 199,74;  228,826;  188,950;  353,563;24,22373
 200,34;  227,679;  174,489;  370,816;27,09278
 200,94;  261,095;  205,258;  408,507;27,47228
 201,54;  246,400;  195,796;  401,959;24,54539
 202,14;  264,489;  204,643;  439,225;25,51182
 202,74;  248,655;  191,566;  464,224;20,93804
 203,34;  225,819;  177,951;  461,232;16,89766
 203,94;  201,736;  159,181;  475,658;13,44638
 204,54;  272,767;  228,257;  554,835;13,62933
 205,14;  238,860;  186,489;  573,954;13,51635
 205,74;  276,905;  220,105;  660,874;12,88652
 206,34;  253,369;  182,566;  660,309;14,82043
 206,94;  261,328;  201,027;  722,261;11,56881
 207,54;  231,968;  169,027;  758,893;10,67034
 208,14;  265,352;  185,489;  854,947;11,92945
 208,74;  260,920;  180,258;  919,616;10,90977
 209,34;  267,295;  178,720; 1013,779;10,60711
 209,94;  273,911;  201,566; 1125,300; 7,83183
 210,54;  277,556;  197,643; 1211,193; 7,88442
 211,14;  290,612;  199,335; 1303,480; 8,26678
 211,73;  303,871;  190,027; 1385,199; 9,52529
 212,33;  311,830;  208,027; 1506,251; 7,99578
 212,93;  305,237;  187,258; 1602,566; 8,33591
 213,53;  278,954;  163,566; 1644,026; 7,79410
 214,13;  292,594;  164,567; 1721,959; 8,22061
 214,73;  285,181;  169,104; 1749,148; 7,34643
 215,33;  271,911;  138,873; 1751,454; 8,24998
 215,93;  317,512;  178,566; 1916,196; 7,99627
 216,53;  284,545;  140,873; 1993,856; 7,75353
 217,13;  350,889;  195,874; 2192,251; 7,76482
 217,73;  337,503;  170,797; 2356,938; 7,62558
 218,33;  320,430;  138,490; 2563,892; 7,50146
 218,93;  360,268;  166,106; 2857,633; 7,21384
 219,53;  383,926;  157,490; 3136,840; 7,60019
 220,13;  375,317;  142,336; 3441,437; 7,06196
 220,73;  420,671;  173,181; 3800,273; 6,82338
 221,32;  449,151;  167,489; 4182,539; 7,01516
 221,92;  484,130;  177,951; 4617,624; 6,89642
 222,52;  500,058;  160,874; 4992,892; 7,01951
 223,12;  541,237;  158,951; 5412,198; 7,27714
 223,72;  573,887;  177,489; 5814,839; 7,03162
 224,32;  615,775;  174,413; 6193,234; 7,33303
 224,92;  639,219;  160,720; 6601,683; 7,42900
 225,52;  683,670;  180,335; 6905,287; 7,48458
 226,12;  715,308;  173,874; 7275,258; 7,62435
 226,72;  705,411;  150,720; 7658,740; 7,38798
 227,31;  758,471;  139,412; 8048,574; 7,82711
 227,91;  808,876;  166,258; 8442,578; 7,76453
 228,51;  849,034;  164,335; 8899,863; 7,83810
 229,11;  895,240;  167,951; 9314,710; 7,95134
 229,71;  927,570;  161,412; 9644,990; 8,07879
 230,31;  997,303;  163,567;10083,280; 8,40485
 230,91; 1018,481;  149,257;10450,494; 8,43805
 231,51; 1089,178;  142,643;10690,464; 8,97375
 232,10; 1138,601;  149,721;11114,366; 9,01881
 232,70; 1217,742;  172,642;11178,411; 9,49593
 233,30; 1283,487;  179,643;11481,659; 9,76678
 233,90; 1330,470;  160,720;11584,646;10,23947
 234,50; 1374,477;  164,720;11639,573;10,54268
 235,10; 1432,296;  158,797;11682,683;11,05095
 235,70; 1513,295;  169,643;11671,969;11,68157
 236,29; 1555,382;  180,643;11603,598;12,03488
 236,89; 1539,301;  157,488;11503,165;12,17920
 237,49; 1626,915;  166,258;11408,521;12,99255
 238,09; 1637,523;  164,797;11035,462;13,54771
 238,69; 1718,184;  186,642;10723,353;14,53530
 239,29; 1691,584;  151,566;10441,644;14,96605
 239,89; 1738,626;  167,950;10145,100;15,74273
 240,48; 1712,891;  153,951; 9725,758;16,28679
 241,08; 1706,234;  158,027; 9326,172;16,88680
 241,68; 1716,061;  182,643; 8973,788;17,44276
 242,28; 1686,239;  159,874; 8630,859;18,01875
 242,88; 1711,936;  173,720; 8364,985;18,77873
 243,48; 1723,804;  186,566; 8108,726;19,40427
 244,07; 1686,243;  180,027; 7829,104;19,69147
 244,67; 1723,958;  180,874; 7690,229;20,54883
 245,27; 1713,563;  185,642; 7588,352;20,64001
 245,87; 1749,919;  185,643; 7528,705;21,30277
 246,47; 1755,580;  172,335; 7486,057;21,64760
 247,06; 1755,729;  165,566; 7526,292;21,60335
 247,66; 1799,796;  164,797; 7580,166;22,04880
 248,26; 1870,818;  199,566; 7732,215;22,18679
 248,86; 1902,725;  184,412; 7934,031;22,17287
 249,46; 1918,298;  140,336; 8112,977;22,30079
 250,05; 2033,746;  184,335; 8512,015;22,20800
 250,65; 2071,700;  152,719; 8839,150;22,09171
 251,25; 2172,713;  162,874; 9312,090;21,96734
 251,85; 2270,908;  166,181; 9884,581;21,65714
 252,44; 2337,903;  135,719;10514,296;21,21855
 253,04; 2512,671;  180,950;11273,504;21,02060
 253,64; 2601,599;  134,181;11946,749;20,88807
 254,24; 2792,173;  183,489;12942,605;20,44565
 254,84; 2932,298;  166,028;13818,824;20,26157
 255,43; 3057,749;  174,489;14779,699;19,74131
 256,03; 3184,008;  167,488;15689,670;19,43361
 256,63; 3322,592;  179,104;16716,460;19,00841
 257,23; 3460,438;  154,565;17496,170;19,06324
 257,82; 3537,381;  164,950;18468,138;18,42538
 258,42; 3598,794;  137,026;19182,702;18,17613
 259,02; 3728,321;  171,566;20123,742;17,82640
 259,62; 3755,308;  164,488;20744,052;17,44847
 260,21; 3785,219;  169,412;21255,648;17,14771
 260,81; 3789,086;  164,643;21699,592;16,83052
 261,41; 3768,690;  152,257;22165,871;16,42816
 262,01; 3795,882;  196,180;22529,910;16,11778
 262,60; 3740,668;  150,873;22870,247;15,80059
 263,20; 3741,366;  164,104;23219,129;15,51619
 263,80; 3695,916;  180,564;23188,763;15,27869
 264,40; 3615,283;  160,180;23480,805;14,81565
 264,99; 3633,891;  174,718;23595,996;14,76936
 265,59; 3529,409;  161,410;23718,360;14,29726
 266,19; 3500,643;  145,718;23942,404;14,09828
 266,78; 3494,218;  194,718;24002,266;13,85905
 267,38; 3397,049;  167,102;24073,702;13,51069
 267,98; 3349,671;  160,872;23940,240;13,40994
 268,58; 3333,186;  171,641;23985,151;13,27627
 269,17; 3300,352;  156,256;23999,133;13,18673
 269,77; 3180,379;  178,257;23721,092;12,75174
 270,37; 3140,002;  153,564;23632,157;12,71983
 270,96; 3126,834;  202,488;23497,862;12,55334
 271,56; 3051,882;  159,873;23256,293;12,52146
 272,16; 2995,750;  161,872;23131,225;12,33765
 272,75; 2996,211;  167,334;23064,935;12,35447
 273,35; 2936,330;  179,719;23096,752;12,02866
 273,95; 2918,476;  165,026;23117,576;11,99627
 274,54; 2903,473;  138,643;23112,099;12,03489
 275,14; 2976,543;  174,257;23418,065;12,05605
 275,74; 2941,929;  139,719;23576,359;11,95654
 276,33; 3006,815;  177,796;23952,958;11,89905
 276,93; 3016,497;  176,181;24209,057;11,81846
 277,53; 3070,493;  165,566;24918,316;11,73578
 278,12; 3153,428;  153,181;25338,854;11,91252
 278,72; 3260,229;  174,489;25937,503;11,97740
 279,32; 3324,887;  157,796;26444,229;12,04839
 279,91; 3427,324;  148,258;27234,118;12,10619
 280,51; 3511,168;  161,489;27651,475;12,18509
 281,11; 3628,692;  162,335;28428,720;12,26318
 281,70; 3720,633;  152,258;28857,697;12,43101
 282,30; 3831,806;  148,181;29421,216;12,58368
 282,90; 3932,472;  173,027;29883,544;12,65359
 283,49; 4089,671;  174,796;30307,777;12,99200
 284,09; 4204,317;  198,950;30772,403;13,10080
 284,69; 4355,443;  188,796;30996,377;13,52474
 285,28; 4433,437;  183,950;31311,147;13,65201
 285,88; 4574,263;  183,565;31501,552;14,01973
 286,47; 4679,208;  158,411;31740,211;14,31456
 287,07; 4812,545;  194,489;31615,896;14,69717
 287,67; 4989,804;  184,028;31838,342;15,18206
 288,26; 5162,187;  164,027;31731,936;15,83304
 288,86; 5369,650;  173,258;31840,768;16,40922
 289,46; 5604,469;  177,258;31941,937;17,08568
 290,05; 5829,833;  165,874;32058,372;17,75953
 290,65; 6125,610;  173,642;32137,957;18,62066
 291,24; 6386,126;  180,258;32389,830;19,26716
 291,84; 6748,438;  180,719;32478,075;20,33516
 292,44; 7039,248;  164,182;32602,519;21,19426
 293,03; 7324,964;  216,258;32726,555;21,86601
 293,63; 7584,301;  163,719;32731,147;22,78529
 294,22; 7874,547;  179,412;33033,304;23,42229
 294,82; 8095,342;  165,334;32990,272;24,15849
 295,41; 8249,786;  158,335;32669,235;24,88843
 296,01; 8481,896;  208,642;32537,990;25,59054
 296,61; 8561,930;  168,181;32216,222;26,19114
 297,20; 8653,930;  178,257;31982,957;26,64912
 297,80; 8817,541;  188,951;31755,900;27,33425
 298,39; 8845,216;  157,104;31294,658;27,90236
 298,99; 8964,313;  168,257;31256,644;28,29370
 299,58; 8969,847;  175,258;31083,742;28,45364
 300,18; 9054,755;  192,027;30836,159;28,92145
 300,78; 9036,689;  156,720;30591,942;29,17662
 301,37; 9136,695;  188,026;30595,197;29,42947
 301,97; 9237,606;  180,412;30708,078;29,66881
 302,56; 9243,422;  167,334;30499,719;29,92210
 303,16; 9350,619;  165,180;30443,255;30,33693
 303,75; 9403,483;  171,873;30465,112;30,47416
 304,35; 9516,118;  158,489;30694,205;30,64486
 304,94; 9569,666;  165,104;30738,161;30,76095
 305,54; 9649,843;  180,181;30623,155;31,10623
 306,13; 9621,040;  137,643;30507,992;31,22584
 306,73; 9599,761;  146,028;30341,923;31,30801
 307,33; 9682,796;  179,643;30299,740;31,55087
 307,92; 9693,058;  173,027;30382,875;31,51300
 308,52; 9860,697;  164,565;30861,852;31,58628
 309,11;10058,315;  162,872;31265,133;31,81583
 309,71;10145,506;  143,411;31510,955;31,88676
 310,30;10280,981;  149,719;31742,934;32,06784
 310,90;10412,981;  167,950;32029,549;32,15479
 311,49;10488,964;  164,258;32162,442;32,26654
 312,09;10537,157;  142,412;32349,249;32,27496
 312,68;10762,108;  199,950;32648,564;32,55041
 313,28;10764,442;  147,335;32801,183;32,51411
 313,87;10822,375;  143,335;32931,884;32,56942
 314,47;10923,784;  168,103;33190,770;32,57060
 315,06;10991,639;  149,873;33381,253;32,62508
 315,66;11083,619;  149,643;33479,095;32,80575
 316,25;11026,405;  136,180;33478,362;32,66200
 316,85;11027,815;  128,797;33573,396;32,58828
 317,44;11016,401;  164,334;33708,350;32,35172
 318,04;11039,182;  139,411;33736,633;32,44247
 318,63;11006,615;  141,335;33789,968;32,29041
 319,22;11061,875;  159,873;33951,502;32,26243
 319,82;11021,616;  150,873;33838,648;32,26910
 320,41;11001,721;  168,027;33812,982;32,20006
 321,01;10940,645;  171,643;33846,732;31,97913
 321,60;10902,060;  155,258;33959,731;31,79107
 322,20;10901,117;  153,027;33870,188;31,87721
 322,79;10887,878;  190,796;33855,682;31,77519
 323,39;10836,597;  146,797;33954,951;31,61900
 323,98;10778,459;  145,335;33857,693;31,54073
 324,58;10715,705;  158,950;33743,128;31,43372
 325,17;10644,243;  167,873;33449,413;31,47802
 325,76;10522,247;  183,642;33364,538;31,15830
 326,36;10331,465;  139,950;32890,828;31,11830
 326,95;10241,906;  166,258;32515,595;31,14638
 327,55;10060,258;  146,411;32245,072;30,88554
 328,14; 9923,267;  163,720;31834,097;30,81601
 328,74; 9817,003;  181,950;31429,694;30,83440
 329,33; 9622,799;  178,797;31074,483;30,56738
 329,92; 9414,606;  150,565;30396,062;30,62949
 330,52; 9178,737;  161,258;29905,006;30,31722
 331,11; 9002,838;  169,950;29379,622;30,23960
 331,71; 8799,170;  168,489;28929,887;30,00787
 332,30; 8595,589;  182,719;28383,622;29,83191
 332,89; 8447,244;  193,412;27902,452;29,78751
 333,49; 8249,376;  164,335;27411,255;29,67323
 334,08; 8022,480;  172,181;27028,258;29,23100
 334,68; 7861,736;  173,104;26531,085;29,17004
 335,27; 7752,172;  168,028;26267,157;29,05899
 335,86; 7649,531;  188,642;25965,852;28,94374
 336,46; 7503,231;  173,797;25740,778;28,66758
 337,05; 7390,206;  158,565;25557,071;28,47270
 337,65; 7337,283;  155,027;25393,745;28,45729
 338,24; 7324,818;  217,489;25378,559;28,24732
 338,83; 7234,715;  183,335;25302,750;28,07143
 339,43; 7166,926;  163,719;25188,906;27,98464
 340,02; 7109,713;  164,642;25127,037;27,82214
 340,61; 7042,938;  159,796;25157,208;27,53542
 341,21; 7053,541;  194,334;25129,924;27,50770
 341,80; 6988,386;  161,027;25127,322;27,34630
 342,40; 6991,557;  172,181;25220,198;27,22521
 342,99; 6973,398;  168,489;25325,991;27,04922
 343,58; 6956,876;  166,950;25538,483;26,76198
 344,18; 6977,217;  169,412;25496,449;26,87960
 344,77; 7006,226;  159,565;25907,518;26,59109
 345,36; 7053,983;  137,719;26210,672;26,52659
 345,96; 7106,278;  177,720;26431,649;26,39056
 346,55; 7106,733;  146,412;26695,649;26,21665
 347,14; 7155,813;  148,489;27061,409;26,03703
 347,74; 7202,600;  136,259;27342,266;25,97346
 348,33; 7379,806;  164,721;28083,865;25,84279
 348,92; 7484,051;  174,875;28706,289;25,61799
 349,52; 7537,616;  135,567;29030,333;25,61727
 350,11; 7543,269;  160,950;29170,398;25,44798
 350,70; 7525,605;  170,027;29261,381;25,28441
 351,29; 7397,586;  138,564;28959,100;25,18698
 351,89; 7404,307;  163,334;29015,781;25,09656
 352,48; 7341,118;  136,335;29084,401;24,88865
 353,07; 7275,300;  168,335;28952,656;24,69040
 353,67; 7262,400;  178,721;28944,993;24,62495
 354,26; 7175,130;  161,489;28651,608;24,61780
 354,85; 7122,764;  163,720;28462,991;24,59089
 355,45; 7007,643;  154,334;28235,651;24,40522
 356,04; 6908,718;  171,182;28214,546;24,02542
 356,63; 6894,350;  177,412;28050,062;24,09867
 357,22; 6869,438;  167,487;27855,638;24,20512
 357,82; 6767,676;  166,872;27716,388;23,95978
 358,41; 6761,179;  179,027;27646,796;23,96318
 359,00; 6639,089;  155,796;27384,951;23,81011
 359,60; 6602,578;  172,027;27350,822;23,66018
 360,19; 6547,478;  161,489;27152,383;23,65979
 360,78; 6470,958;  169,258;27025,501;23,46456
 361,37; 6418,300;  174,873;26787,527;23,46037
 361,97; 6360,153;  174,027;26742,567;23,28365
 362,56; 6298,842;  156,950;26426,482;23,38029
 363,15; 6230,343;  176,950;26173,099;23,28573
 363,74; 6150,596;  170,026;25917,533;23,22776
 364,34; 6033,662;  200,488;25535,420;23,02423
 364,93; 5918,022;  154,642;25066,887;23,13473
 365,52; 5821,761;  143,335;24786,160;23,04292
 366,11; 5786,328;  165,565;24413,765;23,18012
 366,71; 5677,106;  155,796;24158,810;23,00257
 367,30; 5552,812;  162,335;23806,352;22,79849
 367,89; 5548,798;  195,489;23583,075;22,88953
 368,48; 5469,972;  179,103;23309,814;22,87378
 369,07; 5357,066;  170,258;22909,228;22,81022
 369,67; 5324,741;  183,026;22635,081;22,90086
 370,26; 5261,211;  163,104;22324,432;23,00452
 370,85; 5197,599;  165,027;22224,115;22,81405
 371,44; 5118,718;  162,950;21915,452;22,78252
 372,03; 5075,824;  148,411;21735,464;22,82578
 372,63; 5014,410;  146,796;21467,665;22,83028
 373,22; 4973,357;  163,335;21191,812;22,87385
 373,81; 4898,052;  145,719;20838,455;22,96619
 374,40; 4870,352;  160,951;20675,604;22,95628
 374,99; 4840,455;  145,565;20441,721;23,13191
 375,59; 4756,396;  164,104;20102,791;23,03206
 376,18; 4777,916;  187,104;20097,739;23,05708
 376,77; 4719,589;  175,950;19803,374;23,14944
 377,36; 4799,343;  185,335;19830,750;23,48644
 377,95; 4708,251;  171,642;19514,783;23,45332
 378,55; 4697,722;  153,720;19393,116;23,61822
 379,14; 4678,642;  163,181;19295,167;23,60163
 379,73; 4670,396;  164,796;19295,064;23,55220
 380,32; 4718,239;  188,335;19260,688;23,75115
 380,91; 4721,450;  146,642;19173,460;24,04400
 381,50; 4730,107;  174,334;19098,122;24,07432
 382,10; 4721,854;  154,796;18972,842;24,26957
 382,69; 4722,847;  148,411;18954,725;24,32394
 383,28; 4756,645;  175,950;18916,543;24,44264
 383,87; 4737,243;  156,257;18817,684;24,54789
 384,46; 4765,368;  154,026;18687,175;24,88159
 385,05; 4849,714;  194,334;18760,539;25,07448
 385,64; 4844,482;  161,873;18800,073;25,12372
 386,24; 4859,531;  143,257;18689,202;25,43021
 386,83; 4940,215;  181,872;18791,198;25,56967
 387,42; 4997,242;  187,027;18847,354;25,77777
 388,01; 5081,476;  175,872;19030,790;26,01764
 388,60; 5209,222;  174,488;19302,564;26,32117
 389,19; 5261,806;  147,794;19585,188;26,31017
 389,78; 5389,420;  160,641;19742,875;26,70165
 390,37; 5528,379;  210,872;20148,460;26,67076
 390,96; 5610,471;  181,257;20369,504;26,89294
 391,56; 5729,295;  169,871;20426,752;27,44462
 392,15; 5800,659;  162,410;20697,820;27,45623
 392,74; 5890,423;  147,563;20920,637;27,64569
 393,33; 6042,886;  157,794;21195,812;27,97360
 393,92; 6222,008;  180,332;21547,336;28,27573
 394,51; 6293,365;  148,409;21753,422;28,44227
 395,10; 6446,404;  187,946;21973,125;28,72805
 395,69; 6522,564;  178,638;22062,414;28,98917
 396,28; 6635,451;  180,945;22180,037;29,33987
 396,87; 6724,068;  187,406;22212,066;29,67883
 397,46; 6821,698;  184,482;22312,288;29,99491
 398,06; 6945,784;  189,251;22514,144;30,26457
 398,65; 7007,188;  180,172;22560,711;30,50425
 399,24; 7115,192;  191,018;22802,205;30,62278
 399,83; 7161,316;  181,169;22734,628;30,94934
 400,42; 7305,881;  217,090;22979,373;31,14271
 401,01; 7401,057;  190,087;22995,087;31,62013
 401,60; 7503,432;  197,775;23016,172;32,01652
 402,19; 7559,328;  221,157;22987,970;32,23188
 402,78; 7613,046;  229,614;22979,760;32,45444
 403,37; 7628,120;  209,224;22870,945;32,73756
 403,96; 7661,048;  211,681;22675,927;33,16099
 404,55; 7734,257;  213,598;22688,617;33,46230
 405,14; 7678,579;  198,362;22519,915;33,51118
 405,73; 7759,757;  216,663;22322,151;34,12317
 406,32; 7848,759;  218,736;22266,543;34,60672
 406,91; 7800,350;  212,270;22036,164;34,76960
 407,50; 7824,436;  211,190;21858,589;35,16933
 408,09; 7820,729;  191,573;21526,878;35,75836
 408,68; 7858,255;  210,957;21422,809;36,05201
 409,27; 7821,067;  213,497;21213,179;36,22707
 409,86; 7883,471;  217,654;21093,623;36,72077
 410,45; 7939,308;  244,350;21142,410;36,82140
 411,04; 7895,564;  235,892;21005,027;36,88007
 411,63; 7895,510;  238,973;20728,095;37,36879
 412,22; 7864,802;  231,361;20515,569;37,63243
 412,81; 7854,428;  248,132;20245,693;38,03612
 413,40; 7793,324;  252,826;19939,565;38,30242
 413,99; 7731,261;  268,364;19703,148;38,39969
 414,58; 7607,411;  232,210;19356,809;38,56395
 415,17; 7616,924;  227,824;19147,564;39,05498
 415,76; 7575,923;  217,130;18916,318;39,35354
 416,35; 7582,453;  221,669;18849,059;39,51592
 416,94; 7702,492;  251,669;18938,677;39,87167
 417,53; 7840,897;  228,670;19199,348;40,12628
 418,12; 7906,047;  229,055;19185,855;40,49730
 418,71; 8108,443;  249,980;19542,806;40,73257
 419,30; 8183,379;  232,902;19708,599;40,82255
 419,89; 8320,734;  226,440;19861,723;41,22321
 420,48; 8447,947;  253,057;20143,030;41,20111
 421,07; 8535,585;  238,903;20122,711;41,72582
 421,66; 8561,072;  223,673;20134,727;41,87322
 422,25; 8651,244;  225,905;20062,293;42,47416
 422,84; 8703,394;  250,598;20054,166;42,68320
 423,43; 8593,880;  228,520;19729,645;42,89681
 424,02; 8561,441;  259,213;19542,557;43,05388
 424,60; 8465,156;  228,753;19152,118;43,52504
 425,19; 8353,038;  237,983;18881,942;43,52646
 425,78; 8359,892;  244,599;18850,271;43,61731
 426,37; 8403,560;  257,753;18690,792;44,19134
 426,96; 8340,671;  231,676;18590,586;44,16926
 427,55; 8310,233;  235,062;18431,651;44,37739
 428,14; 8253,253;  212,601;18207,500;44,68296
 428,73; 8234,724;  226,369;18042,012;44,95126
 429,32; 8257,544;  243,061;18062,110;44,97705
 429,91; 8324,382;  267,446;18083,100;45,22391
 430,50; 8280,667;  241,754;17920,625;45,47187
 431,08; 8219,550;  264,832;17747,215;45,50134
 431,67; 8214,895;  288,217;17636,556;45,69128
 432,26; 8199,548;  309,986;17422,417;46,10427
 432,85; 8079,960;  324,833;17128,614;46,15108
 433,44; 7943,807;  320,987;16755,749;46,38230
 434,03; 7825,096;  345,296;16480,246;46,35775
 434,62; 7632,166;  308,064;16046,651;46,53595
 435,21; 7614,780;  317,833;15877,765;46,89575
 435,79; 7522,322;  302,372;15751,387;46,73405
 436,38; 7540,936;  294,912;15675,802;47,11057
 436,97; 7548,636;  300,296;15600,304;47,37474
 437,56; 7405,450;  306,067;15323,393;47,27461
 438,15; 7394,197;  273,220;15373,984;47,15640
 438,74; 7420,614;  298,836;15367,389;47,26252
 439,33; 7424,163;  276,451;15361,402;47,38307
 439,91; 7429,977;  246,221;15399,475;47,40735
 440,50; 7561,207;  288,375;15516,127;47,76038
 441,09; 7578,173;  282,914;15620,906;47,56333
 441,68; 7606,139;  271,530;15612,087;47,81188
 442,27; 7614,698;  264,530;15579,286;47,99403
 442,86; 7540,363;  248,147;15552,234;47,64881
 443,44; 7597,589;  250,378;15678,991;47,62069
 444,03; 7683,833;  304,147;15667,682;48,03378
 444,62; 7558,132;  254,840;15566,714;47,69692
 445,21; 7508,314;  267,378;15409,568;47,81961
 445,80; 7494,543;  283,763;15283,693;48,07209
 446,39; 7400,451;  275,302;15009,206;48,35887
 446,97; 7229,285;  248,764;14829,512;47,87492
 447,56; 7185,071;  255,150;14607,252;48,28506
 448,15; 7078,704;  262,610;14492,211;47,90081
 448,74; 7009,489;  272,380;14216,047;48,31663
 449,33; 6893,560;  274,919;14100,219;47,87340
 449,91; 6853,601;  264,074;13933,703;48,20561
 450,50; 6726,296;  252,535;13791,595;47,81544
 451,09; 6686,260;  277,458;13653,642;47,91204
 451,68; 6625,726;  287,997;13562,365;47,74411
 452,26; 6597,568;  273,690;13481,292;47,88059
 452,85; 6537,502;  269,382;13355,885;47,89760
 453,44; 6531,668;  284,229;13344,416;47,83576
 454,03; 6512,984;  254,382;13372,846;47,70834
 454,61; 6524,804;  247,998;13295,765;48,10636
 455,20; 6582,894;  282,691;13519,705;47,59535
 455,79; 6606,244;  283,767;13512,989;47,79175
 456,38; 6624,536;  280,307;13621,648;47,55316
 456,97; 6655,803;  273,538;13732,316;47,42084
 457,55; 6640,857;  268,154;13677,764;47,52341
 458,14; 6639,942;  301,384;13571,674;47,76503
 458,73; 6546,455;  287,231;13564,498;47,14241
 459,31; 6622,293;  298,231;13617,316;47,48120
 459,90; 6643,750;  303,154;13699,421;47,33107
 460,49; 6686,026;  320,846;13770,577;47,32570
 461,08; 6643,665;  267,693;13847,103;46,95323
 461,66; 6730,515;  280,154;13949,330;47,18910
 462,25; 6781,028;  286,001;14054,905;47,17171
 462,84; 6803,339;  307,847;14014,453;47,38950
 463,43; 6681,216;  254,541;13985,829;46,80315
 464,01; 6677,716;  283,541;14008,174;46,58904
 464,60; 6651,210;  313,233;13914,776;46,59749
 465,19; 6519,175;  267,541;13666,993;46,65589
 465,77; 6471,479;  277,388;13645,074;46,33630
 466,36; 6454,301;  295,387;13538,028;46,50821
 466,95; 6354,463;  283,541;13268,050;46,75511
 467,53; 6162,602;  282,388;12991,519;46,26763
 468,12; 6048,036;  311,465;12780,764;46,00556
 468,71; 5914,251;  290,695;12519,817;45,98496
 469,29; 5794,446;  271,927;12258,414;46,07287
 469,88; 5679,032;  279,081;12066,171;45,81242
 470,47; 5741,956;  329,082;12242,536;45,43497
 471,06; 5678,588;  302,390;12120,336;45,49181
 471,64; 5717,710;  297,774;12299,895;45,15815
 472,23; 5669,814;  263,698;12297,375;44,92489
 472,81; 5727,274;  283,852;12422,720;44,84292
 473,40; 5784,421;  285,852;12554,271;44,81888
 473,99; 5874,207;  345,699;12738,207;44,61170
 474,57; 5830,096;  291,083;12822,779;44,20003
 475,16; 5890,401;  310,006;12987,369;44,01858
 475,75; 5976,227;  313,622;13064,535;44,40941
 476,33; 5978,820;  318,776;13200,156;43,93973
 476,92; 5984,419;  320,699;13232,959;43,86312
 477,51; 5983,130;  304,238;13274,780;43,78300
 478,09; 5968,241;  297,853;13241,036;43,80984
 478,68; 5902,623;  314,853;13194,701;43,38382
 479,27; 5950,774;  338,237;13286,752;43,34502
 479,85; 5892,769;  304,546;13250,330;43,16635
 480,44; 5946,356;  284,161;13482,359;42,90127
 481,02; 6478,068;  303,085;15318,995;41,12294
 481,61; 7254,780;  322,008;16982,727;41,61148
 482,20; 7749,342;  321,469;17993,988;42,03064
 482,78; 8043,870;  350,777;18693,940;41,93984
 483,37; 8252,923;  328,316;19128,672;42,15137
 483,95; 8398,665;  357,163;19354,782;42,32900
 484,54; 8448,337;  360,623;19489,224;42,28074
 485,13; 8317,625;  334,702;19283,272;42,12942
 485,71; 8231,627;  310,317;19077,145;42,20910
 486,30; 8103,815;  347,548;18842,170;41,93796
 486,88; 7947,599;  367,779;18319,504;42,22335
 487,47; 7648,768;  365,471;17668,607;42,09236
 488,05; 7301,210;  355,318;16738,834;42,39561
 488,64; 6748,588;  360,164;15456,159;42,31867
 489,23; 6007,268;  361,779;13396,604;43,31082
 489,81; 5117,531;  356,010;11829,565;41,49996
 490,40; 4854,359;  319,010;11393,164;40,95436
 490,98; 4707,724;  297,164;11155,449;40,61930
 491,57; 4682,148;  335,010;11071,665;40,48875
 492,15; 4622,270;  318,703;11051,625;40,09688
 492,74; 4581,645;  331,856;10970,659;39,94612
 493,32; 4557,220;  323,087;10811,823;40,36838
 493,91; 4474,036;  310,472;10719,403;39,99992
 494,50; 4445,623;  323,089;10708,045;39,69718
 495,08; 4400,120;  291,704;10712,573;39,42488
 495,67; 4427,669;  322,703;10659,900;39,71063
 496,25; 4284,056;  268,396;10586,039;38,92033
 496,84; 4309,482;  286,395;10522,241;39,30390
 497,42; 4262,080;  277,935;10462,589;39,11910
 498,01; 4244,258;  293,857;10421,051;39,00786
 498,59; 4228,523;  256,319;10385,093;39,21703
 499,18; 4160,189;  281,626;10324,208;38,62117
 499,76; 4141,022;  275,165;10235,417;38,81284
 500,35; 4042,475;  277,858;10074,466;38,42776
 500,93; 4006,448;  263,704;10030,174;38,32238
 501,52; 3958,096;  272,781; 9983,176;37,95227
 502,10; 3939,078;  289,782; 9974,348;37,68156
 502,69; 3876,159;  268,782; 9793,822;37,87257
 503,27; 3799,563;  257,550; 9571,845;38,02771
 503,86; 3774,178;  272,090; 9561,129;37,70130
 504,44; 3687,457;  250,167; 9440,116;37,40270
 505,03; 3612,004;  247,782; 9203,546;37,56487
 505,61; 3558,655;  245,859; 9099,096;37,41903
 506,19; 3507,696;  265,859; 8971,989;37,23626
 506,78; 3430,671;  243,091; 8756,487;37,44193
 507,36; 3365,714;  252,244; 8566,215;37,44865
 507,95; 3285,317;  270,399; 8487,616;36,69026
 508,53; 3248,774;  257,552; 8399,680;36,73759
 509,12; 3181,959;  258,014; 8283,370;36,43384
 509,70; 3121,769;  272,783; 8088,069;36,45402
 510,29; 3076,885;  277,015; 7980,491;36,34554
 510,87; 2952,757;  256,168; 7758,591;35,94291
 511,46; 2910,294;  252,014; 7607,758;36,13883
 512,04; 2882,930;  263,168; 7505,417;36,17333
 512,62; 2837,635;  258,322; 7359,014;36,32482
 513,21; 2783,056;  234,861; 7188,830;36,64375
 513,79; 2702,206;  260,785; 7095,679;35,71995
 514,38; 2591,637;  233,862; 6965,129;35,02722
 514,96; 2633,390;  262,323; 6845,465;36,01726
 515,54; 2535,687;  235,169; 6743,642;35,34650
 516,13; 2492,267;  256,554; 6631,363;35,07106
 516,71; 2449,570;  249,170; 6510,942;35,14021
 517,30; 2390,189;  243,632; 6406,221;34,83207
 517,88; 2389,959;  264,786; 6356,588;34,88578
 518,46; 2311,315;  246,017; 6198,811;34,69461
 519,05; 2334,731;  255,632; 6205,786;34,94193
 519,63; 2267,237;  262,017; 6169,286;33,94496
 520,22; 2260,246;  258,787; 6085,080;34,35219
 520,80; 2223,639;  254,325; 6071,161;33,85540
 521,38; 2235,038;  273,479; 6022,899;34,11751
 521,97; 2201,285;  243,403; 5969,290;34,19351
 522,55; 2204,028;  258,787; 5957,694;34,13358
 523,13; 2159,196;  246,018; 5964,236;33,45760
 523,72; 2147,854;  242,863; 5936,485;33,45834
 524,30; 2213,168;  261,019; 6077,744;33,56096
 524,89; 2169,139;  247,172; 6092,909;32,87809
 525,47; 2238,055;  249,634; 6207,271;33,37600
 526,05; 2214,951;  220,326; 6261,190;33,01887
 526,64; 2262,906;  251,865; 6368,939;32,87587
 527,22; 2292,166;  253,634; 6522,201;32,51991
 527,80; 2342,727;  278,019; 6634,172;32,48362
 528,39; 2361,913;  247,250; 6692,726;32,80848
 528,97; 2378,025;  259,865; 6919,122;31,80775
 529,55; 2484,137;  263,403; 7014,633;32,89376
 530,14; 2490,825;  267,942; 7250,174;31,83628
 530,72; 2517,521;  251,250; 7301,917;32,14265
 531,30; 2526,064;  223,866; 7446,640;31,87415
 531,89; 2572,739;  255,173; 7502,550;31,97799
 532,47; 2615,626;  285,635; 7603,403;31,84019
 533,05; 2618,847;  276,711; 7658,531;31,72844
 533,63; 2652,471;  287,097; 7778,226;31,57567
 534,22; 2620,727;  257,866; 7741,053;31,57561
 534,80; 2627,688;  283,943; 7831,393;31,05346
 535,38; 2704,482;  327,020; 7893,162;31,42238
 535,97; 2642,600;  269,250; 7797,748;31,52488
 536,55; 2711,320;  313,097; 7903,673;31,59474
 537,13; 2671,423;  311,096; 7869,410;31,22822
 537,71; 2674,800;  362,481; 7982,253;30,34630
 538,30; 2709,008;  364,558; 8048,950;30,50924
 538,88; 2750,068;  400,021; 8129,492;30,40372
 539,46; 2813,739;  441,251; 8299,336;30,19169
 540,05; 2875,352;  457,944; 8431,960;30,31606
 540,63; 2935,103;  504,097; 8605,735;30,00635
 541,21; 2968,758;  527,482; 8763,890;29,64006
 541,79; 3034,741;  560,328; 8855,955;29,82792
 542,38; 3088,267;  587,790; 8999,649;29,72562
 542,96; 3166,951;  584,021; 9218,023;29,91578
 543,54; 3214,221;  603,944; 9379,239;29,74574
 544,12; 3233,809;  579,790; 9506,657;29,73069
 544,70; 3249,899;  556,867; 9558,483;29,91720
 545,29; 3260,617;  567,097; 9751,103;29,32838
 545,87; 3244,972;  546,021; 9795,416;29,17976
 546,45; 3228,806;  502,174; 9721,323;29,57574
 547,03; 3266,735;  484,944; 9852,666;29,69549
 547,62; 3248,570;  463,790;10005,440;29,18552
 548,20; 3312,490;  465,098;10194,526;29,26577
 548,78; 3340,530;  430,714;10273,585;29,56268
 549,36; 3350,600;  408,945;10501,640;29,14637
 549,94; 3374,278;  374,944;10664,140;29,15032
 550,53; 3469,815;  380,714;10876,768;29,43107
 551,11; 3455,383;  353,253;11063,969;28,96286
 551,69; 3546,378;  345,176;11348,205;29,09382
 552,27; 3565,664;  321,637;11596,180;28,77302
 552,85; 3681,964;  327,792;11920,405;28,93371
 553,44; 3750,720;  320,945;12230,058;28,79958
 554,02; 3830,504;  332,791;12571,469;28,57918
 554,60; 3878,921;  282,022;12883,928;28,54250
 555,18; 4004,044;  313,637;13266,935;28,49010
 555,76; 4050,513;  301,868;13585,206;28,22065
 556,34; 4154,985;  301,561;14024,638;28,07988
 556,93; 4274,206;  286,868;14331,075;28,39134
 557,51; 4317,959;  283,561;14675,753;28,03185
 558,09; 4457,565;  309,868;15061,248;28,11735
 558,67; 4557,400;  297,100;15338,921;28,32303
 559,25; 4590,112;  318,484;15667,133;27,83064
 559,83; 4682,389;  293,946;15947,559;28,03469
 560,41; 4773,909;  290,638;16300,028;28,00401
 561,00; 4848,186;  290,100;16663,395;27,83854
 561,58; 4882,978;  294,023;16859,272;27,70230
 562,16; 4934,101;  282,792;17198,564;27,49688
 562,74; 5021,607;  261,330;17469,141;27,66347
 563,32; 5128,047;  262,254;17898,073;27,59040
 563,90; 5228,563;  281,177;18331,197;27,40931
 564,48; 5334,218;  297,407;18661,955;27,42682
 565,06; 5498,563;  288,869;19340,160;27,34562
 565,65; 5656,845;  284,178;19949,599;27,32038
 566,23; 5863,058;  326,792;20678,222;27,20333
 566,81; 6005,924;  285,254;21412,415;27,07732
 567,39; 6251,824;  287,562;22234,190;27,17621
 567,97; 6407,598;  301,715;22862,457;27,06419
 568,55; 6616,056;  299,485;23599,638;27,10957
 569,13; 6803,725;  289,331;24319,105;27,10967
 569,71; 6975,605;  290,715;25220,847;26,81450
 570,29; 7303,241;  313,330;26080,774;27,12691
 570,87; 7486,991;  315,945;26772,716;27,10476
 571,45; 7632,332;  318,946;27435,332;26,97036
 572,03; 7661,002;  263,947;27823,993;26,83978
 572,61; 7859,398;  274,177;28535,260;26,83981
 573,20; 8047,104;  294,715;29149,572;26,86684
 573,78; 8162,363;  292,946;29730,040;26,73300
 574,36; 8335,741;  298,946;30153,385;26,91993
 574,94; 8405,103;  324,408;30560,259;26,72554
 575,52; 8426,336;  295,332;30773,665;26,67798
 576,10; 8626,108;  357,101;31384,443;26,65071
 576,68; 8687,746;  330,485;31964,244;26,41880
 577,26; 8859,367;  347,102;32544,527;26,43772
 577,84; 8985,313;  352,716;32928,043;26,50042
 578,42; 9110,828;  378,793;33129,451;26,66217
 579,00; 9066,757;  358,100;33314,085;26,42511
 579,58; 9093,454;  382,947;33482,867;26,31579
 580,16; 9080,827;  365,947;33531,044;26,27726
 580,74; 9094,254;  346,870;33760,209;26,17932
 581,32; 9118,333;  358,331;33807,928;26,18866
 581,90; 9096,708;  372,947;33736,282;26,14775
 582,48; 9068,605;  384,178;33939,242;25,88112
 583,06; 9098,513;  391,178;34076,180;25,84929
 583,64; 9075,317;  370,101;34097,862;25,81024
 584,22; 9010,326;  379,255;33869,154;25,77216
 584,80; 8902,110;  401,639;33647,566;25,56846
 585,38; 8737,755;  385,869;33384,389;25,30988
 585,96; 8727,602;  368,793;33436,601;25,27778
 586,54; 8751,515;  383,870;33576,491;25,20935
 587,12; 8767,578;  355,793;33627,737;25,28191
 587,70; 8739,029;  377,485;33819,381;25,00320
 588,28; 8746,467;  381,563;33897,789;24,95777
 588,86; 8725,166;  373,947;33906,444;24,90485
 589,44; 8688,774;  355,102;34122,593;24,67957
 590,02; 8718,742;  355,717;34262,708;24,66460
 590,59; 8693,319;  341,255;34531,575;24,42815
 591,17; 8770,459;  339,795;34596,049;24,61059
 591,75; 8750,088;  336,487;34831,551;24,39074
 592,33; 8818,329;  358,025;35062,795;24,37793
 592,91; 8856,829;  314,179;35214,946;24,47697
 593,49; 8848,979;  315,795;35574,281;24,20179
 594,07; 8920,014;  323,180;35758,749;24,26047
 594,65; 8889,045;  331,717;35779,713;24,14051
 595,23; 8955,682;  330,948;36117,010;24,10082
 595,81; 8948,535;  317,717;36234,991;24,02971
 596,39; 8918,484;  324,333;36308,221;23,88333
 596,97; 8959,581;  331,179;36680,164;23,73767
 597,55; 8954,436;  308,563;36482,233;23,90101
 598,12; 8926,447;  294,026;36523,492;23,82707
 598,70; 8922,263;  297,487;36596,499;23,76036
 599,28; 8915,827;  313,718;36743,018;23,61316
 599,86; 8934,409;  303,564;36780,898;23,66084
 600,44; 8939,911;  277,256;36927,366;23,63610
 601,02; 8933,100;  325,334;36933,946;23,51295
 601,60; 8863,669;  312,871;36922,159;23,35691
 602,18; 8864,653;  289,103;36981,340;23,37157
 602,75; 8867,339;  275,025;37051,519;23,36360
 603,33; 8812,383;  313,564;37070,800;23,12149
 603,91; 8764,940;  296,488;37072,278;23,02725
 604,49; 8742,998;  310,872;37082,972;22,93077
 605,07; 8773,438;  307,641;37095,449;23,01251
 605,65; 8746,321;  329,872;37204,690;22,82438
 606,23; 8735,824;  394,024;37306,360;22,59895
 606,80; 8722,168;  422,640;37310,506;22,49934
 607,38; 8715,694;  461,641;37379,826;22,35769
 607,96; 8749,818;  492,640;37482,436;22,32285
 608,54; 8737,919;  556,487;37526,139;22,13013
 609,12; 8684,040;  554,717;37539,794;21,98001
 609,70; 8718,187;  585,872;37571,002;21,98807
 610,27; 8722,357;  597,563;37680,862;21,90958
 610,85; 8733,794;  587,025;37716,631;21,94144
 611,43; 8681,409;  604,102;37724,916;21,75951
 612,01; 8594,114;  570,794;37411,170;21,77861
 612,59; 8596,563;  551,795;37424,572;21,81764
 613,16; 8521,497;  531,255;37421,628;21,65942
 613,74; 8501,562;  505,718;37292,857;21,73543
 614,32; 8423,910;  468,026;37273,882;21,61581
 614,90; 8439,642;  428,102;37115,233;21,83747
 615,48; 8275,983;  383,332;36769,585;21,69130
 616,05; 8260,156;  373,409;36769,797;21,66904
 616,63; 8247,867;  379,947;36526,855;21,76651
 617,21; 8198,503;  381,948;36544,048;21,61532
 617,79; 8131,133;  352,025;36390,400;21,58562
 618,36; 8116,806;  360,717;36369,821;21,53924
 618,94; 7969,512;  310,332;36014,423;21,45183
 619,52; 7948,507;  339,255;35777,641;21,47178
 620,10; 7850,006;  320,794;35728,557;21,26430
 620,67; 7855,200;  328,255;35576,143;21,35432
 621,25; 7818,814;  334,564;35564,884;21,24378
 621,83; 7743,598;  327,948;35450,545;21,11362
 622,41; 7749,128;  357,486;35413,328;21,08534
 622,98; 7659,594;  339,486;35204,247;20,99572
 623,56; 7670,090;  327,639;35200,449;21,05495
 624,14; 7556,171;  305,564;35064,166;20,85989
 624,72; 7537,948;  324,409;34963,520;20,82484
 625,29; 7560,347;  296,716;35012,737;20,92299
 625,87; 7520,842;  345,871;34931,181;20,74572
 626,45; 7421,835;  298,870;34875,107;20,60075
 627,02; 7412,491;  311,717;34781,840;20,59979
 627,60; 7352,638;  294,949;34693,450;20,51743
 628,18; 7342,579;  284,332;34841,641;20,42476
 628,76; 7316,405;  283,332;34808,566;20,37082
 629,33; 7301,599;  313,178;34893,070;20,20949
 629,91; 7275,852;  300,871;34831,480;20,19941
 630,49; 7262,729;  319,024;34971,804;20,03794
 631,06; 7274,456;  313,178;35078,391;20,02369
 631,64; 7259,339;  313,101;35084,502;19,97687
 632,22; 7162,726;  271,947;34986,358;19,84991
 632,79; 7237,444;  299,408;35208,261;19,87472
 633,37; 7216,704;  278,794;35387,977;19,76095
 633,95; 7171,006;  289,409;35393,024;19,60367
 634,52; 7157,213;  282,025;35503,450;19,51991
 635,10; 7154,699;  286,256;35479,828;19,51619
 635,68; 7172,042;  284,408;35690,864;19,45305
 636,25; 7128,363;  283,639;35719,615;19,31575
 636,83; 7159,636;  254,486;35938,950;19,35058
 637,41; 7145,480;  273,793;36007,906;19,23005
 637,98; 7165,070;  286,562;36122,062;19,19467
 638,56; 7083,364;  289,485;36144,850;18,94801
 639,13; 7092,825;  275,024;36255,306;18,94871
 639,71; 7110,806;  289,255;36347,691;18,91805
 640,29; 6993,120;  252,717;36144,876;18,77960
 640,86; 7028,477;  266,024;36367,752;18,73166
 641,44; 6982,680;  271,563;36536,705;18,50570
 642,02; 6950,807;  292,486;36372,811;18,45416
 642,59; 6965,087;  263,409;36518,918;18,48458
 643,17; 6918,367;  266,409;36512,332;18,35229
 643,74; 6865,109;  264,255;36535,361;18,19866
 644,32; 6906,466;  285,563;36407,237;18,32945
 644,89; 6882,670;  275,794;36465,728;18,25612
 645,47; 6875,950;  301,871;36483,373;18,16972
 646,05; 6825,000;  260,255;36403,864;18,16295
 646,62; 6787,741;  277,101;36363,509;18,04181
 647,20; 6728,560;  272,255;36558,616;17,79265
 647,77; 6698,302;  258,486;36456,645;17,79045
 648,35; 6670,121;  242,025;36263,675;17,84509
 648,92; 6661,939;  285,255;36337,166;17,68751
 649,50; 6587,758;  244,948;36268,195;17,60755
 650,08; 6554,346;  240,102;36146,610;17,58524
 650,65; 6511,011;  255,794;36414,178;17,29949
 651,23; 6641,830;  235,871;37371,361;17,25023
 651,80; 6777,495;  253,025;38148,083;17,21721
 652,38; 6803,775;  263,871;38457,651;17,12296
 652,95; 6829,748;  222,256;38802,373;17,12668
 653,53; 6878,797;  258,332;39008,787;17,08487
 654,10; 6898,462;  276,563;39204,201;17,01079
 654,68; 6821,819;  240,948;38966,692;16,99353
 655,25; 6782,330;  238,563;39112,645;16,83324
 655,83; 6749,149;  250,640;39190,136;16,68873
 656,40; 6780,275;  276,025;39135,781;16,73775
 656,98; 6720,017;  251,794;39020,118;16,68430
 657,55; 6729,913;  260,717;38890,378;16,74671
 658,13; 6586,809;  243,563;38524,331;16,57032
 658,70; 6485,935;  259,871;38232,130;16,39635
 659,28; 6294,984;  244,794;37292,775;16,33069
 659,85; 6134,111;  256,794;36790,035;16,08759
 660,43; 6154,545;  272,640;36842,603;16,08398
 661,00; 6115,210;  245,640;37033,940;15,95499
 661,58; 6113,952;  244,179;37265,047;15,85531
 662,15; 6112,386;  230,871;37462,615;15,79704
 662,73; 6170,281;  290,794;37841,644;15,65740
 663,30; 6151,023;  252,948;37984,905;15,63151
 663,88; 6110,381;  258,256;38130,242;15,45238
 664,45; 6098,584;  250,256;38406,348;15,32738
 665,03; 6142,556;  256,641;38698,147;15,31136
 665,60; 6200,837;  297,564;39203,331;15,17326
 666,17; 6131,502;  266,641;39281,899;15,03222
 666,75; 6148,320;  254,641;39616,928;14,97291
 667,32; 6219,139;  268,641;39890,496;15,01822
 667,90; 6194,035;  262,025;40139,218;14,87569
 668,47; 6242,315;  268,795;40390,171;14,88862
 669,05; 6223,672;  255,641;40646,662;14,77564
 669,62; 6202,183;  234,564;40704,076;14,74596
 670,19; 6166,694;  237,410;40810,644;14,61378
 670,77; 6156,667;  262,718;41151,673;14,41453
 671,34; 6119,178;  246,641;40857,242;14,46060
 671,92; 6160,689;  245,256;41280,040;14,41565
 672,49; 6127,585;  272,102;41219,916;14,29987
 673,06; 6094,019;  225,025;41408,792;14,25074
 673,64; 6093,991;  242,025;41259,590;14,26698
 674,21; 6050,579;  234,564;41124,928;14,22344
 674,79; 6100,937;  257,102;41488,803;14,17316
 675,36; 6073,294;  257,872;41607,218;14,06412
 675,93; 6000,266;  242,872;41375,786;13,99705
 676,51; 6024,470;  257,026;41598,277;13,95082
 677,08; 5967,135;  257,872;41691,614;13,77926
 677,65; 5981,646;  263,487;41835,490;13,75483
 678,23; 5968,926;  253,103;42044,519;13,67703
 678,80; 5902,668;  242,487;42217,241;13,48473
 679,38; 5906,794;  235,641;42347,194;13,46698
 679,95; 5953,844;  248,103;42539,377;13,49153
 680,52; 5951,047;  244,564;42854,099;13,39250
 681,10; 6024,404;  248,872;43315,513;13,41069
 681,67; 5969,454;  255,564;43660,697;13,16409
 682,24; 5943,888;  232,487;43679,341;13,14572
 682,82; 5986,784;  222,718;44193,833;13,10875
 683,39; 6043,141;  273,487;44550,170;13,03091
 683,96; 6010,729;  240,180;44680,738;12,98487
 684,54; 6009,163;  228,257;45008,767;12,90942
 685,11; 6063,520;  250,872;45270,951;12,91123
 685,68; 6032,262;  237,718;45817,903;12,71286
 686,25; 6032,311;  217,949;45772,625;12,76348
 686,83; 6012,976;  234,103;45986,347;12,63080
 687,40; 6026,949;  218,026;46307,454;12,60359
 687,97; 6055,998;  260,872;46582,099;12,51074
 688,55; 5984,740;  213,641;46655,128;12,42660
 689,12; 5985,559;  199,257;46942,311;12,37896
 689,69; 5953,608;  228,411;46987,956;12,24391
 690,26; 5966,735;  235,949;47032,909;12,24606
 690,84; 5956,323;  235,565;47260,939;12,16526
 691,41; 5970,526;  252,103;47316,584;12,15019
 691,98; 6009,883;  247,642;47707,075;12,14140
 692,56; 5933,548;  220,334;47711,873;12,02996
 693,13; 5997,367;  292,334;47773,518;12,01536
 693,70; 5965,724;  253,949;47925,240;11,98158
 694,27; 5936,081;  242,334;48087,116;11,90046
 694,84; 5926,131;  236,642;48209,453;11,85982
 695,42; 5916,950;  271,334;48307,867;11,75275
 695,99; 5873,999;  247,872;48456,051;11,67048
 696,56; 5877,202;  234,872;48261,926;11,74823
 697,13; 5940,637;  257,488;48843,418;11,69711
 697,71; 5877,763;  215,642;48735,832;11,66962
 698,28; 5883,274;  241,642;49050,630;11,55859
 698,85; 5822,939;  212,719;49156,506;11,46258
 699,42; 5822,988;  222,257;49245,382;11,42467
 699,99; 5842,269;  253,796;49343,334;11,38424
 700,57; 5804,703;  253,488;49435,518;11,28708
 701,14; 5782,368;  234,257;49521,394;11,25671
 701,71; 5789,417;  255,180;49731,731;11,18558
 702,28; 5784,005;  237,334;49772,991;11,19733
 702,85; 5736,132;  254,873;49842,713;11,05364
 703,43; 5773,412;  261,950;50054,896;11,06876
 704,00; 5828,846;  272,411;50188,695;11,13151
 704,57; 5712,357;  256,411;50230,186;10,91762
 705,14; 5765,868;  285,796;50395,370;10,93618
 705,71; 5703,841;  281,104;50459,630;10,80689
 706,28; 5689,352;  258,411;50428,660;10,82502
 706,86; 5701,017;  286,411;50726,766;10,73467
 707,43; 5683,912;  288,411;50512,180;10,74292
 708,00; 5658,577;  274,104;50540,825;10,71181
 708,57; 5589,165;  254,411;50508,932;10,61547
 709,14; 5577,907;  275,258;50590,423;10,53887
 709,71; 5532,110;  266,565;50679,606;10,44481
 710,28; 5517,006;  247,258;50823,636;10,41939
 710,86; 5550,286;  264,565;51017,127;10,41469
 711,43; 5568,259;  275,796;50994,079;10,43502
 712,00; 5534,155;  260,258;51132,340;10,36698
 712,57; 5532,281;  260,873;51295,138;10,32915
 713,14; 5505,407;  252,719;51329,091;10,28399
 713,71; 5470,457;  271,488;51252,813;10,19779
 714,28; 5476,737;  258,412;51254,227;10,23285
 714,85; 5418,787;  238,412;51039,257;10,19742
 715,42; 5446,067;  245,027;51211,517;10,20482
 716,00; 5438,963;  276,412;51335,470;10,11094
 716,57; 5383,397;  237,796;51470,884;10,04351
 717,14; 5355,292;  236,412;51438,760; 9,99736
 717,71; 5338,650;  223,796;51422,481; 9,99020
 718,28; 5384,007;  252,181;51575,819; 9,99895
 718,85; 5319,595;  231,642;51546,233; 9,91522
 719,42; 5343,798;  255,181;51709,262; 9,88963
 719,99; 5270,463;  242,181;51471,138; 9,81531
 720,56; 5321,820;  249,643;51755,014; 9,84786
 721,13; 5284,331;  235,643;51894,043; 9,77322
 721,70; 5246,073;  234,027;51750,381; 9,72904
 722,27; 5267,661;  250,104;51793,949; 9,73454
 722,84; 5325,557;  272,643;51888,132; 9,78953
 723,41; 5207,068;  228,489;51968,700; 9,62226
 723,98; 5289,502;  248,873;52073,037; 9,72641
 724,55; 5306,244;  271,104;52246,298; 9,68758
 725,12; 5220,063;  200,104;52149,404; 9,66319
 725,69; 5238,958;  231,797;52368,510; 9,60391
 726,27; 5217,700;  243,181;52399,925; 9,53763
 726,84; 5232,826;  241,181;52682,800; 9,51848
 727,41; 5249,953;  256,412;52616,445; 9,53693
 727,98; 5264,387;  265,027;53006,783; 9,47894
 728,55; 5271,821;  280,412;52754,504; 9,51214
 729,12; 5234,717;  221,643;52956,995; 9,50610
 729,69; 5255,997;  261,335;53028,102; 9,46554
 730,26; 5268,200;  262,720;53308,132; 9,43622
 730,82; 5251,019;  254,797;53184,930; 9,43928
 731,39; 5222,607;  236,566;53269,883; 9,40171
 731,96; 5243,349;  228,412;53613,451; 9,39390
 732,53; 5275,014;  252,412;53726,096; 9,39266
 733,10; 5318,063;  261,951;53735,510; 9,45535
 733,67; 5247,959;  255,951;54002,232; 9,28810
 734,24; 5255,701;  237,643;53779,877; 9,37215
 734,81; 5257,058;  265,181;53850,753; 9,31571
 735,38; 5215,261;  258,335;53510,782; 9,30835
 735,95; 5208,311;  251,028;53377,735; 9,33106
 736,52; 5204,283;  263,643;53533,995; 9,27465
 737,09; 5157,333;  260,720;53275,486; 9,23632
 737,66; 5197,382;  297,720;53398,131; 9,22716
 738,23; 5196,663;  249,028;53464,545; 9,29735
 738,80; 5278,712;  284,643;53748,344; 9,34105
 739,37; 5174,377;  275,182;53944,066; 9,12856
 739,94; 5207,580;  263,182;54030,865; 9,19586
 740,51; 5291,476;  307,643;53980,971; 9,28549
 741,07; 5221,526;  245,643;53904,231; 9,27323
 741,64; 5249,960;  277,951;54078,415; 9,24157
 742,21; 5219,779;  252,105;54203,291; 9,20772
 742,78; 5198,443;  229,336;54034,166; 9,23543
 743,35; 5247,031;  249,105;54354,427; 9,23740
 743,92; 5290,004;  274,566;54428,995; 9,26136
 744,49; 5248,900;  250,874;54328,024; 9,24240
 745,06; 5237,180;  244,182;54277,669; 9,24056
 745,63; 5188,076;  237,336;54250,699; 9,16577
 746,19; 5227,279;  236,105;54194,728; 9,25000
 746,76; 5220,944;  255,643;54330,604; 9,18225
 747,33; 5248,224;  237,951;54267,557; 9,27320
 747,90; 5271,966;  270,951;54414,971; 9,23650
 748,47; 5245,015;  260,105;54308,077; 9,22312
 749,04; 5220,142;  255,644;54397,414; 9,16944
 749,61; 5281,345;  274,951;54310,367; 9,26502
 750,17; 5283,318;  269,259;54364,627; 9,26892
 750,74; 5295,137;  275,644;54258,734; 9,29827
 751,31; 5271,571;  239,721;54096,533; 9,34302
 751,88; 5213,389;  231,105;54064,639; 9,25498
 752,45; 5242,593;  249,490;54176,976; 9,25892
 753,02; 5293,565;  247,567;54046,467; 9,37937
 753,58; 5221,846;  244,721;53948,882; 9,26767
 754,15; 5231,741;  248,413;54144,373; 9,24620
 754,72; 5253,714;  232,413;53798,941; 9,37395
 755,29; 5265,610;  235,644;53757,740; 9,39792
 755,86; 5222,274;  244,182;53816,692; 9,29225
 756,42; 5273,324;  248,259;53672,491; 9,40597
 756,99; 5234,066;  213,952;53711,059; 9,38390
 757,56; 5246,731;  218,875;53750,550; 9,39230
 758,13; 5199,319;  189,952;53569,118; 9,38450
 758,70; 5269,522;  207,798;53646,840; 9,47196
 759,26; 5307,110;  187,567;53640,716; 9,57763
 759,83; 5311,236;  202,259;53748,745; 9,54120
 760,40; 5275,209;  191,721;53546,698; 9,52767
 760,97; 5282,182;  194,875;53715,727; 9,50528
 761,53; 5261,000;  177,490;53277,603; 9,57345
 762,10; 5269,588;  172,106;53148,171; 9,62224
 762,67; 5310,869;  214,029;53222,970; 9,61506
 763,24; 5234,072;  166,567;52805,846; 9,62685
 763,80; 5264,429;  194,721;52941,721; 9,61137
 764,37; 5272,017;  203,798;52877,366; 9,62194
 764,94; 5245,605;  188,875;52464,165; 9,67327
 765,50; 5248,039;  185,952;52357,502; 9,70277
 766,07; 5297,166;  226,336;52546,686; 9,69189
 766,64; 5275,907;  212,413;52185,331; 9,74256
 767,21; 5256,495;  208,490;51985,437; 9,74952
 767,77; 5319,545;  231,183;51931,005; 9,84213
 768,34; 5279,748;  230,952;51842,265; 9,78234
 768,91; 5278,721;  231,798;51800,064; 9,78688
 769,47; 5318,232;  230,875;51802,248; 9,86469
 770,04; 5331,820;  240,029;51611,662; 9,91168
 770,61; 5324,792;  220,106;51433,768; 9,96743
 771,18; 5316,765;  215,183;51327,798; 9,98106
 771,74; 5343,276;  230,798;51420,135; 9,98739
 772,31; 5382,095;  233,029;51218,472;10,09909
 772,88; 5322,067;  216,029;51003,425;10,05375
 773,44; 5325,963;  213,568;50748,993;10,11646
 774,01; 5391,782;  230,260;50902,484;10,18610
 774,58; 5379,831;  218,798;50579,206;10,24820
 775,14; 5419,419;  220,029;50682,466;10,30349
 775,71; 5440,161;  218,260;50524,496;10,38023
 776,27; 5529,672;  253,645;50421,141;10,51682
 776,84; 5550,029;  263,568;50475,786;10,52824
 777,41; 5509,233;  229,952;50344,431;10,53444
 777,97; 5469,974;  218,722;50052,460;10,53755
 778,54; 5521,870;  234,183;50233,643;10,57549
 779,11; 5540,612;  247,183;50042,365;10,63040
 779,67; 5494,354;  216,491;50041,703;10,59276
 780,24; 5569,557;  231,106;49856,655;10,75746
 780,80; 5574,145;  252,029;49890,146;10,72183
 781,37; 5582,579;  245,568;49794,560;10,77118
 781,94; 5566,321;  230,568;49558,513;10,81690
 782,50; 5592,986;  237,337;49458,312;10,88083
 783,07; 5627,035;  259,029;49630,418;10,87271
 783,63; 5638,008;  217,799;49306,063;11,04176
 784,20; 5635,134;  246,106;49188,324;11,01100
 784,77; 5599,953;  242,260;49076,661;10,97115
 785,33; 5649,080;  219,568;48788,613;11,17895
 785,90; 5670,206;  232,568;48798,105;11,19650
 786,46; 5682,179;  249,953;48682,596;11,21604
 787,03; 5660,613;  224,568;48553,087;11,24811
 787,59; 5706,047;  223,183;48395,347;11,38181
 788,16; 5727,019;  242,876;48427,223;11,38159
 788,73; 5770,531;  252,491;48291,714;11,48653
 789,29; 5747,657;  230,260;47965,820;11,55825
 789,86; 5774,783;  242,107;47806,696;11,63192
 790,42; 5771,448;  237,799;47782,187;11,63891
 790,99; 5762,421;  249,953;47390,371;11,69372
 791,55; 5786,470;  225,491;47342,708;11,80244
 792,12; 5839,366;  242,184;47204,276;11,91851
 792,68; 5805,339;  239,491;46999,536;11,90300
 793,25; 5809,542;  241,568;46866,873;11,94196
 793,81; 5832,745;  265,645;46431,134;12,05901
 794,38; 5759,179;  213,568;46336,240;12,02361
 794,94; 5796,537;  216,645;46150,500;12,14767
 795,51; 5819,125;  239,876;45838,453;12,23558
 796,07; 5790,097;  240,414;45637,944;12,22464
 796,64; 5850,147;  255,953;45735,589;12,30044
 797,20; 5826,504;  247,645;45281,619;12,38811
 797,77; 5758,400;  222,030;44940,187;12,38059
 798,33; 5778,603;  221,645;44821,370;12,45962
 798,90; 5833,037;  262,415;44707,323;12,53377
 799,46; 5812,702;  224,492;44268,429;12,68781
 800,03; 5823,675;  231,953;44114,074;12,74260
 800,59; 5856,570;  238,568;43861,873;12,87844
 801,15; 5842,158;  244,030;43687,826;12,88591
 801,72; 5814,823;  242,722;43469,163;12,89049
 802,28; 5807,796;  262,722;43109,500;12,94163
 802,85; 5802,076;  235,722;42915,376;13,04217
 803,41; 5808,587;  236,261;42795,098;13,09323
 803,98; 5805,867;  225,646;42440,819;13,21852
 804,54; 5810,609;  239,107;42121,003;13,30289
 805,11; 5805,659;  244,415;42022,186;13,31149
 805,67; 5847,708;  254,030;41902,985;13,43054
 806,23; 5786,373;  243,261;41480,399;13,44204
 806,80; 5845,807;  250,030;41395,736;13,59990
 807,36; 5825,780;  263,799;41287,997;13,55780
 807,93; 5819,521;  251,261;41077,488;13,63893
 808,49; 5775,956;  222,492;40710,748;13,71623
 809,05; 5742,851;  213,261;40645,932;13,67604
 809,62; 5848,055;  234,030;40570,884;13,91785
 810,18; 5833,950;  242,492;40343,606;13,94340
 810,74; 5798,461;  213,184;40125,251;13,99396
 811,31; 5815,819;  207,646;39957,281;14,10874
 811,87; 5842,714;  211,338;39817,618;14,21839
 812,44; 5903,225;  259,030;39809,417;14,27090
 813,00; 5851,736;  195,030;39443,523;14,41254
 813,56; 5907,863;  242,415;39555,706;14,41102
 814,13; 5929,605;  236,107;39380,582;14,54483
 814,69; 5886,346;  236,261;39266,612;14,47613
 815,25; 5863,857;  204,723;38783,410;14,66907
 815,82; 5923,907;  248,107;38800,979;14,72212
 816,38; 5965,341;  249,031;38621,393;14,89695
 816,94; 5898,006;  211,338;38295,038;14,93203
 817,51; 5899,979;  212,415;38056,606;15,02889
 818,07; 5871,566;  224,646;37847,327;15,00935
 818,63; 5890,001;  240,415;37617,588;15,11507
 819,20; 5878,281;  231,108;37646,156;15,09332
 819,76; 5861,330;  209,415;37148,185;15,30077
 820,32; 5905,688;  261,492;37058,984;15,33853
 820,89; 5879,199;  254,108;36890,706;15,35375
 821,45; 5832,325;  214,800;36627,120;15,42754
 822,01; 5912,913;  239,185;36344,227;15,71450
 822,57; 5872,116;  233,492;36234,410;15,66245
 823,14; 5820,858;  204,646;36094,517;15,64846
 823,70; 5831,985;  215,262;35798,777;15,78462
 824,26; 5819,650;  217,877;35647,422;15,81102
 824,82; 5876,007;  230,108;35519,682;15,99877
 825,39; 5837,672;  217,185;35304,481;16,01858
 825,95; 5878,952;  245,646;35297,972;16,07113
 826,51; 5832,078;  240,569;34839,155;16,16109
 827,08; 5914,820;  264,877;35037,800;16,24811
 827,64; 5904,100;  235,954;34721,445;16,43632
 828,20; 5850,458;  213,800;34453,167;16,46250
 828,76; 5901,353;  244,108;34526,581;16,50186
 829,32; 5914,403;  236,877;34258,919;16,68779
 829,89; 5864,222;  209,646;34195,333;16,63811
 830,45; 5925,810;  228,031;34079,901;16,83150
 831,01; 5920,551;  210,262;33996,161;16,90140
 831,57; 5920,139;  232,647;33860,498;16,91304
 832,14; 5921,650;  225,647;33830,066;16,95016
 832,70; 5925,623;  215,185;33656,865;17,07581
 833,26; 5891,057;  202,493;33467,972;17,10050
 833,82; 5907,183;  221,800;33428,155;17,12137
 834,38; 5957,618;  214,416;33497,800;17,25546
 834,95; 5992,590;  214,262;33343,599;17,44173
 835,51; 5956,255;  190,262;33138,474;17,50017
 836,07; 6033,766;  227,262;33274,196;17,57048
 836,63; 6084,585;  230,954;33193,533;17,75841
 837,19; 6039,634;  218,801;32938,717;17,78988
 837,75; 6014,530;  188,647;32749,054;17,89254
 838,32; 6111,426;  240,185;32824,314;18,01871
 838,88; 6130,860;  239,493;32837,190;18,07295
 839,44; 6140,755;  222,570;32724,989;18,20845
 840,00; 6150,651;  227,801;32701,249;18,23906
 840,56; 6103,624;  212,262;32495,586;18,24893
 841,12; 6157,212;  203,339;32331,385;18,53170
 841,68; 6091,800;  194,416;32177,261;18,43921
 842,25; 6157,157;  201,647;32197,137;18,61359
 842,81; 6190,206;  205,416;31977,935;18,83637
 843,37; 6157,025;  196,878;31961,965;18,76320
 843,93; 6202,998;  203,416;31936,764;18,90624
 844,49; 6237,740;  215,724;31937,563;18,98382
 845,05; 6221,020;  183,493;31775,131;19,11115
 845,61; 6290,608;  226,262;31838,160;19,18374
 846,17; 6266,503;  219,493;31653,344;19,23726
 846,73; 6288,091;  229,493;31543,681;19,34777
 847,29; 6272,756;  189,262;31464,326;19,45158
 847,86; 6255,729;  199,493;31337,586;19,44960
 848,42; 6264,086;  189,724;31205,462;19,58477
 848,98; 6311,828;  208,339;31137,261;19,73392
 849,54; 6306,031;  203,416;31192,752;19,69263
 850,10; 6339,619;  206,724;30940,704;19,95477
 850,66; 6311,899;  200,109;30774,272;19,99005
 851,22; 6314,180;  202,801;30788,379;19,98124
 851,78; 6390,614;  228,340;30870,562;20,11040
 852,34; 6319,048;  215,263;30637,361;20,06366
 852,90; 6332,944;  209,801;30447,237;20,25020
 853,46; 6296,532;  206,263;30321,343;20,22332
 854,02; 6322,043;  222,417;30400,142;20,21235
 854,58; 6331,092;  206,570;30024,864;20,53948
 855,14; 6312,142;  193,109;29942,124;20,56886
 855,70; 6300,114;  176,724;29833,923;20,64723
 856,26; 6375,087;  222,955;29809,875;20,79342
 856,82; 6334,213;  192,263;29631,982;20,86280
 857,38; 6395,801;  225,801;29541,319;21,04687
 857,94; 6399,774;  212,032;29512,733;21,11807
 858,50; 6383,900;  213,263;29401,994;21,14048
 859,06; 6340,565;  203,955;29174,869;21,18197
 859,62; 6377,384;  218,801;29136,591;21,29686
 860,18; 6377,280;  213,032;28933,390;21,46299
 860,74; 6367,944;  169,571;28844,727;21,61583
 861,30; 6375,994;  185,648;28604,757;21,78234
 861,86; 6438,659;  218,648;28699,248;21,83947
 862,42; 6409,324;  203,571;28560,970;21,88407
 862,98; 6492,527;  222,802;28505,769;22,16785
 863,54; 6408,654;  221,032;28284,183;22,04892
 864,10; 6458,011;  215,417;28338,366;22,19751
 864,66; 6398,522;  191,417;28138,473;22,21023
 865,22; 6439,725;  206,340;27941,579;22,47460
 865,78; 6444,929;  209,571;27853,762;22,55576
 866,34; 6465,286;  205,263;27816,484;22,67202
 866,90; 6417,874;  213,648;27697,591;22,57400
 867,45; 6422,769;  225,571;27458,851;22,75598
 868,01; 6414,357;  208,879;27301,496;22,90469
 868,57; 6426,484;  216,186;27160,064;23,04901
 869,13; 6403,226;  200,494;27059,632;23,09356
 869,69; 6422,429;  214,725;26940,662;23,22726
 870,25; 6387,171;  195,186;26880,845;23,20342
 870,81; 6468,066;  212,033;26829,952;23,50309
 871,37; 6466,270;  213,956;26673,904;23,62935
 871,93; 6483,319;  218,110;26586,318;23,76047
 872,49; 6457,446;  210,956;26263,656;23,97636
 873,04; 6405,034;  195,110;26154,377;23,92180
 873,60; 6424,160;  186,648;26029,099;24,13669
 874,16; 6428,210;  218,956;26023,513;24,06262
 874,72; 6441,748;  195,956;25841,129;24,35465
 875,28; 6469,056;  220,802;25912,821;24,31982
 875,84; 6446,671;  197,110;25677,667;24,52678
 876,40; 6483,825;  202,879;25768,744;24,56770
 876,95; 6478,363;  214,110;25704,360;24,57510
 877,51; 6544,517;  227,571;25639,206;24,85848
 878,07; 6580,056;  244,110;25657,975;24,93106
 878,63; 6573,594;  203,648;25651,360;25,03151
 879,19; 6627,594;  218,340;25695,052;25,15730
 879,75; 6653,902;  206,725;25729,052;25,26093
 880,30; 6653,594;  200,494;25758,206;25,24913
 880,86; 6731,133;  244,956;25900,437;25,28184
 881,42; 6735,902;  200,417;25944,283;25,38657
 881,98; 6767,517;  219,340;25919,437;25,47919
 882,54; 6834,287;  198,187;26137,667;25,58301
 883,09; 6912,287;  221,802;26160,744;25,79321
 883,65; 6928,979;  200,725;26201,975;25,87666
 884,21; 7046,671;  232,417;26420,821;26,02012
 884,77; 7052,979;  214,571;26508,437;26,00762
 885,32; 7152,056;  219,417;26620,283;26,25913
 885,88; 7199,363;  249,110;26783,667;26,19322
 886,44; 7222,056;  215,340;26951,206;26,20718
 887,00; 7285,748;  223,417;26868,513;26,50518
 887,56; 7351,517;  211,340;26938,052;26,71551
 888,11; 7345,748;  207,956;27005,513;26,63598
 888,67; 7438,440;  242,571;27206,667;26,68685
 889,23; 7521,363;  220,648;27159,206;27,10136
 889,79; 7482,210;  205,494;27040,898;27,11610
 890,34; 7500,440;  216,263;27020,898;27,17507
 890,90; 7622,979;  262,110;27093,898;27,43339
 891,46; 7588,363;  204,263;27036,590;27,51942
 892,01; 7546,979;  230,110;26989,667;27,34301
 892,57; 7584,825;  237,879;26907,590;27,54790
 893,13; 7562,979;  205,956;26723,206;27,74429
 893,69; 7590,517;  211,648;26735,975;27,81925
 894,24; 7602,133;  222,340;26588,437;27,98970
 894,80; 7601,210;  226,263;26441,360;28,13244
 895,36; 7584,287;  214,879;26394,590;28,14931
 895,91; 7536,902;  206,263;26173,744;28,23007
 896,47; 7581,671;  221,110;26024,360;28,52571
 897,03; 7559,517;  209,648;25893,975;28,61616
 897,58; 7540,825;  224,340;25703,206;28,71590
 898,14; 7527,517;  217,879;25519,437;28,89007
 898,70; 7450,979;  189,033;25415,206;28,78735
 899,25; 7550,210;  209,494;25394,667;29,14697
 899,81; 7529,594;  227,571;25239,590;29,19406
 900,37; 7504,825;  186,571;24999,821;29,49333
 900,92; 7524,748;  213,571;24986,898;29,51229
 901,48; 7453,748;  193,879;24784,667;29,52272
 902,03; 7470,517;  212,725;24677,206;29,66665
 902,59; 7450,979;  206,110;24592,975;29,70808
 903,15; 7455,825;  228,033;24452,513;29,83673
 903,70; 7406,671;  215,187;24229,513;29,94664
 904,26; 7384,748;  196,110;24163,821;29,99301
 904,82; 7424,056;  213,725;24170,129;30,09772
 905,37; 7440,363;  222,725;23949,513;30,41979
 905,93; 7425,748;  194,110;23913,360;30,48848
 906,48; 7428,748;  214,263;23811,283;30,57371
 907,04; 7469,363;  231,802;23793,513;30,71747
 907,60; 7399,517;  197,494;23544,744;30,84741
 908,15; 7423,902;  201,879;23446,821;31,06922
 908,71; 7427,133;  233,263;23399,129;31,05375
 909,26; 7399,902;  199,187;23244,744;31,24557
 909,82; 7425,210;  233,110;23115,283;31,43102
 910,37; 7480,979;  245,648;23032,437;31,75231
 910,93; 7415,363;  208,879;22863,052;31,81085
 911,48; 7385,287;  195,263;22746,513;31,88304
 912,04; 7371,979;  199,494;22630,129;31,97629
 912,60; 7395,594;  218,571;22609,821;32,05280
 913,15; 7390,748;  213,263;22461,283;32,26123
 913,71; 7324,363;  211,494;22301,667;32,19925
 914,26; 7339,748;  195,648;22222,590;32,43346
 914,82; 7310,748;  217,725;22144,975;32,34798
 915,37; 7299,671;  200,725;22062,898;32,47137
 915,93; 7356,210;  247,648;21986,283;32,70013
 916,48; 7277,363;  206,725;21832,206;32,69587
 917,04; 7271,363;  222,725;21693,283;32,82932
 917,59; 7273,748;  236,263;21655,975;32,85518
 918,15; 7179,363;  188,110;21457,206;32,87048
 918,70; 7171,671;  198,033;21383,744;32,91671
 919,26; 7169,363;  209,187;21347,975;32,92609
 919,81; 7139,363;  201,494;21164,744;33,09539
 920,37; 7093,363;  197,417;20969,360;33,19837
 920,92; 7140,440;  220,956;21054,821;33,21268
 921,48; 7057,517;  194,571;20816,898;33,27920
 922,03; 7116,287;  206,417;20802,437;33,54954
 922,59; 7117,287;  200,033;20617,129;33,87971
 923,14; 7088,594;  185,956;20435,821;34,08733
 923,69; 7085,671;  213,802;20427,360;33,99634
 924,25; 7113,979;  213,187;20355,052;34,26094
 924,80; 7109,210;  215,494;20264,898;34,38364
 925,36; 7094,133;  211,340;20125,667;34,56201
 925,91; 7026,440;  206,571;20017,821;34,42422
 926,47; 7051,287;  194,417;19930,129;34,74346
 927,02; 7075,440;  220,725;19821,821;34,97108
 927,57; 7024,748;  207,033;19709,206;34,95875
 928,13; 7035,748;  198,571;19656,437;35,13837
 928,68; 7025,748;  192,187;19530,898;35,33618
 929,24; 6977,133;  177,340;19394,052;35,38479
 929,79; 7013,902;  195,956;19279,052;35,72767
 930,34; 6923,748;  205,033;19124,206;35,51273
 930,90; 6936,210;  194,340;19078,590;35,70102
 931,45; 6960,748;  207,956;19046,590;35,84544
 932,01; 6922,363;  210,263;18951,052;35,81546
 932,56; 6843,594;  221,033;18812,052;35,62237
 933,11; 6924,210;  222,648;18800,513;36,07283
 933,67; 6844,517;  195,340;18585,206;36,15675
 934,22; 6874,979;  203,879;18465,975;36,52976
 934,77; 6819,056;  225,033;18457,206;36,16696
 935,33; 6809,133;  222,110;18322,129;36,39235
 935,88; 6782,363;  220,263;18243,206;36,40970
 936,43; 6812,902;  190,494;18182,821;36,80684
 936,99; 6814,517;  215,033;18030,437;37,04370
 937,54; 6751,902;  195,802;17887,821;37,05682
 938,09; 6740,056;  210,571;17846,437;37,02390
 938,65; 6708,902;  211,033;17797,667;36,94777
 939,20; 6695,671;  193,494;17754,129;37,02700
 939,75; 6663,440;  189,494;17553,513;37,28368
 940,31; 6701,440;  185,340;17522,590;37,58439
 940,86; 6716,210;  207,110;17490,129;37,66182
 941,41; 6735,210;  236,110;17362,206;37,94852
 941,96; 6659,748;  201,033;17271,052;37,83660
 942,52; 6654,517;  208,802;17200,513;37,93447
 943,07; 6637,902;  187,110;17082,513;38,18075
 943,62; 6587,210;  190,110;16966,129;38,13241
 944,18; 6581,902;  191,033;16920,513;38,20124
 944,73; 6558,671;  198,648;16802,206;38,30518
 945,28; 6538,440;  176,802;16623,129;38,68121
 945,83; 6567,133;  198,110;16666,590;38,67402
 946,39; 6525,440;  196,956;16634,821;38,49943
 946,94; 6556,440;  212,340;16557,437;38,81348
 947,49; 6504,363;  203,340;16414,129;38,86932
 948,04; 6575,748;  210,187;16335,052;39,47668
 948,59; 6563,748;  217,417;16326,975;39,39482
 949,15; 6507,440;  179,802;16232,129;39,41882
 949,70; 6497,287;  198,725;16105,821;39,59592
 950,25; 6493,363;  215,571;16030,052;39,69648
 950,80; 6423,056;  169,340;15931,360;39,67585
 951,36; 6400,748;  176,110;15829,975;39,76423
 951,91; 6434,979;  214,571;15831,513;39,83115
 952,46; 6353,210;  167,340;15631,821;40,00050
 953,01; 6411,210;  211,417;15699,360;40,02980
 953,56; 6384,287;  175,648;15591,129;40,27535
 954,11; 6403,748;  204,110;15460,744;40,63569
 954,67; 6346,517;  193,033;15488,513;40,23074
 955,22; 6263,363;  173,263;15304,129;40,24952
 955,77; 6298,748;  212,417;15267,052;40,42829
 956,32; 6315,287;  237,263;15128,590;40,81586
 956,87; 6264,979;  192,571;15020,129;40,95353
 957,42; 6301,594;  201,417;15001,283;41,21779
 957,98; 6286,210;  197,187;14918,975;41,36062
 958,53; 6272,979;  214,417;14863,513;41,35792
 959,08; 6225,440;  184,263;14812,898;41,29693
 959,63; 6203,133;  190,110;14639,206;41,61522
 960,18; 6207,440;  205,187;14643,283;41,57234
 960,73; 6240,902;  201,340;14581,821;41,99833
 961,28; 6204,056;  179,187;14473,052;42,15003
 961,83; 6247,902;  211,571;14420,129;42,48377
 962,39; 6173,056;  188,263;14322,283;42,34317
 962,94; 6200,440;  210,879;14231,667;42,71915
 963,49; 6135,363;  193,956;14075,513;42,80073
 964,04; 6174,902;  212,340;14071,590;43,02225
 964,59; 6061,748;  181,956;13975,975;42,62566
 965,14; 6085,287;  202,802;13928,283;42,85813
 965,69; 6098,902;  199,033;13779,898;43,44251
 966,24; 6069,210;  198,110;13730,898;43,38426
 966,79; 6087,210;  204,494;13601,129;43,91189
 967,34; 6024,671;  188,648;13501,590;43,83721
 967,89; 6022,594;  190,725;13435,052;44,03296
 968,44; 6051,748;  202,494;13446,052;44,16679
 968,99; 6016,902;  204,033;13359,513;44,18591
 969,55; 6032,748;  214,187;13250,052;44,63502
 970,10; 6042,979;  211,417;13165,898;45,01579
 970,65; 6012,056;  210,725;13052,744;45,17460
 971,20; 5967,594;  187,110;12991,590;45,14423
 971,75; 5922,517;  182,571;12848,975;45,31630
 972,30; 5913,902;  198,110;12814,975;45,30279
 972,85; 5877,056;  192,110;12700,898;45,44762
 973,40; 5863,440;  190,110;12581,975;45,78270
 973,95; 5866,210;  211,263;12541,437;45,86267
 974,50; 5847,133;  219,802;12477,667;45,90792
 975,05; 5775,056;  209,494;12387,667;45,70112
 975,60; 5786,594;  221,110;12254,898;46,24882
 976,15; 5749,594;  196,648;12189,283;46,30297
 976,70; 5748,748;  211,802;12185,513;46,24252
 977,25; 5748,902;  202,340;12097,821;46,62747
 977,80; 5683,748;  200,187;11959,360;46,63220
 978,35; 5666,287;  213,340;11800,590;47,05988
 978,89; 5628,902;  187,340;11762,206;47,01188
 979,44; 5645,363;  204,187;11699,360;47,33445
 979,99; 5571,748;  183,187;11515,206;47,55164
 980,54; 5579,979;  226,417;11494,590;47,51047
 981,09; 5574,440;  208,725;11372,206;48,06490
 981,64; 5510,671;  215,725;11240,052;48,02965
 982,19; 5509,748;  247,494;11238,744;47,87676
 982,74; 5468,287;  207,571;11094,590;48,32099
 983,29; 5358,748;  181,033;10943,206;48,11032
 983,84; 5368,363;  206,187;10919,821;48,18325
 984,39; 5404,979;  224,417;10813,744;48,92248
 984,94; 5297,363;  181,571;10697,283;48,64904
 985,49; 5314,671;  225,802;10665,590;48,74495
 986,03; 5292,363;  220,956;10572,744;48,99064
 986,58; 5282,594;  237,802;10437,052;49,46239
 987,13; 5207,210;  209,494;10338,129;49,34244
 987,68; 5174,902;  224,725;10302,206;49,12117
 988,23; 5181,287;  212,802;10206,360;49,71688
 988,78; 5062,671;  202,110;10071,052;49,25109
 989,33; 5065,133;  213,494; 9962,129;49,76736
 989,88; 5046,517;  223,956; 9953,129;49,56805
 990,42; 4960,671;  204,571; 9827,821;49,42301
 990,97; 4925,440;  209,725; 9712,821;49,62294
 991,52; 4924,902;  234,417; 9590,744;50,13169
 992,07; 4876,133;  238,263; 9554,437;49,78299
 992,62; 4845,594;  220,879; 9386,513;50,45712
 993,17; 4813,133;  218,802; 9376,513;50,16898
 993,71; 4740,517;  213,417; 9236,052;50,17492
 994,26; 4690,287;  195,033; 9142,744;50,23915
 994,81; 4721,133;  232,187; 9116,667;50,52570
 995,36; 4619,825;  212,956; 8961,283;50,37385
 995,91; 4638,363;  215,725; 8968,590;50,52789
 996,45; 4563,363;  213,263; 8783,437;50,75860
 997,00; 4507,748;  193,879; 8655,744;50,98012
 997,55; 4527,902;  204,956; 8638,360;51,25980
 998,10; 4486,210;  235,879; 8491,283;51,48544
 998,65; 4468,517;  205,725; 8467,590;51,59600
 999,19; 4460,133;  221,340; 8296,975;52,48866
 999,74; 4414,440;  254,187; 8302,360;51,69190
1000,29; 4355,979;  233,571; 8201,744;51,73592
1000,84; 4312,902;  215,340; 8101,821;51,95678
1001,38; 4278,902;  208,263; 7931,590;52,70576
1001,93; 4272,979;  228,802; 7911,360;52,64102
1002,48; 4175,133;  207,494; 7752,744;52,58459
1003,03; 4208,671;  204,187; 7704,821;53,38861
1003,57; 4152,133;  227,648; 7650,513;52,87021
1004,12; 4147,825;  225,033; 7524,744;53,73900
1004,67; 4085,133;  209,879; 7477,975;53,31869
1005,22; 4038,748;  192,340; 7328,360;53,90131
1005,76; 3999,056;  195,879; 7255,744;53,87039
1006,31; 3991,210;  225,340; 7204,821;53,95629
1006,86; 3907,902;  201,802; 7096,898;53,74979
1007,40; 3839,979;  188,725; 6925,052;54,20244
1007,95; 3837,979;  212,802; 6857,975;54,55354
1008,50; 3784,287;  211,494; 6749,513;54,64640
1009,04; 3748,287;  207,494; 6649,667;54,96270
1009,59; 3693,594;  221,187; 6508,206;55,23138
1010,14; 3627,517;  202,263; 6433,206;54,97168
1010,68; 3621,748;  209,956; 6367,206;55,41098
1011,23; 3561,825;  193,571; 6201,206;56,06622
1011,78; 3557,517;  225,340; 6189,667;55,86845
1012,32; 3515,671;  200,879; 6068,283;56,49504
1012,87; 3497,594;  238,879; 6048,667;56,09009
1013,42; 3425,594;  194,494; 5951,821;56,12153
1013,96; 3418,594;  233,340; 5975,129;55,47494
1014,51; 3374,902;  177,187; 5912,898;55,75098
1015,06; 3388,594;  177,417; 5921,206;55,90695
1015,60; 3460,287;  245,879; 5960,513;56,24870
1016,15; 3361,056;  196,571; 5891,821;55,56358
1016,69; 3408,825;  205,340; 5941,744;55,84482
1017,24; 3418,210;  185,263; 5920,283;56,37202
1017,79; 3461,287;  222,956; 6036,206;55,70603
1018,33; 3439,056;  194,494; 5964,667;56,22988
1018,88; 3507,210;  215,417; 6037,129;56,54338
1019,42; 3512,671;  208,802; 6047,437;56,58633
1019,97; 3473,594;  210,494; 6020,821;56,16035
1020,51; 3544,748;  207,494; 6064,744;56,97646
1021,06; 3545,287;  191,033; 6054,898;57,20209
1021,61; 3507,210;  182,187; 6020,360;56,95314
1022,15; 3465,440;  155,802; 5972,129;56,90255
1022,70; 3532,440;  200,725; 5947,821;57,97215
1023,24; 3515,517;  190,956; 5910,975;58,12151
1023,79; 3454,210;  202,110; 5853,052;57,54969
1024,33; 3462,133;  207,648; 5828,590;57,89927
1024,88; 3421,517;  209,879; 5753,590;57,93300
1025,42; 3361,979;  203,263; 5647,667;58,01765
1025,97; 3358,517;  192,110; 5566,667;58,91476
1026,51; 3247,671;  163,956; 5430,821;58,54935
1027,06; 3244,133;  193,340; 5414,590;58,43031
1027,60; 3211,440;  208,340; 5311,206;58,85125
1028,15; 3156,825;  207,187; 5207,360;58,99073
1028,69; 3089,517;  178,802; 5083,590;59,34436
1029,24; 3053,363;  189,033; 5043,129;59,00853
1029,78; 3036,287;  191,725; 4975,590;59,46157
1030,33; 2936,748;  168,494; 4851,206;59,11647
1030,87; 2964,902;  191,648; 4812,052;60,02189
1031,42; 2903,594;  181,956; 4730,129;59,84026
1031,96; 2862,748;  200,879; 4662,437;59,66233
1032,51; 2826,056;  181,879; 4575,898;60,17673
1033,05; 2844,671;  202,187; 4556,513;60,68641
1033,60; 2752,287;  174,879; 4415,975;60,77221
1034,14; 2737,825;  198,571; 4418,744;60,16942
1034,69; 2718,594;  189,802; 4337,975;60,96159
1035,23; 2663,287;  196,571; 4287,975;60,29020
1035,77; 2670,056;  198,571; 4187,513;61,95839
1036,32; 2593,133;  175,648; 4151,821;60,79928
1036,86; 2583,902;  184,725; 4074,283;61,68251
1037,41; 2561,363;  209,879; 4020,590;61,70723
1037,95; 2487,363;  184,263; 3956,667;61,05126
1038,50; 2494,363;  187,110; 3915,821;61,87805
1039,04; 2488,517;  199,263; 3880,283;62,19076
1039,58; 2433,287;  186,802; 3822,206;61,79464
1040,13; 2409,825;  194,263; 3740,821;62,47076
1040,67; 2431,748;  221,417; 3707,744;63,39999
1041,21; 2382,902;  215,879; 3643,283;63,22637
1041,76; 2304,594;  182,648; 3566,206;62,71346
1042,30; 2303,287;  198,571; 3555,898;62,69021
1042,85; 2278,363;  189,956; 3485,513;63,37039
1043,39; 2240,287;  180,648; 3409,437;63,78982
1043,93; 2237,440;  204,494; 3375,821;64,10396
1044,48; 2205,517;  195,110; 3353,667;63,64955
1045,02; 2164,056;  187,879; 3279,590;63,91854
1045,56; 2163,440;  209,187; 3237,975;64,52263
1046,11; 2147,825;  199,725; 3214,206;64,62473
1046,65; 2081,210;  198,033; 3154,360;63,69989
1047,19; 2054,133;  200,110; 3119,513;63,50691
1047,74; 2014,440;  180,263; 3057,821;63,74075
1048,28; 2003,056;  199,033; 3020,744;63,93365
1048,82; 2018,363;  218,417; 3018,129;64,29041
1049,37; 1967,825;  198,187; 2950,283;64,30148
1049,91; 1939,517;  179,033; 2870,667;65,40578
1050,45; 1926,056;  223,571; 2867,052;64,40314
1050,99; 1908,133;  196,263; 2786,744;66,08307
1051,54; 1857,210;  185,110; 2756,283;65,03257
1052,08; 1868,902;  214,033; 2744,513;65,39742
1052,62; 1835,133;  219,802; 2709,590;64,87823
1053,16; 1774,440;  195,033; 2629,052;64,88887
1053,71; 1805,594;  200,802; 2631,821;66,01315
1054,25; 1767,902;  212,956; 2565,360;66,10031
1054,79; 1739,671;  216,802; 2560,206;64,98535
1055,33; 1671,748;  177,956; 2463,821;65,34909
1055,88; 1679,902;  222,802; 2498,667;64,02400
1056,42; 1682,440;  220,956; 2463,821;65,16149
1056,96; 1657,363;  212,263; 2419,052;65,48430
1057,50; 1641,748;  207,725; 2370,590;66,30200
1058,05; 1600,671;  205,340; 2326,513;65,78109
1058,59; 1609,825;  218,571; 2295,821;66,97575
1059,13; 1546,133;  192,879; 2238,744;66,14579
1059,67; 1564,517;  218,340; 2239,437;66,60628
1060,21; 1498,363;  207,263; 2182,667;65,35879
1060,76; 1505,056;  224,110; 2173,360;65,71482
1061,30; 1504,056;  220,956; 2157,360;66,26200
1061,84; 1442,671;  214,110; 2104,975;64,97351
1062,38; 1424,363;  194,494; 2046,898;66,39315
1062,92; 1454,210;  237,879; 2090,129;65,66774
1063,46; 1430,210;  226,494; 2027,590;66,83238
1064,01; 1392,133;  205,648; 1999,898;66,12705
1064,55; 1386,287;  212,110; 1967,590;66,88634
1065,09; 1329,287;  172,494; 1919,667;66,20937
1065,63; 1367,210;  233,956; 1942,206;66,34005
1066,17; 1353,902;  232,648; 1925,744;66,22505
1066,71; 1341,594;  232,340; 1880,052;67,32088
1067,25; 1304,825;  202,648; 1842,590;67,20827
1067,80; 1314,671;  231,187; 1831,129;67,72023
1068,34; 1313,133;  229,187; 1823,744;67,97786
1068,88; 1248,748;  199,802; 1776,744;66,51773
1069,42; 1284,210;  237,033; 1794,206;67,24859
1069,96; 1231,363;  199,879; 1723,437;67,70237
1070,50; 1260,979;  234,879; 1744,590;67,96663
1071,04; 1205,363;  208,187; 1677,667;67,85913
1071,58; 1188,363;  211,879; 1670,898;66,92747
1072,12; 1168,902;  203,417; 1651,898;66,65498
1072,66; 1182,517;  209,494; 1662,744;66,95497
1073,21; 1194,210;  230,571; 1618,052;69,45238
1073,75; 1154,671;  222,340; 1624,590;66,48820
1074,29; 1140,748;  220,340; 1595,206;66,94530
1074,83; 1153,594;  237,956; 1584,898;67,97904
1075,37; 1126,363;  220,648; 1525,206;69,42701
1075,91; 1111,517;  225,263; 1536,975;67,56469
1076,45; 1103,825;  221,571; 1532,821;67,28342
1076,99; 1103,133;  227,340; 1488,513;69,44267
1077,53; 1053,133;  213,187; 1477,360;66,44234
1078,07; 1061,210;  218,494; 1461,975;67,77068
1078,61; 1048,363;  215,340; 1431,129;68,51711
1079,15; 1032,902;  223,110; 1401,744;68,70597
1079,69; 1026,517;  215,110; 1423,360;67,15561
1080,23; 1026,517;  230,802; 1400,437;68,03111
1080,77; 1054,748;  247,110; 1374,437;71,64190
1081,31;  991,594;  208,263; 1345,821;68,86075
1081,85; 1013,979;  219,725; 1349,513;70,30111
1082,39;  981,979;  207,033; 1318,283;69,73644
1082,93;  983,363;  215,417; 1299,590;70,83243
1083,47;  963,056;  203,187; 1299,898;69,28615
1084,01;  986,440;  227,725; 1284,667;71,78399
1084,55;  939,825;  211,879; 1258,283;69,56646
1085,09;  950,671;  228,802; 1244,206;71,09184
1085,63;  929,825;  217,340; 1250,052;68,99164
1086,17;  925,979;  214,340; 1222,129;70,61387
1086,71;  907,440;  203,956; 1194,975;70,98597
1087,24;  925,594;  242,110; 1208,744;70,70765
1087,78;  904,671;  215,033; 1189,898;70,74192
1088,32;  872,902;  206,187; 1150,206;70,62519
1088,86;  913,440;  231,725; 1173,283;72,40293
1089,40;  880,902;  212,648; 1142,667;71,85377
1089,94;  848,056;  196,110; 1116,667;70,82078
1090,48;  861,287;  216,417; 1111,821;72,01993
1091,02;  866,440;  221,879; 1088,821;74,34884
1091,56;  850,133;  236,417; 1115,667;69,79987
1092,10;  814,210;  198,494; 1079,744;69,86841
1092,63;  830,671;  236,417; 1072,821;71,04867
1093,17;  815,287;  227,725; 1065,206;70,15821
1093,71;  807,671;  210,571; 1034,283;72,48897
1094,25;  806,671;  230,187; 1041,667;71,04107
1094,79;  787,825;  216,648; 1032,667;69,99552
1095,33;  770,671;  208,648; 1000,052;71,01596
1095,87;  775,902;  225,571;  995,898;71,44120
1096,40;  757,133;  197,340;  986,206;70,96170
1096,94;  743,979;  214,802;  973,667;69,73265
1097,48;  755,133;  221,110;  965,206;71,76802
1098,02;  738,056;  211,956;  937,975;72,46365
1098,56;  716,056;  190,187;  920,129;72,04257
1099,10;  713,363;  191,802;  920,206;71,60335
1099,63;  712,902;  195,725;  910,821;72,32271
1100,17;  714,133;  220,648;  901,206;72,51180
1100,71;  729,133;  228,340;  913,590;73,08169

