
Integration time [ms]: 120,000
Averaging Nr. [scans]: 13
Smoothing Nr. [pixels]: 0
Data measured with spectrometer [name]: 2009305U1
Wave   ;Sample   ;Dark     ;Reference;Reflectance
[nm]   ;[counts] ;[counts] ;[counts] ;[%]

 175,72;  198,926;  198,725;  209,729; 1,82685
 176,32;  231,018;  233,791;  221,495; 0,00000
 176,92;  256,940;  251,952;  246,144; 0,00000
 177,52;  260,886;  249,569;  261,381;95,80771
 178,12;  223,185;  210,945;  220,620;126,50995
 178,72;  255,569;  248,635;  250,038;494,09294
 179,32;  254,912;  255,406;  241,911; 0,00000
 179,92;  254,233;  255,641;  248,129; 0,00000
 180,52;  236,954;  233,115;  240,492;52,04113
 181,12;  257,279;  249,103;  245,056; 0,00000
 181,73;  267,548;  265,873;  272,598;24,89646
 182,33;  351,081;  349,879;  341,303; 0,00000
 182,93;  265,769;  259,492;  262,580;203,23254
 183,53;  228,620;  241,402;  230,123; 0,00000
 184,13;  241,327;  231,942;  223,284; 0,00000
 184,73;  280,183;  262,785;  270,840;215,99420
 185,33;  255,025;  235,800;  340,235;18,40782
 185,93;  265,850;  233,331;  341,231;30,13794
 186,53;  282,988;  252,412;  358,480;28,82656
 187,13;  313,476;  259,651;  408,456;36,17157
 187,73;  276,544;  235,102;  356,651;34,09484
 188,33;  276,366;  242,097;  355,217;30,29404
 188,93;  278,303;  252,084;  372,324;21,80553
 189,53;  287,090;  250,458;  375,462;29,30492
 190,13;  317,503;  288,441;  393,447;27,67660
 190,73;  278,208;  221,607;  354,699;42,52789
 191,34;  293,897;  261,772;  383,107;26,47643
 191,94;  268,156;  243,170;  355,212;22,30048
 192,54;  292,423;  244,657;  378,976;35,56168
 193,14;  290,093;  261,650;  386,945;22,70081
 193,74;  279,800;  256,803;  371,292;20,08639
 194,34;  275,632;  254,345;  379,723;16,97822
 194,94;  244,284;  215,650;  345,606;22,03354
 195,54;  231,163;  198,339;  325,621;25,78817
 196,14;  243,573;  226,731;  350,792;13,57546
 196,74;  234,702;  216,030;  338,690;15,22250
 197,34;  231,471;  203,967;  338,400;20,45925
 197,94;  255,421;  224,267;  375,503;20,59956
 198,54;  268,928;  232,346;  384,669;24,01609
 199,14;  238,586;  223,046;  367,104;10,78683
 199,74;  225,703;  202,354;  368,520;14,05120
 200,34;  246,521;  194,509;  366,971;30,15839
 200,94;  265,939;  234,889;  406,748;18,06710
 201,54;  245,120;  216,814;  407,160;14,87056
 202,14;  276,784;  240,665;  454,320;16,90514
 202,74;  268,843;  228,200;  447,857;18,50278
 203,34;  236,579;  181,976;  463,089;19,42367
 203,94;  214,753;  166,204;  459,631;16,54539
 204,54;  288,149;  236,729;  542,983;16,78982
 205,14;  251,326;  194,585;  536,212;16,60901
 205,74;  300,114;  237,668;  639,180;15,55268
 206,34;  260,407;  204,050;  630,780;13,20675
 206,94;  276,010;  210,433;  685,452;13,80515
 207,54;  251,855;  177,588;  721,425;13,65610
 208,14;  276,721;  208,358;  795,906;11,63526
 208,74;  281,927;  208,200;  848,241;11,51918
 209,34;  277,764;  207,355;  912,599; 9,98370
 209,94;  303,655;  216,431; 1015,259;10,91896
 210,54;  311,916;  207,205; 1109,050;11,61071
 211,14;  329,729;  214,662; 1195,427;11,73238
 211,73;  334,546;  208,506; 1299,988;11,54760
 212,33;  355,514;  222,812; 1397,255;11,29918
 212,93;  346,309;  208,738; 1479,640;10,82467
 213,53;  323,198;  184,046; 1538,349;10,27480
 214,13;  380,097;  193,748; 1630,932;12,96624
 214,73;  348,245;  179,434; 1625,550;11,67340
 215,33;  327,347;  163,585; 1674,567;10,83813
 215,93;  372,360;  208,899; 1774,717;10,43938
 216,53;  334,661;  168,430; 1832,838; 9,98741
 217,13;  406,850;  229,436; 2022,497; 9,89445
 217,73;  431,671;  197,822; 2208,241;11,63185
 218,33;  398,934;  156,057; 2364,675;10,99678
 218,93;  470,400;  181,834; 2630,757;11,78340
 219,53;  488,897;  180,903; 2889,476;11,37107
 220,13;  483,164;  168,059; 3125,529;10,65456
 220,73;  547,427;  190,893; 3430,322;11,00608
 221,32;  574,466;  184,508; 3811,856;10,75050
 221,92;  625,092;  193,366; 4182,543;10,82243
 222,52;  638,223;  172,284; 4562,289;10,61364
 223,12;  671,420;  184,900; 4945,153;10,22047
 223,72;  724,076;  200,285; 5311,646;10,24758
 224,32;  749,100;  192,747; 5676,679;10,14516
 224,92;  751,042;  183,362; 5950,894; 9,84268
 225,52;  796,281;  207,356; 6276,099; 9,70423
 226,12;  795,781;  187,051; 6571,650; 9,53434
 226,72;  801,111;  160,666; 6841,878; 9,58576
 227,31;  833,514;  156,666; 7219,939; 9,58264
 227,91;  856,129;  190,894; 7541,280; 9,05034
 228,51;  867,062;  186,812; 7911,520; 8,80615
 229,11;  905,021;  181,820; 8271,138; 8,94020
 229,71;  917,364;  176,122; 8541,977; 8,86032
 230,31;  935,232;  169,748; 8933,640; 8,73452
 230,91;  958,316;  158,502; 9183,125; 8,86257
 231,51;  968,843;  167,360; 9538,918; 8,55229
 232,10;  981,531;  169,980; 9825,075; 8,40541
 232,70; 1025,632;  177,422;10037,261; 8,60268
 233,30; 1070,856;  204,206;10330,930; 8,55805
 233,90; 1054,951;  173,898;10431,145; 8,58957
 234,50; 1063,199;  173,514;10561,102; 8,56488
 235,10; 1059,657;  170,439;10679,048; 8,46181
 235,70; 1107,983;  196,355;10707,048; 8,67333
 236,29; 1117,818;  189,507;10660,055; 8,86593
 236,89; 1094,139;  164,349;10563,896; 8,94067
 237,49; 1146,367;  187,436;10546,988; 9,25649
 238,09; 1129,099;  169,434;10299,934; 9,47303
 238,69; 1181,305;  199,577;10085,824; 9,93024
 239,29; 1142,745;  173,126; 9816,008;10,05529
 239,89; 1164,120;  193,964; 9557,989;10,36046
 240,48; 1151,887;  169,819; 9189,380;10,88820
 241,08; 1177,029;  173,895; 8870,359;11,53496
 241,68; 1207,131;  202,973; 8542,428;12,04106
 242,28; 1208,611;  173,206; 8296,267;12,74650
 242,88; 1245,829;  210,364; 8015,271;13,26685
 243,48; 1282,404;  214,359; 7813,649;14,05453
 244,07; 1297,224;  190,279; 7524,495;15,09289
 244,67; 1328,185;  193,589; 7335,200;15,88712
 245,27; 1382,315;  198,121; 7224,988;16,85237
 245,87; 1435,475;  202,978; 7137,422;17,77355
 246,47; 1478,604;  186,737; 7152,619;18,54564
 247,06; 1546,947;  178,433; 7115,577;19,72734
 247,66; 1584,431;  190,742; 7171,967;19,96339
 248,26; 1687,852;  211,199; 7383,422;20,58850
 248,86; 1790,069;  187,583; 7554,528;21,75238
 249,46; 1855,650;  151,745; 7751,040;22,42188
 250,05; 2016,884;  205,203; 8059,625;23,06574
 250,65; 2134,577;  156,351; 8391,138;24,02279
 251,25; 2285,670;  175,510; 8846,420;24,33609
 251,85; 2457,571;  188,657; 9377,235;24,69277
 252,44; 2641,177;  152,046;10031,610;25,19474
 253,04; 2915,043;  201,662;10746,245;25,73246
 253,64; 3060,578;  153,197;11314,012;26,04991
 254,24; 3405,459;  191,741;12220,363;26,71726
 254,84; 3626,111;  166,745;13137,194;26,67114
 255,43; 3894,440;  180,354;13986,565;26,90156
 256,03; 4206,929;  179,120;14914,490;27,33429
 256,63; 4488,080;  182,657;15992,265;27,23295
 257,23; 4719,651;  178,195;16766,067;27,37817
 257,82; 5002,893;  187,423;17744,651;27,42728
 258,42; 5176,941;  152,113;18540,057;27,32675
 259,02; 5463,743;  195,508;19439,475;27,37603
 259,62; 5670,603;  174,574;20014,745;27,70152
 260,21; 5777,898;  187,584;20539,271;27,46855
 260,81; 5885,085;  174,128;20993,664;27,43076
 261,41; 5983,675;  166,037;21535,894;27,22357
 262,01; 6109,327;  206,264;21932,846;27,16977
 262,60; 6134,497;  161,657;22263,375;27,02433
 263,20; 6220,631;  174,198;22619,064;26,93905
 263,80; 6207,797;  197,880;22817,691;26,56926
 264,40; 6175,989;  155,342;23010,849;26,34222
 264,99; 6199,061;  195,802;23187,520;26,11053
 265,59; 6199,490;  168,336;23290,435;26,08394
 266,19; 6108,375;  175,572;23408,876;25,53577
 266,78; 6114,125;  207,185;23564,540;25,28942
 267,38; 5992,828;  185,875;23535,671;24,86939
 267,98; 5950,589;  178,493;23588,757;24,65626
 268,58; 5879,154;  189,029;23610,424;24,29456
 269,17; 5800,796;  178,179;23588,237;24,01796
 269,77; 5673,010;  192,578;23479,767;23,53410
 270,37; 5548,223;  161,110;23253,673;23,32835
 270,96; 5498,787;  219,115;23179,220;22,99498
 271,56; 5314,022;  181,041;22949,788;22,54397
 272,16; 5190,353;  181,652;22839,153;22,10615
 272,75; 5126,385;  179,345;22647,263;22,01824
 273,35; 5015,782;  185,962;22752,668;21,40242
 273,95; 4910,656;  182,345;22634,525;21,05947
 274,54; 4838,276;  162,280;22661,239;20,78317
 275,14; 4898,448;  199,500;23009,838;20,60008
 275,74; 4758,287;  157,729;22979,523;20,15861
 276,33; 4814,768;  206,040;23339,167;19,92263
 276,93; 4818,076;  185,666;23789,475;19,62569
 277,53; 4848,397;  184,200;24196,394;19,42428
 278,12; 4870,763;  159,196;24656,393;19,23309
 278,72; 5002,324;  210,968;25209,099;19,16686
 279,32; 4978,252;  177,353;25795,343;18,74034
 279,91; 5048,145;  173,275;26468,338;18,53911
 280,51; 5156,217;  180,661;27006,795;18,54742
 281,11; 5265,778;  181,582;27679,169;18,48961
 281,70; 5270,926;  155,889;28143,812;18,27587
 282,30; 5321,483;  175,887;28664,557;18,06190
 282,90; 5452,088;  184,733;29140,880;18,19080
 283,49; 5496,437;  191,654;29639,315;18,01428
 284,09; 5610,711;  209,735;30013,118;18,12202
 284,69; 5700,355;  208,352;30383,634;18,20034
 285,28; 5729,286;  198,581;30659,164;18,15693
 285,88; 5800,573;  234,268;31004,553;18,08987
 286,47; 5849,740;  178,656;30948,156;18,43086
 287,07; 5884,904;  220,122;30971,081;18,42148
 287,67; 5998,788;  205,282;31249,572;18,66207
 288,26; 6028,652;  173,583;31154,111;18,89919
 288,86; 6154,491;  177,427;31163,873;19,28928
 289,46; 6268,994;  194,890;31354,786;19,49334
 290,05; 6425,938;  176,971;31383,773;20,02437
 290,65; 6504,657;  191,425;31591,261;20,10594
 291,24; 6711,083;  197,814;31745,730;20,64564
 291,84; 6892,311;  198,734;31851,188;21,14710
 292,44; 7008,871;  193,513;31994,544;21,43125
 293,03; 7249,361;  249,968;32153,222;21,93943
 293,63; 7300,260;  186,964;32285,480;22,16083
 294,22; 7472,192;  208,736;32427,446;22,54422
 294,82; 7508,655;  179,111;32457,635;22,70718
 295,41; 7505,311;  168,197;32179,428;22,92044
 296,01; 7573,875;  220,882;32137,119;23,03841
 296,61; 7613,244;  209,660;31938,498;23,33393
 297,20; 7491,408;  198,652;31498,260;23,29983
 297,80; 7508,632;  189,818;31371,885;23,47123
 298,39; 7391,186;  168,349;31012,542;23,41717
 298,99; 7409,153;  196,577;30953,082;23,45057
 299,58; 7352,530;  210,666;30637,168;23,47251
 300,18; 7287,432;  218,664;30536,651;23,31543
 300,78; 7148,037;  187,969;30175,812;23,20963
 301,37; 7101,158;  210,801;30210,608;22,96800
 301,97; 7105,781;  192,736;30210,385;23,02994
 302,56; 6999,342;  180,117;30097,031;22,79388
 303,16; 6947,590;  178,501;30021,826;22,68209
 303,75; 6933,958;  188,816;30056,938;22,58308
 304,35; 6949,889;  181,592;30296,229;22,47511
 304,94; 6914,755;  192,275;30223,710;22,38481
 305,54; 6893,312;  202,738;30212,702;22,29451
 306,13; 6812,537;  162,515;30220,877;22,12370
 306,73; 6712,168;  171,667;29981,020;21,94110
 307,33; 6654,573;  197,897;30003,878;21,66235
 307,92; 6707,958;  200,276;30009,930;21,83079
 308,52; 6694,327;  164,039;30460,332;21,55474
 309,11; 6741,158;  184,805;30865,317;21,36976
 309,71; 6771,280;  165,957;31097,892;21,35438
 310,30; 6798,464;  168,199;31341,744;21,26889
 310,90; 6882,541;  214,660;31732,359;21,15599
 311,49; 6832,374;  187,198;31844,388;20,99105
 312,09; 6818,106;  150,125;31981,436;20,94787
 312,68; 6938,660;  221,508;32445,118;20,84544
 313,28; 6877,804;  164,968;32508,776;20,75463
 313,87; 6856,923;  155,737;32612,835;20,64629
 314,47; 6894,899;  179,883;32880,460;20,53486
 315,06; 6898,720;  164,892;33020,392;20,49528
 315,66; 6871,336;  163,895;33161,590;20,32700
 316,25; 6829,834;  153,271;33134,720;20,24339
 316,85; 6813,098;  150,895;33146,514;20,19117
 317,44; 6835,296;  168,882;33320,627;20,10879
 318,04; 6794,839;  157,041;33358,819;19,99230
 318,63; 6808,890;  156,129;33413,451;20,00390
 319,22; 6784,819;  181,886;33687,260;19,70708
 319,82; 6768,342;  176,965;33726,732;19,64656
 320,41; 6720,313;  188,887;33581,370;19,55957
 321,01; 6753,513;  194,740;33730,664;19,55745
 321,60; 6743,623;  183,350;33856,364;19,48229
 322,20; 6685,855;  167,276;33758,639;19,40552
 322,79; 6696,518;  207,430;33929,362;19,24293
 323,39; 6680,191;  173,438;34018,334;19,22521
 323,98; 6640,081;  164,200;33942,472;19,17174
 324,58; 6583,817;  173,116;33789,917;19,06993
 325,17; 6624,068;  185,502;33722,475;19,19841
 325,76; 6582,055;  194,121;33481,634;19,19018
 326,36; 6491,118;  166,894;33169,218;19,16297
 326,95; 6446,271;  201,197;32821,858;19,14454
 327,55; 6364,320;  172,273;32580,839;19,10621
 328,14; 6277,088;  161,050;32147,564;19,12068
 328,74; 6241,610;  198,502;31792,923;19,12714
 329,33; 6145,558;  195,278;31370,401;19,08663
 329,92; 6040,439;  154,959;30887,103;19,15089
 330,52; 5971,073;  189,204;30203,412;19,26377
 331,11; 5863,575;  187,197;29806,103;19,16472
 331,71; 5787,683;  178,967;29282,569;19,27155
 332,30; 5719,524;  195,506;28842,479;19,28308
 332,89; 5687,544;  236,124;28405,815;19,35208
 333,49; 5517,146;  194,351;27811,673;19,27339
 334,08; 5459,983;  177,196;27493,100;19,33960
 334,68; 5360,994;  192,581;27000,316;19,27956
 335,27; 5312,544;  191,512;26650,986;19,35425
 335,86; 5348,499;  222,889;26456,564;19,53828
 336,46; 5257,748;  194,436;26199,541;19,47046
 337,05; 5232,209;  176,966;26018,241;19,56267
 337,65; 5228,792;  160,811;25875,670;19,70838
 338,24; 5300,763;  224,123;25891,948;19,77822
 338,83; 5277,784;  200,738;25754,918;19,86777
 339,43; 5287,731;  173,348;25758,583;19,98959
 340,02; 5273,033;  175,578;25570,534;20,07271
 340,61; 5316,383;  177,122;25648,038;20,17698
 341,21; 5347,610;  210,963;25690,769;20,15968
 341,80; 5399,002;  189,657;25615,084;20,48872
 342,40; 5419,325;  180,589;25697,459;20,53048
 342,99; 5491,083;  179,355;25775,661;20,75193
 343,58; 5544,635;  181,355;25977,863;20,79072
 344,18; 5610,630;  197,971;26092,927;20,90237
 344,77; 5702,099;  165,732;26394,318;21,10814
 345,36; 5779,578;  166,658;26652,242;21,19236
 345,96; 5952,924;  207,432;26959,571;21,47676
 346,55; 6015,780;  170,207;27168,889;21,65133
 347,14; 6167,028;  163,435;27487,598;21,97174
 347,74; 6282,320;  144,827;27869,864;22,13700
 348,33; 6496,244;  178,596;28420,892;22,36946
 348,92; 6679,010;  181,599;29109,307;22,46086
 349,52; 6837,936;  159,597;29486,131;22,77234
 350,11; 6965,719;  177,654;29780,485;22,93046
 350,70; 6989,757;  172,122;29801,438;23,00976
 351,29; 7005,451;  170,031;29587,678;23,23578
 351,89; 7093,052;  198,574;29521,502;23,51224
 352,48; 7129,900;  154,891;29577,683;23,70614
 353,07; 7192,565;  190,436;29611,494;23,79972
 353,67; 7222,189;  195,061;29508,263;23,97257
 354,26; 7247,904;  186,127;29303,183;24,25306
 354,85; 7247,109;  183,049;29206,884;24,33882
 355,45; 7281,794;  160,580;28976,851;24,71248
 356,04; 7337,868;  177,667;28863,558;24,96071
 356,63; 7370,475;  201,736;28756,951;25,10484
 357,22; 7377,751;  182,033;28529,688;25,38382
 357,82; 7406,941;  178,573;28303,126;25,70127
 358,41; 7467,821;  197,198;28225,802;25,94001
 359,00; 7459,453;  169,194;28039,475;26,15782
 359,60; 7538,734;  190,200;27965,671;26,45692
 360,19; 7561,442;  189,283;27739,961;26,75854
 360,78; 7586,119;  188,811;27658,808;26,92868
 361,37; 7623,005;  176,735;27434,916;27,31756
 361,97; 7630,240;  189,428;27383,861;27,36153
 362,56; 7635,111;  173,116;27056,561;27,75684
 363,15; 7655,471;  215,273;26861,468;27,92218
 363,74; 7626,738;  191,806;26488,153;28,27363
 364,34; 7642,768;  201,425;26092,628;28,74082
 364,93; 7527,442;  181,423;25766,867;28,71171
 365,52; 7522,499;  158,350;25396,410;29,17874
 366,11; 7521,790;  179,348;25099,599;29,46376
 366,71; 7455,280;  171,271;24664,030;29,73944
 367,30; 7447,058;  181,274;24351,150;30,06132
 367,89; 7496,809;  218,356;24117,806;30,45448
 368,48; 7446,818;  193,114;23831,370;30,68629
 369,07; 7377,064;  180,045;23481,745;30,88624
 369,67; 7395,421;  211,038;23145,589;31,32559
 370,26; 7310,375;  176,584;22904,962;31,38715
 370,85; 7337,854;  189,581;22579,595;31,92617
 371,44; 7313,988;  185,197;22472,583;31,98576
 372,03; 7335,720;  164,425;22167,136;32,59278
 372,63; 7273,417;  157,812;21893,705;32,73666
 373,22; 7267,358;  178,276;21618,236;33,06481
 373,81; 7233,209;  160,581;21348,164;33,38101
 374,40; 7217,887;  189,357;21109,918;33,59628
 374,99; 7209,863;  173,119;20805,236;34,10578
 375,59; 7199,430;  172,818;20548,239;34,48573
 376,18; 7264,896;  201,657;20421,884;34,93155
 376,77; 7250,185;  195,044;20284,216;35,11912
 377,36; 7258,997;  210,812;20218,225;35,22787
 377,95; 7252,822;  197,579;19936,400;35,74298
 378,55; 7264,821;  170,740;19722,664;36,28329
 379,14; 7307,275;  197,196;19652,640;36,54545
 379,73; 7329,748;  190,195;19586,848;36,80817
 380,32; 7460,885;  193,428;19698,446;37,25942
 380,91; 7414,370;  180,730;19479,572;37,48225
 381,50; 7480,459;  201,731;19462,208;37,79101
 382,10; 7473,346;  173,582;19341,830;38,08258
 382,69; 7564,880;  153,196;19281,655;38,74690
 383,28; 7648,370;  205,655;19266,811;39,04650
 383,87; 7589,542;  175,116;19108,719;39,16014
 384,46; 7668,666;  165,112;19057,158;39,71806
 385,05; 7721,968;  219,270;19032,316;39,88030
 385,64; 7816,174;  181,194;19079,829;40,39964
 386,24; 7803,586;  165,265;19008,018;40,53718
 386,83; 7933,723;  200,649;19082,215;40,95568
 387,42; 8054,485;  206,964;19161,969;41,40079
 388,01; 8186,852;  193,645;19331,088;41,76737
 388,60; 8352,298;  194,266;19613,654;42,00973
 389,19; 8466,055;  170,485;19711,863;42,45130
 389,78; 8648,491;  180,564;20001,915;42,72124
 390,37; 8950,591;  238,340;20408,716;43,19330
 390,96; 9018,458;  193,188;20570,771;43,30872
 391,56; 9150,641;  191,407;20731,732;43,61778
 392,15; 9350,618;  188,103;21012,597;43,99874
 392,74; 9457,891;  164,630;21139,528;44,30659
 393,33; 9654,874;  186,714;21382,297;44,67044
 393,92; 9909,419;  192,780;21783,988;45,00276
 394,51;10039,438;  170,175;21988,050;45,23476
 395,10;10210,124;  212,461;22189,538;45,49132
 395,69;10391,007;  206,155;22317,361;46,06194
 396,28;10483,312;  205,150;22429,043;46,24825
 396,87;10612,699;  208,293;22506,720;46,65982
 397,46;10691,006;  212,979;22584,582;46,83628
 398,06;10837,277;  224,355;22908,699;46,78523
 398,65;10925,790;  211,721;22862,365;47,30139
 399,24;11070,743;  227,025;23077,241;47,45565
 399,83;11081,423;  208,688;23078,877;47,54108
 400,42;11271,599;  248,124;23183,898;48,06236
 401,01;11370,819;  221,325;23296,255;48,31865
 401,60;11459,663;  244,208;23371,456;48,49455
 402,19;11482,438;  257,022;23296,956;48,72156
 402,78;11533,465;  257,588;23374,469;48,77768
 403,37;11527,510;  233,156;23158,178;49,26649
 403,96;11534,703;  244,024;23048,728;49,51031
 404,55;11531,627;  262,271;22963,326;49,64244
 405,14;11451,477;  238,215;22846,319;49,59842
 405,73;11447,622;  260,611;22788,222;49,65911
 406,32;11504,525;  259,029;22622,115;50,28598
 406,91;11316,203;  257,594;22411,638;49,91689
 407,50;11335,474;  264,260;22245,873;50,36579
 408,09;11290,814;  226,473;21951,682;50,92858
 408,68;11239,314;  254,536;21879,207;50,79743
 409,27;11189,824;  246,476;21712,453;50,97997
 409,86;11219,220;  256,439;21553,202;51,47628
 410,45;11246,227;  293,934;21550,876;51,52337
 411,04;11230,107;  292,352;21485,723;51,60932
 411,63;11111,940;  286,935;21190,695;51,78497
 412,22;11030,778;  280,668;20981,662;51,93041
 412,81;10948,683;  302,989;20780,234;51,98792
 413,40;10830,659;  310,469;20416,348;52,32395
 413,99;10713,294;  342,848;20183,307;52,26918
 414,58;10457,264;  277,159;19746,662;52,28744
 415,17;10416,184;  279,605;19575,189;52,53316
 415,76;10319,148;  270,666;19419,040;52,47694
 416,35;10228,845;  276,443;19110,200;52,84343
 416,94;10249,049;  310,670;19268,010;52,42497
 417,53;10445,764;  280,221;19408,256;53,14473
 418,12;10479,734;  269,533;19521,995;53,03322
 418,71;10683,837;  298,316;19861,765;53,08635
 419,30;10795,028;  287,073;20065,109;53,12942
 419,89;10835,109;  272,460;20163,447;53,10269
 420,48;11058,291;  294,085;20362,535;53,63746
 421,07;11113,054;  290,165;20498,503;53,55655
 421,66;11118,208;  266,558;20466,188;53,72202
 422,25;11134,149;  271,189;20540,583;53,59292
 422,84;11123,780;  299,962;20440,598;53,74119
 423,43;10997,007;  287,647;20178,320;53,84111
 424,02;10925,923;  302,727;19996,442;53,94206
 424,60;10755,524;  280,439;19584,206;54,26446
 425,19;10530,182;  296,044;19327,453;53,77499
 425,78;10516,308;  293,661;19228,750;53,98785
 426,37;10434,081;  300,437;19061,951;54,01294
 426,96;10336,660;  276,206;18925,136;53,94655
 427,55;10304,424;  275,294;18888,508;53,88178
 428,14;10159,887;  267,837;18586,022;54,00126
 428,73;10052,785;  288,366;18469,381;53,70667
 429,32;10039,849;  285,513;18413,992;53,80670
 429,91;10051,117;  320,982;18460,799;53,63965
 430,50; 9951,453;  300,065;18279,640;53,67974
 431,08; 9898,885;  307,455;18121,157;53,84299
 431,67; 9869,669;  330,460;18059,181;53,80653
 432,26; 9757,113;  352,773;17866,633;53,69656
 432,85; 9602,809;  372,079;17525,688;53,81217
 433,44; 9377,855;  388,471;17227,983;53,38269
 434,03; 9192,486;  402,711;16826,982;53,51699
 434,62; 8968,909;  359,087;16459,216;53,47673
 435,21; 8826,202;  365,618;16298,030;53,10297
 435,79; 8770,025;  376,323;16109,888;53,34902
 436,38; 8670,221;  368,410;15986,717;53,15436
 436,97; 8653,072;  351,796;15943,277;53,24238
 437,56; 8512,202;  366,118;15775,296;52,86514
 438,15; 8406,529;  330,960;15658,418;52,68694
 438,74; 8391,159;  358,116;15673,578;52,45055
 439,33; 8370,226;  334,421;15641,739;52,49649
 439,91; 8377,091;  308,120;15728,245;52,32753
 440,50; 8363,079;  353,275;15720,771;52,12172
 441,09; 8441,105;  352,437;15858,362;52,16502
 441,68; 8325,857;  330,291;15871,755;51,44667
 442,27; 8326,560;  309,595;15870,416;51,52019
 442,86; 8325,383;  286,691;15851,837;51,64546
 443,44; 8296,383;  306,610;15894,282;51,25700
 444,03; 8380,213;  376,999;16005,300;51,20975
 444,62; 8201,261;  300,075;15815,177;50,92577
 445,21; 8112,277;  324,227;15685,782;50,69831
 445,80; 8050,043;  356,622;15621,797;50,39851
 446,39; 7990,900;  367,697;15356,081;50,86074
 446,97; 7792,228;  300,708;15192,640;50,30590
 447,56; 7683,661;  305,024;14946,971;50,39382
 448,15; 7539,082;  323,939;14810,409;49,80608
 448,74; 7443,699;  331,940;14558,368;49,98977
 449,33; 7327,895;  323,946;14452,718;49,57224
 449,91; 7214,467;  318,033;14243,239;49,52483
 450,50; 7072,889;  307,954;13988,738;49,44845
 451,09; 7019,978;  335,493;13900,297;49,27815
 451,68; 6923,626;  356,497;13844,731;48,68783
 452,26; 6918,199;  340,040;13735,304;49,10809
 452,85; 6779,431;  319,499;13610,323;48,60445
 453,44; 6786,085;  341,974;13683,567;48,30091
 454,03; 6726,805;  314,351;13625,594;48,17322
 454,61; 6623,893;  311,590;13609,495;47,46840
 455,20; 6762,063;  338,979;13743,391;47,91768
 455,79; 6696,098;  348,740;13741,725;47,39315
 456,38; 6701,704;  342,063;13817,793;47,19329
 456,97; 6695,518;  330,061;13863,829;47,03388
 457,55; 6626,162;  329,759;13876,516;46,47904
 458,14; 6655,683;  356,290;13890,729;46,54343
 458,73; 6550,662;  341,529;13835,213;46,01511
 459,31; 6545,974;  366,306;13850,064;45,83046
 459,90; 6568,757;  383,302;13974,214;45,51170
 460,49; 6594,645;  420,299;14008,495;45,43904
 461,08; 6532,563;  340,310;14107,021;44,97990
 461,66; 6597,759;  341,306;14143,370;45,32984
 462,25; 6555,321;  349,006;14205,437;44,79014
 462,84; 6585,294;  376,465;14250,179;44,75247
 463,43; 6469,537;  301,938;14247,046;44,22769
 464,01; 6488,807;  339,172;14309,864;44,01812
 464,60; 6449,064;  396,704;14200,171;43,84666
 465,19; 6257,495;  339,251;13997,782;43,33001
 465,77; 6186,530;  340,871;13977,125;42,86851
 466,36; 6137,335;  371,245;13839,631;42,81204
 466,95; 5980,077;  353,477;13528,774;42,70568
 467,53; 5835,157;  350,645;13289,085;42,38928
 468,12; 5702,813;  372,646;13030,152;42,11072
 468,71; 5542,207;  349,714;12788,109;41,74568
 469,29; 5424,921;  337,032;12597,465;41,49844
 469,88; 5280,111;  341,805;12287,066;41,34114
 470,47; 5317,158;  410,505;12431,822;40,81627
 471,06; 5232,249;  365,120;12397,793;40,44927
 471,64; 5230,092;  375,118;12462,030;40,16720
 472,23; 5181,043;  332,518;12524,681;39,76755
 472,81; 5171,336;  330,972;12651,188;39,28798
 473,40; 5179,123;  343,056;12714,206;39,09149
 473,99; 5314,489;  441,364;12943,375;38,97873
 474,57; 5277,109;  349,979;13036,466;38,83762
 475,16; 5303,256;  370,204;13165,595;38,55335
 475,75; 5319,060;  376,600;13294,845;38,25954
 476,33; 5326,121;  383,837;13411,872;37,93576
 476,92; 5319,021;  386,288;13452,566;37,75163
 477,51; 5257,017;  371,757;13544,460;37,08624
 478,09; 5263,288;  368,526;13511,952;37,24114
 478,68; 5202,975;  375,529;13454,486;36,91002
 479,27; 5210,122;  407,139;13495,077;36,69778
 479,85; 5143,298;  381,605;13495,561;36,31012
 480,44; 5125,886;  364,993;13660,405;35,80854
 481,02; 5532,765;  382,306;14973,490;35,29843
 481,61; 6138,367;  404,380;16859,203;34,84684
 482,20; 6502,911;  382,844;18027,106;34,68588
 482,78; 6686,009;  415,453;18824,862;34,06169
 483,37; 6863,982;  404,160;19388,819;34,02654
 483,95; 6928,210;  414,546;19540,072;34,05744
 484,54; 6956,482;  429,918;19769,660;33,74690
 485,13; 6849,584;  405,860;19637,609;33,50566
 485,71; 6780,820;  383,088;19561,922;33,35829
 486,30; 6672,937;  414,396;19225,799;33,26993
 486,88; 6556,080;  453,937;18897,130;33,08615
 487,47; 6286,453;  439,784;18158,769;32,99664
 488,05; 5955,608;  423,480;17350,736;32,68178
 488,64; 5505,574;  419,870;16087,163;32,46064
 489,23; 4924,865;  438,174;14340,035;32,27403
 489,81; 4175,913;  428,406;12265,536;31,65891
 490,40; 3890,137;  387,177;11679,649;31,02031
 490,98; 3802,260;  377,333;11388,277;31,10475
 491,57; 3761,047;  389,405;11305,362;30,88727
 492,15; 3661,309;  379,719;11271,497;30,12906
 492,74; 3617,508;  391,249;11185,046;29,88994
 493,32; 3599,620;  401,179;11096,090;29,90620
 493,91; 3546,676;  371,029;10997,172;29,88523
 494,50; 3503,804;  396,040;10987,804;29,34133
 495,08; 3425,087;  367,578;10899,848;29,02992
 495,67; 3418,176;  393,490;10870,398;28,87003
 496,25; 3329,325;  329,188;10741,795;28,81254
 496,84; 3343,950;  352,951;10758,565;28,74409
 497,42; 3303,606;  346,344;10738,589;28,45643
 498,01; 3271,955;  371,414;10640,741;28,24470
 498,59; 3197,260;  337,653;10625,516;27,79593
 499,18; 3162,664;  341,722;10495,159;27,78312
 499,76; 3119,933;  361,958;10446,642;27,34815
 500,35; 3058,784;  344,581;10305,032;27,24980
 500,93; 3017,592;  327,267;10285,849;27,01515
 501,52; 2967,498;  332,883;10186,900;26,73646
 502,10; 2945,020;  357,201;10166,328;26,38175
 502,69; 2885,943;  332,974; 9938,653;26,57771
 503,27; 2813,664;  315,963; 9848,314;26,20236
 503,86; 2805,532;  333,818; 9763,892;26,21098
 504,44; 2728,877;  317,822; 9600,262;25,97437
 505,03; 2674,367;  297,206; 9442,846;25,99229
 505,61; 2609,246;  323,205; 9319,101;25,41204
 506,19; 2592,027;  353,052; 9155,045;25,43714
 506,78; 2490,897;  304,906; 8972,804;25,21939
 507,36; 2409,977;  317,744; 8825,028;24,59342
 507,95; 2396,106;  315,679; 8697,312;24,82126
 508,53; 2374,722;  315,444; 8551,911;25,00195
 509,12; 2305,526;  330,293; 8424,091;24,40428
 509,70; 2265,987;  337,141; 8297,561;24,23046
 510,29; 2219,642;  342,760; 8155,917;24,02207
 510,87; 2153,894;  312,906; 7973,279;24,03262
 511,46; 2103,363;  299,523; 7826,672;23,96446
 512,04; 2073,530;  312,219; 7675,583;23,91993
 512,62; 2014,865;  315,985; 7551,241;23,48058
 513,21; 1966,118;  298,068; 7394,888;23,50418
 513,79; 1919,770;  304,542; 7274,481;23,17421
 514,38; 1868,035;  278,384; 7111,677;23,26332
 514,96; 1888,220;  328,691; 7037,290;23,24672
 515,54; 1802,372;  293,309; 6884,424;22,89541
 516,13; 1764,659;  316,540; 6833,644;22,22029
 516,71; 1722,913;  308,699; 6687,051;22,17208
 517,30; 1691,361;  285,396; 6596,440;22,27786
 517,88; 1686,098;  311,780; 6533,254;22,08991
 518,46; 1640,313;  281,167; 6366,725;22,33396
 519,05; 1618,061;  310,247; 6315,772;21,77684
 519,63; 1596,090;  301,630; 6284,195;21,63721
 520,22; 1589,089;  318,330; 6201,767;21,59893
 520,80; 1552,721;  306,715; 6200,647;21,14049
 521,38; 1559,048;  338,325; 6179,452;20,89876
 521,97; 1509,084;  302,334; 6099,770;20,81524
 522,55; 1521,227;  319,257; 6071,093;20,89716
 523,13; 1491,236;  281,260; 6101,751;20,78821
 523,72; 1476,973;  296,397; 6063,462;20,47100
 524,30; 1551,933;  310,955; 6224,858;20,98407
 524,89; 1488,793;  285,719; 6213,573;20,29527
 525,47; 1544,054;  315,803; 6325,757;20,43694
 526,05; 1501,986;  278,958; 6353,561;20,13347
 526,64; 1549,373;  316,421; 6509,940;19,90714
 527,22; 1561,292;  310,033; 6629,372;19,80047
 527,80; 1597,330;  341,652; 6780,615;19,50126
 528,39; 1575,936;  301,808; 6769,289;19,70053
 528,97; 1598,507;  299,345; 6970,083;19,47554
 529,55; 1623,141;  317,491; 7159,382;19,08317
 530,14; 1693,562;  338,810; 7344,514;19,33784
 530,72; 1653,701;  298,422; 7454,499;18,93885
 531,30; 1679,964;  278,888; 7545,394;19,28129
 531,89; 1687,290;  310,657; 7640,840;18,78033
 532,47; 1752,597;  338,274; 7729,848;19,13426
 533,05; 1728,675;  343,267; 7796,815;18,58723
 533,63; 1729,848;  332,891; 7857,868;18,56427
 534,22; 1700,166;  304,506; 7869,622;18,44863
 534,80; 1747,335;  328,588; 7970,261;18,56592
 535,38; 1793,068;  410,504; 8060,182;18,07349
 535,97; 1712,311;  323,198; 8016,588;18,05594
 536,55; 1755,073;  368,974; 8064,957;18,01069
 537,13; 1718,074;  373,810; 8034,684;17,54714
 537,71; 1744,135;  417,348; 8098,650;17,27294
 538,30; 1756,118;  430,431; 8181,139;17,10408
 538,88; 1788,787;  465,362; 8229,021;17,04640
 539,46; 1844,709;  506,050; 8422,968;16,90884
 540,05; 1851,384;  525,283; 8532,797;16,56070
 540,63; 1897,896;  571,745; 8710,352;16,29457
 541,21; 1913,871;  617,364; 8894,721;15,66330
 541,79; 1934,966;  626,210; 9006,166;15,61770
 542,38; 1961,752;  656,437; 9154,071;15,36092
 542,96; 1984,404;  673,291; 9277,109;15,23874
 543,54; 2049,422;  681,055; 9495,579;15,52400
 544,12; 1998,342;  650,903; 9687,525;14,91087
 544,70; 2002,832;  649,214; 9723,665;14,91680
 545,29; 2059,898;  661,052; 9906,533;15,13005
 545,87; 2063,813;  639,902; 9891,628;15,39076
 546,45; 2030,719;  584,052; 9943,577;15,45664
 547,03; 2005,084;  577,285; 9993,574;15,16307
 547,62; 2020,819;  551,441;10139,292;15,32541
 548,20; 2066,417;  553,444;10248,429;15,60573
 548,78; 2036,054;  521,916;10419,246;15,29845
 549,36; 2076,620;  482,684;10605,949;15,74528
 549,94; 2047,775;  446,673;10779,283;15,49562
 550,53; 2114,400;  442,298;10983,233;15,86294
 551,11; 2101,354;  426,534;11153,871;15,61264
 551,69; 2160,002;  445,376;11457,040;15,57099
 552,27; 2161,482;  393,296;11683,084;15,66182
 552,85; 2196,929;  399,918;12082,685;15,38172
 553,44; 2247,240;  399,145;12322,039;15,50039
 554,02; 2319,306;  410,224;12702,216;15,53110
 554,60; 2315,034;  360,611;12983,243;15,48348
 555,18; 2406,331;  398,377;13365,010;15,48555
 555,76; 2441,259;  365,609;13720,647;15,54207
 556,34; 2514,622;  378,230;14113,353;15,55423
 556,93; 2548,469;  370,454;14482,627;15,43359
 557,51; 2593,028;  350,077;14769,016;15,55559
 558,09; 2622,228;  382,300;15199,180;15,11741
 558,67; 2722,216;  375,465;15515,784;15,50001
 559,25; 2715,388;  390,386;15819,991;15,06845
 559,83; 2772,137;  365,467;16095,458;15,29988
 560,41; 2786,263;  368,768;16443,224;15,03936
 561,00; 2869,736;  367,234;16785,108;15,24254
 561,58; 2878,663;  344,767;17004,453;15,20974
 562,16; 2920,826;  347,534;17336,702;15,14666
 562,74; 2920,548;  347,378;17721,201;14,81061
 563,32; 2993,866;  347,775;18125,965;14,88392
 563,90; 3052,168;  361,234;18462,138;14,86630
 564,48; 3100,672;  365,305;18914,710;14,74639
 565,06; 3210,719;  365,772;19433,227;14,92043
 565,65; 3301,390;  363,088;20044,403;14,92940
 566,23; 3416,131;  410,542;20815,016;14,73005
 566,81; 3481,348;  353,232;21434,806;14,83815
 567,39; 3640,486;  363,315;22300,678;14,93877
 567,97; 3705,233;  385,694;22920,733;14,73057
 568,55; 3842,863;  388,621;23740,671;14,79203
 569,13; 3893,383;  364,696;24467,832;14,63995
 569,71; 4035,094;  359,610;25327,132;14,72106
 570,29; 4205,169;  396,608;26245,011;14,73422
 570,87; 4319,535;  396,840;26985,343;14,75335
 571,45; 4381,828;  377,926;27601,029;14,70774
 572,03; 4400,132;  343,239;27961,222;14,68932
 572,61; 4514,102;  334,236;28658,824;14,75702
 573,20; 4611,493;  385,616;29390,848;14,56936
 573,78; 4704,742;  367,006;29875,934;14,69974
 574,36; 4788,199;  373,312;30441,759;14,68279
 574,94; 4841,701;  435,086;30797,227;14,51352
 575,52; 4838,068;  378,016;31008,304;14,56092
 576,10; 4968,810;  432,859;31624,738;14,54209
 576,68; 4991,737;  417,700;32064,698;14,45330
 577,26; 5119,212;  439,173;32824,747;14,45100
 577,84; 5183,194;  435,082;33311,515;14,44230
 578,42; 5248,518;  473,857;33478,651;14,46657
 579,00; 5184,002;  436,775;33635,442;14,29945
 579,58; 5232,386;  469,932;33937,228;14,23017
 580,16; 5189,845;  456,089;33933,363;14,14021
 580,74; 5201,101;  449,474;34083,319;14,12752
 581,32; 5176,183;  440,779;34167,862;14,04036
 581,90; 5218,007;  464,781;34101,747;14,13096
 582,48; 5223,490;  455,012;34282,332;14,09653
 583,06; 5227,283;  455,856;34362,937;14,07207
 583,64; 5263,489;  454,471;34531,442;14,11222
 584,22; 5205,322;  456,171;34396,463;13,99266
 584,80; 5188,232;  481,857;34079,390;14,00809
 585,38; 5123,513;  479,538;33694,321;13,98165
 585,96; 5079,329;  448,161;33857,462;13,86191
 586,54; 5099,002;  469,478;33797,750;13,89068
 587,12; 5082,410;  449,398;34103,124;13,76671
 587,70; 5097,046;  476,238;34127,726;13,73136
 588,28; 5109,985;  458,244;34244,785;13,76803
 588,86; 5133,836;  462,169;34299,191;13,80638
 589,44; 5104,975;  442,022;34369,330;13,74395
 590,02; 5154,081;  447,020;34636,214;13,76769
 590,59; 5137,702;  429,477;34723,288;13,72908
 591,17; 5156,653;  426,029;35011,854;13,67793
 591,75; 5154,416;  422,101;35141,481;13,63018
 592,33; 5221,790;  444,407;35301,180;13,70575
 592,91; 5221,894;  385,181;35532,062;13,76143
 593,49; 5281,371;  390,569;35894,385;13,77543
 594,07; 5303,455;  415,030;36051,230;13,71758
 594,65; 5271,883;  419,478;36152,307;13,57968
 595,23; 5365,723;  409,558;36498,582;13,73316
 595,81; 5346,913;  407,252;36607,944;13,64521
 596,39; 5388,880;  398,945;36722,423;13,73749
 596,97; 5376,605;  397,027;36945,738;13,62450
 597,55; 5382,920;  380,480;36785,822;13,74095
 598,12; 5346,331;  392,801;36843,285;13,58975
 598,70; 5384,166;  377,413;36958,283;13,68681
 599,28; 5423,716;  393,182;37213,576;13,66236
 599,86; 5401,182;  380,797;37142,896;13,65641
 600,44; 5409,412;  347,645;37263,443;13,71166
 601,02; 5451,718;  410,961;37241,988;13,68617
 601,60; 5393,178;  387,409;37168,790;13,60952
 602,18; 5404,134;  361,493;37299,344;13,65169
 602,75; 5372,966;  359,559;37367,219;13,54694
 603,33; 5409,082;  377,951;37360,591;13,60403
 603,91; 5406,629;  361,573;37324,497;13,64896
 604,49; 5442,422;  386,490;37421,470;13,65177
 605,07; 5457,992;  387,870;37436,834;13,68492
 605,65; 5440,565;  397,030;37586,878;13,56159
 606,23; 5492,290;  457,246;37731,038;13,50827
 606,80; 5541,907;  498,175;37784,818;13,52692
 607,38; 5567,397;  531,418;37725,308;13,53980
 607,96; 5591,531;  575,328;37784,125;13,48123
 608,54; 5631,814;  649,646;37914,093;13,36976
 609,12; 5605,841;  630,406;37903,880;13,34846
 609,70; 5643,717;  660,566;38026,295;13,33615
 610,27; 5675,312;  682,020;38081,214;13,35134
 610,85; 5679,502;  702,489;38111,217;13,30442
 611,43; 5679,906;  688,720;38030,852;13,36610
 612,01; 5637,022;  662,254;37782,215;13,40187
 612,59; 5652,688;  667,258;37907,018;13,38738
 613,16; 5633,072;  620,863;37815,017;13,47580
 613,74; 5600,093;  589,336;37665,576;13,51474
 614,32; 5577,894;  559,569;37691,925;13,51470
 614,90; 5556,187;  529,102;37567,978;13,57245
 615,48; 5485,488;  482,018;37205,946;13,62455
 616,05; 5457,276;  448,093;37231,614;13,61801
 616,63; 5464,448;  445,630;37017,359;13,72322
 617,21; 5458,052;  452,174;36928,245;13,72373
 617,79; 5425,073;  431,945;36883,378;13,69803
 618,36; 5406,702;  443,332;36837,895;13,63767
 618,94; 5350,677;  381,250;36430,579;13,78508
 619,52; 5327,985;  405,554;36255,639;13,73060
 620,10; 5355,526;  391,944;36205,497;13,85951
 620,67; 5354,459;  395,630;36085,806;13,89410
 621,25; 5341,456;  413,794;35996,666;13,84841
 621,83; 5294,245;  393,481;35913,241;13,79729
 622,41; 5403,722;  443,096;35948,624;13,97142
 622,98; 5308,148;  398,553;35616,127;13,94075
 623,56; 5306,553;  406,860;35652,446;13,90158
 624,14; 5312,793;  388,334;35464,029;14,03952
 624,72; 5313,281;  383,634;35382,209;14,08528
 625,29; 5268,718;  375,091;35419,278;13,96416
 625,87; 5325,440;  404,484;35448,009;14,04241
 626,45; 5274,753;  358,474;35305,518;14,06780
 627,02; 5309,743;  376,638;35172,688;14,17720
 627,60; 5250,651;  365,953;35208,750;14,01925
 628,18; 5311,841;  336,406;35183,034;14,27810
 628,76; 5303,019;  343,630;35152,622;14,24744
 629,33; 5302,852;  377,787;35141,849;14,16712
 629,91; 5327,834;  360,329;35171,958;14,26967
 630,49; 5341,591;  375,401;35215,998;14,25403
 631,06; 5383,457;  374,785;35425,240;14,28989
 631,64; 5375,393;  362,321;35408,705;14,30411
 632,22; 5365,673;  332,395;35337,755;14,37859
 632,79; 5443,453;  357,395;35576,586;14,44116
 633,37; 5430,198;  343,793;35634,186;14,41300
 633,95; 5445,933;  348,089;35788,117;14,38442
 634,52; 5499,597;  335,557;35793,285;14,56393
 635,10; 5543,000;  331,174;35839,663;14,67769
 635,68; 5537,087;  337,703;36062,263;14,55409
 636,25; 5550,729;  323,237;35952,922;14,67173
 636,83; 5573,788;  314,784;36204,083;14,65340
 637,41; 5608,595;  339,240;36289,950;14,65717
 637,98; 5689,244;  345,009;36452,163;14,80104
 638,56; 5670,677;  340,005;36522,485;14,73274
 639,13; 5691,501;  318,860;36600,787;14,80803
 639,71; 5782,219;  363,554;36768,087;14,88459
 640,29; 5732,701;  288,554;36497,658;15,03530
 640,86; 5790,332;  312,093;36735,158;15,04058
 641,44; 5764,502;  313,478;36666,581;14,99466
 642,02; 5811,442;  344,939;36703,158;15,03512
 642,59; 5872,689;  316,555;36858,197;15,20494
 643,17; 5873,705;  318,863;36784,774;15,23297
 643,74; 5872,260;  307,786;36875,121;15,21706
 644,32; 5918,045;  335,248;36776,006;15,32020
 644,89; 5952,523;  329,633;36777,275;15,42731
 645,47; 5942,000;  340,479;36918,852;15,31375
 646,05; 5988,632;  337,787;36779,199;15,50666
 646,62; 5990,802;  322,326;36798,930;15,54003
 647,20; 6008,818;  333,403;36934,507;15,50613
 647,77; 5940,911;  306,018;36822,392;15,43114
 648,35; 5972,851;  310,711;36681,738;15,56772
 648,92; 6034,098;  327,557;36769,469;15,65928
 649,50; 6005,498;  287,327;36593,124;15,75002
 650,08; 6041,745;  298,173;36527,470;15,85339
 650,65; 6109,377;  301,481;36760,893;15,92976
 651,23; 6215,932;  294,789;37478,009;15,92423
 651,80; 6388,332;  282,097;38426,279;16,00830
 652,38; 6547,118;  297,943;38764,010;16,24594
 652,95; 6611,057;  282,251;39119,125;16,29587
 653,53; 6694,996;  318,021;39376,395;16,32678
 654,10; 6762,936;  339,328;39472,357;16,41480
 654,68; 6712,644;  289,021;39460,626;16,39867
 655,25; 6811,507;  285,867;39602,434;16,59768
 655,83; 6813,907;  284,637;39603,857;16,60580
 656,40; 6877,077;  318,252;39534,204;16,72489
 656,98; 6847,017;  288,714;39457,089;16,74387
 657,55; 6854,956;  299,253;39281,589;16,81711
 658,13; 6808,972;  294,407;39005,397;16,82872
 658,70; 6783,373;  310,869;38751,436;16,83769
 659,28; 6707,697;  314,253;37982,782;16,97290
 659,85; 6585,944;  305,254;37119,206;17,06062
 660,43; 6624,191;  321,177;37207,629;17,08761
 661,00; 6659,669;  304,100;37314,591;17,17234
 661,58; 6717,839;  300,639;37590,860;17,20880
 662,15; 6788,855;  281,024;37801,361;17,34481
 662,73; 6918,102;  346,409;38066,938;17,42206
 663,30; 6949,887;  300,409;38285,515;17,50549
 663,88; 7023,057;  315,178;38452,169;17,58890
 664,45; 7053,689;  290,717;38705,285;17,60523
 665,03; 7147,013;  296,333;38921,093;17,73650
 665,60; 7329,337;  372,563;39514,747;17,77308
 666,17; 7320,891;  304,718;39569,709;17,86878
 666,75; 7403,138;  301,564;39834,209;17,96382
 667,32; 7482,308;  321,718;40222,863;17,94583
 667,90; 7562,478;  297,872;40553,979;18,04597
 668,47; 7669,571;  316,257;40718,941;18,20006
 669,05; 7744,280;  299,719;41088,210;18,25162
 669,62; 7777,373;  274,565;41105,710;18,37521
 670,19; 7824,005;  287,411;41229,826;18,40779
 670,77; 7925,636;  293,719;41441,249;18,54769
 671,34; 7974,883;  301,258;41367,134;18,68614
 671,92; 8046,361;  281,643;41697,327;18,74826
 672,49; 8161,839;  309,643;41711,443;18,96583
 673,06; 8119,393;  256,643;41810,404;18,92187
 673,64; 8176,256;  287,720;41795,982;19,00474
 674,21; 8244,041;  279,721;41652,251;19,25026
 674,79; 8330,519;  305,567;41889,982;19,29798
 675,36; 8371,689;  307,106;42048,405;19,32039
 675,93; 8350,859;  269,798;41923,290;19,40068
 676,51; 8454,260;  296,337;42038,791;19,54347
 677,08; 8502,122;  300,029;42205,676;19,57276
 677,65; 8549,523;  300,876;42223,945;19,67568
 678,23; 8678,847;  299,722;42528,138;19,84239
 678,80; 8668,094;  287,261;42656,253;19,78058
 679,38; 8788,572;  284,030;42765,984;20,01919
 679,95; 8867,742;  303,184;42939,100;20,08766
 680,52; 8949,142;  285,338;43307,216;20,13814
 681,10; 9134,928;  299,338;43558,870;20,42461
 681,67; 9244,636;  298,493;43842,832;20,54491
 682,24; 9304,345;  268,570;43972,563;20,67494
 682,82; 9435,130;  280,108;44494,448;20,70600
 683,39; 9580,839;  326,186;44959,179;20,73500
 683,96; 9631,470;  289,032;45091,371;20,85257
 684,54; 9766,487;  276,109;45456,641;21,00546
 685,11; 9935,580;  309,340;45702,833;21,20621
 685,68;10046,211;  286,186;46266,487;21,22654
 686,25;10075,458;  269,033;46346,142;21,28264
 686,83;10222,551;  281,187;46473,950;21,52148
 687,40;10324,875;  273,418;46719,296;21,64123
 687,97;10517,661;  297,110;47163,489;21,80785
 688,55;10543,985;  260,264;47251,297;21,88443
 689,12;10670,309;  244,188;47453,335;22,08496
 689,69;10729,479;  250,342;47563,451;22,14848
 690,26;10840,033;  267,880;47710,336;22,28416
 690,84;10946,742;  276,958;47853,298;22,42666
 691,41;11016,296;  288,496;48013,567;22,47833
 691,98;11186,928;  295,189;48194,683;22,73874
 692,56;11224,483;  278,881;48329,260;22,77943
 693,13;11407,730;  328,728;48309,991;23,09027
 693,70;11492,900;  300,574;48497,568;23,22204
 694,27;11521,762;  272,728;48602,222;23,27571
 694,84;11595,471;  274,344;48711,184;23,37297
 695,42;11731,410;  331,728;48858,454;23,49155
 695,99;11775,580;  292,190;49050,723;23,55155
 696,56;11810,058;  285,575;48886,531;23,71246
 697,13;12025,843;  302,960;49344,339;23,90406
 697,71;11986,321;  269,806;49297,147;23,89792
 698,28;12182,645;  279,345;49636,724;24,11656
 698,85;12248,430;  255,422;49652,917;24,27858
 699,42;12377,985;  259,884;49787,879;24,46717
 699,99;12476,155;  299,115;49910,456;24,54487
 700,57;12535,248;  294,269;50012,802;24,62056
 701,14;12678,956;  271,423;50102,610;24,89913
 701,71;12792,511;  310,808;50372,803;24,93249
 702,28;12876,143;  286,193;50343,765;25,15094
 702,85;12998,543;  287,193;50442,034;25,34421
 703,43;13121,713;  305,116;50729,842;25,41729
 704,00;13286,422;  323,270;50879,650;25,64098
 704,57;13233,438;  295,193;50869,381;25,58270
 705,14;13468,454;  320,578;51078,189;25,90326
 705,71;13580,778;  325,348;51209,536;26,05020
 706,28;13579,025;  297,425;51085,036;26,15126
 706,86;13767,118;  334,810;51220,152;26,39721
 707,43;13837,135;  349,502;51187,113;26,53081
 708,00;13851,920;  322,272;51296,614;26,54208
 708,57;13852,321;  303,964;51216,191;26,61120
 709,14;14063,260;  323,118;51342,845;26,93104
 709,71;14095,430;  303,426;51511,961;26,93302
 710,28;14252,831;  294,888;51644,769;27,18204
 710,86;14264,232;  311,196;51785,884;27,10660
 711,43;14475,479;  324,196;51754,539;27,51544
 712,00;14529,187;  315,504;51848,654;27,58163
 712,57;14691,665;  311,350;52033,308;27,80311
 713,14;14790,374;  300,735;52068,655;27,98961
 713,71;14875,467;  311,428;52110,540;28,11639
 714,28;14947,483;  294,043;52009,194;28,33491
 714,85;14972,345;  282,428;51853,925;28,48457
 715,42;15190,746;  290,121;52085,887;28,76804
 716,00;15310,993;  358,659;52233,310;28,82397
 716,57;15437,163;  290,044;52298,579;29,12429
 717,14;15480,102;  278,967;52131,541;29,31607
 717,71;15555,811;  261,045;52118,965;29,49360
 718,28;15720,981;  308,429;52350,926;29,61532
 718,85;15741,459;  262,891;52374,504;29,70272
 719,42;15851,167;  289,661;52479,081;29,81736
 719,99;15894,568;  269,122;52273,735;30,04627
 720,56;16032,199;  299,353;52573,851;30,09660
 721,13;16091,908;  271,661;52641,043;30,20896
 721,70;16212,078;  261,969;52528,851;30,51666
 722,27;16315,633;  285,969;52482,890;30,70998
 722,84;16461,880;  332,354;52699,775;30,80069
 723,41;16507,742;  267,662;52779,891;30,92628
 723,98;16668,835;  282,970;52943,391;31,11609
 724,55;16860,851;  312,509;52994,814;31,41158
 725,12;16893,791;  239,124;52916,776;31,61619
 725,69;17034,191;  274,586;53109,584;31,72065
 726,27;17186,977;  278,586;53314,700;31,88090
 726,84;17391,608;  291,817;53571,892;32,09416
 727,41;17547,778;  292,048;53460,008;32,45513
 727,98;17677,256;  301,202;53736,508;32,51793
 728,55;17787,657;  322,202;53596,470;32,78404
 729,12;17870,212;  271,664;53726,816;32,92208
 729,69;18075,843;  304,741;53872,086;33,17525
 730,26;18163,475;  303,665;54140,048;33,17424
 730,82;18181,106;  291,203;54027,163;33,29224
 731,39;18377,123;  297,204;54132,971;33,58347
 731,96;18610,831;  271,434;54460,395;33,84342
 732,53;18789,694;  293,204;54703,357;33,99456
 733,10;18909,325;  303,281;54686,011;34,21315
 733,67;19096,726;  296,358;54987,973;34,37523
 734,24;19035,204;  282,743;54595,704;34,52668
 734,81;19263,604;  323,897;54758,819;34,79330
 735,38;19301,390;  284,436;54541,550;35,04970
 735,95;19385,560;  291,282;54325,974;35,33707
 736,52;19500,192;  307,975;54542,320;35,38757
 737,09;19481,208;  300,052;54205,128;35,58321
 737,66;19718,301;  338,283;54294,628;35,91796
 738,23;19804,548;  283,206;54435,282;36,04911
 738,80;20120,102;  347,206;54783,244;36,32317
 739,37;20160,119;  307,360;54988,283;36,30655
 739,94;20344,366;  291,361;54960,783;36,68048
 740,51;20459,997;  398,822;54989,976;36,74803
 741,07;20514,552;  287,669;55001,784;36,96831
 741,64;20596,799;  305,361;55283,207;36,90839
 742,21;20736,969;  287,438;55298,861;37,17324
 742,78;20699,601;  265,515;55003,439;37,33076
 743,35;20870,386;  296,054;55360,631;37,36401
 743,92;21030,941;  321,439;55485,901;37,54138
 744,49;21032,418;  315,978;55347,324;37,64480
 745,06;21175,973;  283,747;55364,517;37,93016
 745,63;21270,220;  276,132;55307,940;38,14901
 746,19;21276,544;  284,978;55291,671;38,16184
 746,76;21410,791;  295,440;55333,787;38,36480
 747,33;21502,038;  284,671;55331,287;38,54436
 747,90;21686,900;  304,287;55570,172;38,69044
 748,47;21680,147;  292,595;55467,287;38,76334
 749,04;21862,702;  314,133;55417,095;39,10601
 749,61;21896,103;  324,903;55368,827;39,18907
 750,17;22090,580;  311,672;55477,865;39,47872
 750,74;22141,904;  301,749;55411,981;39,62995
 751,31;22182,151;  267,826;55307,404;39,81558
 751,88;22289,398;  266,980;55142,289;40,13174
 752,45;22511,568;  287,750;55391,174;40,33110
 753,02;22503,815;  298,442;55082,674;40,53242
 753,58;22646,216;  276,981;55049,098;40,84055
 754,15;22901,309;  283,751;55229,829;41,16319
 754,72;22856,479;  282,828;54954,406;41,28956
 755,29;22975,649;  267,597;54789,445;41,64945
 755,86;23089,435;  284,597;54987,330;41,68866
 756,42;23153,682;  286,828;54919,830;41,85539
 756,99;23269,005;  251,136;54833,253;42,17108
 757,56;23357,945;  270,060;54787,677;42,34940
 758,13;23424,576;  211,367;54778,869;42,54035
 758,70;23657,746;  238,598;54822,677;42,90472
 759,26;23840,916;  228,060;54837,562;43,23946
 759,83;23958,394;  239,060;54939,293;43,36240
 760,40;23997,564;  226,753;54823,793;43,53864
 760,97;24046,888;  217,830;54841,678;43,62391
 761,53;23908,674;  200,446;54453,948;43,69898
 762,10;24089,228;  212,984;54440,756;44,02955
 762,67;24184,167;  244,523;54427,102;44,18329
 763,24;24209,876;  202,292;54032,295;44,59889
 763,80;24349,354;  238,677;54121,334;44,74664
 764,37;24321,062;  240,139;54150,218;44,66868
 764,94;24287,925;  216,524;53655,411;45,04473
 765,50;24433,172;  229,447;53698,681;45,26664
 766,07;24506,188;  273,909;53765,258;45,30130
 766,64;24506,512;  237,909;53484,912;45,57741
 767,21;24633,605;  249,525;53336,874;45,93200
 767,77;24704,083;  272,371;53316,989;46,05879
 768,34;24795,406;  278,294;53213,182;46,31560
 768,91;24798,500;  270,371;53061,836;46,46230
 769,47;24948,977;  263,449;53144,952;46,68084
 770,04;24938,455;  273,680;52968,529;46,80681
 770,61;25017,164;  255,988;52776,106;47,14608
 771,18;25035,026;  248,142;52584,299;47,36092
 771,74;25291,427;  271,449;52771,953;47,65664
 772,31;25206,597;  262,527;52573,530;47,68417
 772,88;25171,382;  234,988;52332,800;47,86457
 773,44;25218,629;  253,066;52111,300;48,14195
 774,01;25441,722;  270,373;52206,262;48,46619
 774,58;25338,508;  249,527;51799,300;48,66943
 775,14;25493,985;  247,220;51982,955;48,79947
 775,71;25614,386;  249,605;51886,147;49,12177
 776,27;25690,556;  309,605;51837,878;49,25636
 776,84;25837,649;  331,990;51829,917;49,52755
 777,41;25818,666;  277,836;51661,109;49,70651
 777,97;25724,297;  251,606;51326,225;49,87348
 778,54;26014,544;  273,991;51381,572;50,36543
 779,11;26016,176;  286,837;51416,610;50,32164
 779,67;26107,423;  251,376;51394,803;50,55595
 780,24;25993,054;  269,453;51262,457;50,44535
 780,80;26171,455;  285,068;51128,957;50,91347
 781,37;26202,241;  275,684;51131,765;50,98025
 781,94;26172,718;  254,684;50875,035;51,20082
 782,50;26378,273;  269,607;50789,920;51,67954
 783,07;26453,443;  292,454;50872,805;51,72164
 783,63;26411,151;  257,685;50595,997;51,95539
 784,20;26459,629;  279,685;50630,651;51,99492
 784,77;26406,568;  267,685;50313,844;52,22955
 785,33;26409,046;  241,993;50191,806;52,38669
 785,90;26472,216;  267,686;50231,998;52,44649
 786,46;26575,694;  278,840;50231,191;52,64388
 787,03;26559,249;  248,763;49988,460;52,89635
 787,59;26556,726;  260,840;49854,807;53,02235
 788,16;26572,820;  281,610;49774,076;53,12164
 788,73;26609,143;  269,533;49591,192;53,40374
 789,29;26641,544;  263,302;49230,615;53,86908
 789,86;26542,791;  282,918;49188,731;53,69479
 790,42;26643,654;  270,380;49006,693;54,11422
 790,99;26561,901;  279,611;48804,424;54,16258
 791,55;26626,224;  258,611;48747,001;54,37923
 792,12;26786,625;  286,457;48744,194;54,68718
 792,68;26683,411;  266,611;48385,386;54,89915
 793,25;26646,504;  275,227;48188,348;55,03978
 793,81;26683,905;  330,227;47839,233;55,47091
 794,38;26541,690;  239,458;47655,426;55,47125
 794,94;26663,168;  249,997;47471,003;55,93521
 795,51;26665,107;  282,074;47346,272;56,05754
 796,07;26597,739;  257,536;47077,696;56,25825
 796,64;26778,216;  295,997;47173,273;56,49266
 797,20;26548,617;  280,075;46664,312;56,63248
 797,77;26467,710;  235,921;46331,043;56,90795
 798,33;26483,957;  269,767;46193,928;57,08148
 798,90;26572,820;  287,537;46098,505;57,37771
 799,46;26413,913;  270,229;45575,928;57,70507
 800,03;26507,314;  273,383;45513,275;57,98849
 800,59;26481,022;  285,768;45370,390;58,10241
 801,15;26437,961;  288,230;45134,198;58,31011
 801,72;26366,593;  270,845;44878,006;58,50125
 802,28;26293,148;  294,615;44557,122;58,73714
 802,85;26272,471;  274,307;44399,930;58,91852
 803,41;26223,257;  263,000;44169,892;59,12570
 803,98;26061,427;  261,616;43746,777;59,33015
 804,54;26044,059;  270,154;43444,738;59,69694
 805,11;26030,152;  287,539;43330,623;59,80662
 805,67;26060,322;  308,078;43278,200;59,93058
 806,23;25916,723;  266,001;42761,085;60,36162
 806,80;26031,893;  288,617;42695,124;60,70596
 807,36;26056,755;  287,463;42689,394;60,77386
 807,93;26029,771;  300,848;42473,740;61,00820
 808,49;25936,480;  249,386;42084,317;61,40107
 809,05;25820,573;  251,156;41995,356;61,25262
 809,62;25909,974;  289,002;41842,933;61,65715
 810,18;25923,682;  281,541;41730,818;61,86390
 810,74;25875,775;  245,849;41519,780;62,09713
 811,31;25789,022;  250,618;41268,511;62,26162
 811,87;25789,346;  259,157;41163,627;62,41418
 812,44;25910,055;  294,926;41136,204;62,71872
 813,00;25731,225;  220,004;40883,166;62,73792
 813,56;25857,549;  274,696;40935,204;62,91818
 814,13;25849,719;  259,850;40745,474;63,20730
 814,69;25850,119;  253,235;40594,666;63,45061
 815,25;25786,059;  236,928;40200,705;63,93072
 815,82;25840,690;  280,697;40209,436;64,01403
 816,38;25802,630;  300,005;40000,552;64,23746
 816,94;25649,184;  251,928;39694,129;64,39107
 817,51;25498,662;  238,928;39506,322;64,32750
 818,07;25442,832;  245,775;39250,976;64,59922
 818,63;25355,233;  273,006;39023,861;64,72690
 819,20;25388,634;  259,006;38979,823;64,89953
 819,76;25287,034;  242,391;38565,092;65,35198
 820,32;25209,820;  295,853;38508,823;65,19767
 820,89;25266,759;  276,237;38269,323;65,77650
 821,45;25177,545;  245,930;37985,747;66,06183
 822,01;25077,792;  270,084;37748,939;66,19121
 822,57;25049,115;  262,853;37571,747;66,43526
 823,14;24933,901;  237,854;37367,786;66,51250
 823,70;24859,148;  235,854;37118,902;66,76046
 824,26;24899,164;  249,085;36961,325;67,14403
 824,82;24862,411;  268,854;36806,748;67,30973
 825,39;24682,043;  246,854;36566,787;67,27762
 825,95;24726,674;  264,239;36537,211;67,43984
 826,51;24547,536;  262,547;36125,634;67,71584
 827,08;24662,630;  306,240;36207,211;67,84326
 827,64;24628,261;  270,317;36035,481;68,10522
 828,20;24553,047;  246,471;35772,519;68,41902
 828,76;24633,678;  269,625;35703,635;68,75895
 829,32;24551,694;  276,317;35643,289;68,63855
 829,89;24589,634;  231,241;35524,712;69,01671
 830,45;24623,111;  258,010;35444,982;69,24467
 831,01;24594,205;  252,703;35229,790;69,59271
 831,57;24611,067;  254,011;35069,983;69,95943
 832,14;24701,006;  246,703;35026,252;70,31231
 832,70;24552,638;  243,088;34855,522;70,23358
 833,26;24581,116;  214,704;34669,560;70,71982
 833,82;24581,516;  252,242;34709,291;70,60754
 834,38;24591,456;  247,089;34666,407;70,72879
 834,95;24604,472;  241,473;34489,753;71,13641
 835,51;24484,642;  209,243;34402,561;70,99457
 836,07;24578,889;  253,705;34454,908;71,12377
 836,63;24635,290;  264,013;34434,485;71,32262
 837,19;24520,998;  247,859;34274,139;71,33645
 837,75;24358,784;  219,551;33980,563;71,50032
 838,32;24577,569;  260,167;34076,371;71,91050
 838,88;24639,508;  262,090;34127,948;71,98228
 839,44;24516,678;  255,783;34055,756;71,77785
 840,00;24559,387;  252,014;33936,179;72,16261
 840,56;24396,249;  239,860;33756,295;72,07327
 841,12;24445,804;  235,476;33652,410;72,44928
 841,68;24395,589;  226,091;33490,526;72,65868
 842,25;24413,375;  231,322;33469,488;72,75387
 842,81;24308,237;  231,246;33316,142;72,77336
 843,37;24335,176;  214,938;33260,950;72,98986
 843,93;24407,039;  237,938;33145,219;73,44606
 844,49;24548,593;  247,400;33174,566;73,80287
 845,05;24512,225;  210,170;33065,912;73,96593
 845,61;24566,626;  248,170;33106,643;74,00969
 846,17;24506,950;  235,785;32907,298;74,28846
 846,73;24617,581;  241,940;32803,721;74,85967
 847,29;24473,213;  217,324;32683,913;74,71031
 847,86;24550,229;  235,248;32657,260;74,99529
 848,42;24380,707;  221,017;32423,376;75,02460
 848,98;24429,954;  249,402;32411,414;75,18358
 849,54;24569,201;  232,864;32420,376;75,60801
 850,10;24512,601;  239,172;32242,261;75,84715
 850,66;24404,848;  223,326;32169,223;75,69524
 851,22;24400,019;  216,018;32044,492;75,98228
 851,78;24485,419;  262,172;32190,300;75,86805
 852,34;24325,512;  247,480;31902,878;76,06296
 852,90;24319,375;  239,711;31744,301;76,43224
 853,46;24217,006;  221,327;31626,878;76,40585
 854,02;24227,330;  241,096;31540,686;76,63434
 854,58;24067,808;  237,558;31283,648;76,75765
 855,14;24111,440;  227,712;31230,148;77,03823
 855,70;24039,840;  199,404;31072,802;77,21999
 856,26;24061,934;  247,482;30999,610;77,44001
 856,82;24080,642;  223,174;30911,803;77,74042
 857,38;24084,581;  260,405;30765,842;78,09813
 857,94;24004,059;  225,559;30693,342;78,04473
 858,50;23957,306;  250,790;30567,073;78,19730
 859,06;23947,553;  231,560;30390,266;78,63730
 859,62;23900,800;  239,868;30330,612;78,63193
 860,18;23852,739;  229,406;30161,112;78,92411
 860,74;23810,755;  209,945;29971,689;79,29915
 861,30;23708,849;  208,791;29742,882;79,56926
 861,86;23940,326;  270,638;29919,075;79,83452
 862,42;23851,881;  237,946;29764,806;79,97442
 862,98;23883,205;  266,176;29637,075;80,40962
 863,54;23759,144;  236,946;29389,960;80,68530
 864,10;23885,468;  220,638;29537,691;80,72036
 864,66;23747,177;  213,639;29320,191;80,85306
 865,22;23738,193;  229,485;29208,769;81,12246
 865,78;23715,209;  242,639;29062,269;81,44647
 866,34;23614,225;  221,255;28983,154;81,33319
 866,90;23684,857;  246,716;28842,346;81,96406
 867,45;23542,565;  234,024;28601,462;82,16654
 868,01;23448,812;  240,717;28463,808;82,23088
 868,57;23385,828;  228,640;28331,924;82,40029
 869,13;23365,998;  212,025;28131,732;82,93057
 869,69;23311,399;  229,871;28104,463;82,80490
 870,25;23198,031;  212,025;28013,425;82,67931
 870,81;23128,432;  233,103;27915,694;82,70659
 871,37;23131,371;  241,103;27851,426;82,90475
 871,93;23099,926;  241,334;27679,310;83,31005
 872,49;23041,249;  262,719;27451,272;83,77986
 873,04;22948,573;  217,411;27275,849;84,00767
 873,60;22873,743;  217,181;27180,965;84,02590
 874,16;22879,760;  238,719;27138,312;84,16871
 874,72;22835,913;  230,104;27081,927;84,18724
 875,28;22784,221;  240,258;26971,773;84,33478
 875,84;22802,067;  230,258;26915,388;84,58572
 876,40;22862,067;  222,027;26777,388;85,25601
 876,95;22840,144;  237,104;26837,004;84,97416
 877,51;22830,144;  264,181;26826,235;84,95564
 878,07;22906,067;  270,719;26808,004;85,29640
 878,63;22973,221;  226,335;26831,004;85,49960
 879,19;23001,452;  242,873;26770,696;85,79135
 879,75;23050,913;  233,488;26885,388;85,61275
 880,30;22975,683;  235,258;26834,388;85,49311
 880,86;23195,606;  274,335;27011,312;85,72873
 881,42;23180,990;  217,181;26987,696;85,78023
 881,98;23408,298;  251,104;27128,850;86,15750
 882,54;23524,990;  229,796;27205,542;86,35607
 883,09;23635,375;  240,104;27280,927;86,51834
 883,65;23817,375;  221,027;27450,235;86,65823
 884,21;24047,760;  258,642;27607,927;86,98259
 884,77;24041,144;  217,412;27540,696;87,19205
 885,32;24261,837;  232,104;27752,158;87,31717
 885,88;24480,452;  269,642;27948,927;87,46906
 886,44;24615,913;  234,258;28056,773;87,63282
 887,00;24604,913;  260,796;28002,388;87,75314
 887,56;24786,683;  226,873;28174,927;87,87664
 888,11;24812,067;  234,565;28173,465;87,96875
 888,67;25068,529;  261,258;28362,927;88,27686
 889,23;25109,067;  247,104;28360,696;88,43396
 889,79;25002,452;  219,873;28214,927;88,52485
 890,34;25066,990;  241,565;28168,235;88,89504
 890,90;25278,375;  303,642;28337,619;89,08737
 891,46;25129,375;  222,335;28240,235;88,89689
 892,01;25182,452;  253,950;28197,927;89,20886
 892,57;25192,837;  271,027;28211,465;89,19620
 893,13;24965,452;  224,335;27922,235;89,32488
 893,69;25114,452;  227,642;27872,081;90,02465
 894,24;25037,298;  245,027;27818,542;89,91335
 894,80;24927,913;  248,181;27712,004;89,86270
 895,36;24758,760;  239,642;27574,235;89,69996
 895,91;24649,913;  226,950;27331,773;90,10560
 896,47;24587,606;  252,335;27288,619;90,00967
 897,03;24504,606;  230,488;27012,158;90,63706
 897,58;24498,067;  254,719;27080,619;90,37292
 898,14;24273,067;  246,796;26719,235;90,75957
 898,70;24106,683;  204,950;26620,312;90,48422
 899,25;24158,221;  242,181;26628,465;90,63815
 899,81;24083,683;  248,104;26450,696;90,96649
 900,37;23803,606;  208,258;26203,696;90,76726
 900,92;23921,837;  239,642;26209,081;91,19255
 901,48;23857,529;  225,412;26078,465;91,40938
 902,03;23591,990;  212,335;25948,773;90,84262
 902,59;23543,606;  229,950;25837,081;91,04361
 903,15;23549,683;  256,488;25704,542;91,53232
 903,70;23260,837;  245,027;25477,081;91,21655
 904,26;23255,067;  223,873;25315,773;91,78737
 904,82;23283,913;  242,873;25352,542;91,76162
 905,37;23263,375;  246,719;25189,619;92,27738
 905,93;23176,990;  228,719;25007,312;92,61330
 906,48;23207,298;  243,796;25006,850;92,73292
 907,04;23234,990;  253,335;24911,388;93,20142
 907,60;23001,760;  237,950;24700,542;93,05559
 908,15;22847,452;  230,027;24588,696;92,85164
 908,71;22863,144;  257,027;24614,081;92,81138
 909,26;22758,375;  228,181;24422,619;93,12138
 909,82;22744,990;  257,412;24211,388;93,87827
 910,37;22757,221;  277,027;24242,081;93,80406
 910,93;22520,452;  226,104;24083,312;93,44911
 911,48;22477,606;  220,181;23858,388;94,15868
 912,04;22353,144;  236,796;23776,312;93,95414
 912,60;22392,221;  243,258;23848,235;93,83175
 913,15;22289,529;  239,873;23565,619;94,52926
 913,71;22170,221;  219,873;23403,696;94,67959
 914,26;22123,067;  215,104;23348,850;94,70132
 914,82;22105,221;  236,412;23261,312;94,97896
 915,37;21963,760;  223,642;23194,927;94,64041
 915,93;21861,529;  272,642;23073,158;94,68596
 916,48;21815,529;  225,719;22937,081;95,06171
 917,04;21788,298;  247,104;22802,696;95,50268
 917,59;21713,529;  263,181;22762,158;95,33922
 918,15;21559,067;  196,488;22562,388;95,51406
 918,70;21487,452;  220,873;22468,696;95,58948
 919,26;21465,683;  231,950;22437,081;95,62534
 919,81;21279,298;  220,719;22235,312;95,65736
 920,37;21304,837;  228,642;22167,158;96,06937
 920,92;21301,452;  246,873;22137,081;96,18264
 921,48;21095,452;  214,488;21839,081;96,56119
 922,03;21099,298;  225,950;21859,081;96,48787
 922,59;21052,144;  225,796;21713,158;96,92371
 923,14;20959,683;  224,796;21644,312;96,80371
 923,69;20984,837;  250,565;21559,388;97,30369
 924,25;20985,683;  238,027;21438,619;97,86357
 924,80;20801,375;  233,719;21291,312;97,67335
 925,36;20774,760;  226,104;21189,312;98,02248
 925,91;20709,760;  211,181;21066,542;98,28925
 926,47;20693,529;  208,565;20966,081;98,68697
 927,02;20651,144;  280,335;20992,235;98,35317
 927,57;20557,452;  225,104;20790,696;98,86585
 928,13;20515,144;  213,796;20660,388;99,28964
 928,68;20378,529;  225,258;20638,312;98,72737
 929,24;20297,221;  199,719;20421,388;99,38597
 929,79;20161,606;  206,335;20327,235;99,17683
 930,34;20068,990;  226,873;20180,465;99,44133
 930,90;19922,913;  212,027;20141,465;98,90337
 931,45;19874,375;  229,027;20157,927;98,57718
 932,01;19855,990;  225,873;20021,465;99,16408
 932,56;19689,298;  249,719;19868,388;99,08714
 933,11;19743,837;  253,488;19857,927;99,41804
 933,67;19495,606;  220,488;19695,388;98,97415
 934,22;19560,221;  236,181;19596,312;99,81358
 934,77;19345,067;  257,950;19538,158;98,99850
 935,33;19194,298;  227,796;19370,850;99,07772
 935,88;19183,452;  228,258;19341,158;99,17487
 936,43;19124,375;  228,642;19217,235;99,51097
 936,99;18988,683;  232,719;19116,927;99,32089
 937,54;18899,221;  210,719;18954,773;99,70363
 938,09;18861,221;  227,412;18975,388;99,39104
 938,65;18701,144;  220,950;18836,850;99,27102
 939,20;18762,913;  204,335;18707,773;100,29800
 939,75;18740,221;  211,565;18689,619;100,27385
 940,31;18677,683;  210,412;18486,850;101,04415
 940,86;18596,375;  225,027;18508,004;100,48335
 941,41;18720,606;  290,565;18399,542;101,77295
 941,96;18583,298;  219,258;18250,619;101,84500
 942,52;18462,375;  216,027;18174,235;101,60451
 943,07;18367,913;  197,488;18061,696;101,71414
 943,62;18310,529;  217,719;17999,081;101,75154
 944,18;18310,452;  195,565;17954,158;102,00632
 944,73;18237,221;  233,027;17856,388;102,16095
 945,28;17954,760;  191,027;17627,927;101,87437
 945,83;18062,760;  217,642;17686,773;102,15229
 946,39;17986,375;  223,335;17662,004;101,86007
 946,94;18024,375;  245,335;17545,542;102,76779
 947,49;17859,837;  219,565;17453,696;102,35660
 948,04;17905,606;  253,719;17367,542;103,14403
 948,59;17834,606;  244,950;17351,773;102,82246
 949,15;17766,913;  202,719;17219,850;103,21478
 949,70;17683,683;  218,104;17085,235;103,54801
 950,25;17631,990;  237,181;17045,158;103,49139
 950,80;17570,990;  196,027;16909,081;103,96043
 951,36;17437,452;  197,873;16863,235;103,44557
 951,91;17433,067;  230,565;16832,927;103,61479
 952,46;17402,298;  199,719;16575,158;105,05110
 953,01;17421,375;  242,950;16650,619;104,69753
 953,56;17260,760;  195,104;16489,542;104,73301
 954,11;17241,529;  233,565;16458,312;104,82730
 954,67;17133,760;  219,719;16418,312;104,41673
 955,22;17021,221;  207,181;16251,773;104,79568
 955,77;17125,913;  242,412;16265,004;105,37310
 956,32;17038,913;  275,181;16178,927;105,40745
 956,87;16951,683;  206,565;15991,235;106,08469
 957,42;16930,913;  211,258;15955,850;106,19301
 957,98;16865,298;  214,335;15911,465;106,07648
 958,53;16872,760;  238,412;15814,004;106,79753
 959,08;16752,452;  201,796;15706,619;106,74521
 959,63;16645,452;  206,796;15611,312;106,71323
 960,18;16658,683;  229,873;15587,312;106,97624
 960,73;16595,221;  226,796;15466,158;107,40886
 961,28;16553,913;  199,873;15403,312;107,56804
 961,83;16515,067;  238,181;15367,619;107,58421
 962,39;16399,760;  204,642;15236,542;107,73833
 962,94;16259,529;  228,181;15135,158;107,54258
 963,49;16133,529;  223,565;15083,158;107,06864
 964,04;16178,375;  235,642;15060,927;107,53745
 964,59;16081,990;  190,873;14878,773;108,19189
 965,14;16029,683;  237,950;14853,158;108,05001
 965,69;15837,760;  226,181;14738,388;107,57549
 966,24;15729,144;  216,104;14616,465;107,72674
 966,79;15637,375;  233,488;14561,158;107,51146
 967,34;15570,683;  193,104;14409,696;108,16642
 967,89;15551,837;  206,027;14404,312;108,08214
 968,44;15491,067;  216,027;14305,773;108,41246
 968,99;15544,990;  221,950;14292,465;108,90177
 969,55;15422,606;  222,027;14166,619;109,00698
 970,10;15334,606;  226,488;14098,312;108,91227
 970,65;15246,221;  246,873;14004,696;109,02414
 971,20;15174,375;  214,181;13909,773;109,23364
 971,75;15088,221;  197,796;13668,542;110,53898
 972,30;15011,683;  223,104;13699,081;109,74031
 972,85;14950,683;  212,181;13631,004;109,83453
 973,40;14902,067;  206,258;13559,158;110,05706
 973,95;14838,606;  222,719;13453,312;110,47039
 974,50;14829,990;  246,565;13406,773;110,81455
 975,05;14738,144;  227,335;13275,619;111,20856
 975,60;14672,529;  233,642;13192,388;111,42194
 976,15;14585,913;  213,719;13086,158;111,65091
 976,70;14497,144;  225,719;13024,312;111,50777
 977,25;14516,837;  228,950;12980,388;112,04921
 977,80;14471,298;  205,104;12853,542;112,79016
 978,35;14270,760;  228,565;12647,773;113,06836
 978,89;14260,221;  198,719;12588,388;113,49376
 979,44;14298,067;  228,873;12625,081;113,49595
 979,99;14168,760;  209,873;12401,619;114,49456
 980,54;14110,529;  243,412;12386,850;114,19432
 981,09;13994,990;  239,258;12232,388;114,69676
 981,64;13817,606;  234,873;12097,773;114,49757
 982,19;13879,913;  261,027;12125,081;114,79117
 982,74;13761,452;  245,027;11893,081;116,04020
 983,29;13654,606;  213,950;11764,619;116,36257
 983,84;13588,144;  235,258;11668,773;116,78724
 984,39;13620,298;  303,104;11711,542;116,73109
 984,94;13407,606;  203,027;11481,619;117,07648
 985,49;13435,913;  250,873;11470,542;117,51719
 986,03;13285,913;  250,488;11413,235;116,77615
 986,58;13149,837;  276,027;11242,619;117,39116
 987,13;13060,144;  237,027;11119,465;117,83312
 987,68;12957,529;  235,335;11045,773;117,68435
 988,23;12890,144;  237,258;10984,850;117,72764
 988,78;12797,990;  223,873;10863,235;118,18489
 989,33;12714,067;  241,873;10732,696;118,88671
 989,88;12682,375;  249,642;10721,619;118,72384
 990,42;12531,529;  232,642;10586,158;118,78947
 990,97;12387,144;  224,950;10463,004;118,79401
 991,52;12306,683;  253,719;10376,850;119,06360
 992,07;12242,837;  255,873;10301,927;119,32012
 992,62;12190,067;  239,873;10217,773;119,76663
 993,17;12064,067;  238,181;10072,004;120,25726
 993,71;11892,606;  248,950; 9954,235;119,97233
 994,26;11784,375;  222,181; 9825,850;120,39351
 994,81;11739,144;  250,181; 9767,850;120,71194
 995,36;11535,683;  226,719; 9628,773;120,28184
 995,91;11480,298;  235,258; 9593,004;120,16826
 996,45;11335,990;  236,335; 9483,619;120,03151
 997,00;11276,606;  207,950; 9335,850;121,26180
 997,55;11237,837;  233,873; 9334,927;120,90867
 998,10;11133,375;  265,488; 9163,773;122,13462
 998,65;11073,529;  231,412; 9172,465;121,26219
 999,19;10913,067;  252,104; 9013,158;121,68586
 999,74;10788,606;  276,181; 8985,542;120,70259
1000,29;10699,298;  246,719; 8828,773;121,79577
1000,84;10548,067;  223,104; 8741,696;121,20504
1001,38;10450,913;  237,412; 8648,388;121,43063
1001,93;10388,606;  248,181; 8601,158;121,39893
1002,48;10251,913;  221,950; 8410,542;122,48703
1003,03;10204,990;  238,565; 8394,696;122,19550
1003,57;10153,760;  249,719; 8249,158;123,80920
1004,12;10055,067;  272,412; 8205,235;123,31872
1004,67; 9943,452;  226,719; 8094,235;123,50446
1005,22; 9782,221;  217,796; 7967,081;123,42333
1005,76; 9670,298;  217,335; 7848,235;123,87744
1006,31; 9649,913;  247,642; 7815,850;124,23379
1006,86; 9486,067;  222,104; 7678,850;124,23600
1007,40; 9317,606;  210,950; 7571,850;123,71661
1007,95; 9258,606;  236,873; 7480,158;124,55306
1008,50; 9135,375;  231,642; 7337,388;125,30328
1009,04; 8994,067;  219,950; 7249,004;124,82643
1009,59; 8874,990;  240,412; 7142,312;125,10437
1010,14; 8748,990;  216,335; 7033,312;125,16774
1010,68; 8619,606;  229,565; 6973,773;124,40365
1011,23; 8469,298;  224,950; 6797,542;125,43526
1011,78; 8404,990;  234,181; 6780,465;124,81598
1012,32; 8239,221;  247,565; 6639,465;125,02786
1012,87; 8222,760;  253,412; 6621,081;125,15330
1013,42; 8087,606;  218,258; 6484,004;125,59315
1013,96; 8096,298;  258,488; 6507,081;125,43321
1014,51; 7981,298;  198,335; 6424,619;125,00173
1015,06; 7982,452;  204,335; 6429,158;124,95323
1015,60; 8084,144;  268,565; 6443,619;126,56697
1016,15; 8007,683;  224,104; 6407,542;125,87784
1016,69; 8022,683;  233,950; 6431,158;125,68132
1017,24; 8009,298;  205,258; 6454,927;124,87125
1017,79; 8117,606;  251,796; 6551,081;124,86830
1018,33; 8125,913;  218,412; 6526,158;125,36177
1018,88; 8178,837;  242,258; 6598,927;124,85436
1019,42; 8228,144;  229,412; 6609,388;125,37244
1019,97; 8180,606;  209,642; 6586,388;125,00048
1020,51; 8325,683;  243,335; 6614,927;126,84974
1021,06; 8236,837;  199,258; 6623,081;125,12142
1021,61; 8189,375;  204,258; 6566,081;125,51618
1022,15; 8193,221;  180,027; 6530,927;126,17415
1022,70; 8142,375;  223,873; 6544,388;125,28254
1023,24; 8124,529;  217,104; 6506,696;125,72238
1023,79; 8081,452;  214,873; 6440,312;126,36184
1024,33; 8001,683;  219,642; 6432,696;125,25307
1024,88; 7907,067;  224,565; 6301,158;126,42780
1025,42; 7802,683;  216,335; 6201,773;126,74674
1025,97; 7724,067;  219,027; 6159,696;126,33325
1026,51; 7593,529;  185,488; 6011,927;127,14526
1027,06; 7564,913;  206,488; 5991,850;127,19041
1027,60; 7423,760;  239,258; 5887,235;127,20487
1028,15; 7363,529;  245,873; 5774,696;128,73727
1028,69; 7137,837;  198,950; 5671,004;126,80589
1029,24; 7096,606;  217,104; 5593,542;127,95649
1029,78; 6993,375;  215,181; 5512,696;127,95044
1030,33; 6848,375;  196,565; 5423,542;127,25921
1030,87; 6801,606;  222,642; 5339,312;128,57903
1031,42; 6718,144;  202,181; 5270,850;128,55373
1031,96; 6618,452;  233,488; 5172,465;129,27705
1032,51; 6531,837;  211,796; 5112,696;128,95673
1033,05; 6453,837;  216,104; 5063,465;128,68305
1033,60; 6280,375;  191,950; 4923,927;128,66557
1034,14; 6206,683;  213,565; 4874,388;128,58496
1034,69; 6109,760;  219,642; 4796,312;128,69878
1035,23; 6081,067;  208,796; 4739,927;129,59836
1035,77; 6015,683;  201,412; 4670,388;130,10296
1036,32; 5924,760;  190,950; 4605,312;129,88990
1036,86; 5851,990;  214,335; 4557,312;129,81086
1037,41; 5743,606;  225,104; 4481,542;129,65069
1037,95; 5627,529;  194,104; 4382,773;129,71721
1038,50; 5605,913;  206,412; 4372,696;129,59993
1039,04; 5558,913;  233,027; 4333,235;129,89309
1039,58; 5433,913;  196,488; 4222,388;130,09327
1040,13; 5354,837;  218,181; 4185,004;129,49042
1040,67; 5348,067;  237,488; 4167,081;130,05367
1041,21; 5255,375;  238,565; 4070,696;130,91436
1041,76; 5160,990;  199,104; 4016,850;129,96900
1042,30; 5081,837;  215,104; 3950,158;130,29886
1042,85; 5021,375;  217,335; 3897,235;130,54812
1043,39; 4946,683;  207,258; 3822,235;131,10526
1043,93; 4901,375;  223,335; 3783,773;131,38945
1044,48; 4834,606;  223,412; 3736,850;131,24449
1045,02; 4746,375;  213,104; 3690,850;130,35084
1045,56; 4725,221;  232,719; 3675,850;130,47724
1046,11; 4663,375;  220,642; 3615,004;130,88567
1046,65; 4568,452;  229,488; 3556,773;130,40554
1047,19; 4532,760;  207,104; 3511,465;130,90746
1047,74; 4468,452;  197,950; 3420,388;132,52392
1048,28; 4437,375;  220,181; 3400,927;132,58506
1048,82; 4374,837;  238,719; 3362,388;132,41214
1049,37; 4316,298;  228,412; 3294,004;133,34736
1049,91; 4298,529;  230,796; 3252,158;134,63244
1050,45; 4241,529;  233,258; 3229,158;133,79189
1050,99; 4177,375;  216,642; 3161,927;134,47708
1051,54; 4116,606;  208,796; 3103,696;134,98945
1052,08; 4086,221;  250,796; 3090,235;135,07688
1052,62; 4042,452;  236,719; 3048,696;135,34011
1053,16; 3995,067;  217,412; 2967,004;137,38967
1053,71; 3928,221;  230,565; 2937,465;136,60112
1054,25; 3894,452;  241,719; 2895,773;137,62843
1054,79; 3844,529;  231,642; 2873,235;136,76927
1055,33; 3752,683;  195,488; 2796,696;136,75164
1055,88; 3751,298;  231,412; 2778,312;138,20278
1056,42; 3682,529;  245,873; 2757,388;136,83594
1056,96; 3685,606;  238,565; 2705,158;139,74909
1057,50; 3600,837;  224,104; 2676,312;137,70174
1058,05; 3540,375;  221,335; 2629,773;137,80881
1058,59; 3511,837;  247,565; 2595,850;139,00662
1059,13; 3431,913;  206,181; 2532,158;138,68292
1059,67; 3410,683;  224,642; 2534,235;137,94817
1060,21; 3354,837;  218,796; 2464,235;139,66272
1060,76; 3310,144;  229,565; 2448,081;138,85767
1061,30; 3272,837;  248,565; 2444,773;137,70424
1061,84; 3198,606;  229,796; 2349,312;140,07021
1062,38; 3147,529;  218,335; 2286,542;141,62960
1062,92; 3170,837;  266,488; 2345,081;139,72668
1063,46; 3109,221;  247,181; 2274,388;141,18141
1064,01; 3059,067;  224,412; 2233,927;141,06166
1064,55; 2988,837;  231,565; 2217,773;138,82089
1065,09; 2942,067;  204,565; 2145,388;141,04850
1065,63; 2949,606;  253,719; 2166,388;140,94892
1066,17; 2902,683;  262,796; 2143,465;140,36953
1066,71; 2885,837;  247,258; 2125,388;140,48962
1067,25; 2812,837;  241,950; 2079,927;139,87589
1067,80; 2787,683;  256,873; 2061,696;140,22480
1068,34; 2755,298;  258,950; 2065,619;138,17405
1068,88; 2729,452;  225,181; 1990,696;141,84363
1069,42; 2702,529;  252,488; 2018,696;138,71757
1069,96; 2647,913;  234,642; 1949,081;140,76161
1070,50; 2642,913;  276,488; 1963,081;140,30806
1071,04; 2573,452;  220,950; 1888,696;141,05875
1071,58; 2561,606;  232,796; 1878,081;141,54448
1072,12; 2521,837;  233,796; 1855,081;141,12515
1072,66; 2505,529;  227,181; 1840,158;141,25113
1073,21; 2514,837;  243,104; 1838,004;142,43731
1073,75; 2464,144;  238,488; 1792,850;143,18778
1074,29; 2409,913;  245,950; 1790,388;140,11328
1074,83; 2413,606;  250,642; 1768,542;142,49710
1075,37; 2354,990;  255,796; 1760,542;139,50487
1075,91; 2350,683;  255,873; 1747,312;140,45565
1076,45; 2311,606;  236,565; 1700,004;141,79212
1076,99; 2263,529;  245,488; 1654,004;143,27429
1077,53; 2233,375;  229,104; 1627,004;143,37729
1078,07; 2230,529;  242,258; 1641,927;142,05293
1078,61; 2184,760;  237,412; 1612,081;141,65939
1079,15; 2172,375;  235,719; 1601,004;141,84997
1079,69; 2147,990;  236,796; 1561,235;144,30223
1080,23; 2121,221;  253,335; 1567,850;142,09697
1080,77; 2136,683;  284,719; 1574,388;143,59988
1081,31; 2057,221;  219,565; 1499,235;143,60397
1081,85; 2054,375;  250,719; 1528,004;141,21017
1082,39; 2015,375;  228,027; 1476,927;143,11379
1082,93; 2003,298;  249,950; 1489,312;141,47188
1083,47; 1951,452;  228,565; 1438,773;142,36288
1084,01; 1959,760;  246,027; 1466,388;140,42828
1084,55; 1911,990;  235,258; 1420,004;141,52675
1085,09; 1931,760;  247,950; 1420,004;143,66316
1085,63; 1867,452;  254,335; 1380,158;143,28338
1086,17; 1840,760;  224,719; 1372,158;140,83896
1086,71; 1831,606;  229,796; 1356,773;142,13331
1087,24; 1835,375;  266,642; 1373,927;141,67385
1087,78; 1799,760;  249,258; 1344,235;141,60133
1088,32; 1727,760;  234,488; 1302,312;139,84256
1088,86; 1765,375;  255,027; 1325,696;141,06580
1089,40; 1722,913;  239,335; 1279,004;142,69720
1089,94; 1699,606;  223,027; 1243,081;144,75499
1090,48; 1704,067;  243,258; 1242,312;146,21931
1091,02; 1674,606;  254,258; 1254,081;142,05994
1091,56; 1653,221;  240,642; 1240,312;141,30462
1092,10; 1639,298;  213,412; 1184,927;146,76932
1092,63; 1615,298;  259,258; 1217,465;141,51842
1093,17; 1606,837;  244,719; 1203,004;142,14121
1093,71; 1553,067;  229,488; 1160,235;142,20621
1094,25; 1569,990;  264,950; 1180,158;142,59500
1094,79; 1525,990;  240,488; 1147,542;141,72278
1095,33; 1517,144;  247,796; 1127,312;144,32358
1095,87; 1500,606;  240,412; 1124,619;142,52242
1096,40; 1463,990;  216,950; 1088,619;143,06349
1096,94; 1456,375;  242,104; 1091,927;142,88517
1097,48; 1461,913;  251,181; 1084,465;145,29642
1098,02; 1434,837;  236,181; 1071,927;143,42343
1098,56; 1374,067;  208,104; 1018,388;143,89554
1099,10; 1356,144;  220,719; 1013,850;143,15735
1099,63; 1365,375;  216,642; 1022,465;142,55396
1100,17; 1342,990;  235,565; 1028,696;139,62704
1100,71; 1368,837;  259,719; 1034,465;143,15880

