
Integration time [ms]: 120,000
Averaging Nr. [scans]: 13
Smoothing Nr. [pixels]: 0
Data measured with spectrometer [name]: 2009305U1
Wave   ;Sample   ;Dark     ;Reference;Reflectance
[nm]   ;[counts] ;[counts] ;[counts] ;[%]

 175,72;  202,891;  198,725;  209,729;37,85923
 176,32;  217,329;  233,791;  221,495; 0,00000
 176,92;  264,297;  251,952;  246,144; 0,00000
 177,52;  264,187;  249,569;  261,381;123,75468
 178,12;  235,642;  210,945;  220,620;255,25416
 178,72;  269,115;  248,635;  250,038;1459,33316
 179,32;  261,622;  255,406;  241,911; 0,00000
 179,92;  256,226;  255,641;  248,129; 0,00000
 180,52;  241,919;  233,115;  240,492;119,34086
 181,12;  266,285;  249,103;  245,056; 0,00000
 181,73;  286,262;  265,873;  272,598;303,17117
 182,33;  356,387;  349,879;  341,303; 0,00000
 182,93;  265,745;  259,492;  262,580;202,44449
 183,53;  242,801;  241,402;  230,123; 0,00000
 184,13;  238,457;  231,942;  223,284; 0,00000
 184,73;  277,743;  262,785;  270,840;185,69743
 185,33;  268,816;  235,800;  340,235;31,61404
 185,93;  275,454;  233,331;  341,231;39,03901
 186,53;  278,429;  252,412;  358,480;24,52818
 187,13;  302,714;  259,651;  408,456;28,93941
 187,73;  278,258;  235,102;  356,651;35,50520
 188,33;  285,072;  242,097;  355,217;37,99038
 188,93;  287,368;  252,084;  372,324;29,34496
 189,53;  286,922;  250,458;  375,462;29,17048
 190,13;  327,163;  288,441;  393,447;36,87607
 190,73;  254,889;  221,607;  354,699;25,00703
 191,34;  300,067;  261,772;  383,107;31,56140
 191,94;  274,140;  243,170;  355,212;27,64190
 192,54;  285,239;  244,657;  378,976;30,21282
 193,14;  293,488;  261,650;  386,945;25,41009
 193,74;  283,540;  256,803;  371,292;23,35301
 194,34;  286,595;  254,345;  379,723;25,72269
 194,94;  250,892;  215,650;  345,606;27,11798
 195,54;  237,961;  198,339;  325,621;31,12905
 196,14;  256,212;  226,731;  350,792;23,76332
 196,74;  248,315;  216,030;  338,690;26,32108
 197,34;  234,947;  203,967;  338,400;23,04511
 197,94;  259,109;  224,267;  375,503;23,03814
 198,54;  271,044;  232,346;  384,669;25,40490
 199,14;  241,262;  223,046;  367,104;12,64441
 199,74;  231,550;  202,354;  368,520;17,57037
 200,34;  231,186;  194,509;  366,971;21,26647
 200,94;  266,686;  234,889;  406,748;18,50219
 201,54;  252,188;  216,814;  407,160;18,58419
 202,14;  265,962;  240,665;  454,320;11,83988
 202,74;  242,237;  228,200;  447,857; 6,39062
 203,34;  243,229;  181,976;  463,089;21,78932
 203,94;  213,174;  166,204;  459,631;16,00721
 204,54;  280,816;  236,729;  542,983;14,39561
 205,14;  253,093;  194,585;  536,212;17,12644
 205,74;  307,190;  237,668;  639,180;17,31502
 206,34;  255,966;  204,050;  630,780;12,16614
 206,94;  286,811;  210,433;  685,452;16,07902
 207,54;  254,423;  177,588;  721,425;14,12831
 208,14;  278,659;  208,358;  795,906;11,96517
 208,74;  268,473;  208,200;  848,241; 9,41706
 209,34;  273,772;  207,355;  912,599; 9,41760
 209,94;  304,180;  216,431; 1015,259;10,98471
 210,54;  301,598;  207,205; 1109,050;10,46658
 211,14;  314,834;  214,662; 1195,427;10,21366
 211,73;  320,635;  208,506; 1299,988;10,27311
 212,33;  329,321;  222,812; 1397,255; 9,06892
 212,93;  346,511;  208,738; 1479,640;10,84058
 213,53;  314,377;  184,046; 1538,349; 9,62345
 214,13;  353,207;  193,748; 1630,932;11,09523
 214,73;  345,654;  179,434; 1625,550;11,49420
 215,33;  311,719;  163,585; 1674,567; 9,80379
 215,93;  377,892;  208,899; 1774,717;10,79264
 216,53;  338,381;  168,430; 1832,838;10,21090
 217,13;  412,795;  229,436; 2022,497;10,22601
 217,73;  402,854;  197,822; 2208,241;10,19844
 218,33;  402,044;  156,057; 2364,675;11,13762
 218,93;  451,859;  181,834; 2630,757;11,02626
 219,53;  487,641;  180,903; 2889,476;11,32469
 220,13;  492,844;  168,059; 3125,529;10,98186
 220,73;  569,680;  190,893; 3430,322;11,69303
 221,32;  606,473;  184,508; 3811,856;11,63289
 221,92;  668,656;  193,366; 4182,543;11,91449
 222,52;  674,782;  172,284; 4562,289;11,44640
 223,12;  749,648;  184,900; 4945,153;11,86382
 223,72;  797,475;  200,285; 5311,646;11,68358
 224,32;  820,292;  192,747; 5676,679;11,44335
 224,92;  863,494;  183,362; 5950,894;11,79243
 225,52;  909,408;  207,356; 6276,099;11,56832
 226,12;  943,415;  187,051; 6571,650;11,84669
 226,72;  961,121;  160,666; 6841,878;11,98068
 227,31;  982,554;  156,666; 7219,939;11,69270
 227,91; 1077,797;  190,894; 7541,280;12,06607
 228,51; 1085,283;  186,812; 7911,520;11,63113
 229,11; 1151,731;  181,820; 8271,138;11,99003
 229,71; 1172,886;  176,122; 8541,977;11,91466
 230,31; 1192,774;  169,748; 8933,640;11,67319
 230,91; 1242,344;  158,502; 9183,125;12,00982
 231,51; 1279,671;  167,360; 9538,918;11,86900
 232,10; 1334,766;  169,980; 9825,075;12,06395
 232,70; 1364,980;  177,422;10037,261;12,04440
 233,30; 1422,180;  204,206;10330,930;12,02732
 233,90; 1416,766;  173,898;10431,145;12,11698
 234,50; 1465,195;  173,514;10561,102;12,43485
 235,10; 1448,033;  170,439;10679,048;12,15759
 235,70; 1508,955;  196,355;10707,048;12,48823
 236,29; 1499,727;  189,507;10660,055;12,51339
 236,89; 1478,560;  164,349;10563,896;12,63720
 237,49; 1514,400;  187,436;10546,988;12,80909
 238,09; 1504,274;  169,434;10299,934;13,17644
 238,69; 1499,808;  199,577;10085,824;13,15192
 239,29; 1466,062;  173,126; 9816,008;13,40819
 239,89; 1446,897;  193,964; 9557,989;13,38028
 240,48; 1416,168;  169,819; 9189,380;13,81829
 241,08; 1397,783;  173,895; 8870,359;14,07340
 241,68; 1371,173;  202,973; 8542,428;14,00811
 242,28; 1315,098;  173,206; 8296,267;14,05741
 242,88; 1349,803;  210,364; 8015,271;14,59901
 243,48; 1323,881;  214,359; 7813,649;14,60034
 244,07; 1286,152;  190,279; 7524,495;14,94193
 244,67; 1304,005;  193,589; 7335,200;15,54854
 245,27; 1289,635;  198,121; 7224,988;15,53343
 245,87; 1305,976;  202,978; 7137,422;15,90607
 246,47; 1307,279;  186,737; 7152,619;16,08615
 247,06; 1301,970;  178,433; 7115,577;16,19596
 247,66; 1351,476;  190,742; 7171,967;16,62651
 248,26; 1414,092;  211,199; 7383,422;16,77156
 248,86; 1449,472;  187,583; 7554,528;17,12906
 249,46; 1468,228;  151,745; 7751,040;17,32376
 250,05; 1592,129;  205,203; 8059,625;17,65791
 250,65; 1627,423;  156,351; 8391,138;17,86411
 251,25; 1745,681;  175,510; 8846,420;18,10850
 251,85; 1845,623;  188,657; 9377,235;18,03289
 252,44; 1939,213;  152,046;10031,610;18,08954
 253,04; 2113,911;  201,662;10746,245;18,13489
 253,64; 2217,889;  153,197;11314,012;18,49947
 254,24; 2434,841;  191,741;12220,363;18,64802
 254,84; 2591,075;  166,745;13137,194;18,69118
 255,43; 2789,574;  180,354;13986,565;18,89889
 256,03; 2992,447;  179,120;14914,490;19,09234
 256,63; 3207,762;  182,657;15992,265;19,13460
 257,23; 3371,508;  178,195;16766,067;19,25089
 257,82; 3628,798;  187,423;17744,651;19,60090
 258,42; 3728,676;  152,113;18540,057;19,45059
 259,02; 3967,762;  195,508;19439,475;19,60227
 259,62; 4113,320;  174,574;20014,745;19,85238
 260,21; 4232,766;  187,584;20539,271;19,87640
 260,81; 4310,453;  174,128;20993,664;19,86752
 261,41; 4422,846;  166,037;21535,894;19,91969
 262,01; 4598,189;  206,264;21932,846;20,21452
 262,60; 4615,738;  161,657;22263,375;20,15265
 263,20; 4695,794;  174,198;22619,064;20,14534
 263,80; 4752,347;  197,880;22817,691;20,13486
 264,40; 4738,324;  155,342;23010,849;20,05198
 264,99; 4823,174;  195,802;23187,520;20,12625
 265,59; 4788,871;  168,336;23290,435;19,98320
 266,19; 4823,020;  175,572;23408,876;20,00339
 266,78; 4886,523;  207,185;23564,540;20,03368
 267,38; 4838,305;  185,875;23535,671;19,92493
 267,98; 4803,484;  178,493;23588,757;19,75626
 268,58; 4856,276;  189,029;23610,424;19,92728
 269,17; 4790,499;  178,179;23588,237;19,70230
 269,77; 4754,194;  192,578;23479,767;19,58852
 270,37; 4702,255;  161,110;23253,673;19,66497
 270,96; 4677,784;  219,115;23179,220;19,41920
 271,56; 4588,272;  181,041;22949,788;19,35649
 272,16; 4525,610;  181,652;22839,153;19,17227
 272,75; 4505,970;  179,345;22647,263;19,25690
 273,35; 4497,433;  185,962;22752,668;19,10545
 273,95; 4381,490;  182,345;22634,525;18,70261
 274,54; 4383,211;  162,280;22661,239;18,76056
 275,14; 4437,765;  199,500;23009,838;18,58046
 275,74; 4420,422;  157,729;22979,523;18,67817
 276,33; 4481,843;  206,040;23339,167;18,48346
 276,93; 4497,875;  185,666;23789,475;18,26913
 277,53; 4556,478;  184,200;24196,394;18,20857
 278,12; 4674,830;  159,196;24656,393;18,43327
 278,72; 4814,751;  210,968;25209,099;18,41651
 279,32; 4840,871;  177,353;25795,343;18,20408
 279,91; 4966,591;  173,275;26468,338;18,22896
 280,51; 5094,425;  180,661;27006,795;18,31708
 281,11; 5214,870;  181,582;27679,169;18,30447
 281,70; 5317,331;  155,889;28143,812;18,44168
 282,30; 5420,810;  175,887;28664,557;18,41056
 282,90; 5536,921;  184,733;29140,880;18,48377
 283,49; 5673,722;  191,654;29639,315;18,61631
 284,09; 5804,263;  209,735;30013,118;18,77145
 284,69; 5915,539;  208,352;30383,634;18,91345
 285,28; 6043,898;  198,581;30659,164;19,18977
 285,88; 6227,489;  234,268;31004,553;19,47730
 286,47; 6264,709;  178,656;30948,156;19,77950
 287,07; 6386,429;  220,122;30971,081;20,05240
 287,67; 6557,727;  205,282;31249,572;20,46252
 288,26; 6652,265;  173,583;31154,111;20,91211
 288,86; 6814,153;  177,427;31163,873;21,41816
 289,46; 7072,861;  194,890;31354,786;22,07315
 290,05; 7330,854;  176,971;31383,773;22,92412
 290,65; 7550,862;  191,425;31591,261;23,43782
 291,24; 7817,939;  197,814;31745,730;24,15413
 291,84; 8047,685;  198,734;31851,188;24,79729
 292,44; 8365,651;  193,513;31994,544;25,69771
 293,03; 8648,078;  249,968;32153,222;26,32368
 293,63; 8850,353;  186,964;32285,480;26,99000
 294,22; 9145,731;  208,736;32427,446;27,73852
 294,82; 9322,040;  179,111;32457,635;28,32512
 295,41; 9382,100;  168,197;32179,428;28,78335
 296,01; 9559,873;  220,882;32137,119;29,26094
 296,61; 9561,789;  209,660;31938,498;29,47517
 297,20; 9557,369;  198,652;31498,260;29,90043
 297,80; 9642,581;  189,818;31371,885;30,31474
 298,39; 9632,161;  168,349;31012,542;30,68264
 298,99; 9628,736;  196,577;30953,082;30,66720
 299,58; 9631,871;  210,666;30637,168;30,96381
 300,18; 9586,907;  218,664;30536,651;30,89995
 300,78; 9543,065;  187,969;30175,812;31,19629
 301,37; 9557,457;  210,801;30210,608;31,15572
 301,97; 9598,755;  192,736;30210,385;31,33496
 302,56; 9561,627;  180,117;30097,031;31,35855
 303,16; 9488,179;  178,501;30021,826;31,19518
 303,75; 9503,522;  188,816;30056,938;31,18611
 304,35; 9560,806;  181,592;30296,229;31,14503
 304,94; 9564,779;  192,275;30223,710;31,20898
 305,54; 9518,319;  202,738;30212,702;31,04163
 306,13; 9430,936;  162,515;30220,877;30,83475
 306,73; 9395,300;  171,667;29981,020;30,94208
 307,33; 9384,660;  197,897;30003,878;30,82188
 307,92; 9312,953;  200,276;30009,930;30,56955
 308,52; 9411,126;  164,039;30460,332;30,52217
 309,11; 9501,671;  184,805;30865,317;30,36737
 309,71; 9552,434;  165,957;31097,892;30,34559
 310,30; 9600,285;  168,199;31341,744;30,25670
 310,90; 9719,285;  214,660;31732,359;30,15647
 311,49; 9679,126;  187,198;31844,388;29,98348
 312,09; 9665,629;  150,125;31981,436;29,89353
 312,68; 9766,377;  221,508;32445,118;29,62073
 313,28; 9743,415;  164,968;32508,776;29,61447
 313,87; 9729,477;  155,737;32612,835;29,49660
 314,47; 9747,614;  179,883;32880,460;29,25860
 315,06; 9756,410;  164,892;33020,392;29,19304
 315,66; 9735,321;  163,895;33161,590;29,00635
 316,25; 9632,030;  153,271;33134,720;28,73967
 316,85; 9595,009;  150,895;33146,514;28,62233
 317,44; 9578,354;  168,882;33320,627;28,38304
 318,04; 9555,103;  157,041;33358,819;28,30590
 318,63; 9455,776;  156,129;33413,451;27,96271
 319,22; 9441,406;  181,886;33687,260;27,63592
 319,82; 9412,965;  176,965;33726,732;27,52925
 320,41; 9287,536;  188,887;33581,370;27,24760
 321,01; 9237,489;  194,740;33730,664;26,96436
 321,60; 9187,143;  183,350;33856,364;26,73890
 322,20; 9135,208;  167,276;33758,639;26,69714
 322,79; 9090,194;  207,430;33929,362;26,34121
 323,39; 9036,498;  173,438;34018,334;26,18729
 323,98; 8943,550;  164,200;33942,472;25,99112
 324,58; 8858,756;  173,116;33789,917;25,83720
 325,17; 8793,530;  185,502;33722,475;25,66728
 325,76; 8728,313;  194,121;33481,634;25,63782
 326,36; 8538,369;  166,894;33169,218;25,36632
 326,95; 8463,812;  201,197;32821,858;25,32939
 327,55; 8304,186;  172,273;32580,839;25,09186
 328,14; 8202,923;  161,050;32147,564;25,14145
 328,74; 8046,185;  198,502;31792,923;24,83882
 329,33; 7885,666;  195,278;31370,401;24,66835
 329,92; 7671,926;  154,959;30887,103;24,45962
 330,52; 7559,683;  189,204;30203,412;24,55663
 331,11; 7411,388;  187,197;29806,103;24,39048
 331,71; 7236,668;  178,967;29282,569;24,25027
 332,30; 7103,548;  195,506;28842,479;24,11439
 332,89; 6976,123;  236,124;28405,815;23,92642
 333,49; 6797,442;  194,351;27811,673;23,90924
 334,08; 6639,556;  177,196;27493,100;23,65787
 334,68; 6504,292;  192,581;27000,316;23,54437
 335,27; 6420,337;  191,512;26650,986;23,54100
 335,86; 6337,696;  222,889;26456,564;23,30900
 336,46; 6263,131;  194,436;26199,541;23,33655
 337,05; 6204,821;  176,966;26018,241;23,32646
 337,65; 6133,152;  160,811;25875,670;23,22525
 338,24; 6170,660;  224,123;25891,948;23,16728
 338,83; 6080,670;  200,738;25754,918;23,00967
 339,43; 6041,285;  173,348;25758,583;22,93486
 340,02; 6069,516;  175,578;25570,534;23,20909
 340,61; 6075,780;  177,122;25648,038;23,15840
 341,21; 6057,031;  210,963;25690,769;22,94392
 341,80; 6065,373;  189,657;25615,084;23,10961
 342,40; 6064,846;  180,589;25697,459;23,06026
 342,99; 6078,584;  179,355;25775,661;23,04719
 343,58; 6091,897;  181,355;25977,863;22,91218
 344,18; 6185,008;  197,971;26092,927;23,12048
 344,77; 6289,241;  165,732;26394,318;23,34670
 345,36; 6326,427;  166,658;26652,242;23,25706
 345,96; 6426,849;  207,432;26959,571;23,24830
 346,55; 6510,522;  170,207;27168,889;23,48379
 347,14; 6556,505;  163,435;27487,598;23,39713
 347,74; 6676,925;  144,827;27869,864;23,56029
 348,33; 6906,083;  178,596;28420,892;23,82061
 348,92; 7055,951;  181,599;29109,307;23,76390
 349,52; 7208,960;  159,597;29486,131;24,03749
 350,11; 7332,438;  177,654;29780,485;24,16926
 350,70; 7373,968;  172,122;29801,438;24,30649
 351,29; 7312,109;  170,031;29587,678;24,27821
 351,89; 7380,272;  198,574;29521,502;24,49175
 352,48; 7454,386;  154,891;29577,683;24,80898
 353,07; 7493,347;  190,436;29611,494;24,82206
 353,67; 7531,154;  195,061;29508,263;25,02658
 354,26; 7498,674;  186,127;29303,183;25,11431
 354,85; 7532,206;  183,049;29206,884;25,32111
 355,45; 7547,464;  160,580;28976,851;25,63442
 356,04; 7613,843;  177,667;28863,558;25,92276
 356,63; 7627,913;  201,736;28756,951;26,00638
 357,22; 7653,443;  182,033;28529,688;26,35636
 357,82; 7668,338;  178,573;28303,126;26,63070
 358,41; 7758,813;  197,198;28225,802;26,97821
 359,00; 7757,223;  169,194;28039,475;27,22624
 359,60; 7853,184;  190,200;27965,671;27,58904
 360,19; 7878,242;  189,283;27739,961;27,90842
 360,78; 7917,893;  188,811;27658,808;28,13645
 361,37; 7981,643;  176,735;27434,916;28,63327
 361,97; 8019,408;  189,428;27383,861;28,79259
 362,56; 8019,674;  173,116;27056,561;29,18732
 363,15; 8136,070;  215,273;26861,468;29,72581
 363,74; 8051,225;  191,806;26488,153;29,88787
 364,34; 8100,997;  201,425;26092,628;30,51064
 364,93; 8032,764;  181,423;25766,867;30,68675
 365,52; 7995,004;  158,350;25396,410;31,05093
 366,11; 7996,468;  179,348;25099,599;31,36855
 366,71; 8047,559;  171,271;24664,030;32,15762
 367,30; 8035,706;  181,274;24351,150;32,49678
 367,89; 8108,287;  218,356;24117,806;33,01302
 368,48; 8080,110;  193,114;23831,370;33,36539
 369,07; 7998,275;  180,045;23481,745;33,55219
 369,67; 8067,293;  211,038;23145,589;34,25511
 370,26; 8007,775;  176,584;22904,962;34,45557
 370,85; 8076,066;  189,581;22579,595;35,22323
 371,44; 8098,014;  185,197;22472,583;35,50357
 372,03; 8136,627;  164,425;22167,136;36,23282
 372,63; 8133,346;  157,812;21893,705;36,69292
 373,22; 8147,578;  178,276;21618,236;37,17032
 373,81; 8144,667;  160,581;21348,164;37,68286
 374,40; 8140,630;  189,357;21109,918;38,00697
 374,99; 8206,306;  173,119;20805,236;38,93535
 375,59; 8167,134;  172,818;20548,239;39,23509
 376,18; 8273,359;  201,657;20421,884;39,91895
 376,77; 8291,188;  195,044;20284,216;40,30103
 377,36; 8401,331;  210,812;20218,225;40,93742
 377,95; 8382,290;  197,579;19936,400;41,46505
 378,55; 8429,489;  170,740;19722,664;42,24008
 379,14; 8501,239;  197,196;19652,640;42,68236
 379,73; 8577,791;  190,195;19586,848;43,24249
 380,32; 8744,500;  193,428;19698,446;43,84037
 380,91; 8729,884;  180,730;19479,572;44,29879
 381,50; 8875,347;  201,731;19462,208;45,03323
 382,10; 8881,808;  173,582;19341,830;45,43047
 382,69; 9001,580;  153,196;19281,655;46,25770
 383,28; 9121,222;  205,655;19266,811;46,77349
 383,87; 9095,655;  175,116;19108,719;47,11485
 384,46; 9215,314;  165,112;19057,158;47,90483
 385,05; 9347,486;  219,270;19032,316;48,52067
 385,64; 9416,930;  181,194;19079,829;48,86985
 386,24; 9481,045;  165,265;19008,018;49,43959
 386,83; 9620,001;  200,649;19082,215;49,88650
 387,42; 9783,045;  206,964;19161,969;50,52007
 388,01; 9964,738;  193,645;19331,088;51,05746
 388,60;10203,435;  194,266;19613,654;51,54215
 389,19;10354,248;  170,485;19711,863;52,11384
 389,78;10645,384;  180,564;20001,915;52,79569
 390,37;11016,365;  238,340;20408,716;53,43493
 390,96;11120,867;  193,188;20570,771;53,62598
 391,56;11349,818;  191,407;20731,732;54,32442
 392,15;11580,019;  188,103;21012,597;54,70441
 392,74;11754,283;  164,630;21139,528;55,25487
 393,33;12042,746;  186,714;21382,297;55,93633
 393,92;12417,025;  192,780;21783,988;56,61677
 394,51;12578,491;  170,175;21988,050;56,87225
 395,10;12827,040;  212,461;22189,538;57,39880
 395,69;12987,321;  206,155;22317,361;57,80402
 396,28;13173,422;  205,150;22429,043;58,35284
 396,87;13314,505;  208,293;22506,720;58,77639
 397,46;13484,841;  212,979;22584,582;59,32459
 398,06;13700,435;  224,355;22908,699;59,40696
 398,65;13749,198;  211,721;22862,365;59,76641
 399,24;13956,459;  227,025;23077,241;60,08448
 399,83;14042,041;  208,688;23078,877;60,48639
 400,42;14224,587;  248,124;23183,898;60,93739
 401,01;14386,326;  221,325;23296,255;61,38698
 401,60;14529,346;  244,208;23371,456;61,76757
 402,19;14563,065;  257,022;23296,956;62,09238
 402,78;14607,331;  257,588;23374,469;62,07474
 403,37;14565,903;  233,156;23158,178;62,52010
 403,96;14589,507;  244,024;23048,728;62,90580
 404,55;14634,350;  262,271;22963,326;63,31018
 405,14;14576,631;  238,215;22846,319;63,42158
 405,73;14605,909;  260,611;22788,222;63,67873
 406,32;14617,743;  259,029;22622,115;64,20721
 406,91;14547,994;  257,594;22411,638;64,50470
 407,50;14504,434;  264,260;22245,873;64,78221
 408,09;14355,145;  226,473;21951,682;65,03354
 408,68;14336,643;  254,536;21879,207;65,12056
 409,27;14360,787;  246,476;21712,453;65,75201
 409,86;14325,161;  256,439;21553,202;66,06038
 410,45;14259,674;  293,934;21550,876;65,69967
 411,04;14196,121;  292,352;21485,723;65,60433
 411,63;14036,999;  286,935;21190,695;65,77795
 412,22;13994,090;  280,668;20981,662;66,24523
 412,81;13832,827;  302,989;20780,234;66,07255
 413,40;13628,198;  310,469;20416,348;66,23799
 413,99;13556,617;  342,848;20183,307;66,60012
 414,58;13281,740;  277,159;19746,662;66,79462
 415,17;13219,808;  279,605;19575,189;67,06303
 415,76;13065,896;  270,666;19419,040;66,82150
 416,35;12942,864;  276,443;19110,200;67,25382
 416,94;12977,947;  310,670;19268,010;66,81991
 417,53;13132,593;  280,221;19408,256;67,19128
 418,12;13222,331;  269,533;19521,995;67,27866
 418,71;13452,016;  298,316;19861,765;67,23610
 419,30;13546,741;  287,073;20065,109;67,04239
 419,89;13623,922;  272,460;20163,447;67,12317
 420,48;13821,781;  294,085;20362,535;67,40777
 421,07;13903,072;  290,165;20498,503;67,36282
 421,66;13868,535;  266,558;20466,188;67,33775
 422,25;13833,784;  271,189;20540,583;66,91169
 422,84;13855,623;  299,962;20440,598;67,30503
 423,43;13609,305;  287,647;20178,320;66,97439
 424,02;13498,365;  302,727;19996,442;67,00431
 424,60;13206,237;  280,439;19584,206;66,95998
 425,19;13010,070;  296,044;19327,453;66,80549
 425,78;12920,321;  293,661;19228,750;66,68392
 426,37;12816,562;  300,437;19061,951;66,71170
 426,96;12708,851;  276,206;18925,136;66,66680
 427,55;12583,379;  275,294;18888,508;66,12552
 428,14;12444,013;  267,837;18586,022;66,47043
 428,73;12263,500;  288,366;18469,381;65,86615
 429,32;12322,143;  285,513;18413,992;66,39625
 429,91;12194,318;  320,982;18460,799;65,45455
 430,50;12053,347;  300,065;18279,640;65,37019
 431,08;11941,500;  307,455;18121,157;65,30953
 431,67;11857,139;  330,460;18059,181;65,01698
 432,26;11734,879;  352,773;17866,633;64,98913
 432,85;11478,502;  372,079;17525,688;64,74686
 433,44;11209,302;  388,471;17227,983;64,25858
 434,03;10953,421;  402,711;16826,982;64,23853
 434,62;10629,365;  359,087;16459,216;63,79003
 435,21;10493,619;  365,618;16298,030;63,56853
 435,79;10345,052;  376,323;16109,888;63,35963
 436,38;10257,685;  368,410;15986,717;63,31849
 436,97;10102,374;  351,796;15943,277;62,53786
 437,56; 9981,145;  366,118;15775,296;62,39805
 438,15; 9868,979;  330,960;15658,418;62,22831
 438,74; 9824,018;  358,116;15673,578;61,80618
 439,33; 9790,406;  334,421;15641,739;61,77428
 439,91; 9751,041;  308,120;15728,245;61,23764
 440,50; 9743,455;  353,275;15720,771;61,10417
 441,09; 9792,664;  352,437;15858,362;60,88142
 441,68; 9732,157;  330,291;15871,755;60,49537
 442,27; 9676,293;  309,595;15870,416;60,19411
 442,86; 9633,279;  286,691;15851,837;60,04819
 443,44; 9626,603;  306,610;15894,282;59,79080
 444,03; 9599,270;  376,999;16005,300;59,01007
 444,62; 9499,640;  300,075;15815,177;59,29426
 445,21; 9350,850;  324,227;15685,782;58,76113
 445,80; 9283,152;  356,622;15621,797;58,47643
 446,39; 9068,934;  367,697;15356,081;58,05320
 446,97; 8909,126;  300,708;15192,640;57,80591
 447,56; 8713,037;  305,024;14946,971;57,42414
 448,15; 8635,361;  323,939;14810,409;57,37369
 448,74; 8453,703;  331,940;14558,368;57,08927
 449,33; 8364,506;  323,946;14452,718;56,90913
 449,91; 8136,750;  318,033;14243,239;56,14795
 450,50; 7983,970;  307,954;13988,738;56,10801
 451,09; 7936,586;  335,493;13900,297;56,03540
 451,68; 7796,469;  356,497;13844,731;55,15898
 452,26; 7729,776;  340,040;13735,304;55,16678
 452,85; 7559,980;  319,499;13610,323;54,47729
 453,44; 7569,558;  341,974;13683,567;54,17332
 454,03; 7494,028;  314,351;13625,594;53,93694
 454,61; 7441,150;  311,590;13609,495;53,61417
 455,20; 7520,101;  338,979;13743,391;53,57282
 455,79; 7491,345;  348,740;13741,725;53,33094
 456,38; 7457,352;  342,063;13817,793;52,80077
 456,97; 7442,961;  330,061;13863,829;52,55669
 457,55; 7394,297;  329,759;13876,516;52,14930
 458,14; 7357,820;  356,290;13890,729;51,73122
 458,73; 7286,813;  341,529;13835,213;51,47063
 459,31; 7272,165;  366,306;13850,064;51,21613
 459,90; 7279,844;  383,302;13974,214;50,74378
 460,49; 7313,414;  420,299;14008,495;50,72870
 461,08; 7289,173;  340,310;14107,021;50,47584
 461,66; 7225,790;  341,306;14143,370;49,88011
 462,25; 7268,883;  349,006;14205,437;49,93982
 462,84; 7260,381;  376,465;14250,179;49,61841
 463,43; 7174,645;  301,938;14247,046;49,28400
 464,01; 7170,302;  339,172;14309,864;48,89615
 464,60; 7101,845;  396,704;14200,171;48,57577
 465,19; 6917,367;  339,251;13997,782;48,16122
 465,77; 6927,365;  340,871;13977,125;48,30135
 466,36; 6875,737;  371,245;13839,631;48,29451
 466,95; 6650,757;  353,477;13528,774;47,79611
 467,53; 6504,581;  350,645;13289,085;47,56320
 468,12; 6349,981;  372,646;13030,152;47,22364
 468,71; 6173,603;  349,714;12788,109;46,82187
 469,29; 6079,184;  337,032;12597,465;46,83482
 469,88; 5879,033;  341,805;12287,066;46,35502
 470,47; 5937,371;  410,505;12431,822;45,97554
 471,06; 5882,530;  365,120;12397,793;45,85356
 471,64; 5908,076;  375,118;12462,030;45,77644
 472,23; 5835,718;  332,518;12524,681;45,13719
 472,81; 5850,587;  330,972;12651,188;44,80129
 473,40; 5887,295;  343,056;12714,206;44,81587
 473,99; 6024,632;  441,364;12943,375;44,65896
 474,57; 6008,290;  349,979;13036,466;44,60109
 475,16; 6015,810;  370,204;13165,595;44,12218
 475,75; 6083,549;  376,600;13294,845;44,17744
 476,33; 6059,324;  383,837;13411,872;43,56365
 476,92; 6033,200;  386,288;13452,566;43,21745
 477,51; 6109,667;  371,757;13544,460;43,55910
 478,09; 6076,802;  368,526;13511,952;43,43065
 478,68; 5957,559;  375,529;13454,486;42,67947
 479,27; 6014,463;  407,139;13495,077;42,84345
 479,85; 5975,722;  381,605;13495,561;42,65774
 480,44; 5981,849;  364,993;13660,405;42,24658
 481,02; 6496,921;  382,306;14973,490;41,90623
 481,61; 7314,885;  404,380;16859,203;41,99684
 482,20; 7771,686;  382,844;18027,106;41,87674
 482,78; 8089,185;  415,453;18824,862;41,68375
 483,37; 8254,149;  404,160;19388,819;41,34912
 483,95; 8396,756;  414,546;19540,072;41,73590
 484,54; 8464,293;  429,918;19769,660;41,54334
 485,13; 8372,838;  405,860;19637,609;41,42618
 485,71; 8252,543;  383,088;19561,922;41,03198
 486,30; 8168,524;  414,396;19225,799;41,22036
 486,88; 8017,588;  453,937;18897,130;41,01053
 487,47; 7656,806;  439,784;18158,769;40,73044
 488,05; 7325,870;  423,480;17350,736;40,77678
 488,64; 6819,135;  419,870;16087,163;40,84474
 489,23; 6049,800;  438,174;14340,035;40,36600
 489,81; 5186,892;  428,406;12265,536;40,19966
 490,40; 4857,615;  387,177;11679,649;39,58777
 490,98; 4769,934;  377,333;11388,277;39,89305
 491,57; 4680,656;  389,405;11305,362;39,31172
 492,15; 4675,031;  379,719;11271,497;39,43628
 492,74; 4626,856;  391,249;11185,046;39,24112
 493,32; 4550,886;  401,179;11096,090;38,80076
 493,91; 4498,586;  371,029;10997,172;38,84342
 494,50; 4446,874;  396,040;10987,804;38,24513
 495,08; 4420,133;  367,578;10899,848;38,47751
 495,67; 4409,225;  393,490;10870,398;38,32939
 496,25; 4325,504;  329,188;10741,795;38,37959
 496,84; 4309,422;  352,951;10758,565;38,02246
 497,42; 4262,559;  346,344;10738,589;37,68401
 498,01; 4256,880;  371,414;10640,741;37,83564
 498,59; 4168,228;  337,653;10625,516;37,23392
 499,18; 4167,000;  341,722;10495,159;37,67471
 499,76; 4152,499;  361,958;10446,642;37,58711
 500,35; 4077,237;  344,581;10305,032;37,47477
 500,93; 4038,400;  327,267;10285,849;37,26568
 501,52; 4020,309;  332,883;10186,900;37,42054
 502,10; 3987,606;  357,201;10166,328;37,01048
 502,69; 3896,282;  332,974; 9938,653;37,09585
 503,27; 3836,341;  315,963; 9848,314;36,93084
 503,86; 3798,660;  333,818; 9763,892;36,74247
 504,44; 3735,356;  317,822; 9600,262;36,81719
 505,03; 3650,909;  297,206; 9442,846;36,66996
 505,61; 3581,854;  323,205; 9319,101;36,22373
 506,19; 3527,625;  353,052; 9155,045;36,06652
 506,78; 3439,795;  304,906; 8972,804;36,16665
 507,36; 3375,447;  317,744; 8825,028;35,94217
 507,95; 3323,230;  315,679; 8697,312;35,88264
 508,53; 3279,246;  315,444; 8551,911;35,98390
 509,12; 3194,292;  330,293; 8424,091;35,38510
 509,70; 3166,014;  337,141; 8297,561;35,53673
 510,29; 3112,364;  342,760; 8155,917;35,44794
 510,87; 3025,448;  312,906; 7973,279;35,41005
 511,46; 2998,252;  299,523; 7826,672;35,85328
 512,04; 2914,395;  312,219; 7675,583;35,33950
 512,62; 2879,695;  315,985; 7551,241;35,43358
 513,21; 2773,984;  298,068; 7394,888;34,88768
 513,79; 2751,297;  304,542; 7274,481;35,10440
 514,38; 2676,678;  278,384; 7111,677;35,09719
 514,96; 2653,081;  328,691; 7037,290;34,64793
 515,54; 2573,492;  293,309; 6884,424;34,59480
 516,13; 2555,671;  316,540; 6833,644;34,35775
 516,71; 2499,007;  308,699; 6687,051;34,33971
 517,30; 2429,097;  285,396; 6596,440;33,96745
 517,88; 2431,044;  311,780; 6533,254;34,06369
 518,46; 2376,834;  281,167; 6366,725;34,43672
 519,05; 2372,346;  310,247; 6315,772;34,33670
 519,63; 2316,869;  301,630; 6284,195;33,68520
 520,22; 2343,529;  318,330; 6201,767;34,42204
 520,80; 2261,111;  306,715; 6200,647;33,15946
 521,38; 2267,299;  338,325; 6179,452;33,02400
 521,97; 2220,239;  302,334; 6099,770;33,08195
 522,55; 2227,042;  319,257; 6071,093;33,16828
 523,13; 2195,342;  281,260; 6101,751;32,88524
 523,72; 2202,473;  296,397; 6063,462;33,05105
 524,30; 2261,523;  310,955; 6224,858;32,98274
 524,89; 2243,052;  285,719; 6213,573;33,01925
 525,47; 2274,038;  315,803; 6325,757;32,58320
 526,05; 2281,078;  278,958; 6353,561;32,95886
 526,64; 2323,531;  316,421; 6509,940;32,40662
 527,22; 2359,197;  310,033; 6629,372;32,42687
 527,80; 2390,589;  341,652; 6780,615;31,82091
 528,39; 2392,149;  301,808; 6769,289;32,32078
 528,97; 2426,094;  299,345; 6970,083;31,88177
 529,55; 2500,679;  317,491; 7159,382;31,90913
 530,14; 2576,684;  338,810; 7344,514;31,94360
 530,72; 2587,614;  298,422; 7454,499;31,98948
 531,30; 2586,420;  278,888; 7545,394;31,75573
 531,89; 2650,468;  310,657; 7640,840;31,92023
 532,47; 2664,345;  338,274; 7729,848;31,46922
 533,05; 2690,300;  343,267; 7796,815;31,48881
 533,63; 2717,350;  332,891; 7857,868;31,68727
 534,22; 2672,394;  304,506; 7869,622;31,30008
 534,80; 2708,494;  328,588; 7970,261;31,14378
 535,38; 2805,046;  410,504; 8060,182;31,30252
 535,97; 2713,431;  323,198; 8016,588;31,06867
 536,55; 2764,475;  368,974; 8064,957;31,12665
 537,13; 2749,016;  373,810; 8034,684;31,00437
 537,71; 2768,126;  417,348; 8098,650;30,60390
 538,30; 2785,823;  430,431; 8181,139;30,38938
 538,88; 2808,777;  465,362; 8229,021;30,18441
 539,46; 2881,451;  506,050; 8422,968;30,00411
 540,05; 2903,006;  525,283; 8532,797;29,69364
 540,63; 2992,876;  571,745; 8710,352;29,74872
 541,21; 3021,735;  617,364; 8894,721;29,04757
 541,79; 3056,552;  626,210; 9006,166;29,00185
 542,38; 3135,654;  656,437; 9154,071;29,17539
 542,96; 3163,137;  673,291; 9277,109;28,93885
 543,54; 3224,936;  681,055; 9495,579;28,86010
 544,12; 3256,543;  650,903; 9687,525;28,83423
 544,70; 3254,926;  649,214; 9723,665;28,71482
 545,29; 3309,573;  661,052; 9906,533;28,64665
 545,87; 3297,167;  639,902; 9891,628;28,72183
 546,45; 3294,063;  584,052; 9943,577;28,95458
 547,03; 3265,272;  577,285; 9993,574;28,54614
 547,62; 3278,476;  551,441;10139,292;28,44260
 548,20; 3332,031;  553,444;10248,429;28,66004
 548,78; 3325,689;  521,916;10419,246;28,32858
 549,36; 3345,592;  482,684;10605,949;28,28048
 549,94; 3394,025;  446,673;10779,283;28,52475
 550,53; 3428,989;  442,298;10983,233;28,33421
 551,11; 3451,868;  426,534;11153,871;28,20210
 551,69; 3539,476;  445,376;11457,040;28,09839
 552,27; 3549,156;  393,296;11683,084;27,95322
 552,85; 3667,810;  399,918;12082,685;27,97190
 553,44; 3725,481;  399,145;12322,039;27,89872
 554,02; 3806,468;  410,224;12702,216;27,62973
 554,60; 3835,436;  360,611;12983,243;27,52853
 555,18; 3961,486;  398,377;13365,010;27,47906
 555,76; 4015,098;  365,609;13720,647;27,32668
 556,34; 4112,752;  378,230;14113,353;27,18957
 556,93; 4217,400;  370,454;14482,627;27,25977
 557,51; 4252,916;  350,077;14769,016;27,06745
 558,09; 4349,279;  382,300;15199,180;26,77338
 558,67; 4452,957;  375,465;15515,784;26,93135
 559,25; 4508,051;  390,386;15819,991;26,68678
 559,83; 4565,983;  365,467;16095,458;26,70387
 560,41; 4635,001;  368,768;16443,224;26,54045
 561,00; 4698,678;  367,234;16785,108;26,38249
 561,58; 4738,779;  344,767;17004,453;26,37512
 562,16; 4825,065;  347,534;17336,702;26,35521
 562,74; 4881,203;  347,378;17721,201;26,09573
 563,32; 4958,848;  347,775;18125,965;25,93669
 563,90; 5062,894;  361,234;18462,138;25,97473
 564,48; 5161,096;  365,305;18914,710;25,85415
 565,06; 5260,326;  365,772;19433,227;25,66968
 565,65; 5409,703;  363,088;20044,403;25,64166
 566,23; 5580,414;  410,542;20815,016;25,33695
 566,81; 5738,840;  353,232;21434,806;25,54652
 567,39; 5926,921;  363,315;22300,678;25,36133
 567,97; 6095,509;  385,694;22920,733;25,33750
 568,55; 6286,040;  388,621;23740,671;25,25440
 569,13; 6431,423;  364,696;24467,832;25,16987
 569,71; 6620,085;  359,610;25327,132;25,07447
 570,29; 6846,558;  396,608;26245,011;24,95299
 570,87; 7008,310;  396,840;26985,343;24,86590
 571,45; 7149,149;  377,926;27601,029;24,87307
 572,03; 7210,201;  343,239;27961,222;24,86410
 572,61; 7337,353;  334,236;28658,824;24,72451
 573,20; 7473,185;  385,616;29390,848;24,43549
 573,78; 7597,401;  367,006;29875,934;24,50240
 574,36; 7688,405;  373,312;30441,759;24,32814
 574,94; 7760,404;  435,086;30797,227;24,12649
 575,52; 7715,328;  378,016;31008,304;23,95443
 576,10; 7863,902;  432,859;31624,738;23,82365
 576,68; 7953,312;  417,700;32064,698;23,81146
 577,26; 8135,888;  439,173;32824,747;23,76588
 577,84; 8234,977;  435,082;33311,515;23,72488
 578,42; 8265,651;  473,857;33478,651;23,60807
 579,00; 8161,339;  436,775;33635,442;23,26769
 579,58; 8227,784;  469,932;33937,228;23,18040
 580,16; 8164,118;  456,089;33933,363;23,02466
 580,74; 8171,705;  449,474;34083,319;22,95970
 581,32; 8148,563;  440,779;34167,862;22,85340
 581,90; 8109,353;  464,781;34101,747;22,72670
 582,48; 8084,286;  455,012;34282,332;22,55359
 583,06; 8041,885;  455,856;34362,937;22,37299
 583,64; 8076,298;  454,471;34531,442;22,36650
 584,22; 7972,372;  456,171;34396,463;22,14536
 584,80; 7850,968;  481,857;34079,390;21,93349
 585,38; 7753,622;  479,538;33694,321;21,90014
 585,96; 7670,883;  448,161;33857,462;21,61890
 586,54; 7613,910;  469,478;33797,750;21,43655
 587,12; 7589,739;  449,398;34103,124;21,21709
 587,70; 7571,700;  476,238;34127,726;21,08514
 588,28; 7582,374;  458,244;34244,785;21,08570
 588,86; 7527,601;  462,169;34299,191;20,88077
 589,44; 7487,563;  442,022;34369,330;20,76658
 590,02; 7503,547;  447,020;34636,214;20,63964
 590,59; 7450,222;  429,477;34723,288;20,47234
 591,17; 7486,834;  426,029;35011,854;20,41531
 591,75; 7466,080;  422,101;35141,481;20,28832
 592,33; 7517,622;  444,407;35301,180;20,29222
 592,91; 7452,308;  385,181;35532,062;20,10741
 593,49; 7509,070;  390,569;35894,385;20,04996
 594,07; 7523,152;  415,030;36051,230;19,94635
 594,65; 7457,001;  419,478;36152,307;19,69484
 595,23; 7444,908;  409,558;36498,582;19,49443
 595,81; 7454,342;  407,252;36607,944;19,46673
 596,39; 7445,438;  398,945;36722,423;19,39928
 596,97; 7446,587;  397,027;36945,738;19,28812
 597,55; 7397,589;  380,480;36785,822;19,27494
 598,12; 7328,581;  392,801;36843,285;19,02795
 598,70; 7312,400;  377,413;36958,283;18,95796
 599,28; 7338,905;  393,182;37213,576;18,86379
 599,86; 7224,641;  380,797;37142,896;18,61657
 600,44; 7256,056;  347,645;37263,443;18,71397
 601,02; 7246,404;  410,961;37241,988;18,55893
 601,60; 7177,922;  387,409;37168,790;18,46182
 602,18; 7146,331;  361,493;37299,344;18,36825
 602,75; 7111,370;  359,559;37367,219;18,24436
 603,33; 7080,550;  377,951;37360,591;18,12363
 603,91; 7053,218;  361,573;37324,497;18,10367
 604,49; 7053,218;  386,490;37421,470;18,00117
 605,07; 7001,945;  387,870;37436,834;17,85225
 605,65; 6982,359;  397,030;37586,878;17,70733
 606,23; 7008,212;  457,246;37731,038;17,57526
 606,80; 6930,495;  498,175;37784,818;17,25100
 607,38; 6892,261;  531,418;37725,308;17,10185
 607,96; 6898,346;  575,328;37784,125;16,99334
 608,54; 6895,407;  649,646;37914,093;16,76064
 609,12; 6864,846;  630,406;37903,880;16,72621
 609,70; 6821,756;  660,566;38026,295;16,48888
 610,27; 6782,240;  682,020;38081,214;16,31110
 610,85; 6761,919;  702,489;38111,217;16,19790
 611,43; 6727,232;  688,720;38030,852;16,17077
 612,01; 6665,349;  662,254;37782,215;16,17215
 612,59; 6598,434;  667,258;37907,018;15,92700
 613,16; 6560,709;  620,863;37815,017;15,96984
 613,74; 6467,978;  589,336;37665,576;15,85555
 614,32; 6486,523;  559,569;37691,925;15,96170
 614,90; 6429,499;  529,102;37567,978;15,93028
 615,48; 6287,988;  482,018;37205,946;15,80977
 616,05; 6249,391;  448,093;37231,614;15,77146
 616,63; 6185,716;  445,630;37017,359;15,69542
 617,21; 6132,841;  452,174;36928,245;15,57368
 617,79; 6107,112;  431,945;36883,378;15,56912
 618,36; 6046,916;  443,332;36837,895;15,39676
 618,94; 5943,003;  381,250;36430,579;15,42818
 619,52; 5878,020;  405,554;36255,639;15,26486
 620,10; 5816,072;  391,944;36205,497;15,14546
 620,67; 5804,375;  395,630;36085,806;15,15472
 621,25; 5763,369;  413,794;35996,666;15,03413
 621,83; 5685,018;  393,481;35913,241;14,89745
 622,41; 5701,181;  443,096;35948,624;14,80920
 622,98; 5622,798;  398,553;35616,127;14,83420
 623,56; 5592,465;  406,860;35652,446;14,71278
 624,14; 5516,644;  388,334;35464,029;14,62069
 624,72; 5458,575;  383,634;35382,209;14,50042
 625,29; 5455,201;  375,091;35419,278;14,49630
 625,87; 5477,294;  404,484;35448,009;14,47574
 626,45; 5354,262;  358,474;35305,518;14,29531
 627,02; 5351,328;  376,638;35172,688;14,29671
 627,60; 5289,368;  365,953;35208,750;14,13037
 628,18; 5284,000;  336,406;35183,034;14,19820
 628,76; 5263,308;  343,630;35152,622;14,13335
 629,33; 5242,675;  377,787;35141,849;13,99402
 629,91; 5214,303;  360,329;35171,958;13,94354
 630,49; 5233,395;  375,401;35215,998;13,94349
 631,06; 5211,217;  374,785;35425,240;13,79849
 631,64; 5157,849;  362,321;35408,705;13,68338
 632,22; 5142,886;  332,395;35337,755;13,74215
 632,79; 5137,929;  357,395;35576,586;13,57366
 633,37; 5166,204;  343,793;35634,186;13,66494
 633,95; 5157,777;  348,089;35788,117;13,57134
 634,52; 5139,657;  335,557;35793,285;13,54881
 635,10; 5147,197;  331,174;35839,663;13,56302
 635,68; 5153,900;  337,703;36062,263;13,48147
 636,25; 5097,430;  323,237;35952,922;13,39948
 636,83; 5092,769;  314,784;36204,083;13,31312
 637,41; 5108,928;  339,240;36289,950;13,26730
 637,98; 5090,831;  345,009;36452,163;13,14372
 638,56; 5118,756;  340,005;36522,485;13,20736
 639,13; 5044,744;  318,860;36600,787;13,02545
 639,71; 5147,135;  363,554;36768,087;13,14007
 640,29; 4997,530;  288,554;36497,658;13,00495
 640,86; 5028,845;  312,093;36735,158;12,94990
 641,44; 4958,621;  313,478;36666,581;12,77785
 642,02; 4982,090;  344,939;36703,158;12,75406
 642,59; 4992,328;  316,555;36858,197;12,79574
 643,17; 4982,797;  318,863;36784,774;12,78985
 643,74; 4937,881;  307,786;36875,121;12,66183
 644,32; 4910,503;  335,248;36776,006;12,55532
 644,89; 4887,203;  329,633;36777,275;12,50443
 645,47; 4899,979;  340,479;36918,852;12,46502
 646,05; 4848,986;  337,787;36779,199;12,37932
 646,62; 4805,147;  322,326;36798,930;12,28958
 647,20; 4830,462;  333,403;36934,507;12,28668
 647,77; 4745,162;  306,018;36822,392;12,15658
 648,35; 4743,169;  310,711;36681,738;12,18678
 648,92; 4777,791;  327,557;36769,469;12,21186
 649,50; 4698,106;  287,327;36593,124;12,14897
 650,08; 4659,575;  298,173;36527,470;12,03833
 650,65; 4693,582;  301,481;36760,893;12,04655
 651,23; 4721,974;  294,789;37478,009;11,90641
 651,80; 4862,443;  282,097;38426,279;12,00798
 652,38; 4926,527;  297,943;38764,010;12,03290
 652,95; 4932,072;  282,251;39119,125;11,97270
 653,53; 4969,541;  318,021;39376,395;11,90915
 654,10; 4964,625;  339,328;39472,357;11,81942
 654,68; 4929,709;  289,021;39460,626;11,84707
 655,25; 4948,870;  285,867;39602,434;11,86015
 655,83; 4956,262;  284,637;39603,857;11,88128
 656,40; 4942,577;  318,252;39534,204;11,79195
 656,98; 4958,584;  288,714;39457,089;11,92255
 657,55; 4904,745;  299,253;39281,589;11,81431
 658,13; 4832,983;  294,407;39005,397;11,72426
 658,70; 4810,682;  310,869;38751,436;11,70590
 659,28; 4680,690;  314,253;37982,782;11,59174
 659,85; 4571,928;  305,254;37119,206;11,58983
 660,43; 4562,935;  321,177;37207,629;11,49950
 661,00; 4548,403;  304,100;37314,591;11,46784
 661,58; 4603,334;  300,639;37590,860;11,53840
 662,15; 4581,033;  281,024;37801,361;11,46048
 662,73; 4662,887;  346,409;38066,938;11,44331
 663,30; 4675,278;  300,409;38285,515;11,51733
 663,88; 4638,516;  315,178;38452,169;11,33634
 664,45; 4641,293;  290,717;38705,285;11,32533
 665,03; 4709,761;  296,333;38921,093;11,42642
 665,60; 4814,538;  372,563;39514,747;11,34830
 666,17; 4736,853;  304,718;39569,709;11,28775
 666,75; 4754,706;  301,564;39834,209;11,26447
 667,32; 4819,713;  321,718;40222,863;11,27285
 667,90; 4825,797;  297,872;40553,979;11,24780
 668,47; 4893,266;  316,257;40718,941;11,32848
 669,05; 4912,735;  299,719;41088,210;11,30960
 669,62; 4868,126;  274,565;41105,710;11,25014
 670,19; 4917,134;  287,411;41229,826;11,30789
 670,77; 4945,602;  293,719;41441,249;11,30538
 671,34; 4935,379;  301,258;41367,134;11,28460
 671,92; 4934,386;  281,643;41697,327;11,23425
 672,49; 4965,778;  309,643;41711,443;11,24621
 673,06; 4925,939;  256,643;41810,404;11,23676
 673,64; 4901,792;  287,720;41795,982;11,11603
 674,21; 4914,799;  279,721;41652,251;11,20328
 674,79; 4962,806;  305,567;41889,982;11,19948
 675,36; 4958,198;  307,106;42048,405;11,14266
 675,93; 4923,128;  269,798;41923,290;11,17152
 676,51; 4959,674;  296,337;42038,791;11,17169
 677,08; 4950,374;  300,029;42205,676;11,09718
 677,65; 4983,765;  300,876;42223,945;11,17020
 678,23; 5002,619;  299,722;42528,138;11,13681
 678,80; 5006,703;  287,261;42656,253;11,13891
 679,38; 5011,248;  284,030;42765,984;11,12759
 679,95; 5055,717;  303,184;42939,100;11,14678
 680,52; 5082,955;  285,338;43307,216;11,15157
 681,10; 5154,347;  299,338;43558,870;11,22298
 681,67; 5205,662;  298,493;43842,832;11,26936
 682,24; 5162,438;  268,570;43972,563;11,19776
 682,82; 5259,138;  280,108;44494,448;11,26112
 683,39; 5383,299;  326,186;44959,179;11,33044
 683,96; 5318,075;  289,032;45091,371;11,22496
 684,54; 5360,774;  276,109;45456,641;11,25411
 685,11; 5434,089;  309,340;45702,833;11,28961
 685,68; 5466,712;  286,186;46266,487;11,26684
 686,25; 5462,257;  269,033;46346,142;11,27073
 686,83; 5479,188;  281,187;46473,950;11,25285
 687,40; 5531,887;  273,418;46719,296;11,32171
 687,97; 5610,587;  297,110;47163,489;11,33750
 688,55; 5593,978;  260,264;47251,297;11,35049
 689,12; 5604,601;  244,188;47453,335;11,35461
 689,69; 5636,147;  250,342;47563,451;11,38332
 690,26; 5653,923;  267,880;47710,336;11,35279
 690,84; 5668,469;  276,958;47853,298;11,33234
 691,41; 5700,553;  288,496;48013,567;11,34007
 691,98; 5762,560;  295,189;48194,683;11,41426
 692,56; 5761,490;  278,881;48329,260;11,41013
 693,13; 5839,651;  328,728;48309,991;11,48557
 693,70; 5877,351;  300,574;48497,568;11,57080
 694,27; 5856,742;  272,728;48602,222;11,55405
 694,84; 5847,134;  274,344;48711,184;11,50527
 695,42; 5918,526;  331,728;48858,454;11,51283
 695,99; 5950,687;  292,190;49050,723;11,60514
 696,56; 5940,771;  285,575;48886,531;11,63598
 697,13; 6012,086;  302,960;49344,339;11,64145
 697,71; 5999,632;  269,806;49297,147;11,68700
 698,28; 6044,331;  279,345;49636,724;11,68009
 698,85; 6061,261;  255,422;49652,917;11,75331
 699,42; 6029,269;  259,884;49787,879;11,64873
 699,99; 6122,814;  299,115;49910,456;11,73865
 700,57; 6148,821;  294,269;50012,802;11,77539
 701,14; 6136,905;  271,423;50102,610;11,77071
 701,71; 6245,990;  310,808;50372,803;11,85566
 702,28; 6238,304;  286,193;50343,765;11,89053
 702,85; 6239,235;  287,193;50442,034;11,86733
 703,43; 6298,626;  305,116;50729,842;11,88605
 704,00; 6357,711;  323,270;50879,650;11,93606
 704,57; 6318,949;  295,193;50869,381;11,91073
 705,14; 6389,263;  320,578;51078,189;11,95621
 705,71; 6436,501;  325,348;51209,536;12,00993
 706,28; 6437,201;  297,425;51085,036;12,08912
 706,86; 6512,516;  334,810;51220,152;12,14044
 707,43; 6522,215;  349,502;51187,113;12,14202
 708,00; 6524,915;  322,272;51296,614;12,16817
 708,57; 6526,845;  303,964;51216,191;12,22276
 709,14; 6602,467;  323,118;51342,845;12,30769
 709,71; 6574,013;  303,426;51511,961;12,24520
 710,28; 6620,405;  294,888;51644,769;12,31846
 710,86; 6665,104;  311,196;51785,884;12,34375
 711,43; 6695,881;  324,196;51754,539;12,38896
 712,00; 6761,503;  315,504;51848,654;12,50845
 712,57; 6774,895;  311,350;52033,308;12,49671
 713,14; 6798,364;  300,735;52068,655;12,55146
 713,71; 6830,217;  311,428;52110,540;12,58475
 714,28; 6843,070;  294,043;52009,194;12,66365
 714,85; 6878,078;  282,428;51853,925;12,78933
 715,42; 6931,777;  290,121;52085,887;12,82278
 716,00; 7002,477;  358,659;52233,310;12,80744
 716,57; 7002,868;  290,044;52298,579;12,90716
 717,14; 6966,491;  278,967;52131,541;12,89719
 717,71; 7035,652;  261,045;52118,965;13,06379
 718,28; 7094,198;  308,429;52350,926;13,03890
 718,85; 7076,974;  262,891;52374,504;13,07594
 719,42; 7160,673;  289,661;52479,081;13,16553
 719,99; 7143,373;  269,122;52273,735;13,21854
 720,56; 7223,303;  299,353;52573,851;13,24537
 721,13; 7239,387;  271,661;52641,043;13,30496
 721,70; 7283,702;  261,969;52528,851;13,43438
 722,27; 7336,940;  285,969;52482,890;13,50840
 722,84; 7412,255;  332,354;52699,775;13,51967
 723,41; 7360,954;  267,662;52779,891;13,50789
 723,98; 7448,269;  282,970;52943,391;13,60661
 724,55; 7542,200;  312,509;52994,814;13,72319
 725,12; 7480,514;  239,124;52916,776;13,74661
 725,69; 7561,598;  274,586;53109,584;13,79202
 726,27; 7586,067;  278,586;53314,700;13,77831
 726,84; 7674,997;  291,817;53571,892;13,85730
 727,41; 7712,928;  292,048;53460,008;13,95743
 727,98; 7755,935;  301,202;53736,508;13,95095
 728,55; 7833,250;  322,202;53596,470;14,09883
 729,12; 7824,872;  271,664;53726,816;14,12999
 729,69; 7930,418;  304,741;53872,086;14,23568
 730,26; 7976,040;  303,665;54140,048;14,25128
 730,82; 7994,894;  291,203;54027,163;14,33619
 731,39; 8045,055;  297,204;54132,971;14,39164
 731,96; 8109,677;  271,434;54460,395;14,46465
 732,53; 8190,531;  293,204;54703,357;14,51444
 733,10; 8226,692;  303,281;54686,011;14,56972
 733,67; 8299,007;  296,358;54987,973;14,63231
 734,24; 8254,091;  282,743;54595,704;14,67670
 734,81; 8332,406;  323,897;54758,819;14,71208
 735,38; 8345,720;  284,436;54541,550;14,85756
 735,95; 8335,266;  291,282;54325,974;14,88670
 736,52; 8376,812;  307,975;54542,320;14,87773
 737,09; 8368,742;  300,052;54205,128;14,96833
 737,66; 8477,672;  338,283;54294,628;15,08514
 738,23; 8468,602;  283,206;54435,282;15,11557
 738,80; 8626,610;  347,206;54783,244;15,20942
 739,37; 8645,155;  307,360;54988,283;15,24809
 739,94; 8670,855;  291,361;54960,783;15,32757
 740,51; 8804,554;  398,822;54989,976;15,39761
 741,07; 8750,254;  287,669;55001,784;15,46691
 741,64; 8831,261;  305,361;55283,207;15,50788
 742,21; 8892,499;  287,438;55298,861;15,64232
 742,78; 8895,198;  265,515;55003,439;15,76546
 743,35; 8967,436;  296,054;55360,631;15,74766
 743,92; 9070,751;  321,439;55485,901;15,86041
 744,49; 9079,989;  315,978;55347,324;15,92549
 745,06; 9145,304;  283,747;55364,517;16,08830
 745,63; 9181,388;  276,132;55307,940;16,18202
 746,19; 9211,472;  284,978;55291,671;16,22801
 746,76; 9252,864;  295,440;55333,787;16,27488
 747,33; 9298,333;  284,671;55331,287;16,37460
 747,90; 9394,032;  304,287;55570,172;16,44730
 748,47; 9445,655;  292,595;55467,287;16,58924
 749,04; 9466,046;  314,133;55417,095;16,60875
 749,61; 9604,900;  324,903;55368,827;16,85926
 750,17; 9607,138;  311,672;55477,865;16,84993
 750,74; 9654,914;  301,749;55411,981;16,97174
 751,31; 9646,152;  267,826;55307,404;17,03924
 751,88; 9677,851;  266,980;55142,289;17,14955
 752,45; 9793,936;  287,750;55391,174;17,25153
 753,02; 9748,327;  298,442;55082,674;17,24928
 753,58; 9806,181;  276,981;55049,098;17,39790
 754,15; 9862,342;  283,751;55229,829;17,43271
 754,72; 9859,503;  282,828;54954,406;17,51673
 755,29; 9836,433;  267,597;54789,445;17,55046
 755,86; 9931,748;  284,597;54987,330;17,63559
 756,42;10020,832;  286,828;54919,830;17,81708
 756,99;10026,224;  251,136;54833,253;17,90896
 757,56;10039,692;  270,060;54787,677;17,92014
 758,13;10100,084;  211,367;54778,869;18,12199
 758,70;10179,938;  238,598;54822,677;18,21289
 759,26;10213,637;  228,060;54837,562;18,28542
 759,83;10279,260;  239,060;54939,293;18,35495
 760,40;10300,805;  226,753;54823,793;18,45165
 760,97;10261,889;  217,830;54841,678;18,38768
 761,53;10342,589;  200,446;54453,948;18,69399
 762,10;10346,596;  212,984;54440,756;18,68713
 762,67;10414,988;  244,523;54427,102;18,77073
 763,24;10383,841;  202,292;54032,295;18,91426
 763,80;10437,079;  238,677;54121,334;18,92706
 764,37;10496,317;  240,139;54150,218;19,02460
 764,94;10461,632;  216,524;53655,411;19,17163
 765,50;10462,100;  229,447;53698,681;19,13746
 766,07;10660,031;  273,909;53765,258;19,41645
 766,64;10559,884;  237,909;53484,912;19,38508
 767,21;10676,430;  249,525;53336,874;19,64104
 767,77;10622,514;  272,371;53316,989;19,51214
 768,34;10719,906;  278,294;53213,182;19,72539
 768,91;10765,144;  270,371;53061,836;19,87968
 769,47;10804,305;  263,449;53144,952;19,93297
 770,04;10881,466;  273,680;52968,529;20,13059
 770,61;10858,242;  255,988;52776,106;20,18703
 771,18;10877,711;  248,142;52584,299;20,31018
 771,74;10969,564;  271,449;52771,953;20,37717
 772,31;11002,725;  262,527;52573,530;20,53143
 772,88;10989,424;  234,988;52332,800;20,64278
 773,44;10970,586;  253,066;52111,300;20,66696
 774,01;11065,747;  270,373;52206,262;20,78596
 774,58;11033,523;  249,527;51799,300;20,91958
 775,14;11130,761;  247,220;51982,955;21,03680
 775,71;11128,537;  249,605;51886,147;21,06828
 776,27;11227,237;  309,605;51837,878;21,18765
 776,84;11273,705;  331,990;51829,917;21,24690
 777,41;11252,405;  277,836;51661,109;21,35825
 777,97;11259,104;  251,606;51326,225;21,55180
 778,54;11254,496;  273,991;51381,572;21,48508
 779,11;11283,580;  286,837;51416,610;21,50751
 779,67;11382,203;  251,376;51394,803;21,76394
 780,24;11360,441;  269,453;51262,457;21,75002
 780,80;11433,294;  285,068;51128,957;21,92638
 781,37;11483,763;  275,684;51131,765;22,03882
 781,94;11458,770;  254,684;50875,035;22,13356
 782,50;11549,854;  269,607;50789,920;22,32814
 783,07;11629,631;  292,454;50872,805;22,41419
 783,63;11611,407;  257,685;50595,997;22,55483
 784,20;11643,722;  279,685;50630,651;22,56965
 784,77;11600,037;  267,685;50313,844;22,64380
 785,33;11662,890;  241,993;50191,806;22,86474
 785,90;11741,666;  267,686;50231,998;22,96435
 786,46;11773,750;  278,840;50231,191;23,01175
 787,03;11773,988;  248,763;49988,460;23,17108
 787,59;11809,380;  260,840;49854,807;23,28618
 788,16;11903,618;  281,610;49774,076;23,48238
 788,73;11904,010;  269,533;49591,192;23,58898
 789,29;11845,786;  263,302;49230,615;23,65350
 789,86;11951,563;  282,918;49188,731;23,85942
 790,42;11896,878;  270,380;49006,693;23,85592
 790,99;11934,654;  279,611;48804,424;24,01873
 791,55;11915,277;  258,611;48747,001;24,04012
 792,12;12003,130;  286,457;48744,194;24,17916
 792,68;11982,983;  266,611;48385,386;24,34886
 793,25;11960,990;  275,227;48188,348;24,38948
 793,81;12028,459;  330,227;47839,233;24,62319
 794,38;11913,005;  239,458;47655,426;24,61944
 794,94;11930,396;  249,997;47471,003;24,73560
 795,51;11961,634;  282,074;47346,272;24,81623
 796,07;11929,411;  257,536;47077,696;24,92917
 796,64;11876,572;  295,997;47173,273;24,70403
 797,20;11912,271;  280,075;46664,312;25,07791
 797,77;11870,048;  235,921;46331,043;25,23939
 798,33;11869,824;  269,767;46193,928;25,25916
 798,90;11849,985;  287,537;46098,505;25,23948
 799,46;11776,531;  270,229;45575,928;25,39703
 800,03;11825,538;  273,383;45513,275;25,53533
 800,59;11840,545;  285,768;45370,390;25,62909
 801,15;11824,937;  288,230;45134,198;25,72518
 801,72;11781,867;  270,845;44878,006;25,80532
 802,28;11812,105;  294,615;44557,122;26,02087
 802,85;11754,189;  274,307;44399,930;26,01636
 803,41;11736,735;  263,000;44169,892;26,13197
 803,98;11740,588;  261,616;43746,777;26,39745
 804,54;11706,441;  270,154;43444,738;26,48847
 805,11;11738,756;  287,539;43330,623;26,60408
 805,67;11792,379;  308,078;43278,200;26,72625
 806,23;11693,463;  266,001;42761,085;26,89126
 806,80;11728,855;  288,617;42695,124;26,97755
 807,36;11799,247;  287,463;42689,394;27,14920
 807,93;11760,792;  300,848;42473,740;27,17372
 808,49;11733,030;  249,386;42084,317;27,44989
 809,05;11795,499;  251,156;41995,356;27,65496
 809,62;11797,583;  289,002;41842,933;27,69553
 810,18;11804,744;  281,541;41730,818;27,80073
 810,74;11746,828;  245,849;41519,780;27,86500
 811,31;11768,297;  250,618;41268,511;28,07964
 811,87;11844,842;  259,157;41163,627;28,32376
 812,44;11880,465;  294,926;41136,204;28,36723
 813,00;11795,857;  220,004;40883,166;28,46767
 813,56;11941,325;  274,696;40935,204;28,69278
 814,13;11920,102;  259,850;40745,474;28,80097
 814,69;11897,878;  253,235;40594,666;28,86522
 815,25;11848,885;  236,928;40200,705;29,05621
 815,82;11861,046;  280,697;40209,436;29,00254
 816,38;11859,054;  300,005;40000,552;29,11559
 816,94;11792,138;  251,928;39694,129;29,25853
 817,51;11722,914;  238,928;39506,322;29,24560
 818,07;11702,767;  245,775;39250,976;29,37299
 818,63;11741,159;  273,006;39023,861;29,59458
 819,20;11737,705;  259,006;38979,823;29,64477
 819,76;11676,712;  242,391;38565,092;29,83694
 820,32;11641,719;  295,853;38508,823;29,69114
 820,89;11574,188;  276,237;38269,323;29,73686
 821,45;11559,580;  245,930;37985,747;29,97802
 822,01;11497,895;  270,084;37748,939;29,95772
 822,57;11579,979;  262,853;37571,747;30,33359
 823,14;11454,755;  237,854;37367,786;30,20986
 823,70;11457,916;  235,854;37118,902;30,42607
 824,26;11419,231;  249,085;36961,325;30,42622
 824,82;11478,854;  268,854;36806,748;30,68047
 825,39;11399,630;  246,854;36566,787;30,70704
 825,95;11447,252;  264,239;36537,211;30,83015
 826,51;11374,337;  262,547;36125,634;30,98392
 827,08;11429,421;  306,240;36207,211;30,98295
 827,64;11387,043;  270,317;36035,481;31,08255
 828,20;11359,897;  246,471;35772,519;31,28247
 828,76;11389,904;  269,625;35703,635;31,38307
 829,32;11385,296;  276,317;35643,289;31,41060
 829,89;11345,380;  231,241;35524,712;31,49064
 830,45;11402,233;  258,010;35444,982;31,67145
 831,01;11350,548;  252,703;35229,790;31,72890
 831,57;11366,247;  254,011;35069,983;31,91707
 832,14;11409,947;  246,703;35026,252;32,09715
 832,70;11335,108;  243,088;34855,522;32,04634
 833,26;11404,500;  214,704;34669,560;32,47669
 833,82;11361,276;  252,242;34709,291;32,24024
 834,38;11317,591;  247,089;34666,407;32,16363
 834,95;11381,906;  241,473;34489,753;32,52844
 835,51;11369,067;  209,243;34402,561;32,63744
 836,07;11440,766;  253,705;34454,908;32,70956
 836,63;11499,620;  264,013;34434,485;32,88104
 837,19;11499,627;  247,859;34274,139;33,06787
 837,75;11430,095;  219,551;33980,563;33,20559
 838,32;11539,256;  260,167;34076,371;33,35410
 838,88;11618,033;  262,090;34127,948;33,53213
 839,44;11608,425;  255,783;34055,756;33,58772
 840,00;11611,278;  252,014;33936,179;33,72286
 840,56;11582,516;  239,860;33756,295;33,84207
 841,12;11583,215;  235,476;33652,410;33,95805
 841,68;11559,992;  226,091;33490,526;34,07213
 842,25;11632,230;  231,322;33469,488;34,30065
 842,81;11606,545;  231,246;33316,142;34,38215
 843,37;11596,321;  214,938;33260,950;34,44102
 843,93;11635,713;  237,938;33145,219;34,63603
 844,49;11696,335;  247,400;33174,566;34,77048
 845,05;11648,189;  210,170;33065,912;34,81285
 845,61;11722,888;  248,170;33106,643;34,92164
 846,17;11706,357;  235,785;32907,298;35,10879
 846,73;11738,826;  241,940;32803,721;35,30791
 847,29;11696,448;  217,324;32683,913;35,35673
 847,86;11699,071;  235,248;32657,260;35,35815
 848,42;11644,693;  221,017;32423,376;35,47466
 848,98;11651,470;  249,402;32411,414;35,45197
 849,54;11732,092;  232,864;32420,376;35,72574
 850,10;11681,407;  239,172;32242,261;35,75353
 850,66;11709,491;  223,326;32169,223;35,95506
 851,22;11628,344;  216,018;32044,492;35,85571
 851,78;11791,121;  262,172;32190,300;36,10907
 852,34;11680,743;  247,480;31902,878;36,11790
 852,90;11665,597;  239,711;31744,301;36,26737
 853,46;11617,988;  221,327;31626,878;36,28869
 854,02;11649,380;  241,096;31540,686;36,44867
 854,58;11588,464;  237,558;31283,648;36,56147
 855,14;11609,702;  227,712;31230,148;36,71321
 855,70;11564,017;  199,404;31072,802;36,81037
 856,26;11632,332;  247,482;30999,610;37,02134
 856,82;11553,955;  223,174;30911,803;36,92176
 857,38;11598,423;  260,405;30765,842;37,16721
 857,94;11579,354;  225,559;30693,342;37,26492
 858,50;11621,822;  250,790;30567,073;37,50800
 859,06;11528,522;  231,560;30390,266;37,45838
 859,62;11640,298;  239,868;30330,612;37,88683
 860,18;11555,228;  229,406;30161,112;37,83888
 860,74;11525,851;  209,945;29971,689;38,02165
 861,30;11554,474;  208,791;29742,882;38,41555
 861,86;11650,404;  270,638;29919,075;38,38235
 862,42;11602,642;  237,946;29764,806;38,48935
 862,98;11625,726;  266,176;29637,075;38,67621
 863,54;11568,041;  236,946;29389,960;38,86766
 864,10;11649,586;  220,638;29537,691;38,98396
 864,66;11591,209;  213,639;29320,191;39,08938
 865,22;11588,985;  229,485;29208,769;39,19869
 865,78;11580,531;  242,639;29062,269;39,34087
 866,34;11587,923;  221,255;28983,154;39,51988
 866,90;11576,545;  246,716;28842,346;39,62084
 867,45;11554,706;  234,024;28601,462;39,90731
 868,01;11526,483;  240,717;28463,808;39,98770
 868,57;11558,874;  228,640;28331,924;40,31641
 869,13;11525,651;  212,025;28131,732;40,52201
 869,69;11490,504;  229,871;28104,463;40,39748
 870,25;11470,127;  212,025;28013,425;40,49473
 870,81;11512,442;  233,103;27915,694;40,74524
 871,37;11526,295;  241,103;27851,426;40,87309
 871,93;11492,610;  241,334;27679,310;41,00622
 872,49;11429,155;  262,719;27451,272;41,07036
 873,04;11385,778;  217,411;27275,849;41,27499
 873,60;11339,939;  217,181;27180,965;41,25073
 874,16;11365,485;  238,719;27138,312;41,36407
 874,72;11324,331;  230,104;27081,927;41,31648
 875,28;11324,177;  240,258;26971,773;41,46386
 875,84;11381,331;  230,258;26915,388;41,78759
 876,40;11428,638;  222,027;26777,388;42,20094
 876,95;11394,100;  237,104;26837,004;41,94375
 877,51;11481,408;  264,181;26826,235;42,23027
 878,07;11562,331;  270,719;26808,004;42,54999
 878,63;11535,792;  226,335;26831,004;42,50930
 879,19;11586,023;  242,873;26770,696;42,75945
 879,75;11652,485;  233,488;26885,388;42,84496
 880,30;11671,023;  235,258;26834,388;42,99300
 880,86;11822,946;  274,335;27011,312;43,19341
 881,42;11817,254;  217,181;26987,696;43,33153
 881,98;11876,485;  251,104;27128,850;43,25281
 882,54;12026,485;  229,796;27205,542;43,73072
 883,09;12058,485;  240,104;27280,927;43,70570
 883,65;12132,715;  221,027;27450,235;43,74600
 884,21;12299,562;  258,642;27607,927;44,02645
 884,77;12332,715;  217,412;27540,696;44,34058
 885,32;12466,100;  232,104;27752,158;44,45484
 885,88;12551,485;  269,642;27948,927;44,37196
 886,44;12664,023;  234,258;28056,773;44,67520
 887,00;12690,023;  260,796;28002,388;44,80358
 887,56;12801,946;  226,873;28174,927;44,99445
 888,11;12809,792;  234,565;28173,465;45,00974
 888,67;12937,331;  261,258;28362,927;45,10790
 889,23;13034,177;  247,104;28360,696;45,48360
 889,79;12934,946;  219,873;28214,927;45,41900
 890,34;13067,485;  241,565;28168,235;45,92714
 890,90;13187,946;  303,642;28337,619;45,95960
 891,46;13136,408;  222,335;28240,235;46,09222
 892,01;13171,331;  253,950;28197,927;46,22599
 892,57;13164,869;  271,027;28211,465;46,14760
 893,13;13109,792;  224,335;27922,235;46,52142
 893,69;13182,715;  227,642;27872,081;46,86322
 894,24;13128,485;  245,027;27818,542;46,72403
 894,80;13100,408;  248,181;27712,004;46,79693
 895,36;13063,485;  239,642;27574,235;46,91434
 895,91;13009,408;  226,950;27331,773;47,15935
 896,47;12996,562;  252,335;27288,619;47,13749
 897,03;12956,946;  230,488;27012,158;47,51928
 897,58;12953,946;  254,719;27080,619;47,33943
 898,14;12879,408;  246,796;26719,235;47,71986
 898,70;12800,023;  204,950;26620,312;47,68087
 899,25;12810,792;  242,181;26628,465;47,63312
 899,81;12843,331;  248,104;26450,696;48,06863
 900,37;12685,562;  208,258;26203,696;47,99805
 900,92;12713,715;  239,642;26209,081;48,03367
 901,48;12614,638;  225,412;26078,465;47,92172
 902,03;12576,177;  212,335;25948,773;48,04022
 902,59;12527,638;  229,950;25837,081;48,02447
 903,15;12534,177;  256,488;25704,542;48,24608
 903,70;12444,485;  245,027;25477,081;48,34905
 904,26;12441,638;  223,873;25315,773;48,69207
 904,82;12443,946;  242,873;25352,542;48,59113
 905,37;12385,946;  246,719;25189,619;48,66807
 905,93;12321,177;  228,719;25007,312;48,80204
 906,48;12338,331;  243,796;25006,850;48,84105
 907,04;12343,177;  253,335;24911,388;49,02999
 907,60;12245,485;  237,950;24700,542;49,08529
 908,15;12229,946;  230,027;24588,696;49,26344
 908,71;12260,254;  257,027;24614,081;49,28029
 909,26;12205,100;  228,181;24422,619;49,50278
 909,82;12227,715;  257,412;24211,388;49,97209
 910,37;12232,023;  277,027;24242,081;49,88512
 910,93;12156,715;  226,104;24083,312;50,00842
 911,48;12120,177;  220,181;23858,388;50,34221
 912,04;12060,331;  236,796;23776,312;50,22845
 912,60;12127,946;  243,258;23848,235;50,34823
 913,15;12026,715;  239,873;23565,619;50,53147
 913,71;11989,100;  219,873;23403,696;50,76482
 914,26;11955,331;  215,104;23348,850;50,74935
 914,82;12012,792;  236,412;23261,312;51,14628
 915,37;11970,408;  223,642;23194,927;51,13674
 915,93;11976,254;  272,642;23073,158;51,33047
 916,48;11901,638;  225,719;22937,081;51,41004
 917,04;11904,177;  247,104;22802,696;51,68152
 917,59;11878,638;  263,181;22762,158;51,62660
 918,15;11786,100;  196,488;22562,388;51,81822
 918,70;11787,100;  220,873;22468,696;51,98813
 919,26;11742,869;  231,950;22437,081;51,83901
 919,81;11680,100;  220,719;22235,312;52,05357
 920,37;11665,562;  228,642;22167,158;52,13169
 920,92;11669,946;  246,873;22137,081;52,18348
 921,48;11563,408;  214,488;21839,081;52,48154
 922,03;11602,023;  225,950;21859,081;52,58635
 922,59;11498,331;  225,796;21713,158;52,46123
 923,14;11465,562;  224,796;21644,312;52,47908
 923,69;11448,254;  250,565;21559,388;52,54954
 924,25;11440,715;  238,027;21438,619;52,84139
 924,80;11323,638;  233,719;21291,312;52,66471
 925,36;11356,023;  226,104;21189,312;53,09263
 925,91;11339,638;  211,181;21066,542;53,36018
 926,47;11266,408;  208,565;20966,081;53,27151
 927,02;11339,408;  280,335;20992,235;53,39478
 927,57;11261,869;  225,104;20790,696;53,66617
 928,13;11236,562;  213,796;20660,388;53,91004
 928,68;11241,408;  225,258;20638,312;53,96620
 929,24;11057,869;  199,719;20421,388;53,69562
 929,79;11024,177;  206,335;20327,235;53,76421
 930,34;11045,946;  226,873;20180,465;54,22118
 930,90;11027,331;  212,027;20141,465;54,26798
 931,45;11049,715;  229,027;20157,927;54,29647
 932,01;10975,177;  225,873;20021,465;54,30150
 932,56;10920,254;  249,719;19868,388;54,38970
 933,11;10935,638;  253,488;19857,927;54,48843
 933,67;10834,946;  220,488;19695,388;54,50327
 934,22;10832,408;  236,181;19596,312;54,73221
 934,77;10827,562;  257,950;19538,158;54,82105
 935,33;10777,792;  227,796;19370,850;55,11135
 935,88;10796,485;  228,258;19341,158;55,29369
 936,43;10751,408;  228,642;19217,235;55,41625
 936,99;10740,792;  232,719;19116,927;55,64477
 937,54;10634,177;  210,719;18954,773;55,60941
 938,09;10670,408;  227,412;18975,388;55,70199
 938,65;10636,869;  220,950;18836,850;55,95174
 939,20;10627,946;  204,335;18707,773;56,33338
 939,75;10597,100;  211,565;18689,619;56,20470
 940,31;10563,638;  210,412;18486,850;56,64795
 940,86;10620,715;  225,027;18508,004;56,85993
 941,41;10643,792;  290,565;18399,542;57,17179
 941,96;10575,254;  219,258;18250,619;57,43325
 942,52;10527,254;  216,027;18174,235;57,41791
 943,07;10437,715;  197,488;18061,696;57,32259
 943,62;10437,792;  217,719;17999,081;57,47632
 944,18;10414,869;  195,565;17954,158;57,54569
 944,73;10388,408;  233,027;17856,388;57,62454
 945,28;10285,715;  191,027;17627,927;57,89268
 945,83;10382,638;  217,642;17686,773;58,18833
 946,39;10323,331;  223,335;17662,004;57,91724
 946,94;10322,792;  245,335;17545,542;58,25050
 947,49;10234,946;  219,565;17453,696;58,11364
 948,04;10255,100;  253,719;17367,542;58,44037
 948,59;10215,485;  244,950;17351,773;58,28396
 949,15;10227,100;  202,719;17219,850;58,90758
 949,70;10145,946;  218,104;17085,235;58,85911
 950,25;10108,177;  237,181;17045,158;58,72804
 950,80;10071,100;  196,027;16909,081;59,08599
 951,36;10020,331;  197,873;16863,235;58,93936
 951,91;10081,562;  230,565;16832,927;59,33491
 952,46; 9949,792;  199,719;16575,158;59,54084
 953,01; 9999,638;  242,950;16650,619;59,46420
 953,56; 9937,408;  195,104;16489,542;59,78914
 954,11; 9930,792;  233,565;16458,312;59,76813
 954,67; 9900,023;  219,719;16418,312;59,76015
 955,22; 9799,869;  207,181;16251,773;59,78767
 955,77; 9880,485;  242,412;16265,004;60,15302
 956,32; 9792,946;  275,181;16178,927;59,84606
 956,87; 9715,100;  206,565;15991,235;60,23905
 957,42; 9652,023;  211,258;15955,850;59,96196
 957,98; 9655,715;  214,335;15911,465;60,14718
 958,53; 9651,946;  238,412;15814,004;60,43773
 959,08; 9609,792;  201,796;15706,619;60,67787
 959,63; 9592,715;  206,796;15611,312;60,92966
 960,18; 9573,100;  229,873;15587,312;60,83845
 960,73; 9577,100;  226,796;15466,158;61,35627
 961,28; 9487,177;  199,873;15403,312;61,08686
 961,83; 9505,100;  238,181;15367,619;61,25091
 962,39; 9490,023;  204,642;15236,542;61,77117
 962,94; 9468,408;  228,181;15135,158;61,98592
 963,49; 9357,408;  223,565;15083,158;61,46765
 964,04; 9388,715;  235,642;15060,927;61,73961
 964,59; 9417,100;  190,873;14878,773;62,81515
 965,14; 9406,638;  237,950;14853,158;62,73389
 965,69; 9340,869;  226,181;14738,388;62,80704
 966,24; 9266,638;  216,104;14616,465;62,84936
 966,79; 9254,638;  233,488;14561,158;62,96314
 967,34; 9174,715;  193,104;14409,696;63,17696
 967,89; 9135,792;  206,027;14404,312;62,89327
 968,44; 9192,408;  216,027;14305,773;63,70861
 968,99; 9145,331;  221,950;14292,465;63,41900
 969,55; 9085,792;  222,027;14166,619;63,56418
 970,10; 9041,946;  226,488;14098,312;63,54938
 970,65; 9028,023;  246,873;14004,696;63,82659
 971,20; 8989,869;  214,181;13909,773;64,07674
 971,75; 8951,100;  197,796;13668,542;64,98010
 972,30; 8912,485;  223,104;13699,081;64,48053
 972,85; 8818,485;  212,181;13631,004;64,13606
 973,40; 8814,715;  206,258;13559,158;64,46882
 973,95; 8793,331;  222,719;13453,312;64,77874
 974,50; 8776,869;  246,565;13406,773;64,81892
 975,05; 8769,792;  227,335;13275,619;65,46805
 975,60; 8674,408;  233,642;13192,388;65,13566
 976,15; 8665,715;  213,719;13086,158;65,65964
 976,70; 8617,869;  225,719;13024,312;65,57088
 977,25; 8624,408;  228,950;12980,388;65,83930
 977,80; 8567,177;  205,104;12853,542;66,11151
 978,35; 8474,562;  228,565;12647,773;66,39712
 978,89; 8429,792;  198,719;12588,388;66,43497
 979,44; 8441,792;  228,873;12625,081;66,25348
 979,99; 8353,869;  209,873;12401,619;66,79926
 980,54; 8343,869;  243,412;12386,850;66,70646
 981,09; 8285,485;  239,258;12232,388;67,09030
 981,64; 8221,792;  234,873;12097,773;67,32687
 982,19; 8209,331;  261,027;12125,081;66,99484
 982,74; 8104,177;  245,027;11893,081;67,47179
 983,29; 8055,715;  213,950;11764,619;67,89014
 983,84; 8041,408;  235,258;11668,773;68,27428
 984,39; 8029,485;  303,104;11711,542;67,72514
 984,94; 7911,792;  203,027;11481,619;68,34865
 985,49; 7892,638;  250,873;11470,542;68,11043
 986,03; 7854,177;  250,488;11413,235;68,11665
 986,58; 7821,100;  276,027;11242,619;68,80052
 987,13; 7742,562;  237,027;11119,465;68,96924
 987,68; 7691,023;  235,335;11045,773;68,96749
 988,23; 7698,331;  237,258;10984,850;69,42088
 988,78; 7583,715;  223,873;10863,235;69,17560
 989,33; 7533,946;  241,873;10732,696;69,50907
 989,88; 7536,792;  249,642;10721,619;69,58715
 990,42; 7465,562;  232,642;10586,158;69,85955
 990,97; 7378,715;  224,950;10463,004;69,87427
 991,52; 7387,177;  253,719;10376,850;70,46691
 992,07; 7321,100;  255,873;10301,927;70,32838
 992,62; 7243,100;  239,873;10217,773;70,18738
 993,17; 7150,562;  238,181;10072,004;70,29190
 993,71; 7187,715;  248,950; 9954,235;71,49471
 994,26; 7077,715;  222,181; 9825,850;71,38453
 994,81; 7070,023;  250,181; 9767,850;71,65454
 995,36; 6978,485;  226,719; 9628,773;71,81160
 995,91; 6957,562;  235,258; 9593,004;71,83678
 996,45; 6884,792;  236,335; 9483,619;71,89632
 997,00; 6786,331;  207,950; 9335,850;72,06894
 997,55; 6815,485;  233,873; 9334,927;72,31703
 998,10; 6740,331;  265,488; 9163,773;72,76506
 998,65; 6705,715;  231,412; 9172,465;72,41097
 999,19; 6622,485;  252,104; 9013,158;72,71249
 999,74; 6540,177;  276,181; 8985,542;71,92256
1000,29; 6500,715;  246,719; 8828,773;72,87295
1000,84; 6392,792;  223,104; 8741,696;72,42615
1001,38; 6343,177;  237,412; 8648,388;72,59282
1001,93; 6365,946;  248,181; 8601,158;73,24054
1002,48; 6242,100;  221,950; 8410,542;73,51874
1003,03; 6266,100;  238,565; 8394,696;73,90189
1003,57; 6139,715;  249,719; 8249,158;73,63012
1004,12; 6147,792;  272,412; 8205,235;74,06419
1004,67; 6022,331;  226,719; 8094,235;73,66508
1005,22; 5937,792;  217,796; 7967,081;73,81322
1005,76; 5881,177;  217,335; 7848,235;74,22247
1006,31; 5873,023;  247,642; 7815,850;74,32910
1006,86; 5765,408;  222,104; 7678,850;74,33945
1007,40; 5648,254;  210,950; 7571,850;73,86738
1007,95; 5633,485;  236,873; 7480,158;74,50503
1008,50; 5563,792;  231,642; 7337,388;75,03997
1009,04; 5479,792;  219,950; 7249,004;74,83002
1009,59; 5376,331;  240,412; 7142,312;74,41312
1010,14; 5324,254;  216,335; 7033,312;74,92939
1010,68; 5256,869;  229,565; 6973,773;74,54254
1011,23; 5168,946;  224,950; 6797,542;75,22140
1011,78; 5189,638;  234,181; 6780,465;75,69878
1012,32; 5083,254;  247,565; 6639,465;75,65338
1012,87; 5065,331;  253,412; 6621,081;75,56798
1013,42; 4972,177;  218,258; 6484,004;75,87156
1013,96; 4977,946;  258,488; 6507,081;75,52833
1014,51; 4926,023;  198,335; 6424,619;75,93113
1015,06; 4922,869;  204,335; 6429,158;75,80191
1015,60; 5017,562;  268,565; 6443,619;76,90615
1016,15; 4966,254;  224,104; 6407,542;76,69115
1016,69; 4998,331;  233,950; 6431,158;76,87948
1017,24; 5004,331;  205,258; 6454,927;76,78923
1017,79; 5066,562;  251,796; 6551,081;76,43353
1018,33; 5061,408;  218,412; 6526,158;76,77855
1018,88; 5135,254;  242,258; 6598,927;76,97421
1019,42; 5122,254;  229,412; 6609,388;76,69060
1019,97; 5106,100;  209,642; 6586,388;76,78615
1020,51; 5171,869;  243,335; 6614,927;77,35169
1021,06; 5163,638;  199,258; 6623,081;77,28078
1021,61; 5142,638;  204,258; 6566,081;77,62525
1022,15; 5097,331;  180,027; 6530,927;77,42688
1022,70; 5110,562;  223,873; 6544,388;77,31472
1023,24; 5093,177;  217,104; 6506,696;77,52606
1023,79; 5073,638;  214,873; 6440,312;78,04696
1024,33; 5003,254;  219,642; 6432,696;76,99292
1024,88; 5001,562;  224,565; 6301,158;78,61308
1025,42; 4919,100;  216,335; 6201,773;78,57011
1025,97; 4839,100;  219,027; 6159,696;77,77025
1026,51; 4762,485;  185,488; 6011,927;78,55564
1027,06; 4745,408;  206,488; 5991,850;78,45524
1027,60; 4641,254;  239,258; 5887,235;77,93934
1028,15; 4611,869;  245,873; 5774,696;78,96791
1028,69; 4490,946;  198,950; 5671,004;78,43483
1029,24; 4459,792;  217,104; 5593,542;78,91262
1029,78; 4404,100;  215,181; 5512,696;79,07328
1030,33; 4291,946;  196,565; 5423,542;78,35085
1030,87; 4272,408;  222,642; 5339,312;79,14847
1031,42; 4177,792;  202,181; 5270,850;78,43502
1031,96; 4134,485;  233,488; 5172,465;78,98389
1032,51; 4087,177;  211,796; 5112,696;79,07488
1033,05; 4059,946;  216,104; 5063,465;79,29762
1033,60; 3953,715;  191,950; 4923,927;79,49670
1034,14; 3934,331;  213,565; 4874,388;79,83065
1034,69; 3858,408;  219,642; 4796,312;79,50685
1035,23; 3824,023;  208,796; 4739,927;79,78642
1035,77; 3778,408;  201,412; 4670,388;80,04060
1036,32; 3714,485;  190,950; 4605,312;79,81980
1036,86; 3668,485;  214,335; 4557,312;79,53416
1037,41; 3641,562;  225,104; 4481,542;80,26564
1037,95; 3555,485;  194,104; 4382,773;80,24937
1038,50; 3523,792;  206,412; 4372,696;79,62444
1039,04; 3530,869;  233,027; 4333,235;80,43110
1039,58; 3424,100;  196,488; 4222,388;80,17118
1040,13; 3385,331;  218,181; 4185,004;79,84097
1040,67; 3389,946;  237,488; 4167,081;80,22353
1041,21; 3336,638;  238,565; 4070,696;80,84466
1041,76; 3244,331;  199,104; 4016,850;79,76504
1042,30; 3212,485;  215,104; 3950,158;80,25000
1042,85; 3157,023;  217,335; 3897,235;79,88501
1043,39; 3128,408;  207,258; 3822,235;80,80688
1043,93; 3099,100;  223,335; 3783,773;80,76998
1044,48; 3043,177;  223,412; 3736,850;80,25658
1045,02; 3021,946;  213,104; 3690,850;80,76617
1045,56; 2970,869;  232,719; 3675,850;79,52501
1046,11; 2932,485;  220,642; 3615,004;79,89256
1046,65; 2931,946;  229,488; 3556,773;81,22112
1047,19; 2833,638;  207,104; 3511,465;79,48690
1047,74; 2852,177;  197,950; 3420,388;82,36703
1048,28; 2771,562;  220,181; 3400,927;80,21328
1048,82; 2781,023;  238,719; 3362,388;81,38838
1049,37; 2724,792;  228,412; 3294,004;81,43225
1049,91; 2682,792;  230,796; 3252,158;81,15534
1050,45; 2660,023;  233,258; 3229,158;81,00288
1050,99; 2618,638;  216,642; 3161,927;81,55396
1051,54; 2581,023;  208,796; 3103,696;81,94504
1052,08; 2586,100;  250,796; 3090,235;82,24527
1052,62; 2514,100;  236,719; 3048,696;80,98860
1053,16; 2463,408;  217,412; 2967,004;81,68470
1053,71; 2470,485;  230,565; 2937,465;82,74850
1054,25; 2424,638;  241,719; 2895,773;82,24849
1054,79; 2392,946;  231,642; 2873,235;81,81822
1055,33; 2322,792;  195,488; 2796,696;81,78139
1055,88; 2316,100;  231,412; 2778,312;81,85200
1056,42; 2305,638;  245,873; 2757,388;82,01285
1056,96; 2263,792;  238,565; 2705,158;82,10627
1057,50; 2235,715;  224,104; 2676,312;82,03267
1058,05; 2200,331;  221,335; 2629,773;82,16926
1058,59; 2176,100;  247,565; 2595,850;82,12525
1059,13; 2113,792;  206,181; 2532,158;82,01335
1059,67; 2116,715;  224,642; 2534,235;81,92238
1060,21; 2074,792;  218,796; 2464,235;82,65629
1060,76; 2050,408;  229,565; 2448,081;82,07481
1061,30; 2036,254;  248,565; 2444,773;81,39888
1061,84; 2015,331;  229,796; 2349,312;84,24259
1062,38; 1961,715;  218,335; 2286,542;84,29428
1062,92; 1998,869;  266,488; 2345,081;83,34394
1063,46; 1907,715;  247,181; 2274,388;81,91241
1064,01; 1895,869;  224,412; 2233,927;83,17715
1064,55; 1884,177;  231,565; 2217,773;83,20437
1065,09; 1843,562;  204,565; 2145,388;84,44851
1065,63; 1845,100;  253,719; 2166,388;83,20209
1066,17; 1846,792;  262,796; 2143,465;84,22513
1066,71; 1832,869;  247,258; 2125,388;84,42498
1067,25; 1778,100;  241,950; 2079,927;83,57831
1067,80; 1776,485;  256,873; 2061,696;84,19726
1068,34; 1768,177;  258,950; 2065,619;83,53643
1068,88; 1698,485;  225,181; 1990,696;83,44894
1069,42; 1731,100;  252,488; 2018,696;83,71674
1069,96; 1669,100;  234,642; 1949,081;83,66924
1070,50; 1699,023;  276,488; 1963,081;84,34372
1071,04; 1627,562;  220,950; 1888,696;84,34206
1071,58; 1602,485;  232,796; 1878,081;83,24933
1072,12; 1590,946;  233,796; 1855,081;83,70831
1072,66; 1591,331;  227,181; 1840,158;84,57344
1073,21; 1593,946;  243,104; 1838,004;84,69762
1073,75; 1569,562;  238,488; 1792,850;85,63472
1074,29; 1528,638;  245,950; 1790,388;83,05209
1074,83; 1555,638;  250,642; 1768,542;85,97379
1075,37; 1516,177;  255,796; 1760,542;83,76036
1075,91; 1506,100;  255,873; 1747,312;83,82692
1076,45; 1489,254;  236,565; 1700,004;85,59898
1076,99; 1460,100;  245,488; 1654,004;86,23346
1077,53; 1413,946;  229,104; 1627,004;84,75873
1078,07; 1439,638;  242,258; 1641,927;85,54741
1078,61; 1406,946;  237,412; 1612,081;85,07753
1079,15; 1393,869;  235,719; 1601,004;84,82847
1079,69; 1382,100;  236,796; 1561,235;86,47467
1080,23; 1385,715;  253,335; 1567,850;86,14435
1080,77; 1387,408;  284,719; 1574,388;85,50165
1081,31; 1317,792;  219,565; 1499,235;85,82116
1081,85; 1332,254;  250,719; 1528,004;84,67452
1082,39; 1320,638;  228,027; 1476,927;87,48591
1082,93; 1302,869;  249,950; 1489,312;84,95658
1083,47; 1261,638;  228,565; 1438,773;85,36329
1084,01; 1274,485;  246,027; 1466,388;84,27484
1084,55; 1240,023;  235,258; 1420,004;84,80850
1085,09; 1257,254;  247,950; 1420,004;86,11412
1085,63; 1232,408;  254,335; 1380,158;86,87627
1086,17; 1224,946;  224,719; 1372,158;87,17042
1086,71; 1197,792;  229,796; 1356,773;85,89317
1087,24; 1217,638;  266,642; 1373,927;85,88543
1087,78; 1200,792;  249,258; 1344,235;86,89997
1088,32; 1159,408;  234,488; 1302,312;86,61727
1088,86; 1189,562;  255,027; 1325,696;87,28509
1089,40; 1143,177;  239,335; 1279,004;86,93556
1089,94; 1122,792;  223,027; 1243,081;88,20764
1090,48; 1126,331;  243,258; 1242,312;88,39094
1091,02; 1136,946;  254,258; 1254,081;88,28447
1091,56; 1131,177;  240,642; 1240,312;89,08293
1092,10; 1074,100;  213,412; 1184,927;88,59237
1092,63; 1101,946;  259,258; 1217,465;87,94424
1093,17; 1076,869;  244,719; 1203,004;86,83746
1093,71; 1052,946;  229,488; 1160,235;88,47285
1094,25; 1073,177;  264,950; 1180,158;88,31077
1094,79; 1031,638;  240,488; 1147,542;87,22194
1095,33; 1034,254;  247,796; 1127,312;89,41944
1095,87; 1020,869;  240,412; 1124,619;88,26633
1096,40;  964,946;  216,950; 1088,619;85,81193
1096,94;  993,715;  242,104; 1091,927;88,44330
1097,48;  985,562;  251,181; 1084,465;88,13084
1098,02;  961,331;  236,181; 1071,927;86,76678
1098,56;  928,177;  208,104; 1018,388;88,86669
1099,10;  908,100;  220,719; 1013,850;86,66676
1099,63;  927,177;  216,642; 1022,465;88,17501
1100,17;  939,562;  235,565; 1028,696;88,76167
1100,71;  947,254;  259,719; 1034,465;88,74321

