
Integration time [ms]: 120,000
Averaging Nr. [scans]: 13
Smoothing Nr. [pixels]: 0
Data measured with spectrometer [name]: 2009305U1
Wave   ;Sample   ;Dark     ;Reference;Reflectance
[nm]   ;[counts] ;[counts] ;[counts] ;[%]

 175,72;  200,167;  198,725;  209,729;13,10406
 176,32;  227,654;  233,791;  221,495; 0,00000
 176,92;  253,677;  251,952;  246,144; 0,00000
 177,52;  257,034;  249,569;  261,381;63,20168
 178,12;  233,098;  210,945;  220,620;228,96701
 178,72;  268,271;  248,635;  250,038;1399,17676
 179,32;  246,026;  255,406;  241,911; 0,00000
 179,92;  252,020;  255,641;  248,129; 0,00000
 180,52;  239,888;  233,115;  240,492;91,81003
 181,12;  257,269;  249,103;  245,056; 0,00000
 181,73;  273,656;  265,873;  272,598;115,72791
 182,33;  347,527;  349,879;  341,303; 0,00000
 182,93;  272,600;  259,492;  262,580;424,39511
 183,53;  238,352;  241,402;  230,123; 0,00000
 184,13;  236,618;  231,942;  223,284; 0,00000
 184,73;  265,674;  262,785;  270,840;35,86784
 185,33;  265,015;  235,800;  340,235;27,97373
 185,93;  259,379;  233,331;  341,231;24,14080
 186,53;  277,822;  252,412;  358,480;23,95635
 187,13;  299,964;  259,651;  408,456;27,09117
 187,73;  262,970;  235,102;  356,651;22,92767
 188,33;  260,708;  242,097;  355,217;16,45224
 188,93;  272,445;  252,084;  372,324;16,93384
 189,53;  277,878;  250,458;  375,462;21,93542
 190,13;  309,202;  288,441;  393,447;19,77131
 190,73;  259,757;  221,607;  354,699;28,66476
 191,34;  285,513;  261,772;  383,107;19,56661
 191,94;  266,642;  243,170;  355,212;20,94947
 192,54;  281,693;  244,657;  378,976;27,57335
 193,14;  288,242;  261,650;  386,945;21,22313
 193,74;  284,450;  256,803;  371,292;24,14802
 194,34;  277,863;  254,345;  379,723;18,75789
 194,94;  246,038;  215,650;  345,606;23,38341
 195,54;  225,139;  198,339;  325,621;21,05530
 196,14;  249,536;  226,731;  350,792;18,38204
 196,74;  245,979;  216,030;  338,690;24,41680
 197,34;  222,302;  203,967;  338,400;13,63896
 197,94;  257,423;  224,267;  375,503;21,92363
 198,54;  250,524;  232,346;  384,669;11,93336
 199,14;  230,926;  223,046;  367,104; 5,46958
 199,74;  237,283;  202,354;  368,520;21,02046
 200,34;  224,323;  194,509;  366,971;17,28732
 200,94;  265,649;  234,889;  406,748;17,89859
 201,54;  238,312;  216,814;  407,160;11,29426
 202,14;  264,056;  240,665;  454,320;10,94798
 202,74;  237,762;  228,200;  447,857; 4,35311
 203,34;  231,057;  181,976;  463,089;17,45952
 203,94;  202,074;  166,204;  459,631;12,22429
 204,54;  269,019;  236,729;  542,983;10,54357
 205,14;  228,221;  194,585;  536,212; 9,84589
 205,74;  278,035;  237,668;  639,180;10,05363
 206,34;  241,225;  204,050;  630,780; 8,71160
 206,94;  259,366;  210,433;  685,452;10,30121
 207,54;  223,165;  177,588;  721,425; 8,38070
 208,14;  251,962;  208,358;  795,906; 7,42135
 208,74;  256,700;  208,200;  848,241; 7,57764
 209,34;  249,484;  207,355;  912,599; 5,97377
 209,94;  273,680;  216,431; 1015,259; 7,16662
 210,54;  274,679;  207,205; 1109,050; 7,48179
 211,14;  278,350;  214,662; 1195,427; 6,49374
 211,73;  283,409;  208,506; 1299,988; 6,86250
 212,33;  302,522;  222,812; 1397,255; 6,78712
 212,93;  291,524;  208,738; 1479,640; 6,51392
 213,53;  273,826;  184,046; 1538,349; 6,62926
 214,13;  302,887;  193,748; 1630,932; 7,59393
 214,73;  290,748;  179,434; 1625,550; 7,69744
 215,33;  272,680;  163,585; 1674,567; 7,22015
 215,93;  312,834;  208,899; 1774,717; 6,63774
 216,53;  268,027;  168,430; 1832,838; 5,98394
 217,13;  354,024;  229,436; 2022,497; 6,94836
 217,73;  346,087;  197,822; 2208,241; 7,37482
 218,33;  321,210;  156,057; 2364,675; 7,47766
 218,93;  374,970;  181,834; 2630,757; 7,88655
 219,53;  403,183;  180,903; 2889,476; 8,20652
 220,13;  399,754;  168,059; 3125,529; 7,83424
 220,73;  439,857;  190,893; 3430,322; 7,68541
 221,32;  485,084;  184,508; 3811,856; 8,28641
 221,92;  509,285;  193,366; 4182,543; 7,91940
 222,52;  522,685;  172,284; 4562,289; 7,98179
 223,12;  568,219;  184,900; 4945,153; 8,05249
 223,72;  610,730;  200,285; 5311,646; 8,03006
 224,32;  636,904;  192,747; 5676,679; 8,09925
 224,92;  653,187;  183,362; 5950,894; 8,14603
 225,52;  704,031;  207,356; 6276,099; 8,18414
 226,12;  716,962;  187,051; 6571,650; 8,29983
 226,72;  726,161;  160,666; 6841,878; 8,46395
 227,31;  755,443;  156,666; 7219,939; 8,47734
 227,91;  820,232;  190,894; 7541,280; 8,56197
 228,51;  864,282;  186,812; 7911,520; 8,77016
 229,11;  893,716;  181,820; 8271,138; 8,80045
 229,71;  926,064;  176,122; 8541,977; 8,96432
 230,31;  952,220;  169,748; 8933,640; 8,92835
 230,91;  997,013;  158,502; 9183,125; 9,29137
 231,51; 1041,831;  167,360; 9538,918; 9,33112
 232,10; 1087,619;  169,980; 9825,075; 9,50420
 232,70; 1139,171;  177,422;10037,261; 9,75421
 233,30; 1194,069;  204,206;10330,930; 9,77476
 233,90; 1213,814;  173,898;10431,145;10,13835
 234,50; 1240,742;  173,514;10561,102;10,27407
 235,10; 1264,417;  170,439;10679,048;10,41031
 235,70; 1306,554;  196,355;10707,048;10,56256
 236,29; 1327,588;  189,507;10660,055;10,86935
 236,89; 1339,123;  164,349;10563,896;11,29639
 237,49; 1357,719;  187,436;10546,988;11,29666
 238,09; 1361,917;  169,434;10299,934;11,77121
 238,69; 1390,586;  199,577;10085,824;12,04712
 239,29; 1367,669;  173,126; 9816,008;12,38782
 239,89; 1362,686;  193,964; 9557,989;12,48097
 240,48; 1337,200;  169,819; 9189,380;12,94277
 241,08; 1315,495;  173,895; 8870,359;13,12718
 241,68; 1323,952;  202,973; 8542,428;13,44187
 242,28; 1299,933;  173,206; 8296,267;13,87072
 242,88; 1336,244;  210,364; 8015,271;14,42529
 243,48; 1318,054;  214,359; 7813,649;14,52366
 244,07; 1295,361;  190,279; 7524,495;15,06749
 244,67; 1299,830;  193,589; 7335,200;15,49008
 245,27; 1303,871;  198,121; 7224,988;15,73602
 245,87; 1329,765;  202,978; 7137,422;16,24913
 246,47; 1341,895;  186,737; 7152,619;16,58309
 247,06; 1356,733;  178,433; 7115,577;16,98537
 247,66; 1391,552;  190,742; 7171,967;17,20056
 248,26; 1448,516;  211,199; 7383,422;17,25151
 248,86; 1494,995;  187,583; 7554,528;17,74700
 249,46; 1513,089;  151,745; 7751,040;17,91409
 250,05; 1622,716;  205,203; 8059,625;18,04732
 250,65; 1676,161;  156,351; 8391,138;18,45596
 251,25; 1768,408;  175,510; 8846,420;18,37060
 251,85; 1907,725;  188,657; 9377,235;18,70876
 252,44; 2007,906;  152,046;10031,610;18,78484
 253,04; 2151,626;  201,662;10746,245;18,49256
 253,64; 2279,900;  153,197;11314,012;19,05509
 254,24; 2527,435;  191,741;12220,363;19,41780
 254,84; 2658,705;  166,745;13137,194;19,21259
 255,43; 2850,633;  180,354;13986,565;19,34114
 256,03; 3057,510;  179,120;14914,490;19,53388
 256,63; 3258,175;  182,657;15992,265;19,45347
 257,23; 3391,209;  178,195;16766,067;19,36966
 257,82; 3641,928;  187,423;17744,651;19,67569
 258,42; 3757,141;  152,113;18540,057;19,60539
 259,02; 3982,948;  195,508;19439,475;19,68118
 259,62; 4099,691;  174,574;20014,745;19,78369
 260,21; 4240,226;  187,584;20539,271;19,91305
 260,81; 4295,017;  174,128;20993,664;19,79338
 261,41; 4348,320;  166,037;21535,894;19,57094
 262,01; 4507,951;  206,264;21932,846;19,79919
 262,60; 4506,363;  161,657;22263,375;19,65778
 263,20; 4619,731;  174,198;22619,064;19,80646
 263,80; 4648,274;  197,880;22817,691;19,67476
 264,40; 4668,661;  155,342;23010,849;19,74718
 264,99; 4709,817;  195,802;23187,520;19,63322
 265,59; 4701,257;  168,336;23290,435;19,60428
 266,19; 4705,169;  175,572;23408,876;19,49614
 266,78; 4768,521;  207,185;23564,540;19,52848
 267,38; 4712,937;  185,875;23535,671;19,38801
 267,98; 4668,159;  178,493;23588,757;19,17819
 268,58; 4680,681;  189,029;23610,424;19,17756
 269,17; 4655,429;  178,179;23588,237;19,12533
 269,77; 4604,598;  192,578;23479,767;18,94613
 270,37; 4521,139;  161,110;23253,673;18,88067
 270,96; 4543,300;  219,115;23179,220;18,83347
 271,56; 4465,457;  181,041;22949,788;18,81709
 272,16; 4387,645;  181,652;22839,153;18,56335
 272,75; 4342,218;  179,345;22647,263;18,52808
 273,35; 4286,077;  185,962;22752,668;18,16887
 273,95; 4245,037;  182,345;22634,525;18,09487
 274,54; 4202,346;  162,280;22661,239;17,95668
 275,14; 4284,010;  199,500;23009,838;17,90640
 275,74; 4227,451;  157,729;22979,523;17,83261
 276,33; 4295,869;  206,040;23339,167;17,67953
 276,93; 4338,642;  185,666;23789,475;17,59452
 277,53; 4449,715;  184,200;24196,394;17,76395
 278,12; 4502,113;  159,196;24656,393;17,72822
 278,72; 4639,938;  210,968;25209,099;17,71720
 279,32; 4705,238;  177,353;25795,343;17,67463
 279,91; 4776,635;  173,275;26468,338;17,50656
 280,51; 4898,648;  180,661;27006,795;17,58728
 281,11; 5059,148;  181,582;27679,169;17,73816
 281,70; 5099,257;  155,889;28143,812;17,66250
 282,30; 5308,150;  175,887;28664,557;18,01510
 282,90; 5380,266;  184,733;29140,880;17,94276
 283,49; 5543,819;  191,654;29639,315;18,17518
 284,09; 5651,979;  209,735;30013,118;18,26049
 284,69; 5808,228;  208,352;30383,634;18,55782
 285,28; 5875,545;  198,581;30659,164;18,63708
 285,88; 6061,069;  234,268;31004,553;18,93645
 286,47; 6100,524;  178,656;30948,156;19,24590
 287,07; 6284,265;  220,122;30971,081;19,72018
 287,67; 6361,208;  205,282;31249,572;19,82950
 288,26; 6545,883;  173,583;31154,111;20,56873
 288,86; 6697,093;  177,427;31163,873;21,04038
 289,46; 6916,042;  194,890;31354,786;21,56988
 290,05; 7129,050;  176,971;31383,773;22,27745
 290,65; 7375,941;  191,425;31591,261;22,88074
 291,24; 7639,593;  197,814;31745,730;23,58881
 291,84; 7901,098;  198,734;31851,188;24,33418
 292,44; 8178,484;  193,513;31994,544;25,10916
 293,03; 8466,580;  249,968;32153,222;25,75478
 293,63; 8581,318;  186,964;32285,480;26,15185
 294,22; 8843,622;  208,736;32427,446;26,80084
 294,82; 8970,132;  179,111;32457,635;27,23489
 295,41; 9036,411;  168,197;32179,428;27,70345
 296,01; 9212,485;  220,882;32137,119;28,17250
 296,61; 9228,454;  209,660;31938,498;28,42459
 297,20; 9219,032;  198,652;31498,260;28,81946
 297,80; 9262,026;  189,818;31371,885;29,09431
 298,39; 9203,649;  168,349;31012,542;29,29336
 298,99; 9230,171;  196,577;30953,082;29,37133
 299,58; 9210,319;  210,666;30637,168;29,57834
 300,18; 9172,085;  218,664;30536,651;29,53171
 300,78; 9082,119;  187,969;30175,812;29,65919
 301,37; 9067,531;  210,801;30210,608;29,52262
 301,97; 9076,709;  192,736;30210,385;29,59583
 302,56; 9047,772;  180,117;30097,031;29,64094
 303,16; 8983,695;  178,501;30021,826;29,50474
 303,75; 8937,688;  188,816;30056,938;29,29167
 304,35; 9046,541;  181,592;30296,229;29,43734
 304,94; 9010,565;  192,275;30223,710;29,36353
 305,54; 8984,315;  202,738;30212,702;29,26220
 306,13; 8931,115;  162,515;30220,877;29,17191
 306,73; 8817,369;  171,667;29981,020;29,00332
 307,33; 8773,084;  197,897;30003,878;28,77002
 307,92; 8784,067;  200,276;30009,930;28,79534
 308,52; 8880,583;  164,039;30460,332;28,77099
 309,11; 8950,927;  184,805;30865,317;28,57228
 309,71; 8922,348;  165,957;31097,892;28,30858
 310,30; 8986,032;  168,199;31341,744;28,28627
 310,90; 9057,724;  214,660;31732,359;28,05745
 311,49; 9074,049;  187,198;31844,388;28,07214
 312,09; 9024,495;  150,125;31981,436;27,87937
 312,68; 9109,365;  221,508;32445,118;27,58182
 313,28; 9052,528;  164,968;32508,776;27,47840
 313,87; 9038,779;  155,737;32612,835;27,36856
 314,47; 9070,659;  179,883;32880,460;27,18844
 315,06; 9079,821;  164,892;33020,392;27,13375
 315,66; 9014,956;  163,895;33161,590;26,82327
 316,25; 8917,216;  153,271;33134,720;26,57235
 316,85; 8871,634;  150,895;33146,514;26,42999
 317,44; 8846,051;  168,882;33320,627;26,17409
 318,04; 8801,676;  157,041;33358,819;26,03666
 318,63; 8704,228;  156,129;33413,451;25,70291
 319,22; 8683,956;  181,886;33687,260;25,37524
 319,82; 8646,393;  176,965;33726,732;25,24437
 320,41; 8537,683;  188,887;33581,370;25,00202
 321,01; 8465,462;  194,740;33730,664;24,66228
 321,60; 8425,788;  183,350;33856,364;24,47787
 322,20; 8279,000;  167,276;33758,639;24,14824
 322,79; 8321,372;  207,430;33929,362;24,06132
 323,39; 8216,804;  173,438;34018,334;23,76537
 323,98; 8109,008;  164,200;33942,472;23,52047
 324,58; 8065,750;  173,116;33789,917;23,47824
 325,17; 7952,008;  185,502;33722,475;23,15804
 325,76; 7837,397;  194,121;33481,634;22,96139
 326,36; 7669,502;  166,894;33169,218;22,73358
 326,95; 7572,900;  201,197;32821,858;22,59826
 327,55; 7383,396;  172,273;32580,839;22,25067
 328,14; 7201,572;  161,050;32147,564;22,01091
 328,74; 7135,723;  198,502;31792,923;21,95711
 329,33; 6974,581;  195,278;31370,401;21,74587
 329,92; 6834,860;  154,959;30887,103;21,73588
 330,52; 6646,312;  189,204;30203,412;21,51350
 331,11; 6522,647;  187,197;29806,103;21,38989
 331,71; 6367,788;  178,967;29282,569;21,26480
 332,30; 6197,719;  195,506;28842,479;20,95235
 332,89; 6135,060;  236,124;28405,815;20,94072
 333,49; 5951,835;  194,351;27811,673;20,84737
 334,08; 5777,229;  177,196;27493,100;20,50100
 334,68; 5668,882;  192,581;27000,316;20,42806
 335,27; 5567,148;  191,512;26650,986;20,31649
 335,86; 5505,493;  222,889;26456,564;20,13673
 336,46; 5382,235;  194,436;26199,541;19,94916
 337,05; 5326,622;  176,966;26018,241;19,92803
 337,65; 5202,279;  160,811;25875,670;19,60527
 338,24; 5225,278;  224,123;25891,948;19,48414
 338,83; 5218,583;  200,738;25754,918;19,63610
 339,43; 5164,303;  173,348;25758,583;19,50717
 340,02; 5095,797;  175,578;25570,534;19,37479
 340,61; 5098,655;  177,122;25648,038;19,32217
 341,21; 5106,107;  210,963;25690,769;19,21186
 341,80; 5009,205;  189,657;25615,084;18,95562
 342,40; 4996,078;  180,589;25697,459;18,87179
 342,99; 5009,983;  179,355;25775,661;18,87236
 343,58; 5033,658;  181,355;25977,863;18,80992
 344,18; 5071,820;  197,971;26092,927;18,82161
 344,77; 5080,606;  165,732;26394,318;18,73862
 345,36; 5110,823;  166,658;26652,242;18,66738
 345,96; 5195,222;  207,432;26959,571;18,64445
 346,55; 5180,199;  170,207;27168,889;18,55643
 347,14; 5230,039;  163,435;27487,598;18,54258
 347,74; 5282,185;  144,827;27869,864;18,52967
 348,33; 5409,617;  178,596;28420,892;18,52194
 348,92; 5517,990;  181,599;29109,307;18,44734
 349,52; 5578,700;  159,597;29486,131;18,47850
 350,11; 5619,752;  177,654;29780,485;18,38371
 350,70; 5649,079;  172,122;29801,438;18,48493
 351,29; 5579,650;  170,031;29587,678;18,38903
 351,89; 5578,761;  198,574;29521,502;18,34805
 352,48; 5539,657;  154,891;29577,683;18,30134
 353,07; 5538,607;  190,436;29611,494;18,17804
 353,67; 5564,549;  195,061;29508,263;18,31764
 354,26; 5494,744;  186,127;29303,183;18,23198
 354,85; 5455,056;  183,049;29206,884;18,16441
 355,45; 5414,557;  160,580;28976,851;18,23267
 356,04; 5429,692;  177,667;28863,558;18,30874
 356,63; 5400,371;  201,736;28756,951;18,20556
 357,22; 5409,102;  182,033;28529,688;18,43916
 357,82; 5379,673;  178,573;28303,126;18,49310
 358,41; 5328,913;  197,198;28225,802;18,30885
 359,00; 5299,008;  169,194;28039,475;18,40604
 359,60; 5342,189;  190,200;27965,671;18,54870
 360,19; 5347,980;  189,283;27739,961;18,72439
 360,78; 5261,331;  188,811;27658,808;18,46567
 361,37; 5242,304;  176,735;27434,916;18,58367
 361,97; 5278,840;  189,428;27383,861;18,71490
 362,56; 5197,921;  173,116;27056,561;18,69107
 363,15; 5198,527;  215,273;26861,468;18,70156
 363,74; 5128,798;  191,806;26488,153;18,77444
 364,34; 5058,100;  201,425;26092,628;18,75801
 364,93; 4984,119;  181,423;25766,867;18,77121
 365,52; 4912,339;  158,350;25396,410;18,83658
 366,11; 4927,713;  179,348;25099,599;19,05424
 366,71; 4892,725;  171,271;24664,030;19,27694
 367,30; 4829,490;  181,274;24351,150;19,23145
 367,89; 4830,763;  218,356;24117,806;19,29922
 368,48; 4758,205;  193,114;23831,370;19,31230
 369,07; 4716,233;  180,045;23481,745;19,46720
 369,67; 4651,737;  211,038;23145,589;19,36248
 370,26; 4633,948;  176,584;22904,962;19,61145
 370,85; 4623,019;  189,581;22579,595;19,80096
 371,44; 4549,304;  185,197;22472,583;19,58106
 372,03; 4513,266;  164,425;22167,136;19,76502
 372,63; 4520,193;  157,812;21893,705;20,06994
 373,22; 4495,789;  178,276;21618,236;20,13769
 373,81; 4392,083;  160,581;21348,164;19,97161
 374,40; 4427,046;  189,357;21109,918;20,25610
 374,99; 4389,542;  173,119;20805,236;20,43621
 375,59; 4379,500;  172,818;20548,239;20,64586
 376,18; 4378,346;  201,657;20421,884;20,65599
 376,77; 4355,453;  195,044;20284,216;20,70971
 377,36; 4380,981;  210,812;20218,225;20,84312
 377,95; 4347,978;  197,579;19936,400;21,02658
 378,55; 4312,770;  170,740;19722,664;21,18477
 379,14; 4356,123;  197,196;19652,640;21,37667
 379,73; 4383,616;  190,195;19586,848;21,61930
 380,32; 4404,391;  193,428;19698,446;21,58913
 380,91; 4411,034;  180,730;19479,572;21,91999
 381,50; 4416,893;  201,731;19462,208;21,88504
 382,10; 4411,391;  173,582;19341,830;22,10848
 382,69; 4400,778;  153,196;19281,655;22,20556
 383,28; 4478,348;  205,655;19266,811;22,41571
 383,87; 4479,861;  175,116;19108,719;22,73601
 384,46; 4496,093;  165,112;19057,158;22,92489
 385,05; 4564,727;  219,270;19032,316;23,09811
 385,64; 4590,328;  181,194;19079,829;23,33044
 386,24; 4562,609;  165,265;19008,018;23,33706
 386,83; 4666,142;  200,649;19082,215;23,65001
 387,42; 4726,735;  206,964;19161,969;23,84474
 388,01; 4798,572;  193,645;19331,088;24,06240
 388,60; 4916,175;  194,266;19613,654;24,31544
 389,19; 4968,312;  170,485;19711,863;24,55214
 389,78; 5118,067;  180,564;20001,915;24,91002
 390,37; 5292,288;  238,340;20408,716;25,05629
 390,96; 5321,599;  193,188;20570,771;25,16692
 391,56; 5396,910;  191,407;20731,732;25,34285
 392,15; 5498,415;  188,103;21012,597;25,50032
 392,74; 5571,478;  164,630;21139,528;25,77771
 393,33; 5694,726;  186,714;21382,297;25,98660
 393,92; 5908,891;  192,780;21783,988;26,47425
 394,51; 5963,408;  170,175;21988,050;26,55269
 395,10; 6131,971;  212,461;22189,538;26,93493
 395,69; 6226,004;  206,155;22317,361;27,22533
 396,28; 6282,349;  205,150;22429,043;27,34534
 396,87; 6395,061;  208,293;22506,720;27,74531
 397,46; 6490,376;  212,979;22584,582;28,05966
 398,06; 6568,274;  224,355;22908,699;27,96606
 398,65; 6670,790;  211,721;22862,365;28,51605
 399,24; 6763,638;  227,025;23077,241;28,60635
 399,83; 6813,133;  208,688;23078,877;28,87797
 400,42; 6982,799;  248,124;23183,898;29,36319
 401,01; 7052,342;  221,325;23296,255;29,60363
 401,60; 7115,357;  244,208;23371,456;29,71019
 402,19; 7226,078;  257,022;23296,956;30,24773
 402,78; 7249,155;  257,588;23374,469;30,24442
 403,37; 7287,780;  233,156;23158,178;30,77260
 403,96; 7327,262;  244,024;23048,728;31,06043
 404,55; 7366,340;  262,271;22963,326;31,29400
 405,14; 7364,379;  238,215;22846,319;31,52040
 405,73; 7391,101;  260,611;22788,222;31,65222
 406,32; 7464,514;  259,029;22622,115;32,22044
 406,91; 7453,950;  257,594;22411,638;32,48326
 407,50; 7432,822;  264,260;22245,873;32,61163
 408,09; 7409,470;  226,473;21951,682;33,06296
 408,68; 7482,997;  254,536;21879,207;33,42691
 409,27; 7430,211;  246,476;21712,453;33,46568
 409,86; 7484,181;  256,439;21553,202;33,93822
 410,45; 7571,627;  293,934;21550,876;34,23678
 411,04; 7569,807;  292,352;21485,723;34,33836
 411,63; 7541,081;  286,935;21190,695;34,70259
 412,22; 7563,798;  280,668;20981,662;35,18251
 412,81; 7515,607;  302,989;20780,234;35,22260
 413,40; 7502,050;  310,469;20416,348;35,76855
 413,99; 7452,470;  342,848;20183,307;35,83396
 414,58; 7343,315;  277,159;19746,662;36,29346
 415,17; 7305,503;  279,605;19575,189;36,41195
 415,76; 7351,917;  270,666;19419,040;36,98095
 416,35; 7377,830;  276,443;19110,200;37,70563
 416,94; 7430,469;  310,670;19268,010;37,55695
 417,53; 7539,297;  280,221;19408,256;37,94993
 418,12; 7629,604;  269,533;19521,995;38,22924
 418,71; 7899,224;  298,316;19861,765;38,85260
 419,30; 7910,473;  287,073;20065,109;38,54478
 419,89; 8040,246;  272,460;20163,447;39,05178
 420,48; 8315,055;  294,085;20362,535;39,96806
 421,07; 8318,868;  290,165;20498,503;39,72965
 421,66; 8333,558;  266,558;20466,188;39,93638
 422,25; 8464,785;  271,189;20540,583;40,42349
 422,84; 8471,902;  299,962;20440,598;40,57439
 423,43; 8400,657;  287,647;20178,320;40,78801
 424,02; 8385,008;  302,727;19996,442;41,03990
 424,60; 8241,980;  280,439;19584,206;41,24346
 425,19; 8184,664;  296,044;19327,453;41,45053
 425,78; 8243,704;  293,661;19228,750;41,98577
 426,37; 8198,026;  300,437;19061,951;42,09463
 426,96; 8221,230;  276,206;18925,136;42,60311
 427,55; 8194,626;  275,294;18888,508;42,54683
 428,14; 8152,920;  267,837;18586,022;43,04511
 428,73; 8146,518;  288,366;18469,381;43,22174
 429,32; 8176,435;  285,513;18413,992;43,52777
 429,91; 8242,845;  320,982;18460,799;43,67113
 430,50; 8195,490;  300,065;18279,640;43,91330
 431,08; 8171,802;  307,455;18121,157;44,14774
 431,67; 8202,541;  330,460;18059,181;44,40298
 432,26; 8206,476;  352,773;17866,633;44,84279
 432,85; 8081,723;  372,079;17525,688;44,94474
 433,44; 7985,964;  388,471;17227,983;45,11706
 434,03; 7825,767;  402,711;16826,982;45,19565
 434,62; 7676,996;  359,087;16459,216;45,45249
 435,21; 7624,098;  365,618;16298,030;45,55795
 435,79; 7568,371;  376,323;16109,888;45,71149
 436,38; 7556,394;  368,410;15986,717;46,02281
 436,97; 7582,700;  351,796;15943,277;46,37728
 437,56; 7490,439;  366,118;15775,296;46,23427
 438,15; 7466,865;  330,960;15658,418;46,55635
 438,74; 7495,823;  358,116;15673,578;46,60458
 439,33; 7550,165;  334,421;15641,739;47,13918
 439,91; 7558,286;  308,120;15728,245;47,01756
 440,50; 7629,741;  353,275;15720,771;47,34972
 441,09; 7681,036;  352,437;15858,362;47,26322
 441,68; 7722,136;  330,291;15871,755;47,56209
 442,27; 7730,316;  309,595;15870,416;47,68849
 442,86; 7748,452;  286,691;15851,837;47,93891
 443,44; 7777,056;  306,610;15894,282;47,92535
 444,03; 7888,807;  376,999;16005,300;48,06541
 444,62; 7786,179;  300,075;15815,177;48,25043
 445,21; 7767,126;  324,227;15685,782;48,45147
 445,80; 7729,645;  356,622;15621,797;48,29963
 446,39; 7622,139;  367,697;15356,081;48,40042
 446,97; 7561,478;  300,708;15192,640;48,75640
 447,56; 7405,694;  305,024;14946,971;48,49539
 448,15; 7373,877;  323,939;14810,409;48,66567
 448,74; 7269,314;  331,940;14558,368;48,76399
 449,33; 7187,711;  323,946;14452,718;48,58005
 449,91; 7107,258;  318,033;14243,239;48,75493
 450,50; 6988,664;  307,954;13988,738;48,83280
 451,09; 6966,138;  335,493;13900,297;48,88125
 451,68; 6937,185;  356,497;13844,731;48,78835
 452,26; 6908,638;  340,040;13735,304;49,03672
 452,85; 6833,987;  319,499;13610,323;49,01493
 453,44; 6865,306;  341,974;13683,567;48,89470
 454,03; 6807,659;  314,351;13625,594;48,78063
 454,61; 6825,617;  311,590;13609,495;48,98536
 455,20; 6879,710;  338,979;13743,391;48,79536
 455,79; 6910,693;  348,740;13741,725;48,99544
 456,38; 6921,030;  342,063;13817,793;48,82086
 456,97; 6974,528;  330,061;13863,829;49,09547
 457,55; 6994,865;  329,759;13876,516;49,20075
 458,14; 6967,637;  356,290;13890,729;48,84833
 458,73; 6941,330;  341,529;13835,213;48,91030
 459,31; 6936,628;  366,306;13850,064;48,72768
 459,90; 6998,393;  383,302;13974,214;48,67290
 460,49; 7058,253;  420,299;14008,495;48,85089
 461,08; 6991,418;  340,310;14107,021;48,31298
 461,66; 7069,657;  341,306;14143,370;48,74888
 462,25; 7081,162;  349,006;14205,437;48,58506
 462,84; 7129,729;  376,465;14250,179;48,67669
 463,43; 6998,284;  301,938;14247,046;48,01932
 464,01; 7005,806;  339,172;14309,864;47,71871
 464,60; 7034,650;  396,704;14200,171;48,08898
 465,19; 6862,281;  339,251;13997,782;47,75792
 465,77; 6830,426;  340,871;13977,125;47,59046
 466,36; 6810,450;  371,245;13839,631;47,80977
 466,95; 6639,413;  353,477;13528,774;47,71001
 467,53; 6487,681;  350,645;13289,085;47,43258
 468,12; 6364,399;  372,646;13030,152;47,33754
 468,71; 6226,693;  349,714;12788,109;47,24869
 469,29; 6078,310;  337,032;12597,465;46,82769
 469,88; 5925,579;  341,805;12287,066;46,74468
 470,47; 5996,128;  410,505;12431,822;46,46432
 471,06; 5966,034;  365,120;12397,793;46,54754
 471,64; 5971,698;  375,118;12462,030;46,30281
 472,23; 5922,524;  332,518;12524,681;45,84918
 472,81; 5931,857;  330,972;12651,188;45,46093
 473,40; 5996,547;  343,056;12714,206;45,69899
 473,99; 6134,264;  441,364;12943,375;45,53587
 474,57; 6074,718;  349,979;13036,466;45,12470
 475,16; 6109,686;  370,204;13165,595;44,85585
 475,75; 6177,747;  376,600;13294,845;44,90662
 476,33; 6218,427;  383,837;13411,872;44,78488
 476,92; 6215,917;  386,288;13452,566;44,61583
 477,51; 6224,302;  371,757;13544,460;44,42934
 478,09; 6183,736;  368,526;13511,952;44,24424
 478,68; 6142,672;  375,529;13454,486;44,09483
 479,27; 6169,718;  407,139;13495,077;44,02969
 479,85; 6089,933;  381,605;13495,561;43,52865
 480,44; 6117,363;  364,993;13660,405;43,26583
 481,02; 6660,769;  382,306;14973,490;43,02916
 481,61; 7424,550;  404,380;16859,203;42,66330
 482,20; 7826,601;  382,844;18027,106;42,18797
 482,78; 8214,990;  415,453;18824,862;42,36713
 483,37; 8366,246;  404,160;19388,819;41,93958
 483,95; 8481,691;  414,546;19540,072;42,17999
 484,54; 8538,009;  429,918;19769,660;41,92450
 485,13; 8483,031;  405,860;19637,609;41,99915
 485,71; 8367,556;  383,088;19561,922;41,63166
 486,30; 8219,452;  414,396;19225,799;41,49109
 486,88; 8066,189;  453,937;18897,130;41,27405
 487,47; 7775,696;  439,784;18158,769;41,40142
 488,05; 7350,600;  423,480;17350,736;40,92288
 488,64; 6824,535;  419,870;16087,163;40,87921
 489,23; 6074,673;  438,174;14340,035;40,54492
 489,81; 5177,128;  428,406;12265,536;40,11717
 490,40; 4841,165;  387,177;11679,649;39,44210
 490,98; 4719,342;  377,333;11388,277;39,43358
 491,57; 4640,638;  389,405;11305,362;38,94513
 492,15; 4567,613;  379,719;11271,497;38,45005
 492,74; 4529,710;  391,249;11185,046;38,34110
 493,32; 4441,168;  401,179;11096,090;37,77488
 493,91; 4386,927;  371,029;10997,172;37,79262
 494,50; 4359,864;  396,040;10987,804;37,42364
 495,08; 4282,767;  367,578;10899,848;37,17327
 495,67; 4298,539;  393,490;10870,398;37,27292
 496,25; 4178,641;  329,188;10741,795;36,96915
 496,84; 4157,070;  352,951;10758,565;36,55833
 497,42; 4132,503;  346,344;10738,589;36,43254
 498,01; 4098,453;  371,414;10640,741;36,29292
 498,59; 3992,198;  337,653;10625,516;35,52288
 499,18; 3998,766;  341,722;10495,159;36,01779
 499,76; 3978,549;  361,958;10446,642;35,86222
 500,35; 3857,463;  344,581;10305,032;35,26830
 500,93; 3827,828;  327,267;10285,849;35,15120
 501,52; 3781,213;  332,883;10186,900;34,99415
 502,10; 3771,442;  357,201;10166,328;34,80678
 502,69; 3673,992;  332,974; 9938,653;34,78169
 503,27; 3586,231;  315,963; 9848,314;34,30704
 503,86; 3571,304;  333,818; 9763,892;34,33150
 504,44; 3494,034;  317,822; 9600,262;34,21743
 505,03; 3390,355;  297,206; 9442,846;33,82101
 505,61; 3341,845;  323,205; 9319,101;33,55575
 506,19; 3306,858;  353,052; 9155,045;33,55838
 506,78; 3174,131;  304,906; 8972,804;33,10174
 507,36; 3126,848;  317,744; 8825,028;33,01998
 507,95; 3003,991;  315,679; 8697,312;32,07385
 508,53; 3010,134;  315,444; 8551,911;32,71657
 509,12; 2930,120;  330,293; 8424,091;32,12122
 509,70; 2891,664;  337,141; 8297,561;32,09030
 510,29; 2813,417;  342,760; 8155,917;31,62175
 510,87; 2733,109;  312,906; 7973,279;31,59380
 511,46; 2653,899;  299,523; 7826,672;31,27845
 512,04; 2635,200;  312,219; 7675,583;31,54783
 512,62; 2566,487;  315,985; 7551,241;31,10466
 513,21; 2479,554;  298,068; 7394,888;30,73892
 513,79; 2446,744;  304,542; 7274,481;30,73488
 514,38; 2372,276;  278,384; 7111,677;30,64250
 514,96; 2344,182;  328,691; 7037,290;30,04339
 515,54; 2258,140;  293,309; 6884,424;29,81030
 516,13; 2247,272;  316,540; 6833,644;29,62561
 516,71; 2196,564;  308,699; 6687,051;29,59801
 517,30; 2153,799;  285,396; 6596,440;29,60529
 517,88; 2117,380;  311,780; 6533,254;29,02205
 518,46; 2064,125;  281,167; 6366,725;29,29818
 519,05; 2052,523;  310,247; 6315,772;29,01121
 519,63; 2006,376;  301,630; 6284,195;28,49523
 520,22; 2000,168;  318,330; 6201,767;28,58598
 520,80; 1928,557;  306,715; 6200,647;27,51716
 521,38; 1950,977;  338,325; 6179,452;27,60858
 521,97; 1888,033;  302,334; 6099,770;27,35172
 522,55; 1900,149;  319,257; 6071,093;27,48500
 523,13; 1867,376;  281,260; 6101,751;27,25056
 523,72; 1872,475;  296,397; 6063,462;27,32893
 524,30; 1908,764;  310,955; 6224,858;27,01784
 524,89; 1860,192;  285,719; 6213,573;26,56058
 525,47; 1913,504;  315,803; 6325,757;26,58425
 526,05; 1885,725;  278,958; 6353,561;26,45058
 526,64; 1925,061;  316,421; 6509,940;25,97295
 527,22; 1944,596;  310,033; 6629,372;25,86604
 527,80; 1987,528;  341,652; 6780,615;25,56119
 528,39; 1971,010;  301,808; 6769,289;25,80915
 528,97; 1981,808;  299,345; 6970,083;25,22155
 529,55; 2045,785;  317,491; 7159,382;25,26048
 530,14; 2112,976;  338,810; 7344,514;25,32459
 530,72; 2089,012;  298,422; 7454,499;25,02195
 531,30; 2095,366;  278,888; 7545,394;24,99795
 531,89; 2124,956;  310,657; 7640,840;24,75108
 532,47; 2157,731;  338,274; 7729,848;24,61528
 533,05; 2158,401;  343,267; 7796,815;24,35262
 533,63; 2151,989;  332,891; 7857,868;24,17414
 534,22; 2149,258;  304,506; 7869,622;24,38497
 534,80; 2159,689;  328,588; 7970,261;23,96204
 535,38; 2225,254;  410,504; 8060,182;23,72322
 535,97; 2130,267;  323,198; 8016,588;23,48860
 536,55; 2178,937;  368,974; 8064,957;23,51829
 537,13; 2150,063;  373,810; 8034,684;23,18603
 537,71; 2166,827;  417,348; 8098,650;22,77581
 538,30; 2175,199;  430,431; 8181,139;22,51107
 538,88; 2200,023;  465,362; 8229,021;22,34334
 539,46; 2249,267;  506,050; 8422,968;22,01888
 540,05; 2264,888;  525,283; 8532,797;21,72466
 540,63; 2327,975;  571,745; 8710,352;21,57900
 541,21; 2333,428;  617,364; 8894,721;20,73203
 541,79; 2381,018;  626,210; 9006,166;20,94055
 542,38; 2386,960;  656,437; 9154,071;20,36477
 542,96; 2408,216;  673,291; 9277,109;20,16459
 543,54; 2474,897;  681,055; 9495,579;20,35097
 544,12; 2455,418;  650,903; 9687,525;19,96891
 544,70; 2477,596;  649,214; 9723,665;20,14867
 545,29; 2497,407;  661,052; 9906,533;19,86218
 545,87; 2473,172;  639,902; 9891,628;19,81544
 546,45; 2467,617;  584,052; 9943,577;20,12459
 547,03; 2478,062;  577,285; 9993,574;20,18606
 547,62; 2483,756;  551,441;10139,292;20,15378
 548,20; 2490,454;  553,444;10248,429;19,97950
 548,78; 2502,147;  521,916;10419,246;20,00773
 549,36; 2511,646;  482,684;10605,949;20,04256
 549,94; 2506,458;  446,673;10779,283;19,93480
 550,53; 2558,447;  442,298;10983,233;20,07553
 551,11; 2560,369;  426,534;11153,871;19,89157
 551,69; 2618,854;  445,376;11457,040;19,73796
 552,27; 2646,203;  393,296;11683,084;19,95526
 552,85; 2707,858;  399,918;12082,685;19,75508
 553,44; 2738,946;  399,145;12322,039;19,62444
 554,02; 2826,453;  410,224;12702,216;19,65693
 554,60; 2803,670;  360,611;12983,243;19,35459
 555,18; 2921,006;  398,377;13365,010;19,45477
 555,76; 2949,542;  365,609;13720,647;19,34800
 556,34; 2970,998;  378,230;14113,353;18,87692
 556,93; 3045,361;  370,454;14482,627;18,95461
 557,51; 3096,996;  350,077;14769,016;19,05077
 558,09; 3202,016;  382,300;15199,180;19,03043
 558,67; 3242,935;  375,465;15515,784;18,93930
 559,25; 3290,674;  390,386;15819,991;18,79690
 559,83; 3320,740;  365,467;16095,458;18,78751
 560,41; 3372,398;  368,768;16443,224;18,68573
 561,00; 3393,499;  367,234;16785,108;18,43274
 561,58; 3469,581;  344,767;17004,453;18,75674
 562,16; 3471,252;  347,534;17336,702;18,38653
 562,74; 3510,721;  347,378;17721,201;18,20752
 563,32; 3566,614;  347,775;18125,965;18,10555
 563,90; 3653,794;  361,234;18462,138;18,19003
 564,48; 3696,797;  365,305;18914,710;17,96010
 565,06; 3786,724;  365,772;19433,227;17,94132
 565,65; 3906,186;  363,088;20044,403;18,00235
 566,23; 4066,151;  410,542;20815,016;17,91572
 566,81; 4120,624;  353,232;21434,806;17,87055
 567,39; 4231,381;  363,315;22300,678;17,63232
 567,97; 4340,089;  385,694;22920,733;17,54776
 568,55; 4478,053;  388,621;23740,671;17,51209
 569,13; 4570,072;  364,696;24467,832;17,44742
 569,71; 4705,587;  359,610;25327,132;17,40652
 570,29; 4890,068;  396,608;26245,011;17,38390
 570,87; 5019,175;  396,840;26985,343;17,38471
 571,45; 5088,990;  377,926;27601,029;17,30539
 572,03; 5140,369;  343,239;27961,222;17,36959
 572,61; 5193,837;  334,236;28658,824;17,15683
 573,20; 5324,480;  385,616;29390,848;17,02750
 573,78; 5376,472;  367,006;29875,934;16,97610
 574,36; 5476,705;  373,312;30441,759;16,97259
 574,94; 5539,434;  435,086;30797,227;16,81155
 575,52; 5508,605;  378,016;31008,304;16,75005
 576,10; 5622,095;  432,859;31624,738;16,63650
 576,68; 5675,255;  417,700;32064,698;16,61312
 577,26; 5760,318;  439,173;32824,747;16,43060
 577,84; 5838,097;  435,082;33311,515;16,43431
 578,42; 5863,504;  473,857;33478,651;16,32989
 579,00; 5876,638;  436,775;33635,442;16,38579
 579,58; 5857,188;  469,932;33937,228;16,09707
 580,16; 5873,224;  456,089;33933,363;16,18153
 580,74; 5890,551;  449,474;34083,319;16,17739
 581,32; 5842,769;  440,779;34167,862;16,01677
 581,90; 5847,931;  464,781;34101,747;16,00367
 582,48; 5824,005;  455,012;34282,332;15,87177
 583,06; 5827,967;  455,856;34362,937;15,84363
 583,64; 5833,640;  454,471;34531,442;15,78535
 584,22; 5728,963;  456,171;34396,463;15,53549
 584,80; 5668,963;  481,857;34079,390;15,43895
 585,38; 5603,579;  479,538;33694,321;15,42699
 585,96; 5587,666;  448,161;33857,462;15,38346
 586,54; 5583,950;  469,478;33797,750;15,34575
 587,12; 5575,219;  449,398;34103,124;15,23107
 587,70; 5599,224;  476,238;34127,726;15,22366
 588,28; 5523,631;  458,244;34244,785;14,99232
 588,86; 5546,860;  462,169;34299,191;15,02701
 589,44; 5506,438;  442,022;34369,330;14,92726
 590,02; 5557,753;  447,020;34636,214;14,94839
 590,59; 5539,503;  429,477;34723,288;14,90072
 591,17; 5531,939;  426,029;35011,854;14,76302
 591,75; 5525,345;  422,101;35141,481;14,69854
 592,33; 5533,379;  444,407;35301,180;14,59966
 592,91; 5492,433;  385,181;35532,062;14,53117
 593,49; 5539,012;  390,569;35894,385;14,50110
 594,07; 5566,642;  415,030;36051,230;14,45612
 594,65; 5612,776;  419,478;36152,307;14,53369
 595,23; 5610,512;  409,558;36498,582;14,41146
 595,81; 5576,083;  407,252;36607,944;14,27827
 596,39; 5607,309;  398,945;36722,423;14,33884
 596,97; 5575,946;  397,027;36945,738;14,16991
 597,55; 5558,117;  380,480;36785,822;14,22219
 598,12; 5539,506;  392,801;36843,285;14,11972
 598,70; 5530,612;  377,413;36958,283;14,08714
 599,28; 5537,803;  393,182;37213,576;13,97220
 599,86; 5516,026;  380,797;37142,896;13,96881
 600,44; 5481,185;  347,645;37263,443;13,90608
 601,02; 5544,315;  410,961;37241,988;13,93758
 601,60; 5518,099;  387,409;37168,790;13,94915
 602,18; 5483,357;  361,493;37299,344;13,86617
 602,75; 5474,140;  359,559;37367,219;13,82033
 603,33; 5453,520;  377,951;37360,591;13,72419
 603,91; 5456,527;  361,573;37324,497;13,78396
 604,49; 5463,247;  386,490;37421,470;13,70800
 605,07; 5404,372;  387,870;37436,834;13,54019
 605,65; 5397,292;  397,030;37586,878;13,44523
 606,23; 5432,845;  457,246;37731,038;13,34879
 606,80; 5421,192;  498,175;37784,818;13,20317
 607,38; 5415,782;  531,418;37725,308;13,13217
 607,96; 5428,284;  575,328;37784,125;13,04250
 608,54; 5420,729;  649,646;37914,093;12,80331
 609,12; 5438,537;  630,406;37903,880;12,89961
 609,70; 5453,619;  660,566;38026,295;12,82740
 610,27; 5414,522;  682,020;38081,214;12,65402
 610,85; 5422,341;  702,489;38111,217;12,61698
 611,43; 5388,138;  688,720;38030,852;12,58476
 612,01; 5357,277;  662,254;37782,215;12,64824
 612,59; 5356,376;  667,258;37907,018;12,59170
 613,16; 5315,834;  620,863;37815,017;12,62287
 613,74; 5277,634;  589,336;37665,576;12,64502
 614,32; 5284,982;  559,569;37691,925;12,72586
 614,90; 5242,705;  529,102;37567,978;12,72609
 615,48; 5161,975;  482,018;37205,946;12,74362
 616,05; 5123,022;  448,093;37231,614;12,70930
 616,63; 5073,222;  445,630;37017,359;12,65347
 617,21; 5090,817;  452,174;36928,245;12,71695
 617,79; 5037,743;  431,945;36883,378;12,63544
 618,36; 5044,501;  443,332;36837,895;12,64246
 618,94; 4897,340;  381,250;36430,579;12,52753
 619,52; 4859,252;  405,554;36255,639;12,42312
 620,10; 4876,907;  391,944;36205,497;12,52309
 620,67; 4859,952;  395,630;36085,806;12,50855
 621,25; 4803,318;  413,794;35996,666;12,33606
 621,83; 4795,276;  393,481;35913,241;12,39253
 622,41; 4802,767;  443,096;35948,624;12,27885
 622,98; 4731,929;  398,553;35616,127;12,30459
 623,56; 4721,567;  406,860;35652,446;12,24184
 624,14; 4699,336;  388,334;35464,029;12,29057
 624,72; 4648,611;  383,634;35382,209;12,18614
 625,29; 4640,604;  375,091;35419,278;12,17181
 625,87; 4674,153;  404,484;35448,009;12,18390
 626,45; 4596,194;  358,474;35305,518;12,12612
 627,02; 4558,007;  376,638;35172,688;12,01679
 627,60; 4546,123;  365,953;35208,750;11,99723
 628,18; 4540,306;  336,406;35183,034;12,06401
 628,76; 4534,719;  343,630;35152,622;12,04025
 629,33; 4541,717;  377,787;35141,849;11,97769
 629,91; 4524,907;  360,329;35171,958;11,96318
 630,49; 4518,729;  375,401;35215,998;11,89224
 631,06; 4530,059;  374,785;35425,240;11,85512
 631,64; 4544,060;  362,321;35408,705;11,93201
 632,22; 4517,012;  332,395;35337,755;11,95422
 632,79; 4548,588;  357,395;35576,586;11,90031
 633,37; 4552,506;  343,793;35634,186;11,92594
 633,95; 4544,030;  348,089;35788,117;11,83955
 634,52; 4555,318;  335,557;35793,285;11,90082
 635,10; 4570,453;  331,174;35839,663;11,93877
 635,68; 4554,563;  337,703;36062,263;11,80381
 636,25; 4553,465;  323,237;35952,922;11,87276
 636,83; 4504,719;  314,784;36204,083;11,67461
 637,41; 4557,883;  339,240;36289,950;11,73452
 637,98; 4583,118;  345,009;36452,163;11,73759
 638,56; 4597,325;  340,005;36522,485;11,76625
 639,13; 4562,741;  318,860;36600,787;11,69695
 639,71; 4629,428;  363,554;36768,087;11,71798
 640,29; 4520,822;  288,554;36497,658;11,68841
 640,86; 4558,356;  312,093;36735,158;11,65817
 641,44; 4536,197;  313,478;36666,581;11,61584
 642,02; 4544,039;  344,939;36703,158;11,54924
 642,59; 4521,880;  316,555;36858,197;11,50831
 643,17; 4545,106;  318,863;36784,774;11,58957
 643,74; 4540,025;  307,786;36875,121;11,57382
 644,32; 4601,481;  335,248;36776,006;11,70731
 644,89; 4551,323;  329,633;36777,275;11,58289
 645,47; 4534,395;  340,479;36918,852;11,46556
 646,05; 4525,775;  337,787;36779,199;11,49239
 646,62; 4501,924;  322,326;36798,930;11,45830
 647,20; 4481,074;  333,403;36934,507;11,33209
 647,77; 4460,915;  306,018;36822,392;11,37817
 648,35; 4477,680;  310,711;36681,738;11,45684
 648,92; 4474,444;  327,557;36769,469;11,37944
 649,50; 4450,209;  287,327;36593,124;11,46616
 650,08; 4382,743;  298,173;36527,470;11,27422
 650,65; 4426,430;  301,481;36760,893;11,31381
 651,23; 4461,118;  294,789;37478,009;11,20486
 651,80; 4582,959;  282,097;38426,279;11,27528
 652,38; 4660,262;  297,943;38764,010;11,34069
 652,95; 4652,258;  282,251;39119,125;11,25221
 653,53; 4709,868;  318,021;39376,395;11,24432
 654,10; 4690,787;  339,328;39472,357;11,11966
 654,68; 4693,244;  289,021;39460,626;11,24341
 655,25; 4697,008;  285,867;39602,434;11,21955
 655,83; 4684,773;  284,637;39603,857;11,19080
 656,40; 4703,614;  318,252;39534,204;11,18260
 656,98; 4647,764;  288,714;39457,089;11,12900
 657,55; 4657,682;  299,253;39281,589;11,18052
 658,13; 4605,600;  294,407;39005,397;11,13687
 658,70; 4548,673;  310,869;38751,436;11,02430
 659,28; 4467,822;  314,253;37982,782;11,02663
 659,85; 4379,663;  305,254;37119,206;11,06757
 660,43; 4420,505;  321,177;37207,629;11,11337
 661,00; 4392,885;  304,100;37314,591;11,04764
 661,58; 4426,726;  300,639;37590,860;11,06480
 662,15; 4417,952;  281,024;37801,361;11,02583
 662,73; 4488,871;  346,409;38066,938;10,98198
 663,30; 4498,174;  300,409;38285,515;11,05108
 663,88; 4511,785;  315,178;38452,169;11,00403
 664,45; 4523,164;  290,717;38705,285;11,01782
 665,03; 4562,083;  296,333;38921,093;11,04408
 665,60; 4684,078;  372,563;39514,747;11,01501
 666,17; 4644,997;  304,718;39569,709;11,05381
 666,75; 4686,069;  301,564;39834,209;11,09085
 667,32; 4727,218;  321,718;40222,863;11,04104
 667,90; 4740,983;  297,872;40553,979;11,03711
 668,47; 4793,286;  316,257;40718,941;11,08102
 669,05; 4831,127;  299,719;41088,210;11,10953
 669,62; 4829,584;  274,565;41105,710;11,15575
 670,19; 4816,426;  287,411;41229,826;11,06191
 670,77; 4880,344;  293,719;41441,249;11,14678
 671,34; 4840,416;  301,258;41367,134;11,05336
 671,92; 4901,258;  281,643;41697,327;11,15426
 672,49; 4888,638;  309,643;41711,443;11,05989
 673,06; 4873,402;  256,643;41810,404;11,11033
 673,64; 4876,244;  287,720;41795,982;11,05448
 674,21; 4872,931;  279,721;41652,251;11,10208
 674,79; 4961,388;  305,567;41889,982;11,19607
 675,36; 4962,307;  307,106;42048,405;11,15251
 675,93; 4945,071;  269,798;41923,290;11,22420
 676,51; 4973,528;  296,337;42038,791;11,20488
 677,08; 4970,831;  300,029;42205,676;11,14600
 677,65; 4980,673;  300,876;42223,945;11,16282
 678,23; 5012,822;  299,722;42528,138;11,16097
 678,80; 5038,279;  287,261;42656,253;11,21343
 679,38; 5053,889;  284,030;42765,984;11,22797
 679,95; 5062,962;  303,184;42939,100;11,16377
 680,52; 5100,803;  285,338;43307,216;11,19306
 681,10; 5149,337;  299,338;43558,870;11,21140
 681,67; 5188,717;  298,493;43842,832;11,23045
 682,24; 5168,251;  268,570;43972,563;11,21106
 682,82; 5262,400;  280,108;44494,448;11,26850
 683,39; 5308,395;  326,186;44959,179;11,16262
 683,96; 5351,314;  289,032;45091,371;11,29915
 684,54; 5384,001;  276,109;45456,641;11,30552
 685,11; 5452,766;  309,340;45702,833;11,33076
 685,68; 5473,838;  286,186;46266,487;11,28234
 686,25; 5460,987;  269,033;46346,142;11,26797
 686,83; 5526,214;  281,187;46473,950;11,35465
 687,40; 5606,747;  273,418;46719,296;11,48289
 687,97; 5670,435;  297,110;47163,489;11,46520
 688,55; 5625,815;  260,264;47251,297;11,41824
 689,12; 5638,656;  244,188;47453,335;11,42674
 689,69; 5714,344;  250,342;47563,451;11,54860
 690,26; 5735,801;  267,880;47710,336;11,52537
 690,84; 5776,027;  276,958;47853,298;11,55841
 691,41; 5796,715;  288,496;48013,567;11,54156
 691,98; 5882,249;  295,189;48194,683;11,66413
 692,56; 5836,475;  278,881;48329,260;11,56618
 693,13; 5896,778;  328,728;48309,991;11,60463
 693,70; 5918,235;  300,574;48497,568;11,65562
 694,27; 5925,691;  272,728;48602,222;11,69672
 694,84; 5972,687;  274,344;48711,184;11,76448
 695,42; 5978,682;  331,728;48858,454;11,63679
 695,99; 5986,139;  292,190;49050,723;11,67785
 696,56; 5989,750;  285,575;48886,531;11,73675
 697,13; 6079,284;  302,960;49344,339;11,77847
 697,71; 6059,356;  269,806;49297,147;11,80882
 698,28; 6122,351;  279,345;49636,724;11,83816
 698,85; 6113,039;  255,422;49652,917;11,85813
 699,42; 6132,649;  259,884;49787,879;11,85747
 699,99; 6182,183;  299,115;49910,456;11,85831
 700,57; 6267,871;  294,269;50012,802;12,01484
 701,14; 6204,712;  271,423;50102,610;11,90678
 701,71; 6261,246;  310,808;50372,803;11,88614
 702,28; 6286,857;  286,193;50343,765;11,98753
 702,85; 6269,314;  287,193;50442,034;11,92731
 703,43; 6369,386;  305,116;50729,842;12,02638
 704,00; 6419,228;  323,270;50879,650;12,05774
 704,57; 6388,915;  295,193;50869,381;12,04907
 705,14; 6483,911;  320,578;51078,189;12,14268
 705,71; 6491,906;  325,348;51209,536;12,11881
 706,28; 6489,286;  297,425;51085,036;12,19168
 706,86; 6579,666;  334,810;51220,152;12,27241
 707,43; 6573,353;  349,502;51187,113;12,24261
 708,00; 6624,887;  322,272;51296,614;12,36429
 708,57; 6584,960;  303,964;51216,191;12,33691
 709,14; 6635,493;  323,118;51342,845;12,37242
 709,71; 6679,412;  303,426;51511,961;12,45102
 710,28; 6749,792;  294,888;51644,769;12,57044
 710,86; 6761,864;  311,196;51785,884;12,53173
 711,43; 6810,782;  324,196;51754,539;12,61237
 712,00; 6815,470;  315,504;51848,654;12,61317
 712,57; 6856,850;  311,350;52033,308;12,65517
 713,14; 6868,384;  300,735;52068,655;12,68672
 713,71; 6902,610;  311,428;52110,540;12,72451
 714,28; 6893,528;  294,043;52009,194;12,76122
 714,85; 6878,908;  282,428;51853,925;12,79094
 715,42; 6947,827;  290,121;52085,887;12,85377
 716,00; 7028,822;  358,659;52233,310;12,85823
 716,57; 7020,356;  290,044;52298,579;12,94078
 717,14; 7049,967;  278,967;52131,541;13,05817
 717,71; 7039,577;  261,045;52118,965;13,07135
 718,28; 7148,573;  308,429;52350,926;13,14338
 718,85; 7073,876;  262,891;52374,504;13,06999
 719,42; 7142,102;  289,661;52479,081;13,12994
 719,99; 7141,713;  269,122;52273,735;13,21535
 720,56; 7189,939;  299,353;52573,851;13,18154
 721,13; 7198,319;  271,661;52641,043;13,22654
 721,70; 7198,314;  261,969;52528,851;13,27101
 722,27; 7245,078;  285,969;52482,890;13,33241
 722,84; 7378,228;  332,354;52699,775;13,45469
 723,41; 7348,300;  267,662;52779,891;13,48379
 723,98; 7366,603;  282,970;52943,391;13,45153
 724,55; 7422,829;  312,509;52994,814;13,49660
 725,12; 7423,132;  239,124;52916,776;13,63768
 725,69; 7522,127;  274,586;53109,584;13,71731
 726,27; 7538,354;  278,586;53314,700;13,68835
 726,84; 7612,272;  291,817;53571,892;13,73957
 727,41; 7702,806;  292,048;53460,008;13,93839
 727,98; 7746,340;  301,202;53736,508;13,93299
 728,55; 7782,643;  322,202;53596,470;14,00383
 729,12; 7779,176;  271,664;53726,816;14,04451
 729,69; 7869,941;  304,741;53872,086;14,12278
 730,26; 7872,475;  303,665;54140,048;14,05891
 730,82; 7914,624;  291,203;54027,163;14,18681
 731,39; 7931,158;  297,204;54132,971;14,18008
 731,96; 8024,768;  271,434;54460,395;14,30796
 732,53; 8100,533;  293,204;54703,357;14,34903
 733,10; 8146,605;  303,281;54686,011;14,42245
 733,67; 8185,908;  296,358;54987,973;14,42552
 734,24; 8141,596;  282,743;54595,704;14,46957
 734,81; 8220,053;  323,897;54758,819;14,50568
 735,38; 8197,510;  284,436;54541,550;14,58440
 735,95; 8241,351;  291,282;54325,974;14,71290
 736,52; 8259,885;  307,975;54542,320;14,66213
 737,09; 8230,573;  300,052;54205,128;14,71201
 737,66; 8341,799;  338,283;54294,628;14,83332
 738,23; 8366,871;  283,206;54435,282;14,92771
 738,80; 8411,866;  347,206;54783,244;14,81493
 739,37; 8493,708;  307,360;54988,283;14,97112
 739,94; 8525,934;  291,361;54960,783;15,06248
 740,51; 8621,006;  398,822;54989,976;15,06139
 741,07; 8579,925;  287,669;55001,784;15,15561
 741,64; 8659,843;  305,361;55283,207;15,19609
 742,21; 8695,762;  287,438;55298,861;15,28469
 742,78; 8687,757;  265,515;55003,439;15,38648
 743,35; 8787,291;  296,054;55360,631;15,42051
 743,92; 8856,824;  321,439;55485,901;15,47262
 744,49; 8895,974;  315,978;55347,324;15,59111
 745,06; 8889,507;  283,747;55364,517;15,62389
 745,63; 8934,041;  276,132;55307,940;15,73255
 746,19; 8988,729;  284,978;55291,671;15,82308
 746,76; 8977,186;  295,440;55333,787;15,77399
 747,33; 9035,950;  284,671;55331,287;15,89794
 747,90; 9113,407;  304,287;55570,172;15,93953
 748,47; 9138,556;  292,595;55467,287;16,03264
 749,04; 9173,629;  314,133;55417,095;16,07807
 749,61; 9232,316;  324,903;55368,827;16,18237
 750,17; 9274,389;  311,672;55477,865;16,24676
 750,74; 9244,076;  301,749;55411,981;16,22626
 751,31; 9268,764;  267,826;55307,404;16,35357
 751,88; 9281,144;  266,980;55142,289;16,42663
 752,45; 9349,293;  287,750;55391,174;16,44461
 753,02; 9376,827;  298,442;55082,674;16,57116
 753,58; 9379,668;  276,981;55049,098;16,61920
 754,15; 9410,048;  283,751;55229,829;16,60955
 754,72; 9463,582;  282,828;54954,406;16,79255
 755,29; 9445,808;  267,597;54789,445;16,83401
 755,86; 9483,342;  284,597;54987,330;16,81588
 756,42; 9547,491;  286,828;54919,830;16,95068
 756,99; 9529,179;  251,136;54833,253;16,99832
 757,56; 9616,943;  270,060;54787,677;17,14470
 758,13; 9562,939;  211,367;54778,869;17,13762
 758,70; 9717,165;  238,598;54822,677;17,36508
 759,26; 9697,853;  228,060;54837,562;17,34092
 759,83; 9790,309;  239,060;54939,293;17,46108
 760,40; 9786,228;  226,753;54823,793;17,50914
 760,97; 9861,915;  217,830;54841,678;17,65545
 761,53; 9791,218;  200,446;54453,948;17,67770
 762,10; 9826,522;  212,984;54440,756;17,72807
 762,67; 9916,748;  244,523;54427,102;17,85117
 763,24; 9844,205;  202,292;54032,295;17,91178
 763,80; 9955,200;  238,677;54121,334;18,03275
 764,37; 9942,657;  240,139;54150,218;17,99759
 764,94; 9878,114;  216,524;53655,411;18,07970
 765,50; 9877,032;  229,447;53698,681;18,04325
 766,07; 9985,720;  273,909;53765,258;18,15585
 766,64; 9985,100;  237,909;53484,912;18,30561
 767,21;10004,710;  249,525;53336,874;18,37573
 767,77;10029,860;  272,371;53316,989;18,39487
 768,34;10017,393;  278,294;53213,182;18,39826
 768,91;10023,927;  270,371;53061,836;18,47563
 769,47;10120,230;  263,449;53144,952;18,63937
 770,04;10100,995;  273,680;52968,529;18,64948
 770,61;10131,375;  255,988;52776,106;18,80306
 771,18;10171,062;  248,142;52584,299;18,95997
 771,74;10220,673;  271,449;52771,953;18,95072
 772,31;10182,899;  262,527;52573,530;18,96422
 772,88;10144,971;  234,988;52332,800;19,02188
 773,44;10144,659;  253,066;52111,300;19,07430
 774,01;10208,808;  270,373;52206,262;19,13597
 774,58;10213,188;  249,527;51799,300;19,32823
 775,14;10261,799;  247,220;51982,955;19,35718
 775,71;10289,564;  249,605;51886,147;19,44351
 776,27;10337,482;  309,605;51837,878;19,46092
 776,84;10434,016;  331,990;51829,917;19,61637
 777,41;10396,703;  277,836;51661,109;19,69292
 777,97;10303,160;  251,606;51326,225;19,68014
 778,54;10395,079;  273,991;51381,572;19,80350
 779,11;10440,920;  286,837;51416,610;19,85943
 779,67;10404,146;  251,376;51394,803;19,85157
 780,24;10476,065;  269,453;51262,457;20,01571
 780,80;10547,983;  285,068;51128,957;20,18515
 781,37;10500,978;  275,684;51131,765;20,10634
 781,94;10538,358;  254,684;50875,035;20,31530
 782,50;10539,046;  269,607;50789,920;20,32735
 783,07;10580,041;  292,454;50872,805;20,33910
 783,63;10598,575;  257,685;50595,997;20,54278
 784,20;10650,878;  279,685;50630,651;20,59780
 784,77;10624,643;  267,685;50313,844;20,69481
 785,33;10635,869;  241,993;50191,806;20,80864
 785,90;10651,249;  267,686;50231,998;20,78196
 786,46;10730,013;  278,840;50231,191;20,92229
 787,03;10747,009;  248,763;49988,460;21,10637
 787,59;10767,389;  260,840;49854,807;21,18513
 788,16;10725,230;  281,610;49774,076;21,10144
 788,73;10792,379;  269,533;49591,192;21,33514
 789,29;10728,529;  263,302;49230,615;21,37186
 789,86;10824,601;  282,918;49188,731;21,55507
 790,42;10764,135;  270,380;49006,693;21,53170
 790,99;10675,284;  279,611;48804,424;21,42342
 791,55;10723,279;  258,611;48747,001;21,58180
 792,12;10763,967;  286,457;48744,194;21,62195
 792,68;10718,962;  266,611;48385,386;21,72198
 793,25;10695,265;  275,227;48188,348;21,74778
 793,81;10721,876;  330,227;47839,233;21,87301
 794,38;10624,794;  239,458;47655,426;21,90261
 794,94;10666,867;  249,997;47471,003;22,05982
 795,51;10582,785;  282,074;47346,272;21,88651
 796,07;10649,550;  257,536;47077,696;22,19560
 796,64;10706,776;  295,997;47173,273;22,20858
 797,20;10598,540;  280,075;46664,312;22,24563
 797,77;10552,536;  235,921;46331,043;22,38114
 798,33;10559,223;  269,767;46193,928;22,40532
 798,90;10632,142;  287,537;46098,505;22,58107
 799,46;10586,291;  270,229;45575,928;22,76990
 800,03;10552,286;  273,383;45513,275;22,72088
 800,59;10606,820;  285,768;45370,390;22,89262
 801,15;10595,662;  288,230;45134,198;22,98408
 801,72;10536,272;  270,845;44878,006;23,01296
 802,28;10518,421;  294,615;44557,122;23,09812
 802,85;10525,494;  274,307;44399,930;23,23182
 803,41;10482,412;  263,000;44169,892;23,27519
 803,98;10483,331;  261,616;43746,777;23,50621
 804,54;10480,095;  270,154;43444,738;23,64804
 805,11;10423,706;  287,539;43330,623;23,54889
 805,67;10400,855;  308,078;43278,200;23,48790
 806,23;10385,158;  266,001;42761,085;23,81254
 806,80;10434,076;  288,617;42695,124;23,92430
 807,36;10446,841;  287,463;42689,394;23,95971
 807,93;10370,683;  300,848;42473,740;23,87751
 808,49;10310,601;  249,386;42084,317;24,04979
 809,05;10267,981;  251,156;41995,356;23,99573
 809,62;10306,515;  289,002;41842,933;24,10726
 810,18;10307,972;  281,541;41730,818;24,18964
 810,74;10255,505;  245,849;41519,780;24,25176
 811,31;10250,885;  250,618;41268,511;24,38026
 811,87;10249,881;  259,157;41163,627;24,42453
 812,44;10304,645;  294,926;41136,204;24,50883
 813,00;10213,564;  220,004;40883,166;24,57645
 813,56;10352,636;  274,696;40935,204;24,78557
 814,13;10310,093;  259,850;40745,474;24,82423
 814,69;10319,319;  253,235;40594,666;24,95222
 815,25;10183,160;  236,928;40200,705;24,88812
 815,82;10235,540;  280,697;40209,436;24,93152
 816,38;10309,766;  300,005;40000,552;25,21316
 816,94;10207,223;  251,928;39694,129;25,24021
 817,51;10215,680;  238,928;39506,322;25,40722
 818,07;10197,214;  245,775;39250,976;25,51311
 818,63;10158,517;  273,006;39023,861;25,51043
 819,20;10263,743;  259,006;38979,823;25,83814
 819,76;10162,046;  242,391;38565,092;25,88454
 820,32;10201,965;  295,853;38508,823;25,92343
 820,89;10185,498;  276,237;38269,323;26,08175
 821,45;10127,109;  245,930;37985,747;26,18237
 822,01;10147,720;  270,084;37748,939;26,35522
 822,57;10158,561;  262,853;37571,747;26,52372
 823,14;10077,095;  237,854;37367,786;26,49949
 823,70;10111,398;  235,854;37118,902;26,77529
 824,26;10080,240;  249,085;36961,325;26,77896
 824,82;10086,158;  268,854;36806,748;26,86883
 825,39;10029,153;  246,854;36566,787;26,93369
 825,95;10100,995;  264,239;36537,211;27,11869
 826,51;10002,836;  262,547;36125,634;27,15965
 827,08;10003,524;  306,240;36207,211;27,01120
 827,64; 9997,289;  270,317;36035,481;27,19678
 828,20; 9969,361;  246,471;35772,519;27,36834
 828,76; 9987,202;  269,625;35703,635;27,42444
 829,32;10023,352;  276,317;35643,289;27,55971
 829,89; 9965,193;  231,241;35524,712;27,58004
 830,45; 9974,419;  258,010;35444,982;27,61366
 831,01; 9952,184;  252,703;35229,790;27,73096
 831,57; 9929,795;  254,011;35069,983;27,79122
 832,14; 9926,636;  246,703;35026,252;27,83226
 832,70; 9977,631;  243,088;34855,522;28,12441
 833,26; 9916,011;  214,704;34669,560;28,15658
 833,82; 9919,853;  252,242;34709,291;28,05699
 834,38; 9970,310;  247,089;34666,407;28,24931
 834,95; 9955,228;  241,473;34489,753;28,36275
 835,51; 9942,993;  209,243;34402,561;28,46682
 836,07; 9996,603;  253,705;34454,908;28,48701
 836,63;10047,906;  264,013;34434,485;28,63260
 837,19;10033,517;  247,859;34274,139;28,75912
 837,75; 9982,589;  219,551;33980,563;28,91809
 838,32;10053,969;  260,167;34076,371;28,96186
 838,88;10046,734;  262,090;34127,948;28,89235
 839,44;10074,499;  255,783;34055,756;29,04948
 840,00;10094,955;  252,014;33936,179;29,22127
 840,56;10061,412;  239,860;33756,295;29,30369
 841,12;10084,331;  235,476;33652,410;29,47265
 841,68;10053,711;  226,091;33490,526;29,54392
 842,25;10060,321;  231,322;33469,488;29,57142
 842,81;10108,701;  231,246;33316,142;29,85488
 843,37;10113,312;  214,938;33260,950;29,95331
 843,93;10146,846;  237,938;33145,219;30,11160
 844,49;10221,918;  247,400;33174,566;30,29267
 845,05;10119,375;  210,170;33065,912;30,15974
 845,61;10211,601;  248,170;33106,643;30,32226
 846,17;10168,058;  235,785;32907,298;30,40041
 846,73;10190,976;  241,940;32803,721;30,55434
 847,29;10156,510;  217,324;32683,913;30,61358
 847,86;10164,813;  235,248;32657,260;30,62600
 848,42;10211,578;  221,017;32423,376;31,02431
 848,98;10209,112;  249,402;32411,414;30,96731
 849,54;10273,799;  232,864;32420,376;31,19513
 850,10;10226,410;  239,172;32242,261;31,20711
 850,66;10178,251;  223,326;32169,223;31,16183
 851,22;10231,939;  216,018;32044,492;31,46843
 851,78;10312,088;  262,172;32190,300;31,47668
 852,34;10202,007;  247,480;31902,878;31,44654
 852,90;10245,464;  239,711;31744,301;31,75967
 853,46;10222,690;  221,327;31626,878;31,84584
 854,02;10255,224;  241,096;31540,686;31,99444
 854,58;10197,603;  237,558;31283,648;32,08148
 855,14;10194,522;  227,712;31230,148;32,14847
 855,70;10147,363;  199,404;31072,802;32,22178
 856,26;10159,282;  247,482;30999,610;32,23127
 856,82;10153,893;  223,174;30911,803;32,35960
 857,38;10170,503;  260,405;30765,842;32,48633
 857,94;10083,268;  225,559;30693,342;32,35453
 858,50;10127,955;  250,790;30567,073;32,58040
 859,06;10062,566;  231,560;30390,266;32,59757
 859,62;10123,177;  239,868;30330,612;32,84501
 860,18;10068,018;  229,406;30161,112;32,87020
 860,74;10009,168;  209,945;29971,689;32,92557
 861,30; 9942,009;  208,791;29742,882;32,95587
 861,86;10061,389;  270,638;29919,075;33,02282
 862,42;10046,077;  237,946;29764,806;33,21766
 862,98;10017,841;  266,176;29637,075;33,20179
 863,54;10005,837;  236,946;29389,960;33,50902
 864,10;10041,447;  220,638;29537,691;33,49862
 864,66; 9891,443;  213,639;29320,191;33,24957
 865,22; 9998,361;  229,485;29208,769;33,70986
 865,78; 9966,587;  242,639;29062,269;33,74071
 866,34; 9976,659;  221,255;28983,154;33,91780
 866,90; 9970,424;  246,716;28842,346;34,00417
 867,45; 9928,496;  234,024;28601,462;34,17465
 868,01; 9919,184;  240,717;28463,808;34,29272
 868,57; 9904,487;  228,640;28331,924;34,42959
 869,13; 9939,636;  212,025;28131,732;34,84138
 869,69; 9889,016;  229,871;28104,463;34,65215
 870,25; 9899,473;  212,025;28013,425;34,84518
 870,81; 9920,391;  233,103;27915,694;34,99415
 871,37; 9923,233;  241,103;27851,426;35,06707
 871,93; 9942,536;  241,334;27679,310;35,35684
 872,49; 9913,685;  262,719;27451,272;35,49643
 873,04; 9833,219;  217,411;27275,849;35,53719
 873,60; 9828,137;  217,181;27180,965;35,64395
 874,16; 9839,517;  238,719;27138,312;35,69124
 874,72; 9840,440;  230,104;27081,927;35,79026
 875,28; 9877,671;  240,258;26971,773;36,05263
 875,84; 9821,056;  230,258;26915,388;35,94061
 876,40; 9834,440;  222,027;26777,388;36,19764
 876,95; 9862,825;  237,104;26837,004;36,18706
 877,51; 9875,440;  264,181;26826,235;36,18417
 878,07; 9948,056;  270,719;26808,004;36,46694
 878,63; 9922,287;  226,335;26831,004;36,44455
 879,19; 9966,979;  242,873;26770,696;36,65625
 879,75;10007,133;  233,488;26885,388;36,67147
 880,30;10034,517;  235,258;26834,388;36,84053
 880,86;10071,440;  274,335;27011,312;36,64253
 881,42;10075,748;  217,181;26987,696;36,82621
 881,98;10169,517;  251,104;27128,850;36,90195
 882,54;10188,979;  229,796;27205,542;36,91903
 883,09;10237,363;  240,104;27280,927;36,97099
 883,65;10287,287;  221,027;27450,235;36,96861
 884,21;10374,748;  258,642;27607,927;36,98856
 884,77;10422,825;  217,412;27540,696;37,35061
 885,32;10526,440;  232,104;27752,158;37,40667
 885,88;10611,594;  269,642;27948,927;37,36351
 886,44;10644,133;  234,258;28056,773;37,41529
 887,00;10664,056;  260,796;28002,388;37,50059
 887,56;10750,133;  226,873;28174,927;37,65292
 888,11;10765,287;  234,565;28173,465;37,69197
 888,67;10896,056;  261,258;28362,927;37,84401
 889,23;10907,979;  247,104;28360,696;37,92071
 889,79;10831,671;  219,873;28214,927;37,90597
 890,34;10853,056;  241,565;28168,235;37,99769
 890,90;11019,210;  303,642;28337,619;38,22350
 891,46;10938,979;  222,335;28240,235;38,24928
 892,01;10952,825;  253,950;28197,927;38,28687
 892,57;10950,133;  271,027;28211,465;38,22097
 893,13;10938,979;  224,335;27922,235;38,68396
 893,69;10928,671;  227,642;27872,081;38,70952
 894,24;10915,210;  245,027;27818,542;38,69722
 894,80;10892,671;  248,181;27712,004;38,75823
 895,36;10819,825;  239,642;27574,235;38,70620
 895,91;10817,056;  226,950;27331,773;39,07093
 896,47;10810,748;  252,335;27288,619;39,05275
 897,03;10761,671;  230,488;27012,158;39,32235
 897,58;10674,902;  254,719;27080,619;38,84374
 898,14;10663,363;  246,796;26719,235;39,34873
 898,70;10623,825;  204,950;26620,312;39,44248
 899,25;10656,594;  242,181;26628,465;39,46904
 899,81;10602,594;  248,104;26450,696;39,51705
 900,37;10503,671;  208,258;26203,696;39,60469
 900,92;10580,056;  239,642;26209,081;39,81762
 901,48;10518,979;  225,412;26078,465;39,81567
 902,03;10422,133;  212,335;25948,773;39,67059
 902,59;10497,671;  229,950;25837,081;40,09712
 903,15;10455,594;  256,488;25704,542;40,07814
 903,70;10356,133;  245,027;25477,081;40,07246
 904,26;10309,825;  223,873;25315,773;40,19605
 904,82;10348,979;  242,873;25352,542;40,24786
 905,37;10310,363;  246,719;25189,619;40,34673
 905,93;10297,133;  228,719;25007,312;40,63352
 906,48;10286,825;  243,796;25006,850;40,55650
 907,04;10310,056;  253,335;24911,388;40,78473
 907,60;10239,517;  237,950;24700,542;40,88515
 908,15;10182,056;  230,027;24588,696;40,85621
 908,71;10248,902;  257,027;24614,081;41,02251
 909,26;10154,671;  228,181;24422,619;41,02798
 909,82;10151,287;  257,412;24211,388;41,30368
 910,37;10171,133;  277,027;24242,081;41,28556
 910,93;10111,594;  226,104;24083,312;41,43607
 911,48;10102,825;  220,181;23858,388;41,80793
 912,04;10081,748;  236,796;23776,312;41,82309
 912,60;10104,517;  243,258;23848,235;41,77619
 913,15;10069,979;  239,873;23565,619;42,14273
 913,71;10003,825;  219,873;23403,696;42,20163
 914,26; 9984,056;  215,104;23348,850;42,22815
 914,82;10001,210;  236,412;23261,312;42,40973
 915,37; 9984,363;  223,642;23194,927;42,49097
 915,93;10005,287;  272,642;23073,158;42,68607
 916,48; 9949,748;  225,719;22937,081;42,81570
 917,04; 9906,979;  247,104;22802,696;42,82696
 917,59; 9898,133;  263,181;22762,158;42,82396
 918,15; 9851,363;  196,488;22562,388;43,16784
 918,70; 9811,440;  220,873;22468,696;43,10789
 919,26; 9835,440;  231,950;22437,081;43,24897
 919,81; 9746,287;  220,719;22235,312;43,26933
 920,37; 9759,594;  228,642;22167,158;43,44392
 920,92; 9729,056;  246,873;22137,081;43,31701
 921,48; 9681,979;  214,488;21839,081;43,78113
 922,03; 9625,902;  225,950;21859,081;43,45165
 922,59; 9530,902;  225,796;21713,158;43,30502
 923,14; 9484,979;  224,796;21644,312;43,23246
 923,69; 9516,210;  250,565;21559,388;43,48267
 924,25; 9552,363;  238,027;21438,619;43,93432
 924,80; 9440,671;  233,719;21291,312;43,72272
 925,36; 9402,440;  226,104;21189,312;43,77353
 925,91; 9371,979;  211,181;21066,542;43,92539
 926,47; 9271,594;  208,565;20966,081;43,66143
 927,02; 9340,671;  280,335;20992,235;43,74459
 927,57; 9230,748;  225,104;20790,696;43,78986
 928,13; 9188,671;  213,796;20660,388;43,89423
 928,68; 9179,210;  225,258;20638,312;43,86385
 929,24; 9094,671;  199,719;20421,388;43,98723
 929,79; 9150,902;  206,335;20327,235;44,45411
 930,34; 9136,594;  226,873;20180,465;44,65222
 930,90; 9039,594;  212,027;20141,465;44,29411
 931,45; 9162,440;  229,027;20157,927;44,82643
 932,01; 9072,671;  225,873;20021,465;44,69075
 932,56; 9073,902;  249,719;19868,388;44,97850
 933,11; 9085,825;  253,488;19857,927;45,05274
 933,67; 8992,210;  220,488;19695,388;45,04116
 934,22; 9014,671;  236,181;19596,312;45,34314
 934,77; 8976,517;  257,950;19538,158;45,22030
 935,33; 8936,748;  227,796;19370,850;45,49406
 935,88; 9001,594;  228,258;19341,158;45,90270
 936,43; 8964,594;  228,642;19217,235;46,00632
 936,99; 8930,979;  232,719;19116,927;46,06102
 937,54; 8801,517;  210,719;18954,773;45,83212
 938,09; 8857,210;  227,412;18975,388;46,03056
 938,65; 8809,133;  220,950;18836,850;46,13359
 939,20; 8803,671;  204,335;18707,773;46,47426
 939,75; 8726,210;  211,565;18689,619;46,07977
 940,31; 8718,979;  210,412;18486,850;46,55484
 940,86; 8721,210;  225,027;18508,004;46,47046
 941,41; 8708,902;  290,565;18399,542;46,48709
 941,96; 8642,748;  219,258;18250,619;46,71578
 942,52; 8593,287;  216,027;18174,235;46,64864
 943,07; 8512,671;  197,488;18061,696;46,54661
 943,62; 8507,287;  217,719;17999,081;46,61942
 944,18; 8501,979;  195,565;17954,158;46,77405
 944,73; 8468,979;  233,027;17856,388;46,73315
 945,28; 8394,056;  191,027;17627,927;47,04408
 945,83; 8399,748;  217,642;17686,773;46,83751
 946,39; 8374,517;  223,335;17662,004;46,74200
 946,94; 8391,056;  245,335;17545,542;47,08453
 947,49; 8357,210;  219,565;17453,696;47,21819
 948,04; 8298,210;  253,719;17367,542;47,00581
 948,59; 8257,363;  244,950;17351,773;46,83753
 949,15; 8215,517;  202,719;17219,850;47,08666
 949,70; 8166,748;  218,104;17085,235;47,12505
 950,25; 8178,363;  237,181;17045,158;47,24651
 950,80; 8089,287;  196,027;16909,081;47,22811
 951,36; 8054,056;  197,873;16863,235;47,14079
 951,91; 8115,979;  230,565;16832,927;47,49573
 952,46; 8034,517;  199,719;16575,158;47,84481
 953,01; 8074,517;  242,950;16650,619;47,73114
 953,56; 8029,825;  195,104;16489,542;48,08218
 954,11; 8019,210;  233,565;16458,312;47,98623
 954,67; 8019,210;  219,719;16418,312;48,14919
 955,22; 7930,902;  207,181;16251,773;48,13909
 955,77; 8003,363;  242,412;16265,004;48,43755
 956,32; 7995,979;  275,181;16178,927;48,54704
 956,87; 7884,517;  206,565;15991,235;48,64183
 957,42; 7876,056;  211,258;15955,850;48,68210
 957,98; 7871,210;  214,335;15911,465;48,77882
 958,53; 7895,440;  238,412;15814,004;49,16043
 959,08; 7827,671;  201,796;15706,619;49,18389
 959,63; 7779,517;  206,796;15611,312;49,15910
 960,18; 7795,287;  229,873;15587,312;49,26221
 960,73; 7760,517;  226,796;15466,158;49,43594
 961,28; 7714,056;  199,873;15403,312;49,42423
 961,83; 7781,363;  238,181;15367,619;49,85765
 962,39; 7645,056;  204,642;15236,542;49,49749
 962,94; 7661,363;  228,181;15135,158;49,86378
 963,49; 7625,210;  223,565;15083,158;49,81055
 964,04; 7607,825;  235,642;15060,927;49,72709
 964,59; 7562,517;  190,873;14878,773;50,18855
 965,14; 7515,748;  237,950;14853,158;49,79606
 965,69; 7526,056;  226,181;14738,388;50,30162
 966,24; 7474,902;  216,104;14616,465;50,40705
 966,79; 7440,287;  233,488;14561,158;50,29986
 967,34; 7404,979;  193,104;14409,696;50,72858
 967,89; 7440,056;  206,027;14404,312;50,95002
 968,44; 7406,210;  216,027;14305,773;51,03131
 968,99; 7375,517;  221,950;14292,465;50,84083
 969,55; 7337,825;  222,027;14166,619;51,02909
 970,10; 7300,517;  226,488;14098,312;50,99567
 970,65; 7274,056;  246,873;14004,696;51,07772
 971,20; 7194,133;  214,181;13909,773;50,96495
 971,75; 7124,210;  197,796;13668,542;51,41819
 972,30; 7107,440;  223,104;13699,081;51,08599
 972,85; 7047,979;  212,181;13631,004;50,94186
 973,40; 7019,363;  206,258;13559,158;51,02342
 973,95; 7030,287;  222,719;13453,312;51,45323
 974,50; 6984,748;  246,565;13406,773;51,20119
 975,05; 6943,056;  227,335;13275,619;51,46823
 975,60; 6897,287;  233,642;13192,388;51,42198
 976,15; 6884,363;  213,719;13086,158;51,82114
 976,70; 6870,594;  225,719;13024,312;51,91880
 977,25; 6844,287;  228,950;12980,388;51,87914
 977,80; 6777,825;  205,104;12853,542;51,96468
 978,35; 6731,671;  228,565;12647,773;52,36329
 978,89; 6667,517;  198,719;12588,388;52,21122
 979,44; 6634,363;  228,873;12625,081;51,67298
 979,99; 6573,979;  209,873;12401,619;52,20012
 980,54; 6591,671;  243,412;12386,850;52,27728
 981,09; 6539,056;  239,258;12232,388;52,52839
 981,64; 6496,902;  234,873;12097,773;52,78666
 982,19; 6473,902;  261,027;12125,081;52,36722
 982,74; 6373,363;  245,027;11893,081;52,61254
 983,29; 6298,363;  213,950;11764,619;52,67585
 983,84; 6266,979;  235,258;11668,773;52,75474
 984,39; 6277,902;  303,104;11711,542;52,37174
 984,94; 6182,517;  203,027;11481,619;53,01628
 985,49; 6190,440;  250,873;11470,542;52,93888
 986,03; 6140,902;  250,488;11413,235;52,76850
 986,58; 6090,210;  276,027;11242,619;53,01722
 987,13; 6004,056;  237,027;11119,465;52,99390
 987,68; 5972,748;  235,335;11045,773;53,07290
 988,23; 5945,363;  237,258;10984,850;53,11055
 988,78; 5848,210;  223,873;10863,235;52,86348
 989,33; 5833,210;  241,873;10732,696;53,29741
 989,88; 5829,210;  249,642;10721,619;53,28094
 990,42; 5702,825;  232,642;10586,158;52,83406
 990,97; 5655,594;  224,950;10463,004;53,04372
 991,52; 5639,210;  253,719;10376,850;53,19985
 992,07; 5550,056;  255,873;10301,927;52,69913
 992,62; 5520,979;  239,873;10217,773;52,92803
 993,17; 5448,287;  238,181;10072,004;52,98149
 993,71; 5439,287;  248,950; 9954,235;53,47949
 994,26; 5358,440;  222,181; 9825,850;53,48226
 994,81; 5330,056;  250,181; 9767,850;53,37310
 995,36; 5291,056;  226,719; 9628,773;53,86415
 995,91; 5252,210;  235,258; 9593,004;53,61282
 996,45; 5175,825;  236,335; 9483,619;53,41558
 997,00; 5124,825;  207,950; 9335,850;53,86644
 997,55; 5150,287;  233,873; 9334,927;54,02027
 998,10; 5056,440;  265,488; 9163,773;53,84130
 998,65; 5039,440;  231,412; 9172,465;53,77474
 999,19; 5013,979;  252,104; 9013,158;54,35276
 999,74; 4922,363;  276,181; 8985,542;53,34700
1000,29; 4877,363;  246,719; 8828,773;53,95730
1000,84; 4800,671;  223,104; 8741,696;53,73619
1001,38; 4785,902;  237,412; 8648,388;54,07803
1001,93; 4763,902;  248,181; 8601,158;54,06122
1002,48; 4647,594;  221,950; 8410,542;54,04646
1003,03; 4651,210;  238,565; 8394,696;54,10218
1003,57; 4605,748;  249,719; 8249,158;54,45418
1004,12; 4563,133;  272,412; 8205,235;54,08820
1004,67; 4532,056;  226,719; 8094,235;54,72295
1005,22; 4452,517;  217,796; 7967,081;54,64661
1005,76; 4353,594;  217,335; 7848,235;54,20409
1006,31; 4379,056;  247,642; 7815,850;54,58906
1006,86; 4277,825;  222,104; 7678,850;54,38996
1007,40; 4220,594;  210,950; 7571,850;54,47220
1007,95; 4220,133;  236,873; 7480,158;54,99245
1008,50; 4141,671;  231,642; 7337,388;55,02630
1009,04; 4122,594;  219,950; 7249,004;55,52162
1009,59; 4060,748;  240,412; 7142,312;55,35195
1010,14; 4001,287;  216,335; 7033,312;55,52244
1010,68; 3965,902;  229,565; 6973,773;55,40067
1011,23; 3889,902;  224,950; 6797,542;55,76113
1011,78; 3865,825;  234,181; 6780,465;55,47642
1012,32; 3825,825;  247,565; 6639,465;55,98116
1012,87; 3809,363;  253,412; 6621,081;55,84385
1013,42; 3690,210;  218,258; 6484,004;55,41163
1013,96; 3746,594;  258,488; 6507,081;55,82227
1014,51; 3696,363;  198,335; 6424,619;56,18164
1015,06; 3643,979;  204,335; 6429,158;55,25690
1015,60; 3734,210;  268,565; 6443,619;56,12330
1016,15; 3704,210;  224,104; 6407,542;56,28108
1016,69; 3726,594;  233,950; 6431,158;56,35835
1017,24; 3686,517;  205,258; 6454,927;55,70310
1017,79; 3771,902;  251,796; 6551,081;55,88104
1018,33; 3744,440;  218,412; 6526,158;55,89998
1018,88; 3780,133;  242,258; 6598,927;55,65611
1019,42; 3807,979;  229,412; 6609,388;56,09060
1019,97; 3791,748;  209,642; 6586,388;56,17451
1020,51; 3806,517;  243,335; 6614,927;55,92295
1021,06; 3784,979;  199,258; 6623,081;55,81911
1021,61; 3748,979;  204,258; 6566,081;55,71864
1022,15; 3748,440;  180,027; 6530,927;56,18752
1022,70; 3763,979;  223,873; 6544,388;56,00976
1023,24; 3722,594;  217,104; 6506,696;55,73478
1023,79; 3726,440;  214,873; 6440,312;56,40675
1024,33; 3692,440;  219,642; 6432,696;55,89519
1024,88; 3641,979;  224,565; 6301,158;56,23898
1025,42; 3622,748;  216,335; 6201,773;56,91168
1025,97; 3549,133;  219,027; 6159,696;56,05607
1026,51; 3471,979;  185,488; 6011,927;56,40651
1027,06; 3444,440;  206,488; 5991,850;55,96801
1027,60; 3438,594;  239,258; 5887,235;56,64571
1028,15; 3389,440;  245,873; 5774,696;56,85780
1028,69; 3286,825;  198,950; 5671,004;56,42991
1029,24; 3284,210;  217,104; 5593,542;57,04717
1029,78; 3224,671;  215,181; 5512,696;56,80947
1030,33; 3157,440;  196,565; 5423,542;56,64603
1030,87; 3167,825;  222,642; 5339,312;57,56054
1031,42; 3068,594;  202,181; 5270,850;56,55160
1031,96; 3071,517;  233,488; 5172,465;57,46188
1032,51; 3005,979;  211,796; 5112,696;57,01366
1033,05; 2990,902;  216,104; 5063,465;57,24347
1033,60; 2911,594;  191,950; 4923,927;57,47374
1034,14; 2912,133;  213,565; 4874,388;57,89894
1034,69; 2871,979;  219,642; 4796,312;57,95342
1035,23; 2824,440;  208,796; 4739,927;57,72608
1035,77; 2809,133;  201,412; 4670,388;58,35164
1036,32; 2739,133;  190,950; 4605,312;57,72483
1036,86; 2720,671;  214,335; 4557,312;57,71010
1037,41; 2680,979;  225,104; 4481,542;57,69789
1037,95; 2613,979;  194,104; 4382,773;57,77193
1038,50; 2596,517;  206,412; 4372,696;57,36780
1039,04; 2574,056;  233,027; 4333,235;57,09537
1039,58; 2520,594;  196,488; 4222,388;57,72885
1040,13; 2508,902;  218,181; 4185,004;57,74700
1040,67; 2512,133;  237,488; 4167,081;57,88499
1041,21; 2465,979;  238,565; 4070,696;58,12467
1041,76; 2396,210;  199,104; 4016,850;57,54981
1042,30; 2387,748;  215,104; 3950,158;58,16902
1042,85; 2344,440;  217,335; 3897,235;57,80336
1043,39; 2275,671;  207,258; 3822,235;57,21789
1043,93; 2294,594;  223,335; 3783,773;58,17428
1044,48; 2240,210;  223,412; 3736,850;57,40240
1045,02; 2225,287;  213,104; 3690,850;57,85881
1045,56; 2239,979;  232,719; 3675,850;58,29751
1046,11; 2174,825;  220,642; 3615,004;57,57144
1046,65; 2171,133;  229,488; 3556,773;58,35522
1047,19; 2132,748;  207,104; 3511,465;58,27583
1047,74; 2089,825;  197,950; 3420,388;58,70942
1048,28; 2068,748;  220,181; 3400,927;58,11741
1048,82; 2082,287;  238,719; 3362,388;59,01929
1049,37; 2032,056;  228,412; 3294,004;58,83510
1049,91; 2022,287;  230,796; 3252,158;59,29414
1050,45; 2003,594;  233,258; 3229,158;59,09198
1050,99; 1958,979;  216,642; 3161,927;59,15681
1051,54; 1935,594;  208,796; 3103,696;59,64966
1052,08; 1948,133;  250,796; 3090,235;59,77719
1052,62; 1916,748;  236,719; 3048,696;59,74547
1053,16; 1856,056;  217,412; 2967,004;59,59590
1053,71; 1861,671;  230,565; 2937,465;60,25733
1054,25; 1811,825;  241,719; 2895,773;59,15878
1054,79; 1815,287;  231,642; 2873,235;59,95037
1055,33; 1739,979;  195,488; 2796,696;59,37590
1055,88; 1771,517;  231,412; 2778,312;60,46982
1056,42; 1750,133;  245,873; 2757,388;59,89450
1056,96; 1729,979;  238,565; 2705,158;60,46453
1057,50; 1703,440;  224,104; 2676,312;60,32672
1058,05; 1668,363;  221,335; 2629,773;60,08162
1058,59; 1665,133;  247,565; 2595,850;60,36608
1059,13; 1599,440;  206,181; 2532,158;59,89998
1059,67; 1614,440;  224,642; 2534,235;60,17504
1060,21; 1583,056;  218,796; 2464,235;60,75694
1060,76; 1571,133;  229,565; 2448,081;60,47140
1061,30; 1563,363;  248,565; 2444,773;59,86675
1061,84; 1545,287;  229,796; 2349,312;62,06562
1062,38; 1489,056;  218,335; 2286,542;61,44069
1062,92; 1522,517;  266,488; 2345,081;60,42690
1063,46; 1463,979;  247,181; 2274,388;60,02336
1064,01; 1438,440;  224,412; 2233,927;60,41401
1064,55; 1418,440;  231,565; 2217,773;59,75584
1065,09; 1366,056;  204,565; 2145,388;59,84525
1065,63; 1385,440;  253,719; 2166,388;59,16973
1066,17; 1403,287;  262,796; 2143,465;60,64279
1066,71; 1354,671;  247,258; 2125,388;58,96360
1067,25; 1314,979;  241,950; 2079,927;58,38097
1067,80; 1334,517;  256,873; 2061,696;59,70913
1068,34; 1322,133;  258,950; 2065,619;58,84767
1068,88; 1273,902;  225,181; 1990,696;59,40028
1069,42; 1316,133;  252,488; 2018,696;60,22192
1069,96; 1272,133;  234,642; 1949,081;60,51488
1070,50; 1275,210;  276,488; 1963,081;59,21533
1071,04; 1221,748;  220,950; 1888,696;60,00902
1071,58; 1238,133;  232,796; 1878,081;61,10411
1072,12; 1216,287;  233,796; 1855,081;60,59950
1072,66; 1188,517;  227,181; 1840,158;59,60014
1073,21; 1205,902;  243,104; 1838,004;60,36730
1073,75; 1176,133;  238,488; 1792,850;60,32343
1074,29; 1174,133;  245,950; 1790,388;60,09839
1074,83; 1176,594;  250,642; 1768,542;61,00217
1075,37; 1147,363;  255,796; 1760,542;59,25035
1075,91; 1140,210;  255,873; 1747,312;59,29420
1076,45; 1107,671;  236,565; 1700,004;59,52459
1076,99; 1114,594;  245,488; 1654,004;61,70368
1077,53; 1074,594;  229,104; 1627,004;60,48289
1078,07; 1092,287;  242,258; 1641,927;60,73069
1078,61; 1085,440;  237,412; 1612,081;61,68967
1079,15; 1067,133;  235,719; 1601,004;60,89671
1079,69; 1059,594;  236,796; 1561,235;62,12430
1080,23; 1059,671;  253,335; 1567,850;61,34097
1080,77; 1066,363;  284,719; 1574,388;60,60812
1081,31; 1020,594;  219,565; 1499,235;62,59655
1081,85; 1024,056;  250,719; 1528,004;60,54536
1082,39;  997,825;  228,027; 1476,927;61,63809
1082,93; 1002,440;  249,950; 1489,312;60,71597
1083,47;  974,825;  228,565; 1438,773;61,66376
1084,01;  988,825;  246,027; 1466,388;60,86705
1084,55;  960,979;  235,258; 1420,004;61,25541
1085,09;  969,825;  247,950; 1420,004;61,59060
1085,63;  947,594;  254,335; 1380,158;61,57802
1086,17;  941,671;  224,719; 1372,158;62,48282
1086,71;  916,748;  229,796; 1356,773;60,95528
1087,24;  950,056;  266,642; 1373,927;61,71976
1087,78;  920,594;  249,258; 1344,235;61,31057
1088,32;  881,748;  234,488; 1302,312;60,61487
1088,86;  915,748;  255,027; 1325,696;61,71104
1089,40;  904,440;  239,335; 1279,004;63,97282
1089,94;  866,671;  223,027; 1243,081;63,09904
1090,48;  875,517;  243,258; 1242,312;63,28584
1091,02;  864,440;  254,258; 1254,081;61,02907
1091,56;  857,056;  240,642; 1240,312;61,66174
1092,10;  833,979;  213,412; 1184,927;63,87622
1092,63;  839,287;  259,258; 1217,465;60,53269
1093,17;  833,056;  244,719; 1203,004;61,39476
1093,71;  810,440;  229,488; 1160,235;62,41787
1094,25;  835,517;  264,950; 1180,158;62,34293
1094,79;  795,902;  240,488; 1147,542;61,23269
1095,33;  809,133;  247,796; 1127,312;63,82339
1095,87;  792,594;  240,412; 1124,619;62,44943
1096,40;  766,440;  216,950; 1088,619;63,03886
1096,94;  771,671;  242,104; 1091,927;62,31501
1097,48;  767,902;  251,181; 1084,465;62,01016
1098,02;  758,440;  236,181; 1071,927;62,49022
1098,56;  707,440;  208,104; 1018,388;61,62483
1099,10;  708,517;  220,719; 1013,850;61,50286
1099,63;  705,902;  216,642; 1022,465;60,71551
1100,17;  733,517;  235,565; 1028,696;62,78308
1100,71;  730,825;  259,719; 1034,465;60,80776

