
Integration time [ms]: 120,000
Averaging Nr. [scans]: 13
Smoothing Nr. [pixels]: 0
Data measured with spectrometer [name]: 2009305U1
Wave   ;Sample   ;Dark     ;Reference;Reflectance
[nm]   ;[counts] ;[counts] ;[counts] ;[%]

 175,72;  197,193;  198,725;  209,729;-13,91500
 176,32;  224,682;  233,791;  221,495; 0,00000
 176,92;  248,402;  251,952;  246,144; 0,00000
 177,52;  260,711;  249,569;  261,381;94,32385
 178,12;  231,289;  210,945;  220,620;210,26659
 178,72;  264,707;  248,635;  250,038;1145,20220
 179,32;  241,284;  255,406;  241,911; 0,00000
 179,92;  255,366;  255,641;  248,129; 0,00000
 180,52;  249,958;  233,115;  240,492;228,30166
 181,12;  255,708;  249,103;  245,056; 0,00000
 181,73;  271,884;  265,873;  272,598;89,37973
 182,33;  344,807;  349,879;  341,303; 0,00000
 182,93;  273,273;  259,492;  262,580;446,18647
 183,53;  243,831;  241,402;  230,123; 0,00000
 184,13;  240,052;  231,942;  223,284; 0,00000
 184,73;  273,509;  262,785;  270,840;133,13404
 185,33;  253,436;  235,800;  340,235;16,88718
 185,93;  272,791;  233,331;  341,231;36,57091
 186,53;  282,706;  252,412;  358,480;28,56098
 187,13;  308,409;  259,651;  408,456;32,76636
 187,73;  270,867;  235,102;  356,651;29,42430
 188,33;  262,668;  242,097;  355,217;18,18489
 188,93;  284,421;  252,084;  372,324;26,89339
 189,53;  282,707;  250,458;  375,462;25,79866
 190,13;  312,976;  288,441;  393,447;23,36538
 190,73;  260,855;  221,607;  354,699;29,48966
 191,34;  299,328;  261,772;  383,107;30,95194
 191,94;  269,043;  243,170;  355,212;23,09218
 192,54;  282,192;  244,657;  378,976;27,94430
 193,14;  302,362;  261,650;  386,945;32,49305
 193,74;  283,155;  256,803;  371,292;23,01691
 194,34;  270,639;  254,345;  379,723;12,99585
 194,94;  241,617;  215,650;  345,606;19,98143
 195,54;  223,569;  198,339;  325,621;19,82162
 196,14;  259,427;  226,731;  350,792;26,35449
 196,74;  256,985;  216,030;  338,690;33,38911
 197,34;  222,301;  203,967;  338,400;13,63801
 197,94;  257,181;  224,267;  375,503;21,76322
 198,54;  269,952;  232,346;  384,669;24,68812
 199,14;  247,446;  223,046;  367,104;16,93705
 199,74;  228,268;  202,354;  368,520;15,59488
 200,34;  229,561;  194,509;  366,971;20,32424
 200,94;  268,698;  234,889;  406,748;19,67251
 201,54;  248,803;  216,814;  407,160;16,80552
 202,14;  272,187;  240,665;  454,320;14,75344
 202,74;  258,584;  228,200;  447,857;13,83241
 203,34;  236,108;  181,976;  463,089;19,25615
 203,94;  204,759;  166,204;  459,631;13,13930
 204,54;  286,175;  236,729;  542,983;16,14530
 205,14;  246,279;  194,585;  536,212;15,13161
 205,74;  298,694;  237,668;  639,180;15,19908
 206,34;  257,274;  204,050;  630,780;12,47267
 206,94;  275,236;  210,433;  685,452;13,64221
 207,54;  239,975;  177,588;  721,425;11,47172
 208,14;  260,332;  208,358;  795,906; 8,84592
 208,74;  271,287;  208,200;  848,241; 9,85674
 209,34;  272,477;  207,355;  912,599; 9,23398
 209,94;  282,204;  216,431; 1015,259; 8,23366
 210,54;  281,076;  207,205; 1109,050; 8,19103
 211,14;  303,406;  214,662; 1195,427; 9,04847
 211,73;  299,040;  208,506; 1299,988; 8,29457
 212,33;  322,491;  222,812; 1397,255; 8,48737
 212,93;  302,874;  208,738; 1479,640; 7,40700
 213,53;  281,494;  184,046; 1538,349; 7,19541
 214,13;  320,226;  193,748; 1630,932; 8,80041
 214,73;  299,956;  179,434; 1625,550; 8,33414
 215,33;  297,589;  163,585; 1674,567; 8,86864
 215,93;  338,408;  208,899; 1774,717; 8,27106
 216,53;  296,139;  168,430; 1832,838; 7,67296
 217,13;  370,269;  229,436; 2022,497; 7,85434
 217,73;  379,283;  197,822; 2208,241; 9,02604
 218,33;  354,647;  156,057; 2364,675; 8,99159
 218,93;  396,270;  181,834; 2630,757; 8,75635
 219,53;  431,469;  180,903; 2889,476; 9,25084
 220,13;  446,769;  168,059; 3125,529; 9,42394
 220,73;  500,464;  190,893; 3430,322; 9,55633
 221,32;  534,826;  184,508; 3811,856; 9,65769
 221,92;  582,674;  193,366; 4182,543; 9,75911
 222,52;  593,429;  172,284; 4562,289; 9,59326
 223,12;  658,972;  184,900; 4945,153; 9,95897
 223,72;  721,871;  200,285; 5311,646;10,20445
 224,32;  758,594;  192,747; 5676,679;10,31828
 224,92;  777,799;  183,362; 5950,894;10,30660
 225,52;  822,981;  207,356; 6276,099;10,14419
 226,12;  879,434;  187,051; 6571,650;10,84457
 226,72;  886,620;  160,666; 6841,878;10,86561
 227,31;  908,517;  156,666; 7219,939;10,64451
 227,91; 1008,858;  190,894; 7541,280;11,12817
 228,51; 1044,423;  186,812; 7911,520;11,10218
 229,11; 1107,244;  181,820; 8271,138;11,44008
 229,71; 1139,256;  176,122; 8541,977;11,51267
 230,31; 1192,022;  169,748; 8933,640;11,66461
 230,91; 1238,718;  158,502; 9183,125;11,96965
 231,51; 1295,872;  167,360; 9538,918;12,04188
 232,10; 1316,981;  169,980; 9825,075;11,87975
 232,70; 1398,177;  177,422;10037,261;12,38109
 233,30; 1502,711;  204,206;10330,930;12,82256
 233,90; 1515,993;  173,898;10431,145;13,08435
 234,50; 1579,551;  173,514;10561,102;13,53574
 235,10; 1601,953;  170,439;10679,048;13,62229
 235,70; 1655,868;  196,355;10707,048;13,88598
 236,29; 1682,168;  189,507;10660,055;14,25581
 236,89; 1717,993;  164,349;10563,896;14,93954
 237,49; 1738,805;  187,436;10546,988;14,97526
 238,09; 1740,197;  169,434;10299,934;15,50529
 238,69; 1775,941;  199,577;10085,824;15,94502
 239,29; 1750,625;  173,126; 9816,008;16,35921
 239,89; 1760,712;  193,964; 9557,989;16,73156
 240,48; 1715,863;  169,819; 9189,380;17,14102
 241,08; 1683,056;  173,895; 8870,359;17,35373
 241,68; 1711,932;  202,973; 8542,428;18,09421
 242,28; 1667,797;  173,206; 8296,267;18,39936
 242,88; 1686,664;  210,364; 8015,271;18,91502
 243,48; 1661,291;  214,359; 7813,649;19,04036
 244,07; 1637,831;  190,279; 7524,495;19,73698
 244,67; 1648,822;  193,589; 7335,200;20,37682
 245,27; 1631,271;  198,121; 7224,988;20,39528
 245,87; 1632,169;  202,978; 7137,422;20,61002
 246,47; 1665,297;  186,737; 7152,619;21,22574
 247,06; 1647,458;  178,433; 7115,577;21,17622
 247,66; 1674,536;  190,742; 7171,967;21,25406
 248,26; 1727,086;  211,199; 7383,422;21,13553
 248,86; 1771,326;  187,583; 7554,528;21,49796
 249,46; 1800,281;  151,745; 7751,040;21,69328
 250,05; 1865,373;  205,203; 8059,625;21,13676
 250,65; 1916,929;  156,351; 8391,138;21,37976
 251,25; 2017,194;  175,510; 8846,420;21,23981
 251,85; 2107,749;  188,657; 9377,235;20,88563
 252,44; 2186,030;  152,046;10031,610;20,58779
 253,04; 2384,540;  201,662;10746,245;20,70142
 253,64; 2466,960;  153,197;11314,012;20,73113
 254,24; 2650,782;  191,741;12220,363;20,44324
 254,84; 2779,127;  166,745;13137,194;20,14103
 255,43; 2973,687;  180,354;13986,565;20,23244
 256,03; 3116,041;  179,120;14914,490;19,93110
 256,63; 3307,967;  182,657;15992,265;19,76842
 257,23; 3435,548;  178,195;16766,067;19,63695
 257,82; 3621,420;  187,423;17744,651;19,55888
 258,42; 3709,592;  152,113;18540,057;19,34680
 259,02; 3882,628;  195,508;19439,475;19,15988
 259,62; 3960,965;  174,574;20014,745;19,08447
 260,21; 4057,966;  187,584;20539,271;19,01750
 260,81; 4116,174;  174,128;20993,664;18,93436
 261,41; 4164,412;  166,037;21535,894;18,71035
 262,01; 4270,807;  206,264;21932,846;18,70770
 262,60; 4239,240;  161,657;22263,375;18,44917
 263,20; 4313,743;  174,198;22619,064;18,44317
 263,80; 4357,126;  197,880;22817,691;18,38763
 264,40; 4317,687;  155,342;23010,849;18,21156
 264,99; 4394,044;  195,802;23187,520;18,25980
 265,59; 4363,298;  168,336;23290,435;18,14265
 266,19; 4327,871;  175,572;23408,876;17,87219
 266,78; 4391,700;  207,185;23564,540;17,91519
 267,38; 4339,925;  185,875;23535,671;17,79052
 267,98; 4290,652;  178,493;23588,757;17,56562
 268,58; 4290,129;  189,029;23610,424;17,51006
 269,17; 4292,946;  178,179;23588,237;17,57692
 269,77; 4280,441;  192,578;23479,767;17,55413
 270,37; 4197,824;  161,110;23253,673;17,48058
 270,96; 4214,714;  219,115;23179,220;17,40236
 271,56; 4131,864;  181,041;22949,788;17,35195
 272,16; 4106,421;  181,652;22839,153;17,32216
 272,75; 4069,001;  179,345;22647,263;17,31205
 273,35; 4048,424;  185,962;22752,668;17,11576
 273,95; 4011,362;  182,345;22634,525;17,05410
 274,54; 4009,692;  162,280;22661,239;17,10040
 275,14; 4112,363;  199,500;23009,838;17,15390
 275,74; 4093,691;  157,729;22979,523;17,24651
 276,33; 4162,786;  206,040;23339,167;17,10424
 276,93; 4197,703;  185,666;23789,475;16,99742
 277,53; 4283,452;  184,200;24196,394;17,07154
 278,12; 4366,541;  159,196;24656,393;17,17480
 278,72; 4511,895;  210,968;25209,099;17,20499
 279,32; 4602,800;  177,353;25795,343;17,27477
 279,91; 4746,250;  173,275;26468,338;17,39100
 280,51; 4851,160;  180,661;27006,795;17,41025
 281,11; 5010,531;  181,582;27679,169;17,56136
 281,70; 5112,320;  155,889;28143,812;17,70918
 282,30; 5245,018;  175,887;28664,557;17,79350
 282,90; 5395,516;  184,733;29140,880;17,99543
 283,49; 5569,016;  191,654;29639,315;18,26074
 284,09; 5707,419;  209,735;30013,118;18,44651
 284,69; 5846,939;  208,352;30383,634;18,68611
 285,28; 5997,981;  198,581;30659,164;19,03903
 285,88; 6165,689;  234,268;31004,553;19,27646
 286,47; 6284,310;  178,656;30948,156;19,84320
 287,07; 6438,440;  220,122;30971,081;20,22154
 287,67; 6585,214;  205,282;31249,572;20,55106
 288,26; 6797,130;  173,583;31154,111;21,37971
 288,86; 7005,920;  177,427;31163,873;22,03703
 289,46; 7234,279;  194,890;31354,786;22,59118
 290,05; 7482,680;  176,971;31383,773;23,41063
 290,65; 7814,098;  191,425;31591,261;24,27616
 291,24; 8123,856;  197,814;31745,730;25,12382
 291,84; 8410,813;  198,734;31851,188;25,94453
 292,44; 8728,195;  193,513;31994,544;26,83775
 293,03; 9084,535;  249,968;32153,222;27,69174
 293,63; 9308,567;  186,964;32285,480;28,41752
 294,22; 9569,929;  208,736;32427,446;29,05515
 294,82; 9836,164;  179,111;32457,635;29,91789
 295,41; 9948,089;  168,197;32179,428;30,55144
 296,01;10105,170;  220,882;32137,119;30,96946
 296,61;10235,636;  209,660;31938,498;31,59894
 297,20;10265,572;  198,652;31498,260;32,16309
 297,80;10293,217;  189,818;31371,885;32,40131
 298,39;10317,057;  168,349;31012,542;32,90314
 298,99;10383,664;  196,577;30953,082;33,12173
 299,58;10416,692;  210,666;30637,168;33,54321
 300,18;10422,645;  218,664;30536,651;33,65653
 300,78;10351,098;  187,969;30175,812;33,89083
 301,37;10384,202;  210,801;30210,608;33,91155
 301,97;10493,868;  192,736;30210,385;34,31692
 302,56;10475,164;  180,117;30097,031;34,41213
 303,16;10478,370;  178,501;30021,826;34,51314
 303,75;10471,453;  188,816;30056,938;34,42679
 304,35;10615,675;  181,592;30296,229;34,64788
 304,94;10601,576;  192,275;30223,710;34,66135
 305,54;10661,056;  202,738;30212,702;34,84949
 306,13;10586,256;  162,515;30220,877;34,67834
 306,73;10517,078;  171,667;29981,020;34,70525
 307,33;10548,774;  197,897;30003,878;34,72752
 307,92;10549,946;  200,276;30009,930;34,71919
 308,52;10621,636;  164,039;30460,332;34,51774
 309,11;10823,139;  184,805;30865,317;34,67456
 309,71;10885,667;  165,957;31097,892;34,65580
 310,30;10915,212;  168,199;31341,744;34,47479
 310,90;11069,365;  214,660;31732,359;34,44003
 311,49;11081,143;  187,198;31844,388;34,41223
 312,09;11053,210;  150,125;31981,436;34,25270
 312,68;11267,494;  221,508;32445,118;34,27917
 313,28;11229,407;  164,968;32508,776;34,20883
 313,87;11189,337;  155,737;32612,835;33,99441
 314,47;11267,355;  179,883;32880,460;33,90604
 315,06;11309,627;  164,892;33020,392;33,92046
 315,66;11274,517;  163,895;33161,590;33,67091
 316,25;11160,823;  153,271;33134,720;33,37498
 316,85;11170,276;  150,895;33146,514;33,39650
 317,44;11112,425;  168,882;33320,627;33,01046
 318,04;11069,235;  157,041;33358,819;32,86629
 318,63;10970,476;  156,129;33413,451;32,51719
 319,22;10973,571;  181,886;33687,260;32,20882
 319,82;10899,979;  176,965;33726,732;31,96151
 320,41;10779,997;  188,887;33581,370;31,71705
 321,01;10759,396;  194,740;33730,664;31,50250
 321,60;10649,225;  183,350;33856,364;31,08090
 322,20;10597,269;  167,276;33758,639;31,04963
 322,79;10551,717;  207,430;33929,362;30,67525
 323,39;10460,233;  173,438;34018,334;30,39393
 323,98;10386,133;  164,200;33942,472;30,26186
 324,58;10274,726;  173,116;33789,917;30,04929
 325,17;10155,390;  185,502;33722,475;29,72805
 325,76;10004,796;  194,121;33481,634;29,47254
 326,36; 9842,741;  166,894;33169,218;29,31868
 326,95; 9698,960;  201,197;32821,858;29,11579
 327,55; 9488,592;  172,273;32580,839;28,74647
 328,14; 9288,004;  161,050;32147,564;28,53376
 328,74; 9144,727;  198,502;31792,923;28,31584
 329,33; 8989,508;  195,278;31370,401;28,20913
 329,92; 8720,077;  154,959;30887,103;27,87023
 330,52; 8524,136;  189,204;30203,412;27,76996
 331,11; 8356,085;  187,197;29806,103;27,57998
 331,71; 8097,327;  178,967;29282,569;27,20749
 332,30; 7907,037;  195,506;28842,479;26,91918
 332,89; 7746,516;  236,124;28405,815;26,66125
 333,49; 7563,973;  194,351;27811,673;26,68478
 334,08; 7380,886;  177,196;27493,100;26,37178
 334,68; 7194,388;  192,581;27000,316;26,11861
 335,27; 7044,684;  191,512;26650,986;25,90064
 335,86; 6950,854;  222,889;26456,564;25,64629
 336,46; 6767,392;  194,436;26199,541;25,27564
 337,05; 6683,597;  176,966;26018,241;25,17922
 337,65; 6594,401;  160,811;25875,670;25,01896
 338,24; 6561,247;  224,123;25891,948;24,68898
 338,83; 6512,788;  200,738;25754,918;24,70066
 339,43; 6467,839;  173,348;25758,583;24,60204
 340,02; 6381,550;  175,578;25570,534;24,43781
 340,61; 6312,537;  177,122;25648,038;24,08792
 341,21; 6311,650;  210,963;25690,769;23,94322
 341,80; 6278,937;  189,657;25615,084;23,94957
 342,40; 6217,215;  180,589;25697,459;23,65739
 342,99; 6234,824;  179,355;25775,661;23,65759
 343,58; 6212,662;  181,355;25977,863;23,38032
 344,18; 6218,372;  197,971;26092,927;23,24932
 344,77; 6256,665;  165,732;26394,318;23,22250
 345,36; 6286,267;  166,658;26652,242;23,10543
 345,96; 6334,611;  207,432;26959,571;22,90351
 346,55; 6365,172;  170,207;27168,889;22,94543
 347,14; 6410,563;  163,435;27487,598;22,86302
 347,74; 6458,645;  144,827;27869,864;22,77298
 348,33; 6598,368;  178,596;28420,892;22,73106
 348,92; 6692,661;  181,599;29109,307;22,50804
 349,52; 6807,721;  159,597;29486,131;22,66931
 350,11; 6807,108;  177,654;29780,485;22,39466
 350,70; 6813,728;  172,122;29801,438;22,41566
 351,29; 6760,443;  170,031;29587,678;22,40292
 351,89; 6737,895;  198,574;29521,502;22,30105
 352,48; 6715,150;  154,891;29577,683;22,29652
 353,07; 6734,686;  190,436;29611,494;22,24342
 353,67; 6695,384;  195,061;29508,263;22,17541
 354,26; 6641,191;  186,127;29303,183;22,16936
 354,85; 6572,623;  183,049;29206,884;22,01492
 355,45; 6519,354;  160,580;28976,851;22,06661
 356,04; 6516,858;  177,667;28863,558;22,09864
 356,63; 6503,667;  201,736;28756,951;22,06928
 357,22; 6460,631;  182,033;28529,688;22,14856
 357,82; 6405,623;  178,573;28303,126;22,14098
 358,41; 6422,844;  197,198;28225,802;22,21176
 359,00; 6376,698;  169,194;28039,475;22,27284
 359,60; 6414,388;  190,200;27965,671;22,40894
 360,19; 6384,621;  189,283;27739,961;22,48706
 360,78; 6363,990;  188,811;27658,808;22,47972
 361,37; 6374,581;  176,735;27434,916;22,73756
 361,97; 6334,301;  189,428;27383,861;22,59607
 362,56; 6306,504;  173,116;27056,561;22,81474
 363,15; 6306,409;  215,273;26861,468;22,85931
 363,74; 6217,575;  191,806;26488,153;22,91485
 364,34; 6205,170;  201,425;26092,628;23,18836
 364,93; 6130,459;  181,423;25766,867;23,25164
 365,52; 6083,931;  158,350;25396,410;23,47875
 366,11; 6058,942;  179,348;25099,599;23,59364
 366,71; 6026,417;  171,271;24664,030;23,90562
 367,30; 5980,625;  181,274;24351,150;23,99413
 367,89; 5992,711;  218,356;24117,806;24,16104
 368,48; 5946,757;  193,114;23831,370;24,34039
 369,07; 5893,728;  180,045;23481,745;24,52046
 369,67; 5876,534;  211,038;23145,589;24,70289
 370,26; 5887,219;  176,584;22904,962;25,12557
 370,85; 5876,302;  189,581;22579,595;25,39847
 371,44; 5856,221;  185,197;22472,583;25,44499
 372,03; 5836,568;  164,425;22167,136;25,77929
 372,63; 5844,795;  157,812;21893,705;26,16402
 373,22; 5862,814;  178,276;21618,236;26,51375
 373,81; 5797,135;  160,581;21348,164;26,60310
 374,40; 5816,402;  189,357;21109,918;26,89720
 374,99; 5830,189;  173,119;20805,236;27,41876
 375,59; 5795,461;  172,818;20548,239;27,59522
 376,18; 5869,462;  201,657;20421,884;28,03037
 376,77; 5877,995;  195,044;20284,216;28,28863
 377,36; 5939,109;  210,812;20218,225;28,63087
 377,95; 5937,369;  197,579;19936,400;29,07869
 378,55; 5927,550;  170,740;19722,664;29,44370
 379,14; 6012,095;  197,196;19652,640;29,88829
 379,73; 6065,167;  190,195;19586,848;30,28859
 380,32; 6152,083;  193,428;19698,446;30,54934
 380,91; 6190,364;  180,730;19479,572;31,13987
 381,50; 6254,787;  201,731;19462,208;31,42734
 382,10; 6269,852;  173,582;19341,830;31,80400
 382,69; 6347,671;  153,196;19281,655;32,38355
 383,28; 6413,102;  205,655;19266,811;32,56595
 383,87; 6472,845;  175,116;19108,719;33,26218
 384,46; 6540,512;  165,112;19057,158;33,74648
 385,05; 6648,466;  219,270;19032,316;34,17414
 385,64; 6724,788;  181,194;19079,829;34,62469
 386,24; 6776,021;  165,265;19008,018;35,08381
 386,83; 6876,539;  200,649;19082,215;35,35666
 387,42; 7029,586;  206,964;19161,969;35,99378
 388,01; 7214,264;  193,645;19331,088;36,68525
 388,60; 7361,070;  194,266;19613,654;36,90541
 389,19; 7532,115;  170,485;19711,863;37,67201
 389,78; 7718,283;  180,564;20001,915;38,02828
 390,37; 8034,496;  238,340;20408,716;38,65152
 390,96; 8149,083;  193,188;20570,771;39,04239
 391,56; 8268,748;  191,407;20731,732;39,32431
 392,15; 8482,037;  188,103;21012,597;39,82778
 392,74; 8617,002;  164,630;21139,528;40,29756
 393,33; 8882,932;  186,714;21382,297;41,02845
 393,92; 9157,641;  192,780;21783,988;41,52089
 394,51; 9280,686;  170,175;21988,050;41,75710
 395,10; 9553,178;  212,461;22189,538;42,50209
 395,69; 9709,324;  206,155;22317,361;42,97897
 396,28; 9830,775;  205,150;22429,043;43,31206
 396,87; 9917,655;  208,293;22506,720;43,54281
 397,46;10132,367;  212,979;22584,582;44,33919
 398,06;10293,086;  224,355;22908,699;44,38626
 398,65;10473,804;  211,721;22862,365;45,30592
 399,24;10721,342;  227,025;23077,241;45,92655
 399,83;10810,133;  208,688;23078,877;46,35486
 400,42;10914,549;  248,124;23183,898;46,50563
 401,01;11098,986;  221,325;23296,255;47,14061
 401,60;11230,901;  244,208;23371,456;47,50541
 402,19;11291,315;  257,022;23296,956;47,89204
 402,78;11464,478;  257,588;23374,469;48,47925
 403,37;11455,015;  233,156;23158,178;48,95026
 403,96;11486,005;  244,024;23048,728;49,29676
 404,55;11584,451;  262,271;22963,326;49,87513
 405,14;11568,063;  238,215;22846,319;50,11410
 405,73;11631,225;  260,611;22788,222;50,47412
 406,32;11730,538;  259,029;22622,115;51,29663
 406,91;11692,726;  257,594;22411,638;51,61646
 407,50;11707,501;  264,260;22245,873;52,05824
 408,09;11641,599;  226,473;21951,682;52,54323
 408,68;11661,075;  254,536;21879,207;52,74780
 409,27;11680,806;  246,476;21712,453;53,26722
 409,86;11687,778;  256,439;21553,202;53,67642
 410,45;11747,249;  293,934;21550,876;53,88035
 411,04;11813,472;  292,352;21485,723;54,36190
 411,63;11681,780;  286,935;21190,695;54,51098
 412,22;11694,441;  280,668;20981,662;55,13635
 412,81;11571,321;  302,989;20780,234;55,02856
 413,40;11524,080;  310,469;20416,348;55,77280
 413,99;11401,610;  342,848;20183,307;55,73844
 414,58;11237,918;  277,159;19746,662;56,29707
 415,17;11185,297;  279,605;19575,189;56,51911
 415,76;11148,220;  270,666;19419,040;56,80667
 416,35;11122,074;  276,443;19110,200;57,58613
 416,94;11191,539;  310,670;19268,010;57,39660
 417,53;11378,041;  280,221;19408,256;58,01861
 418,12;11461,349;  269,533;19521,995;58,13187
 418,71;11845,957;  298,316;19861,765;59,02661
 419,30;11868,788;  287,073;20065,109;58,55847
 419,89;12084,168;  272,460;20163,447;59,38221
 420,48;12314,562;  294,085;20362,535;59,89738
 421,07;12438,826;  290,165;20498,503;60,11707
 421,66;12444,083;  266,558;20466,188;60,28588
 422,25;12526,263;  271,189;20540,583;60,46098
 422,84;12552,991;  299,962;20440,598;60,83735
 423,43;12379,905;  287,647;20178,320;60,79361
 424,02;12318,246;  302,727;19996,442;61,01194
 424,60;12120,937;  280,439;19584,206;61,33776
 425,19;12007,639;  296,044;19327,453;61,53824
 425,78;12031,855;  293,661;19228,750;61,99176
 426,37;12031,403;  300,437;19061,951;62,52676
 426,96;11942,918;  276,206;18925,136;62,55968
 427,55;11903,007;  275,294;18888,508;62,47021
 428,14;11729,789;  267,837;18586,022;62,57144
 428,73;11672,193;  288,366;18469,381;62,61381
 429,32;11734,020;  285,513;18413,992;63,15206
 429,91;11737,070;  320,982;18460,799;62,93387
 430,50;11710,373;  300,065;18279,640;63,46261
 431,08;11590,419;  307,455;18121,157;63,33868
 431,67;11590,423;  330,460;18059,181;63,51255
 432,26;11482,769;  352,773;17866,633;63,54965
 432,85;11330,753;  372,079;17525,688;63,88553
 433,44;11111,690;  388,471;17227,983;63,67892
 434,03;10893,476;  402,711;16826,982;63,87355
 434,62;10614,273;  359,087;16459,216;63,69630
 435,21;10554,916;  365,618;16298,030;63,95327
 435,79;10440,308;  376,323;16109,888;63,96506
 436,38;10428,001;  368,410;15986,717;64,40897
 436,97;10335,951;  351,796;15943,277;64,03597
 437,56;10250,850;  366,118;15775,296;64,14834
 438,15;10202,194;  330,960;15658,418;64,40229
 438,74;10188,569;  358,116;15673,578;64,18646
 439,33;10196,946;  334,421;15641,739;64,43013
 439,91;10171,131;  308,120;15728,245;63,96194
 440,50;10256,523;  353,275;15720,771;64,44282
 441,09;10332,225;  352,437;15858,362;64,36113
 441,68;10307,124;  330,291;15871,755;64,19494
 442,27;10286,688;  309,595;15870,416;64,11675
 442,86;10282,062;  286,691;15851,837;64,21637
 443,44;10306,741;  306,610;15894,282;64,15410
 444,03;10345,502;  376,999;16005,300;63,78494
 444,62;10298,489;  300,075;15815,177;64,44311
 445,21;10169,158;  324,227;15685,782;64,08811
 445,80;10117,046;  356,622;15621,797;63,93916
 446,39; 9947,041;  367,697;15356,081;63,91178
 446,97; 9773,777;  300,708;15192,640;63,61208
 447,56; 9664,866;  305,024;14946,971;63,92485
 448,15; 9543,864;  323,939;14810,409;63,64508
 448,74; 9350,401;  331,940;14558,368;63,39231
 449,33; 9238,465;  323,946;14452,718;63,09479
 449,91; 9133,378;  318,033;14243,239;63,30495
 450,50; 8960,895;  307,954;13988,738;63,24887
 451,09; 8893,780;  335,493;13900,297;63,09185
 451,68; 8866,066;  356,497;13844,731;63,08883
 452,26; 8767,304;  340,040;13735,304;62,91227
 452,85; 8686,905;  319,499;13610,323;62,95626
 453,44; 8658,429;  341,974;13683,567;62,33479
 454,03; 8613,232;  314,351;13625,594;62,34490
 454,61; 8556,605;  311,590;13609,495;62,00236
 455,20; 8666,178;  338,979;13743,391;62,12282
 455,79; 8666,992;  348,740;13741,725;62,10902
 456,38; 8682,651;  342,063;13817,793;61,89340
 456,97; 8732,948;  330,061;13863,829;62,08831
 457,55; 8687,713;  329,759;13876,516;61,69708
 458,14; 8698,712;  356,290;13890,729;61,63848
 458,73; 8619,889;  341,529;13835,213;61,34989
 459,31; 8616,821;  366,306;13850,064;61,18854
 459,90; 8619,569;  383,302;13974,214;60,60129
 460,49; 8677,837;  420,299;14008,495;60,76994
 461,08; 8634,696;  340,310;14107,021;60,24959
 461,66; 8677,381;  341,306;14143,370;60,39731
 462,25; 8690,209;  349,006;14205,437;60,19734
 462,84; 8701,949;  376,465;14250,179;60,00906
 463,43; 8617,059;  301,938;14247,046;59,62751
 464,01; 8600,664;  339,172;14309,864;59,13445
 464,60; 8599,822;  396,704;14200,171;59,42795
 465,19; 8366,727;  339,251;13997,782;58,77262
 465,77; 8362,504;  340,871;13977,125;58,82578
 466,36; 8290,303;  371,245;13839,631;58,79738
 466,95; 8052,673;  353,477;13528,774;58,43660
 467,53; 7890,941;  350,645;13289,085;58,27824
 468,12; 7712,992;  372,646;13030,152;57,99204
 468,71; 7570,469;  349,714;12788,109;58,05214
 469,29; 7360,543;  337,032;12597,465;57,28599
 469,88; 7230,888;  341,805;12287,066;57,67210
 470,47; 7285,133;  410,505;12431,822;57,18698
 471,06; 7178,894;  365,120;12397,793;56,62726
 471,64; 7203,589;  375,118;12462,030;56,49475
 472,23; 7205,272;  332,518;12524,681;56,37026
 472,81; 7227,762;  330,972;12651,188;55,97945
 473,40; 7251,147;  343,056;12714,206;55,84033
 473,99; 7399,020;  441,364;12943,375;55,65229
 474,57; 7360,463;  349,979;13036,466;55,25946
 475,16; 7407,086;  370,204;13165,595;54,99544
 475,75; 7469,920;  376,600;13294,845;54,90932
 476,33; 7474,650;  383,837;13411,872;54,42734
 476,92; 7500,777;  386,288;13452,566;54,44924
 477,51; 7484,852;  371,757;13544,460;53,99876
 478,09; 7449,213;  368,526;13511,952;53,87246
 478,68; 7421,892;  375,529;13454,486;53,87557
 479,27; 7414,206;  407,139;13495,077;53,53836
 479,85; 7358,221;  381,605;13495,561;53,19993
 480,44; 7396,944;  364,993;13660,405;52,89006
 481,02; 8035,614;  382,306;14973,490;52,45159
 481,61; 9017,346;  404,380;16859,203;52,34311
 482,20; 9639,372;  382,844;18027,106;52,46197
 482,78;10067,163;  415,453;18824,862;52,42814
 483,37;10236,110;  404,160;19388,819;51,78892
 483,95;10379,357;  414,546;19540,072;52,10216
 484,54;10413,477;  429,918;19769,660;51,62199
 485,13;10383,144;  405,860;19637,609;51,87924
 485,71;10188,004;  383,088;19561,922;51,12363
 486,30;10058,442;  414,396;19225,799;51,26702
 486,88; 9871,755;  453,937;18897,130;51,06392
 487,47; 9495,607;  439,784;18158,769;51,10802
 488,05; 8995,651;  423,480;17350,736;50,64123
 488,64; 8340,868;  419,870;16087,163;50,55754
 489,23; 7452,142;  438,174;14340,035;50,45345
 489,81; 6349,097;  428,406;12265,536;50,01796
 490,40; 5982,470;  387,177;11679,649;49,54887
 490,98; 5839,702;  377,333;11388,277;49,60855
 491,57; 5819,279;  389,405;11305,362;49,74254
 492,15; 5701,303;  379,719;11271,497;48,85873
 492,74; 5688,926;  391,249;11185,046;49,08075
 493,32; 5625,133;  401,179;11096,090;48,84523
 493,91; 5543,835;  371,029;10997,172;48,68000
 494,50; 5500,845;  396,040;10987,804;48,19598
 495,08; 5445,506;  367,578;10899,848;48,21305
 495,67; 5440,351;  393,490;10870,398;48,17128
 496,25; 5334,582;  329,188;10741,795;48,07051
 496,84; 5321,333;  352,951;10758,565;47,74713
 497,42; 5277,181;  346,344;10738,589;47,44727
 498,01; 5226,129;  371,414;10640,741;47,27394
 498,59; 5191,127;  337,653;10625,516;47,17669
 499,18; 5138,919;  341,722;10495,159;47,24702
 499,76; 5078,186;  361,958;10446,642;46,76625
 500,35; 4983,348;  344,581;10305,032;46,57186
 500,93; 4948,420;  327,267;10285,849;46,40373
 501,52; 4917,214;  332,883;10186,900;46,52246
 502,10; 4876,727;  357,201;10166,328;46,07470
 502,69; 4814,587;  332,974; 9938,653;46,65587
 503,27; 4683,221;  315,963; 9848,314;45,81512
 503,86; 4644,250;  333,818; 9763,892;45,70941
 504,44; 4576,364;  317,822; 9600,262;45,87741
 505,03; 4462,916;  297,206; 9442,846;45,54858
 505,61; 4414,297;  323,205; 9319,101;45,47732
 506,19; 4329,720;  353,052; 9155,045;45,17918
 506,78; 4208,933;  304,906; 8972,804;45,04006
 507,36; 4142,089;  317,744; 8825,028;44,95377
 507,95; 4082,790;  315,679; 8697,312;44,94484
 508,53; 4014,084;  315,444; 8551,911;44,90566
 509,12; 3932,123;  330,293; 8424,091;44,50111
 509,70; 3881,630;  337,141; 8297,561;44,52641
 510,29; 3799,620;  342,760; 8155,917;44,24408
 510,87; 3694,750;  312,906; 7973,279;44,14725
 511,46; 3608,806;  299,523; 7826,672;43,96463
 512,04; 3548,888;  312,219; 7675,583;43,95639
 512,62; 3462,628;  315,985; 7551,241;43,49042
 513,21; 3360,534;  298,068; 7394,888;43,15265
 513,79; 3328,214;  304,542; 7274,481;43,38161
 514,38; 3228,887;  278,384; 7111,677;43,17835
 514,96; 3253,008;  328,691; 7037,290;43,59058
 515,54; 3123,715;  293,309; 6884,424;42,94275
 516,13; 3082,865;  316,540; 6833,644;42,44715
 516,71; 3040,803;  308,699; 6687,051;42,83401
 517,30; 2945,747;  285,396; 6596,440;42,15390
 517,88; 2963,859;  311,780; 6533,254;42,62782
 518,46; 2855,729;  281,167; 6366,725;42,30608
 519,05; 2853,124;  310,247; 6315,772;42,34230
 519,63; 2815,400;  301,630; 6284,195;42,01827
 520,22; 2792,351;  318,330; 6201,767;42,05061
 520,80; 2727,832;  306,715; 6200,647;41,07814
 521,38; 2736,055;  338,325; 6179,452;41,04909
 521,97; 2699,305;  302,334; 6099,770;41,34537
 522,55; 2688,496;  319,257; 6071,093;41,19101
 523,13; 2656,397;  281,260; 6101,751;40,80648
 523,72; 2648,763;  296,397; 6063,462;40,78966
 524,30; 2717,085;  310,955; 6224,858;40,68600
 524,89; 2651,095;  285,719; 6213,573;39,90273
 525,47; 2721,935;  315,803; 6325,757;40,03578
 526,05; 2716,560;  278,958; 6353,561;40,12776
 526,64; 2801,172;  316,421; 6509,940;40,11857
 527,22; 2814,100;  310,033; 6629,372;39,62545
 527,80; 2880,014;  341,652; 6780,615;39,42191
 528,39; 2889,249;  301,808; 6769,289;40,00693
 528,97; 2922,784;  299,345; 6970,083;39,32757
 529,55; 3015,039;  317,491; 7159,382;39,42694
 530,14; 3079,257;  338,810; 7344,514;39,11737
 530,72; 3071,760;  298,422; 7454,499;38,75500
 531,30; 3116,431;  278,888; 7545,394;39,04962
 531,89; 3162,558;  310,657; 7640,840;38,90628
 532,47; 3216,065;  338,274; 7729,848;38,93340
 533,05; 3216,499;  343,267; 7796,815;38,54852
 533,63; 3243,961;  332,891; 7857,868;38,68543
 534,22; 3213,462;  304,506; 7869,622;38,45223
 534,80; 3260,850;  328,588; 7970,261;38,37199
 535,38; 3336,260;  410,504; 8060,182;38,24679
 535,97; 3254,914;  323,198; 8016,588;38,10695
 536,55; 3287,807;  368,974; 8064,957;37,92671
 537,13; 3279,888;  373,810; 8034,684;37,93402
 537,71; 3288,560;  417,348; 8098,650;37,37923
 538,30; 3305,751;  430,431; 8181,139;37,09752
 538,88; 3349,054;  465,362; 8229,021;37,14346
 539,46; 3478,887;  506,050; 8422,968;37,55044
 540,05; 3486,189;  525,283; 8532,797;36,97659
 540,63; 3577,666;  571,745; 8710,352;36,93409
 541,21; 3628,725;  617,364; 8894,721;36,38071
 541,79; 3674,699;  626,210; 9006,166;36,37834
 542,38; 3750,399;  656,437; 9154,071;36,40969
 542,96; 3787,988;  673,291; 9277,109;36,20133
 543,54; 3828,334;  681,055; 9495,579;35,70559
 544,12; 3887,889;  650,903; 9687,525;35,82075
 544,70; 3868,839;  649,214; 9723,665;35,48010
 545,29; 3955,388;  661,052; 9906,533;35,63185
 545,87; 3922,314;  639,902; 9891,628;35,47892
 546,45; 3878,896;  584,052; 9943,577;35,20311
 547,03; 3928,014;  577,285; 9993,574;35,58439
 547,62; 3978,064;  551,441;10139,292;35,73922
 548,20; 3994,827;  553,444;10248,429;35,49652
 548,78; 4014,747;  521,916;10419,246;35,29063
 549,36; 4003,607;  482,684;10605,949;34,78051
 549,94; 4090,259;  446,673;10779,283;35,26297
 550,53; 4119,371;  442,298;10983,233;34,88374
 551,11; 4178,166;  426,534;11153,871;34,97263
 551,69; 4240,194;  445,376;11457,040;34,46180
 552,27; 4308,231;  393,296;11683,084;34,67678
 552,85; 4397,267;  399,918;12082,685;34,21577
 553,44; 4500,051;  399,145;12322,039;34,39522
 554,02; 4616,134;  410,224;12702,216;34,21666
 554,60; 4671,711;  360,611;12983,243;34,15373
 555,18; 4801,196;  398,377;13365,010;33,95499
 555,76; 4837,608;  365,609;13720,647;33,48549
 556,34; 5021,510;  378,230;14113,353;33,80588
 556,93; 5134,559;  370,454;14482,627;33,75884
 557,51; 5199,974;  350,077;14769,016;33,63560
 558,09; 5340,135;  382,300;15199,180;33,46072
 558,67; 5417,367;  375,465;15515,784;33,30116
 559,25; 5504,757;  390,386;15819,991;33,14648
 559,83; 5608,152;  365,467;16095,458;33,32923
 560,41; 5669,342;  368,768;16443,224;32,97514
 561,00; 5794,471;  367,234;16785,108;33,05688
 561,58; 5875,825;  344,767;17004,453;33,20025
 562,16; 5910,667;  347,534;17336,702;32,74518
 562,74; 6022,789;  347,378;17721,201;32,66645
 563,32; 6130,791;  347,775;18125,965;32,52871
 563,90; 6208,227;  361,234;18462,138;32,30221
 564,48; 6351,097;  365,305;18914,710;32,26946
 565,06; 6499,296;  365,772;19433,227;32,16750
 565,65; 6698,166;  363,088;20044,403;32,18829
 566,23; 6932,280;  410,542;20815,016;31,96229
 566,81; 7094,320;  353,232;21434,806;31,97621
 567,39; 7332,588;  363,315;22300,678;31,76896
 567,97; 7519,958;  385,694;22920,733;31,65854
 568,55; 7760,378;  388,621;23740,671;31,56792
 569,13; 8005,436;  364,696;24467,832;31,70019
 569,71; 8217,229;  359,610;25327,132;31,47136
 570,29; 8497,109;  396,608;26245,011;31,33850
 570,87; 8729,411;  396,840;26985,343;31,33900
 571,45; 8842,646;  377,926;27601,029;31,09388
 572,03; 8940,523;  343,239;27961,222;31,12930
 572,61; 9116,619;  334,236;28658,824;31,00622
 573,20; 9316,618;  385,616;29390,848;30,79100
 573,78; 9473,881;  367,006;29875,934;30,86142
 574,36; 9589,623;  373,312;30441,759;30,65110
 574,94; 9717,073;  435,086;30797,227;30,57092
 575,52; 9750,542;  378,016;31008,304;30,59888
 576,10; 9927,975;  432,859;31624,738;30,44099
 576,68;10055,637;  417,700;32064,698;30,45450
 577,26;10193,777;  439,173;32824,747;30,12021
 577,84;10348,333;  435,082;33311,515;30,15306
 578,42;10425,105;  473,857;33478,651;30,15092
 579,00;10342,741;  436,775;33635,442;29,83844
 579,58;10445,600;  469,932;33937,228;29,80721
 580,16;10372,308;  456,089;33933,363;29,62075
 580,74;10453,339;  449,474;34083,319;29,74345
 581,32;10407,968;  440,779;34167,862;29,55248
 581,90;10370,088;  464,781;34101,747;29,44768
 582,48;10340,013;  455,012;34282,332;29,22195
 583,06;10339,001;  455,856;34362,937;29,14773
 583,64;10370,893;  454,471;34531,442;29,10007
 584,22;10286,696;  456,171;34396,463;28,96417
 584,80;10165,338;  481,857;34079,390;28,82200
 585,38;10007,699;  479,538;33694,321;28,68651
 585,96;10027,097;  448,161;33857,462;28,67147
 586,54;10005,889;  469,478;33797,750;28,61358
 587,12; 9999,492;  449,398;34103,124;28,37752
 587,70;10005,590;  476,238;34127,726;28,31777
 588,28; 9978,823;  458,244;34244,785;28,17861
 588,86; 9980,697;  462,169;34299,191;28,13051
 589,44; 9942,425;  442,022;34369,330;28,00223
 590,02; 9989,008;  447,020;34636,214;27,90937
 590,59; 9973,592;  429,477;34723,288;27,83043
 591,17; 9964,307;  426,029;35011,854;27,57858
 591,75; 9952,005;  422,101;35141,481;27,44837
 592,33; 9965,305;  444,407;35301,180;27,31434
 592,91;10022,609;  385,181;35532,062;27,42044
 593,49;10092,029;  390,569;35894,385;27,32512
 594,07;10069,425;  415,030;36051,230;27,09154
 594,65;10043,114;  419,478;36152,307;26,93220
 595,23;10095,070;  409,558;36498,582;26,83783
 595,81;10081,293;  407,252;36607,944;26,72336
 596,39;10089,990;  398,945;36722,423;26,67984
 596,97;10117,352;  397,027;36945,738;26,59553
 597,55;10053,644;  380,480;36785,822;26,57073
 598,12; 9967,406;  392,801;36843,285;26,26743
 598,70;10003,276;  377,413;36958,283;26,31393
 599,28;10010,777;  393,182;37213,576;26,12029
 599,86;10000,605;  380,797;37142,896;26,16773
 600,44; 9948,112;  347,645;37263,443;26,00639
 601,02; 9968,417;  410,961;37241,988;25,94947
 601,60; 9873,994;  387,409;37168,790;25,79181
 602,18; 9800,709;  361,493;37299,344;25,55432
 602,75; 9786,031;  359,559;37367,219;25,47168
 603,33; 9718,957;  377,951;37360,591;25,25781
 603,91; 9659,026;  361,573;37324,497;25,15346
 604,49; 9686,076;  386,490;37421,470;25,11028
 605,07; 9607,337;  387,870;37436,834;24,88455
 605,65; 9638,390;  397,030;37586,878;24,84915
 606,23; 9598,148;  457,246;37731,038;24,52367
 606,80; 9576,620;  498,175;37784,818;24,34771
 607,38; 9562,720;  531,418;37725,308;24,28168
 607,96; 9562,939;  575,328;37784,125;24,15453
 608,54; 9541,363;  649,646;37914,093;23,86113
 609,12; 9525,967;  630,406;37903,880;23,86566
 609,70; 9504,115;  660,566;38026,295;23,66754
 610,27; 9531,008;  682,020;38081,214;23,66091
 610,85; 9485,906;  702,489;38111,217;23,47959
 611,43; 9432,878;  688,720;38030,852;23,41633
 612,01; 9312,073;  662,254;37782,215;23,30234
 612,59; 9221,717;  667,258;37907,018;22,97131
 613,16; 9230,261;  620,863;37815,017;23,14718
 613,74; 9142,382;  589,336;37665,576;23,06880
 614,32; 9039,777;  559,569;37691,925;22,83779
 614,90; 9008,850;  529,102;37567,978;22,89418
 615,48; 8868,504;  482,018;37205,946;22,83657
 616,05; 8777,278;  448,093;37231,614;22,64379
 616,63; 8715,822;  445,630;37017,359;22,61362
 617,21; 8659,534;  452,174;36928,245;22,50067
 617,79; 8566,735;  431,945;36883,378;22,31679
 618,36; 8503,541;  443,332;36837,895;22,14674
 618,94; 8382,805;  381,250;36430,579;22,19613
 619,52; 8318,869;  405,554;36255,639;22,07335
 620,10; 8262,803;  391,944;36205,497;21,97732
 620,67; 8137,323;  395,630;36085,806;21,69138
 621,25; 8121,443;  413,794;35996,666;21,66112
 621,83; 8057,357;  393,481;35913,241;21,57637
 622,41; 8107,610;  443,096;35948,624;21,58682
 622,98; 7934,140;  398,553;35616,127;21,39724
 623,56; 7885,683;  406,860;35652,446;21,21918
 624,14; 7827,040;  388,334;35464,029;21,20758
 624,72; 7759,535;  383,634;35382,209;21,07486
 625,29; 7746,645;  375,091;35419,278;21,03503
 625,87; 7728,992;  404,484;35448,009;20,90118
 626,45; 7616,286;  358,474;35305,518;20,76803
 627,02; 7602,164;  376,638;35172,688;20,76536
 627,60; 7533,200;  365,953;35208,750;20,57024
 628,18; 7447,506;  336,406;35183,034;20,40685
 628,76; 7423,710;  343,630;35152,622;20,33980
 629,33; 7390,301;  377,787;35141,849;20,17173
 629,91; 7362,418;  360,329;35171,958;20,11422
 630,49; 7364,751;  375,401;35215,998;20,06094
 631,06; 7355,985;  374,785;35425,240;19,91757
 631,64; 7290,625;  362,321;35408,705;19,76896
 632,22; 7222,751;  332,395;35337,755;19,68372
 632,79; 7262,790;  357,395;35576,586;19,60691
 633,37; 7247,152;  343,793;35634,186;19,56158
 633,95; 7205,809;  348,089;35788,117;19,35021
 634,52; 7218,854;  335,557;35793,285;19,41268
 635,10; 7180,103;  331,174;35839,663;19,28815
 635,68; 7129,379;  337,703;36062,263;19,01123
 636,25; 7136,350;  323,237;35952,922;19,12201
 636,83; 7082,172;  314,784;36204,083;18,85628
 637,41; 7106,983;  339,240;36289,950;18,82506
 637,98; 7110,286;  345,009;36452,163;18,73667
 638,56; 7096,028;  340,005;36522,485;18,67208
 639,13; 6993,714;  318,860;36600,787;18,39719
 639,71; 7058,744;  363,554;36768,087;18,39109
 640,29; 6922,291;  288,554;36497,658;18,32063
 640,86; 6915,291;  312,093;36735,158;18,12917
 641,44; 6861,676;  313,478;36666,581;18,01276
 642,02; 6874,753;  344,939;36703,158;17,95966
 642,59; 6831,906;  316,555;36858,197;17,82994
 643,17; 6805,522;  318,863;36784,774;17,78828
 643,74; 6733,137;  307,786;36875,121;17,57129
 644,32; 6719,829;  335,248;36776,006;17,52044
 644,89; 6716,445;  329,633;36777,275;17,52325
 645,47; 6669,137;  340,479;36918,852;17,30164
 646,05; 6628,906;  337,787;36779,199;17,26365
 646,62; 6582,137;  322,326;36798,930;17,16117
 647,20; 6589,829;  333,403;36934,507;17,09355
 647,77; 6514,368;  306,018;36822,392;17,00155
 648,35; 6479,445;  310,711;36681,738;16,96057
 648,92; 6453,060;  327,557;36769,469;16,80895
 649,50; 6380,983;  287,327;36593,124;16,78425
 650,08; 6348,367;  298,173;36527,470;16,69973
 650,65; 6349,675;  301,481;36760,893;16,58884
 651,23; 6478,214;  294,789;37478,009;16,62961
 651,80; 6564,214;  282,097;38426,279;16,46940
 652,38; 6603,444;  297,943;38764,010;16,39237
 652,95; 6633,521;  282,251;39119,125;16,35371
 653,53; 6687,906;  318,021;39376,395;16,30863
 654,10; 6695,521;  339,328;39472,357;16,24253
 654,68; 6635,983;  289,021;39460,626;16,20297
 655,25; 6639,290;  285,867;39602,434;16,15966
 655,83; 6593,829;  284,637;39603,857;16,04608
 656,40; 6596,598;  318,252;39534,204;16,00967
 656,98; 6521,598;  288,714;39457,089;15,91305
 657,55; 6454,829;  299,253;39281,589;15,79068
 658,13; 6389,367;  294,407;39005,397;15,74478
 658,70; 6294,521;  310,869;38751,436;15,56598
 659,28; 6122,444;  314,253;37982,782;15,41921
 659,85; 5979,213;  305,254;37119,206;15,41252
 660,43; 5953,136;  321,177;37207,629;15,26837
 661,00; 5911,367;  304,100;37314,591;15,15048
 661,58; 5937,828;  300,639;37590,860;15,11707
 662,15; 5915,136;  281,024;37801,361;15,01616
 662,73; 6017,367;  346,409;38066,938;15,03414
 663,30; 5955,597;  300,409;38285,515;14,88791
 663,88; 5941,213;  315,178;38452,169;14,75217
 664,45; 5946,367;  290,717;38705,285;14,72267
 665,03; 5956,366;  296,333;38921,093;14,65390
 665,60; 6104,905;  372,563;39514,747;14,64492
 666,17; 6010,751;  304,718;39569,709;14,53211
 666,75; 5999,366;  301,564;39834,209;14,41290
 667,32; 6073,828;  321,718;40222,863;14,41590
 667,90; 6056,982;  297,872;40553,979;14,30618
 668,47; 6080,751;  316,257;40718,941;14,26760
 669,05; 6086,828;  299,719;41088,210;14,18809
 669,62; 6066,443;  274,565;41105,710;14,18495
 670,19; 6044,289;  287,411;41229,826;14,06091
 670,77; 6087,520;  293,719;41441,249;14,08056
 671,34; 6052,520;  301,258;41367,134;14,00497
 671,92; 6060,981;  281,643;41697,327;13,95447
 672,49; 6044,674;  309,643;41711,443;13,85213
 673,06; 5965,981;  256,643;41810,404;13,73964
 673,64; 5992,827;  287,720;41795,982;13,74451
 674,21; 5929,212;  279,721;41652,251;13,65517
 674,79; 6004,366;  305,567;41889,982;13,70417
 675,36; 5975,366;  307,106;42048,405;13,57950
 675,93; 5917,058;  269,798;41923,290;13,55771
 676,51; 5924,366;  296,337;42038,791;13,48275
 677,08; 5924,596;  300,029;42205,676;13,42198
 677,65; 5927,981;  300,876;42223,945;13,42246
 678,23; 5953,904;  299,722;42528,138;13,38952
 678,80; 5938,519;  287,261;42656,253;13,33819
 679,38; 5910,596;  284,030;42765,984;13,24460
 679,95; 5968,904;  303,184;42939,100;13,28861
 680,52; 5968,750;  285,338;43307,216;13,21052
 681,10; 6014,288;  299,338;43558,870;13,21085
 681,67; 6054,135;  298,493;43842,832;13,21789
 682,24; 6012,827;  268,570;43972,563;13,14355
 682,82; 6105,134;  280,108;44494,448;13,17452
 683,39; 6158,673;  326,186;44959,179;13,06766
 683,96; 6114,134;  289,032;45091,371;13,00178
 684,54; 6135,442;  276,109;45456,641;12,96871
 685,11; 6174,288;  309,340;45702,833;12,92024
 685,68; 6236,365;  286,186;46266,487;12,94071
 686,25; 6191,442;  269,033;46346,142;12,85326
 686,83; 6212,057;  281,187;46473,950;12,83939
 687,40; 6227,519;  273,418;46719,296;12,81944
 687,97; 6299,750;  297,110;47163,489;12,80799
 688,55; 6268,211;  260,264;47251,297;12,78530
 689,12; 6241,211;  244,188;47453,335;12,70310
 689,69; 6270,519;  250,342;47563,451;12,72412
 690,26; 6268,134;  267,880;47710,336;12,64743
 690,84; 6265,903;  276,958;47853,298;12,58808
 691,41; 6309,749;  288,496;48013,567;12,61654
 691,98; 6308,211;  295,189;48194,683;12,55341
 692,56; 6296,826;  278,881;48329,260;12,52424
 693,13; 6333,211;  328,728;48309,991;12,51422
 693,70; 6358,749;  300,574;48497,568;12,56961
 694,27; 6350,364;  272,728;48602,222;12,57542
 694,84; 6385,595;  274,344;48711,184;12,61695
 695,42; 6416,749;  331,728;48858,454;12,53952
 695,99; 6431,595;  292,190;49050,723;12,59145
 696,56; 6386,134;  285,575;48886,531;12,55234
 697,13; 6465,672;  302,960;49344,339;12,56635
 697,71; 6438,595;  269,806;49297,147;12,58234
 698,28; 6445,903;  279,345;49636,724;12,49369
 698,85; 6419,133;  255,422;49652,917;12,47778
 699,42; 6470,672;  259,884;49787,879;12,53995
 699,99; 6505,672;  299,115;49910,456;12,51036
 700,57; 6504,287;  294,269;50012,802;12,49035
 701,14; 6450,672;  271,423;50102,610;12,40036
 701,71; 6511,210;  310,808;50372,803;12,38545
 702,28; 6531,287;  286,193;50343,765;12,47582
 702,85; 6506,825;  287,193;50442,034;12,40086
 703,43; 6557,672;  305,116;50729,842;12,39978
 704,00; 6560,902;  323,270;50879,650;12,33797
 704,57; 6563,518;  295,193;50869,381;12,39432
 705,14; 6612,133;  320,578;51078,189;12,39529
 705,71; 6624,441;  325,348;51209,536;12,37927
 706,28; 6603,287;  297,425;51085,036;12,41614
 706,86; 6662,210;  334,810;51220,152;12,43462
 707,43; 6672,979;  349,502;51187,113;12,43858
 708,00; 6662,825;  322,272;51296,614;12,43872
 708,57; 6621,979;  303,964;51216,191;12,40962
 709,14; 6683,979;  323,118;51342,845;12,46745
 709,71; 6646,902;  303,426;51511,961;12,38754
 710,28; 6719,056;  294,888;51644,769;12,51058
 710,86; 6722,979;  311,196;51785,884;12,45619
 711,43; 6756,902;  324,196;51754,539;12,50761
 712,00; 6741,748;  315,504;51848,654;12,47012
 712,57; 6822,748;  311,350;52033,308;12,58923
 713,14; 6801,594;  300,735;52068,655;12,55770
 713,71; 6817,594;  311,428;52110,540;12,56038
 714,28; 6873,209;  294,043;52009,194;12,72193
 714,85; 6801,517;  282,428;51853,925;12,64088
 715,42; 6849,978;  290,121;52085,887;12,66485
 716,00; 6942,517;  358,659;52233,310;12,69186
 716,57; 6884,978;  290,044;52298,579;12,68048
 717,14; 6909,055;  278,967;52131,541;12,78642
 717,71; 6898,440;  261,045;52118,965;12,79919
 718,28; 6975,132;  308,429;52350,926;12,81011
 718,85; 6953,594;  262,891;52374,504;12,83918
 719,42; 7001,978;  289,661;52479,081;12,86145
 719,99; 6976,517;  269,122;52273,735;12,89769
 720,56; 7008,209;  299,353;52573,851;12,83390
 721,13; 7018,363;  271,661;52641,043;12,88291
 721,70; 6996,747;  261,969;52528,851;12,88536
 722,27; 7054,516;  285,969;52482,890;12,96733
 722,84; 7164,670;  332,354;52699,775;13,04688
 723,41; 7089,901;  267,662;52779,891;12,99171
 723,98; 7128,516;  282,970;52943,391;12,99941
 724,55; 7194,362;  312,509;52994,814;13,06293
 725,12; 7149,055;  239,124;52916,776;13,11739
 725,69; 7248,208;  274,586;53109,584;13,19887
 726,27; 7290,055;  278,586;53314,700;13,22018
 726,84; 7347,824;  291,817;53571,892;13,24324
 727,41; 7364,285;  292,048;53460,008;13,30169
 727,98; 7426,362;  301,202;53736,508;13,33418
 728,55; 7479,824;  322,202;53596,470;13,43542
 729,12; 7486,516;  271,664;53726,816;13,49702
 729,69; 7553,285;  304,741;53872,086;13,53165
 730,26; 7573,900;  303,665;54140,048;13,50432
 730,82; 7566,516;  291,203;54027,163;13,53900
 731,39; 7582,208;  297,204;54132,971;13,53190
 731,96; 7672,054;  271,434;54460,395;13,65706
 732,53; 7720,593;  293,204;54703,357;13,65074
 733,10; 7759,131;  303,281;54686,011;13,70996
 733,67; 7829,131;  296,358;54987,973;13,77318
 734,24; 7786,131;  282,743;54595,704;13,81510
 734,81; 7847,823;  323,897;54758,819;13,82187
 735,38; 7834,515;  284,436;54541,550;13,91537
 735,95; 7801,285;  291,282;54325,974;13,89848
 736,52; 7869,900;  307,975;54542,320;13,94306
 737,09; 7860,592;  300,052;54205,128;14,02566
 737,66; 7904,438;  338,283;54294,628;14,02274
 738,23; 7943,515;  283,206;54435,282;14,14592
 738,80; 8039,438;  347,206;54783,244;14,13077
 739,37; 8087,054;  307,360;54988,283;14,22744
 739,94; 8119,977;  291,361;54960,783;14,31992
 740,51; 8215,361;  398,822;54989,976;14,31833
 741,07; 8168,361;  287,669;55001,784;14,40340
 741,64; 8263,900;  305,361;55283,207;14,47590
 742,21; 8275,130;  287,438;55298,861;14,52006
 742,78; 8233,592;  265,515;55003,439;14,55678
 743,35; 8368,207;  296,054;55360,631;14,65943
 743,92; 8445,207;  321,439;55485,901;14,72645
 744,49; 8449,592;  315,978;55347,324;14,77997
 745,06; 8438,053;  283,747;55364,517;14,80427
 745,63; 8425,284;  276,132;55307,940;14,80808
 746,19; 8502,130;  284,978;55291,671;14,93846
 746,76; 8517,438;  295,440;55333,787;14,93867
 747,33; 8537,899;  284,671;55331,287;14,99316
 747,90; 8657,899;  304,287;55570,172;15,11531
 748,47; 8638,361;  292,595;55467,287;15,12608
 749,04; 8673,361;  314,133;55417,095;15,17020
 749,61; 8677,284;  324,903;55368,827;15,17403
 750,17; 8756,130;  311,672;55477,865;15,30731
 750,74; 8831,745;  301,749;55411,981;15,47806
 751,31; 8807,668;  267,826;55307,404;15,51582
 751,88; 8790,437;  266,980;55142,289;15,53241
 752,45; 8877,130;  287,750;55391,174;15,58774
 753,02; 8875,745;  298,442;55082,674;15,65652
 753,58; 8930,591;  276,981;55049,098;15,79930
 754,15; 8970,822;  283,751;55229,829;15,81018
 754,72; 8937,976;  282,828;54954,406;15,83117
 755,29; 8967,514;  267,597;54789,445;15,95675
 755,86; 9077,591;  284,597;54987,330;16,07414
 756,42; 9158,668;  286,828;54919,830;16,23898
 756,99; 9145,745;  251,136;54833,253;16,29583
 757,56; 9141,668;  270,060;54787,677;16,27292
 758,13; 9174,899;  211,367;54778,869;16,42650
 758,70; 9265,437;  238,598;54822,677;16,53749
 759,26; 9299,283;  228,060;54837,562;16,61107
 759,83; 9322,437;  239,060;54939,293;16,60574
 760,40; 9355,052;  226,753;54823,793;16,71940
 760,97; 9393,668;  217,830;54841,678;16,79823
 761,53; 9386,129;  200,446;54453,948;16,93104
 762,10; 9410,129;  212,984;54440,756;16,96021
 762,67; 9464,437;  244,523;54427,102;17,01638
 763,24; 9432,052;  202,292;54032,295;17,14613
 763,80; 9522,283;  238,677;54121,334;17,22930
 764,37; 9512,898;  240,139;54150,218;17,20042
 764,94; 9472,360;  216,524;53655,411;17,32041
 765,50; 9550,975;  229,447;53698,681;17,43344
 766,07; 9610,206;  273,909;53765,258;17,45384
 766,64; 9595,513;  237,909;53484,912;17,57395
 767,21; 9602,129;  249,525;53336,874;17,61739
 767,77; 9641,359;  272,371;53316,989;17,66247
 768,34; 9653,744;  278,294;53213,182;17,71129
 768,91; 9700,205;  270,371;53061,836;17,86242
 769,47; 9692,436;  263,449;53144,952;17,83041
 770,04; 9706,205;  273,680;52968,529;17,90028
 770,61; 9697,051;  255,988;52776,106;17,97609
 771,18; 9726,590;  248,142;52584,299;18,11071
 771,74; 9800,282;  271,449;52771,953;18,14998
 772,31; 9826,898;  262,527;52573,530;18,28367
 772,88; 9803,974;  234,988;52332,800;18,36735
 773,44; 9814,821;  253,066;52111,300;18,43826
 774,01; 9895,128;  270,373;52206,262;18,53199
 774,58; 9807,974;  249,527;51799,300;18,54217
 775,14; 9909,590;  247,220;51982,955;18,67639
 775,71; 9902,667;  249,605;51886,147;18,69424
 776,27;10019,282;  309,605;51837,878;18,84340
 776,84;10047,205;  331,990;51829,917;18,86525
 777,41;10045,743;  277,836;51661,109;19,00990
 777,97;10036,359;  251,606;51326,225;19,15776
 778,54;10013,051;  273,991;51381,572;19,05600
 779,11;10088,051;  286,837;51416,610;19,16929
 779,67;10114,128;  251,376;51394,803;19,28450
 780,24;10148,359;  269,453;51262,457;19,37306
 780,80;10157,512;  285,068;51128,957;19,41717
 781,37;10230,205;  275,684;51131,765;19,57390
 781,94;10228,051;  254,684;50875,035;19,70229
 782,50;10272,435;  269,607;50789,920;19,79962
 783,07;10290,281;  292,454;50872,805;19,76623
 783,63;10325,051;  257,685;50595,997;19,99941
 784,20;10393,204;  279,685;50630,651;20,08605
 784,77;10299,974;  267,685;50313,844;20,04607
 785,33;10411,743;  241,993;50191,806;20,35994
 785,90;10439,127;  267,686;50231,998;20,35741
 786,46;10407,973;  278,840;50231,191;20,27759
 787,03;10446,127;  248,763;49988,460;20,50146
 787,59;10501,743;  260,840;49854,807;20,64949
 788,16;10553,204;  281,610;49774,076;20,75385
 788,73;10582,589;  269,533;49591,192;20,90979
 789,29;10606,819;  263,302;49230,615;21,12331
 789,86;10587,127;  282,918;49188,731;21,06950
 790,42;10623,204;  270,380;49006,693;21,24253
 790,99;10624,204;  279,611;48804,424;21,31815
 791,55;10642,281;  258,611;48747,001;21,41475
 792,12;10722,896;  286,457;48744,194;21,53720
 792,68;10689,435;  266,611;48385,386;21,66062
 793,25;10653,511;  275,227;48188,348;21,66063
 793,81;10719,281;  330,227;47839,233;21,86755
 794,38;10606,973;  239,458;47655,426;21,86503
 794,94;10650,588;  249,997;47471,003;22,02535
 795,51;10625,357;  282,074;47346,272;21,97697
 796,07;10613,434;  257,536;47077,696;22,11846
 796,64;10692,511;  295,997;47173,273;22,17815
 797,20;10609,050;  280,075;46664,312;22,26829
 797,77;10594,742;  235,921;46331,043;22,47271
 798,33;10528,203;  269,767;46193,928;22,33778
 798,90;10646,511;  287,537;46098,505;22,61243
 799,46;10549,126;  270,229;45575,928;22,68787
 800,03;10590,049;  273,383;45513,275;22,80436
 800,59;10585,972;  285,768;45370,390;22,84638
 801,15;10586,972;  288,230;45134,198;22,96470
 801,72;10509,819;  270,845;44878,006;22,95365
 802,28;10509,203;  294,615;44557,122;23,07729
 802,85;10506,742;  274,307;44399,930;23,18933
 803,41;10519,742;  263,000;44169,892;23,36021
 803,98;10460,049;  261,616;43746,777;23,45268
 804,54;10444,818;  270,154;43444,738;23,56633
 805,11;10512,895;  287,539;43330,623;23,75610
 805,67;10480,972;  308,078;43278,200;23,67434
 806,23;10377,280;  266,001;42761,085;23,79400
 806,80;10430,818;  288,617;42695,124;23,91662
 807,36;10491,818;  287,463;42689,394;24,06578
 807,93;10382,741;  300,848;42473,740;23,90610
 808,49;10347,357;  249,386;42084,317;24,13765
 809,05;10358,587;  251,156;41995,356;24,21278
 809,62;10401,356;  289,002;41842,933;24,33549
 810,18;10323,049;  281,541;41730,818;24,22601
 810,74;10342,587;  245,849;41519,780;24,46275
 811,31;10373,818;  250,618;41268,511;24,67996
 811,87;10350,049;  259,157;41163,627;24,66941
 812,44;10391,433;  294,926;41136,204;24,72133
 813,00;10310,510;  220,004;40883,166;24,81486
 813,56;10408,818;  274,696;40935,204;24,92375
 814,13;10412,048;  259,850;40745,474;25,07606
 814,69;10369,587;  253,235;40594,666;25,07683
 815,25;10292,818;  236,928;40200,705;25,16251
 815,82;10376,587;  280,697;40209,436;25,28477
 816,38;10372,356;  300,005;40000,552;25,37081
 816,94;10265,971;  251,928;39694,129;25,38916
 817,51;10271,894;  238,928;39506,322;25,55037
 818,07;10291,587;  245,775;39250,976;25,75506
 818,63;10249,202;  273,006;39023,861;25,74445
 819,20;10321,202;  259,006;38979,823;25,98653
 819,76;10182,817;  242,391;38565,092;25,93874
 820,32;10254,279;  295,853;38508,823;26,06033
 820,89;10175,586;  276,237;38269,323;26,05566
 821,45;10175,586;  245,930;37985,747;26,31082
 822,01;10135,817;  270,084;37748,939;26,32346
 822,57;10174,971;  262,853;37571,747;26,56771
 823,14;10094,125;  237,854;37367,786;26,54535
 823,70;10121,125;  235,854;37118,902;26,80166
 824,26;10075,894;  249,085;36961,325;26,76712
 824,82;10147,817;  268,854;36806,748;27,03758
 825,39;10036,202;  246,854;36566,787;26,95310
 825,95;10110,817;  264,239;36537,211;27,14577
 826,51;10046,586;  262,547;36125,634;27,28164
 827,08;10114,817;  306,240;36207,211;27,32120
 827,64;10111,355;  270,317;36035,481;27,51571
 828,20;10018,278;  246,471;35772,519;27,50604
 828,76;10087,970;  269,625;35703,635;27,70882
 829,32;10074,586;  276,317;35643,289;27,70457
 829,89;10029,278;  231,241;35524,712;27,76161
 830,45;10128,509;  258,010;35444,982;28,05157
 831,01;10095,201;  252,703;35229,790;28,13985
 831,57;10145,509;  254,011;35069,983;28,41081
 832,14;10159,355;  246,703;35026,252;28,50138
 832,70;10190,816;  243,088;34855,522;28,74033
 833,26;10129,278;  214,704;34669,560;28,77555
 833,82;10143,432;  252,242;34709,291;28,70585
 834,38;10192,893;  247,089;34666,407;28,89600
 834,95;10230,509;  241,473;34489,753;29,16653
 835,51;10201,432;  209,243;34402,561;29,22263
 836,07;10316,124;  253,705;34454,908;29,42124
 836,63;10360,278;  264,013;34434,485;29,54675
 837,19;10270,047;  247,859;34274,139;29,45426
 837,75;10179,662;  219,551;33980,563;29,50181
 838,32;10359,278;  260,167;34076,371;29,86471
 838,88;10353,047;  262,090;34127,948;29,79684
 839,44;10407,431;  255,783;34055,756;30,03449
 840,00;10385,739;  252,014;33936,179;30,08454
 840,56;10300,047;  239,860;33756,295;30,01568
 841,12;10359,123;  235,476;33652,410;30,29496
 841,68;10282,970;  226,091;33490,526;30,23313
 842,25;10369,431;  231,322;33469,488;30,50141
 842,81;10345,970;  231,246;33316,142;30,57203
 843,37;10342,431;  214,938;33260,950;30,64664
 843,93;10414,585;  237,938;33145,219;30,92521
 844,49;10492,816;  247,400;33174,566;31,11539
 845,05;10387,969;  210,170;33065,912;30,97723
 845,61;10490,969;  248,170;33106,643;31,17248
 846,17;10451,508;  235,785;32907,298;31,26798
 846,73;10472,969;  241,940;32803,721;31,42036
 847,29;10426,815;  217,324;32683,913;31,44615
 847,86;10459,354;  235,248;32657,260;31,53446
 848,42;10434,046;  221,017;32423,376;31,71516
 848,98;10550,200;  249,402;32411,414;32,02784
 849,54;10514,661;  232,864;32420,376;31,94344
 850,10;10547,507;  239,172;32242,261;32,21044
 850,66;10523,815;  223,326;32169,223;32,24354
 851,22;10500,507;  216,018;32044,492;32,31223
 851,78;10557,969;  262,172;32190,300;32,24679
 852,34;10512,738;  247,480;31902,878;32,42814
 852,90;10485,507;  239,711;31744,301;32,52160
 853,46;10447,507;  221,327;31626,878;32,56170
 854,02;10495,738;  241,096;31540,686;32,76286
 854,58;10474,430;  237,558;31283,648;32,97315
 855,14;10477,815;  227,712;31230,148;33,06225
 855,70;10459,584;  199,404;31072,802;33,23308
 856,26;10445,045;  247,482;30999,610;33,16051
 856,82;10481,430;  223,174;30911,803;33,42690
 857,38;10472,507;  260,405;30765,842;33,47633
 857,94;10406,199;  225,559;30693,342;33,41444
 858,50;10482,122;  250,790;30567,073;33,74864
 859,06;10442,199;  231,560;30390,266;33,85636
 859,62;10470,814;  239,868;30330,612;34,00031
 860,18;10451,507;  229,406;30161,112;34,15141
 860,74;10446,507;  209,945;29971,689;34,39503
 861,30;10419,199;  208,791;29742,882;34,57160
 861,86;10473,814;  270,638;29919,075;34,41388
 862,42;10461,584;  237,946;29764,806;34,62487
 862,98;10491,507;  266,176;29637,075;34,81450
 863,54;10473,968;  236,946;29389,960;35,11480
 864,10;10498,045;  220,638;29537,691;35,05607
 864,66;10405,814;  213,639;29320,191;35,01677
 865,22;10404,122;  229,485;29208,769;35,11004
 865,78;10420,122;  242,639;29062,269;35,31441
 866,34;10414,276;  221,255;28983,154;35,43932
 866,90;10461,660;  246,716;28842,346;35,72204
 867,45;10378,506;  234,024;28601,462;35,76101
 868,01;10369,045;  240,717;28463,808;35,88667
 868,57;10334,814;  228,640;28331,924;35,96083
 869,13;10345,429;  212,025;28131,732;36,29481
 869,69;10353,583;  229,871;28104,463;36,31878
 870,25;10336,968;  212,025;28013,425;36,41882
 870,81;10354,429;  233,103;27915,694;36,56206
 871,37;10327,968;  241,103;27851,426;36,53295
 871,93;10336,198;  241,334;27679,310;36,79158
 872,49;10278,583;  262,719;27451,272;36,83853
 873,04;10283,890;  217,411;27275,849;37,20274
 873,60;10243,121;  217,181;27180,965;37,18299
 874,16;10278,813;  238,719;27138,312;37,32434
 874,72;10243,275;  230,104;27081,927;37,29047
 875,28;10233,429;  240,258;26971,773;37,38348
 875,84;10297,737;  230,258;26915,388;37,72692
 876,40;10321,429;  222,027;26777,388;38,03150
 876,95;10336,967;  237,104;26837,004;37,96955
 877,51;10395,429;  264,181;26826,235;38,14181
 878,07;10474,890;  270,719;26808,004;38,45221
 878,63;10451,429;  226,335;26831,004;38,43346
 879,19;10549,121;  242,873;26770,696;38,85071
 879,75;10529,967;  233,488;26885,388;38,63319
 880,30;10541,121;  235,258;26834,388;38,74511
 880,86;10644,583;  274,335;27011,312;38,78617
 881,42;10650,198;  217,181;26987,696;38,97205
 881,98;10714,583;  251,104;27128,850;38,92990
 882,54;10758,660;  229,796;27205,542;39,03085
 883,09;10860,121;  240,104;27280,927;39,27402
 883,65;10883,967;  221,027;27450,235;39,15994
 884,21;11034,813;  258,642;27607,927;39,40202
 884,77;11064,044;  217,412;27540,696;39,69740
 885,32;11138,275;  232,104;27752,158;39,62990
 885,88;11300,506;  269,642;27948,927;39,85242
 886,44;11391,198;  234,258;28056,773;40,10040
 887,00;11397,813;  260,796;28002,388;40,14556
 887,56;11435,121;  226,873;28174,927;40,10386
 888,11;11496,737;  234,565;28173,465;40,31000
 888,67;11602,429;  261,258;28362,927;40,35764
 889,23;11662,429;  247,104;28360,696;40,60429
 889,79;11683,967;  219,873;28214,927;40,95043
 890,34;11698,967;  241,565;28168,235;41,02674
 890,90;11774,737;  303,642;28337,619;40,91854
 891,46;11689,967;  222,335;28240,235;40,92967
 892,01;11761,660;  253,950;28197,927;41,18136
 892,57;11743,044;  271,027;28211,465;41,05883
 893,13;11773,275;  224,335;27922,235;41,69609
 893,69;11724,967;  227,642;27872,081;41,59001
 894,24;11682,660;  245,027;27818,542;41,48050
 894,80;11725,890;  248,181;27712,004;41,79210
 895,36;11699,890;  239,642;27574,235;41,92581
 895,91;11634,890;  226,950;27331,773;42,08823
 896,47;11602,890;  252,335;27288,619;41,98268
 897,03;11560,198;  230,488;27012,158;42,30397
 897,58;11558,121;  254,719;27080,619;42,13615
 898,14;11553,352;  246,796;26719,235;42,71067
 898,70;11558,967;  204,950;26620,312;42,98263
 899,25;11579,967;  242,181;26628,465;42,96848
 899,81;11537,967;  248,104;26450,696;43,08682
 900,37;11426,890;  208,258;26203,696;43,15616
 900,92;11541,044;  239,642;26209,081;43,51808
 901,48;11477,121;  225,412;26078,465;43,52178
 902,03;11534,583;  212,335;25948,773;43,99306
 902,59;11456,044;  229,950;25837,081;43,83972
 903,15;11395,967;  256,488;25704,542;43,77340
 903,70;11389,044;  245,027;25477,081;44,16611
 904,26;11330,967;  223,873;25315,773;44,26566
 904,82;11349,352;  242,873;25352,542;44,23188
 905,37;11314,813;  246,719;25189,619;44,37373
 905,93;11206,967;  228,719;25007,312;44,30537
 906,48;11318,506;  243,796;25006,850;44,72271
 907,04;11279,198;  253,335;24911,388;44,71506
 907,60;11177,813;  237,950;24700,542;44,72079
 908,15;11181,890;  230,027;24588,696;44,96084
 908,71;11240,506;  257,027;24614,081;45,09363
 909,26;11159,044;  228,181;24422,619;45,17924
 909,82;11189,198;  257,412;24211,388;45,63662
 910,37;11208,583;  277,027;24242,081;45,61457
 910,93;11139,813;  226,104;24083,312;45,74596
 911,48;11169,506;  220,181;23858,388;46,32045
 912,04;11102,429;  236,796;23776,312;46,15912
 912,60;11230,352;  243,258;23848,235;46,54567
 913,15;11160,583;  239,873;23565,619;46,81826
 913,71;11108,813;  219,873;23403,696;46,96784
 914,26;11118,583;  215,104;23348,850;47,13235
 914,82;11074,198;  236,412;23261,312;47,06985
 915,37;11069,121;  223,642;23194,927;47,21320
 915,93;11096,121;  272,642;23073,158;47,47033
 916,48;11033,352;  225,719;22937,081;47,58690
 917,04;11035,813;  247,104;22802,696;47,83164
 917,59;11041,121;  263,181;22762,158;47,90414
 918,15;11006,737;  196,488;22562,388;48,33362
 918,70;10928,660;  220,873;22468,696;48,12959
 919,26;10902,198;  231,950;22437,081;48,05307
 919,81;10886,506;  220,719;22235,312;48,44871
 920,37;10911,967;  228,642;22167,158;48,69666
 920,92;10899,890;  246,873;22137,081;48,66567
 921,48;10811,506;  214,488;21839,081;49,00447
 922,03;10770,352;  225,950;21859,081;48,74191
 922,59;10774,198;  225,796;21713,158;49,09119
 923,14;10722,275;  224,796;21644,312;49,00895
 923,69;10747,506;  250,565;21559,388;49,26100
 924,25;10735,506;  238,027;21438,619;49,51503
 924,80;10688,660;  233,719;21291,312;49,64927
 925,36;10638,737;  226,104;21189,312;49,67099
 925,91;10604,967;  211,181;21066,542;49,83748
 926,47;10611,275;  208,565;20966,081;50,11539
 927,02;10655,737;  280,335;20992,235;50,09392
 927,57;10513,506;  225,104;20790,696;50,02726
 928,13;10533,660;  213,796;20660,388;50,47229
 928,68;10514,198;  225,258;20638,312;50,40373
 929,24;10394,967;  199,719;20421,388;50,41744
 929,79;10434,352;  206,335;20327,235;50,83280
 930,34;10390,890;  226,873;20180,465;50,93828
 930,90;10302,506;  212,027;20141,465;50,63102
 931,45;10368,737;  229,027;20157,927;50,87942
 932,01;10298,967;  225,873;20021,465;50,88554
 932,56;10277,429;  249,719;19868,388;51,11310
 933,11;10260,737;  253,488;19857,927;51,04583
 933,67;10203,890;  220,488;19695,388;51,26292
 934,22;10231,429;  236,181;19596,312;51,62800
 934,77;10141,352;  257,950;19538,158;51,26191
 935,33;10120,583;  227,796;19370,850;51,67820
 935,88;10107,583;  228,258;19341,158;51,68930
 936,43;10074,660;  228,642;19217,235;51,85228
 936,99;10112,967;  232,719;19116,927;52,32016
 937,54;10021,506;  210,719;18954,773;52,34079
 938,09;10057,737;  227,412;18975,388;52,43406
 938,65; 9985,352;  220,950;18836,850;52,45195
 939,20; 9984,506;  204,335;18707,773;52,85597
 939,75; 9941,583;  211,565;18689,619;52,65715
 940,31; 9960,660;  210,412;18486,850;53,34873
 940,86;10006,429;  225,027;18508,004;53,50005
 941,41;10022,967;  290,565;18399,542;53,74352
 941,96; 9957,890;  219,258;18250,619;54,00941
 942,52; 9904,660;  216,027;18174,235;53,95100
 943,07; 9936,583;  197,488;18061,696;54,51736
 943,62; 9902,352;  217,719;17999,081;54,46508
 944,18; 9881,429;  195,565;17954,158;54,54184
 944,73; 9884,429;  233,027;17856,388;54,76482
 945,28; 9792,737;  191,027;17627,927;55,06546
 945,83; 9840,737;  217,642;17686,773;55,08628
 946,39; 9850,737;  223,335;17662,004;55,20721
 946,94; 9807,660;  245,335;17545,542;55,27289
 947,49; 9770,044;  219,565;17453,696;55,41608
 948,04; 9788,737;  253,719;17367,542;55,71530
 948,59; 9745,737;  244,950;17351,773;55,53799
 949,15; 9656,660;  202,719;17219,850;55,55543
 949,70; 9645,890;  218,104;17085,235;55,89443
 950,25; 9629,352;  237,181;17045,158;55,87925
 950,80; 9561,737;  196,027;16909,081;56,03829
 951,36; 9547,737;  197,873;16863,235;56,10357
 951,91; 9555,198;  230,565;16832,927;56,16450
 952,46; 9390,813;  199,719;16575,158;56,12732
 953,01; 9489,890;  242,950;16650,619;56,35743
 953,56; 9404,583;  195,104;16489,542;56,51915
 954,11; 9390,121;  233,565;16458,312;56,43574
 954,67; 9361,583;  219,719;16418,312;56,43616
 955,22; 9312,506;  207,181;16251,773;56,75012
 955,77; 9280,890;  242,412;16265,004;56,41084
 956,32; 9322,583;  275,181;16178,927;56,88850
 956,87; 9167,967;  206,565;15991,235;56,77282
 957,42; 9229,429;  211,258;15955,850;57,27790
 957,98; 9210,198;  214,335;15911,465;57,30897
 958,53; 9252,890;  238,412;15814,004;57,87567
 959,08; 9123,813;  201,796;15706,619;57,54350
 959,63; 9092,044;  206,796;15611,312;57,67950
 960,18; 9105,044;  229,873;15587,312;57,79070
 960,73; 9038,198;  226,796;15466,158;57,82002
 961,28; 8975,044;  199,873;15403,312;57,71833
 961,83; 9010,660;  238,181;15367,619;57,98284
 962,39; 8970,044;  204,642;15236,542;58,31200
 962,94; 8944,890;  228,181;15135,158;58,47403
 963,49; 8846,429;  223,565;15083,158;58,02894
 964,04; 8902,583;  235,642;15060,927;58,46053
 964,59; 8783,044;  190,873;14878,773;58,49830
 965,14; 8820,121;  237,950;14853,158;58,72083
 965,69; 8748,121;  226,181;14738,388;58,72256
 966,24; 8744,813;  216,104;14616,465;59,22566
 966,79; 8680,583;  233,488;14561,158;58,95651
 967,34; 8595,737;  193,104;14409,696;59,10441
 967,89; 8557,660;  206,027;14404,312;58,82142
 968,44; 8567,121;  216,027;14305,773;59,27072
 968,99; 8522,967;  221,950;14292,465;58,99583
 969,55; 8530,198;  222,027;14166,619;59,57988
 970,10; 8520,967;  226,488;14098,312;59,79372
 970,65; 8522,890;  246,873;14004,696;60,15499
 971,20; 8418,813;  214,181;13909,773;59,90710
 971,75; 8346,737;  197,796;13668,542;60,49361
 972,30; 8355,506;  223,104;13699,081;60,34740
 972,85; 8339,429;  212,181;13631,004;60,56603
 973,40; 8287,890;  206,258;13559,158;60,52343
 973,95; 8315,121;  222,719;13453,312;61,16432
 974,50; 8281,660;  246,565;13406,773;61,05598
 975,05; 8279,660;  227,335;13275,619;61,71175
 975,60; 8239,583;  233,642;13192,388;61,78021
 976,15; 8187,275;  213,719;13086,158;61,94285
 976,70; 8125,198;  225,719;13024,312;61,72147
 977,25; 8160,121;  228,950;12980,388;62,19825
 977,80; 8102,737;  205,104;12853,542;62,43959
 978,35; 8022,352;  228,565;12647,773;62,75591
 978,89; 7982,429;  198,719;12588,388;62,82419
 979,44; 8007,583;  228,873;12625,081;62,75072
 979,99; 7888,506;  209,873;12401,619;62,98222
 980,54; 7911,275;  243,412;12386,850;63,14409
 981,09; 7847,813;  239,258;12232,388;63,44095
 981,64; 7778,506;  234,873;12097,773;63,59012
 982,19; 7811,813;  261,027;12125,081;63,64424
 982,74; 7668,044;  245,027;11893,081;63,72753
 983,29; 7608,583;  213,950;11764,619;64,01908
 983,84; 7580,967;  235,258;11668,773;64,24717
 984,39; 7627,044;  303,104;11711,542;64,19757
 984,94; 7478,737;  203,027;11481,619;64,50902
 985,49; 7437,275;  250,873;11470,542;64,05182
 986,03; 7397,583;  250,488;11413,235;64,02631
 986,58; 7304,198;  276,027;11242,619;64,08710
 987,13; 7247,583;  237,027;11119,465;64,42082
 987,68; 7182,121;  235,335;11045,773;64,25999
 988,23; 7163,275;  237,258;10984,850;64,44250
 988,78; 7084,890;  223,873;10863,235;64,48711
 989,33; 7045,121;  241,873;10732,696;64,84952
 989,88; 7005,890;  249,642;10721,619;64,51741
 990,42; 6933,583;  232,642;10586,158;64,72140
 990,97; 6851,813;  224,950;10463,004;64,72777
 991,52; 6790,044;  253,719;10376,850;64,56822
 992,07; 6759,813;  255,873;10301,927;64,74125
 992,62; 6676,044;  239,873;10217,773;64,50427
 993,17; 6620,660;  238,181;10072,004;64,90333
 993,71; 6582,429;  248,950; 9954,235;65,25804
 994,26; 6487,890;  222,181; 9825,850;65,24287
 994,81; 6512,506;  250,181; 9767,850;65,79683
 995,36; 6347,275;  226,719; 9628,773;65,09807
 995,91; 6285,890;  235,258; 9593,004;64,65908
 996,45; 6290,198;  236,335; 9483,619;65,46639
 997,00; 6192,890;  207,950; 9335,850;65,56755
 997,55; 6176,890;  233,873; 9334,927;65,30032
 998,10; 6148,352;  265,488; 9163,773;66,11233
 998,65; 6118,813;  231,412; 9172,465;65,84685
 999,19; 6024,275;  252,104; 9013,158;65,88444
 999,74; 5938,044;  276,181; 8985,542;65,00894
1000,29; 5910,583;  246,719; 8828,773;65,99660
1000,84; 5833,429;  223,104; 8741,696;65,85977
1001,38; 5782,813;  237,412; 8648,388;65,93053
1001,93; 5763,967;  248,181; 8601,158;66,03378
1002,48; 5665,275;  221,950; 8410,542;66,47449
1003,03; 5631,275;  238,565; 8394,696;66,11848
1003,57; 5601,813;  249,719; 8249,158;66,90587
1004,12; 5552,967;  272,412; 8205,235;66,56591
1004,67; 5494,660;  226,719; 8094,235;66,95812
1005,22; 5407,352;  217,796; 7967,081;66,96819
1005,76; 5305,506;  217,335; 7848,235;66,67852
1006,31; 5299,044;  247,642; 7815,850;66,74502
1006,86; 5185,813;  222,104; 7678,850;66,56670
1007,40; 5129,121;  210,950; 7571,850;66,81481
1007,95; 5077,813;  236,873; 7480,158;66,83350
1008,50; 5017,967;  231,642; 7337,388;67,35851
1009,04; 4962,506;  219,950; 7249,004;67,47076
1009,59; 4842,660;  240,412; 7142,312;66,68089
1010,14; 4798,737;  216,335; 7033,312;67,22044
1010,68; 4726,506;  229,565; 6973,773;66,67856
1011,23; 4670,890;  224,950; 6797,542;67,64364
1011,78; 4618,429;  234,181; 6780,465;66,97307
1012,32; 4568,352;  247,565; 6639,465;67,59784
1012,87; 4559,583;  253,412; 6621,081;67,62555
1013,42; 4456,429;  218,258; 6484,004;67,64033
1013,96; 4493,506;  258,488; 6507,081;67,77554
1014,51; 4446,890;  198,335; 6424,619;68,23581
1015,06; 4443,352;  204,335; 6429,158;68,09860
1015,60; 4505,660;  268,565; 6443,619;68,61631
1016,15; 4459,506;  224,104; 6407,542;68,49590
1016,69; 4486,275;  233,950; 6431,158;68,61679
1017,24; 4486,429;  205,258; 6454,927;68,50236
1017,79; 4544,967;  251,796; 6551,081;68,15331
1018,33; 4525,121;  218,412; 6526,158;68,27652
1018,88; 4582,890;  242,258; 6598,927;68,28470
1019,42; 4591,121;  229,412; 6609,388;68,36560
1019,97; 4598,737;  209,642; 6586,388;68,82968
1020,51; 4649,813;  243,335; 6614,927;69,15820
1021,06; 4641,198;  199,258; 6623,081;69,14793
1021,61; 4610,352;  204,258; 6566,081;69,25836
1022,15; 4580,583;  180,027; 6530,927;69,29027
1022,70; 4608,429;  223,873; 6544,388;69,37023
1023,24; 4553,737;  217,104; 6506,696;68,94934
1023,79; 4561,044;  214,873; 6440,312;69,81309
1024,33; 4536,890;  219,642; 6432,696;69,48673
1024,88; 4464,352;  224,565; 6301,158;69,77244
1025,42; 4425,352;  216,335; 6201,773;70,32095
1025,97; 4366,044;  219,027; 6159,696;69,80724
1026,51; 4262,198;  185,488; 6011,927;69,96915
1027,06; 4249,352;  206,488; 5991,850;69,88091
1027,60; 4201,044;  239,258; 5887,235;70,14523
1028,15; 4172,121;  245,873; 5774,696;71,01417
1028,69; 4051,044;  198,950; 5671,004;70,39577
1029,24; 4035,660;  217,104; 5593,542;71,02389
1029,78; 3937,583;  215,181; 5512,696;70,26694
1030,33; 3861,429;  196,565; 5423,542;70,11440
1030,87; 3844,737;  222,642; 5339,312;70,79008
1031,42; 3780,121;  202,181; 5270,850;70,58934
1031,96; 3750,813;  233,488; 5172,465;71,21566
1032,51; 3662,737;  211,796; 5112,696;70,41442
1033,05; 3651,121;  216,104; 5063,465;70,86365
1033,60; 3563,121;  191,950; 4923,927;71,24234
1034,14; 3527,044;  213,565; 4874,388;71,09214
1034,69; 3519,506;  219,642; 4796,312;72,10186
1035,23; 3470,121;  208,796; 4739,927;71,97596
1035,77; 3399,198;  201,412; 4670,388;71,55523
1036,32; 3350,121;  190,950; 4605,312;71,56575
1036,86; 3316,275;  214,335; 4557,312;71,42429
1037,41; 3310,583;  225,104; 4481,542;72,48969
1037,95; 3252,352;  194,104; 4382,773;73,01240
1038,50; 3228,429;  206,412; 4372,696;72,53507
1039,04; 3177,044;  233,027; 4333,235;71,80166
1039,58; 3124,198;  196,488; 4222,388;72,72187
1040,13; 3107,121;  218,181; 4185,004;72,82756
1040,67; 3086,429;  237,488; 4167,081;72,49964
1041,21; 3049,813;  238,565; 4070,696;73,35992
1041,76; 2976,660;  199,104; 4016,850;72,75381
1042,30; 2939,121;  215,104; 3950,158;72,93114
1042,85; 2876,429;  217,335; 3897,235;72,25996
1043,39; 2834,660;  207,258; 3822,235;72,68102
1043,93; 2813,660;  223,335; 3783,773;72,75298
1044,48; 2764,121;  223,412; 3736,850;72,31405
1045,02; 2746,044;  213,104; 3690,850;72,83281
1045,56; 2724,583;  232,719; 3675,850;72,37203
1046,11; 2681,198;  220,642; 3615,004;72,48950
1046,65; 2642,967;  229,488; 3556,773;72,53599
1047,19; 2609,583;  207,104; 3511,465;72,70629
1047,74; 2541,198;  197,950; 3420,388;72,71661
1048,28; 2547,352;  220,181; 3400,927;73,16432
1048,82; 2530,890;  238,719; 3362,388;73,38073
1049,37; 2470,737;  228,412; 3294,004;73,14492
1049,91; 2448,813;  230,796; 3252,158;73,41118
1050,45; 2418,583;  233,258; 3229,158;72,94386
1050,99; 2372,737;  216,642; 3161,927;73,20495
1051,54; 2315,506;  208,796; 3103,696;72,77314
1052,08; 2304,198;  250,796; 3090,235;72,31718
1052,62; 2294,890;  236,719; 3048,696;73,19303
1053,16; 2235,737;  217,412; 2967,004;73,40452
1053,71; 2242,275;  230,565; 2937,465;74,31784
1054,25; 2208,967;  241,719; 2895,773;74,12239
1054,79; 2193,198;  231,642; 2873,235;74,25657
1055,33; 2122,737;  195,488; 2796,696;74,09051
1055,88; 2132,660;  231,412; 2778,312;74,64950
1056,42; 2088,429;  245,873; 2757,388;73,36430
1056,96; 2092,890;  238,565; 2705,158;75,17760
1057,50; 2066,275;  224,104; 2676,312;75,12297
1058,05; 2025,198;  221,335; 2629,773;74,89764
1058,59; 2010,429;  247,565; 2595,850;75,07026
1059,13; 1936,967;  206,181; 2532,158;74,41117
1059,67; 1964,583;  224,642; 2534,235;75,33539
1060,21; 1899,121;  218,796; 2464,235;74,83282
1060,76; 1905,890;  229,565; 2448,081;75,56067
1061,30; 1886,737;  248,565; 2444,773;74,59090
1061,84; 1859,737;  229,796; 2349,312;76,90156
1062,38; 1805,044;  218,335; 2286,542;76,71907
1062,92; 1823,967;  266,488; 2345,081;74,92950
1063,46; 1793,429;  247,181; 2274,388;76,27477
1064,01; 1747,429;  224,412; 2233,927;75,79028
1064,55; 1728,583;  231,565; 2217,773;75,37063
1065,09; 1680,506;  204,565; 2145,388;76,04714
1065,63; 1715,583;  253,719; 2166,388;76,43054
1066,17; 1681,737;  262,796; 2143,465;75,44869
1066,71; 1676,813;  247,258; 2125,388;76,11588
1067,25; 1631,352;  241,950; 2079,927;75,59409
1067,80; 1627,660;  256,873; 2061,696;75,95130
1068,34; 1621,506;  258,950; 2065,619;75,41811
1068,88; 1551,967;  225,181; 1990,696;75,15010
1069,42; 1591,583;  252,488; 2018,696;75,81748
1069,96; 1549,506;  234,642; 1949,081;76,69353
1070,50; 1568,737;  276,488; 1963,081;76,61888
1071,04; 1498,044;  220,950; 1888,696;76,57606
1071,58; 1484,890;  232,796; 1878,081;76,10198
1072,12; 1473,275;  233,796; 1855,081;76,45042
1072,66; 1467,660;  227,181; 1840,158;76,90617
1073,21; 1465,506;  243,104; 1838,004;76,64442
1073,75; 1432,737;  238,488; 1792,850;76,83207
1074,29; 1424,352;  245,950; 1790,388;76,29970
1074,83; 1423,044;  250,642; 1768,542;77,23842
1075,37; 1413,044;  255,796; 1760,542;76,90653
1075,91; 1392,813;  255,873; 1747,312;76,23113
1076,45; 1349,660;  236,565; 1700,004;76,06020
1076,99; 1356,583;  245,488; 1654,004;78,88407
1077,53; 1317,506;  229,104; 1627,004;77,85978
1078,07; 1315,737;  242,258; 1641,927;76,69518
1078,61; 1295,813;  237,412; 1612,081;76,99321
1079,15; 1281,583;  235,719; 1601,004;76,60406
1079,69; 1280,967;  236,796; 1561,235;78,83878
1080,23; 1283,890;  253,335; 1567,850;78,39815
1080,77; 1289,660;  284,719; 1574,388;77,92234
1081,31; 1242,044;  219,565; 1499,235;79,90181
1081,85; 1224,890;  250,719; 1528,004;76,26892
1082,39; 1199,198;  228,027; 1476,927;77,76212
1082,93; 1194,275;  249,950; 1489,312;76,19447
1083,47; 1180,583;  228,565; 1438,773;78,66561
1084,01; 1174,660;  246,027; 1466,388;76,09488
1084,55; 1154,813;  235,258; 1420,004;77,61627
1085,09; 1149,660;  247,950; 1420,004;76,93415
1085,63; 1154,044;  254,335; 1380,158;79,91572
1086,17; 1099,275;  224,719; 1372,158;76,21810
1086,71; 1102,737;  229,796; 1356,773;77,45859
1087,24; 1119,198;  266,642; 1373,927;76,99518
1087,78; 1104,583;  249,258; 1344,235;78,11352
1088,32; 1054,890;  234,488; 1302,312;76,82939
1088,86; 1087,352;  255,027; 1325,696;77,73876
1089,40; 1059,429;  239,335; 1279,004;78,88030
1089,94; 1010,352;  223,027; 1243,081;77,18465
1090,48; 1019,813;  243,258; 1242,312;77,72912
1091,02; 1030,506;  254,258; 1254,081;77,63854
1091,56;  991,198;  240,642; 1240,312;75,08041
1092,10;  979,890;  213,412; 1184,927;78,89518
1092,63; 1003,429;  259,258; 1217,465;77,66282
1093,17;  976,429;  244,719; 1203,004;76,35619
1093,71;  952,044;  229,488; 1160,235;77,63188
1094,25;  976,890;  264,950; 1180,158;77,79004
1094,79;  941,275;  240,488; 1147,542;77,25964
1095,33;  934,737;  247,796; 1127,312;78,10442
1095,87;  921,429;  240,412; 1124,619;77,02006
1096,40;  882,352;  216,950; 1088,619;76,33652
1096,94;  911,660;  242,104; 1091,927;78,78767
1097,48;  903,198;  251,181; 1084,465;78,24665
1098,02;  874,583;  236,181; 1071,927;76,38706
1098,56;  849,198;  208,104; 1018,388;79,11964
1099,10;  841,737;  220,719; 1013,850;78,29949
1099,63;  834,044;  216,642; 1022,465;76,61755
1100,17;  839,044;  235,565; 1028,696;76,08819
1100,71;  867,198;  259,719; 1034,465;78,41005

