
Integration time [ms]: 120,000
Averaging Nr. [scans]: 13
Smoothing Nr. [pixels]: 0
Data measured with spectrometer [name]: 2009305U1
Wave   ;Sample   ;Dark     ;Reference;Reflectance
[nm]   ;[counts] ;[counts] ;[counts] ;[%]

 175,72;  208,554;  198,725;  209,729;89,33036
 176,32;  227,730;  233,791;  221,495; 0,00000
 176,92;  250,649;  251,952;  246,144; 0,00000
 177,52;  253,483;  249,569;  261,381;33,13884
 178,12;  221,977;  210,945;  220,620;114,01796
 178,72;  259,617;  248,635;  250,038;782,57497
 179,32;  241,952;  255,406;  241,911; 0,00000
 179,92;  251,428;  255,641;  248,129; 0,00000
 180,52;  241,752;  233,115;  240,492;117,07906
 181,12;  258,981;  249,103;  245,056; 0,00000
 181,73;  274,423;  265,873;  272,598;127,13456
 182,33;  344,030;  349,879;  341,303; 0,00000
 182,93;  282,373;  259,492;  262,580;740,78832
 183,53;  237,947;  241,402;  230,123; 0,00000
 184,13;  233,900;  231,942;  223,284; 0,00000
 184,73;  268,566;  262,785;  270,840;71,76512
 185,33;  257,596;  235,800;  340,235;20,87041
 185,93;  257,626;  233,331;  341,231;22,51635
 186,53;  279,401;  252,412;  358,480;25,44494
 187,13;  290,891;  259,651;  408,456;20,99370
 187,73;  271,179;  235,102;  356,651;29,68111
 188,33;  266,140;  242,097;  355,217;21,25377
 188,93;  279,187;  252,084;  372,324;22,54041
 189,53;  275,891;  250,458;  375,462;20,34580
 190,13;  313,033;  288,441;  393,447;23,41937
 190,73;  247,812;  221,607;  354,699;19,68993
 191,34;  283,446;  261,772;  383,107;17,86242
 191,94;  258,717;  243,170;  355,212;13,87582
 192,54;  281,429;  244,657;  378,976;27,37671
 193,14;  282,637;  261,650;  386,945;16,74951
 193,74;  286,769;  256,803;  371,292;26,17368
 194,34;  279,751;  254,345;  379,723;20,26393
 194,94;  248,757;  215,650;  345,606;25,47521
 195,54;  226,681;  198,339;  325,621;22,26671
 196,14;  264,002;  226,731;  350,792;30,04285
 196,74;  245,797;  216,030;  338,690;24,26819
 197,34;  225,920;  203,967;  338,400;16,33020
 197,94;  259,634;  224,267;  375,503;23,38524
 198,54;  262,840;  232,346;  384,669;20,01927
 199,14;  247,399;  223,046;  367,104;16,90485
 199,74;  232,356;  202,354;  368,520;18,05530
 200,34;  216,054;  194,509;  366,971;12,49251
 200,94;  263,017;  234,889;  406,748;16,36741
 201,54;  245,933;  216,814;  407,160;15,29782
 202,14;  266,014;  240,665;  454,320;11,86424
 202,74;  253,263;  228,200;  447,857;11,41014
 203,34;  219,183;  181,976;  463,089;13,23566
 203,94;  207,644;  166,204;  459,631;14,12268
 204,54;  277,085;  236,729;  542,983;13,17731
 205,14;  241,391;  194,585;  536,212;13,70088
 205,74;  274,885;  237,668;  639,180; 9,26917
 206,34;  263,971;  204,050;  630,780;14,04207
 206,94;  264,624;  210,433;  685,452;11,40824
 207,54;  227,648;  177,588;  721,425; 9,20499
 208,14;  254,568;  208,358;  795,906; 7,86491
 208,74;  257,990;  208,200;  848,241; 7,77925
 209,34;  254,748;  207,355;  912,599; 6,72016
 209,94;  274,441;  216,431; 1015,259; 7,26192
 210,54;  275,154;  207,205; 1109,050; 7,53445
 211,14;  285,143;  214,662; 1195,427; 7,18637
 211,73;  287,790;  208,506; 1299,988; 7,26384
 212,33;  302,368;  222,812; 1397,255; 6,77400
 212,93;  301,077;  208,738; 1479,640; 7,26559
 213,53;  268,947;  184,046; 1538,349; 6,26898
 214,13;  291,031;  193,748; 1630,932; 6,76895
 214,73;  283,475;  179,434; 1625,550; 7,19450
 215,33;  270,134;  163,585; 1674,567; 7,05162
 215,93;  312,031;  208,899; 1774,717; 6,58651
 216,53;  280,385;  168,430; 1832,838; 6,72643
 217,13;  350,334;  229,436; 2022,497; 6,74252
 217,73;  325,022;  197,822; 2208,241; 6,32704
 218,33;  303,404;  156,057; 2364,675; 6,67146
 218,93;  348,612;  181,834; 2630,757; 6,81026
 219,53;  379,591;  180,903; 2889,476; 7,33554
 220,13;  372,672;  168,059; 3125,529; 6,91853
 220,73;  416,355;  190,893; 3430,322; 6,95993
 221,32;  432,836;  184,508; 3811,856; 6,84602
 221,92;  463,409;  193,366; 4182,543; 6,76938
 222,52;  472,884;  172,284; 4562,289; 6,84738
 223,12;  510,985;  184,900; 4945,153; 6,85017
 223,72;  551,327;  200,285; 5311,646; 6,86788
 224,32;  597,599;  192,747; 5676,679; 7,38252
 224,92;  600,736;  183,362; 5950,894; 7,23661
 225,52;  655,658;  207,356; 6276,099; 7,38706
 226,12;  665,984;  187,051; 6571,650; 7,50137
 226,72;  681,165;  160,666; 6841,878; 7,79048
 227,31;  715,148;  156,666; 7219,939; 7,90684
 227,91;  773,942;  190,894; 7541,280; 7,93222
 228,51;  803,725;  186,812; 7911,520; 7,98622
 229,11;  848,380;  181,820; 8271,138; 8,24000
 229,71;  902,641;  176,122; 8541,977; 8,68434
 230,31;  936,663;  169,748; 8933,640; 8,75084
 230,91;  977,945;  158,502; 9183,125; 9,08008
 231,51; 1028,313;  167,360; 9538,918; 9,18687
 232,10; 1084,113;  169,980; 9825,075; 9,46788
 232,70; 1167,905;  177,422;10037,261;10,04563
 233,30; 1219,238;  204,206;10330,930;10,02330
 233,90; 1241,913;  173,898;10431,145;10,41230
 234,50; 1300,612;  173,514;10561,102;10,85043
 235,10; 1339,121;  170,439;10679,048;11,12118
 235,70; 1421,823;  196,355;10707,048;11,65925
 236,29; 1480,991;  189,507;10660,055;12,33445
 236,89; 1492,226;  164,349;10563,896;12,76860
 237,49; 1567,129;  187,436;10546,988;13,31808
 238,09; 1560,048;  169,434;10299,934;13,72700
 238,69; 1640,113;  199,577;10085,824;14,57111
 239,29; 1617,033;  173,126; 9816,008;14,97382
 239,89; 1647,935;  193,964; 9557,989;15,52720
 240,48; 1621,724;  169,819; 9189,380;16,09729
 241,08; 1633,377;  173,895; 8870,359;16,78248
 241,68; 1672,509;  202,973; 8542,428;17,62149
 242,28; 1650,530;  173,206; 8296,267;18,18679
 242,88; 1684,680;  210,364; 8015,271;18,88960
 243,48; 1684,941;  214,359; 7813,649;19,35158
 244,07; 1676,233;  190,279; 7524,495;20,26058
 244,67; 1692,020;  193,589; 7335,200;20,98170
 245,27; 1697,251;  198,121; 7224,988;21,33426
 245,87; 1707,203;  202,978; 7137,422;21,69208
 246,47; 1710,806;  186,737; 7152,619;21,87906
 247,06; 1751,794;  178,433; 7115,577;22,68024
 247,66; 1813,474;  190,742; 7171,967;23,24423
 248,26; 1867,428;  211,199; 7383,422;23,09227
 248,86; 1912,874;  187,583; 7554,528;23,41935
 249,46; 1936,202;  151,745; 7751,040;23,48188
 250,05; 2043,810;  205,203; 8059,625;23,40856
 250,65; 2074,005;  156,351; 8391,138;23,28723
 251,25; 2200,087;  175,510; 8846,420;23,34907
 251,85; 2317,448;  188,657; 9377,235;23,16780
 252,44; 2419,435;  152,046;10031,610;22,95029
 253,04; 2571,278;  201,662;10746,245;22,47235
 253,64; 2649,136;  153,197;11314,012;22,36341
 254,24; 2851,238;  191,741;12220,363;22,10974
 254,84; 2996,048;  166,745;13137,194;21,81346
 255,43; 3171,049;  180,354;13986,565;21,66196
 256,03; 3281,929;  179,120;14914,490;21,05688
 256,63; 3432,055;  182,657;15992,265;20,55331
 257,23; 3534,900;  178,195;16766,067;20,23590
 257,82; 3723,312;  187,423;17744,651;20,13922
 258,42; 3759,805;  152,113;18540,057;19,61987
 259,02; 3890,698;  195,508;19439,475;19,20181
 259,62; 3923,397;  174,574;20014,745;18,89512
 260,21; 3954,366;  187,584;20539,271;18,50845
 260,81; 3953,916;  174,128;20993,664;18,15501
 261,41; 3976,545;  166,037;21535,894;17,83123
 262,01; 4015,974;  206,264;21932,846;17,53479
 262,60; 3919,516;  161,657;22263,375;17,00256
 263,20; 3907,132;  174,198;22619,064;16,63157
 263,80; 3884,240;  197,880;22817,691;16,29704
 264,40; 3765,066;  155,342;23010,849;15,79367
 264,99; 3760,523;  195,802;23187,520;15,50437
 265,59; 3674,820;  168,336;23290,435;15,16508
 266,19; 3628,197;  175,572;23408,876;14,86067
 266,78; 3631,393;  207,185;23564,540;14,66009
 267,38; 3548,611;  185,875;23535,671;14,40157
 267,98; 3488,076;  178,493;23588,757;14,13732
 268,58; 3455,441;  189,029;23610,424;13,94627
 269,17; 3381,076;  178,179;23588,237;13,68171
 269,77; 3332,383;  192,578;23479,767;13,48297
 270,37; 3215,635;  161,110;23253,673;13,22731
 270,96; 3218,996;  219,115;23179,220;13,06562
 271,56; 3136,654;  181,041;22949,788;12,98101
 272,16; 3053,375;  181,652;22839,153;12,67449
 272,75; 2992,528;  179,345;22647,263;12,52089
 273,35; 2984,490;  185,962;22752,668;12,40114
 273,95; 2936,485;  182,345;22634,525;12,26669
 274,54; 2908,768;  162,280;22661,239;12,20718
 275,14; 2988,396;  199,500;23009,838;12,22645
 275,74; 2912,554;  157,729;22979,523;12,07103
 276,33; 2982,435;  206,040;23339,167;12,00181
 276,93; 3025,021;  185,666;23789,475;12,02923
 277,53; 3050,179;  184,200;24196,394;11,93552
 278,12; 3061,813;  159,196;24656,393;11,84877
 278,72; 3225,761;  210,968;25209,099;12,06007
 279,32; 3244,652;  177,353;25795,343;11,97322
 279,91; 3332,168;  173,275;26468,338;12,01325
 280,51; 3416,699;  180,661;27006,795;12,06301
 281,11; 3537,535;  181,582;27679,169;12,20454
 281,70; 3621,862;  155,889;28143,812;12,38381
 282,30; 3682,346;  175,887;28664,557;12,30826
 282,90; 3819,320;  184,733;29140,880;12,55204
 283,49; 3921,832;  191,654;29639,315;12,66714
 284,09; 4047,470;  209,735;30013,118;12,87684
 284,69; 4153,439;  208,352;30383,634;13,07390
 285,28; 4266,359;  198,581;30659,164;13,35424
 285,88; 4450,273;  234,268;31004,553;13,70155
 286,47; 4504,287;  178,656;30948,156;14,05818
 287,07; 4622,926;  220,122;30971,081;14,31761
 287,67; 4817,711;  205,282;31249,572;14,85758
 288,26; 4959,106;  173,583;31154,111;15,44687
 288,86; 5121,649;  177,427;31163,873;15,95608
 289,46; 5360,312;  194,890;31354,786;16,57715
 290,05; 5493,745;  176,971;31383,773;17,03723
 290,65; 5835,613;  191,425;31591,261;17,97522
 291,24; 6086,274;  197,814;31745,730;18,66513
 291,84; 6412,824;  198,734;31851,188;19,63226
 292,44; 6701,615;  193,513;31994,544;20,46507
 293,03; 7027,728;  249,968;32153,222;21,24473
 293,63; 7257,534;  186,964;32285,480;22,02772
 294,22; 7568,698;  208,736;32427,446;22,84375
 294,82; 7767,741;  179,111;32457,635;23,50984
 295,41; 7878,323;  168,197;32179,428;24,08569
 296,01; 8143,445;  220,882;32137,119;24,82299
 296,61; 8215,617;  209,660;31938,498;25,23243
 297,20; 8312,247;  198,652;31498,260;25,92235
 297,80; 8421,298;  189,818;31371,885;26,39812
 298,39; 8443,371;  168,349;31012,542;26,82846
 298,99; 8581,628;  196,577;30953,082;27,26269
 299,58; 8655,833;  210,666;30637,168;27,75596
 300,18; 8715,283;  218,664;30536,651;28,02501
 300,78; 8734,451;  187,969;30175,812;28,49982
 301,37; 8771,791;  210,801;30210,608;28,53681
 301,97; 8923,064;  192,736;30210,385;29,08398
 302,56; 8916,117;  180,117;30097,031;29,20087
 303,16; 8971,624;  178,501;30021,826;29,46429
 303,75; 9035,013;  188,816;30056,938;29,61752
 304,35; 9176,251;  181,592;30296,229;29,86806
 304,94; 9228,585;  192,275;30223,710;30,08950
 305,54; 9273,298;  202,738;30212,702;30,22516
 306,13; 9293,481;  162,515;30220,877;30,37746
 306,73; 9276,282;  171,667;29981,020;30,54281
 307,33; 9321,472;  197,897;30003,878;30,60988
 307,92; 9417,591;  200,276;30009,930;30,92057
 308,52; 9556,472;  164,039;30460,332;31,00192
 309,11; 9741,096;  184,805;30865,317;31,14776
 309,71; 9826,060;  165,957;31097,892;31,23019
 310,30; 9975,822;  168,199;31341,744;31,46137
 310,90;10125,515;  214,660;31732,359;31,44536
 311,49;10186,191;  187,198;31844,388;31,58522
 312,09;10232,761;  150,125;31981,436;31,67521
 312,68;10435,409;  221,508;32445,118;31,69695
 313,28;10426,975;  164,968;32508,776;31,72789
 313,87;10458,678;  155,737;32612,835;31,74326
 314,47;10593,948;  179,883;32880,460;31,84673
 315,06;10645,479;  164,892;33020,392;31,89903
 315,66;10640,684;  163,895;33161,590;31,75007
 316,25;10642,640;  153,271;33134,720;31,80385
 316,85;10658,650;  150,895;33146,514;31,84591
 317,44;10692,950;  168,882;33320,627;31,74514
 318,04;10704,337;  157,041;33358,819;31,76726
 318,63;10630,829;  156,129;33413,451;31,49592
 319,22;10709,879;  181,886;33687,260;31,42180
 319,82;10699,231;  176,965;33726,732;31,36316
 320,41;10603,878;  188,887;33581,370;31,18963
 321,01;10579,789;  194,740;33730,664;30,96694
 321,60;10608,060;  183,350;33856,364;30,95865
 322,20;10565,804;  167,276;33758,639;30,95596
 322,79;10555,411;  207,430;33929,362;30,68620
 323,39;10514,270;  173,438;34018,334;30,55359
 323,98;10416,067;  164,200;33942,472;30,35048
 324,58;10384,249;  173,116;33789,917;30,37509
 325,17;10325,477;  185,502;33722,475;30,23521
 325,76;10235,627;  194,121;33481,634;30,16598
 326,36;10084,609;  166,894;33169,218;30,05157
 326,95; 9951,366;  201,197;32821,858;29,88955
 327,55; 9815,719;  172,273;32580,839;29,75586
 328,14; 9621,638;  161,050;32147,564;29,57680
 328,74; 9479,006;  198,502;31792,923;29,37387
 329,33; 9308,559;  195,278;31370,401;29,23254
 329,92; 9154,386;  154,959;30887,103;29,28343
 330,52; 8890,954;  189,204;30203,412;28,99210
 331,11; 8759,760;  187,197;29806,103;28,94288
 331,71; 8551,168;  178,967;29282,569;28,76689
 332,30; 8337,047;  195,506;28842,479;28,42025
 332,89; 8174,158;  236,124;28405,815;28,17934
 333,49; 7971,452;  194,351;27811,673;28,16023
 334,08; 7812,095;  177,196;27493,100;27,95038
 334,68; 7675,198;  192,581;27000,316;27,91216
 335,27; 7538,387;  191,512;26650,986;27,76652
 335,86; 7435,299;  222,889;26456,564;27,49295
 336,46; 7299,677;  194,436;26199,541;27,32249
 337,05; 7162,667;  176,966;26018,241;27,03311
 337,65; 7089,821;  160,811;25875,670;26,94555
 338,24; 7103,580;  224,123;25891,948;26,80187
 338,83; 7020,785;  200,738;25754,918;26,68857
 339,43; 6929,392;  173,348;25758,583;26,40603
 340,02; 6891,487;  175,578;25570,534;26,44584
 340,61; 6857,009;  177,122;25648,038;26,22555
 341,21; 6844,468;  210,963;25690,769;26,03436
 341,80; 6805,848;  189,657;25615,084;26,02194
 342,40; 6776,774;  180,589;25697,459;25,85029
 342,99; 6782,620;  179,355;25775,661;25,79773
 343,58; 6797,405;  181,355;25977,863;25,64707
 344,18; 6748,207;  197,971;26092,927;25,29541
 344,77; 6802,462;  165,732;26394,318;25,30342
 345,36; 6839,213;  166,658;26652,242;25,19316
 345,96; 6907,653;  207,432;26959,571;25,04555
 346,55; 6950,944;  170,207;27168,889;25,11507
 347,14; 6966,260;  163,435;27487,598;24,89674
 347,74; 6996,033;  144,827;27869,864;24,71126
 348,33; 7172,702;  178,596;28420,892;24,76465
 348,92; 7254,479;  181,599;29109,307;24,45019
 349,52; 7296,740;  159,597;29486,131;24,33681
 350,11; 7373,352;  177,654;29780,485;24,30747
 350,70; 7402,676;  172,122;29801,438;24,40338
 351,29; 7251,145;  170,031;29587,678;24,07097
 351,89; 7248,703;  198,574;29521,502;24,04306
 352,48; 7172,728;  154,891;29577,683;23,85170
 353,07; 7152,130;  190,436;29611,494;23,66228
 353,67; 7090,366;  195,061;29508,263;23,52287
 354,26; 7000,346;  186,127;29303,183;23,40284
 354,85; 6931,983;  183,049;29206,884;23,25307
 355,45; 6877,106;  160,580;28976,851;23,30810
 356,04; 6826,394;  177,667;28863,558;23,17769
 356,63; 6799,733;  201,736;28756,951;23,10610
 357,22; 6686,148;  182,033;28529,688;22,94410
 357,82; 6643,459;  178,573;28303,126;22,98663
 358,41; 6594,944;  197,198;28225,802;22,82578
 359,00; 6482,554;  169,194;28039,475;22,65266
 359,60; 6501,803;  190,200;27965,671;22,72366
 360,19; 6409,306;  189,283;27739,961;22,57666
 360,78; 6383,958;  188,811;27658,808;22,55241
 361,37; 6311,454;  176,735;27434,916;22,50597
 361,97; 6283,535;  189,428;27383,861;22,40939
 362,56; 6200,233;  173,116;27056,561;22,41944
 363,15; 6167,344;  215,273;26861,468;22,33742
 363,74; 6057,683;  191,806;26488,153;22,30681
 364,34; 5954,204;  201,425;26092,628;22,21905
 364,93; 5828,491;  181,423;25766,867;22,07141
 365,52; 5731,684;  158,350;25396,410;22,08305
 366,11; 5729,486;  179,348;25099,599;22,27160
 366,71; 5612,109;  171,271;24664,030;22,21407
 367,30; 5498,580;  181,274;24351,150;21,99973
 367,89; 5490,864;  218,356;24117,806;22,06121
 368,48; 5435,135;  193,114;23831,370;22,17600
 369,07; 5308,599;  180,045;23481,745;22,00935
 369,67; 5271,979;  211,038;23145,589;22,06689
 370,26; 5194,590;  176,584;22904,962;22,07815
 370,85; 5158,444;  189,581;22579,595;22,19232
 371,44; 5120,023;  185,197;22472,583;22,14179
 372,03; 5027,828;  164,425;22167,136;22,10365
 372,63; 4994,178;  157,812;21893,705;22,25060
 373,22; 4921,122;  178,276;21618,236;22,12152
 373,81; 4884,051;  160,581;21348,164;22,29358
 374,40; 4880,108;  189,357;21109,918;22,42173
 374,99; 4790,917;  173,119;20805,236;22,38160
 375,59; 4726,460;  172,818;20548,239;22,34870
 376,18; 4764,532;  201,657;20421,884;22,56589
 376,77; 4752,817;  195,044;20284,216;22,68771
 377,36; 4765,573;  210,812;20218,225;22,76537
 377,95; 4704,331;  197,579;19936,400;22,83192
 378,55; 4687,635;  170,740;19722,664;23,10205
 379,14; 4704,487;  197,196;19652,640;23,16725
 379,73; 4726,014;  190,195;19586,848;23,38455
 380,32; 4738,390;  193,428;19698,446;23,30150
 380,91; 4704,074;  180,730;19479,572;23,43842
 381,50; 4788,113;  201,731;19462,208;23,81240
 382,10; 4753,775;  173,582;19341,830;23,89468
 382,69; 4776,001;  153,196;19281,655;24,16716
 383,28; 4841,034;  205,655;19266,811;24,31846
 383,87; 4778,864;  175,116;19108,719;24,31522
 384,46; 4834,228;  165,112;19057,158;24,71472
 385,05; 4864,182;  219,270;19032,316;24,68985
 385,64; 4921,563;  181,194;19079,829;25,08313
 386,24; 4922,929;  165,265;19008,018;25,24930
 386,83; 5011,461;  200,649;19082,215;25,47888
 387,42; 5037,861;  206,964;19161,969;25,48613
 388,01; 5155,576;  193,645;19331,088;25,92787
 388,60; 5263,773;  194,266;19613,654;26,10539
 389,19; 5351,147;  170,485;19711,863;26,51124
 389,78; 5464,066;  180,564;20001,915;26,65561
 390,37; 5660,551;  238,340;20408,716;26,88206
 390,96; 5702,409;  193,188;20570,771;27,03569
 391,56; 5776,332;  191,407;20731,732;27,19005
 392,15; 5894,764;  188,103;21012,597;27,40360
 392,74; 5980,165;  164,630;21139,528;27,72617
 393,33; 6156,078;  186,714;21382,297;28,16324
 393,92; 6307,757;  192,780;21783,988;28,32161
 394,51; 6407,480;  170,175;21988,050;28,58805
 395,10; 6536,096;  212,461;22189,538;28,77377
 395,69; 6610,561;  206,155;22317,361;28,96452
 396,28; 6690,996;  205,150;22429,043;29,18412
 396,87; 6768,016;  208,293;22506,720;29,41787
 397,46; 6890,889;  212,979;22584,582;29,84994
 398,06; 7005,682;  224,355;22908,699;29,89430
 398,65; 7025,121;  211,721;22862,365;30,08038
 399,24; 7174,362;  227,025;23077,241;30,40382
 399,83; 7200,154;  208,688;23078,877;30,57022
 400,42; 7380,151;  248,124;23183,898;31,09565
 401,01; 7433,150;  221,325;23296,255;31,25394
 401,60; 7502,983;  244,208;23371,456;31,38625
 402,19; 7552,629;  257,022;23296,956;31,66505
 402,78; 7612,590;  257,588;23374,469;31,81659
 403,37; 7681,134;  233,156;23158,178;32,48842
 403,96; 7678,238;  244,024;23048,728;32,59948
 404,55; 7696,250;  262,271;22963,326;32,74729
 405,14; 7689,134;  238,215;22846,319;32,95685
 405,73; 7711,661;  260,611;22788,222;33,07519
 406,32; 7824,204;  259,029;22622,115;33,82885
 406,91; 7799,041;  257,594;22411,638;34,04095
 407,50; 7756,712;  264,260;22245,873;34,08509
 408,09; 7716,653;  226,473;21951,682;34,47691
 408,68; 7781,665;  254,536;21879,207;34,80806
 409,27; 7730,061;  246,476;21712,453;34,86254
 409,86; 7728,317;  256,439;21553,202;35,08457
 410,45; 7823,172;  293,934;21550,876;35,42014
 411,04; 7839,750;  292,352;21485,723;35,61207
 411,63; 7768,000;  286,935;21190,695;35,78813
 412,22; 7724,604;  280,668;20981,662;35,95932
 412,81; 7738,359;  302,989;20780,234;36,31040
 413,40; 7655,684;  310,469;20416,348;36,53267
 413,99; 7616,170;  342,848;20183,307;36,65904
 414,58; 7489,621;  277,159;19746,662;37,04492
 415,17; 7473,470;  279,605;19575,189;37,28244
 415,76; 7441,805;  270,666;19419,040;37,45038
 416,35; 7394,013;  276,443;19110,200;37,79156
 416,94; 7514,137;  310,670;19268,010;37,99830
 417,53; 7572,133;  280,221;19408,256;38,12159
 418,12; 7682,200;  269,533;19521,995;38,50244
 418,71; 7888,648;  298,316;19861,765;38,79854
 419,30; 7941,298;  287,073;20065,109;38,70063
 419,89; 8022,263;  272,460;20163,447;38,96138
 420,48; 8206,075;  294,085;20362,535;39,42502
 421,07; 8267,553;  290,165;20498,503;39,47573
 421,66; 8314,871;  266,558;20466,188;39,84386
 422,25; 8322,630;  271,189;20540,583;39,72216
 422,84; 8368,159;  299,962;20440,598;40,05930
 423,43; 8290,426;  287,647;20178,320;40,23383
 424,02; 8240,597;  302,727;19996,442;40,30662
 424,60; 8117,047;  280,439;19584,206;40,59627
 425,19; 8061,101;  296,044;19327,453;40,80127
 425,78; 8034,645;  293,661;19228,750;40,88169
 426,37; 8036,224;  300,437;19061,951;41,23221
 426,96; 8018,950;  276,206;18925,136;41,51843
 427,55; 7990,876;  275,294;18888,508;41,45218
 428,14; 7920,812;  267,837;18586,022;41,77802
 428,73; 7917,683;  288,366;18469,381;41,96310
 429,32; 7917,671;  285,513;18413,992;42,10038
 429,91; 7938,878;  320,982;18460,799;41,99544
 430,50; 7882,384;  300,065;18279,640;42,17185
 431,08; 7908,796;  307,455;18121,157;42,67131
 431,67; 7860,439;  330,460;18059,181;42,47334
 432,26; 7805,468;  352,773;17866,633;42,55313
 432,85; 7708,575;  372,079;17525,688;42,76940
 433,44; 7570,948;  388,471;17227,983;42,65252
 434,03; 7448,988;  402,711;16826,982;42,90161
 434,62; 7259,536;  359,087;16459,216;42,85959
 435,21; 7181,624;  365,618;16298,030;42,78075
 435,79; 7095,451;  376,323;16109,888;42,70569
 436,38; 7077,971;  368,410;15986,717;42,95959
 436,97; 7046,668;  351,796;15943,277;42,93930
 437,56; 6972,994;  366,118;15775,296;42,87624
 438,15; 6961,364;  330,960;15658,418;43,25834
 438,74; 6991,394;  358,116;15673,578;43,31099
 439,33; 6965,793;  334,421;15641,739;43,32158
 439,91; 6968,595;  308,120;15728,245;43,19339
 440,50; 7024,439;  353,275;15720,771;43,41087
 441,09; 7084,390;  352,437;15858,362;43,41536
 441,68; 7101,956;  330,291;15871,755;43,57160
 442,27; 7032,060;  309,595;15870,416;43,20122
 442,86; 7053,461;  286,691;15851,837;43,47386
 443,44; 7112,078;  306,610;15894,282;43,65930
 444,03; 7146,238;  376,999;16005,300;43,31398
 444,62; 7050,768;  300,075;15815,177;43,51046
 445,21; 7043,954;  324,227;15685,782;43,74379
 445,80; 7017,318;  356,622;15621,797;43,63328
 446,39; 6938,691;  367,697;15356,081;43,84058
 446,97; 6829,890;  300,708;15192,640;43,84375
 447,56; 6684,738;  305,024;14946,971;43,57148
 448,15; 6631,309;  323,939;14810,409;43,53973
 448,74; 6525,938;  331,940;14558,368;43,53868
 449,33; 6460,152;  323,946;14452,718;43,43057
 449,91; 6395,714;  318,033;14243,239;43,64518
 450,50; 6290,720;  307,954;13988,738;43,73116
 451,09; 6289,144;  335,493;13900,297;43,89043
 451,68; 6213,064;  356,497;13844,731;43,41982
 452,26; 6186,667;  340,040;13735,304;43,64697
 452,85; 6115,683;  319,499;13610,323;43,61042
 453,44; 6110,210;  341,974;13683,567;43,23499
 454,03; 6098,924;  314,351;13625,594;43,45630
 454,61; 6064,575;  311,590;13609,495;43,26234
 455,20; 6138,349;  338,979;13743,391;43,26464
 455,79; 6170,636;  348,740;13741,725;43,46974
 456,38; 6170,363;  342,063;13817,793;43,25035
 456,97; 6177,250;  330,061;13863,829;43,20444
 457,55; 6172,447;  329,759;13876,516;43,12980
 458,14; 6213,930;  356,290;13890,729;43,27952
 458,73; 6101,351;  341,529;13835,213;42,68532
 459,31; 6187,482;  366,306;13850,064;43,17176
 459,90; 6206,178;  383,302;13974,214;42,84390
 460,49; 6253,305;  420,299;14008,495;42,92701
 461,08; 6198,232;  340,310;14107,021;42,55135
 461,66; 6250,244;  341,306;14143,370;42,81199
 462,25; 6262,281;  349,006;14205,437;42,67531
 462,84; 6278,135;  376,465;14250,179;42,53850
 463,43; 6233,376;  301,938;14247,046;42,53419
 464,01; 6249,562;  339,172;14309,864;42,30563
 464,60; 6237,838;  396,704;14200,171;42,31642
 465,19; 6073,555;  339,251;13997,782;41,98331
 465,77; 6083,543;  340,871;13977,125;42,11327
 466,36; 6011,846;  371,245;13839,631;41,88030
 466,95; 5895,621;  353,477;13528,774;42,06466
 467,53; 5778,042;  350,645;13289,085;41,94784
 468,12; 5626,628;  372,646;13030,152;41,50882
 468,71; 5507,629;  349,714;12788,109;41,46769
 469,29; 5395,728;  337,032;12597,465;41,26033
 469,88; 5273,769;  341,805;12287,066;41,28804
 470,47; 5335,449;  410,505;12431,822;40,96842
 471,06; 5306,849;  365,120;12397,793;41,06926
 471,64; 5290,667;  375,118;12462,030;40,66837
 472,23; 5290,130;  332,518;12524,681;40,66228
 472,81; 5311,833;  330,972;12651,188;40,42836
 473,40; 5317,659;  343,056;12714,206;40,21132
 473,99; 5467,984;  441,364;12943,375;40,20649
 474,57; 5431,797;  349,979;13036,466;40,05694
 475,16; 5508,650;  370,204;13165,595;40,15856
 475,75; 5532,225;  376,600;13294,845;39,90964
 476,33; 5570,269;  383,837;13411,872;39,80978
 476,92; 5576,655;  386,288;13452,566;39,72338
 477,51; 5551,507;  371,757;13544,460;39,32185
 478,09; 5567,310;  368,526;13511,952;39,55425
 478,68; 5505,534;  375,529;13454,486;39,22335
 479,27; 5533,771;  407,139;13495,077;39,17067
 479,85; 5485,142;  381,605;13495,561;38,91684
 480,44; 5539,954;  364,993;13660,405;38,92291
 481,02; 6007,966;  382,306;14973,490;38,55520
 481,61; 6767,066;  404,380;16859,203;38,66760
 482,20; 7211,239;  382,844;18027,106;38,70037
 482,78; 7526,240;  415,453;18824,862;38,62583
 483,37; 7663,268;  404,160;19388,819;38,23670
 483,95; 7773,391;  414,546;19540,072;38,47657
 484,54; 7862,778;  429,918;19769,660;38,43309
 485,13; 7737,723;  405,860;19637,609;38,12375
 485,71; 7659,345;  383,088;19561,922;37,93900
 486,30; 7555,687;  414,396;19225,799;37,96256
 486,88; 7437,237;  453,937;18897,130;37,86384
 487,47; 7149,480;  439,784;18158,769;37,86727
 488,05; 6823,455;  423,480;17350,736;37,80870
 488,64; 6314,361;  419,870;16087,163;37,62291
 489,23; 5618,587;  438,174;14340,035;37,26417
 489,81; 4796,616;  428,406;12265,536;36,90261
 490,40; 4491,673;  387,177;11679,649;36,34719
 490,98; 4379,802;  377,333;11388,277;36,34992
 491,57; 4358,235;  389,405;11305,362;36,35805
 492,15; 4320,115;  379,719;11271,497;36,17772
 492,74; 4272,505;  391,249;11185,046;35,95820
 493,32; 4216,376;  401,179;11096,090;35,67302
 493,91; 4166,492;  371,029;10997,172;35,71816
 494,50; 4118,137;  396,040;10987,804;35,14143
 495,08; 4057,788;  367,578;10899,848;35,03718
 495,67; 4084,434;  393,490;10870,398;35,22933
 496,25; 3981,810;  329,188;10741,795;35,07885
 496,84; 3986,325;  352,951;10758,565;34,91743
 497,42; 3955,522;  346,344;10738,589;34,72953
 498,01; 3952,791;  371,414;10640,741;34,87450
 498,59; 3877,657;  337,653;10625,516;34,40951
 499,18; 3871,951;  341,722;10495,159;34,76881
 499,76; 3853,776;  361,958;10446,642;34,62496
 500,35; 3753,907;  344,581;10305,032;34,22863
 500,93; 3743,430;  327,267;10285,849;34,30371
 501,52; 3669,922;  332,883;10186,900;33,86476
 502,10; 3659,040;  357,201;10166,328;33,66089
 502,69; 3615,731;  332,974; 9938,653;34,17517
 503,27; 3507,845;  315,963; 9848,314;33,48473
 503,86; 3502,752;  333,818; 9763,892;33,60455
 504,44; 3449,178;  317,822; 9600,262;33,73420
 505,03; 3336,956;  297,206; 9442,846;33,23714
 505,61; 3347,225;  323,205; 9319,101;33,61555
 506,19; 3260,264;  353,052; 9155,045;33,02902
 506,78; 3177,686;  304,906; 8972,804;33,14276
 507,36; 3111,051;  317,744; 8825,028;32,83430
 507,95; 3070,557;  315,679; 8697,312;32,86804
 508,53; 3001,482;  315,444; 8551,911;32,61153
 509,12; 2961,125;  330,293; 8424,091;32,50429
 509,70; 2921,162;  337,141; 8297,561;32,46086
 510,29; 2874,886;  342,760; 8155,917;32,40849
 510,87; 2776,542;  312,906; 7973,279;32,16078
 511,46; 2729,307;  299,523; 7826,672;32,28027
 512,04; 2680,859;  312,219; 7675,583;32,16791
 512,62; 2631,033;  315,985; 7551,241;31,99676
 513,21; 2552,210;  298,068; 7394,888;31,76270
 513,79; 2499,184;  304,542; 7274,481;31,48726
 514,38; 2448,008;  278,384; 7111,677;31,75078
 514,96; 2427,224;  328,691; 7037,290;31,28124
 515,54; 2371,746;  293,309; 6884,424;31,53393
 516,13; 2357,556;  316,540; 6833,644;31,31783
 516,71; 2293,465;  308,699; 6687,051;31,11722
 517,30; 2248,384;  285,396; 6596,440;31,10402
 517,88; 2230,385;  311,780; 6533,254;30,83843
 518,46; 2149,199;  281,167; 6366,725;30,69615
 519,05; 2120,224;  310,247; 6315,772;30,13852
 519,63; 2159,348;  301,630; 6284,195;31,05221
 520,22; 2107,037;  318,330; 6201,767;30,40242
 520,80; 2082,044;  306,715; 6200,647;30,12129
 521,38; 2070,914;  338,325; 6179,452;29,66190
 521,97; 2042,529;  302,334; 6099,770;30,01664
 522,55; 2040,196;  319,257; 6071,093;29,91983
 523,13; 2030,513;  281,260; 6101,751;30,05337
 523,72; 2007,739;  296,397; 6063,462;29,67439
 524,30; 2063,094;  310,955; 6224,858;29,62745
 524,89; 2036,151;  285,719; 6213,573;29,52893
 525,47; 2075,363;  315,803; 6325,757;29,27743
 526,05; 2070,028;  278,958; 6353,561;29,48456
 526,64; 2113,363;  316,421; 6509,940;29,01326
 527,22; 2148,860;  310,033; 6629,372;29,09840
 527,80; 2225,108;  341,652; 6780,615;29,25093
 528,39; 2193,596;  301,808; 6769,289;29,25076
 528,97; 2256,481;  299,345; 6970,083;29,33912
 529,55; 2311,453;  317,491; 7159,382;29,14344
 530,14; 2348,351;  338,810; 7344,514;28,68436
 530,72; 2362,361;  298,422; 7454,499;28,84176
 531,30; 2369,281;  278,888; 7545,394;28,76751
 531,89; 2411,725;  310,657; 7640,840;28,66325
 532,47; 2450,840;  338,274; 7729,848;28,58073
 533,05; 2450,382;  343,267; 7796,815;28,26996
 533,63; 2471,375;  332,891; 7857,868;28,41849
 534,22; 2454,939;  304,506; 7869,622;28,42565
 534,80; 2505,352;  328,588; 7970,261;28,48543
 535,38; 2577,774;  410,504; 8060,182;28,33152
 535,97; 2460,967;  323,198; 8016,588;27,78710
 536,55; 2519,290;  368,974; 8064,957;27,94076
 537,13; 2507,949;  373,810; 8034,684;27,85763
 537,71; 2536,327;  417,348; 8098,650;27,58619
 538,30; 2557,985;  430,431; 8181,139;27,44981
 538,88; 2593,646;  465,362; 8229,021;27,41342
 539,46; 2707,327;  506,050; 8422,968;27,80472
 540,05; 2694,857;  525,283; 8532,797;27,09422
 540,63; 2750,531;  571,745; 8710,352;26,77099
 541,21; 2794,565;  617,364; 8894,721;26,30310
 541,79; 2853,240;  626,210; 9006,166;26,57568
 542,38; 2915,465;  656,437; 9154,071;26,58421
 542,96; 2911,519;  673,291; 9277,109;26,01436
 543,54; 2989,490;  681,055; 9495,579;26,18899
 544,12; 3019,998;  650,903; 9687,525;26,21660
 544,70; 3008,851;  649,214; 9723,665;26,00308
 545,29; 3061,892;  661,052; 9906,533;25,96771
 545,87; 3053,086;  639,902; 9891,628;26,08361
 546,45; 3037,313;  584,052; 9943,577;26,21138
 547,03; 3053,698;  577,285; 9993,574;26,29925
 547,62; 3040,375;  551,441;10139,292;25,95925
 548,20; 3090,675;  553,444;10248,429;26,17055
 548,78; 3081,850;  521,916;10419,246;25,86489
 549,36; 3125,767;  482,684;10605,949;26,10900
 549,94; 3124,235;  446,673;10779,283;25,91370
 550,53; 3192,448;  442,298;10983,233;26,09018
 551,11; 3205,699;  426,534;11153,871;25,90732
 551,69; 3297,392;  445,376;11457,040;25,89995
 552,27; 3323,685;  393,296;11683,084;25,95610
 552,85; 3418,588;  399,918;12082,685;25,83866
 553,44; 3495,427;  399,145;12322,039;25,96921
 554,02; 3569,747;  410,224;12702,216;25,70391
 554,60; 3624,928;  360,611;12983,243;25,86082
 555,18; 3690,827;  398,377;13365,010;25,39172
 555,76; 3767,063;  365,609;13720,647;25,46945
 556,34; 3872,139;  378,230;14113,353;25,43777
 556,93; 3963,143;  370,454;14482,627;25,45808
 557,51; 4007,189;  350,077;14769,016;25,36326
 558,09; 4115,810;  382,300;15199,180;25,19768
 558,67; 4201,855;  375,465;15515,784;25,27285
 559,25; 4267,109;  390,386;15819,991;25,12522
 559,83; 4336,763;  365,467;16095,458;25,24665
 560,41; 4392,296;  368,768;16443,224;25,03057
 561,00; 4515,795;  367,234;16785,108;25,26857
 561,58; 4533,443;  344,767;17004,453;25,14258
 562,16; 4606,493;  347,534;17336,702;25,06868
 562,74; 4672,234;  347,378;17721,201;24,89294
 563,32; 4763,729;  347,775;18125,965;24,83917
 563,90; 4857,787;  361,234;18462,138;24,84159
 564,48; 4944,608;  365,305;18914,710;24,68706
 565,06; 5096,020;  365,772;19433,227;24,80797
 565,65; 5255,210;  363,088;20044,403;24,85668
 566,23; 5446,667;  410,542;20815,016;24,68147
 566,81; 5600,921;  353,232;21434,806;24,89230
 567,39; 5767,580;  363,315;22300,678;24,63498
 567,97; 5889,440;  385,694;22920,733;24,42306
 568,55; 6102,969;  388,621;23740,671;24,47043
 569,13; 6253,564;  364,696;24467,832;24,43196
 569,71; 6466,306;  359,610;25327,132;24,45856
 570,29; 6722,947;  396,608;26245,011;24,47478
 570,87; 6879,078;  396,840;26985,343;24,37985
 571,45; 6983,788;  377,926;27601,029;24,26565
 572,03; 7053,910;  343,239;27961,222;24,29819
 572,61; 7195,927;  334,236;28658,824;24,22521
 573,20; 7340,180;  385,616;29390,848;23,97693
 573,78; 7435,045;  367,006;29875,934;23,95221
 574,36; 7562,194;  373,312;30441,759;23,90839
 574,94; 7690,548;  435,086;30797,227;23,89641
 575,52; 7702,768;  378,016;31008,304;23,91343
 576,10; 7832,468;  432,859;31624,738;23,72287
 576,68; 7944,808;  417,700;32064,698;23,78459
 577,26; 8128,102;  439,173;32824,747;23,74183
 577,84; 8245,458;  435,082;33311,515;23,75676
 578,42; 8263,423;  473,857;33478,651;23,60132
 579,00; 8269,284;  436,775;33635,442;23,59284
 579,58; 8335,975;  469,932;33937,228;23,50367
 580,16; 8314,420;  456,089;33933,363;23,47363
 580,74; 8327,923;  449,474;34083,319;23,42417
 581,32; 8273,545;  440,779;34167,862;23,22396
 581,90; 8254,378;  464,781;34101,747;23,15785
 582,48; 8296,736;  455,012;34282,332;23,18163
 583,06; 8291,803;  455,856;34362,937;23,11006
 583,64; 8319,762;  454,471;34531,442;23,08096
 584,22; 8242,064;  456,171;34396,463;22,93997
 584,80; 8105,243;  481,857;34079,390;22,69031
 585,38; 7993,832;  479,538;33694,321;22,62334
 585,96; 8044,820;  448,161;33857,462;22,73816
 586,54; 7998,870;  469,478;33797,750;22,59161
 587,12; 8000,629;  449,398;34103,124;22,43802
 587,70; 8027,938;  476,238;34127,726;22,44091
 588,28; 7950,442;  458,244;34244,785;22,17510
 588,86; 7941,293;  462,169;34299,191;22,10337
 589,44; 7907,657;  442,022;34369,330;22,00480
 590,02; 7977,244;  447,020;34636,214;22,02516
 590,59; 7944,828;  429,477;34723,288;21,91460
 591,17; 7975,868;  426,029;35011,854;21,82929
 591,75; 7983,120;  422,101;35141,481;21,77752
 592,33; 8030,595;  444,407;35301,180;21,76389
 592,91; 8021,549;  385,181;35532,062;21,72701
 593,49; 8053,385;  390,569;35894,385;21,58308
 594,07; 8106,728;  415,030;36051,230;21,58394
 594,65; 8051,783;  419,478;36152,307;21,35936
 595,23; 8151,723;  409,558;36498,582;21,45296
 595,81; 8133,881;  407,252;36607,944;21,34387
 596,39; 8143,751;  398,945;36722,423;21,32176
 596,97; 8212,762;  397,027;36945,738;21,38444
 597,55; 8176,018;  380,480;36785,822;21,41317
 598,12; 8070,543;  392,801;36843,285;21,06348
 598,70; 8099,904;  377,413;36958,283;21,11074
 599,28; 8133,160;  393,182;37213,576;21,02090
 599,86; 8129,589;  380,797;37142,896;21,07821
 600,44; 8126,088;  347,645;37263,443;21,07077
 601,02; 8150,954;  410,961;37241,988;21,01487
 601,60; 8136,008;  387,409;37168,790;21,06663
 602,18; 8073,595;  361,493;37299,344;20,87859
 602,75; 8051,762;  359,559;37367,219;20,78544
 603,33; 8034,562;  377,951;37360,591;20,70325
 603,91; 8017,800;  361,573;37324,497;20,71326
 604,49; 8036,484;  386,490;37421,470;20,65613
 605,07; 7947,317;  387,870;37436,834;20,40393
 605,65; 7946,265;  397,030;37586,878;20,29918
 606,23; 7997,412;  457,246;37731,038;20,22914
 606,80; 7942,053;  498,175;37784,818;19,96393
 607,38; 7929,555;  531,418;37725,308;19,89073
 607,96; 7922,396;  575,328;37784,125;19,74551
 608,54; 7931,018;  649,646;37914,093;19,53973
 609,12; 7928,309;  630,406;37903,880;19,57935
 609,70; 7901,675;  660,566;38026,295;19,37901
 610,27; 7884,782;  682,020;38081,214;19,25914
 610,85; 7894,668;  702,489;38111,217;19,22594
 611,43; 7854,511;  688,720;38030,852;19,18956
 612,01; 7701,917;  662,254;37782,215;18,96463
 612,59; 7724,744;  667,258;37907,018;18,95148
 613,16; 7651,004;  620,863;37815,017;18,90120
 613,74; 7585,664;  589,336;37665,576;18,87011
 614,32; 7562,777;  559,569;37691,925;18,86012
 614,90; 7508,903;  529,102;37567,978;18,84453
 615,48; 7400,103;  482,018;37205,946;18,83809
 616,05; 7330,818;  448,093;37231,614;18,71144
 616,63; 7303,225;  445,630;37017,359;18,75108
 617,21; 7266,543;  452,174;36928,245;18,68175
 617,79; 7187,785;  431,945;36883,378;18,53381
 618,36; 7166,685;  443,332;36837,895;18,47351
 618,94; 7046,554;  381,250;36430,579;18,48940
 619,52; 7002,095;  405,554;36255,639;18,40035
 620,10; 6937,044;  391,944;36205,497;18,27548
 620,67; 6881,789;  395,630;36085,806;18,17351
 621,25; 6872,846;  413,794;35996,666;18,15214
 621,83; 6810,947;  393,481;35913,241;18,06731
 622,41; 6821,478;  443,096;35948,624;17,96448
 622,98; 6712,337;  398,553;35616,127;17,92793
 623,56; 6695,835;  406,860;35652,446;17,84330
 624,14; 6640,892;  388,334;35464,029;17,82590
 624,72; 6629,837;  383,634;35382,209;17,84702
 625,29; 6567,860;  375,091;35419,278;17,67132
 625,87; 6592,802;  404,484;35448,009;17,65895
 626,45; 6498,966;  358,474;35305,518;17,57085
 627,02; 6447,681;  376,638;35172,688;17,44751
 627,60; 6388,738;  365,953;35208,750;17,28560
 628,18; 6390,002;  336,406;35183,034;17,37211
 628,76; 6336,532;  343,630;35152,622;17,21653
 629,33; 6330,798;  377,787;35141,849;17,12404
 629,91; 6321,044;  360,329;35171,958;17,12277
 630,49; 6308,622;  375,401;35215,998;17,02962
 631,06; 6286,274;  374,785;35425,240;16,86566
 631,64; 6277,007;  362,321;35408,705;16,87674
 632,22; 6180,938;  332,395;35337,755;16,70756
 632,79; 6239,579;  357,395;35576,586;16,70164
 633,37; 6226,583;  343,793;35634,186;16,66967
 633,95; 6208,292;  348,089;35788,117;16,53555
 634,52; 6203,102;  335,557;35793,285;16,54800
 635,10; 6220,815;  331,174;35839,663;16,58657
 635,68; 6227,562;  337,703;36062,263;16,48686
 636,25; 6209,428;  323,237;35952,922;16,52047
 636,83; 6212,686;  314,784;36204,083;16,43359
 637,41; 6184,385;  339,240;36289,950;16,25878
 637,98; 6261,053;  345,009;36452,163;16,38469
 638,56; 6212,816;  340,005;36522,485;16,23109
 639,13; 6224,415;  318,860;36600,787;16,27685
 639,71; 6258,547;  363,554;36768,087;16,19302
 640,29; 6110,860;  288,554;36497,658;16,07968
 640,86; 6160,371;  312,093;36735,158;16,05652
 641,44; 6120,728;  313,478;36666,581;15,97457
 642,02; 6069,777;  344,939;36703,158;15,74565
 642,59; 6073,980;  316,555;36858,197;15,75579
 643,17; 6039,567;  318,863;36784,774;15,68781
 643,74; 5990,232;  307,786;36875,121;15,53968
 644,32; 5984,666;  335,248;36776,006;15,50302
 644,89; 5995,023;  329,633;36777,275;15,54391
 645,47; 5934,149;  340,479;36918,852;15,29229
 646,05; 5901,890;  337,787;36779,199;15,26863
 646,62; 5857,170;  322,326;36798,930;15,17368
 647,20; 5850,219;  333,403;36934,507;15,07281
 647,77; 5774,884;  306,018;36822,392;14,97647
 648,35; 5720,856;  310,711;36681,738;14,87487
 648,92; 5707,136;  327,557;36769,469;14,76206
 649,50; 5640,108;  287,327;36593,124;14,74360
 650,08; 5593,465;  298,173;36527,470;14,61605
 650,65; 5601,668;  301,481;36760,893;14,53722
 651,23; 5683,486;  294,789;37478,009;14,49228
 651,80; 5811,150;  282,097;38426,279;14,49514
 652,38; 5852,507;  297,943;38764,010;14,44017
 652,95; 5852,864;  282,251;39119,125;14,34362
 653,53; 5877,452;  318,021;39376,395;14,23365
 654,10; 5936,808;  339,328;39472,357;14,30372
 654,68; 5815,858;  289,021;39460,626;14,10929
 655,25; 5822,907;  285,867;39602,434;14,08322
 655,83; 5795,879;  284,637;39603,857;14,01666
 656,40; 5821,390;  318,252;39534,204;14,03290
 656,98; 5789,208;  288,714;39457,089;14,04320
 657,55; 5714,488;  299,253;39281,589;13,89151
 658,13; 5643,152;  294,407;39005,397;13,81712
 658,70; 5587,278;  310,869;38751,436;13,72615
 659,28; 5427,943;  314,253;37982,782;13,57550
 659,85; 5295,915;  305,254;37119,206;13,55644
 660,43; 5274,733;  321,177;37207,629;13,42920
 661,00; 5234,859;  304,100;37314,591;13,32260
 661,58; 5280,755;  300,639;37590,860;13,35502
 662,15; 5276,188;  281,024;37801,361;13,31322
 662,73; 5371,007;  346,409;38066,938;13,32059
 663,30; 5303,287;  300,409;38285,515;13,17063
 663,88; 5287,259;  315,178;38452,169;13,03742
 664,45; 5281,154;  290,717;38705,285;12,99100
 665,03; 5287,742;  296,333;38921,093;12,92282
 665,60; 5450,022;  372,563;39514,747;12,97183
 666,17; 5336,840;  304,718;39569,709;12,81580
 666,75; 5338,889;  301,564;39834,209;12,74219
 667,32; 5441,323;  321,718;40222,863;12,83072
 667,90; 5406,449;  297,872;40553,979;12,69019
 668,47; 5453,652;  316,257;40718,941;12,71548
 669,05; 5458,624;  299,719;41088,210;12,64794
 669,62; 5423,750;  274,565;41105,710;12,61093
 670,19; 5413,799;  287,411;41229,826;12,52097
 670,77; 5440,079;  293,719;41441,249;12,50709
 671,34; 5377,667;  301,258;41367,134;12,36162
 671,92; 5459,870;  281,643;41697,327;12,50306
 672,49; 5461,226;  309,643;41711,443;12,44290
 673,06; 5339,968;  256,643;41810,404;12,23313
 673,64; 5369,171;  287,720;41795,982;12,24202
 674,21; 5319,451;  279,721;41652,251;12,18134
 674,79; 5349,500;  305,567;41889,982;12,12938
 675,36; 5336,087;  307,106;42048,405;12,04798
 675,93; 5265,906;  269,798;41923,290;11,99445
 676,51; 5290,647;  296,337;42038,791;11,96458
 677,08; 5244,081;  300,029;42205,676;11,79806
 677,65; 5257,207;  300,876;42223,945;11,82244
 678,23; 5239,564;  299,722;42528,138;11,69791
 678,80; 5231,305;  287,261;42656,253;11,66902
 679,38; 5252,354;  284,030;42765,984;11,69514
 679,95; 5231,788;  303,184;42939,100;11,55975
 680,52; 5235,068;  285,338;43307,216;11,50515
 681,10; 5243,963;  299,338;43558,870;11,43014
 681,67; 5298,705;  298,493;43842,832;11,48304
 682,24; 5237,369;  268,570;43972,563;11,36921
 682,82; 5307,034;  280,108;44494,448;11,36945
 683,39; 5383,621;  326,186;44959,179;11,33116
 683,96; 5339,978;  289,032;45091,371;11,27384
 684,54; 5336,643;  276,109;45456,641;11,20070
 685,11; 5353,307;  309,340;45702,833;11,11165
 685,68; 5387,126;  286,186;46266,487;11,09375
 686,25; 5385,405;  269,033;46346,142;11,10394
 686,83; 5383,455;  281,187;46473,950;11,04560
 687,40; 5351,273;  273,418;46719,296;10,93284
 687,97; 5460,553;  297,110;47163,489;11,01737
 688,55; 5384,448;  260,264;47251,297;10,90460
 689,12; 5363,497;  244,188;47453,335;10,84389
 689,69; 5391,162;  250,342;47563,451;10,86553
 690,26; 5364,211;  267,880;47710,336;10,74213
 690,84; 5363,106;  276,958;47853,298;10,69050
 691,41; 5358,386;  288,496;48013,567;10,62312
 691,98; 5339,589;  295,189;48194,683;10,53122
 692,56; 5319,176;  278,881;48329,260;10,48961
 693,13; 5361,226;  328,728;48309,991;10,48846
 693,70; 5337,275;  300,574;48497,568;10,45024
 694,27; 5340,324;  272,728;48602,222;10,48551
 694,84; 5312,527;  274,344;48711,184;10,40155
 695,42; 5344,114;  331,728;48858,454;10,32912
 695,99; 5328,625;  292,190;49050,723;10,32934
 696,56; 5273,751;  285,575;48886,531;10,26353
 697,13; 5328,185;  302,960;49344,339;10,24691
 697,71; 5270,619;  269,806;49297,147;10,20005
 698,28; 5278,898;  279,345;49636,724;10,12929
 698,85; 5280,563;  255,422;49652,917;10,17287
 699,42; 5286,458;  259,884;49787,879;10,14896
 699,99; 5281,584;  299,115;49910,456;10,04301
 700,57; 5244,633;  294,269;50012,802; 9,95678
 701,14; 5262,990;  271,423;50102,610;10,01695
 701,71; 5268,732;  310,808;50372,803; 9,90357
 702,28; 5247,627;  286,193;50343,765; 9,91146
 702,85; 5232,830;  287,193;50442,034; 9,86074
 703,43; 5251,033;  305,116;50729,842; 9,80851
 704,00; 5272,390;  323,270;50879,650; 9,78931
 704,57; 5240,746;  295,193;50869,381; 9,77881
 705,14; 5247,026;  320,578;51078,189; 9,70583
 705,71; 5230,152;  325,348;51209,536; 9,63915
 706,28; 5173,971;  297,425;51085,036; 9,60184
 706,86; 5234,558;  334,810;51220,152; 9,62900
 707,43; 5200,146;  349,502;51187,113; 9,54145
 708,00; 5187,580;  322,272;51296,614; 9,54462
 708,57; 5132,167;  303,964;51216,191; 9,48339
 709,14; 5146,370;  323,118;51342,845; 9,45370
 709,71; 5095,573;  303,426;51511,961; 9,35810
 710,28; 5169,392;  294,888;51644,769; 9,49273
 710,86; 5123,364;  311,196;51785,884; 9,34861
 711,43; 5154,182;  324,196;51754,539; 9,39132
 712,00; 5144,770;  315,504;51848,654; 9,37118
 712,57; 5157,050;  311,350;52033,308; 9,36875
 713,14; 5133,253;  300,735;52068,655; 9,33497
 713,71; 5107,917;  311,428;52110,540; 9,25979
 714,28; 5086,735;  294,043;52009,194; 9,26748
 714,85; 5045,554;  282,428;51853,925; 9,23597
 715,42; 5086,911;  290,121;52085,887; 9,26097
 716,00; 5132,960;  358,659;52233,310; 9,20353
 716,57; 5069,932;  290,044;52298,579; 9,19058
 717,14; 5039,289;  278,967;52131,541; 9,18049
 717,71; 5040,184;  261,045;52118,965; 9,21583
 718,28; 5087,695;  308,429;52350,926; 9,18339
 718,85; 5007,513;  262,891;52374,504; 9,10473
 719,42; 5068,793;  289,661;52479,081; 9,15728
 719,99; 4994,688;  269,122;52273,735; 9,08682
 720,56; 5038,045;  299,353;52573,851; 9,06502
 721,13; 5022,863;  271,661;52641,043; 9,07248
 721,70; 5016,759;  261,969;52528,851; 9,09714
 722,27; 5014,269;  285,969;52482,890; 9,05858
 722,84; 5091,703;  332,354;52699,775; 9,08838
 723,41; 5016,752;  267,662;52779,891; 9,04378
 723,98; 5018,878;  282,970;52943,391; 8,99330
 724,55; 5071,389;  312,509;52994,814; 9,03317
 725,12; 4986,053;  239,124;52916,776; 9,01128
 725,69; 5040,872;  274,586;53109,584; 9,02108
 726,27; 5034,075;  278,586;53314,700; 8,96651
 726,84; 5067,585;  291,817;53571,892; 8,96352
 727,41; 5072,096;  292,048;53460,008; 8,99047
 727,98; 5077,607;  301,202;53736,508; 8,93867
 728,55; 5095,963;  322,202;53596,470; 8,96073
 729,12; 5101,089;  271,664;53726,816; 9,03454
 729,69; 5116,677;  304,741;53872,086; 8,98296
 730,26; 5115,418;  303,665;54140,048; 8,93774
 730,82; 5073,083;  291,203;54027,163; 8,89884
 731,39; 5084,824;  297,204;54132,971; 8,89301
 731,96; 5126,489;  271,434;54460,395; 8,95949
 732,53; 5175,692;  293,204;54703,357; 8,97349
 733,10; 5156,049;  303,281;54686,011; 8,92336
 733,67; 5183,175;  296,358;54987,973; 8,93522
 734,24; 5123,685;  282,743;54595,704; 8,91305
 734,81; 5154,042;  323,897;54758,819; 8,87325
 735,38; 5148,861;  284,436;54541,550; 8,96551
 735,95; 5168,679;  291,282;54325,974; 9,02642
 736,52; 5130,113;  307,975;54542,320; 8,89130
 737,09; 5113,546;  300,052;54205,128; 8,92958
 737,66; 5215,519;  338,283;54294,628; 9,03923
 738,23; 5177,183;  283,206;54435,282; 9,03747
 738,80; 5217,001;  347,206;54783,244; 8,94590
 739,37; 5217,743;  307,360;54988,283; 8,98007
 739,94; 5216,561;  291,361;54960,783; 9,00906
 740,51; 5304,918;  398,822;54989,976; 8,98698
 741,07; 5219,198;  287,669;55001,784; 9,01327
 741,64; 5290,478;  305,361;55283,207; 9,06750
 742,21; 5278,296;  287,438;55298,861; 9,07240
 742,78; 5238,730;  265,515;55003,439; 9,08550
 743,35; 5293,625;  296,054;55360,631; 9,07584
 743,92; 5298,597;  321,439;55485,901; 9,02240
 744,49; 5328,493;  315,978;55347,324; 9,10847
 745,06; 5237,157;  283,747;55364,517; 8,99299
 745,63; 5266,283;  276,132;55307,940; 9,06776
 746,19; 5290,102;  284,978;55291,671; 9,09912
 746,76; 5274,535;  295,440;55333,787; 9,04659
 747,33; 5299,661;  284,671;55331,287; 9,11044
 747,90; 5356,941;  304,287;55570,172; 9,14245
 748,47; 5334,144;  292,595;55467,287; 9,13743
 749,04; 5343,424;  314,133;55417,095; 9,12708
 749,61; 5386,858;  324,903;55368,827; 9,19621
 750,17; 5395,368;  311,672;55477,865; 9,21524
 750,74; 5382,879;  301,749;55411,981; 9,21994
 751,31; 5344,082;  267,826;55307,404; 9,22292
 751,88; 5352,747;  266,980;55142,289; 9,26786
 752,45; 5416,719;  287,750;55391,174; 9,30790
 753,02; 5371,768;  298,442;55082,674; 9,26056
 753,58; 5379,202;  276,981;55049,098; 9,31536
 754,15; 5414,943;  283,751;55229,829; 9,33860
 754,72; 5374,761;  282,828;54954,406; 9,31368
 755,29; 5392,811;  267,597;54789,445; 9,40029
 755,86; 5386,629;  284,597;54987,330; 9,32683
 756,42; 5472,755;  286,828;54919,830; 9,49230
 756,99; 5415,650;  251,136;54833,253; 9,46192
 757,56; 5448,392;  270,060;54787,677; 9,49846
 758,13; 5398,441;  211,367;54778,869; 9,50579
 758,70; 5481,336;  238,598;54822,677; 9,60488
 759,26; 5482,539;  228,060;54837,562; 9,62191
 759,83; 5545,819;  239,060;54939,293; 9,70153
 760,40; 5500,868;  226,753;54823,793; 9,66008
 760,97; 5497,379;  217,830;54841,678; 9,66528
 761,53; 5491,735;  200,446;54453,948; 9,75290
 762,10; 5495,785;  212,984;54440,756; 9,74187
 762,67; 5518,218;  244,523;54427,102; 9,73319
 763,24; 5464,960;  202,292;54032,295; 9,77646
 763,80; 5541,086;  238,677;54121,334; 9,84066
 764,37; 5541,750;  240,139;54150,218; 9,83417
 764,94; 5490,876;  216,524;53655,411; 9,86988
 765,50; 5504,310;  229,447;53698,681; 9,86523
 766,07; 5587,590;  273,909;53765,258; 9,93372
 766,64; 5527,716;  237,909;53484,912; 9,93447
 767,21; 5547,304;  249,525;53336,874; 9,97936
 767,77; 5583,045;  272,371;53316,989;10,01171
 768,34; 5571,325;  278,294;53213,182; 9,99913
 768,91; 5584,759;  270,371;53061,836;10,06675
 769,47; 5585,808;  263,449;53144,952;10,06469
 770,04; 5591,549;  273,680;52968,529;10,09182
 770,61; 5582,444;  255,988;52776,106;10,14175
 771,18; 5614,340;  248,142;52584,299;10,25333
 771,74; 5645,620;  271,449;52771,953;10,23642
 772,31; 5636,130;  262,527;52573,530;10,27242
 772,88; 5609,564;  234,988;52332,800;10,31632
 773,44; 5582,767;  253,066;52111,300;10,27744
 774,01; 5636,508;  270,373;52206,262;10,33223
 774,58; 5629,404;  249,527;51799,300;10,43628
 775,14; 5659,068;  247,220;51982,955;10,46056
 775,71; 5653,810;  249,605;51886,147;10,46585
 776,27; 5724,090;  309,605;51837,878;10,50779
 776,84; 5790,062;  331,990;51829,917;10,59862
 777,41; 5755,880;  277,836;51661,109;10,66114
 777,97; 5749,237;  251,606;51326,225;10,76392
 778,54; 5750,824;  273,991;51381,572;10,71628
 779,11; 5745,258;  286,837;51416,610;10,67562
 779,67; 5755,461;  251,376;51394,803;10,76206
 780,24; 5775,972;  269,453;51262,457;10,79858
 780,80; 5832,483;  285,068;51128,957;10,91068
 781,37; 5824,070;  275,684;51131,765;10,90998
 781,94; 5808,658;  254,684;50875,035;10,97182
 782,50; 5843,861;  269,607;50789,920;11,03369
 783,07; 5861,525;  292,454;50872,805;11,01035
 783,63; 5886,882;  257,685;50595,997;11,18273
 784,20; 5856,316;  279,685;50630,651;11,07552
 784,77; 5887,057;  267,685;50313,844;11,22838
 785,33; 5866,645;  241,993;50191,806;11,26061
 785,90; 5913,848;  267,686;50231,998;11,30039
 786,46; 5887,435;  278,840;50231,191;11,22789
 787,03; 5935,561;  248,763;49988,460;11,43312
 787,59; 5915,764;  260,840;49854,807;11,40244
 788,16; 5926,352;  281,610;49774,076;11,40526
 788,73; 5963,939;  269,533;49591,192;11,54545
 789,29; 5937,219;  263,302;49230,615;11,58715
 789,86; 5963,115;  282,918;49188,731;11,61456
 790,42; 5956,394;  270,380;49006,693;11,66690
 790,99; 5954,213;  279,611;48804,424;11,69423
 791,55; 5975,185;  258,611;48747,001;11,78957
 792,12; 6010,850;  286,457;48744,194;11,81316
 792,68; 6017,822;  266,611;48385,386;11,95211
 793,25; 5969,332;  275,227;48188,348;11,88423
 793,81; 6011,535;  330,227;47839,233;11,95838
 794,38; 5926,892;  239,458;47655,426;11,99477
 794,94; 5945,326;  249,997;47471,003;12,06101
 795,51; 5981,298;  282,074;47346,272;12,10947
 796,07; 5951,501;  257,536;47077,696;12,16135
 796,64; 6050,550;  295,997;47173,273;12,27578
 797,20; 6030,753;  280,075;46664,312;12,39792
 797,77; 5965,956;  235,921;46331,043;12,43089
 798,33; 6004,082;  269,767;46193,928;12,48649
 798,90; 6033,439;  287,537;46098,505;12,54263
 799,46; 5992,488;  270,229;45575,928;12,63033
 800,03; 6008,306;  273,383;45513,275;12,67670
 800,59; 6000,894;  285,768;45370,390;12,67644
 801,15; 6030,251;  288,230;45134,198;12,80387
 801,72; 5973,069;  270,845;44878,006;12,78320
 802,28; 6029,657;  294,615;44557,122;12,95688
 802,85; 6003,244;  274,307;44399,930;12,98324
 803,41; 5997,370;  263,000;44169,892;13,06030
 803,98; 5976,035;  261,616;43746,777;13,14108
 804,54; 5984,315;  270,154;43444,738;13,23501
 805,11; 6012,441;  287,539;43330,623;13,30040
 805,67; 6044,105;  308,078;43278,200;13,34887
 806,23; 5995,462;  266,001;42761,085;13,48264
 806,80; 6004,665;  288,617;42695,124;13,47918
 807,36; 6038,407;  287,463;42689,394;13,56293
 807,93; 6032,225;  300,848;42473,740;13,59019
 808,49; 5998,812;  249,386;42084,317;13,74312
 809,05; 5980,246;  251,156;41995,356;13,72428
 809,62; 5990,988;  289,002;41842,933;13,72189
 810,18; 5995,421;  281,541;41730,818;13,78524
 810,74; 5978,547;  245,849;41519,780;13,88939
 811,31; 5962,058;  250,618;41268,511;13,92426
 811,87; 5982,107;  259,157;41163,627;13,99101
 812,44; 6054,002;  294,926;41136,204;14,10112
 813,00; 5951,590;  220,004;40883,166;14,09528
 813,56; 6051,639;  274,696;40935,204;14,20775
 814,13; 6096,534;  259,850;40745,474;14,41668
 814,69; 6081,045;  253,235;40594,666;14,44622
 815,25; 6013,633;  236,928;40200,705;14,45485
 815,82; 6066,836;  280,697;40209,436;14,49116
 816,38; 6109,269;  300,005;40000,552;14,63271
 816,94; 6065,549;  251,928;39694,129;14,73960
 817,51; 6038,829;  238,928;39506,322;14,77027
 818,07; 6056,032;  245,775;39250,976;14,89611
 818,63; 6015,158;  273,006;39023,861;14,81813
 819,20; 6011,823;  259,006;38979,823;14,85717
 819,76; 6000,256;  242,391;38565,092;15,02469
 820,32; 6053,998;  295,853;38508,823;15,06856
 820,89; 5986,047;  276,237;38269,323;15,02855
 821,45; 5999,173;  245,930;37985,747;15,24449
 822,01; 6030,914;  270,084;37748,939;15,37088
 822,57; 6021,425;  262,853;37571,747;15,43485
 823,14; 5962,397;  237,854;37367,786;15,41760
 823,70; 5972,754;  235,854;37118,902;15,55430
 824,26; 5953,803;  249,085;36961,325;15,53901
 824,82; 6027,391;  268,854;36806,748;15,76045
 825,39; 5946,286;  246,854;36566,787;15,69230
 825,95; 5990,028;  264,239;36537,211;15,78528
 826,51; 5989,231;  262,547;36125,634;15,96818
 827,08; 6014,357;  306,240;36207,211;15,89962
 827,64; 5995,560;  270,317;36035,481;16,00787
 828,20; 5969,455;  246,471;35772,519;16,10926
 828,76; 6061,427;  269,625;35703,635;16,34532
 829,32; 6018,399;  276,317;35643,289;16,23572
 829,89; 5995,294;  231,241;35524,712;16,33178
 830,45; 6054,728;  258,010;35444,982;16,47405
 831,01; 6063,931;  252,703;35229,790;16,61439
 831,57; 6059,673;  254,011;35069,983;16,67528
 832,14; 6079,568;  246,703;35026,252;16,77096
 832,70; 6111,771;  243,088;34855,522;16,95542
 833,26; 6058,589;  214,704;34669,560;16,96099
 833,82; 6084,254;  252,242;34709,291;16,92545
 834,38; 6149,072;  247,089;34666,407;17,14730
 834,95; 6116,044;  241,473;34489,753;17,15289
 835,51; 6115,016;  209,243;34402,561;17,27172
 836,07; 6225,066;  253,705;34454,908;17,45951
 836,63; 6226,730;  264,013;34434,485;17,44991
 837,19; 6207,548;  247,859;34274,139;17,51496
 837,75; 6131,059;  219,551;33980,563;17,50987
 838,32; 6241,647;  260,167;34076,371;17,68821
 838,88; 6239,465;  262,090;34127,948;17,65015
 839,44; 6263,283;  255,783;34055,756;17,77368
 840,00; 6286,794;  252,014;33936,179;17,91578
 840,56; 6259,074;  239,860;33756,295;17,95899
 841,12; 6267,661;  235,476;33652,410;18,05128
 841,68; 6223,634;  226,091;33490,526;18,02989
 842,25; 6289,144;  231,322;33469,488;18,22550
 842,81; 6258,193;  231,246;33316,142;18,21661
 843,37; 6289,089;  214,938;33260,950;18,38089
 843,93; 6309,522;  237,938;33145,219;18,45058
 844,49; 6356,802;  247,400;33174,566;18,55429
 845,05; 6337,544;  210,170;33065,912;18,64932
 845,61; 6380,208;  248,170;33106,643;18,66197
 846,17; 6378,027;  235,785;32907,298;18,79999
 846,73; 6393,614;  241,940;32803,721;18,89232
 847,29; 6364,125;  217,324;32683,913;18,93270
 847,86; 6390,559;  235,248;32657,260;18,98498
 848,42; 6388,608;  221,017;32423,376;19,15261
 848,98; 6407,965;  249,402;32411,414;19,14856
 849,54; 6434,783;  232,864;32420,376;19,26809
 850,10; 6479,524;  239,172;32242,261;19,49922
 850,66; 6423,727;  223,326;32169,223;19,40907
 851,22; 6415,853;  216,018;32044,492;19,47890
 851,78; 6506,826;  262,172;32190,300;19,55847
 852,34; 6500,721;  247,480;31902,878;19,75411
 852,90; 6543,847;  239,711;31744,301;20,01021
 853,46; 6471,281;  221,327;31626,878;19,90079
 854,02; 6544,253;  241,096;31540,686;20,13814
 854,58; 6449,687;  237,558;31283,648;20,00938
 855,14; 6438,043;  227,712;31230,148;20,03175
 855,70; 6454,400;  199,404;31072,802;20,26015
 856,26; 6469,680;  247,482;30999,610;20,23339
 856,82; 6449,498;  223,174;30911,803;20,28870
 857,38; 6489,701;  260,405;30765,842;20,42028
 857,94; 6490,289;  225,559;30693,342;20,56182
 858,50; 6506,415;  250,790;30567,073;20,63454
 859,06; 6471,003;  231,560;30390,266;20,68870
 859,62; 6529,975;  239,868;30330,612;20,90379
 860,18; 6480,024;  229,406;30161,112;20,88293
 860,74; 6469,611;  209,945;29971,689;21,03259
 861,30; 6482,199;  208,791;29742,882;21,24124
 861,86; 6541,864;  270,638;29919,075;21,15196
 862,42; 6496,913;  237,946;29764,806;21,19754
 862,98; 6571,500;  266,176;29637,075;21,46793
 863,54; 6539,626;  236,946;29389,960;21,61931
 864,10; 6588,368;  220,638;29537,691;21,72022
 864,66; 6487,955;  213,639;29320,191;21,55637
 865,22; 6527,312;  229,485;29208,769;21,73217
 865,78; 6499,823;  242,639;29062,269;21,71153
 866,34; 6573,410;  221,255;28983,154;22,08531
 866,90; 6566,690;  246,716;28842,346;22,10119
 867,45; 6547,970;  234,024;28601,462;22,25772
 868,01; 6540,481;  240,717;28463,808;22,32131
 868,57; 6568,068;  228,640;28331,924;22,55761
 869,13; 6494,810;  212,025;28131,732;22,50305
 869,69; 6554,090;  229,871;28104,463;22,68811
 870,25; 6514,523;  212,025;28013,425;22,66971
 870,81; 6571,188;  233,103;27915,694;22,89556
 871,37; 6584,083;  241,103;27851,426;22,97322
 871,93; 6504,363;  241,334;27679,310;22,82613
 872,49; 6547,720;  262,719;27451,272;23,11635
 873,04; 6508,461;  217,411;27275,849;23,24986
 873,60; 6520,280;  217,181;27180,965;23,37617
 874,16; 6552,713;  238,719;27138,312;23,47245
 874,72; 6556,329;  230,104;27081,927;23,55976
 875,28; 6565,098;  240,258;26971,773;23,66061
 875,84; 6579,560;  230,258;26915,388;23,79341
 876,40; 6601,252;  222,027;26777,388;24,02236
 876,95; 6607,021;  237,104;26837,004;23,94715
 877,51; 6615,329;  264,181;26826,235;23,91061
 878,07; 6667,252;  270,719;26808,004;24,10395
 878,63; 6657,560;  226,335;26831,004;24,17329
 879,19; 6712,406;  242,873;26770,696;24,38773
 879,75; 6743,790;  233,488;26885,388;24,42716
 880,30; 6795,021;  235,258;26834,388;24,66157
 880,86; 6839,944;  274,335;27011,312;24,55629
 881,42; 6846,329;  217,181;26987,696;24,76287
 881,98; 6918,944;  251,104;27128,850;24,80803
 882,54; 6982,560;  229,796;27205,542;25,03272
 883,09; 7019,713;  240,104;27280,927;25,07176
 883,65; 7068,406;  221,027;27450,235;25,14718
 884,21; 7170,406;  258,642;27607,927;25,27219
 884,77; 7194,944;  217,412;27540,696;25,53695
 885,32; 7275,098;  232,104;27752,158;25,59223
 885,88; 7310,329;  269,642;27948,927;25,43666
 886,44; 7358,483;  234,258;28056,773;25,60597
 887,00; 7413,252;  260,796;28002,388;25,78243
 887,56; 7497,175;  226,873;28174,927;26,01363
 888,11; 7468,944;  234,565;28173,465;25,89357
 888,67; 7606,867;  261,258;28362,927;26,13941
 889,23; 7572,790;  247,104;28360,696;26,05745
 889,79; 7578,790;  219,873;28214,927;26,28649
 890,34; 7635,021;  241,565;28168,235;26,47453
 890,90; 7743,406;  303,642;28337,619;26,53838
 891,46; 7681,175;  222,335;28240,235;26,62170
 892,01; 7724,637;  253,950;28197,927;26,73451
 892,57; 7718,021;  271,027;28211,465;26,65310
 893,13; 7704,867;  224,335;27922,235;27,00758
 893,69; 7710,175;  227,642;27872,081;27,06705
 894,24; 7668,329;  245,027;27818,542;26,92186
 894,80; 7713,175;  248,181;27712,004;27,18119
 895,36; 7701,944;  239,642;27574,235;27,29985
 895,91; 7685,867;  226,950;27331,773;27,51878
 896,47; 7707,329;  252,335;27288,619;27,57403
 897,03; 7650,406;  230,488;27012,158;27,70521
 897,58; 7691,252;  254,719;27080,619;27,72147
 898,14; 7650,021;  246,796;26719,235;27,96578
 898,70; 7583,483;  204,950;26620,312;27,93273
 899,25; 7650,560;  242,181;26628,465;28,07663
 899,81; 7664,021;  248,104;26450,696;28,30223
 900,37; 7558,406;  208,258;26203,696;28,27476
 900,92; 7629,406;  239,642;26209,081;28,45562
 901,48; 7577,406;  225,412;26078,465;28,43762
 902,03; 7558,252;  212,335;25948,773;28,54287
 902,59; 7590,406;  229,950;25837,081;28,74377
 903,15; 7580,560;  256,488;25704,542;28,78048
 903,70; 7487,560;  245,027;25477,081;28,70370
 904,26; 7499,560;  223,873;25315,773;28,99616
 904,82; 7472,406;  242,873;25352,542;28,79183
 905,37; 7452,252;  246,719;25189,619;28,88811
 905,93; 7475,483;  228,719;25007,312;29,24607
 906,48; 7487,483;  243,796;25006,850;29,25199
 907,04; 7468,867;  253,335;24911,388;29,26238
 907,60; 7447,406;  237,950;24700,542;29,47135
 908,15; 7408,867;  230,027;24588,696;29,47140
 908,71; 7481,175;  257,027;24614,081;29,65937
 909,26; 7424,252;  228,181;24422,619;29,74267
 909,82; 7417,944;  257,412;24211,388;29,89288
 910,37; 7442,790;  277,027;24242,081;29,90089
 910,93; 7344,713;  226,104;24083,312;29,83840
 911,48; 7305,867;  220,181;23858,388;29,97557
 912,04; 7359,021;  236,796;23776,312;30,25646
 912,60; 7371,637;  243,258;23848,235;30,19863
 913,15; 7312,944;  239,873;23565,619;30,32302
 913,71; 7292,252;  219,873;23403,696;30,50566
 914,26; 7285,175;  215,104;23348,850;30,56172
 914,82; 7271,098;  236,412;23261,312;30,55252
 915,37; 7243,713;  223,642;23194,927;30,56020
 915,93; 7307,713;  272,642;23073,158;30,85488
 916,48; 7196,329;  225,719;22937,081;30,69217
 917,04; 7238,406;  247,104;22802,696;30,99587
 917,59; 7229,560;  263,181;22762,158;30,96309
 918,15; 7119,406;  196,488;22562,388;30,95300
 918,70; 7122,098;  220,873;22468,696;31,01978
 919,26; 7105,175;  231,950;22437,081;30,95332
 919,81; 7078,790;  220,719;22235,312;31,15239
 920,37; 7110,098;  228,642;22167,158;31,36701
 920,92; 7079,021;  246,873;22137,081;31,21098
 921,48; 7056,021;  214,488;21839,081;31,63774
 922,03; 7022,252;  225,950;21859,081;31,41617
 922,59; 7004,175;  225,796;21713,158;31,54589
 923,14; 6973,790;  224,796;21644,312;31,50862
 923,69; 7038,483;  250,565;21559,388;31,85496
 924,25; 7068,944;  238,027;21438,619;32,22041
 924,80; 6992,713;  233,719;21291,312;32,09766
 925,36; 6994,560;  226,104;21189,312;32,28731
 925,91; 6995,021;  211,181;21066,542;32,52804
 926,47; 6970,560;  208,565;20966,081;32,57613
 927,02; 7056,406;  280,335;20992,235;32,71584
 927,57; 7040,944;  225,104;20790,696;33,14196
 928,13; 7001,406;  213,796;20660,388;33,19678
 928,68; 7024,098;  225,258;20638,312;33,30634
 929,24; 6981,560;  199,719;20421,388;33,53749
 929,79; 6952,406;  206,335;20327,235;33,52768
 930,34; 6958,560;  226,873;20180,465;33,73671
 930,90; 6929,637;  212,027;20141,465;33,70697
 931,45; 6965,098;  229,027;20157,927;33,80052
 932,01; 6950,713;  225,873;20021,465;33,97140
 932,56; 6940,713;  249,719;19868,388;34,10524
 933,11; 6977,175;  253,488;19857,927;34,29676
 933,67; 6909,329;  220,488;19695,388;34,34595
 934,22; 6883,944;  236,181;19596,312;34,33739
 934,77; 6857,098;  257,950;19538,158;34,22758
 935,33; 6815,560;  227,796;19370,850;34,41334
 935,88; 6798,790;  228,258;19341,158;34,37748
 936,43; 6821,637;  228,642;19217,235;34,72082
 936,99; 6800,867;  232,719;19116,927;34,78117
 937,54; 6736,637;  210,719;18954,773;34,81593
 938,09; 6790,944;  227,412;18975,388;35,00929
 938,65; 6783,944;  220,950;18836,850;35,25478
 939,20; 6735,329;  204,335;18707,773;35,29611
 939,75; 6707,713;  211,565;18689,619;35,15602
 940,31; 6750,175;  210,412;18486,850;35,78248
 940,86; 6738,406;  225,027;18508,004;35,62537
 941,41; 6793,021;  290,565;18399,542;35,90736
 941,96; 6698,329;  219,258;18250,619;35,93223
 942,52; 6686,560;  216,027;18174,235;36,03106
 943,07; 6682,944;  197,488;18061,696;36,30419
 943,62; 6692,944;  217,719;17999,081;36,41580
 944,18; 6644,867;  195,565;17954,158;36,31652
 944,73; 6685,944;  233,027;17856,388;36,61570
 945,28; 6617,560;  191,027;17627,927;36,85594
 945,83; 6609,637;  217,642;17686,773;36,59022
 946,39; 6623,021;  223,335;17662,004;36,69825
 946,94; 6627,406;  245,335;17545,542;36,89014
 947,49; 6581,560;  219,565;17453,696;36,91509
 948,04; 6645,406;  253,719;17367,542;37,34809
 948,59; 6588,483;  244,950;17351,773;37,08189
 949,15; 6536,175;  202,719;17219,850;37,21812
 949,70; 6494,098;  218,104;17085,235;37,20843
 950,25; 6506,483;  237,181;17045,158;37,29956
 950,80; 6479,944;  196,027;16909,081;37,59886
 951,36; 6435,713;  197,873;16863,235;37,42997
 951,91; 6507,175;  230,565;16832,927;37,80552
 952,46; 6380,483;  199,719;16575,158;37,74411
 953,01; 6433,944;  242,950;16650,619;37,73232
 953,56; 6377,098;  195,104;16489,542;37,93929
 954,11; 6373,329;  233,565;16458,312;37,84197
 954,67; 6360,406;  219,719;16418,312;37,90877
 955,22; 6325,867;  207,181;16251,773;38,13551
 955,77; 6407,944;  242,412;16265,004;38,48024
 956,32; 6308,252;  275,181;16178,927;37,93491
 956,87; 6245,098;  206,565;15991,235;38,25568
 957,42; 6293,483;  211,258;15955,850;38,63057
 957,98; 6228,252;  214,335;15911,465;38,31221
 958,53; 6250,406;  238,412;15814,004;38,59882
 959,08; 6203,944;  201,796;15706,619;38,71149
 959,63; 6197,713;  206,796;15611,312;38,89066
 960,18; 6262,637;  229,873;15587,312;39,28235
 960,73; 6225,021;  226,796;15466,158;39,36008
 961,28; 6179,790;  199,873;15403,312;39,33266
 961,83; 6196,021;  238,181;15367,619;39,37912
 962,39; 6152,252;  204,642;15236,542;39,56659
 962,94; 6140,329;  228,181;15135,158;39,66028
 963,49; 6116,483;  223,565;15083,158;39,65733
 964,04; 6159,406;  235,642;15060,927;39,95717
 964,59; 6102,483;  190,873;14878,773;40,24816
 965,14; 6148,175;  237,950;14853,158;40,43887
 965,69; 6129,406;  226,181;14738,388;40,67765
 966,24; 6061,867;  216,104;14616,465;40,59456
 966,79; 6052,713;  233,488;14561,158;40,61529
 967,34; 6005,790;  193,104;14409,696;40,88664
 967,89; 6011,483;  206,027;14404,312;40,88843
 968,44; 6002,252;  216,027;14305,773;41,06692
 968,99; 5993,175;  221,950;14292,465;41,01644
 969,55; 5991,021;  222,027;14166,619;41,37083
 970,10; 5937,790;  226,488;14098,312;41,17196
 970,65; 5902,329;  246,873;14004,696;41,10720
 971,20; 5873,790;  214,181;13909,773;41,32431
 971,75; 5790,021;  197,796;13668,542;41,51385
 972,30; 5825,252;  223,104;13699,081;41,57137
 972,85; 5769,483;  212,181;13631,004;41,41423
 973,40; 5733,560;  206,258;13559,158;41,39402
 973,95; 5749,637;  222,719;13453,312;41,77377
 974,50; 5747,944;  246,565;13406,773;41,80313
 975,05; 5679,098;  227,335;13275,619;41,78146
 975,60; 5639,637;  233,642;13192,388;41,71695
 976,15; 5611,560;  213,719;13086,158;41,93332
 976,70; 5568,406;  225,719;13024,312;41,74433
 977,25; 5571,175;  228,950;12980,388;41,89508
 977,80; 5496,560;  205,104;12853,542;41,83485
 978,35; 5433,637;  228,565;12647,773;41,91146
 978,89; 5399,560;  198,719;12588,388;41,97723
 979,44; 5439,560;  228,873;12625,081;42,03452
 979,99; 5390,944;  209,873;12401,619;42,49655
 980,54; 5362,713;  243,412;12386,850;42,15694
 981,09; 5342,406;  239,258;12232,388;42,55059
 981,64; 5287,175;  234,873;12097,773;42,58910
 982,19; 5311,637;  261,027;12125,081;42,57069
 982,74; 5266,483;  245,027;11893,081;43,10983
 983,29; 5188,560;  213,950;11764,619;43,06772
 983,84; 5230,790;  235,258;11668,773;43,69201
 984,39; 5247,329;  303,104;11711,542;43,33832
 984,94; 5118,713;  203,027;11481,619;43,58422
 985,49; 5155,021;  250,873;11470,542;43,71027
 986,03; 5124,021;  250,488;11413,235;43,65890
 986,58; 5105,021;  276,027;11242,619;44,03368
 987,13; 5034,713;  237,027;11119,465;44,08650
 987,68; 4985,021;  235,335;11045,773;43,93611
 988,23; 4981,560;  237,258;10984,850;44,14293
 988,78; 4952,637;  223,873;10863,235;44,44593
 989,33; 4915,175;  241,873;10732,696;44,54657
 989,88; 4886,329;  249,642;10721,619;44,27709
 990,42; 4833,637;  232,642;10586,158;44,43896
 990,97; 4776,483;  224,950;10463,004;44,45701
 991,52; 4779,098;  253,719;10376,850;44,70335
 992,07; 4743,560;  255,873;10301,927;44,67114
 992,62; 4706,637;  239,873;10217,773;44,76657
 993,17; 4662,790;  238,181;10072,004;44,99379
 993,71; 4625,560;  248,950; 9954,235;45,09512
 994,26; 4529,483;  222,181; 9825,850;44,85059
 994,81; 4559,252;  250,181; 9767,850;45,27444
 995,36; 4484,098;  226,719; 9628,773;45,28137
 995,91; 4429,098;  235,258; 9593,004;44,81678
 996,45; 4411,406;  236,335; 9483,619;45,14916
 997,00; 4328,560;  207,950; 9335,850;45,14302
 997,55; 4312,175;  233,873; 9334,927;44,81132
 998,10; 4276,944;  265,488; 9163,773;45,08123
 998,65; 4244,867;  231,412; 9172,465;44,88795
 999,19; 4209,790;  252,104; 9013,158;45,17364
 999,74; 4167,406;  276,181; 8985,542;44,67865
1000,29; 4132,944;  246,719; 8828,773;45,28316
1000,84; 4065,713;  223,104; 8741,696;45,10850
1001,38; 4059,790;  237,412; 8648,388;45,44512
1001,93; 4051,483;  248,181; 8601,158;45,53229
1002,48; 3977,867;  221,950; 8410,542;45,86768
1003,03; 3968,637;  238,565; 8394,696;45,73334
1003,57; 3966,252;  249,719; 8249,158;46,45992
1004,12; 3947,560;  272,412; 8205,235;46,32838
1004,67; 3844,406;  226,719; 8094,235;45,98258
1005,22; 3780,098;  217,796; 7967,081;45,96943
1005,76; 3754,406;  217,335; 7848,235;46,35195
1006,31; 3767,406;  247,642; 7815,850;46,50723
1006,86; 3695,790;  222,104; 7678,850;46,58448
1007,40; 3660,790;  210,950; 7571,850;46,86710
1007,95; 3635,252;  236,873; 7480,158;46,91765
1008,50; 3615,944;  231,642; 7337,388;47,62768
1009,04; 3550,406;  219,950; 7249,004;47,38128
1009,59; 3505,021;  240,412; 7142,312;47,30016
1010,14; 3462,252;  216,335; 7033,312;47,61520
1010,68; 3437,944;  229,565; 6973,773;47,57236
1011,23; 3356,944;  224,950; 6797,542;47,65234
1011,78; 3374,252;  234,181; 6780,465;47,96723
1012,32; 3344,021;  247,565; 6639,465;48,44343
1012,87; 3358,790;  253,412; 6621,081;48,76790
1013,42; 3260,021;  218,258; 6484,004;48,54591
1013,96; 3298,944;  258,488; 6507,081;48,65825
1014,51; 3230,252;  198,335; 6424,619;48,69545
1015,06; 3243,252;  204,335; 6429,158;48,81934
1015,60; 3301,483;  268,565; 6443,619;49,11564
1016,15; 3261,021;  224,104; 6407,542;49,11373
1016,69; 3312,483;  233,950; 6431,158;49,67613
1017,24; 3266,098;  205,258; 6454,927;48,97604
1017,79; 3340,175;  251,796; 6551,081;49,02745
1018,33; 3335,252;  218,412; 6526,158;49,41290
1018,88; 3376,867;  242,258; 6598,927;49,31214
1019,42; 3392,021;  229,412; 6609,388;49,57086
1019,97; 3391,637;  209,642; 6586,388;49,89997
1020,51; 3419,944;  243,335; 6614,927;49,85582
1021,06; 3431,252;  199,258; 6623,081;50,31263
1021,61; 3408,021;  204,258; 6566,081;50,35920
1022,15; 3409,175;  180,027; 6530,927;50,84552
1022,70; 3410,252;  223,873; 6544,388;50,41328
1023,24; 3378,175;  217,104; 6506,696;50,25876
1023,79; 3343,021;  214,873; 6440,312;50,24784
1024,33; 3326,790;  219,642; 6432,696;50,01000
1024,88; 3292,252;  224,565; 6301,158;50,48367
1025,42; 3231,252;  216,335; 6201,773;50,37087
1025,97; 3202,098;  219,027; 6159,696;50,21440
1026,51; 3122,329;  185,488; 6011,927;50,40541
1027,06; 3096,560;  206,488; 5991,850;49,95489
1027,60; 3062,175;  239,258; 5887,235;49,98103
1028,15; 3020,252;  245,873; 5774,696;50,18028
1028,69; 2917,944;  198,950; 5671,004;49,68873
1029,24; 2914,560;  217,104; 5593,542;50,17180
1029,78; 2876,175;  215,181; 5512,696;50,23099
1030,33; 2811,944;  196,565; 5423,542;50,03617
1030,87; 2810,252;  222,642; 5339,312;50,57215
1031,42; 2755,329;  202,181; 5270,850;50,37117
1031,96; 2743,252;  233,488; 5172,465;50,81545
1032,51; 2687,329;  211,796; 5112,696;50,51180
1033,05; 2687,329;  216,104; 5063,465;50,98083
1033,60; 2593,560;  191,950; 4923,927;50,75278
1034,14; 2607,637;  213,565; 4874,388;51,36584
1034,69; 2564,329;  219,642; 4796,312;51,23129
1035,23; 2538,867;  208,796; 4739,927;51,42361
1035,77; 2500,560;  201,412; 4670,388;51,44685
1036,32; 2456,329;  190,950; 4605,312;51,31838
1036,86; 2453,098;  214,335; 4557,312;51,54905
1037,41; 2428,175;  225,104; 4481,542;51,75856
1037,95; 2352,329;  194,104; 4382,773;51,52531
1038,50; 2354,175;  206,412; 4372,696;51,55105
1039,04; 2353,098;  233,027; 4333,235;51,70643
1039,58; 2306,175;  196,488; 4222,388;52,40285
1040,13; 2275,713;  218,181; 4185,004;51,86853
1040,67; 2307,790;  237,488; 4167,081;52,68490
1041,21; 2250,944;  238,565; 4070,696;52,51331
1041,76; 2197,867;  199,104; 4016,850;52,35454
1042,30; 2177,944;  215,104; 3950,158;52,55186
1042,85; 2125,790;  217,335; 3897,235;51,86162
1043,39; 2106,021;  207,258; 3822,235;52,52491
1043,93; 2112,175;  223,335; 3783,773;53,05078
1044,48; 2084,713;  223,412; 3736,850;52,97665
1045,02; 2034,560;  213,104; 3690,850;52,37460
1045,56; 2064,867;  232,719; 3675,850;53,21169
1046,11; 2006,867;  220,642; 3615,004;52,62330
1046,65; 1975,098;  229,488; 3556,773;52,46349
1047,19; 1918,790;  207,104; 3511,465;51,80083
1047,74; 1906,713;  197,950; 3420,388;53,02703
1048,28; 1920,252;  220,181; 3400,927;53,44882
1048,82; 1906,637;  238,719; 3362,388;53,39609
1049,37; 1860,175;  228,412; 3294,004;53,22833
1049,91; 1850,406;  230,796; 3252,158;53,60529
1050,45; 1822,098;  233,258; 3229,158;53,03383
1050,99; 1793,944;  216,642; 3161,927;53,55346
1051,54; 1754,252;  208,796; 3103,696;53,38546
1052,08; 1759,175;  250,796; 3090,235;53,12243
1052,62; 1753,713;  236,719; 3048,696;53,94761
1053,16; 1713,637;  217,412; 2967,004;54,41625
1053,71; 1704,098;  230,565; 2937,465;54,43617
1054,25; 1679,944;  241,719; 2895,773;54,18974
1054,79; 1674,944;  231,642; 2873,235;54,63757
1055,33; 1600,098;  195,488; 2796,696;53,99836
1055,88; 1598,483;  231,412; 2778,312;53,67589
1056,42; 1604,098;  245,873; 2757,388;54,07990
1056,96; 1577,713;  238,565; 2705,158;54,29142
1057,50; 1555,406;  224,104; 2676,312;54,28993
1058,05; 1536,713;  221,335; 2629,773;54,61542
1058,59; 1526,790;  247,565; 2595,850;54,47487
1059,13; 1461,098;  206,181; 2532,158;53,95227
1059,67; 1490,098;  224,642; 2534,235;54,79131
1060,21; 1438,790;  218,796; 2464,235;54,33212
1060,76; 1446,252;  229,565; 2448,081;54,84238
1061,30; 1451,867;  248,565; 2444,773;54,78999
1061,84; 1416,713;  229,796; 2349,312;55,99947
1062,38; 1377,406;  218,335; 2286,542;56,04230
1062,92; 1422,637;  266,488; 2345,081;55,62169
1063,46; 1368,252;  247,181; 2274,388;55,30125
1064,01; 1337,637;  224,412; 2233,927;55,39768
1064,55; 1337,560;  231,565; 2217,773;55,68372
1065,09; 1273,483;  204,565; 2145,388;55,07546
1065,63; 1335,944;  253,719; 2166,388;56,58192
1066,17; 1298,637;  262,796; 2143,465;55,07829
1066,71; 1285,867;  247,258; 2125,388;55,30018
1067,25; 1242,098;  241,950; 2079,927;54,41570
1067,80; 1259,098;  256,873; 2061,696;55,53037
1068,34; 1252,329;  258,950; 2065,619;54,98399
1068,88; 1203,867;  225,181; 1990,696;55,43348
1069,42; 1236,098;  252,488; 2018,696;55,69048
1069,96; 1184,560;  234,642; 1949,081;55,40691
1070,50; 1209,483;  276,488; 1963,081;55,31830
1071,04; 1161,790;  220,950; 1888,696;56,41388
1071,58; 1164,252;  232,796; 1878,081;56,61366
1072,12; 1149,021;  233,796; 1855,081;56,45061
1072,66; 1134,021;  227,181; 1840,158;56,22153
1073,21; 1134,790;  243,104; 1838,004;55,90862
1073,75; 1122,944;  238,488; 1792,850;56,90155
1074,29; 1100,175;  245,950; 1790,388;55,30975
1074,83; 1113,944;  250,642; 1768,542;56,87476
1075,37; 1090,867;  255,796; 1760,542;55,49582
1075,91; 1080,175;  255,873; 1747,312;55,26892
1076,45; 1078,098;  236,565; 1700,004;57,50380
1076,99; 1055,944;  245,488; 1654,004;57,53972
1077,53; 1013,329;  229,104; 1627,004;56,10022
1078,07; 1026,867;  242,258; 1641,927;56,05679
1078,61; 1010,021;  237,412; 1612,081;56,20331
1079,15; 1001,790;  235,719; 1601,004;56,11073
1079,69;  996,560;  236,796; 1561,235;57,36495
1080,23;  991,944;  253,335; 1567,850;56,18874
1080,77; 1016,637;  284,719; 1574,388;56,75233
1081,31;  963,713;  219,565; 1499,235;58,15160
1081,85;  984,637;  250,719; 1528,004;57,45918
1082,39;  947,867;  228,027; 1476,927;57,63795
1082,93;  959,944;  249,950; 1489,312;57,28710
1083,47;  923,637;  228,565; 1438,773;57,43404
1084,01;  924,252;  246,027; 1466,388;55,57574
1084,55;  923,252;  235,258; 1420,004;58,07102
1085,09;  925,098;  247,950; 1420,004;57,77449
1085,63;  899,560;  254,335; 1380,158;57,31140
1086,17;  877,944;  224,719; 1372,158;56,92898
1086,71;  876,790;  229,796; 1356,773;57,40971
1087,24;  894,329;  266,642; 1373,927;56,68701
1087,78;  877,175;  249,258; 1344,235;57,34525
1088,32;  852,098;  234,488; 1302,312;57,83820
1088,86;  864,560;  255,027; 1325,696;56,93007
1089,40;  836,790;  239,335; 1279,004;57,46595
1089,94;  805,329;  223,027; 1243,081;57,08541
1090,48;  830,175;  243,258; 1242,312;58,74731
1091,02;  830,867;  254,258; 1254,081;57,67116
1091,56;  817,637;  240,642; 1240,312;57,71851
1092,10;  784,637;  213,412; 1184,927;58,79732
1092,63;  818,329;  259,258; 1217,465;58,34551
1093,17;  807,252;  244,719; 1203,004;58,70205
1093,71;  784,944;  229,488; 1160,235;59,67855
1094,25;  800,252;  264,950; 1180,158;58,48967
1094,79;  780,637;  240,488; 1147,542;59,54973
1095,33;  759,713;  247,796; 1127,312;58,20447
1095,87;  746,637;  240,412; 1124,619;57,25182
1096,40;  730,329;  216,950; 1088,619;58,89606
1096,94;  750,790;  242,104; 1091,927;59,85793
1097,48;  747,713;  251,181; 1084,465;59,58741
1098,02;  717,867;  236,181; 1071,927;57,63551
1098,56;  689,790;  208,104; 1018,388;59,44659
1099,10;  677,790;  220,719; 1013,850;57,62873
1099,63;  697,790;  216,642; 1022,465;59,70890
1100,17;  698,944;  235,565; 1028,696;58,42402
1100,71;  721,713;  259,719; 1034,465;59,63169

