
Integration time [ms]: 120,000
Averaging Nr. [scans]: 13
Smoothing Nr. [pixels]: 0
Data measured with spectrometer [name]: 2009305U1
Wave   ;Sample   ;Dark     ;Reference;Reflectance
[nm]   ;[counts] ;[counts] ;[counts] ;[%]

 175,72;  189,965;  198,725;  209,729;-79,60096
 176,32;  227,829;  233,791;  221,495; 0,00000
 176,92;  245,147;  251,952;  246,144; 0,00000
 177,52;  252,038;  249,569;  261,381;20,90226
 178,12;  223,863;  210,945;  220,620;133,51105
 178,72;  260,838;  248,635;  250,038;869,52486
 179,32;  263,511;  255,406;  241,911; 0,00000
 179,92;  240,089;  255,641;  248,129; 0,00000
 180,52;  244,253;  233,115;  240,492;150,96837
 181,12;  246,290;  249,103;  245,056; 0,00000
 181,73;  270,464;  265,873;  272,598;68,26520
 182,33;  341,795;  349,879;  341,303; 0,00000
 182,93;  261,690;  259,492;  262,580;71,16892
 183,53;  225,328;  241,402;  230,123; 0,00000
 184,13;  239,192;  231,942;  223,284; 0,00000
 184,73;  260,582;  262,785;  270,840;-27,35680
 185,33;  252,903;  235,800;  340,235;16,37607
 185,93;  259,139;  233,331;  341,231;23,91853
 186,53;  265,784;  252,412;  358,480;12,60647
 187,13;  298,246;  259,651;  408,456;25,93675
 187,73;  266,277;  235,102;  356,651;25,64831
 188,33;  266,593;  242,097;  355,217;21,65418
 188,93;  271,970;  252,084;  372,324;16,53841
 189,53;  283,914;  250,458;  375,462;26,76383
 190,13;  317,473;  288,441;  393,447;27,64808
 190,73;  253,292;  221,607;  354,699;23,80728
 191,34;  287,366;  261,772;  383,107;21,09323
 191,94;  269,510;  243,170;  355,212;23,50904
 192,54;  285,280;  244,657;  378,976;30,24338
 193,14;  282,497;  261,650;  386,945;16,63788
 193,74;  277,182;  256,803;  371,292;17,79970
 194,34;  278,923;  254,345;  379,723;19,60309
 194,94;  245,149;  215,650;  345,606;22,69899
 195,54;  210,772;  198,339;  325,621; 9,76824
 196,14;  251,559;  226,731;  350,792;20,01270
 196,74;  234,578;  216,030;  338,690;15,12127
 197,34;  209,542;  203,967;  338,400; 4,14695
 197,94;  252,230;  224,267;  375,503;18,48955
 198,54;  262,934;  232,346;  384,669;20,08054
 199,14;  227,603;  223,046;  367,104; 3,16323
 199,74;  223,490;  202,354;  368,520;12,71944
 200,34;  226,617;  194,509;  366,971;18,61753
 200,94;  263,969;  234,889;  406,748;16,92110
 201,54;  243,693;  216,814;  407,160;14,12094
 202,14;  269,364;  240,665;  454,320;13,43251
 202,74;  246,071;  228,200;  447,857; 8,13604
 203,34;  221,145;  181,976;  463,089;13,93362
 203,94;  207,873;  166,204;  459,631;14,20075
 204,54;  277,401;  236,729;  542,983;13,28038
 205,14;  243,593;  194,585;  536,212;14,34559
 205,74;  277,065;  237,668;  639,180; 9,81210
 206,34;  246,237;  204,050;  630,780; 9,88622
 206,94;  258,992;  210,433;  685,452;10,22261
 207,54;  228,280;  177,588;  721,425; 9,32131
 208,14;  259,783;  208,358;  795,906; 8,75243
 208,74;  261,944;  208,200;  848,241; 8,39702
 209,34;  256,052;  207,355;  912,599; 6,90500
 209,94;  288,961;  216,431; 1015,259; 9,07956
 210,54;  269,653;  207,205; 1109,050; 6,92443
 211,14;  289,265;  214,662; 1195,427; 7,60669
 211,73;  283,445;  208,506; 1299,988; 6,86581
 212,33;  319,775;  222,812; 1397,255; 8,25612
 212,93;  285,325;  208,738; 1479,640; 6,02622
 213,53;  270,292;  184,046; 1538,349; 6,36829
 214,13;  303,341;  193,748; 1630,932; 7,62552
 214,73;  284,826;  179,434; 1625,550; 7,28790
 215,33;  279,807;  163,585; 1674,567; 7,69184
 215,93;  309,734;  208,899; 1774,717; 6,43977
 216,53;  292,850;  168,430; 1832,838; 7,47535
 217,13;  357,606;  229,436; 2022,497; 7,14811
 217,73;  358,968;  197,822; 2208,241; 8,01554
 218,33;  325,064;  156,057; 2364,675; 7,65216
 218,93;  384,543;  181,834; 2630,757; 8,27748
 219,53;  417,489;  180,903; 2889,476; 8,73469
 220,13;  404,105;  168,059; 3125,529; 7,98136
 220,73;  453,657;  190,893; 3430,322; 8,11143
 221,32;  486,560;  184,508; 3811,856; 8,32708
 221,92;  526,282;  193,366; 4182,543; 8,34548
 222,52;  558,309;  172,284; 4562,289; 8,79328
 223,12;  614,507;  184,900; 4945,153; 9,02488
 223,72;  646,316;  200,285; 5311,646; 8,72628
 224,32;  688,380;  192,747; 5676,679; 9,03792
 224,92;  697,591;  183,362; 5950,894; 8,91593
 225,52;  775,263;  207,356; 6276,099; 9,35790
 226,12;  788,864;  187,051; 6571,650; 9,42600
 226,72;  810,097;  160,666; 6841,878; 9,72026
 227,31;  854,154;  156,666; 7219,939; 9,87486
 227,91;  926,206;  190,894; 7541,280;10,00372
 228,51;  958,709;  186,812; 7911,520; 9,99256
 229,11; 1025,679;  181,820; 8271,138;10,43177
 229,71; 1067,342;  176,122; 8541,977;10,65306
 230,31; 1103,900;  169,748; 8933,640;10,65909
 230,91; 1167,363;  158,502; 9183,125;11,17898
 231,51; 1214,256;  167,360; 9538,918;11,17098
 232,10; 1314,392;  169,980; 9825,075;11,85293
 232,70; 1358,999;  177,422;10037,261;11,98374
 233,30; 1455,536;  204,206;10330,930;12,35671
 233,90; 1469,285;  173,898;10431,145;12,62899
 234,50; 1521,246;  173,514;10561,102;12,97444
 235,10; 1579,283;  170,439;10679,048;13,40657
 235,70; 1640,387;  196,355;10707,048;13,73869
 236,29; 1686,469;  189,507;10660,055;14,29688
 236,89; 1668,052;  164,349;10563,896;14,45931
 237,49; 1716,700;  187,436;10546,988;14,76187
 238,09; 1732,929;  169,434;10299,934;15,43354
 238,69; 1796,368;  199,577;10085,824;16,15164
 239,29; 1760,959;  173,126; 9816,008;16,46638
 239,89; 1780,457;  193,964; 9557,989;16,94242
 240,48; 1706,294;  169,819; 9189,380;17,03492
 241,08; 1705,357;  173,895; 8870,359;17,61017
 241,68; 1715,097;  202,973; 8542,428;18,13217
 242,28; 1677,272;  173,206; 8296,267;18,51600
 242,88; 1686,766;  210,364; 8015,271;18,91633
 243,48; 1652,582;  214,359; 7813,649;18,92576
 244,07; 1632,263;  190,279; 7524,495;19,66106
 244,67; 1619,940;  193,589; 7335,200;19,97240
 245,27; 1614,368;  198,121; 7224,988;20,15474
 245,87; 1626,719;  202,978; 7137,422;20,53143
 246,47; 1606,542;  186,737; 7152,619;20,38228
 247,06; 1603,103;  178,433; 7115,577;20,53683
 247,66; 1628,839;  190,742; 7171,967;20,59949
 248,26; 1696,733;  211,199; 7383,422;20,71232
 248,86; 1689,315;  187,583; 7554,528;20,38473
 249,46; 1704,908;  151,745; 7751,040;20,43825
 250,05; 1794,675;  205,203; 8059,625;20,23665
 250,65; 1829,859;  156,351; 8391,138;20,32242
 251,25; 1912,056;  175,510; 8846,420;20,02726
 251,85; 1988,427;  188,657; 9377,235;19,58703
 252,44; 2058,847;  152,046;10031,610;19,30046
 253,04; 2217,196;  201,662;10746,245;19,11440
 253,64; 2239,648;  153,197;11314,012;18,69444
 254,24; 2417,173;  191,741;12220,363;18,50114
 254,84; 2542,215;  166,745;13137,194;18,31448
 255,43; 2707,168;  180,354;13986,565;18,30201
 256,03; 2834,384;  179,120;14914,490;18,01966
 256,63; 2989,493;  182,657;15992,265;17,75399
 257,23; 3062,046;  178,195;16766,067;17,38529
 257,82; 3211,686;  187,423;17744,651;17,22517
 258,42; 3276,250;  152,113;18540,057;16,99014
 259,02; 3432,684;  195,508;19439,475;16,82177
 259,62; 3491,333;  174,574;20014,745;16,71739
 260,21; 3571,319;  187,584;20539,271;16,62631
 260,81; 3603,783;  174,128;20993,664;16,47325
 261,41; 3631,736;  166,037;21535,894;16,21770
 262,01; 3734,151;  206,264;21932,846;16,23765
 262,60; 3730,122;  161,657;22263,375;16,14565
 263,20; 3771,549;  174,198;22619,064;16,02750
 263,80; 3821,178;  197,880;22817,691;16,01825
 264,40; 3762,660;  155,342;23010,849;15,78315
 264,99; 3775,211;  195,802;23187,520;15,56825
 265,59; 3765,670;  168,336;23290,435;15,55799
 266,19; 3768,449;  175,572;23408,876;15,46434
 266,78; 3812,675;  207,185;23564,540;15,43621
 267,38; 3770,587;  185,875;23535,671;15,35222
 267,98; 3756,063;  178,493;23588,757;15,28206
 268,58; 3748,029;  189,029;23610,424;15,19551
 269,17; 3751,107;  178,179;23588,237;15,26236
 269,77; 3700,382;  192,578;23479,767;15,06323
 270,37; 3666,776;  161,110;23253,673;15,18093
 270,96; 3689,445;  219,115;23179,220;15,11461
 271,56; 3604,473;  181,041;22949,788;15,03566
 272,16; 3558,548;  181,652;22839,153;14,90410
 272,75; 3561,562;  179,345;22647,263;15,05354
 273,35; 3572,729;  185,962;22752,668;15,00781
 273,95; 3563,679;  182,345;22634,525;15,06016
 274,54; 3537,163;  162,280;22661,239;15,00018
 275,14; 3593,107;  199,500;23009,838;14,87750
 275,74; 3601,347;  157,729;22979,523;15,08916
 276,33; 3702,352;  206,040;23339,167;15,11388
 276,93; 3718,773;  185,666;23789,475;14,96838
 277,53; 3823,048;  184,200;24196,394;15,15417
 278,12; 3903,370;  159,196;24656,393;15,28409
 278,72; 4034,686;  210,968;25209,099;15,29602
 279,32; 4119,633;  177,353;25795,343;15,38872
 279,91; 4242,793;  173,275;26468,338;15,47636
 280,51; 4359,041;  180,661;27006,795;15,57578
 281,11; 4544,234;  181,582;27679,169;15,86558
 281,70; 4625,612;  155,889;28143,812;15,97018
 282,30; 4739,166;  175,887;28664,557;16,01787
 282,90; 4889,059;  184,733;29140,880;16,24638
 283,49; 5075,000;  191,654;29639,315;16,58314
 284,09; 5192,434;  209,735;30013,118;16,71857
 284,69; 5388,870;  208,352;30383,634;17,16808
 285,28; 5500,702;  198,581;30659,164;17,40650
 285,88; 5690,518;  234,268;31004,553;17,73221
 286,47; 5774,634;  178,656;30948,156;18,18677
 287,07; 5951,823;  220,122;30971,081;18,63910
 287,67; 6182,352;  205,282;31249,572;19,25336
 288,26; 6300,301;  173,583;31154,111;19,77603
 288,86; 6508,849;  177,427;31163,873;20,43287
 289,46; 6772,027;  194,890;31354,786;21,10770
 290,05; 6996,708;  176,971;31383,773;21,85337
 290,65; 7374,934;  191,425;31591,261;22,87754
 291,24; 7626,272;  197,814;31745,730;23,54659
 291,84; 7934,801;  198,734;31851,188;24,44066
 292,44; 8289,128;  193,513;31994,544;25,45708
 293,03; 8625,185;  249,968;32153,222;26,25192
 293,63; 8860,269;  186,964;32285,480;27,02089
 294,22; 9121,013;  208,736;32427,446;27,66181
 294,82; 9393,500;  179,111;32457,635;28,54650
 295,41; 9560,919;  168,197;32179,428;29,34196
 296,01; 9734,511;  220,882;32137,119;29,80811
 296,61; 9867,837;  209,660;31938,498;30,43974
 297,20; 9924,103;  198,652;31498,260;31,07212
 297,80;10017,307;  189,818;31371,885;31,51648
 298,39;10049,273;  168,349;31012,542;32,03496
 298,99;10130,388;  196,577;30953,082;32,29825
 299,58;10211,284;  210,666;30637,168;32,86812
 300,18;10261,875;  218,664;30536,651;33,12625
 300,78;10265,496;  187,969;30175,812;33,60538
 301,37;10351,595;  210,801;30210,608;33,80287
 301,97;10452,776;  192,736;30210,385;34,18002
 302,56;10418,523;  180,117;30097,031;34,22280
 303,16;10442,981;  178,501;30021,826;34,39456
 303,75;10532,092;  188,816;30056,938;34,62982
 304,35;10693,611;  181,592;30296,229;34,90668
 304,94;10731,231;  192,275;30223,710;35,09308
 305,54;10773,483;  202,738;30212,702;35,22412
 306,13;10781,470;  162,515;30220,877;35,32779
 306,73;10681,636;  171,667;29981,020;35,25729
 307,33;10814,405;  197,897;30003,878;35,61872
 307,92;10842,205;  200,276;30009,930;35,69961
 308,52;11009,352;  164,039;30460,332;35,79749
 309,11;11233,293;  184,805;30865,317;36,01142
 309,71;11372,931;  165,957;31097,892;36,23108
 310,30;11497,960;  168,199;31341,744;36,34416
 310,90;11627,576;  214,660;31732,359;36,21113
 311,49;11762,619;  187,198;31844,388;36,56490
 312,09;11803,126;  150,125;31981,436;36,60861
 312,68;12023,908;  221,508;32445,118;36,62656
 313,28;12045,820;  164,968;32508,776;36,73300
 313,87;12080,265;  155,737;32612,835;36,73935
 314,47;12199,959;  179,883;32880,460;36,75799
 315,06;12266,024;  164,892;33020,392;36,83137
 315,66;12245,665;  163,895;33161,590;36,61398
 316,25;12245,168;  153,271;33134,720;36,66272
 316,85;12248,638;  150,895;33146,514;36,66470
 317,44;12263,086;  168,882;33320,627;36,48135
 318,04;12296,771;  157,041;33358,819;36,56349
 318,63;12231,031;  156,129;33413,451;36,30750
 319,22;12258,115;  181,886;33687,260;36,04266
 319,82;12231,180;  176,965;33726,732;35,92935
 320,41;12112,975;  188,887;33581,370;35,70890
 321,01;12121,360;  194,740;33730,664;35,56371
 321,60;12111,096;  183,350;33856,364;35,42227
 322,20;11998,198;  167,276;33758,639;35,22013
 322,79;12031,111;  207,430;33929,362;35,06229
 323,39;11922,373;  173,438;34018,334;34,71405
 323,98;11850,175;  164,200;33942,472;34,59613
 324,58;11764,900;  173,116;33789,917;34,48212
 325,17;11684,710;  185,502;33722,475;34,28815
 325,76;11558,281;  194,121;33481,634;34,13941
 326,36;11348,022;  166,894;33169,218;33,87982
 326,95;11219,879;  201,197;32821,858;33,77823
 327,55;11028,119;  172,273;32580,839;33,49684
 328,14;10800,438;  161,050;32147,564;33,26211
 328,74;10700,483;  198,502;31792,923;33,23999
 329,33;10437,500;  195,278;31370,401;32,85383
 329,92;10224,210;  154,959;30887,103;32,76456
 330,52; 9959,308;  189,204;30203,412;32,55160
 331,11; 9773,645;  187,197;29806,103;32,36598
 331,71; 9479,023;  178,967;29282,569;31,95500
 332,30; 9309,846;  195,506;28842,479;31,81607
 332,89; 9088,313;  236,124;28405,815;31,42451
 333,49; 8819,043;  194,351;27811,673;31,22928
 334,08; 8642,340;  177,196;27493,100;30,98980
 334,68; 8439,678;  192,581;27000,316;30,76387
 335,27; 8315,857;  191,512;26650,986;30,70486
 335,86; 8122,952;  222,889;26456,564;30,11421
 336,46; 7987,927;  194,436;26199,541;29,96908
 337,05; 7836,240;  176,966;26018,241;29,63969
 337,65; 7704,303;  160,811;25875,670;29,33515
 338,24; 7712,376;  224,123;25891,948;29,17369
 338,83; 7624,359;  200,738;25754,918;29,05051
 339,43; 7525,085;  173,348;25758,583;28,73430
 340,02; 7476,693;  175,578;25570,534;28,75026
 340,61; 7373,783;  177,122;25648,038;28,25443
 341,21; 7387,868;  210,963;25690,769;28,16703
 341,80; 7294,166;  189,657;25615,084;27,94253
 342,40; 7250,060;  180,589;25697,459;27,70509
 342,99; 7263,082;  179,355;25775,661;27,67480
 343,58; 7201,962;  181,355;25977,863;27,21534
 344,18; 7195,323;  197,971;26092,927;27,02207
 344,77; 7169,740;  165,732;26394,318;26,70372
 345,36; 7233,802;  166,658;26652,242;26,68298
 345,96; 7249,982;  207,432;26959,571;26,32518
 346,55; 7238,905;  170,207;27168,889;26,18164
 347,14; 7253,244;  163,435;27487,598;25,94703
 347,74; 7316,355;  144,827;27869,864;25,86661
 348,33; 7425,683;  178,596;28420,892;25,66040
 348,92; 7527,608;  181,599;29109,307;25,39437
 349,52; 7571,801;  159,597;29486,131;25,27473
 350,11; 7638,763;  177,654;29780,485;25,20404
 350,70; 7574,753;  172,122;29801,438;24,98414
 351,29; 7452,655;  170,031;29587,678;24,75597
 351,89; 7450,129;  198,574;29521,502;24,72998
 352,48; 7399,262;  154,891;29577,683;24,62163
 353,07; 7360,609;  190,436;29611,494;24,37089
 353,67; 7242,902;  195,061;29508,263;24,04323
 354,26; 7153,485;  186,127;29303,183;23,92879
 354,85; 7102,207;  183,049;29206,884;23,83957
 355,45; 6994,477;  160,580;28976,851;23,71541
 356,04; 6999,586;  177,667;28863,558;23,78144
 356,63; 6932,257;  201,736;28756,951;23,57020
 357,22; 6816,439;  182,033;28529,688;23,40372
 357,82; 6756,901;  178,573;28303,126;23,38998
 358,41; 6725,124;  197,198;28225,802;23,29023
 359,00; 6672,172;  169,194;28039,475;23,33302
 359,60; 6667,442;  190,200;27965,671;23,32001
 360,19; 6561,526;  189,283;27739,961;23,12917
 360,78; 6507,668;  188,811;27658,808;23,00276
 361,37; 6458,477;  176,735;27434,916;23,04535
 361,97; 6444,234;  189,428;27383,861;23,00032
 362,56; 6379,097;  173,116;27056,561;23,08477
 363,15; 6396,731;  215,273;26861,468;23,19828
 363,74; 6257,856;  191,806;26488,153;23,06803
 364,34; 6205,660;  201,425;26092,628;23,19025
 364,93; 6096,485;  181,423;25766,867;23,11886
 365,52; 6017,568;  158,350;25396,410;23,21580
 366,11; 5967,490;  179,348;25099,599;23,22666
 366,71; 5915,423;  171,271;24664,030;23,45245
 367,30; 5860,397;  181,274;24351,150;23,49670
 367,89; 5865,464;  218,356;24117,806;23,62861
 368,48; 5793,398;  193,114;23831,370;23,69161
 369,07; 5712,138;  180,045;23481,745;23,74115
 369,67; 5716,502;  211,038;23145,589;24,00511
 370,26; 5688,372;  176,584;22904,962;24,25069
 370,85; 5649,942;  189,581;22579,595;24,38749
 371,44; 5649,712;  185,197;22472,583;24,51842
 372,03; 5648,132;  164,425;22167,136;24,92287
 372,63; 5630,699;  157,812;21893,705;25,17903
 373,22; 5651,258;  178,276;21618,236;25,52702
 373,81; 5604,548;  160,581;21348,164;25,69414
 374,40; 5604,756;  189,357;21109,918;25,88553
 374,99; 5589,604;  173,119;20805,236;26,25269
 375,59; 5578,086;  172,818;20548,239;26,52837
 376,18; 5664,464;  201,657;20421,884;27,01654
 376,77; 5663,602;  195,044;20284,216;27,22142
 377,36; 5732,605;  210,812;20218,225;27,59873
 377,95; 5746,426;  197,579;19936,400;28,11134
 378,55; 5765,206;  170,740;19722,664;28,61338
 379,14; 5780,748;  197,196;19652,640;28,69918
 379,73; 5885,199;  190,195;19586,848;29,36076
 380,32; 6003,936;  193,428;19698,446;29,78981
 380,91; 5996,277;  180,730;19479,572;30,13418
 381,50; 6078,907;  201,731;19462,208;30,51418
 382,10; 6131,167;  173,582;19341,830;31,08049
 382,69; 6217,949;  153,196;19281,655;31,70539
 383,28; 6338,857;  205,655;19266,811;32,17644
 383,87; 6379,299;  175,116;19108,719;32,76810
 384,46; 6439,761;  165,112;19057,158;33,21318
 385,05; 6567,897;  219,270;19032,316;33,74588
 385,64; 6637,105;  181,194;19079,829;34,16073
 386,24; 6755,450;  165,265;19008,018;34,97464
 386,83; 6926,259;  200,649;19082,215;35,61998
 387,42; 7032,570;  206,964;19161,969;36,00952
 388,01; 7206,343;  193,645;19331,088;36,64386
 388,60; 7415,875;  194,266;19613,654;37,18762
 389,19; 7593,825;  170,485;19711,863;37,98780
 389,78; 7781,802;  180,564;20001,915;38,34874
 390,37; 8122,278;  238,340;20408,716;39,08672
 390,96; 8255,379;  193,188;20570,771;39,56402
 391,56; 8492,236;  191,407;20731,732;40,41235
 392,15; 8707,776;  188,103;21012,597;40,91179
 392,74; 8874,974;  164,630;21139,528;41,52747
 393,33; 9122,563;  186,714;21382,297;42,15901
 393,92; 9468,554;  192,780;21783,988;42,96088
 394,51; 9633,954;  170,175;21988,050;43,37626
 395,10; 9923,337;  212,461;22189,538;44,18638
 395,69;10115,415;  206,155;22317,361;44,81555
 396,28;10305,519;  205,150;22429,043;45,44824
 396,87;10455,564;  208,293;22506,720;45,95513
 397,46;10667,302;  212,979;22584,582;46,73033
 398,06;10901,425;  224,355;22908,699;47,06801
 398,65;11034,869;  211,721;22862,365;47,78296
 399,24;11273,566;  227,025;23077,241;48,34327
 399,83;11366,701;  208,688;23078,877;48,78846
 400,42;11621,874;  248,124;23183,898;49,58956
 401,01;11776,875;  221,325;23296,255;50,07838
 401,60;11894,174;  244,208;23371,456;50,37334
 402,19;12046,494;  257,022;23296,956;51,16973
 402,78;12233,059;  257,588;23374,469;51,80401
 403,37;12206,626;  233,156;23158,178;52,22882
 403,96;12316,482;  244,024;23048,728;52,93845
 404,55;12419,040;  262,271;22963,326;53,55156
 405,14;12501,957;  238,215;22846,319;54,24489
 405,73;12520,480;  260,611;22788,222;54,42152
 406,32;12635,947;  259,029;22622,115;55,34531
 406,91;12607,796;  257,594;22411,638;55,74694
 407,50;12720,488;  264,260;22245,873;56,66658
 408,09;12676,548;  226,473;21951,682;57,30704
 408,68;12665,758;  254,536;21879,207;57,39381
 409,27;12708,199;  246,476;21712,453;58,05337
 409,86;12769,331;  256,439;21553,202;58,75490
 410,45;12841,717;  293,934;21550,876;59,02911
 411,04;12938,170;  292,352;21485,723;59,66874
 411,63;12831,438;  286,935;21190,695;60,01075
 412,22;12871,801;  280,668;20981,662;60,82381
 412,81;12762,939;  302,989;20780,234;60,84779
 413,40;12684,213;  310,469;20416,348;61,54292
 413,99;12608,455;  342,848;20183,307;61,82118
 414,58;12457,758;  277,159;19746,662;62,56245
 415,17;12451,595;  279,605;19575,189;63,08174
 415,76;12457,168;  270,666;19419,040;63,64249
 416,35;12420,801;  276,443;19110,200;64,48187
 416,94;12509,806;  310,670;19268,010;64,35046
 417,53;12732,081;  280,221;19408,256;65,09743
 418,12;12917,845;  269,533;19521,995;65,69711
 418,71;13123,047;  298,316;19861,765;65,55455
 419,30;13348,468;  287,073;20065,109;66,03990
 419,89;13512,343;  272,460;20163,447;66,56222
 420,48;13845,712;  294,085;20362,535;67,52702
 421,07;13933,864;  290,165;20498,503;67,51520
 421,66;13977,397;  266,558;20466,188;67,87669
 422,25;14053,613;  271,189;20540,583;67,99623
 422,84;14101,672;  299,962;20440,598;68,52669
 423,43;13885,254;  287,647;20178,320;68,36172
 424,02;13824,483;  302,727;19996,442;68,66026
 424,60;13535,383;  280,439;19584,206;68,66506
 425,19;13473,083;  296,044;19327,453;69,23838
 425,78;13490,595;  293,661;19228,750;69,69565
 426,37;13422,398;  300,437;19061,951;69,94085
 426,96;13304,515;  276,206;18925,136;69,86089
 427,55;13246,297;  275,294;18888,508;69,68707
 428,14;13111,825;  267,837;18586,022;70,11605
 428,73;13044,382;  288,366;18469,381;70,16118
 429,32;13131,414;  285,513;18413,992;70,86034
 429,91;13110,600;  320,982;18460,799;70,50577
 430,50;13017,041;  300,065;18279,640;70,73013
 431,08;12950,616;  307,455;18121,157;70,97436
 431,67;12889,869;  330,460;18059,181;70,84216
 432,26;12806,571;  352,773;17866,633;71,10824
 432,85;12673,303;  372,079;17525,688;71,71216
 433,44;12419,919;  388,471;17227,983;71,44772
 434,03;12171,008;  402,711;16826,982;71,65187
 434,62;11919,762;  359,087;16459,216;71,80486
 435,21;11778,621;  365,618;16298,030;71,63386
 435,79;11636,848;  376,323;16109,888;71,57008
 436,38;11549,867;  368,410;15986,717;71,59199
 436,97;11536,547;  351,796;15943,277;71,73630
 437,56;11402,739;  366,118;15775,296;71,62368
 438,15;11336,328;  330,960;15658,418;71,80165
 438,74;11335,423;  358,116;15673,578;71,67467
 439,33;11338,967;  334,421;15641,739;71,89075
 439,91;11315,516;  308,120;15728,245;71,38331
 440,50;11380,543;  353,275;15720,771;71,75709
 441,09;11435,852;  352,437;15858,362;71,47858
 441,68;11438,482;  330,291;15871,755;71,47454
 442,27;11437,199;  309,595;15870,416;71,51039
 442,86;11392,550;  286,691;15851,837;71,35082
 443,44;11399,929;  306,610;15894,282;71,16726
 444,03;11469,189;  376,999;16005,300;70,97502
 444,62;11380,563;  300,075;15815,177;71,41744
 445,21;11249,345;  324,227;15685,782;71,11987
 445,80;11201,915;  356,622;15621,797;71,04598
 446,39;11065,289;  367,697;15356,081;71,37255
 446,97;10761,519;  300,708;15192,640;70,24482
 447,56;10659,504;  305,024;14946,971;70,71792
 448,15;10519,007;  323,939;14810,409;70,37649
 448,74;10309,222;  331,940;14558,368;70,13203
 449,33;10210,235;  323,946;14452,718;69,97275
 449,91;10067,843;  318,033;14243,239;70,01555
 450,50; 9872,146;  307,954;13988,738;69,90968
 451,09; 9782,545;  335,493;13900,297;69,64385
 451,68; 9726,487;  356,497;13844,731;69,46788
 452,26; 9641,817;  340,040;13735,304;69,44078
 452,85; 9526,949;  319,499;13610,323;69,27674
 453,44; 9497,893;  341,974;13683,567;68,62688
 454,03; 9462,042;  314,351;13625,594;68,72154
 454,61; 9366,836;  311,590;13609,495;68,09529
 455,20; 9499,802;  338,979;13743,391;68,34185
 455,79; 9437,286;  348,740;13741,725;67,86049
 456,38; 9431,588;  342,063;13817,793;67,45108
 456,97; 9509,764;  330,061;13863,829;67,82814
 457,55; 9462,744;  329,759;13876,516;67,41824
 458,14; 9386,215;  356,290;13890,729;66,71813
 458,73; 9307,072;  341,529;13835,213;66,44252
 459,31; 9311,705;  366,306;13850,064;66,34203
 459,90; 9303,211;  383,302;13974,214;65,63143
 460,49; 9336,384;  420,299;14008,495;65,61640
 461,08; 9317,473;  340,310;14107,021;65,20921
 461,66; 9321,374;  341,306;14143,370;65,06323
 462,25; 9380,756;  349,006;14205,437;65,18093
 462,84; 9315,879;  376,465;14250,179;64,43418
 463,43; 9236,082;  301,938;14247,046;64,06651
 464,01; 9187,359;  339,172;14309,864;63,33392
 464,60; 9183,719;  396,704;14200,171;63,65803
 465,19; 8928,607;  339,251;13997,782;62,88638
 465,77; 8889,091;  340,871;13977,125;62,68745
 466,36; 8808,631;  371,245;13839,631;62,64586
 466,95; 8575,758;  353,477;13528,774;62,40680
 467,53; 8350,418;  350,645;13289,085;61,82950
 468,12; 8187,442;  372,646;13030,152;61,74041
 468,71; 8003,186;  349,714;12788,109;61,53103
 469,29; 7787,359;  337,032;12597,465;60,76725
 469,88; 7626,248;  341,805;12287,066;60,98186
 470,47; 7651,171;  410,505;12431,822;60,23189
 471,06; 7600,205;  365,120;12397,793;60,12866
 471,64; 7593,160;  375,118;12462,030;59,71784
 472,23; 7507,115;  332,518;12524,681;58,84597
 472,81; 7535,512;  330,972;12651,188;58,47739
 473,40; 7557,195;  343,056;12714,206;58,31422
 473,99; 7741,369;  441,364;12943,375;58,39065
 474,57; 7684,085;  349,979;13036,466;57,81038
 475,16; 7778,165;  370,204;13165,595;57,89554
 475,75; 7775,757;  376,600;13294,845;57,27680
 476,33; 7807,827;  383,837;13411,872;56,98473
 476,92; 7814,326;  386,288;13452,566;56,84892
 477,51; 7818,641;  371,757;13544,460;56,53270
 478,09; 7773,989;  368,526;13511,952;56,34347
 478,68; 7728,469;  375,529;13454,486;56,21962
 479,27; 7708,703;  407,139;13495,077;55,78850
 479,85; 7663,907;  381,605;13495,561;55,53093
 480,44; 7697,383;  364,993;13660,405;55,14978
 481,02; 8363,232;  382,306;14973,490;54,69691
 481,61; 9328,696;  404,380;16859,203;54,23526
 482,20;10007,898;  382,844;18027,106;54,55062
 482,78;10378,466;  415,453;18824,862;54,11914
 483,37;10649,885;  404,160;19388,819;53,96845
 483,95;10770,692;  414,546;19540,072;54,14830
 484,54;10835,598;  429,918;19769,660;53,80465
 485,13;10755,846;  405,860;19637,609;53,81719
 485,71;10616,905;  383,088;19561,922;53,35995
 486,30;10401,253;  414,396;19225,799;53,08938
 486,88;10218,418;  453,937;18897,130;52,94355
 487,47; 9834,967;  439,784;18158,769;53,02326
 488,05; 9364,531;  423,480;17350,736;52,82044
 488,64; 8670,467;  419,870;16087,163;52,66128
 489,23; 7697,809;  438,174;14340,035;52,22060
 489,81; 6540,994;  428,406;12265,536;51,63911
 490,40; 6186,028;  387,177;11679,649;51,35148
 490,98; 6001,117;  377,333;11388,277;51,07449
 491,57; 5911,261;  389,405;11305,362;50,58518
 492,15; 5892,167;  379,719;11271,497;50,61110
 492,74; 5783,374;  391,249;11185,046;49,95577
 493,32; 5731,284;  401,179;11096,090;49,83777
 493,91; 5658,366;  371,029;10997,172;49,75782
 494,50; 5633,472;  396,040;10987,804;49,44816
 495,08; 5547,332;  367,578;10899,848;49,17984
 495,67; 5549,730;  393,490;10870,398;49,21529
 496,25; 5409,292;  329,188;10741,795;48,78801
 496,84; 5425,523;  352,951;10758,565;48,74841
 497,42; 5341,634;  346,344;10738,589;48,06748
 498,01; 5360,510;  371,414;10640,741;48,58250
 498,59; 5277,424;  337,653;10625,516;48,01552
 499,18; 5212,701;  341,722;10495,159;47,97369
 499,76; 5211,496;  361,958;10446,642;48,08816
 500,35; 5098,976;  344,581;10305,032;47,73272
 500,93; 4977,524;  327,267;10285,849;46,69598
 501,52; 4982,374;  332,883;10186,900;47,18371
 502,10; 4966,834;  357,201;10166,328;46,99331
 502,69; 4827,609;  332,974; 9938,653;46,79143
 503,27; 4732,737;  315,963; 9848,314;46,33457
 503,86; 4678,330;  333,818; 9763,892;46,07082
 504,44; 4625,449;  317,822; 9600,262;46,40620
 505,03; 4490,075;  297,206; 9442,846;45,84554
 505,61; 4412,739;  323,205; 9319,101;45,46000
 506,19; 4309,523;  353,052; 9155,045;44,94971
 506,78; 4225,443;  304,906; 8972,804;45,23054
 507,36; 4134,606;  317,744; 8825,028;44,86581
 507,95; 4084,619;  315,679; 8697,312;44,96666
 508,53; 4004,691;  315,444; 8551,911;44,79162
 509,12; 3926,287;  330,293; 8424,091;44,42901
 509,70; 3857,098;  337,141; 8297,561;44,21823
 510,29; 3809,759;  342,760; 8155,917;44,37385
 510,87; 3683,978;  312,906; 7973,279;44,00663
 511,46; 3600,661;  299,523; 7826,672;43,85643
 512,04; 3520,393;  312,219; 7675,583;43,56940
 512,62; 3469,548;  315,985; 7551,241;43,58606
 513,21; 3378,485;  298,068; 7394,888;43,40559
 513,79; 3335,521;  304,542; 7274,481;43,48645
 514,38; 3203,549;  278,384; 7111,677;42,80754
 514,96; 3209,733;  328,691; 7037,290;42,94551
 515,54; 3118,677;  293,309; 6884,424;42,86631
 516,13; 3067,216;  316,540; 6833,644;42,20703
 516,71; 2994,112;  308,699; 6687,051;42,10198
 517,30; 2927,683;  285,396; 6596,440;41,86767
 517,88; 2919,823;  311,780; 6533,254;41,92002
 518,46; 2828,580;  281,167; 6366,725;41,85997
 519,05; 2804,910;  310,247; 6315,772;41,53946
 519,63; 2752,956;  301,630; 6284,195;40,97449
 520,22; 2771,582;  318,330; 6201,767;41,69760
 520,80; 2692,465;  306,715; 6200,647;40,47807
 521,38; 2715,475;  338,325; 6179,452;40,69678
 521,97; 2642,564;  302,334; 6099,770;40,36663
 522,55; 2668,764;  319,257; 6071,093;40,84796
 523,13; 2601,124;  281,260; 6101,751;39,85684
 523,72; 2595,797;  296,397; 6063,462;39,87123
 524,30; 2651,768;  310,955; 6224,858;39,58152
 524,89; 2628,601;  285,719; 6213,573;39,52327
 525,47; 2672,026;  315,803; 6325,757;39,20534
 526,05; 2632,344;  278,958; 6353,561;38,74140
 526,64; 2670,850;  316,421; 6509,940;38,01440
 527,22; 2747,514;  310,033; 6629,372;38,57177
 527,80; 2790,191;  341,652; 6780,615;38,02692
 528,39; 2777,725;  301,808; 6769,289;38,28254
 528,97; 2863,697;  299,345; 6970,083;38,44180
 529,55; 2884,529;  317,491; 7159,382;37,51942
 530,14; 2964,719;  338,810; 7344,514;37,48244
 530,72; 2953,122;  298,422; 7454,499;37,09714
 531,30; 3010,987;  278,888; 7545,394;37,59852
 531,89; 3032,582;  310,657; 7640,840;37,13312
 532,47; 3079,700;  338,274; 7729,848;37,08853
 533,05; 3098,766;  343,267; 7796,815;36,96897
 533,63; 3123,895;  332,891; 7857,868;37,08987
 534,22; 3098,386;  304,506; 7869,622;36,93110
 534,80; 3104,256;  328,588; 7970,261;36,32277
 535,38; 3208,593;  410,504; 8060,182;36,57786
 535,97; 3132,607;  323,198; 8016,588;36,51718
 536,55; 3177,072;  368,974; 8064,957;36,48784
 537,13; 3150,251;  373,810; 8034,684;36,24182
 537,71; 3204,983;  417,348; 8098,650;36,29117
 538,30; 3189,899;  430,431; 8181,139;35,60279
 538,88; 3251,907;  465,362; 8229,021;35,89216
 539,46; 3319,841;  506,050; 8422,968;35,54149
 540,05; 3362,117;  525,283; 8532,797;35,42714
 540,63; 3447,572;  571,745; 8710,352;35,33561
 541,21; 3508,205;  617,364; 8894,721;34,92470
 541,79; 3545,801;  626,210; 9006,166;34,84017
 542,38; 3597,003;  656,437; 9154,071;34,60452
 542,96; 3628,188;  673,291; 9277,109;34,34402
 543,54; 3730,409;  681,055; 9495,579;34,59465
 544,12; 3750,139;  650,903; 9687,525;34,29640
 544,70; 3735,231;  649,214; 9723,665;34,00776
 545,29; 3793,437;  661,052; 9906,533;33,88018
 545,87; 3803,570;  639,902; 9891,628;34,19543
 546,45; 3738,527;  584,052; 9943,577;33,70337
 547,03; 3751,415;  577,285; 9993,574;33,70893
 547,62; 3747,577;  551,441;10139,292;33,33527
 548,20; 3798,161;  553,444;10248,429;33,46799
 548,78; 3825,641;  521,916;10419,246;33,37996
 549,36; 3853,667;  482,684;10605,949;33,29937
 549,94; 3856,190;  446,673;10779,283;32,99763
 550,53; 3917,041;  442,298;10983,233;32,96428
 551,11; 3923,348;  426,534;11153,871;32,59723
 551,69; 4000,895;  445,376;11457,040;32,28866
 552,27; 4067,408;  393,296;11683,084;32,54367
 552,85; 4137,308;  399,918;12082,685;31,99062
 553,44; 4228,844;  399,145;12322,039;32,12055
 554,02; 4319,855;  410,224;12702,216;31,80633
 554,60; 4363,760;  360,611;12983,243;31,71406
 555,18; 4497,647;  398,377;13365,010;31,61399
 555,76; 4550,865;  365,609;13720,647;31,33841
 556,34; 4673,143;  378,230;14113,353;31,26956
 556,93; 4783,979;  370,454;14482,627;31,27459
 557,51; 4829,819;  350,077;14769,016;31,06846
 558,09; 4949,948;  382,300;15199,180;30,82733
 558,67; 5032,088;  375,465;15515,784;30,75644
 559,25; 5114,873;  390,386;15819,991;30,61962
 559,83; 5164,033;  365,467;16095,458;30,50584
 560,41; 5278,627;  368,768;16443,224;30,54448
 561,00; 5382,801;  367,234;16785,108;30,54943
 561,58; 5413,373;  344,767;17004,453;30,42438
 562,16; 5523,993;  347,534;17336,702;30,46918
 562,74; 5572,039;  347,378;17721,201;30,07203
 563,32; 5689,839;  347,775;18125,965;30,04841
 563,90; 5790,175;  361,234;18462,138;29,99265
 564,48; 5933,573;  365,305;18914,710;30,01858
 565,06; 6070,917;  365,772;19433,227;29,92085
 565,65; 6291,698;  363,088;20044,403;30,12304
 566,23; 6507,985;  410,542;20815,016;29,88287
 566,81; 6675,910;  353,232;21434,806;29,99149
 567,39; 6928,903;  363,315;22300,678;29,92879
 567,97; 7089,546;  385,694;22920,733;29,74857
 568,55; 7377,527;  388,621;23740,671;29,92845
 569,13; 7543,276;  364,696;24467,832;29,78276
 569,71; 7809,492;  359,610;25327,132;29,83829
 570,29; 8085,467;  396,608;26245,011;29,74597
 570,87; 8268,451;  396,840;26985,343;29,60532
 571,45; 8423,315;  377,926;27601,029;29,55354
 572,03; 8539,820;  343,239;27961,222;29,67842
 572,61; 8704,093;  334,236;28658,824;29,54979
 573,20; 8917,899;  385,616;29390,848;29,41636
 573,78; 9052,618;  367,006;29875,934;29,43385
 574,36; 9164,938;  373,312;30441,759;29,23871
 574,94; 9268,275;  435,086;30797,227;29,09277
 575,52; 9316,710;  378,016;31008,304;29,18254
 576,10; 9458,448;  432,859;31624,738;28,93570
 576,68; 9585,097;  417,700;32064,698;28,96767
 577,26; 9742,705;  439,173;32824,747;28,72740
 577,84; 9885,530;  435,082;33311,515;28,74536
 578,42; 9904,922;  473,857;33478,651;28,57483
 579,00; 9911,013;  436,775;33635,442;28,53801
 579,58; 9904,095;  469,932;33937,228;28,18920
 580,16; 9830,732;  456,089;33933,363;28,00301
 580,74; 9876,719;  449,474;34083,319;28,02904
 581,32; 9851,701;  440,779;34167,862;27,90316
 581,90; 9830,066;  464,781;34101,747;27,84224
 582,48; 9836,049;  455,012;34282,332;27,73213
 583,06; 9820,473;  455,856;34362,937;27,61847
 583,64; 9790,717;  454,471;34531,442;27,39752
 584,22; 9639,908;  456,171;34396,463;27,05851
 584,80; 9589,367;  481,857;34079,390;27,10767
 585,38; 9473,053;  479,538;33694,321;27,07684
 585,96; 9395,284;  448,161;33857,462;26,78034
 586,54; 9400,279;  469,478;33797,750;26,79647
 587,12; 9413,702;  449,398;34103,124;26,63689
 587,70; 9464,194;  476,238;34127,726;26,70894
 588,28; 9364,201;  458,244;34244,785;26,35948
 588,86; 9381,111;  462,169;34299,191;26,35853
 589,44; 9359,088;  442,022;34369,330;26,28286
 590,02; 9354,365;  447,020;34636,214;26,05310
 590,59; 9336,921;  429,477;34723,288;25,97391
 591,17; 9360,988;  426,029;35011,854;25,83417
 591,75; 9327,284;  422,101;35141,481;25,64902
 592,33; 9330,059;  444,407;35301,180;25,49189
 592,91; 9371,362;  385,181;35532,062;25,56751
 593,49; 9401,190;  390,569;35894,385;25,37930
 594,07; 9420,832;  415,030;36051,230;25,27150
 594,65; 9399,296;  419,478;36152,307;25,13044
 595,23; 9425,141;  409,558;36498,582;24,98151
 595,81; 9468,295;  407,252;36607,944;25,03003
 596,39; 9431,954;  398,945;36722,423;24,86824
 596,97; 9407,496;  397,027;36945,738;24,65331
 597,55; 9351,759;  380,480;36785,822;24,64275
 598,12; 9304,345;  392,801;36843,285;24,44835
 598,70; 9290,694;  377,413;36958,283;24,36596
 599,28; 9281,339;  393,182;37213,576;24,13922
 599,86; 9257,747;  380,797;37142,896;24,14702
 600,44; 9258,557;  347,645;37263,443;24,13848
 601,02; 9288,318;  410,961;37241,988;24,10293
 601,60; 9164,719;  387,409;37168,790;23,86346
 602,18; 9156,147;  361,493;37299,344;23,80933
 602,75; 9130,847;  359,559;37367,219;23,70128
 603,33; 9128,206;  377,951;37360,591;23,66044
 603,91; 9026,263;  361,573;37324,497;23,44157
 604,49; 9110,142;  386,490;37421,470;23,55517
 605,07; 9027,474;  387,870;37436,834;23,31942
 605,65; 9026,692;  397,030;37586,878;23,20435
 606,23; 9053,777;  457,246;37731,038;23,06320
 606,80; 8994,981;  498,175;37784,818;22,78780
 607,38; 8942,894;  531,418;37725,308;22,61521
 607,96; 8942,777;  575,328;37784,125;22,48782
 608,54; 8947,979;  649,646;37914,093;22,26877
 609,12; 8947,857;  630,406;37903,880;22,31467
 609,70; 8892,051;  660,566;38026,295;22,02951
 610,27; 8895,442;  682,020;38081,214;21,96149
 610,85; 8862,105;  702,489;38111,217;21,81206
 611,43; 8788,222;  688,720;38030,852;21,68998
 612,01; 8703,273;  662,254;37782,215;21,66225
 612,59; 8696,041;  667,258;37907,018;21,55971
 613,16; 8583,082;  620,863;37815,017;21,40718
 613,74; 8536,774;  589,336;37665,576;21,43539
 614,32; 8503,752;  559,569;37691,925;21,39423
 614,90; 8430,344;  529,102;37567,978;21,33229
 615,48; 8273,230;  482,018;37205,946;21,21563
 616,05; 8269,400;  448,093;37231,614;21,26307
 616,63; 8215,954;  445,630;37017,359;21,24680
 617,21; 8143,355;  452,174;36928,245;21,08555
 617,79; 8052,841;  431,945;36883,378;20,90699
 618,36; 8062,377;  443,332;36837,895;20,93457
 618,94; 7899,170;  381,250;36430,579;20,85454
 619,52; 7842,319;  405,554;36255,639;20,74406
 620,10; 7770,907;  391,944;36205,497;20,60383
 620,67; 7732,984;  395,630;36085,806;20,55847
 621,25; 7637,247;  413,794;35996,666;20,30037
 621,83; 7564,719;  393,481;35913,241;20,18943
 622,41; 7580,618;  443,096;35948,624;20,10257
 622,98; 7461,904;  398,553;35616,127;20,05632
 623,56; 7432,980;  406,860;35652,446;19,93475
 624,14; 7392,760;  388,334;35464,029;19,96946
 624,72; 7321,832;  383,634;35382,209;19,82423
 625,29; 7245,241;  375,091;35419,278;19,60425
 625,87; 7253,399;  404,484;35448,009;19,54403
 626,45; 7144,294;  358,474;35305,518;19,41744
 627,02; 7084,222;  376,638;35172,688;19,27686
 627,60; 6987,969;  365,953;35208,750;19,00541
 628,18; 7001,242;  336,406;35183,034;19,12620
 628,76; 6976,352;  343,630;35152,622;19,05462
 629,33; 6906,113;  377,787;35141,849;18,77895
 629,91; 6867,907;  360,329;35171,958;18,69369
 630,49; 6828,349;  375,401;35215,998;18,52135
 631,06; 6790,426;  374,785;35425,240;18,30402
 631,64; 6752,358;  362,321;35408,705;18,23308
 632,22; 6667,634;  332,395;35337,755;18,09791
 632,79; 6687,895;  357,395;35576,586;17,97457
 633,37; 6699,180;  343,793;35634,186;18,00883
 633,95; 6637,377;  348,089;35788,117;17,74628
 634,52; 6629,321;  335,557;35793,285;17,75005
 635,10; 6604,265;  331,174;35839,663;17,66645
 635,68; 6604,721;  337,703;36062,263;17,54260
 636,25; 6511,799;  323,237;35952,922;17,36912
 636,83; 6529,121;  314,784;36204,083;17,31529
 637,41; 6507,035;  339,240;36289,950;17,15625
 637,98; 6490,145;  345,009;36452,163;17,01916
 638,56; 6524,283;  340,005;36522,485;17,09191
 639,13; 6461,121;  318,860;36600,787;16,92926
 639,71; 6497,553;  363,554;36768,087;16,84955
 640,29; 6374,022;  288,554;36497,658;16,80646
 640,86; 6394,465;  312,093;36735,158;16,69923
 641,44; 6327,062;  313,478;36666,581;16,54215
 642,02; 6331,120;  344,939;36703,158;16,46445
 642,59; 6339,563;  316,555;36858,197;16,48259
 643,17; 6299,699;  318,863;36784,774;16,40117
 643,74; 6217,911;  307,786;36875,121;16,16231
 644,32; 6243,508;  335,248;36776,006;16,21333
 644,89; 6191,797;  329,633;36777,275;16,08380
 645,47; 6165,625;  340,479;36918,852;15,92511
 646,05; 6162,222;  337,787;36779,199;15,98301
 646,62; 6093,357;  322,326;36798,930;15,82119
 647,20; 6110,724;  333,403;36934,507;15,78455
 647,77; 6002,705;  306,018;36822,392;15,60036
 648,35; 5960,610;  310,711;36681,738;15,53406
 648,92; 5901,130;  327,557;36769,469;15,29440
 649,50; 5866,342;  287,327;36593,124;15,36673
 650,08; 5824,631;  298,173;36527,470;15,25411
 650,65; 5828,228;  301,481;36760,893;15,15863
 651,23; 5889,979;  294,789;37478,009;15,04762
 651,80; 5992,807;  282,097;38426,279;14,97138
 652,38; 6048,404;  297,943;38764,010;14,94944
 652,95; 6064,385;  282,251;39119,125;14,88826
 653,53; 6084,905;  318,021;39376,395;14,76478
 654,10; 6099,810;  339,328;39472,357;14,72026
 654,68; 6024,638;  289,021;39460,626;14,64228
 655,25; 6019,312;  285,867;39602,434;14,58277
 655,83; 5976,755;  284,637;39603,857;14,47668
 656,40; 5980,352;  318,252;39534,204;14,43826
 656,98; 5913,410;  288,714;39457,089;14,36030
 657,55; 5844,700;  299,253;39281,589;14,22554
 658,13; 5773,296;  294,407;39005,397;14,15332
 658,70; 5678,509;  310,869;38751,436;13,96348
 659,28; 5541,567;  314,253;37982,782;13,87714
 659,85; 5349,933;  305,254;37119,206;13,70317
 660,43; 5351,377;  321,177;37207,629;13,63698
 661,00; 5287,435;  304,100;37314,591;13,46465
 661,58; 5322,801;  300,639;37590,860;13,46777
 662,15; 5295,475;  281,024;37801,361;13,36462
 662,73; 5374,841;  346,409;38066,938;13,33076
 663,30; 5320,746;  300,409;38285,515;13,21659
 663,88; 5305,804;  315,178;38452,169;13,08605
 664,45; 5306,709;  290,717;38705,285;13,05753
 665,03; 5288,152;  296,333;38921,093;12,92389
 665,60; 5449,365;  372,563;39514,747;12,97015
 666,17; 5344,808;  304,718;39569,709;12,83609
 666,75; 5324,174;  301,564;39834,209;12,70497
 667,32; 5385,694;  321,718;40222,863;12,69130
 667,90; 5396,060;  297,872;40553,979;12,66438
 668,47; 5371,119;  316,257;40718,941;12,51120
 669,05; 5376,408;  299,719;41088,210;12,44638
 669,62; 5362,543;  274,565;41105,710;12,46102
 670,19; 5324,140;  287,411;41229,826;12,30198
 670,77; 5333,045;  293,719;41441,249;12,24697
 671,34; 5282,026;  301,258;41367,134;12,12873
 671,92; 5316,470;  281,643;41697,327;12,15681
 672,49; 5274,913;  309,643;41711,443;11,99288
 673,06; 5248,433;  256,643;41810,404;12,01285
 673,64; 5160,722;  287,720;41795,982;11,73984
 674,21; 5151,319;  279,721;41652,251;11,77496
 674,79; 5169,531;  305,567;41889,982;11,69660
 675,36; 5137,205;  307,106;42048,405;11,57151
 675,93; 5091,648;  269,798;41923,290;11,57610
 676,51; 5126,091;  296,337;42038,791;11,57037
 677,08; 5072,150;  300,029;42205,676;11,38777
 677,65; 5079,747;  300,876;42223,945;11,39914
 678,23; 5060,728;  299,722;42528,138;11,27441
 678,80; 5086,556;  287,261;42656,253;11,32738
 679,38; 5057,307;  284,030;42765,984;11,23601
 679,95; 5088,750;  303,184;42939,100;11,22426
 680,52; 5090,655;  285,338;43307,216;11,16947
 681,10; 5148,867;  299,338;43558,870;11,21031
 681,67; 5116,387;  298,493;43842,832;11,06434
 682,24; 5092,830;  268,570;43972,563;11,03849
 682,82; 5142,812;  280,108;44494,448;10,99802
 683,39; 5190,486;  326,186;44959,179;10,89844
 683,96; 5181,698;  289,032;45091,371;10,92056
 684,54; 5140,756;  276,109;45456,641;10,76713
 685,11; 5204,661;  309,340;45702,833;10,78419
 685,68; 5192,950;  286,186;46266,487;10,67145
 686,25; 5182,086;  269,033;46346,142;10,66268
 686,83; 5203,375;  281,187;46473,950;10,65576
 687,40; 5194,126;  273,418;46719,296;10,59450
 687,97; 5284,646;  297,110;47163,489;10,64203
 688,55; 5173,474;  260,264;47251,297;10,45563
 689,12; 5178,378;  244,188;47453,335;10,45177
 689,69; 5205,129;  250,342;47563,451;10,47234
 690,26; 5211,880;  267,880;47710,336;10,42104
 690,84; 5208,631;  276,958;47853,298;10,36581
 691,41; 5224,305;  288,496;48013,567;10,34217
 691,98; 5204,440;  295,189;48194,683;10,24907
 692,56; 5194,960;  278,881;48329,260;10,23109
 693,13; 5221,403;  328,728;48309,991;10,19705
 693,70; 5191,538;  300,574;48497,568;10,14786
 694,27; 5172,135;  272,728;48602,222;10,13751
 694,84; 5183,348;  274,344;48711,184;10,13486
 695,42; 5229,022;  331,728;48858,454;10,09195
 695,99; 5202,465;  292,190;49050,723;10,07060
 696,56; 5130,677;  285,575;48886,531; 9,96915
 697,13; 5212,582;  302,960;49344,339;10,01118
 697,71; 5140,256;  269,806;49297,147; 9,93415
 698,28; 5166,314;  279,345;49636,724; 9,90119
 698,85; 5112,757;  255,422;49652,917; 9,83316
 699,42; 5105,893;  259,884;49787,879; 9,78438
 699,99; 5141,336;  299,115;49910,456; 9,76031
 700,57; 5113,087;  294,269;50012,802; 9,69220
 701,14; 5151,453;  271,423;50102,610; 9,79312
 701,71; 5121,511;  310,808;50372,803; 9,60949
 702,28; 5131,493;  286,193;50343,765; 9,67946
 702,85; 5116,397;  287,193;50442,034; 9,62859
 703,43; 5146,764;  305,116;50729,842; 9,60173
 704,00; 5160,668;  323,270;50879,650; 9,56832
 704,57; 5109,650;  295,193;50869,381; 9,51959
 705,14; 5127,324;  320,578;51078,189; 9,47000
 705,71; 5151,536;  325,348;51209,536; 9,48465
 706,28; 5076,364;  297,425;51085,036; 9,40965
 706,86; 5122,345;  334,810;51220,152; 9,40848
 707,43; 5125,481;  349,502;51187,113; 9,39458
 708,00; 5038,001;  322,272;51296,614; 9,25118
 708,57; 5077,675;  303,964;51216,191; 9,37635
 709,14; 5086,426;  323,118;51342,845; 9,33621
 709,71; 5063,176;  303,426;51511,961; 9,29484
 710,28; 5086,389;  294,888;51644,769; 9,33108
 710,86; 5118,909;  311,196;51785,884; 9,33996
 711,43; 5078,275;  324,196;51754,539; 9,24372
 712,00; 5037,487;  315,504;51848,654; 9,16300
 712,57; 5084,469;  311,350;52033,308; 9,22842
 713,14; 5070,143;  300,735;52068,655; 9,21306
 713,71; 5096,201;  311,428;52110,540; 9,23717
 714,28; 5043,952;  294,043;52009,194; 9,18475
 714,85; 5041,780;  282,428;51853,925; 9,22865
 715,42; 5078,377;  290,121;52085,887; 9,24449
 716,00; 5127,358;  358,659;52233,310; 9,19273
 716,57; 5121,340;  290,044;52298,579; 9,28943
 717,14; 5078,552;  278,967;52131,541; 9,25621
 717,71; 5085,611;  261,045;52118,965; 9,30343
 718,28; 5083,669;  308,429;52350,926; 9,17565
 718,85; 5088,035;  262,891;52374,504; 9,25925
 719,42; 5145,325;  289,661;52479,081; 9,30392
 719,99; 5098,768;  269,122;52273,735; 9,28696
 720,56; 5114,826;  299,353;52573,851; 9,21190
 721,13; 5108,115;  271,661;52641,043; 9,23527
 721,70; 5107,020;  261,969;52528,851; 9,26983
 722,27; 5092,386;  285,969;52482,890; 9,20824
 722,84; 5189,983;  332,354;52699,775; 9,27605
 723,41; 5133,042;  267,662;52779,891; 9,26523
 723,98; 5151,100;  282,970;52943,391; 9,24438
 724,55; 5151,774;  312,509;52994,814; 9,18575
 725,12; 5127,679;  239,124;52916,776; 9,28013
 725,69; 5194,353;  274,586;53109,584; 9,31157
 726,27; 5173,565;  278,586;53314,700; 9,22952
 726,84; 5201,777;  291,817;53571,892; 9,21538
 727,41; 5219,682;  292,048;53460,008; 9,26805
 727,98; 5265,664;  301,202;53736,508; 9,29060
 728,55; 5308,030;  322,202;53596,470; 9,35879
 729,12; 5286,396;  271,664;53726,816; 9,38119
 729,69; 5335,531;  304,741;53872,086; 9,39152
 730,26; 5335,051;  303,665;54140,048; 9,34570
 730,82; 5320,879;  291,203;54027,163; 9,35998
 731,39; 5361,168;  297,204;54132,971; 9,40632
 731,96; 5391,611;  271,434;54460,395; 9,44875
 732,53; 5438,131;  293,204;54703,357; 9,45582
 733,10; 5468,959;  303,281;54686,011; 9,49875
 733,67; 5526,710;  296,358;54987,973; 9,56335
 734,24; 5428,230;  282,743;54595,704; 9,47377
 734,81; 5509,289;  323,897;54758,819; 9,52585
 735,38; 5505,809;  284,436;54541,550; 9,62339
 735,95; 5475,867;  291,282;54325,974; 9,59492
 736,52; 5532,926;  307,975;54542,320; 9,63403
 737,09; 5498,676;  300,052;54205,128; 9,64404
 737,66; 5566,350;  338,283;54294,628; 9,68944
 738,23; 5599,639;  283,206;54435,282; 9,81760
 738,80; 5669,929;  347,206;54783,244; 9,77794
 739,37; 5632,449;  307,360;54988,283; 9,73848
 739,94; 5649,584;  291,361;54960,783; 9,80113
 740,51; 5763,797;  398,822;54989,976; 9,82755
 741,07; 5677,701;  287,669;55001,784; 9,85127
 741,64; 5764,221;  305,361;55283,207; 9,92920
 742,21; 5753,280;  287,438;55298,861; 9,93583
 742,78; 5734,646;  265,515;55003,439; 9,99148
 743,35; 5810,166;  296,054;55360,631;10,01390
 743,92; 5878,147;  321,439;55485,901;10,07299
 744,49; 5886,975;  315,978;55347,324;10,12332
 745,06; 5866,034;  283,747;55364,517;10,13473
 745,63; 5874,169;  276,132;55307,940;10,17237
 746,19; 5924,612;  284,978;55291,671;10,25263
 746,76; 5872,594;  295,440;55333,787;10,13321
 747,33; 5915,806;  284,671;55331,287;10,22976
 747,90; 6013,403;  304,287;55570,172;10,33027
 748,47; 6015,385;  292,595;55467,287;10,37213
 749,04; 6061,751;  314,133;55417,095;10,43069
 749,61; 6049,194;  324,903;55368,827;10,39950
 750,17; 6068,868;  311,672;55477,865;10,43609
 750,74; 6109,157;  301,749;55411,981;10,53780
 751,31; 6069,754;  267,826;55307,404;10,54137
 751,88; 6044,659;  266,980;55142,289;10,52874
 752,45; 6094,717;  287,750;55391,174;10,53831
 753,02; 6102,083;  298,442;55082,674;10,59363
 753,58; 6124,603;  276,981;55049,098;10,67628
 754,15; 6202,662;  283,751;55229,829;10,77222
 754,72; 6148,490;  282,828;54954,406;10,72891
 755,29; 6147,548;  267,597;54789,445;10,78458
 755,86; 6214,607;  284,597;54987,330;10,84043
 756,42; 6259,896;  286,828;54919,830;10,93308
 756,99; 6206,954;  251,136;54833,253;10,91167
 757,56; 6240,859;  270,060;54787,677;10,95206
 758,13; 6248,302;  211,367;54778,869;11,06324
 758,70; 6333,822;  238,598;54822,677;11,16667
 759,26; 6342,035;  228,060;54837,562;11,19581
 759,83; 6395,939;  239,060;54939,293;11,25567
 760,40; 6408,536;  226,753;54823,793;11,32256
 760,97; 6424,133;  217,830;54841,678;11,36189
 761,53; 6359,499;  200,446;54453,948;11,35236
 762,10; 6378,173;  212,984;54440,756;11,36906
 762,67; 6456,078;  244,523;54427,102;11,46412
 763,24; 6362,982;  202,292;54032,295;11,44471
 763,80; 6442,502;  238,677;54121,334;11,51358
 764,37; 6449,484;  240,139;54150,218;11,51797
 764,94; 6392,850;  216,524;53655,411;11,55774
 765,50; 6405,370;  229,447;53698,681;11,55042
 766,07; 6486,429;  273,909;53765,258;11,61406
 766,64; 6462,641;  237,909;53484,912;11,69030
 767,21; 6435,623;  249,525;53336,874;11,65268
 767,77; 6561,758;  272,371;53316,989;11,85679
 768,34; 6537,586;  278,294;53213,182;11,82451
 768,91; 6604,337;  270,371;53061,836;11,99809
 769,47; 6607,318;  263,449;53144,952;11,99639
 770,04; 6603,915;  273,680;52968,529;12,01301
 770,61; 6581,974;  255,988;52776,106;12,04488
 771,18; 6610,648;  248,142;52584,299;12,15700
 771,74; 6653,783;  271,449;52771,953;12,15671
 772,31; 6688,611;  262,527;52573,530;12,28438
 772,88; 6701,746;  234,988;52332,800;12,41272
 773,44; 6679,497;  253,066;52111,300;12,39231
 774,01; 6743,786;  270,373;52206,262;12,46424
 774,58; 6715,306;  249,527;51799,300;12,54279
 775,14; 6743,826;  247,220;51982,955;12,55729
 775,71; 6774,346;  249,605;51886,147;12,63590
 776,27; 6807,405;  309,605;51837,878;12,61016
 776,84; 6881,617;  331,990;51829,917;12,71823
 777,41; 6856,752;  277,836;51661,109;12,80361
 777,97; 6879,811;  251,606;51326,225;12,97749
 778,54; 6900,716;  273,991;51381,572;12,96623
 779,11; 6940,236;  286,837;51416,610;13,01277
 779,67; 6941,217;  251,376;51394,803;13,08055
 780,24; 6961,583;  269,453;51262,457;13,12363
 780,80; 6989,257;  285,068;51128,957;13,18583
 781,37; 7046,931;  275,684;51131,765;13,31453
 781,94; 7026,297;  254,684;50875,035;13,37725
 782,50; 7113,279;  269,607;50789,920;13,54638
 783,07; 7114,953;  292,454;50872,805;13,48844
 783,63; 7093,011;  257,685;50595,997;13,57878
 784,20; 7099,454;  279,685;50630,651;13,54447
 784,77; 7123,205;  267,685;50313,844;13,69839
 785,33; 7117,879;  241,993;50191,806;13,76559
 785,90; 7181,784;  267,686;50231,998;13,83807
 786,46; 7191,765;  278,840;50231,191;13,83904
 787,03; 7193,285;  248,763;49988,460;13,96173
 787,59; 7186,421;  260,840;49854,807;13,96456
 788,16; 7256,402;  281,610;49774,076;14,09264
 788,73; 7283,384;  269,533;49591,192;14,22063
 789,29; 7250,519;  263,302;49230,615;14,26915
 789,86; 7314,578;  282,918;49188,731;14,37796
 790,42; 7353,559;  270,380;49006,693;14,53368
 790,99; 7339,079;  279,611;48804,424;14,54816
 791,55; 7342,292;  258,611;48747,001;14,60902
 792,12; 7366,273;  286,457;48744,194;14,61029
 792,68; 7367,793;  266,611;48385,386;14,75761
 793,25; 7371,390;  275,227;48188,348;14,81048
 793,81; 7429,218;  330,227;47839,233;14,94241
 794,38; 7378,123;  239,458;47655,426;15,05540
 794,94; 7406,258;  249,997;47471,003;15,15483
 795,51; 7376,778;  282,074;47346,272;15,07452
 796,07; 7377,990;  257,536;47077,696;15,20810
 796,64; 7425,511;  295,997;47173,273;15,20889
 797,20; 7376,723;  280,075;46664,312;15,29970
 797,77; 7355,089;  235,921;46331,043;15,44452
 798,33; 7372,455;  269,767;46193,928;15,46612
 798,90; 7371,975;  287,537;46098,505;15,46450
 799,46; 7373,188;  270,229;45575,928;15,67785
 800,03; 7376,015;  273,383;45513,275;15,69993
 800,59; 7385,151;  285,768;45370,390;15,74679
 801,15; 7404,671;  288,230;45134,198;15,86863
 801,72; 7384,729;  270,845;44878,006;15,94785
 802,28; 7385,480;  294,615;44557,122;16,02003
 802,85; 7360,923;  274,307;44399,930;16,06009
 803,41; 7358,136;  263,000;44169,892;16,15950
 803,98; 7354,425;  261,616;43746,777;16,31087
 804,54; 7374,714;  270,154;43444,738;16,45542
 805,11; 7343,388;  287,539;43330,623;16,39253
 805,67; 7352,139;  308,078;43278,200;16,39293
 806,23; 7294,966;  266,001;42761,085;16,54066
 806,80; 7369,179;  288,617;42695,124;16,69688
 807,36; 7348,083;  287,463;42689,394;16,65165
 807,93; 7348,680;  300,848;42473,740;16,71176
 808,49; 7342,124;  249,386;42084,317;16,95410
 809,05; 7298,028;  251,156;41995,356;16,88108
 809,62; 7371,702;  289,002;41842,933;17,04460
 810,18; 7395,376;  281,541;41730,818;17,16275
 810,74; 7379,588;  245,849;41519,780;17,28389
 811,31; 7365,647;  250,618;41268,511;17,34616
 811,87; 7432,244;  259,157;41163,627;17,53619
 812,44; 7492,379;  294,926;41136,204;17,62299
 813,00; 7418,668;  220,004;40883,166;17,70316
 813,56; 7512,727;  274,696;40935,204;17,80113
 814,13; 7553,862;  259,850;40745,474;18,01630
 814,69; 7549,075;  253,235;40594,666;18,08523
 815,25; 7538,133;  236,928;40200,705;18,26956
 815,82; 7601,961;  280,697;40209,436;18,33583
 816,38; 7586,481;  300,005;40000,552;18,35359
 816,94; 7570,155;  251,928;39694,129;18,55431
 817,51; 7541,675;  238,928;39506,322;18,59748
 818,07; 7534,349;  245,775;39250,976;18,68616
 818,63; 7523,715;  273,006;39023,861;18,71109
 819,20; 7513,927;  259,006;38979,823;18,73649
 819,76; 7486,755;  242,391;38565,092;18,90358
 820,32; 7559,813;  295,853;38508,823;19,00915
 820,89; 7594,795;  276,237;38269,323;19,26287
 821,45; 7521,853;  245,930;37985,747;19,27917
 822,01; 7527,143;  270,084;37748,939;19,36307
 822,57; 7566,355;  262,853;37571,747;19,57577
 823,14; 7525,029;  237,854;37367,786;19,62615
 823,70; 7508,549;  235,854;37118,902;19,71826
 824,26; 7481,992;  249,085;36961,325;19,70162
 824,82; 7566,897;  268,854;36806,748;19,97390
 825,39; 7540,109;  246,854;36566,787;20,08058
 825,95; 7529,321;  264,239;36537,211;20,02891
 826,51; 7504,534;  262,547;36125,634;20,19343
 827,08; 7559,054;  306,240;36207,211;20,20228
 827,64; 7514,882;  270,317;36035,481;20,25592
 828,20; 7465,940;  246,471;35772,519;20,32162
 828,76; 7514,537;  269,625;35703,635;20,44621
 829,32; 7543,826;  276,317;35643,289;20,54886
 829,89; 7498,500;  231,241;35524,712;20,59095
 830,45; 7552,097;  258,010;35444,982;20,72951
 831,01; 7539,232;  252,703;35229,790;20,83229
 831,57; 7554,291;  254,011;35069,983;20,96819
 832,14; 7546,657;  246,703;35026,252;20,98921
 832,70; 7525,946;  243,088;34855,522;21,04116
 833,26; 7520,620;  214,704;34669,560;21,20432
 833,82; 7622,140;  252,242;34709,291;21,38865
 834,38; 7612,737;  247,089;34666,407;21,39975
 834,95; 7580,719;  241,473;34489,753;21,42953
 835,51; 7575,162;  209,243;34402,561;21,54198
 836,07; 7661,451;  253,705;34454,908;21,65932
 836,63; 7767,741;  264,013;34434,485;21,95968
 837,19; 7746,337;  247,859;34274,139;22,03731
 837,75; 7694,704;  219,551;33980,563;22,14138
 838,32; 7753,916;  260,167;34076,371;22,16023
 838,88; 7787,359;  262,090;34127,948;22,22081
 839,44; 7821,187;  255,783;34055,756;22,38287
 840,00; 7856,168;  252,014;33936,179;22,57486
 840,56; 7813,919;  239,860;33756,295;22,59805
 841,12; 7828,824;  235,476;33652,410;22,72305
 841,68; 7811,729;  226,091;33490,526;22,80405
 842,25; 7875,864;  231,322;33469,488;22,99929
 842,81; 7837,692;  231,246;33316,142;22,99069
 843,37; 7895,596;  214,938;33260,950;23,24231
 843,93; 7933,270;  237,938;33145,219;23,38489
 844,49; 7990,252;  247,400;33174,566;23,51509
 845,05; 7960,926;  210,170;33065,912;23,59026
 845,61; 8025,984;  248,170;33106,643;23,67065
 846,17; 8022,120;  235,785;32907,298;23,83218
 846,73; 8037,332;  241,940;32803,721;23,94031
 847,29; 7964,544;  217,324;32683,913;23,86213
 847,86; 8019,372;  235,248;32657,260;24,00876
 848,42; 8034,354;  221,017;32423,376;24,26324
 848,98; 8052,566;  249,402;32411,414;24,26205
 849,54; 8056,470;  232,864;32420,376;24,30634
 850,10; 8018,144;  239,172;32242,261;24,30694
 850,66; 8032,972;  223,326;32169,223;24,44648
 851,22; 8032,492;  216,018;32044,492;24,55812
 851,78; 8113,858;  262,172;32190,300;24,59175
 852,34; 8055,994;  247,480;31902,878;24,66724
 852,90; 8053,591;  239,711;31744,301;24,80235
 853,46; 8040,572;  221,327;31626,878;24,89765
 854,02; 8132,862;  241,096;31540,686;25,21364
 854,58; 8040,535;  237,558;31283,648;25,13353
 855,14; 8077,517;  227,712;31230,148;25,31996
 855,70; 8014,422;  199,404;31072,802;25,31311
 856,26; 8105,865;  247,482;30999,610;25,55395
 856,82; 8017,846;  223,174;30911,803;25,39922
 857,38; 8118,212;  260,405;30765,842;25,75871
 857,94; 8085,348;  225,559;30693,342;25,79705
 858,50; 8065,637;  250,790;30567,073;25,77772
 859,06; 8023,157;  231,560;30390,266;25,83532
 859,62; 8097,985;  239,868;30330,612;26,11473
 860,18; 8032,120;  229,406;30161,112;26,06839
 860,74; 8009,333;  209,945;29971,689;26,20608
 861,30; 8010,237;  208,791;29742,882;26,41505
 861,86; 8143,527;  270,638;29919,075;26,55415
 862,42; 8054,277;  237,946;29764,806;26,47194
 862,98; 8122,490;  266,176;29637,075;26,74863
 863,54; 8066,010;  236,946;29389,960;26,85508
 864,10; 8125,145;  220,638;29537,691;26,96215
 864,66; 8072,665;  213,639;29320,191;27,00088
 865,22; 8065,878;  229,485;29208,769;27,04136
 865,78; 8079,859;  242,639;29062,269;27,19403
 866,34; 8120,687;  221,255;28983,154;27,46492
 866,90; 8114,668;  246,716;28842,346;27,51453
 867,45; 8090,112;  234,024;28601,462;27,69403
 868,01; 8075,247;  240,717;28463,808;27,75929
 868,57; 8080,921;  228,640;28331,924;27,94079
 869,13; 8108,441;  212,025;28131,732;28,28259
 869,69; 8024,884;  229,871;28104,463;27,96458
 870,25; 7996,327;  212,025;28013,425;27,99968
 870,81; 8096,847;  233,103;27915,694;28,40682
 871,37; 8097,598;  241,103;27851,426;28,45492
 871,93; 8104,272;  241,334;27679,310;28,65714
 872,49; 8105,561;  262,719;27451,272;28,84612
 873,04; 8063,927;  217,411;27275,849;28,99841
 873,60; 8043,755;  217,181;27180,965;29,02625
 874,16; 8065,737;  238,719;27138,312;29,09716
 874,72; 8057,121;  230,104;27081,927;29,14892
 875,28; 8099,813;  240,258;26971,773;29,40183
 875,84; 8063,737;  230,258;26915,388;29,35522
 876,40; 8085,813;  222,027;26777,388;29,61280
 876,95; 8128,967;  237,104;26837,004;29,66877
 877,51; 8154,198;  264,181;26826,235;29,70409
 878,07; 8156,121;  270,719;26808,004;29,71443
 878,63; 8139,275;  226,335;26831,004;29,74268
 879,19; 8224,813;  242,873;26770,696;30,08894
 879,75; 8233,813;  233,488;26885,388;30,01784
 880,30; 8292,275;  235,258;26834,388;30,29053
 880,86; 8380,275;  274,335;27011,312;30,31734
 881,42; 8332,813;  217,181;26987,696;30,31556
 881,98; 8437,352;  251,104;27128,850;30,45735
 882,54; 8510,660;  229,796;27205,542;30,69744
 883,09; 8594,429;  240,104;27280,927;30,89523
 883,65; 8614,890;  221,027;27450,235;30,82669
 884,21; 8737,506;  258,642;27607,927;31,00214
 884,77; 8733,352;  217,412;27540,696;31,16734
 885,32; 8842,967;  232,104;27752,158;31,28941
 885,88; 8949,044;  269,642;27948,927;31,35703
 886,44; 9013,737;  234,258;28056,773;31,55530
 887,00; 9074,660;  260,796;28002,388;31,77130
 887,56; 9065,275;  226,873;28174,927;31,62439
 888,11; 9121,737;  234,565;28173,465;31,80931
 888,67; 9219,660;  261,258;28362,927;31,87854
 889,23; 9205,813;  247,104;28360,696;31,86611
 889,79; 9244,506;  219,873;28214,927;32,23653
 890,34; 9324,813;  241,565;28168,235;32,52535
 890,90; 9468,044;  303,642;28337,619;32,69034
 891,46; 9427,121;  222,335;28240,235;32,85324
 892,01; 9460,198;  253,950;28197,927;32,94538
 892,57; 9452,429;  271,027;28211,465;32,86062
 893,13; 9401,198;  224,335;27922,235;33,13198
 893,69; 9445,352;  227,642;27872,081;33,34381
 894,24; 9424,660;  245,027;27818,542;33,29148
 894,80; 9462,275;  248,181;27712,004;33,54993
 895,36; 9482,737;  239,642;27574,235;33,81464
 895,91; 9402,813;  226,950;27331,773;33,85325
 896,47; 9447,506;  252,335;27288,619;34,01048
 897,03; 9385,737;  230,488;27012,158;34,18476
 897,58; 9387,352;  254,719;27080,619;34,04409
 898,14; 9333,737;  246,796;26719,235;34,32604
 898,70; 9288,890;  204,950;26620,312;34,38886
 899,25; 9333,429;  242,181;26628,465;34,45445
 899,81; 9310,275;  248,104;26450,696;34,58502
 900,37; 9279,583;  208,258;26203,696;34,89583
 900,92; 9296,429;  239,642;26209,081;34,87479
 901,48; 9223,044;  225,412;26078,465;34,80298
 902,03; 9203,583;  212,335;25948,773;34,93587
 902,59; 9178,429;  229,950;25837,081;34,94526
 903,15; 9206,121;  256,488;25704,542;35,16824
 903,70; 9123,121;  245,027;25477,081;35,18578
 904,26; 9140,044;  223,873;25315,773;35,53406
 904,82; 9158,429;  242,873;25352,542;35,50646
 905,37; 9198,737;  246,719;25189,619;35,89004
 905,93; 9094,121;  228,719;25007,312;35,77847
 906,48; 9134,890;  243,796;25006,850;35,90468
 907,04; 9166,198;  253,335;24911,388;36,14585
 907,60; 9117,737;  237,950;24700,542;36,29945
 908,15; 9038,352;  230,027;24588,696;36,16095
 908,71; 9104,352;  257,027;24614,081;36,32346
 909,26; 9061,813;  228,181;24422,619;36,51101
 909,82; 9018,121;  257,412;24211,388;36,57309
 910,37; 9061,967;  277,027;24242,081;36,65729
 910,93; 9057,044;  226,104;24083,312;37,01582
 911,48; 9002,429;  220,181;23858,388;37,15277
 912,04; 8986,890;  236,796;23776,312;37,17194
 912,60; 9065,967;  243,258;23848,235;37,37648
 913,15; 8995,044;  239,873;23565,619;37,53437
 913,71; 8914,967;  219,873;23403,696;37,50501
 914,26; 8943,429;  215,104;23348,850;37,72984
 914,82; 8907,890;  236,412;23261,312;37,66131
 915,37; 8948,813;  223,642;23194,927;37,98295
 915,93; 8993,890;  272,642;23073,158;38,25022
 916,48; 8902,737;  225,719;22937,081;38,20562
 917,04; 8938,044;  247,104;22802,696;38,53120
 917,59; 8912,890;  263,181;22762,158;38,44490
 918,15; 8819,352;  196,488;22562,388;38,55362
 918,70; 8784,813;  220,873;22468,696;38,49339
 919,26; 8816,890;  231,950;22437,081;38,66197
 919,81; 8748,890;  220,719;22235,312;38,73872
 920,37; 8733,813;  228,642;22167,158;38,76822
 920,92; 8798,044;  246,873;22137,081;39,06391
 921,48; 8724,583;  214,488;21839,081;39,35378
 922,03; 8739,044;  225,950;21859,081;39,35211
 922,59; 8710,583;  225,796;21713,158;39,48734
 923,14; 8688,198;  224,796;21644,312;39,51257
 923,69; 8672,813;  250,565;21559,388;39,52470
 924,25; 8711,275;  238,027;21438,619;39,96703
 924,80; 8586,352;  233,719;21291,312;39,66566
 925,36; 8604,967;  226,104;21189,312;39,96938
 925,91; 8591,506;  211,181;21066,542;40,18307
 926,47; 8603,813;  208,565;20966,081;40,44438
 927,02; 8620,890;  280,335;20992,235;40,26939
 927,57; 8586,044;  225,104;20790,696;40,65499
 928,13; 8543,275;  213,796;20660,388;40,73774
 928,68; 8571,660;  225,258;20638,312;40,88757
 929,24; 8501,583;  199,719;20421,388;41,05429
 929,79; 8504,737;  206,335;20327,235;41,24270
 930,34; 8431,583;  226,873;20180,465;41,11896
 930,90; 8413,429;  212,027;20141,465;41,15220
 931,45; 8459,737;  229,027;20157,927;41,30037
 932,01; 8432,506;  225,873;20021,465;41,45687
 932,56; 8426,737;  249,719;19868,388;41,67978
 933,11; 8426,737;  253,488;19857,927;41,69080
 933,67; 8349,583;  220,488;19695,388;41,74139
 934,22; 8326,660;  236,181;19596,312;41,78938
 934,77; 8309,044;  257,950;19538,158;41,75834
 935,33; 8324,275;  227,796;19370,850;42,29460
 935,88; 8276,429;  228,258;19341,158;42,10858
 936,43; 8240,275;  228,642;19217,235;42,19182
 936,99; 8221,275;  232,719;19116,927;42,30284
 937,54; 8171,890;  210,719;18954,773;42,47305
 938,09; 8138,275;  227,412;18975,388;42,19582
 938,65; 8068,275;  220,950;18836,850;42,15388
 939,20; 8065,813;  204,335;18707,773;42,48658
 939,75; 8051,967;  211,565;18689,619;42,43089
 940,31; 8042,429;  210,412;18486,850;42,85308
 940,86; 8071,737;  225,027;18508,004;42,91812
 941,41; 8057,890;  290,565;18399,542;42,89212
 941,96; 7976,737;  219,258;18250,619;43,02215
 942,52; 8027,352;  216,027;18174,235;43,49724
 943,07; 7963,121;  197,488;18061,696;43,47034
 943,62; 7950,737;  217,719;17999,081;43,48946
 944,18; 7907,583;  195,565;17954,158;43,42696
 944,73; 7949,967;  233,027;17856,388;43,78813
 945,28; 7848,890;  191,027;17627,927;43,91757
 945,83; 7930,044;  217,642;17686,773;44,14874
 946,39; 7936,737;  223,335;17662,004;44,23160
 946,94; 7955,429;  245,335;17545,542;44,56648
 947,49; 7863,660;  219,565;17453,696;44,35439
 948,04; 7887,506;  253,719;17367,542;44,60597
 948,59; 7879,275;  244,950;17351,773;44,62737
 949,15; 7834,737;  202,719;17219,850;44,84903
 949,70; 7821,506;  218,104;17085,235;45,07822
 950,25; 7801,583;  237,181;17045,158;45,00483
 950,80; 7725,044;  196,027;16909,081;45,04872
 951,36; 7688,121;  197,873;16863,235;44,94501
 951,91; 7729,275;  230,565;16832,927;45,16652
 952,46; 7656,506;  199,719;16575,158;45,53641
 953,01; 7650,890;  242,950;16650,619;45,14925
 953,56; 7622,429;  195,104;16489,542;45,58196
 954,11; 7657,737;  233,565;16458,312;45,75832
 954,67; 7635,506;  219,719;16418,312;45,78044
 955,22; 7540,198;  207,181;16251,773;45,70398
 955,77; 7521,429;  242,412;16265,004;45,42971
 956,32; 7585,813;  275,181;16178,927;45,96799
 956,87; 7497,967;  206,565;15991,235;46,19293
 957,42; 7491,737;  211,258;15955,850;46,24114
 957,98; 7462,813;  214,335;15911,465;46,17709
 958,53; 7472,967;  238,412;15814,004;46,44803
 959,08; 7406,890;  201,796;15706,619;46,47002
 959,63; 7397,044;  206,796;15611,312;46,67624
 960,18; 7394,660;  229,873;15587,312;46,65353
 960,73; 7402,660;  226,796;15466,158;47,08769
 961,28; 7358,506;  199,873;15403,312;47,08562
 961,83; 7357,429;  238,181;15367,619;47,05560
 962,39; 7314,198;  204,642;15236,542;47,29645
 962,94; 7299,890;  228,181;15135,158;47,43893
 963,49; 7275,890;  223,565;15083,158;47,45975
 964,04; 7246,506;  235,642;15060,927;47,28991
 964,59; 7168,429;  190,873;14878,773;47,50547
 965,14; 7199,121;  237,950;14853,158;47,62964
 965,69; 7117,352;  226,181;14738,388;47,48534
 966,24; 7130,660;  216,104;14616,465;48,01654
 966,79; 7083,737;  233,488;14561,158;47,81132
 967,34; 7048,121;  193,104;14409,696;48,21843
 967,89; 6997,737;  206,027;14404,312;47,83472
 968,44; 7001,737;  216,027;14305,773;48,16062
 968,99; 7004,737;  221,950;14292,465;48,20567
 969,55; 6973,429;  222,027;14166,619;48,41591
 970,10; 6889,813;  226,488;14098,312;48,03496
 970,65; 6909,044;  246,873;14004,696;48,42460
 971,20; 6895,813;  214,181;13909,773;48,78674
 971,75; 6825,506;  197,796;13668,542;49,20076
 972,30; 6799,583;  223,104;13699,081;48,80150
 972,85; 6778,890;  212,181;13631,004;48,93655
 973,40; 6746,121;  206,258;13559,158;48,97710
 973,95; 6728,813;  222,719;13453,312;49,17463
 974,50; 6725,737;  246,565;13406,773;49,23305
 975,05; 6703,121;  227,335;13275,619;49,62941
 975,60; 6669,583;  233,642;13192,388;49,66484
 976,15; 6607,429;  213,719;13086,158;49,66976
 976,70; 6618,121;  225,719;13024,312;49,94613
 977,25; 6625,890;  228,950;12980,388;50,16642
 977,80; 6532,737;  205,104;12853,542;50,02699
 978,35; 6489,044;  228,565;12647,773;50,40965
 978,89; 6466,813;  198,719;12588,388;50,59130
 979,44; 6467,583;  228,873;12625,081;50,32757
 979,99; 6399,890;  209,873;12401,619;50,77220
 980,54; 6403,121;  243,412;12386,850;50,72459
 981,09; 6355,890;  239,258;12232,388;51,00113
 981,64; 6289,121;  234,873;12097,773;51,03514
 982,19; 6275,660;  261,027;12125,081;50,69627
 982,74; 6235,275;  245,027;11893,081;51,42703
 983,29; 6146,583;  213,950;11764,619;51,36181
 983,84; 6127,429;  235,258;11668,773;51,53420
 984,39; 6153,044;  303,104;11711,542;51,27731
 984,94; 6034,967;  203,027;11481,619;51,70805
 985,49; 5996,813;  250,873;11470,542;51,21310
 986,03; 5974,660;  250,488;11413,235;51,27924
 986,58; 5942,890;  276,027;11242,619;51,67388
 987,13; 5860,121;  237,027;11119,465;51,67127
 987,68; 5842,198;  235,335;11045,773;51,86527
 988,23; 5816,352;  237,258;10984,850;51,91018
 988,78; 5719,813;  223,873;10863,235;51,65667
 989,33; 5731,583;  241,873;10732,696;52,32868
 989,88; 5721,813;  249,642;10721,619;52,25538
 990,42; 5603,583;  232,642;10586,158;51,87552
 990,97; 5577,429;  224,950;10463,004;52,28024
 991,52; 5537,352;  253,719;10376,850;52,19366
 992,07; 5528,121;  255,873;10301,927;52,48079
 992,62; 5474,967;  239,873;10217,773;52,46689
 993,17; 5463,583;  238,181;10072,004;53,13703
 993,71; 5380,506;  248,950; 9954,235;52,87383
 994,26; 5335,198;  222,181; 9825,850;53,24025
 994,81; 5346,198;  250,181; 9767,850;53,54270
 995,36; 5255,660;  226,719; 9628,773;53,48768
 995,91; 5237,198;  235,258; 9593,004;53,45241
 996,45; 5179,198;  236,335; 9483,619;53,45205
 997,00; 5091,506;  207,950; 9335,850;53,50142
 997,55; 5128,506;  233,873; 9334,927;53,78094
 998,10; 5094,121;  265,488; 9163,773;54,26476
 998,65; 5041,506;  231,412; 9172,465;53,79784
 999,19; 5028,583;  252,104; 9013,158;54,51946
 999,74; 4965,275;  276,181; 8985,542;53,83970
1000,29; 4968,737;  246,719; 8828,773;55,02200
1000,84; 4838,967;  223,104; 8741,696;54,18575
1001,38; 4812,967;  237,412; 8648,388;54,39981
1001,93; 4789,967;  248,181; 8601,158;54,37327
1002,48; 4728,737;  221,950; 8410,542;55,03738
1003,03; 4710,044;  238,565; 8394,696;54,82353
1003,57; 4671,121;  249,719; 8249,158;55,27140
1004,12; 4642,737;  272,412; 8205,235;55,09167
1004,67; 4539,121;  226,719; 8094,235;54,81275
1005,22; 4493,660;  217,796; 7967,081;55,17753
1005,76; 4419,813;  217,335; 7848,235;55,07186
1006,31; 4391,044;  247,642; 7815,850;54,74747
1006,86; 4286,352;  222,104; 7678,850;54,50431
1007,40; 4241,660;  210,950; 7571,850;54,75838
1007,95; 4253,890;  236,873; 7480,158;55,45850
1008,50; 4171,813;  231,642; 7337,388;55,45049
1009,04; 4120,967;  219,950; 7249,004;55,49847
1009,59; 4077,044;  240,412; 7142,312;55,58807
1010,14; 3997,121;  216,335; 7033,312;55,46134
1010,68; 3997,583;  229,565; 6973,773;55,87042
1011,23; 3902,890;  224,950; 6797,542;55,95875
1011,78; 3874,121;  234,181; 6780,465;55,60315
1012,32; 3833,890;  247,565; 6639,465;56,10734
1012,87; 3822,737;  253,412; 6621,081;56,05387
1013,42; 3756,198;  218,258; 6484,004;56,46479
1013,96; 3789,275;  258,488; 6507,081;56,50531
1014,51; 3726,275;  198,335; 6424,619;56,66205
1015,06; 3717,275;  204,335; 6429,158;56,43438
1015,60; 3785,506;  268,565; 6443,619;56,95400
1016,15; 3711,275;  224,104; 6407,542;56,39534
1016,69; 3766,660;  233,950; 6431,158;57,00486
1017,24; 3762,275;  205,258; 6454,927;56,91529
1017,79; 3806,813;  251,796; 6551,081;56,43525
1018,33; 3769,967;  218,412; 6526,158;56,30467
1018,88; 3821,352;  242,258; 6598,927;56,30455
1019,42; 3854,506;  229,412; 6609,388;56,81986
1019,97; 3845,813;  209,642; 6586,388;57,02236
1020,51; 3887,506;  243,335; 6614,927;57,19404
1021,06; 3870,583;  199,258; 6623,081;57,15171
1021,61; 3836,737;  204,258; 6566,081;57,09808
1022,15; 3824,583;  180,027; 6530,927;57,38645
1022,70; 3841,583;  223,873; 6544,388;57,23757
1023,24; 3824,660;  217,104; 6506,696;57,35755
1023,79; 3807,967;  214,873; 6440,312;57,71632
1024,33; 3781,737;  219,642; 6432,696;57,33242
1024,88; 3719,429;  224,565; 6301,158;57,51354
1025,42; 3684,121;  216,335; 6201,773;57,93705
1025,97; 3628,813;  219,027; 6159,696;57,39735
1026,51; 3549,583;  185,488; 6011,927;57,73843
1027,06; 3524,198;  206,488; 5991,850;57,34663
1027,60; 3535,352;  239,258; 5887,235;58,35885
1028,15; 3436,275;  245,873; 5774,696;57,70490
1028,69; 3337,737;  198,950; 5671,004;57,36030
1029,24; 3342,506;  217,104; 5593,542;58,13146
1029,78; 3282,967;  215,181; 5512,696;57,90991
1030,33; 3206,583;  196,565; 5423,542;57,58620
1030,87; 3204,967;  222,642; 5339,312;58,28645
1031,42; 3160,506;  202,181; 5270,850;58,36493
1031,96; 3140,506;  233,488; 5172,465;58,85869
1032,51; 3068,352;  211,796; 5112,696;58,28635
1033,05; 3090,583;  216,104; 5063,465;59,29986
1033,60; 2969,890;  191,950; 4923,927;58,70570
1034,14; 2976,813;  213,565; 4874,388;59,28670
1034,69; 2940,583;  219,642; 4796,312;59,45242
1035,23; 2922,890;  208,796; 4739,927;59,89883
1035,77; 2892,506;  201,412; 4670,388;60,21723
1036,32; 2826,660;  190,950; 4605,312;59,70761
1036,86; 2816,660;  214,335; 4557,312;59,92030
1037,41; 2779,275;  225,104; 4481,542;60,00724
1037,95; 2713,737;  194,104; 4382,773;60,15354
1038,50; 2688,967;  206,412; 4372,696;59,58680
1039,04; 2688,121;  233,027; 4333,235;59,87731
1039,58; 2628,737;  196,488; 4222,388;60,41501
1040,13; 2624,429;  218,181; 4185,004;60,65932
1040,67; 2617,121;  237,488; 4167,081;60,55673
1041,21; 2569,044;  238,565; 4070,696;60,81418
1041,76; 2490,737;  199,104; 4016,850;60,02580
1042,30; 2495,660;  215,104; 3950,158;61,05818
1042,85; 2431,583;  217,335; 3897,235;60,17142
1043,39; 2411,429;  207,258; 3822,235;60,97331
1043,93; 2427,813;  223,335; 3783,773;61,91594
1044,48; 2351,429;  223,412; 3736,850;60,56794
1045,02; 2340,429;  213,104; 3690,850;61,16965
1045,56; 2324,967;  232,719; 3675,850;60,76586
1046,11; 2279,275;  220,642; 3615,004;60,64860
1046,65; 2248,813;  229,488; 3556,773;60,68988
1047,19; 2211,352;  207,104; 3511,465;60,65462
1047,74; 2148,813;  197,950; 3420,388;60,53998
1048,28; 2153,044;  220,181; 3400,927;60,76761
1048,82; 2148,890;  238,719; 3362,388;61,15152
1049,37; 2107,583;  228,412; 3294,004;61,29880
1049,91; 2064,044;  230,796; 3252,158;60,67622
1050,45; 2053,890;  233,258; 3229,158;60,77081
1050,99; 2024,275;  216,642; 3161,927;61,37379
1051,54; 1985,044;  208,796; 3103,696;61,35784
1052,08; 1988,737;  250,796; 3090,235;61,20719
1052,62; 1965,813;  236,719; 3048,696;61,49034
1053,16; 1908,813;  217,412; 2967,004;61,51464
1053,71; 1916,352;  230,565; 2937,465;62,27739
1054,25; 1891,967;  241,719; 2895,773;62,17839
1054,79; 1854,121;  231,642; 2873,235;61,42049
1055,33; 1808,121;  195,488; 2796,696;61,99554
1055,88; 1788,660;  231,412; 2778,312;61,14288
1056,42; 1816,044;  245,873; 2757,388;62,51887
1056,96; 1789,660;  238,565; 2705,158;62,88409
1057,50; 1756,890;  224,104; 2676,312;62,50639
1058,05; 1736,352;  221,335; 2629,773;62,90455
1058,59; 1716,121;  247,565; 2595,850;62,53738
1059,13; 1661,352;  206,181; 2532,158;62,56172
1059,67; 1676,044;  224,642; 2534,235;62,84234
1060,21; 1635,044;  218,796; 2464,235;63,07223
1060,76; 1624,352;  229,565; 2448,081;62,87027
1061,30; 1625,737;  248,565; 2444,773;62,70678
1061,84; 1601,813;  229,796; 2349,312;64,73259
1062,38; 1542,890;  218,335; 2286,542;64,04365
1062,92; 1570,121;  266,488; 2345,081;62,71709
1063,46; 1529,044;  247,181; 2274,388;63,23296
1064,01; 1500,275;  224,412; 2233,927;63,49110
1064,55; 1498,044;  231,565; 2217,773;63,76367
1065,09; 1441,352;  204,565; 2145,388;63,72485
1065,63; 1472,583;  253,719; 2166,388;63,72578
1066,17; 1446,044;  262,796; 2143,465;62,91633
1066,71; 1440,275;  247,258; 2125,388;63,52153
1067,25; 1396,890;  241,950; 2079,927;62,83759
1067,80; 1408,890;  256,873; 2061,696;63,82993
1068,34; 1394,275;  258,950; 2065,619;62,84078
1068,88; 1363,121;  225,181; 1990,696;64,45372
1069,42; 1371,660;  252,488; 2018,696;63,36577
1069,96; 1314,813;  234,642; 1949,081;63,00437
1070,50; 1347,583;  276,488; 1963,081;63,50641
1071,04; 1292,660;  220,950; 1888,696;64,26096
1071,58; 1287,890;  232,796; 1878,081;64,12837
1072,12; 1275,737;  233,796; 1855,081;64,26635
1072,66; 1257,660;  227,181; 1840,158;63,88677
1073,21; 1258,506;  243,104; 1838,004;63,66555
1073,75; 1227,275;  238,488; 1792,850;63,61368
1074,29; 1234,429;  245,950; 1790,388;64,00248
1074,83; 1226,121;  250,642; 1768,542;64,26503
1075,37; 1202,352;  255,796; 1760,542;62,90468
1075,91; 1199,429;  255,873; 1747,312;63,26481
1076,45; 1171,660;  236,565; 1700,004;63,89707
1076,99; 1163,275;  245,488; 1654,004;65,15985
1077,53; 1124,352;  229,104; 1627,004;64,04235
1078,07; 1139,737;  242,258; 1641,927;64,12078
1078,61; 1114,198;  237,412; 1612,081;63,78164
1079,15; 1095,890;  235,719; 1601,004;63,00307
1079,69; 1095,813;  236,796; 1561,235;64,85898
1080,23; 1105,121;  253,335; 1567,850;64,79852
1080,77; 1139,352;  284,719; 1574,388;66,26759
1081,31; 1065,275;  219,565; 1499,235;66,08814
1081,85; 1081,198;  250,719; 1528,004;65,01909
1082,39; 1049,121;  228,027; 1476,927;65,74539
1082,93; 1049,660;  249,950; 1489,312;64,52593
1083,47; 1015,737;  228,565; 1438,773;65,04430
1084,01; 1030,198;  246,027; 1466,388;64,25728
1084,55; 1014,583;  235,258; 1420,004;65,77991
1085,09; 1017,583;  247,950; 1420,004;65,66530
1085,63;  995,737;  254,335; 1380,158;65,85421
1086,17;  974,506;  224,719; 1372,158;65,34438
1086,71;  951,352;  229,796; 1356,773;64,02578
1087,24;  988,044;  266,642; 1373,927;65,15054
1087,78;  971,660;  249,258; 1344,235;65,97417
1088,32;  929,121;  234,488; 1302,312;65,05129
1088,86;  954,198;  255,027; 1325,696;65,30226
1089,40;  929,121;  239,335; 1279,004;66,34673
1089,94;  903,660;  223,027; 1243,081;66,72517
1090,48;  916,198;  243,258; 1242,312;67,35777
1091,02;  925,275;  254,258; 1254,081;67,11360
1091,56;  889,813;  240,642; 1240,312;64,93860
1092,10;  881,737;  213,412; 1184,927;68,79201
1092,63;  903,198;  259,258; 1217,465;67,20259
1093,17;  869,044;  244,719; 1203,004;65,15027
1093,71;  844,737;  229,488; 1160,235;66,10267
1094,25;  854,737;  264,950; 1180,158;64,44292
1094,79;  832,429;  240,488; 1147,542;65,25967
1095,33;  842,890;  247,796; 1127,312;67,66161
1095,87;  826,506;  240,412; 1124,619;66,28468
1096,40;  793,275;  216,950; 1088,619;66,11740
1096,94;  798,506;  242,104; 1091,927;65,47268
1097,48;  812,967;  251,181; 1084,465;67,41833
1098,02;  789,044;  236,181; 1071,927;66,15208
1098,56;  745,660;  208,104; 1018,388;66,34160
1099,10;  749,121;  220,719; 1013,850;66,62230
1099,63;  760,429;  216,642; 1022,465;67,48213
1100,17;  765,352;  235,565; 1028,696;66,79687
1100,71;  775,583;  259,719; 1034,465;66,58484

