
Integration time [ms]: 120,000
Averaging Nr. [scans]: 13
Smoothing Nr. [pixels]: 0
Data measured with spectrometer [name]: 2009305U1
Wave   ;Sample   ;Dark     ;Reference;Reflectance
[nm]   ;[counts] ;[counts] ;[counts] ;[%]

 175,72;  194,004;  198,725;  209,729;-42,89651
 176,32;  222,382;  233,791;  221,495; 0,00000
 176,92;  249,859;  251,952;  246,144; 0,00000
 177,52;  260,092;  249,569;  261,381;89,09055
 178,12;  230,091;  210,945;  220,620;197,87933
 178,72;  251,408;  248,635;  250,038;197,58963
 179,32;  251,059;  255,406;  241,911; 0,00000
 179,92;  255,775;  255,641;  248,129; 0,00000
 180,52;  238,339;  233,115;  240,492;70,81145
 181,12;  255,392;  249,103;  245,056; 0,00000
 181,73;  282,548;  265,873;  272,598;247,94770
 182,33;  351,914;  349,879;  341,303; 0,00000
 182,93;  271,492;  259,492;  262,580;388,52464
 183,53;  239,435;  241,402;  230,123; 0,00000
 184,13;  235,053;  231,942;  223,284; 0,00000
 184,73;  280,494;  262,785;  270,840;219,85274
 185,33;  264,564;  235,800;  340,235;27,54256
 185,93;  266,533;  233,331;  341,231;30,77096
 186,53;  272,388;  252,412;  358,480;18,83268
 187,13;  309,359;  259,651;  408,456;33,40446
 187,73;  263,597;  235,102;  356,651;23,44331
 188,33;  279,680;  242,097;  355,217;33,22418
 188,93;  284,452;  252,084;  372,324;26,91959
 189,53;  275,261;  250,458;  375,462;19,84192
 190,13;  320,811;  288,441;  393,447;30,82640
 190,73;  257,004;  221,607;  354,699;26,59603
 191,34;  291,198;  261,772;  383,107;24,25162
 191,94;  269,702;  243,170;  355,212;23,68038
 192,54;  283,048;  244,657;  378,976;28,58200
 193,14;  295,265;  261,650;  386,945;26,82825
 193,74;  277,277;  256,803;  371,292;17,88313
 194,34;  288,961;  254,345;  379,723;27,60958
 194,94;  257,434;  215,650;  345,606;32,15208
 195,54;  228,027;  198,339;  325,621;23,32413
 196,14;  249,472;  226,731;  350,792;18,33074
 196,74;  244,484;  216,030;  338,690;23,19797
 197,34;  232,652;  203,967;  338,400;21,33798
 197,94;  253,605;  224,267;  375,503;19,39907
 198,54;  256,765;  232,346;  384,669;16,03059
 199,14;  243,273;  223,046;  367,104;14,04067
 199,74;  227,335;  202,354;  368,520;15,03357
 200,34;  225,383;  194,509;  366,971;17,90198
 200,94;  264,357;  234,889;  406,748;17,14689
 201,54;  256,240;  216,814;  407,160;20,71246
 202,14;  273,911;  240,665;  454,320;15,56052
 202,74;  252,011;  228,200;  447,857;10,84010
 203,34;  240,657;  181,976;  463,089;20,87427
 203,94;  207,066;  166,204;  459,631;13,92579
 204,54;  281,945;  236,729;  542,983;14,76424
 205,14;  246,950;  194,585;  536,212;15,32815
 205,74;  304,302;  237,668;  639,180;16,59572
 206,34;  262,603;  204,050;  630,780;13,72135
 206,94;  275,185;  210,433;  685,452;13,63145
 207,54;  256,587;  177,588;  721,425;14,52622
 208,14;  277,389;  208,358;  795,906;11,74896
 208,74;  281,780;  208,200;  848,241;11,49615
 209,34;  292,490;  207,355;  912,599;12,07170
 209,94;  306,274;  216,431; 1015,259;11,24676
 210,54;  319,053;  207,205; 1109,050;12,40208
 211,14;  320,919;  214,662; 1195,427;10,83413
 211,73;  328,823;  208,506; 1299,988;11,02326
 212,33;  350,218;  222,812; 1397,255;10,84827
 212,93;  350,272;  208,738; 1479,640;11,13647
 213,53;  319,688;  184,046; 1538,349;10,01561
 214,13;  355,401;  193,748; 1630,932;11,24786
 214,73;  360,834;  179,434; 1625,550;12,54392
 215,33;  333,120;  163,585; 1674,567;11,22016
 215,93;  377,301;  208,899; 1774,717;10,75493
 216,53;  349,209;  168,430; 1832,838;10,86148
 217,13;  410,715;  229,436; 2022,497;10,11000
 217,73;  423,887;  197,822; 2208,241;11,24464
 218,33;  415,572;  156,057; 2364,675;11,75011
 218,93;  480,604;  181,834; 2630,757;12,20005
 219,53;  519,711;  180,903; 2889,476;12,50871
 220,13;  517,037;  168,059; 3125,529;11,79990
 220,73;  585,474;  190,893; 3430,322;12,18058
 221,32;  641,165;  184,508; 3811,856;12,58928
 221,92;  697,529;  193,366; 4182,543;12,63826
 222,52;  727,441;  172,284; 4562,289;12,64593
 223,12;  787,934;  184,900; 4945,153;12,66812
 223,72;  838,612;  200,285; 5311,646;12,48840
 224,32;  884,828;  192,747; 5676,679;12,62017
 224,92;  920,643;  183,362; 5950,894;12,78331
 225,52; 1005,939;  207,356; 6276,099;13,15895
 226,12; 1019,406;  187,051; 6571,650;13,03692
 226,72; 1042,021;  160,666; 6841,878;13,19154
 227,31; 1094,682;  156,666; 7219,939;13,28019
 227,91; 1184,845;  190,894; 7541,280;13,52244
 228,51; 1227,128;  186,812; 7911,520;13,46738
 229,11; 1286,697;  181,820; 8271,138;13,65847
 229,71; 1327,102;  176,122; 8541,977;13,75806
 230,31; 1379,124;  169,748; 8933,640;13,79953
 230,91; 1434,892;  158,502; 9183,125;14,14341
 231,51; 1479,779;  167,360; 9538,918;14,00427
 232,10; 1544,757;  169,980; 9825,075;14,23887
 232,70; 1632,269;  177,422;10037,261;14,75528
 233,30; 1673,731;  204,206;10330,930;14,51136
 233,90; 1705,085;  173,898;10431,145;14,92785
 234,50; 1751,840;  173,514;10561,102;15,19434
 235,10; 1782,797;  170,439;10679,048;15,34321
 235,70; 1851,999;  196,355;10707,048;15,75199
 236,29; 1864,795;  189,507;10660,055;16,00000
 236,89; 1856,816;  164,349;10563,896;16,27443
 237,49; 1895,314;  187,436;10546,988;16,48602
 238,09; 1893,064;  169,434;10299,934;17,01427
 238,69; 1883,765;  199,577;10085,824;17,03566
 239,29; 1865,063;  173,126; 9816,008;17,54597
 239,89; 1832,924;  193,964; 9557,989;17,50273
 240,48; 1781,649;  169,819; 9189,380;17,87038
 241,08; 1793,923;  173,895; 8870,359;18,62859
 241,68; 1761,511;  202,973; 8542,428;18,68873
 242,28; 1689,792;  173,206; 8296,267;18,67013
 242,88; 1713,924;  210,364; 8015,271;19,26429
 243,48; 1693,406;  214,359; 7813,649;19,46297
 244,07; 1627,891;  190,279; 7524,495;19,60145
 244,67; 1630,589;  193,589; 7335,200;20,12152
 245,27; 1632,284;  198,121; 7224,988;20,40971
 245,87; 1630,307;  202,978; 7137,422;20,58318
 246,47; 1647,623;  186,737; 7152,619;20,97202
 247,06; 1611,278;  178,433; 7115,577;20,65468
 247,66; 1647,742;  190,742; 7171,967;20,87026
 248,26; 1694,148;  211,199; 7383,422;20,67627
 248,86; 1729,208;  187,583; 7554,528;20,92625
 249,46; 1732,101;  151,745; 7751,040;20,79609
 250,05; 1834,064;  205,203; 8059,625;20,73813
 250,65; 1883,744;  156,351; 8391,138;20,97678
 251,25; 1976,277;  175,510; 8846,420;20,76791
 251,85; 2084,339;  188,657; 9377,235;20,63086
 252,44; 2144,903;  152,046;10031,610;20,17151
 253,04; 2340,166;  201,662;10746,245;20,28060
 253,64; 2408,727;  153,197;11314,012;20,20937
 254,24; 2589,925;  191,741;12220,363;19,93731
 254,84; 2769,178;  166,745;13137,194;20,06433
 255,43; 2925,965;  180,354;13986,565;19,88678
 256,03; 3118,759;  179,120;14914,490;19,94954
 256,63; 3287,555;  182,657;15992,265;19,63931
 257,23; 3423,155;  178,195;16766,067;19,56224
 257,82; 3573,656;  187,423;17744,651;19,28683
 258,42; 3683,559;  152,113;18540,057;19,20523
 259,02; 3898,320;  195,508;19439,475;19,24142
 259,62; 3998,634;  174,574;20014,745;19,27433
 260,21; 4066,534;  187,584;20539,271;19,05960
 260,81; 4128,821;  174,128;20993,664;18,99511
 261,41; 4194,454;  166,037;21535,894;18,85093
 262,01; 4298,692;  206,264;21932,846;18,83604
 262,60; 4311,309;  161,657;22263,375;18,77525
 263,20; 4369,053;  174,198;22619,064;18,68960
 263,80; 4392,000;  197,880;22817,691;18,54180
 264,40; 4360,848;  155,342;23010,849;18,40040
 264,99; 4431,199;  195,802;23187,520;18,42140
 265,59; 4403,219;  168,336;23290,435;18,31531
 266,19; 4407,908;  175,572;23408,876;18,21668
 266,78; 4458,025;  207,185;23564,540;18,19915
 267,38; 4446,837;  185,875;23535,671;18,24839
 267,98; 4378,302;  178,493;23588,757;17,94004
 268,58; 4411,575;  189,029;23610,424;18,02858
 269,17; 4396,690;  178,179;23588,237;18,02008
 269,77; 4338,644;  192,578;23479,767;17,80406
 270,37; 4315,429;  161,110;23253,673;17,98986
 270,96; 4304,102;  219,115;23179,220;17,79167
 271,56; 4246,447;  181,041;22949,788;17,85520
 272,16; 4191,823;  181,652;22839,153;17,69908
 272,75; 4168,731;  179,345;22647,263;17,75592
 273,35; 4177,072;  185,962;22752,668;17,68583
 273,95; 4151,870;  182,345;22634,525;17,67991
 274,54; 4121,525;  162,280;22661,239;17,59746
 275,14; 4215,872;  199,500;23009,838;17,60768
 275,74; 4175,792;  157,729;22979,523;17,60625
 276,33; 4298,675;  206,040;23339,167;17,69166
 276,93; 4341,450;  185,666;23789,475;17,60641
 277,53; 4427,472;  184,200;24196,394;17,67132
 278,12; 4505,803;  159,196;24656,393;17,74328
 278,72; 4688,809;  210,968;25209,099;17,91270
 279,32; 4748,762;  177,353;25795,343;17,84453
 279,91; 4875,606;  173,275;26468,338;17,88294
 280,51; 5021,965;  180,661;27006,795;18,04697
 281,11; 5213,729;  181,582;27679,169;18,30032
 281,70; 5250,174;  155,889;28143,812;18,20172
 282,30; 5431,831;  175,887;28664,557;18,44924
 282,90; 5554,323;  184,733;29140,880;18,54387
 283,49; 5713,288;  191,654;29639,315;18,75067
 284,09; 5894,712;  209,735;30013,118;19,07494
 284,69; 5988,577;  208,352;30383,634;19,15550
 285,28; 6168,419;  198,581;30659,164;19,59857
 285,88; 6345,699;  234,268;31004,553;19,86147
 286,47; 6432,108;  178,656;30948,156;20,32354
 287,07; 6547,162;  220,122;30971,081;20,57510
 287,67; 6746,637;  205,282;31249,572;21,07104
 288,26; 6898,069;  173,583;31154,111;21,70552
 288,86; 7071,066;  177,427;31163,873;22,24727
 289,46; 7345,576;  194,890;31354,786;22,94836
 290,05; 7547,138;  176,971;31383,773;23,61718
 290,65; 7848,553;  191,425;31591,261;24,38588
 291,24; 8096,455;  197,814;31745,730;25,03697
 291,84; 8378,939;  198,734;31851,188;25,84383
 292,44; 8687,807;  193,513;31994,544;26,71075
 293,03; 8987,132;  249,968;32153,222;27,38644
 293,63; 9226,600;  186,964;32285,480;28,16216
 294,22; 9531,283;  208,736;32427,446;28,93520
 294,82; 9717,110;  179,111;32457,635;29,54905
 295,41; 9801,174;  168,197;32179,428;30,09249
 296,01;10008,529;  220,882;32137,119;30,66667
 296,61;10087,532;  209,660;31938,498;31,13216
 297,20;10102,345;  198,652;31498,260;31,64159
 297,80;10183,740;  189,818;31371,885;32,05022
 298,39;10100,570;  168,349;31012,542;32,20127
 298,99;10153,671;  196,577;30953,082;32,37395
 299,58;10174,912;  210,666;30637,168;32,74858
 300,18;10162,662;  218,664;30536,651;32,79900
 300,78;10087,534;  187,969;30175,812;33,01193
 301,37;10155,997;  210,801;30210,608;33,15087
 301,97;10158,314;  192,736;30210,385;33,19906
 302,56;10176,861;  180,117;30097,031;33,41502
 303,16;10209,458;  178,501;30021,826;33,61206
 303,75;10192,090;  188,816;30056,938;33,49147
 304,35;10281,242;  181,592;30296,229;33,53735
 304,94;10273,730;  192,275;30223,710;33,56968
 305,54;10296,934;  202,738;30212,702;33,63615
 306,13;10229,996;  162,515;30220,877;33,49311
 306,73;10211,376;  171,667;29981,020;33,67973
 307,33;10214,713;  197,897;30003,878;33,60673
 307,92;10189,855;  200,276;30009,930;33,51122
 308,52;10396,012;  164,039;30460,332;33,77302
 309,11;10511,312;  184,805;30865,317;33,65820
 309,71;10534,323;  165,957;31097,892;33,51994
 310,30;10617,101;  168,199;31341,744;33,51849
 310,90;10766,332;  214,660;31732,359;33,47856
 311,49;10732,469;  187,198;31844,388;33,31082
 312,09;10759,308;  150,125;31981,436;33,32939
 312,68;10964,842;  221,508;32445,118;33,33994
 313,28;10943,932;  164,968;32508,776;33,32621
 313,87;10884,131;  155,737;32612,835;33,05408
 314,47;10941,514;  179,883;32880,460;32,90961
 315,06;10962,933;  164,892;33020,392;32,86525
 315,66;11009,693;  163,895;33161,590;32,86835
 316,25;10883,628;  153,271;33134,720;32,53452
 316,85;10886,770;  150,895;33146,514;32,53727
 317,44;10873,390;  168,882;33320,627;32,28943
 318,04;10755,585;  157,041;33358,819;31,92162
 318,63;10721,392;  156,129;33413,451;31,76823
 319,22;10706,937;  181,886;33687,260;31,41302
 319,82;10700,095;  176,965;33726,732;31,36573
 320,41;10588,999;  188,887;33581,370;31,14507
 321,01;10562,691;  194,740;33730,664;30,91595
 321,60;10482,204;  183,350;33856,364;30,58489
 322,20;10343,194;  167,276;33758,639;30,29326
 322,79;10326,871;  207,430;33929,362;30,00849
 323,39;10275,379;  173,438;34018,334;29,84775
 323,98;10160,549;  164,200;33942,472;29,59402
 324,58;10075,873;  173,116;33789,917;29,45776
 325,17; 9899,214;  185,502;33722,475;28,96419
 325,76; 9813,654;  194,121;33481,634;28,89832
 326,36; 9677,568;  166,894;33169,218;28,81820
 326,95; 9531,266;  201,197;32821,858;28,60172
 327,55; 9317,618;  172,273;32580,839;28,21891
 328,14; 9143,480;  161,050;32147,564;28,08193
 328,74; 8981,645;  198,502;31792,923;27,79966
 329,33; 8836,860;  195,278;31370,401;27,71948
 329,92; 8593,267;  154,959;30887,103;27,45760
 330,52; 8420,480;  189,204;30203,412;27,42460
 331,11; 8183,373;  187,197;29806,103;26,99687
 331,71; 7973,144;  178,967;29282,569;26,78080
 332,30; 7799,576;  195,506;28842,479;26,54406
 332,89; 7673,536;  236,124;28405,815;26,40218
 333,49; 7390,897;  194,351;27811,673;26,05809
 334,08; 7239,372;  177,196;27493,100;25,85371
 334,68; 7105,495;  192,581;27000,316;25,78701
 335,27; 6963,621;  191,512;26650,986;25,59427
 335,86; 6851,604;  222,889;26456,564;25,26796
 336,46; 6710,498;  194,436;26199,541;25,05686
 337,05; 6624,804;  176,966;26018,241;24,95170
 337,65; 6532,895;  160,811;25875,670;24,77977
 338,24; 6552,887;  224,123;25891,948;24,65641
 338,83; 6414,288;  200,738;25754,918;24,31520
 339,43; 6361,121;  173,348;25758,583;24,18494
 340,02; 6304,566;  175,578;25570,534;24,13467
 340,61; 6285,148;  177,122;25648,038;23,98039
 341,21; 6238,337;  210,963;25690,769;23,65549
 341,80; 6188,572;  189,657;25615,084;23,59415
 342,40; 6164,265;  180,589;25697,459;23,44988
 342,99; 6150,536;  179,355;25775,661;23,32829
 343,58; 6086,091;  181,355;25977,863;22,88967
 344,18; 6150,753;  197,971;26092,927;22,98819
 344,77; 6117,674;  165,732;26394,318;22,69258
 345,36; 6182,035;  166,658;26652,242;22,71189
 345,96; 6272,506;  207,432;26959,571;22,67136
 346,55; 6234,641;  170,207;27168,889;22,46196
 347,14; 6248,927;  163,435;27487,598;22,27147
 347,74; 6307,943;  144,827;27869,864;22,22942
 348,33; 6449,388;  178,596;28420,892;22,20355
 348,92; 6548,118;  181,599;29109,307;22,00838
 349,52; 6628,469;  159,597;29486,131;22,05808
 350,11; 6640,857;  177,654;29780,485;21,83306
 350,70; 6626,717;  172,122;29801,438;21,78449
 351,29; 6542,378;  170,031;29587,678;21,66165
 351,89; 6559,374;  198,574;29521,502;21,69224
 352,48; 6512,671;  154,891;29577,683;21,60835
 353,07; 6502,790;  190,436;29611,494;21,45523
 353,67; 6477,181;  195,061;29508,263;21,43102
 354,26; 6410,404;  186,127;29303,183;21,37674
 354,85; 6388,816;  183,049;29206,884;21,38163
 355,45; 6291,263;  160,580;28976,851;21,27507
 356,04; 6282,607;  177,667;28863,558;21,28203
 356,63; 6250,374;  201,736;28756,951;21,18225
 357,22; 6216,690;  182,033;28529,688;21,28803
 357,82; 6137,940;  178,573;28303,126;21,18920
 358,41; 6195,222;  197,198;28225,802;21,39965
 359,00; 6067,137;  169,194;28039,475;21,16212
 359,60; 6117,718;  190,200;27965,671;21,34084
 360,19; 6050,100;  189,283;27739,961;21,27286
 360,78; 6048,710;  188,811;27658,808;21,33200
 361,37; 6002,465;  176,735;27434,916;21,37241
 361,97; 5991,729;  189,428;27383,861;21,33635
 362,56; 5899,011;  173,116;27056,561;21,29896
 363,15; 5945,571;  215,273;26861,468;21,50513
 363,74; 5852,899;  191,806;26488,153;21,52806
 364,34; 5805,136;  201,425;26092,628;21,64330
 364,93; 5706,394;  181,423;25766,867;21,59420
 365,52; 5637,219;  158,350;25396,410;21,70876
 366,11; 5630,306;  179,348;25099,599;21,87361
 366,71; 5529,168;  171,271;24664,030;21,87543
 367,30; 5526,004;  181,274;24351,150;22,11319
 367,89; 5512,200;  218,356;24117,806;22,15049
 368,48; 5455,254;  193,114;23831,370;22,26112
 369,07; 5424,486;  180,045;23481,745;22,50669
 369,67; 5401,840;  211,038;23145,589;22,63311
 370,26; 5330,379;  176,584;22904,962;22,67560
 370,85; 5310,204;  189,581;22579,595;22,87012
 371,44; 5314,790;  185,197;22472,583;23,01568
 372,03; 5271,844;  164,425;22167,136;23,21268
 372,63; 5264,805;  157,812;21893,705;23,49566
 373,22; 5232,316;  178,276;21618,236;23,57299
 373,81; 5193,880;  160,581;21348,164;23,75589
 374,40; 5166,495;  189,357;21109,918;23,79065
 374,99; 5159,186;  173,119;20805,236;24,16653
 375,59; 5178,294;  172,818;20548,239;24,56624
 376,18; 5205,172;  201,657;20421,884;24,74509
 376,77; 5221,899;  195,044;20284,216;25,02271
 377,36; 5227,388;  210,812;20218,225;25,07359
 377,95; 5229,753;  197,579;19936,400;25,49379
 378,55; 5214,691;  170,740;19722,664;25,79772
 379,14; 5254,526;  197,196;19652,640;25,99442
 379,73; 5282,338;  190,195;19586,848;26,25269
 380,32; 5390,667;  193,428;19698,446;26,64565
 380,91; 5361,809;  180,730;19479,572;26,84658
 381,50; 5427,380;  201,731;19462,208;27,13146
 382,10; 5443,283;  173,582;19341,830;27,49182
 382,69; 5507,634;  153,196;19281,655;27,99200
 383,28; 5544,274;  205,655;19266,811;28,00785
 383,87; 5590,551;  175,116;19108,719;28,60224
 384,46; 5621,541;  165,112;19057,158;28,88215
 385,05; 5722,057;  219,270;19032,316;29,24985
 385,64; 5727,768;  181,194;19079,829;29,34907
 386,24; 5791,571;  165,265;19008,018;29,85926
 386,83; 5902,200;  200,649;19082,215;30,19639
 387,42; 6000,661;  206,964;19161,969;30,56553
 388,01; 6113,130;  193,645;19331,088;30,93143
 388,60; 6253,681;  194,266;19613,654;31,20291
 389,19; 6394,872;  170,485;19711,863;31,85234
 389,78; 6554,736;  180,564;20001,915;32,15811
 390,37; 6802,443;  238,340;20408,716;32,54329
 390,96; 6882,540;  193,188;20570,771;32,82701
 391,56; 7005,237;  191,407;20731,732;33,17295
 392,15; 7183,939;  188,103;21012,597;33,59426
 392,74; 7270,807;  164,630;21139,528;33,87943
 393,33; 7496,990;  186,714;21382,297;34,48962
 393,92; 7686,060;  192,780;21783,988;34,70524
 394,51; 7790,266;  170,175;21988,050;34,92591
 395,10; 8043,699;  212,461;22189,538;35,63366
 395,69; 8115,025;  206,155;22317,361;35,76861
 396,28; 8241,659;  205,150;22429,043;36,16158
 396,87; 8374,700;  208,293;22506,720;36,62324
 397,46; 8498,317;  212,979;22584,582;37,03507
 398,06; 8659,146;  224,355;22908,699;37,18331
 398,65; 8759,152;  211,721;22862,365;37,73593
 399,24; 8946,083;  227,025;23077,241;38,15744
 399,83; 8998,330;  208,688;23078,877;38,43275
 400,42; 9167,783;  248,124;23183,898;38,88973
 401,01; 9258,244;  221,325;23296,255;39,16337
 401,60; 9400,468;  244,208;23371,456;39,59079
 402,19; 9450,308;  257,022;23296,956;39,90153
 402,78; 9495,759;  257,588;23374,469;39,96288
 403,37; 9580,661;  233,156;23158,178;40,77425
 403,96; 9546,223;  244,024;23048,728;40,79070
 404,55; 9665,695;  262,271;22963,326;41,42285
 405,14; 9651,686;  238,215;22846,319;41,63760
 405,73; 9726,873;  260,611;22788,222;42,02071
 406,32; 9781,582;  259,029;22622,115;42,58157
 406,91; 9742,983;  257,594;22411,638;42,81561
 407,50; 9754,560;  264,260;22245,873;43,17381
 408,09; 9699,768;  226,473;21951,682;43,60508
 408,68; 9718,833;  254,536;21879,207;43,76620
 409,27; 9670,283;  246,476;21712,453;43,90113
 409,86; 9690,504;  256,439;21553,202;44,29812
 410,45; 9767,774;  293,934;21550,876;44,56822
 411,04; 9802,229;  292,352;21485,723;44,87194
 411,63; 9733,091;  286,935;21190,695;45,18879
 412,22; 9703,437;  280,668;20981,662;45,51844
 412,81; 9666,405;  302,989;20780,234;45,72595
 413,40; 9573,504;  310,469;20416,348;46,07128
 413,99; 9529,385;  342,848;20183,307;46,30204
 414,58; 9360,377;  277,159;19746,662;46,65357
 415,17; 9310,774;  279,605;19575,189;46,80433
 415,76; 9252,049;  270,666;19419,040;46,90415
 416,35; 9302,235;  276,443;19110,200;47,92348
 416,94; 9371,964;  310,670;19268,010;47,79834
 417,53; 9435,669;  280,221;19408,256;47,86403
 418,12; 9579,584;  269,533;19521,995;48,35772
 418,71; 9740,797;  298,316;19861,765;48,26593
 419,30; 9851,264;  287,073;20065,109;48,35764
 419,89;10021,994;  272,460;20163,447;49,01483
 420,48;10162,875;  294,085;20362,535;49,17564
 421,07;10305,789;  290,165;20498,503;49,56184
 421,66;10331,791;  266,558;20466,188;49,82880
 422,25;10347,701;  271,189;20540,583;49,71294
 422,84;10397,862;  299,962;20440,598;50,13695
 423,43;10271,586;  287,647;20178,320;50,19407
 424,02;10222,346;  302,727;19996,442;50,36947
 424,60;10044,586;  280,439;19584,206;50,58156
 425,19; 9943,535;  296,044;19327,453;50,69247
 425,78; 9922,891;  293,661;19228,750;50,85389
 426,37; 9911,167;  300,437;19061,951;51,22577
 426,96; 9858,921;  276,206;18925,136;51,38480
 427,55; 9815,974;  275,294;18888,508;51,25756
 428,14; 9716,892;  267,837;18586,022;51,58292
 428,73; 9617,981;  288,366;18469,381;51,31514
 429,32; 9637,487;  285,513;18413,992;51,58720
 429,91; 9694,043;  320,982;18460,799;51,67120
 430,50; 9604,609;  300,065;18279,640;51,75063
 431,08; 9559,220;  307,455;18121,157;51,93623
 431,67; 9517,385;  330,460;18059,181;51,81945
 432,26; 9452,487;  352,773;17866,633;51,95722
 432,85; 9289,299;  372,079;17525,688;51,98452
 433,44; 9178,530;  388,471;17227,983;52,19901
 434,03; 8980,997;  402,711;16826,982;52,22932
 434,62; 8783,070;  359,087;16459,216;52,32246
 435,21; 8691,824;  365,618;16298,030;52,25954
 435,79; 8554,758;  376,323;16109,888;51,98082
 436,38; 8520,040;  368,410;15986,717;52,19279
 436,97; 8490,920;  351,796;15943,277;52,20238
 437,56; 8342,627;  366,118;15775,296;51,76466
 438,15; 8328,896;  330,960;15658,418;52,18045
 438,74; 8359,745;  358,116;15673,578;52,24543
 439,33; 8303,926;  334,421;15641,739;52,06337
 439,91; 8307,124;  308,120;15728,245;51,87379
 440,50; 8374,710;  353,275;15720,771;52,19741
 441,09; 8443,373;  352,437;15858,362;52,17964
 441,68; 8380,406;  330,291;15871,755;51,79766
 442,27; 8342,830;  309,595;15870,416;51,62475
 442,86; 8337,545;  286,691;15851,837;51,72360
 443,44; 8396,614;  306,610;15894,282;51,90002
 444,03; 8438,315;  376,999;16005,300;51,58152
 444,62; 8326,145;  300,075;15815,177;51,73070
 445,21; 8269,141;  324,227;15685,782;51,71946
 445,80; 8170,177;  356,622;15621,797;51,18549
 446,39; 8063,758;  367,697;15356,081;51,34684
 446,97; 7931,259;  300,708;15192,640;51,23949
 447,56; 7823,476;  305,024;14946,971;51,34872
 448,15; 7756,181;  323,939;14810,409;51,30472
 448,74; 7630,091;  331,940;14558,368;51,29996
 449,33; 7490,596;  323,946;14452,718;50,72380
 449,91; 7374,109;  318,033;14243,239;50,67125
 450,50; 7288,658;  307,954;13988,738;51,02562
 451,09; 7239,769;  335,493;13900,297;50,89845
 451,68; 7151,069;  356,497;13844,731;50,37407
 452,26; 7058,878;  340,040;13735,304;50,15831
 452,85; 7000,550;  319,499;13610,323;50,26814
 453,44; 7002,331;  341,974;13683,567;49,92175
 454,03; 6956,592;  314,351;13625,594;49,89948
 454,61; 6933,487;  311,590;13609,495;49,79654
 455,20; 6999,942;  338,979;13743,391;49,69232
 455,79; 6952,510;  348,740;13741,725;49,30768
 456,38; 7028,541;  342,063;13817,793;49,61867
 456,97; 6997,552;  330,061;13863,829;49,26559
 457,55; 6977,733;  329,759;13876,516;49,07429
 458,14; 6963,056;  356,290;13890,729;48,81448
 458,73; 6867,966;  341,529;13835,213;48,36661
 459,31; 6927,152;  366,306;13850,064;48,65740
 459,90; 6937,404;  383,302;13974,214;48,22415
 460,49; 6983,753;  420,299;14008,495;48,30261
 461,08; 6896,114;  340,310;14107,021;47,62070
 461,66; 6950,074;  341,306;14143,370;47,88246
 462,25; 6973,921;  349,006;14205,437;47,81112
 462,84; 6927,731;  376,465;14250,179;47,22071
 463,43; 6915,232;  301,938;14247,046;47,42376
 464,01; 6852,224;  339,172;14309,864;46,61940
 464,60; 6875,118;  396,704;14200,171;46,93324
 465,19; 6706,199;  339,251;13997,782;46,61517
 465,77; 6684,161;  340,871;13977,125;46,51784
 466,36; 6634,940;  371,245;13839,631;46,50664
 466,95; 6438,373;  353,477;13528,774;46,18412
 467,53; 6276,895;  350,645;13289,085;45,80343
 468,12; 6148,943;  372,646;13030,152;45,63535
 468,71; 6041,693;  349,714;12788,109;45,76136
 469,29; 5846,715;  337,032;12597,465;44,93873
 469,88; 5722,430;  341,805;12287,066;45,04401
 470,47; 5776,276;  410,505;12431,822;44,63547
 471,06; 5702,292;  365,120;12397,793;44,35566
 471,64; 5803,088;  375,118;12462,030;44,90783
 472,23; 5707,749;  332,518;12524,681;44,08759
 472,81; 5781,581;  330,972;12651,188;44,24118
 473,40; 5783,488;  343,056;12714,206;43,97677
 473,99; 5894,750;  441,364;12943,375;43,62007
 474,57; 5888,857;  349,979;13036,466;43,65967
 475,16; 5955,153;  370,204;13165,595;43,64813
 475,75; 5981,115;  376,600;13294,845;43,38449
 476,33; 5996,050;  383,837;13411,872;43,07797
 476,92; 6044,353;  386,288;13452,566;43,30280
 477,51; 5985,091;  371,757;13544,460;42,61338
 478,09; 5994,768;  368,526;13511,952;42,80651
 478,68; 5980,511;  375,529;13454,486;42,85496
 479,27; 5965,346;  407,139;13495,077;42,46817
 479,85; 5910,280;  381,605;13495,561;42,15871
 480,44; 5937,409;  364,993;13660,405;41,91232
 481,02; 6459,465;  382,306;14973,490;41,64953
 481,61; 7232,368;  404,380;16859,203;41,49536
 482,20; 7661,312;  382,844;18027,106;41,25119
 482,78; 7983,329;  415,453;18824,862;41,10874
 483,37; 8177,221;  404,160;19388,819;40,94391
 483,95; 8313,716;  414,546;19540,072;41,30172
 484,54; 8320,751;  429,918;19769,660;40,80113
 485,13; 8249,284;  405,860;19637,609;40,78372
 485,71; 8190,925;  383,088;19561,922;40,71070
 486,30; 8056,448;  414,396;19225,799;40,62457
 486,88; 7893,021;  453,937;18897,130;40,33512
 487,47; 7662,825;  439,784;18158,769;40,76441
 488,05; 7253,892;  423,480;17350,736;40,35156
 488,64; 6741,166;  419,870;16087,163;40,34709
 489,23; 6015,942;  438,174;14340,035;40,12246
 489,81; 5136,238;  428,406;12265,536;39,77173
 490,40; 4840,687;  387,177;11679,649;39,43786
 490,98; 4712,000;  377,333;11388,277;39,36690
 491,57; 4678,051;  389,405;11305,362;39,28786
 492,15; 4636,587;  379,719;11271,497;39,08332
 492,74; 4573,047;  391,249;11185,046;38,74260
 493,32; 4549,245;  401,179;11096,090;38,78542
 493,91; 4498,147;  371,029;10997,172;38,83928
 494,50; 4457,876;  396,040;10987,804;38,34901
 495,08; 4414,891;  367,578;10899,848;38,42773
 495,67; 4422,452;  393,490;10870,398;38,45564
 496,25; 4357,973;  329,188;10741,795;38,69141
 496,84; 4304,098;  352,951;10758,565;37,97130
 497,42; 4271,239;  346,344;10738,589;37,76753
 498,01; 4258,747;  371,414;10640,741;37,85382
 498,59; 4186,625;  337,653;10625,516;37,41275
 499,18; 4179,810;  341,722;10495,159;37,80087
 499,76; 4148,665;  361,958;10446,642;37,54909
 500,35; 4057,543;  344,581;10305,032;37,27705
 500,93; 3992,915;  327,267;10285,849;36,80893
 501,52; 3980,471;  332,883;10186,900;37,01625
 502,10; 3946,183;  357,201;10166,328;36,58819
 502,69; 3880,499;  332,974; 9938,653;36,93154
 503,27; 3742,123;  315,963; 9848,314;35,94245
 503,86; 3737,064;  333,818; 9763,892;36,08929
 504,44; 3710,780;  317,822; 9600,262;36,55244
 505,03; 3556,180;  297,206; 9442,846;35,63417
 505,61; 3538,700;  323,205; 9319,101;35,74402
 506,19; 3497,964;  353,052; 9155,045;35,72954
 506,78; 3395,426;  304,906; 8972,804;35,65478
 507,36; 3337,778;  317,744; 8825,028;35,49939
 507,95; 3263,495;  315,679; 8697,312;35,16995
 508,53; 3226,180;  315,444; 8551,911;35,33961
 509,12; 3188,754;  330,293; 8424,091;35,31668
 509,70; 3133,296;  337,141; 8297,561;35,12572
 510,29; 3064,750;  342,760; 8155,917;34,83855
 510,87; 2958,995;  312,906; 7973,279;34,54256
 511,46; 2916,383;  299,523; 7826,672;34,76562
 512,04; 2842,714;  312,219; 7675,583;34,36602
 512,62; 2808,214;  315,985; 7551,241;34,44562
 513,21; 2733,228;  298,068; 7394,888;34,31340
 513,79; 2660,638;  304,542; 7274,481;33,80368
 514,38; 2617,060;  278,384; 7111,677;34,22473
 514,96; 2602,289;  328,691; 7037,290;33,89081
 515,54; 2516,541;  293,309; 6884,424;33,73074
 516,13; 2507,896;  316,540; 6833,644;33,62469
 516,71; 2430,522;  308,699; 6687,051;33,26601
 517,30; 2374,270;  285,396; 6596,440;33,09870
 517,88; 2384,669;  311,780; 6533,254;33,31829
 518,46; 2311,289;  281,167; 6366,725;33,35967
 519,05; 2263,127;  310,247; 6315,772;32,51805
 519,63; 2272,523;  301,630; 6284,195;32,94395
 520,22; 2217,616;  318,330; 6201,767;32,28191
 520,80; 2192,602;  306,715; 6200,647;31,99709
 521,38; 2208,482;  338,325; 6179,452;32,01706
 521,97; 2176,824;  302,334; 6099,770;32,33309
 522,55; 2148,778;  319,257; 6071,093;31,80760
 523,13; 2119,845;  281,260; 6101,751;31,58815
 523,72; 2105,688;  296,397; 6063,462;31,37282
 524,30; 2163,498;  310,955; 6224,858;31,32521
 524,89; 2138,272;  285,719; 6213,573;31,25166
 525,47; 2164,055;  315,803; 6325,757;30,75318
 526,05; 2148,041;  278,958; 6353,561;30,76882
 526,64; 2207,323;  316,421; 6509,940;30,53032
 527,22; 2241,593;  310,033; 6629,372;30,56585
 527,80; 2265,522;  341,652; 6780,615;29,87857
 528,39; 2255,312;  301,808; 6769,289;30,20502
 528,97; 2288,755;  299,345; 6970,083;29,82294
 529,55; 2333,568;  317,491; 7159,382;29,46667
 530,14; 2386,286;  338,810; 7344,514;29,22584
 530,72; 2389,509;  298,422; 7454,499;29,22114
 531,30; 2416,195;  278,888; 7545,394;29,41313
 531,89; 2461,087;  310,657; 7640,840;29,33665
 532,47; 2497,014;  338,274; 7729,848;29,20541
 533,05; 2490,229;  343,267; 7796,815;28,80457
 533,63; 2497,739;  332,891; 7857,868;28,76884
 534,22; 2495,555;  304,506; 7869,622;28,96252
 534,80; 2532,412;  328,588; 7970,261;28,83954
 535,38; 2614,381;  410,504; 8060,182;28,81006
 535,97; 2509,799;  323,198; 8016,588;28,42182
 536,55; 2551,490;  368,974; 8064,957;28,35916
 537,13; 2569,932;  373,810; 8034,684;28,66673
 537,71; 2566,485;  417,348; 8098,650;27,97880
 538,30; 2561,035;  430,431; 8181,139;27,48916
 538,88; 2586,898;  465,362; 8229,021;27,32650
 539,46; 2669,134;  506,050; 8422,968;27,32231
 540,05; 2690,387;  525,283; 8532,797;27,03840
 540,63; 2755,033;  571,745; 8710,352;26,82631
 541,21; 2777,055;  617,364; 8894,721;26,09156
 541,79; 2828,255;  626,210; 9006,166;26,27753
 542,38; 2844,016;  656,437; 9154,071;25,74339
 542,96; 2916,726;  673,291; 9277,109;26,07487
 543,54; 2938,777;  681,055; 9495,579;25,61366
 544,12; 2976,657;  650,903; 9687,525;25,73699
 544,70; 2966,834;  649,214; 9723,665;25,54006
 545,29; 3010,093;  661,052; 9906,533;25,40745
 545,87; 2965,332;  639,902; 9891,628;25,13510
 546,45; 2970,262;  584,052; 9943,577;25,49499
 547,03; 2968,929;  577,285; 9993,574;25,39900
 547,62; 2936,733;  551,441;10139,292;24,87828
 548,20; 3026,370;  553,444;10248,429;25,50727
 548,78; 3003,469;  521,916;10419,246;25,07296
 549,36; 3061,498;  482,684;10605,949;25,47413
 549,94; 3027,859;  446,673;10779,283;24,98097
 550,53; 3086,310;  442,298;10983,233;25,08327
 551,11; 3105,550;  426,534;11153,871;24,97374
 551,69; 3154,836;  445,376;11457,040;24,60536
 552,27; 3183,413;  393,296;11683,084;24,71363
 552,85; 3282,104;  399,918;12082,685;24,67040
 553,44; 3332,066;  399,145;12322,039;24,59907
 554,02; 3391,254;  410,224;12702,216;24,25181
 554,60; 3430,598;  360,611;12983,243;24,32129
 555,18; 3526,852;  398,377;13365,010;24,12712
 555,76; 3557,808;  365,609;13720,647;23,90259
 556,34; 3655,329;  378,230;14113,353;23,85926
 556,93; 3715,237;  370,454;14482,627;23,70140
 557,51; 3743,191;  350,077;14769,016;23,53235
 558,09; 3869,960;  382,300;15199,180;23,53842
 558,67; 3907,244;  375,465;15515,784;23,32698
 559,25; 3983,517;  390,386;15819,991;23,28725
 559,83; 3998,265;  365,467;16095,458;23,09472
 560,41; 4076,696;  368,768;16443,224;23,06721
 561,00; 4143,891;  367,234;16785,108;23,00332
 561,58; 4190,387;  344,767;17004,453;23,08339
 562,16; 4233,597;  347,534;17336,702;22,87377
 562,74; 4272,685;  347,378;17721,201;22,59323
 563,32; 4356,896;  347,775;18125,965;22,55078
 563,90; 4449,106;  361,234;18462,138;22,58380
 564,48; 4521,293;  365,305;18914,710;22,40497
 565,06; 4598,135;  365,772;19433,227;22,19679
 565,65; 4757,045;  363,088;20044,403;22,32552
 566,23; 4923,860;  410,542;20815,016;22,11926
 566,81; 5032,609;  353,232;21434,806;22,19653
 567,39; 5231,160;  363,315;22300,678;22,18975
 567,97; 5336,150;  385,694;22920,733;21,96781
 568,55; 5519,926;  388,621;23740,671;21,97368
 569,13; 5638,491;  364,696;24467,832;21,88012
 569,71; 5839,304;  359,610;25327,132;21,94729
 570,29; 6066,621;  396,608;26245,011;21,93564
 570,87; 6247,810;  396,840;26985,343;22,00564
 571,45; 6284,121;  377,926;27601,029;21,69552
 572,03; 6383,393;  343,239;27961,222;21,87037
 572,61; 6476,695;  334,236;28658,824;21,68596
 573,20; 6635,777;  385,616;29390,848;21,54839
 573,78; 6767,988;  367,006;29875,934;21,69168
 574,36; 6854,031;  373,312;30441,759;21,55322
 574,94; 6935,241;  435,086;30797,227;21,40875
 575,52; 6910,886;  378,016;31008,304;21,32814
 576,10; 7033,542;  432,859;31624,738;21,16154
 576,68; 7142,654;  417,700;32064,698;21,24990
 577,26; 7280,830;  439,173;32824,747;21,12563
 577,84; 7340,155;  435,082;33311,515;21,00311
 578,42; 7400,230;  473,857;33478,651;20,98596
 579,00; 7366,542;  436,775;33635,442;20,87363
 579,58; 7458,626;  469,932;33937,228;20,88216
 580,16; 7372,801;  456,089;33933,363;20,66092
 580,74; 7379,248;  449,474;34083,319;20,60357
 581,32; 7362,505;  440,779;34167,862;20,52275
 581,90; 7367,185;  464,781;34101,747;20,52029
 582,48; 7333,970;  455,012;34282,332;20,33551
 583,06; 7362,965;  455,856;34362,937;20,37070
 583,64; 7331,980;  454,471;34531,442;20,18228
 584,22; 7256,043;  456,171;34396,463;20,03481
 584,80; 7125,630;  481,857;34079,390;19,77459
 585,38; 6995,729;  479,538;33694,321;19,61835
 585,96; 7020,882;  448,161;33857,462;19,67333
 586,54; 6946,856;  469,478;33797,750;19,43508
 587,12; 6921,466;  449,398;34103,124;19,23136
 587,70; 6952,945;  476,238;34127,726;19,24642
 588,28; 6886,327;  458,244;34244,785;19,02557
 588,86; 6886,669;  462,169;34299,191;18,98660
 589,44; 6844,052;  442,022;34369,330;18,86985
 590,02; 6866,602;  447,020;34636,214;18,77664
 590,59; 6842,701;  429,477;34723,288;18,70082
 591,17; 6828,128;  426,029;35011,854;18,51076
 591,75; 6819,335;  422,101;35141,481;18,42554
 592,33; 6854,054;  444,407;35301,180;18,38853
 592,91; 6834,479;  385,181;35532,062;18,34956
 593,49; 6896,178;  390,569;35894,385;18,32369
 594,07; 6950,101;  415,030;36051,230;18,33829
 594,65; 6883,349;  419,478;36152,307;18,08945
 595,23; 6910,340;  409,558;36498,582;18,01318
 595,81; 6924,975;  407,252;36607,944;18,00441
 596,39; 6939,160;  398,945;36722,423;18,00548
 596,97; 6932,217;  397,027;36945,738;17,88077
 597,55; 6863,753;  380,480;36785,822;17,80858
 598,12; 6882,274;  392,801;36843,285;17,80353
 598,70; 6840,681;  377,413;36958,283;17,66844
 599,28; 6858,112;  393,182;37213,576;17,55801
 599,86; 6823,373;  380,797;37142,896;17,52505
 600,44; 6756,838;  347,645;37263,443;17,36165
 601,02; 6817,255;  410,961;37241,988;17,39374
 601,60; 6746,028;  387,409;37168,790;17,28760
 602,18; 6716,934;  361,493;37299,344;17,20577
 602,75; 6661,758;  359,559;37367,219;17,02944
 603,33; 6691,451;  377,951;37360,591;17,07152
 603,91; 6652,295;  361,573;37324,497;17,01900
 604,49; 6673,898;  386,490;37421,470;16,97694
 605,07; 6649,427;  387,870;37436,834;16,90076
 605,65; 6624,086;  397,030;37586,878;16,74397
 606,23; 6666,746;  457,246;37731,038;16,65916
 606,80; 6622,727;  498,175;37784,818;16,42559
 607,38; 6607,154;  531,418;37725,308;16,33531
 607,96; 6619,804;  575,328;37784,125;16,24475
 608,54; 6612,593;  649,646;37914,093;16,00171
 609,12; 6604,004;  630,406;37903,880;16,02641
 609,70; 6579,711;  660,566;38026,295;15,84111
 610,27; 6562,525;  682,020;38081,214;15,72362
 610,85; 6563,710;  702,489;38111,217;15,66806
 611,43; 6565,973;  688,720;38030,852;15,73893
 612,01; 6442,887;  662,254;37782,215;15,57284
 612,59; 6444,926;  667,258;37907,018;15,51478
 613,16; 6360,535;  620,863;37815,017;15,43165
 613,74; 6318,574;  589,336;37665,576;15,45259
 614,32; 6294,179;  559,569;37691,925;15,44370
 614,90; 6244,552;  529,102;37567,978;15,43095
 615,48; 6163,230;  482,018;37205,946;15,47005
 616,05; 6148,657;  448,093;37231,614;15,49760
 616,63; 6071,083;  445,630;37017,359;15,38197
 617,21; 6054,972;  452,174;36928,245;15,36020
 617,79; 5984,530;  431,945;36883,378;15,23283
 618,36; 5981,242;  443,332;36837,895;15,21631
 618,94; 5868,339;  381,250;36430,579;15,22106
 619,52; 5826,023;  405,554;36255,639;15,11982
 620,10; 5807,389;  391,944;36205,497;15,12122
 620,67; 5787,976;  395,630;36085,806;15,10877
 621,25; 5740,704;  413,794;35996,666;14,97043
 621,83; 5694,277;  393,481;35913,241;14,92352
 622,41; 5684,584;  443,096;35948,624;14,76246
 622,98; 5614,852;  398,553;35616,127;14,81164
 623,56; 5609,727;  406,860;35652,446;14,76176
 624,14; 5557,493;  388,334;35464,029;14,73715
 624,72; 5552,062;  383,634;35382,209;14,76754
 625,29; 5500,697;  375,091;35419,278;14,62612
 625,87; 5508,791;  404,484;35448,009;14,56562
 626,45; 5417,802;  358,474;35305,518;14,47713
 627,02; 5374,531;  376,638;35172,688;14,36339
 627,60; 5372,684;  365,953;35208,750;14,36949
 628,18; 5309,620;  336,406;35183,034;14,27172
 628,76; 5325,222;  343,630;35152,622;14,31122
 629,33; 5317,735;  377,787;35141,849;14,20993
 629,91; 5315,236;  360,329;35171,958;14,23348
 630,49; 5330,118;  375,401;35215,998;14,22110
 631,06; 5275,993;  374,785;35425,240;13,98329
 631,64; 5261,865;  362,321;35408,705;13,98017
 632,22; 5200,828;  332,395;35337,755;13,90768
 632,79; 5256,798;  357,395;35576,586;13,91117
 633,37; 5250,595;  343,793;35634,186;13,90407
 633,95; 5248,540;  348,089;35788,117;13,82745
 634,52; 5258,600;  335,557;35793,285;13,88426
 635,10; 5236,034;  331,174;35839,663;13,81320
 635,68; 5280,382;  337,703;36062,263;13,83552
 636,25; 5227,728;  323,237;35952,922;13,76518
 636,83; 5283,761;  314,784;36204,083;13,84529
 637,41; 5256,303;  339,240;36289,950;13,67723
 637,98; 5307,733;  345,009;36452,163;13,74443
 638,56; 5268,094;  340,005;36522,485;13,62010
 639,13; 5246,098;  318,860;36600,787;13,58042
 639,71; 5360,532;  363,554;36768,087;13,72625
 640,29; 5234,619;  288,554;36497,658;13,65973
 640,86; 5242,017;  312,093;36735,158;13,53517
 641,44; 5219,799;  313,478;36666,581;13,49629
 642,02; 5242,428;  344,939;36703,158;13,47010
 642,59; 5218,518;  316,555;36858,197;13,41473
 643,17; 5236,915;  318,863;36784,774;13,48671
 643,74; 5241,159;  307,786;36875,121;13,49120
 644,32; 5228,249;  335,248;36776,006;13,42728
 644,89; 5198,570;  329,633;36777,275;13,35872
 645,47; 5230,814;  340,479;36918,852;13,36947
 646,05; 5169,211;  337,787;36779,199;13,25806
 646,62; 5148,532;  322,326;36798,930;13,23096
 647,20; 5184,314;  333,403;36934,507;13,25346
 647,77; 5104,789;  306,018;36822,392;13,14142
 648,35; 5098,956;  310,711;36681,738;13,16500
 648,92; 5096,738;  327,557;36769,469;13,08708
 649,50; 5101,213;  287,327;36593,124;13,25928
 650,08; 5038,533;  298,173;36527,470;13,08433
 650,65; 5079,393;  301,481;36760,893;13,10474
 651,23; 5131,867;  294,789;37478,009;13,00877
 651,80; 5274,342;  282,097;38426,279;13,08783
 652,38; 5376,432;  297,943;38764,010;13,20252
 652,95; 5387,752;  282,251;39119,125;13,14601
 653,53; 5444,919;  318,021;39376,395;13,12625
 654,10; 5478,625;  339,328;39472,357;13,13289
 654,68; 5428,099;  289,021;39460,626;13,11940
 655,25; 5456,574;  285,867;39602,434;13,15147
 655,83; 5443,894;  284,637;39603,857;13,12146
 656,40; 5444,523;  318,252;39534,204;13,07190
 656,98; 5420,074;  288,714;39457,089;13,10077
 657,55; 5395,011;  299,253;39281,589;13,07197
 658,13; 5302,947;  294,407;39005,397;12,93829
 658,70; 5284,652;  310,869;38751,436;12,93889
 659,28; 5131,280;  314,253;37982,782;12,78793
 659,85; 5002,293;  305,254;37119,206;12,75886
 660,43; 5014,306;  321,177;37207,629;12,72318
 661,00; 5009,089;  304,100;37314,591;12,71258
 661,58; 5015,025;  300,639;37590,860;12,64242
 662,15; 5059,269;  281,024;37801,361;12,73508
 662,73; 5129,589;  346,409;38066,938;12,68058
 663,30; 5101,679;  300,409;38285,515;12,63988
 663,88; 5129,462;  315,178;38452,169;12,62366
 664,45; 5137,782;  290,717;38705,285;12,61778
 665,03; 5160,180;  296,333;38921,093;12,59256
 665,60; 5310,193;  372,563;39514,747;12,61460
 666,17; 5247,283;  304,718;39569,709;12,58772
 666,75; 5274,527;  301,564;39834,209;12,57938
 667,32; 5334,463;  321,718;40222,863;12,56291
 667,90; 5362,630;  297,872;40553,979;12,58134
 668,47; 5405,874;  316,257;40718,941;12,59722
 669,05; 5450,348;  299,719;41088,210;12,62765
 669,62; 5372,592;  274,565;41105,710;12,48563
 670,19; 5405,682;  287,411;41229,826;12,50114
 670,77; 5421,849;  293,719;41441,249;12,46279
 671,34; 5477,939;  301,258;41367,134;12,60580
 671,92; 5472,952;  281,643;41697,327;12,53465
 672,49; 5450,119;  309,643;41711,443;12,41607
 673,06; 5433,286;  256,643;41810,404;12,45770
 673,64; 5450,606;  287,720;41795,982;12,43821
 674,21; 5427,312;  279,721;41652,251;12,44205
 674,79; 5492,555;  305,567;41889,982;12,47340
 675,36; 5486,184;  307,106;42048,405;12,40756
 675,93; 5430,120;  269,798;41923,290;12,38869
 676,51; 5506,979;  296,337;42038,791;12,48284
 677,08; 5493,838;  300,029;42205,676;12,39406
 677,65; 5554,698;  300,876;42223,945;12,53205
 678,23; 5541,941;  299,722;42528,138;12,41396
 678,80; 5572,339;  287,261;42656,253;12,47393
 679,38; 5568,198;  284,030;42765,984;12,43862
 679,95; 5639,288;  303,184;42939,100;12,51551
 680,52; 5671,993;  285,338;43307,216;12,52073
 681,10; 5766,083;  299,338;43558,870;12,63709
 681,67; 5790,404;  298,493;43842,832;12,61223
 682,24; 5812,263;  268,570;43972,563;12,68464
 682,82; 5872,969;  280,108;44494,448;12,64943
 683,39; 5991,366;  326,186;44959,179;12,69281
 683,96; 5989,918;  289,032;45091,371;12,72453
 684,54; 6019,162;  276,109;45456,641;12,71134
 685,11; 6107,790;  309,340;45702,833;12,77375
 685,68; 6135,265;  286,186;46266,487;12,72084
 686,25; 6119,970;  269,033;46346,142;12,69814
 686,83; 6177,291;  281,187;46473,950;12,76413
 687,40; 6211,304;  273,418;46719,296;12,78453
 687,97; 6297,701;  297,110;47163,489;12,80362
 688,55; 6261,330;  260,264;47251,297;12,77066
 689,12; 6288,112;  244,188;47453,335;12,80244
 689,69; 6343,741;  250,342;47563,451;12,87888
 690,26; 6365,061;  267,880;47710,336;12,85174
 690,84; 6364,305;  276,958;47853,298;12,79491
 691,41; 6403,164;  288,496;48013,567;12,81228
 691,98; 6443,947;  295,189;48194,683;12,83679
 692,56; 6422,344;  278,881;48329,260;12,78546
 693,13; 6520,742;  328,728;48309,991;12,90507
 693,70; 6489,678;  300,574;48497,568;12,84127
 694,27; 6508,537;  272,728;48602,222;12,90270
 694,84; 6517,166;  274,344;48711,184;12,88858
 695,42; 6587,102;  331,728;48858,454;12,89057
 695,99; 6604,038;  292,190;49050,723;12,94511
 696,56; 6593,897;  285,575;48886,531;12,97983
 697,13; 6627,602;  302,960;49344,339;12,89654
 697,71; 6684,692;  269,806;49297,147;13,08430
 698,28; 6699,705;  279,345;49636,724;13,00790
 698,85; 6670,334;  255,422;49652,917;12,98631
 699,42; 6734,808;  259,884;49787,879;13,07326
 699,99; 6781,283;  299,115;49910,456;13,06590
 700,57; 6821,065;  294,269;50012,802;13,12749
 701,14; 6859,155;  271,423;50102,610;13,22010
 701,71; 6916,630;  310,808;50372,803;13,19528
 702,28; 6899,797;  286,193;50343,765;13,21200
 702,85; 6913,887;  287,193;50442,034;13,21247
 703,43; 6980,900;  305,116;50729,842;13,23911
 704,00; 7054,990;  323,270;50879,650;13,31527
 704,57; 6985,926;  295,193;50869,381;13,22954
 705,14; 7074,708;  320,578;51078,189;13,30663
 705,71; 7100,336;  325,348;51209,536;13,31453
 706,28; 7106,734;  297,425;51085,036;13,40742
 706,86; 7184,055;  334,810;51220,152;13,46015
 707,43; 7210,991;  349,502;51187,113;13,49687
 708,00; 7170,850;  322,272;51296,614;13,43534
 708,57; 7146,709;  303,964;51216,191;13,44028
 709,14; 7226,491;  323,118;51342,845;13,53079
 709,71; 7238,043;  303,426;51511,961;13,54192
 710,28; 7341,979;  294,888;51644,769;13,72368
 710,86; 7318,915;  311,196;51785,884;13,61391
 711,43; 7361,005;  324,196;51754,539;13,68221
 712,00; 7376,634;  315,504;51848,654;13,70211
 712,57; 7445,416;  311,350;52033,308;13,79311
 713,14; 7396,660;  300,735;52068,655;13,70719
 713,71; 7427,134;  311,428;52110,540;13,73712
 714,28; 7436,378;  294,043;52009,194;13,81091
 714,85; 7436,622;  282,428;51853,925;13,87238
 715,42; 7517,789;  290,121;52085,887;13,95417
 716,00; 7587,725;  358,659;52233,310;13,93564
 716,57; 7604,430;  290,044;52298,579;14,06382
 717,14; 7551,059;  278,967;52131,541;14,02455
 717,71; 7576,456;  261,045;52118,965;14,10664
 718,28; 7680,239;  308,429;52350,926;14,16498
 718,85; 7675,482;  262,891;52374,504;14,22445
 719,42; 7698,880;  289,661;52479,081;14,19678
 719,99; 7674,431;  269,122;52273,735;14,23972
 720,56; 7769,829;  299,353;52573,851;14,29086
 721,13; 7785,073;  271,661;52641,043;14,34696
 721,70; 7808,009;  261,969;52528,851;14,43752
 722,27; 7885,022;  285,969;52482,890;14,55843
 722,84; 7951,343;  332,354;52699,775;14,54910
 723,41; 7934,894;  267,662;52779,891;14,60085
 723,98; 7967,523;  282,970;52943,391;14,59265
 724,55; 8044,382;  312,509;52994,814;14,67641
 725,12; 8000,164;  239,124;52916,776;14,73308
 725,69; 8077,254;  274,586;53109,584;14,76799
 726,27; 8135,113;  278,586;53314,700;14,81354
 726,84; 8218,742;  291,817;53571,892;14,87784
 727,41; 8269,524;  292,048;53460,008;15,00429
 727,98; 8292,460;  301,202;53736,508;14,95501
 728,55; 8350,781;  322,202;53596,470;15,07027
 729,12; 8399,794;  271,664;53726,816;15,20551
 729,69; 8446,268;  304,741;53872,086;15,19868
 730,26; 8479,512;  303,665;54140,048;15,18647
 730,82; 8537,295;  291,203;54027,163;15,34557
 731,39; 8548,000;  297,204;54132,971;15,32586
 731,96; 8588,244;  271,434;54460,395;15,34779
 732,53; 8674,103;  293,204;54703,357;15,40319
 733,10; 8762,962;  303,281;54686,011;15,55582
 733,67; 8864,283;  296,358;54987,973;15,66588
 734,24; 8767,296;  282,743;54595,704;15,62160
 734,81; 8814,847;  323,897;54758,819;15,59835
 735,38; 8854,168;  284,436;54541,550;15,79467
 735,95; 8836,566;  291,282;54325,974;15,81444
 736,52; 8916,271;  307,975;54542,320;15,87241
 737,09; 8887,361;  300,052;54205,128;15,93043
 737,66; 8976,451;  338,283;54294,628;16,00955
 738,23; 9000,233;  283,206;54435,282;16,09731
 738,80; 9135,939;  347,206;54783,244;16,14506
 739,37; 9126,798;  307,360;54988,283;16,12891
 739,94; 9216,580;  291,361;54960,783;16,32580
 740,51; 9317,901;  398,822;54989,976;16,33796
 741,07; 9238,375;  287,669;55001,784;16,35904
 741,64; 9364,696;  305,361;55283,207;16,47816
 742,21; 9414,017;  287,438;55298,861;16,59033
 742,78; 9396,722;  265,515;55003,439;16,68168
 743,35; 9499,581;  296,054;55360,631;16,71406
 743,92; 9562,517;  321,439;55485,901;16,75187
 744,49; 9598,992;  315,978;55347,324;16,86859
 745,06; 9627,620;  283,747;55364,517;16,96395
 745,63; 9657,403;  276,132;55307,940;17,04700
 746,19; 9709,031;  284,978;55291,671;17,13256
 746,76; 9774,583;  295,440;55333,787;17,22280
 747,33; 9777,211;  284,671;55331,287;17,24455
 747,90; 9913,916;  304,287;55570,172;17,38800
 748,47; 9944,314;  292,595;55467,287;17,49302
 749,04; 9984,096;  314,133;55417,095;17,54890
 749,61; 9991,648;  324,903;55368,827;17,56188
 750,17;10107,353;  311,672;55477,865;17,75667
 750,74;10092,443;  301,749;55411,981;17,76566
 751,31;10118,379;  267,826;55307,404;17,89722
 751,88;10114,854;  266,980;55142,289;17,94591
 752,45;10151,405;  287,750;55391,174;17,90026
 753,02;10206,649;  298,442;55082,674;18,08587
 753,58;10262,508;  276,981;55049,098;18,23104
 754,15;10293,752;  283,751;55229,829;18,21786
 754,72;10315,381;  282,828;54954,406;18,35058
 755,29;10332,163;  267,597;54789,445;18,45969
 755,86;10377,253;  284,597;54987,330;18,45000
 756,42;10463,727;  286,828;54919,830;18,62775
 756,99;10448,356;  251,136;54833,253;18,68235
 757,56;10431,753;  270,060;54787,677;18,63928
 758,13;10489,151;  211,367;54778,869;18,83499
 758,70;10592,703;  238,598;54822,677;18,96909
 759,26;10599,408;  228,060;54837,562;18,99184
 759,83;10681,882;  239,060;54939,293;19,09100
 760,40;10653,049;  226,753;54823,793;19,09682
 760,97;10733,216;  217,830;54841,678;19,25054
 761,53;10776,614;  200,446;54453,948;19,49398
 762,10;10802,319;  212,984;54440,756;19,52751
 762,67;10804,332;  244,523;54427,102;19,48931
 763,24;10780,038;  202,292;54032,295;19,65028
 763,80;10770,204;  238,677;54121,334;19,54530
 764,37;10796,910;  240,139;54150,218;19,58218
 764,94;10776,461;  216,524;53655,411;19,76077
 765,50;10785,705;  229,447;53698,681;19,74268
 766,07;10901,949;  273,909;53765,258;19,86871
 766,64;10876,270;  237,909;53484,912;19,97927
 767,21;10882,437;  249,525;53336,874;20,02909
 767,77;10897,911;  272,371;53316,989;20,03133
 768,34;10957,386;  278,294;53213,182;20,17401
 768,91;10938,937;  270,371;53061,836;20,20888
 769,47;11013,027;  263,449;53144,952;20,32767
 770,04;10998,040;  273,680;52968,529;20,35182
 770,61;11003,669;  255,988;52776,106;20,46393
 771,18;11024,989;  248,142;52584,299;20,59159
 771,74;11095,464;  271,449;52771,953;20,61697
 772,31;11173,708;  262,527;52573,530;20,85829
 772,88;11115,413;  234,988;52332,800;20,88461
 773,44;11122,349;  253,066;52111,300;20,95961
 774,01;11141,824;  270,373;52206,262;20,93244
 774,58;11129,991;  249,527;51799,300;21,10671
 775,14;11263,927;  247,220;51982,955;21,29419
 775,71;11279,709;  249,605;51886,147;21,36104
 776,27;11327,184;  309,605;51837,878;21,38162
 776,84;11455,504;  331,990;51829,917;21,59993
 777,41;11364,210;  277,836;51661,109;21,57584
 777,97;11384,607;  251,606;51326,225;21,79752
 778,54;11434,851;  273,991;51381,572;21,83797
 779,11;11478,787;  286,837;51416,610;21,88930
 779,67;11494,877;  251,376;51394,803;21,98426
 780,24;11567,275;  269,453;51262,457;22,15563
 780,80;11643,288;  285,068;51128,957;22,33940
 781,37;11693,224;  275,684;51131,765;22,45069
 781,94;11668,545;  254,684;50875,035;22,54797
 782,50;11703,250;  269,607;50789,920;22,63177
 783,07;11778,494;  292,454;50872,805;22,70850
 783,63;11804,122;  257,685;50595,997;22,93767
 784,20;11805,674;  279,685;50630,651;22,89130
 784,77;11857,302;  267,685;50313,844;23,15786
 785,33;11837,931;  241,993;50191,806;23,21518
 785,90;11942,328;  267,686;50231,998;23,36596
 786,46;11889,034;  278,840;50231,191;23,24254
 787,03;11935,585;  248,763;49988,460;23,49597
 787,59;11984,214;  260,840;49854,807;23,63871
 788,16;11998,457;  281,610;49774,076;23,67400
 788,73;12055,547;  269,533;49591,192;23,89622
 789,29;12005,560;  263,302;49230,615;23,97979
 789,86;12087,189;  282,918;49188,731;24,13674
 790,42;12023,894;  270,380;49006,693;24,11654
 790,99;12019,292;  279,611;48804,424;24,19315
 791,55;12048,151;  258,611;48747,001;24,31415
 792,12;12104,087;  286,457;48744,194;24,38750
 792,68;12076,177;  266,611;48385,386;24,54253
 793,25;12143,882;  275,227;48188,348;24,77120
 793,81;12200,434;  330,227;47839,233;24,98517
 794,38;12017,139;  239,458;47655,426;24,83906
 794,94;12105,306;  249,997;47471,003;25,10601
 795,51;12111,319;  282,074;47346,272;25,13428
 796,07;12078,486;  257,536;47077,696;25,24757
 796,64;12133,422;  295,997;47173,273;25,25195
 797,20;12138,358;  280,075;46664,312;25,56533
 797,77;12029,910;  235,921;46331,043;25,58620
 798,33;12093,154;  269,767;46193,928;25,74546
 798,90;12163,397;  287,537;46098,505;25,92362
 799,46;12030,641;  270,229;45575,928;25,95791
 800,03;12095,577;  273,383;45513,275;26,13223
 800,59;12124,436;  285,768;45370,390;26,25877
 801,15;12082,296;  288,230;45134,198;26,29905
 801,72;12039,309;  270,845;44878,006;26,38245
 802,28;12007,245;  294,615;44557,122;26,46174
 802,85;12042,181;  274,307;44399,930;26,66903
 803,41;12077,040;  263,000;44169,892;26,90703
 803,98;11995,592;  261,616;43746,777;26,98386
 804,54;11963,374;  270,154;43444,738;27,08357
 805,11;11956,002;  287,539;43330,623;27,10880
 805,67;11965,092;  308,078;43278,200;27,12819
 806,23;11906,875;  266,001;42761,085;27,39346
 806,80;11935,888;  288,617;42695,124;27,46576
 807,36;11975,824;  287,463;42689,394;27,56563
 807,93;11964,298;  300,848;42473,740;27,65627
 808,49;11895,311;  249,386;42084,317;27,83780
 809,05;11903,247;  251,156;41995,356;27,91308
 809,62;11964,568;  289,002;41842,933;28,09738
 810,18;11996,120;  281,541;41730,818;28,26244
 810,74;11965,594;  245,849;41519,780;28,39503
 811,31;11956,684;  250,618;41268,511;28,53893
 811,87;11996,313;  259,157;41163,627;28,69407
 812,44;12031,018;  294,926;41136,204;28,73586
 813,00;11953,569;  220,004;40883,166;28,85552
 813,56;12051,967;  274,696;40935,204;28,96489
 814,13;12041,980;  259,850;40745,474;29,10201
 814,69;12042,224;  253,235;40594,666;29,22303
 815,25;11962,622;  236,928;40200,705;29,34080
 815,82;11948,558;  280,697;40209,436;29,22171
 816,38;12031,878;  300,005;40000,552;29,55091
 816,94;11960,199;  251,928;39694,129;29,68463
 817,51;11879,135;  238,928;39506,322;29,64344
 818,07;11912,687;  245,775;39250,976;29,91117
 818,63;11826,007;  273,006;39023,861;29,81354
 819,20;11915,867;  259,006;38979,823;30,10489
 819,76;11814,034;  242,391;38565,092;30,19527
 820,32;11798,047;  295,853;38508,823;30,10024
 820,89;11758,752;  276,237;38269,323;30,22264
 821,45;11775,303;  245,930;37985,747;30,54963
 822,01;11721,932;  270,084;37748,939;30,55549
 822,57;11713,022;  262,853;37571,747;30,69018
 823,14;11637,112;  237,854;37367,786;30,70099
 823,70;11648,356;  235,854;37118,902;30,94240
 824,26;11685,292;  249,085;36961,325;31,15094
 824,82;11694,459;  268,854;36806,748;31,27056
 825,39;11636,164;  246,854;36566,787;31,35829
 825,95;11693,023;  264,239;36537,211;31,50771
 826,51;11607,190;  262,547;36125,634;31,63320
 827,08;11708,665;  306,240;36207,211;31,76077
 827,64;11680,139;  270,317;36035,481;31,90206
 828,20;11686,768;  246,471;35772,519;32,20256
 828,76;11714,088;  269,625;35703,635;32,29796
 829,32;11668,101;  276,317;35643,289;32,21023
 829,89;11687,037;  231,241;35524,712;32,45868
 830,45;11719,050;  258,010;35444,982;32,57183
 831,01;11692,602;  252,703;35229,790;32,70684
 831,57;11683,307;  254,011;35069,983;32,82774
 832,14;11699,243;  246,703;35026,252;32,92895
 832,70;11649,410;  243,088;34855,522;32,95441
 833,26;11623,423;  214,704;34669,560;33,11208
 833,82;11736,513;  252,242;34709,291;33,32924
 834,38;11739,834;  247,089;34666,407;33,39039
 834,95;11734,462;  241,473;34489,753;33,55786
 835,51;11672,706;  209,243;34402,561;33,52545
 836,07;11824,642;  253,705;34454,908;33,83196
 836,63;11929,963;  264,013;34434,485;34,14044
 837,19;11871,592;  247,859;34274,139;34,16104
 837,75;11799,220;  219,551;33980,563;34,29894
 838,32;11920,310;  260,167;34076,371;34,48093
 838,88;12005,092;  262,090;34127,948;34,67505
 839,44;11970,028;  255,783;34055,756;34,65756
 840,00;12063,503;  252,014;33936,179;35,06541
 840,56;11974,824;  239,860;33756,295;35,01256
 841,12;12052,914;  235,476;33652,410;35,36362
 841,68;12009,388;  226,091;33490,526;35,42311
 842,25;12098,093;  231,322;33469,488;35,70224
 842,81;12076,568;  231,246;33316,142;35,80281
 843,37;12119,581;  214,938;33260,950;36,02445
 843,93;12117,440;  237,938;33145,219;36,09992
 844,49;12187,146;  247,400;33174,566;36,26108
 845,05;12162,928;  210,170;33065,912;36,37951
 845,61;12220,787;  248,170;33106,643;36,43692
 846,17;12244,492;  235,785;32907,298;36,75590
 846,73;12220,505;  241,940;32803,721;36,78719
 847,29;12255,211;  217,324;32683,913;37,07777
 847,86;12249,839;  235,248;32657,260;37,05690
 848,42;12225,160;  221,017;32423,376;37,27722
 848,98;12280,250;  249,402;32411,414;37,40701
 849,54;12378,186;  232,864;32420,376;37,73303
 850,10;12334,122;  239,172;32242,261;37,79307
 850,66;12294,135;  223,326;32169,223;37,78516
 851,22;12302,148;  216,018;32044,492;37,97270
 851,78;12405,084;  262,172;32190,300;38,03202
 852,34;12319,867;  247,480;31902,878;38,13690
 852,90;12365,110;  239,711;31744,301;38,48772
 853,46;12267,431;  221,327;31626,878;38,35661
 854,02;12358,829;  241,096;31540,686;38,71531
 854,58;12298,611;  237,558;31283,648;38,84886
 855,14;12361,393;  227,712;31230,148;39,13783
 855,70;12324,483;  199,404;31072,802;39,27355
 856,26;12340,035;  247,482;30999,610;39,32265
 856,82;12320,894;  223,174;30911,803;39,42085
 857,38;12352,522;  260,405;30765,842;39,63922
 857,94;12338,151;  225,559;30693,342;39,75541
 858,50;12365,472;  250,790;30567,073;39,96097
 859,06;12311,946;  231,560;30390,266;40,05605
 859,62;12402,728;  239,868;30330,612;40,42060
 860,18;12303,895;  229,406;30161,112;40,34013
 860,74;12347,601;  209,945;29971,689;40,78274
 861,30;12310,383;  208,791;29742,882;40,97499
 861,86;12408,088;  270,638;29919,075;40,93791
 862,42;12320,178;  237,946;29764,806;40,91946
 862,98;12396,114;  266,176;29637,075;41,29917
 863,54;12336,281;  236,946;29389,960;41,50286
 864,10;12455,371;  220,638;29537,691;41,73248
 864,66;12356,230;  213,639;29320,191;41,71773
 865,22;12357,397;  229,485;29208,769;41,85028
 865,78;12347,641;  242,639;29062,269;42,00263
 866,34;12350,346;  221,255;28983,154;42,17069
 866,90;12398,513;  246,716;28842,346;42,49529
 867,45;12328,295;  234,024;28601,462;42,63434
 868,01;12297,155;  240,717;28463,808;42,71835
 868,57;12283,014;  228,640;28331,924;42,89311
 869,13;12215,488;  212,025;28131,732;42,99280
 869,69;12232,117;  229,871;28104,463;43,05801
 870,25;12242,130;  212,025;28013,425;43,27158
 870,81;12282,220;  233,103;27915,694;43,52597
 871,37;12237,771;  241,103;27851,426;43,44994
 871,93;12276,246;  241,334;27679,310;43,86224
 872,49;12186,336;  262,719;27451,272;43,85528
 873,04;12152,272;  217,411;27275,849;44,10772
 873,60;12197,747;  217,181;27180,965;44,43206
 874,16;12132,837;  238,719;27138,312;44,21672
 874,72;12158,913;  230,104;27081,927;44,42458
 875,28;12129,760;  240,258;26971,773;44,47747
 875,84;12152,990;  230,258;26915,388;44,67931
 876,40;12219,837;  222,027;26777,388;45,18037
 876,95;12267,529;  237,104;26837,004;45,22733
 877,51;12311,144;  264,181;26826,235;45,35404
 878,07;12335,683;  270,719;26808,004;45,46420
 878,63;12392,606;  226,335;26831,004;45,72983
 879,19;12439,760;  242,873;26770,696;45,97771
 879,75;12471,913;  233,488;26885,388;45,91952
 880,30;12480,529;  235,258;26834,388;46,03636
 880,86;12595,606;  274,335;27011,312;46,08326
 881,42;12652,606;  217,181;26987,696;46,45194
 881,98;12747,452;  251,104;27128,850;46,49329
 882,54;12820,837;  229,796;27205,542;46,67541
 883,09;12915,683;  240,104;27280,927;46,87571
 883,65;12969,837;  221,027;27450,235;46,82035
 884,21;13146,452;  258,642;27607,927;47,12302
 884,77;13207,067;  217,412;27540,696;47,54061
 885,32;13320,221;  232,104;27752,158;47,55847
 885,88;13455,067;  269,642;27948,927;47,63644
 886,44;13546,529;  234,258;28056,773;47,84712
 887,00;13583,375;  260,796;28002,388;48,02384
 887,56;13704,837;  226,873;28174,927;48,22505
 888,11;13760,144;  234,565;28173,465;48,41128
 888,67;13935,990;  261,258;28362,927;48,66164
 889,23;14028,529;  247,104;28360,696;49,02051
 889,79;13969,529;  219,873;28214,927;49,11459
 890,34;13986,144;  241,565;28168,235;49,21668
 890,90;14169,683;  303,642;28337,619;49,46155
 891,46;14175,683;  222,335;28240,235;49,80155
 892,01;14212,529;  253,950;28197,927;49,95201
 892,57;14184,221;  271,027;28211,465;49,79591
 893,13;14204,452;  224,335;27922,235;50,47356
 893,69;14202,067;  227,642;27872,081;50,55058
 894,24;14243,375;  245,027;27818,542;50,76737
 894,80;14169,990;  248,181;27712,004;50,69145
 895,36;14135,990;  239,642;27574,235;50,83796
 895,91;14069,760;  226,950;27331,773;51,07139
 896,47;14045,144;  252,335;27288,619;51,01592
 897,03;14009,683;  230,488;27012,158;51,45009
 897,58;14026,990;  254,719;27080,619;51,33946
 898,14;13917,529;  246,796;26719,235;51,64138
 898,70;13926,683;  204,950;26620,312;51,94603
 899,25;13983,298;  242,181;26628,465;52,07674
 899,81;13893,760;  248,104;26450,696;52,07750
 900,37;13791,298;  208,258;26203,696;52,25163
 900,92;13809,990;  239,642;26209,081;52,25507
 901,48;13801,837;  225,412;26078,465;52,51382
 902,03;13720,606;  212,335;25948,773;52,48695
 902,59;13762,760;  229,950;25837,081;52,84782
 903,15;13723,298;  256,488;25704,542;52,91882
 903,70;13652,298;  245,027;25477,081;53,13587
 904,26;13619,298;  223,873;25315,773;53,38546
 904,82;13651,606;  242,873;25352,542;53,40067
 905,37;13572,298;  246,719;25189,619;53,42434
 905,93;13481,837;  228,719;25007,312;53,48616
 906,48;13498,529;  243,796;25006,850;53,52624
 907,04;13494,606;  253,335;24911,388;53,69958
 907,60;13430,067;  237,950;24700,542;53,92772
 908,15;13368,375;  230,027;24588,696;53,93705
 908,71;13467,606;  257,027;24614,081;54,23718
 909,26;13424,606;  228,181;24422,619;54,54322
 909,82;13335,067;  257,412;24211,388;54,59493
 910,37;13338,990;  277,027;24242,081;54,50421
 910,93;13322,990;  226,104;24083,312;54,89698
 911,48;13285,221;  220,181;23858,388;55,27086
 912,04;13255,913;  236,796;23776,312;55,30750
 912,60;13317,990;  243,258;23848,235;55,38973
 913,15;13265,606;  239,873;23565,619;55,84273
 913,71;13193,144;  219,873;23403,696;55,95829
 914,26;13166,529;  215,104;23348,850;55,98499
 914,82;13177,067;  236,412;23261,312;56,20288
 915,37;13126,221;  223,642;23194,927;56,16829
 915,93;13196,298;  272,642;23073,158;56,68142
 916,48;13130,067;  225,719;22937,081;56,81891
 917,04;13103,683;  247,104;22802,696;56,99952
 917,59;13079,683;  263,181;22762,158;56,96482
 918,15;12911,760;  196,488;22562,388;56,85115
 918,70;12980,452;  220,873;22468,696;57,35203
 919,26;12935,837;  231,950;22437,081;57,21149
 919,81;12907,298;  220,719;22235,312;57,62804
 920,37;12856,298;  228,642;22167,158;57,55930
 920,92;12795,606;  246,873;22137,081;57,32578
 921,48;12729,760;  214,488;21839,081;57,87518
 922,03;12621,760;  225,950;21859,081;57,30012
 922,59;12623,990;  225,796;21713,158;57,69994
 923,14;12592,221;  224,796;21644,312;57,73905
 923,69;12605,529;  250,565;21559,388;57,98051
 924,25;12573,837;  238,027;21438,619;58,18616
 924,80;12577,452;  233,719;21291,312;58,61892
 925,36;12522,221;  226,104;21189,312;58,65571
 925,91;12451,221;  211,181;21066,542;58,69014
 926,47;12428,375;  208,565;20966,081;58,86933
 927,02;12510,067;  280,335;20992,235;59,04689
 927,57;12374,606;  225,104;20790,696;59,07684
 928,13;12356,067;  213,796;20660,388;59,38530
 928,68;12424,529;  225,258;20638,312;59,76211
 929,24;12309,452;  199,719;20421,388;59,88493
 929,79;12341,067;  206,335;20327,235;60,30909
 930,34;12261,683;  226,873;20180,465;60,31400
 930,90;12247,221;  212,027;20141,465;60,38903
 931,45;12345,837;  229,027;20157,927;60,80019
 932,01;12271,529;  225,873;20021,465;60,85019
 932,56;12274,606;  249,719;19868,388;61,29308
 933,11;12280,683;  253,488;19857,927;61,34934
 933,67;12165,067;  220,488;19695,388;61,33320
 934,22;12176,837;  236,181;19596,312;61,67652
 934,77;12204,683;  257,950;19538,158;61,96371
 935,33;12096,606;  227,796;19370,850;62,00061
 935,88;12104,221;  228,258;19341,158;62,13585
 936,43;12063,837;  228,642;19217,235;62,32792
 936,99;12050,760;  232,719;19116,927;62,58161
 937,54;11949,452;  210,719;18954,773;62,62643
 938,09;12037,837;  227,412;18975,388;62,99573
 938,65;11972,298;  220,950;18836,850;63,12533
 939,20;11920,913;  204,335;18707,773;63,32109
 939,75;11880,452;  211,565;18689,619;63,14998
 940,31;11899,067;  210,412;18486,850;63,95478
 940,86;11862,144;  225,027;18508,004;63,65001
 941,41;11788,990;  290,565;18399,542;63,49572
 941,96;11760,067;  219,258;18250,619;64,00409
 942,52;11734,529;  216,027;18174,235;64,14060
 943,07;11663,298;  197,488;18061,696;64,18314
 943,62;11685,837;  217,719;17999,081;64,49516
 944,18;11613,837;  195,565;17954,158;64,29716
 944,73;11623,221;  233,027;17856,388;64,63122
 945,28;11511,606;  191,027;17627,927;64,92312
 945,83;11539,683;  217,642;17686,773;64,81170
 946,39;11570,990;  223,335;17662,004;65,07180
 946,94;11512,760;  245,335;17545,542;65,12884
 947,49;11487,529;  219,565;17453,696;65,38168
 948,04;11485,221;  253,719;17367,542;65,62825
 948,59;11434,375;  244,950;17351,773;65,40913
 949,15;11377,683;  202,719;17219,850;65,66891
 949,70;11330,606;  218,104;17085,235;65,88259
 950,25;11299,990;  237,181;17045,158;65,81881
 950,80;11255,990;  196,027;16909,081;66,17560
 951,36;11189,298;  197,873;16863,235;65,95371
 951,91;11183,837;  230,565;16832,927;65,97418
 952,46;11113,990;  199,719;16575,158;66,65025
 953,01;11162,913;  242,950;16650,619;66,55402
 953,56;11071,298;  195,104;16489,542;66,74789
 954,11;11095,298;  233,565;16458,312;66,94547
 954,67;11104,990;  219,719;16418,312;67,19887
 955,22;11049,221;  207,181;16251,773;67,57442
 955,77;11059,760;  242,412;16265,004;67,51310
 956,32;11056,221;  275,181;16178,927;67,78931
 956,87;10953,144;  206,565;15991,235;68,08238
 957,42;10917,913;  211,258;15955,850;68,00212
 957,98;10880,452;  214,335;15911,465;67,94947
 958,53;10912,990;  238,412;15814,004;68,53402
 959,08;10834,990;  201,796;15706,619;68,57991
 959,63;10798,298;  206,796;15611,312;68,75583
 960,18;10806,221;  229,873;15587,312;68,86792
 960,73;10737,298;  226,796;15466,158;68,96944
 961,28;10631,990;  199,873;15403,312;68,61683
 961,83;10654,144;  238,181;15367,619;68,84567
 962,39;10560,067;  204,642;15236,542;68,88966
 962,94;10510,606;  228,181;15135,158;68,97727
 963,49;10476,375;  223,565;15083,158;68,99792
 964,04;10430,606;  235,642;15060,927;68,76740
 964,59;10357,529;  190,873;14878,773;69,21790
 965,14;10406,529;  237,950;14853,158;69,57533
 965,69;10302,990;  226,181;14738,388;69,43678
 966,24;10273,144;  216,104;14616,465;69,83880
 966,79;10251,144;  233,488;14561,158;69,91825
 967,34;10175,913;  193,104;14409,696;70,21943
 967,89;10149,221;  206,027;14404,312;70,03095
 968,44;10128,913;  216,027;14305,773;70,35532
 968,99;10051,298;  221,950;14292,465;69,85777
 969,55;10081,529;  222,027;14166,619;70,70484
 970,10;10044,221;  226,488;14098,312;70,77464
 970,65;10016,913;  246,873;14004,696;71,01444
 971,20; 9976,913;  214,181;13909,773;71,28376
 971,75; 9871,990;  197,796;13668,542;71,81632
 972,30; 9855,067;  223,104;13699,081;71,47507
 972,85; 9861,837;  212,181;13631,004;71,91134
 973,40; 9771,683;  206,258;13559,158;71,63556
 973,95; 9821,606;  222,719;13453,312;72,55069
 974,50; 9759,529;  246,565;13406,773;72,28582
 975,05; 9725,837;  227,335;13275,619;72,79502
 975,60; 9708,221;  233,642;13192,388;73,11339
 976,15; 9689,913;  213,719;13086,158;73,61615
 976,70; 9723,375;  225,719;13024,312;74,20860
 977,25; 9603,683;  228,950;12980,388;73,51902
 977,80; 9557,760;  205,104;12853,542;73,94317
 978,35; 9410,683;  228,565;12647,773;73,93481
 978,89; 9446,144;  198,719;12588,388;74,63819
 979,44; 9449,990;  228,873;12625,081;74,38660
 979,99; 9330,375;  209,873;12401,619;74,80882
 980,54; 9330,067;  243,412;12386,850;74,82770
 981,09; 9282,913;  239,258;12232,388;75,40696
 981,64; 9181,837;  234,873;12097,773;75,41970
 982,19; 9169,760;  261,027;12125,081;75,09012
 982,74; 9090,529;  245,027;11893,081;75,93974
 983,29; 8952,144;  213,950;11764,619;75,65098
 983,84; 8913,452;  235,258;11668,773;75,90136
 984,39; 9009,067;  303,104;11711,542;76,31161
 984,94; 8844,913;  203,027;11481,619;76,62203
 985,49; 8796,144;  250,873;11470,542;76,16331
 986,03; 8725,913;  250,488;11413,235;75,92599
 986,58; 8697,221;  276,027;11242,619;76,78953
 987,13; 8541,837;  237,027;11119,465;76,31387
 987,68; 8459,837;  235,335;11045,773;76,07926
 988,23; 8426,067;  237,258;10984,850;76,19204
 988,78; 8331,990;  223,873;10863,235;76,20868
 989,33; 8302,837;  241,873;10732,696;76,83824
 989,88; 8270,913;  249,642;10721,619;76,59749
 990,42; 8160,221;  232,642;10586,158;76,56896
 990,97; 8136,452;  224,950;10463,004;77,27545
 991,52; 8091,760;  253,719;10376,850;77,42704
 992,07; 7992,913;  255,873;10301,927;77,01572
 992,62; 7931,760;  239,873;10217,773;77,08923
 993,17; 7841,683;  238,181;10072,004;77,31990
 993,71; 7762,837;  248,950; 9954,235;77,42057
 994,26; 7688,760;  222,181; 9825,850;77,74715
 994,81; 7678,529;  250,181; 9767,850;78,04797
 995,36; 7605,221;  226,719; 9628,773;78,47755
 995,91; 7523,221;  235,258; 9593,004;77,88161
 996,45; 7437,452;  236,335; 9483,619;77,87278
 997,00; 7334,452;  207,950; 9335,850;78,07384
 997,55; 7314,683;  233,873; 9334,927;77,80208
 998,10; 7260,683;  265,488; 9163,773;78,61284
 998,65; 7223,221;  231,412; 9172,465;78,19894
 999,19; 7117,529;  252,104; 9013,158;78,36300
 999,74; 7013,452;  276,181; 8985,542;77,35666
1000,29; 7032,067;  246,719; 8828,773;79,06438
1000,84; 6919,529;  223,104; 8741,696;78,60953
1001,38; 6850,837;  237,412; 8648,388;78,62850
1001,93; 6832,067;  248,181; 8601,158;78,82084
1002,48; 6735,144;  221,950; 8410,542;79,53985
1003,03; 6703,606;  238,565; 8394,696;79,26602
1003,57; 6691,606;  249,719; 8249,158;80,52923
1004,12; 6590,067;  272,412; 8205,235;79,63944
1004,67; 6509,760;  226,719; 8094,235;79,86054
1005,22; 6368,375;  217,796; 7967,081;79,36963
1005,76; 6351,606;  217,335; 7848,235;80,38726
1006,31; 6391,298;  247,642; 7815,850;81,17716
1006,86; 6226,221;  222,104; 7678,850;80,51927
1007,40; 6142,529;  210,950; 7571,850;80,58225
1007,95; 6108,452;  236,873; 7480,158;81,06238
1008,50; 5963,375;  231,642; 7337,388;80,66335
1009,04; 5950,298;  219,950; 7249,004;81,52375
1009,59; 5858,990;  240,412; 7142,312;81,40626
1010,14; 5732,760;  216,335; 7033,312;80,92187
1010,68; 5654,760;  229,565; 6973,773;80,44228
1011,23; 5632,067;  224,950; 6797,542;82,26765
1011,78; 5545,067;  234,181; 6780,465;81,12826
1012,32; 5526,990;  247,565; 6639,465;82,59555
1012,87; 5458,760;  253,412; 6621,081;81,74652
1013,42; 5388,913;  218,258; 6484,004;82,52259
1013,96; 5425,990;  258,488; 6507,081;82,69866
1014,51; 5321,760;  198,335; 6424,619;82,28703
1015,06; 5301,221;  204,335; 6429,158;81,88002
1015,60; 5411,067;  268,565; 6443,619;83,27866
1016,15; 5355,221;  224,104; 6407,542;82,98162
1016,69; 5359,375;  233,950; 6431,158;82,70539
1017,24; 5391,221;  205,258; 6454,927;82,97981
1017,79; 5511,221;  251,796; 6551,081;83,49242
1018,33; 5466,298;  218,412; 6526,158;83,19749
1018,88; 5539,683;  242,258; 6598,927;83,33649
1019,42; 5522,760;  229,412; 6609,388;82,96814
1019,97; 5574,221;  209,642; 6586,388;84,12721
1020,51; 5610,375;  243,335; 6614,927;84,23390
1021,06; 5570,683;  199,258; 6623,081;83,61726
1021,61; 5543,760;  204,258; 6566,081;83,93037
1022,15; 5525,990;  180,027; 6530,927;84,17647
1022,70; 5533,067;  223,873; 6544,388;83,99939
1023,24; 5481,837;  217,104; 6506,696;83,70547
1023,79; 5423,375;  214,873; 6440,312;83,66482
1024,33; 5377,298;  219,642; 6432,696;83,01322
1024,88; 5334,221;  224,565; 6301,158;84,08752
1025,42; 5249,683;  216,335; 6201,773;84,09322
1025,97; 5215,606;  219,027; 6159,696;84,10801
1026,51; 5100,990;  185,488; 6011,927;84,36547
1027,06; 5066,452;  206,488; 5991,850;84,00449
1027,60; 4960,298;  239,258; 5887,235;83,58817
1028,15; 4893,606;  245,873; 5774,696;84,06369
1028,69; 4768,606;  198,950; 5671,004;83,50897
1029,24; 4703,837;  217,104; 5593,542;83,45176
1029,78; 4677,221;  215,181; 5512,696;84,22893
1030,33; 4543,529;  196,565; 5423,542;83,16401
1030,87; 4549,221;  222,642; 5339,312;84,55850
1031,42; 4464,913;  202,181; 5270,850;84,09964
1031,96; 4466,067;  233,488; 5172,465;85,69748
1032,51; 4336,990;  211,796; 5112,696;84,17218
1033,05; 4316,683;  216,104; 5063,465;84,59404
1033,60; 4241,221;  191,950; 4923,927;85,57250
1034,14; 4194,375;  213,565; 4874,388;85,41001
1034,69; 4152,990;  219,642; 4796,312;85,94346
1035,23; 4067,144;  208,796; 4739,927;85,15199
1035,77; 4033,529;  201,412; 4670,388;85,74932
1036,32; 3956,837;  190,950; 4605,312;85,30988
1036,86; 3924,837;  214,335; 4557,312;85,43683
1037,41; 3888,760;  225,104; 4481,542;86,07327
1037,95; 3824,913;  194,104; 4382,773;86,68170
1038,50; 3803,990;  206,412; 4372,696;86,34981
1039,04; 3782,298;  233,027; 4333,235;86,56320
1039,58; 3655,913;  196,488; 4222,388;85,92923
1040,13; 3637,067;  218,181; 4185,004;86,18702
1040,67; 3631,837;  237,488; 4167,081;86,37914
1041,21; 3621,221;  238,565; 4070,696;88,27089
1041,76; 3472,067;  199,104; 4016,850;85,73025
1042,30; 3448,144;  215,104; 3950,158;86,55940
1042,85; 3381,990;  217,335; 3897,235;85,99842
1043,39; 3341,221;  207,258; 3822,235;86,69387
1043,93; 3297,913;  223,335; 3783,773;86,35394
1044,48; 3301,760;  223,412; 3736,850;87,61639
1045,02; 3218,529;  213,104; 3690,850;86,41876
1045,56; 3221,606;  232,719; 3675,850;86,80723
1046,11; 3157,683;  220,642; 3615,004;86,52703
1046,65; 3116,144;  229,488; 3556,773;86,75710
1047,19; 3046,529;  207,104; 3511,465;85,92961
1047,74; 3007,606;  197,950; 3420,388;87,19036
1048,28; 3005,221;  220,181; 3400,927;87,55934
1048,82; 2952,452;  238,719; 3362,388;86,87644
1049,37; 2894,144;  228,412; 3294,004;86,95653
1049,91; 2890,221;  230,796; 3252,158;88,02075
1050,45; 2836,529;  233,258; 3229,158;86,89446
1050,99; 2815,837;  216,642; 3161,927;88,24934
1051,54; 2740,375;  208,796; 3103,696;87,44961
1052,08; 2763,990;  250,796; 3090,235;88,51026
1052,62; 2740,913;  236,719; 3048,696;89,05458
1053,16; 2646,067;  217,412; 2967,004;88,32785
1053,71; 2662,529;  230,565; 2937,465;89,84312
1054,25; 2603,221;  241,719; 2895,773;88,97717
1054,79; 2561,375;  231,642; 2873,235;88,19426
1055,33; 2514,990;  195,488; 2796,696;89,17019
1055,88; 2529,144;  231,412; 2778,312;90,21684
1056,42; 2503,452;  245,873; 2757,388;89,88911
1056,96; 2476,529;  238,565; 2705,158;90,73098
1057,50; 2434,144;  224,104; 2676,312;90,12452
1058,05; 2389,606;  221,335; 2629,773;90,02809
1058,59; 2391,452;  247,565; 2595,850;91,29586
1059,13; 2330,452;  206,181; 2532,158;91,32813
1059,67; 2317,606;  224,642; 2534,235;90,62047
1060,21; 2263,375;  218,796; 2464,235;91,05477
1060,76; 2266,067;  229,565; 2448,081;91,79571
1061,30; 2252,375;  248,565; 2444,773;91,23953
1061,84; 2201,913;  229,796; 2349,312;93,04567
1062,38; 2148,067;  218,335; 2286,542;93,30459
1062,92; 2185,990;  266,488; 2345,081;92,34624
1063,46; 2131,375;  247,181; 2274,388;92,94530
1064,01; 2092,837;  224,412; 2233,927;92,97889
1064,55; 2066,452;  231,565; 2217,773;92,38140
1065,09; 2003,837;  204,565; 2145,388;92,70660
1065,63; 2051,298;  253,719; 2166,388;93,98273
1066,17; 2007,837;  262,796; 2143,465;92,78827
1066,71; 1970,837;  247,258; 2125,388;91,77097
1067,25; 1934,760;  241,950; 2079,927;92,10179
1067,80; 1929,298;  256,873; 2061,696;92,66421
1068,34; 1943,452;  258,950; 2065,619;93,23798
1068,88; 1884,298;  225,181; 1990,696;93,97354
1069,42; 1890,529;  252,488; 2018,696;92,74336
1069,96; 1826,298;  234,642; 1949,081;92,83831
1070,50; 1853,221;  276,488; 1963,081;93,48630
1071,04; 1777,375;  220,950; 1888,696;93,32505
1071,58; 1777,375;  232,796; 1878,081;93,87913
1072,12; 1766,375;  233,796; 1855,081;94,52867
1072,66; 1750,683;  227,181; 1840,158;94,45280
1073,21; 1729,683;  243,104; 1838,004;93,20828
1073,75; 1707,298;  238,488; 1792,850;94,49601
1074,29; 1693,067;  245,950; 1790,388;93,69861
1074,83; 1696,683;  250,642; 1768,542;95,26585
1075,37; 1663,913;  255,796; 1760,542;93,57840
1075,91; 1662,298;  255,873; 1747,312;94,29990
1076,45; 1625,837;  236,565; 1700,004;94,93198
1076,99; 1614,606;  245,488; 1654,004;97,20286
1077,53; 1574,913;  229,104; 1627,004;96,27367
1078,07; 1580,452;  242,258; 1641,927;95,60789
1078,61; 1538,990;  237,412; 1612,081;94,68306
1079,15; 1524,683;  235,719; 1601,004;94,40987
1079,69; 1530,221;  236,796; 1561,235;97,65837
1080,23; 1531,375;  253,335; 1567,850;97,22521
1080,77; 1547,221;  284,719; 1574,388;97,89347
1081,31; 1473,837;  219,565; 1499,235;98,01526
1081,85; 1485,144;  250,719; 1528,004;96,64447
1082,39; 1442,452;  228,027; 1476,927;97,23957
1082,93; 1450,221;  249,950; 1489,312;96,84593
1083,47; 1410,144;  228,565; 1438,773;97,63439
1084,01; 1422,067;  246,027; 1466,388;96,36819
1084,55; 1381,606;  235,258; 1420,004;96,75896
1085,09; 1394,452;  247,950; 1420,004;97,81990
1085,63; 1342,606;  254,335; 1380,158;96,66449
1086,17; 1341,144;  224,719; 1372,158;97,29716
1086,71; 1317,913;  229,796; 1356,773;96,55187
1087,24; 1355,683;  266,642; 1373,927;98,35234
1087,78; 1340,452;  249,258; 1344,235;99,65454
1088,32; 1273,452;  234,488; 1302,312;97,29734
1088,86; 1278,375;  255,027; 1325,696;95,58023
1089,40; 1249,837;  239,335; 1279,004;97,19456
1089,94; 1235,375;  223,027; 1243,081;99,24457
1090,48; 1235,144;  243,258; 1242,312;99,28259
1091,02; 1214,375;  254,258; 1254,081;96,02872
1091,56; 1203,452;  240,642; 1240,312;96,31282
1092,10; 1182,221;  213,412; 1184,927;99,72149
1092,63; 1210,529;  259,258; 1217,465;99,27609
1093,17; 1161,913;  244,719; 1203,004;95,71209
1093,71; 1143,452;  229,488; 1160,235;98,19686
1094,25; 1157,067;  264,950; 1180,158;97,47703
1094,79; 1117,298;  240,488; 1147,542;96,66566
1095,33; 1111,144;  247,796; 1127,312;98,16179
1095,87; 1095,298;  240,412; 1124,619;96,68391
1096,40; 1059,067;  216,950; 1088,619;96,60973
1096,94; 1089,067;  242,104; 1091,927;99,66350
1097,48; 1100,375;  251,181; 1084,465;101,90927
1098,02; 1058,452;  236,181; 1071,927;98,38767
1098,56; 1007,760;  208,104; 1018,388;98,68826
1099,10; 1006,298;  220,719; 1013,850;99,04783
1099,63; 1002,529;  216,642; 1022,465;97,52594
1100,17; 1011,067;  235,565; 1028,696;97,77731
1100,71; 1012,067;  259,719; 1034,465;97,10898

