
Integration time [ms]: 150,000
Averaging Nr. [scans]: 13
Smoothing Nr. [pixels]: 0
Data measured with spectrometer [name]: 2009305U1
Wave   ;Sample   ;Dark     ;Reference;Reflectance
[nm]   ;[counts] ;[counts] ;[counts] ;[%]

 175,72;  212,395;  211,210;  219,839;13,73101
 176,32;  236,926;  238,359;  235,111; 0,00000
 176,92;  274,504;  280,286;  286,352;-95,31122
 177,52;  271,311;  274,209;  278,215;-72,35964
 178,12;  251,747;  249,436;  251,705;101,83429
 178,72;  269,350;  281,973;  260,310; 0,00000
 179,32;  281,523;  265,128;  266,225;1495,34736
 179,92;  269,132;  265,515;  265,978; 0,00000
 180,52;  248,828;  258,367;  268,579;-93,40334
 181,12;  282,967;  269,207;  271,317;652,11476
 181,73;  287,049;  284,362;  283,857; 0,00000
 182,33;  393,244;  386,749;  405,616;34,42325
 182,93;  291,775;  289,440;  290,593;202,40824
 183,53;  249,009;  265,665;  248,819; 0,00000
 184,13;  253,909;  259,589;  248,344; 0,00000
 184,73;  297,030;  299,126;  294,762; 0,00000
 185,33;  274,879;  254,019;  345,473;22,80907
 185,93;  274,420;  260,862;  362,838;13,29568
 186,53;  302,626;  260,325;  382,013;34,76210
 187,13;  332,153;  285,483;  415,827;35,80515
 187,73;  281,192;  255,016;  363,692;24,08629
 188,33;  278,065;  250,245;  375,280;22,24997
 188,93;  300,507;  269,008;  378,002;28,89977
 189,53;  308,803;  267,003;  398,671;31,74636
 190,13;  339,738;  304,302;  434,752;27,16397
 190,73;  281,079;  237,231;  368,824;33,32080
 191,34;  311,914;  272,390;  406,065;29,56696
 191,94;  286,463;  248,550;  376,661;29,59327
 192,54;  299,290;  272,409;  385,011;23,87230
 193,14;  321,223;  275,560;  397,986;37,29838
 193,74;  309,264;  282,328;  382,193;26,97250
 194,34;  306,079;  268,176;  385,065;32,42610
 194,94;  264,533;  246,636;  342,210;18,72497
 195,54;  249,989;  219,250;  332,873;27,05295
 196,14;  263,205;  239,407;  348,372;21,83952
 196,74;  250,056;  234,480;  340,255;14,72524
 197,34;  238,281;  201,564;  336,743;27,16184
 197,94;  268,957;  243,483;  374,221;19,48478
 198,54;  288,186;  249,254;  377,640;30,32455
 199,14;  257,680;  221,411;  366,592;24,98179
 199,74;  245,985;  218,873;  344,214;21,63105
 200,34;  236,662;  211,258;  354,490;17,73618
 200,94;  289,954;  250,102;  385,688;29,39261
 201,54;  268,144;  223,872;  405,188;24,41685
 202,14;  305,839;  258,567;  451,776;24,46718
 202,74;  267,626;  222,873;  429,928;21,61445
 203,34;  248,575;  210,337;  438,885;16,73047
 203,94;  221,597;  183,567;  433,807;15,19747
 204,54;  299,428;  268,406;  530,748;11,82491
 205,14;  251,815;  196,642;  526,552;16,72372
 205,74;  313,579;  256,491;  594,026;16,91320
 206,34;  267,208;  226,797;  588,575;11,16993
 206,94;  273,226;  228,489;  631,755;11,09366
 207,54;  240,310;  193,720;  634,827;10,56205
 208,14;  272,891;  209,336;  719,908;12,44775
 208,74;  283,764;  209,796;  773,573;13,12011
 209,34;  277,634;  203,950;  836,153;11,65506
 209,94;  298,466;  225,180;  911,177;10,68302
 210,54;  292,122;  210,414;  983,076;10,57490
 211,14;  307,701;  219,873; 1067,857;10,35731
 211,73;  320,211;  219,333; 1152,814;10,80662
 212,33;  325,956;  239,025; 1232,836; 8,74732
 212,93;  320,768;  221,488; 1322,715; 9,01546
 213,53;  304,762;  193,796; 1352,349; 9,57797
 214,13;  339,475;  228,031; 1439,039; 9,20257
 214,73;  308,070;  201,413; 1433,237; 8,65849
 215,33;  298,543;  183,565; 1450,562; 9,07480
 215,93;  351,393;  218,876; 1562,395; 9,86342
 216,53;  309,216;  177,334; 1610,508; 9,20210
 217,13;  387,716;  223,567; 1772,350;10,59857
 217,73;  382,388;  211,953; 1909,715;10,03882
 218,33;  360,806;  170,416; 1998,465;10,41493
 218,93;  428,913;  199,804; 2256,578;11,13922
 219,53;  468,342;  193,878; 2457,318;12,12600
 220,13;  459,585;  165,648; 2715,314;11,52847
 220,73;  512,769;  196,258; 2974,344;11,39314
 221,32;  550,302;  192,180; 3284,112;11,58247
 221,92;  593,497;  208,186; 3589,947;11,39378
 222,52;  608,747;  172,337; 3885,540;11,75291
 223,12;  680,817;  193,799; 4216,790;12,10586
 223,72;  729,122;  200,876; 4530,489;12,20077
 224,32;  760,307;  202,800; 4842,127;12,01698
 224,92;  774,269;  185,646; 5053,662;12,09166
 225,52;  847,454;  214,874; 5374,992;12,25904
 226,12;  868,700;  196,337; 5558,458;12,53913
 226,72;  870,420;  175,952; 5803,857;12,33973
 227,31;  914,690;  166,182; 6079,777;12,65741
 227,91; 1005,063;  214,643; 6386,690;12,80645
 228,51; 1028,712;  189,102; 6656,797;12,98159
 229,11; 1084,138;  200,798; 6967,339;13,05453
 229,71; 1119,887;  180,641; 7214,628;13,35297
 230,31; 1172,051;  180,416; 7483,812;13,57773
 230,91; 1185,884;  171,639; 7733,655;13,41236
 231,51; 1242,274;  173,491; 7951,943;13,74030
 232,10; 1290,613;  185,416; 8162,007;13,85550
 232,70; 1308,155;  194,637; 8372,758;13,61582
 233,30; 1375,399;  215,952; 8534,145;13,93869
 233,90; 1399,670;  187,491; 8662,449;14,30307
 234,50; 1419,101;  187,030; 8700,749;14,47160
 235,10; 1431,731;  176,492; 8734,354;14,66767
 235,70; 1471,123;  215,873; 8729,182;14,74456
 236,29; 1450,442;  193,718; 8613,828;14,92526
 236,89; 1423,471;  163,563; 8461,795;15,18286
 237,49; 1471,989;  201,798; 8375,802;15,53940
 238,09; 1409,900;  193,490; 8112,345;15,36094
 238,69; 1435,203;  233,946; 7921,225;15,62655
 239,29; 1377,219;  191,182; 7634,005;15,93532
 239,89; 1357,432;  193,178; 7351,182;16,26506
 240,48; 1286,247;  179,413; 7022,188;16,17523
 241,08; 1263,804;  192,104; 6725,598;16,40316
 241,68; 1219,068;  207,720; 6503,090;16,06494
 242,28; 1164,656;  173,644; 6208,935;16,42027
 242,88; 1185,088;  234,416; 5978,661;16,54999
 243,48; 1135,453;  233,567; 5695,796;16,51131
 244,07; 1092,410;  209,873; 5548,840;16,53010
 244,67; 1077,886;  207,875; 5400,152;16,75588
 245,27; 1059,596;  216,641; 5286,737;16,62601
 245,87; 1068,176;  218,185; 5191,014;17,09272
 246,47; 1018,710;  203,026; 5187,971;16,36295
 247,06; 1018,047;  184,489; 5185,657;16,66725
 247,66; 1024,700;  180,336; 5215,136;16,77055
 248,26; 1060,064;  215,103; 5355,809;16,43668
 248,86; 1087,398;  211,410; 5496,138;16,57583
 249,46; 1063,507;  159,568; 5668,629;16,40822
 250,05; 1153,021;  204,720; 5986,021;16,40290
 250,65; 1167,222;  187,871; 6167,859;16,37714
 251,25; 1214,827;  186,643; 6617,318;15,98875
 251,85; 1321,991;  197,716; 7047,216;16,41397
 252,44; 1348,111;  166,872; 7553,263;15,99210
 253,04; 1487,230;  199,027; 8118,805;16,26565
 253,64; 1565,754;  164,486; 8738,018;16,34411
 254,24; 1704,562;  207,182; 9500,630;16,11221
 254,84; 1832,814;  184,953;10343,706;16,22110
 255,43; 1986,202;  197,565;11114,700;16,38376
 256,03; 2144,824;  193,025;11984,037;16,55328
 256,63; 2310,280;  204,870;12838,099;16,66565
 257,23; 2411,679;  186,332;13650,075;16,52844
 257,82; 2601,561;  205,253;14628,421;16,61430
 258,42; 2708,533;  158,868;15329,840;16,80621
 259,02; 2917,060;  209,950;16241,836;16,88579
 259,62; 3029,973;  168,636;16840,254;17,16292
 260,21; 3158,976;  196,565;17450,764;17,16922
 260,81; 3262,781;  194,413;17992,983;17,23941
 261,41; 3336,610;  181,253;18444,469;17,27712
 262,01; 3513,054;  223,636;18940,842;17,57430
 262,60; 3560,063;  175,486;19269,383;17,72597
 263,20; 3646,810;  187,256;19666,922;17,75982
 263,80; 3771,346;  212,559;19809,334;18,16006
 264,40; 3795,197;  172,251;20067,643;18,20997
 264,99; 3864,814;  211,251;20302,700;18,18467
 265,59; 3948,701;  186,787;20477,711;18,53989
 266,19; 3965,574;  180,636;20695,956;18,44933
 266,78; 4129,291;  233,019;20808,334;18,93664
 267,38; 4056,953;  198,403;20827,682;18,70424
 267,98; 4108,441;  192,481;20843,731;18,96234
 268,58; 4116,070;  203,018;20903,679;18,90303
 269,17; 4144,612;  187,016;20957,009;19,05439
 269,77; 4147,569;  203,100;20879,353;19,07729
 270,37; 4127,413;  175,635;20705,884;19,24856
 270,96; 4163,081;  226,946;20633,688;19,28841
 271,56; 4115,474;  186,255;20455,634;19,38500
 272,16; 4060,943;  189,714;20189,875;19,35599
 272,75; 4077,496;  183,945;20272,543;19,38189
 273,35; 4122,093;  202,715;20236,517;19,56382
 273,95; 4120,878;  194,715;20101,472;19,72277
 274,54; 4119,005;  189,797;20201,359;19,63469
 275,14; 4200,685;  213,946;20492,182;19,66019
 275,74; 4158,461;  177,330;20486,687;19,60245
 276,33; 4294,513;  218,716;20803,386;19,80016
 276,93; 4312,487;  193,798;21101,099;19,69977
 277,53; 4416,594;  192,411;21620,065;19,71370
 278,12; 4509,227;  171,640;21953,294;19,91395
 278,72; 4688,428;  244,180;22466,776;19,99878
 279,32; 4755,262;  197,257;22982,101;20,00455
 279,91; 4899,241;  172,641;23591,053;20,18327
 280,51; 5027,724;  189,872;23952,577;20,35901
 281,11; 5158,050;  176,564;24617,127;20,38204
 281,70; 5276,059;  173,948;25020,332;20,53462
 282,30; 5431,243;  187,332;25560,327;20,66729
 282,90; 5543,879;  182,562;25900,899;20,84628
 283,49; 5695,168;  207,023;26268,446;21,05850
 284,09; 5868,949;  216,948;26763,393;21,29099
 284,69; 6031,209;  221,410;27083,359;21,62836
 285,28; 6069,952;  204,025;27335,695;21,62022
 285,88; 6305,657;  263,714;27558,447;22,13593
 286,47; 6312,651;  202,562;27665,739;22,24829
 287,07; 6448,726;  223,564;27693,556;22,66168
 287,67; 6594,914;  208,260;27810,411;23,13825
 288,26; 6679,537;  183,487;27831,777;23,49531
 288,86; 6807,544;  192,409;27780,514;23,97821
 289,46; 7029,929;  201,948;28017,758;24,54712
 290,05; 7195,445;  179,489;28030,312;25,19120
 290,65; 7373,275;  199,177;28193,098;25,62734
 291,24; 7575,141;  194,872;28329,040;26,23241
 291,84; 7729,819;  217,409;28469,176;26,59094
 292,44; 7969,136;  199,414;28563,052;27,39325
 293,03; 8219,738;  277,872;28746,923;27,89649
 293,63; 8239,303;  201,793;28796,357;28,10853
 294,22; 8491,915;  216,641;28972,167;28,77803
 294,82; 8568,712;  190,329;29038,924;29,04260
 295,41; 8558,059;  179,717;28741,332;29,33427
 296,01; 8673,897;  224,252;28716,960;29,65546
 296,61; 8685,510;  224,257;28459,378;29,96712
 297,20; 8591,755;  206,176;28170,096;29,98714
 297,80; 8646,140;  212,182;28132,858;30,20686
 298,39; 8553,914;  187,563;27753,524;30,35030
 298,99; 8550,272;  216,407;27623,153;30,40808
 299,58; 8503,504;  207,567;27562,992;30,32648
 300,18; 8422,074;  223,181;27299,287;30,28092
 300,78; 8345,547;  191,565;27016,165;30,39740
 301,37; 8400,154;  205,327;27044,086;30,53355
 301,97; 8321,353;  216,948;27053,448;30,19919
 302,56; 8257,061;  180,870;26910,529;30,21434
 303,16; 8264,636;  168,100;26880,826;30,30966
 303,75; 8226,477;  198,719;26905,775;30,05857
 304,35; 8250,108;  186,568;27131,436;29,92607
 304,94; 8219,022;  192,333;27120,113;29,80821
 305,54; 8195,456;  222,796;27073,881;29,69214
 306,13; 8123,199;  158,953;27079,258;29,58453
 306,73; 7992,311;  178,644;26829,317;29,31883
 307,33; 8024,959;  204,721;26837,088;29,36366
 307,92; 7944,775;  215,334;26898,695;28,96727
 308,52; 8017,699;  175,561;27253,927;28,96090
 309,11; 8083,789;  194,637;27664,861;28,71892
 309,71; 8083,458;  172,328;27967,959;28,46177
 310,30; 8146,069;  191,180;28164,104;28,43782
 310,90; 8140,146;  235,257;28445,181;28,02166
 311,49; 8136,171;  191,718;28591,433;27,97371
 312,09; 8097,496;  164,489;28799,598;27,70378
 312,68; 8231,992;  263,180;29061,811;27,67080
 313,28; 8103,929;  171,257;29195,234;27,33145
 313,87; 8046,535;  162,487;29338,553;27,02231
 314,47; 8057,081;  180,791;29582,828;26,78824
 315,06; 7979,792;  176,949;29634,434;26,48849
 315,66; 8027,035;  174,027;29838,983;26,47234
 316,25; 7922,534;  154,254;29707,112;26,28605
 316,85; 7870,820;  164,951;29844,952;25,96317
 317,44; 7860,976;  190,099;29965,107;25,76280
 318,04; 7745,147;  169,255;29952,748;25,43655
 318,63; 7650,560;  162,029;30035,972;25,06710
 319,22; 7613,028;  191,716;30189,128;24,73984
 319,82; 7579,378;  185,640;30266,455;24,57958
 320,41; 7486,427;  197,562;30140,489;24,34253
 321,01; 7415,755;  197,719;30224,613;24,03857
 321,60; 7379,124;  197,486;30290,966;23,86443
 322,20; 7187,137;  175,872;30278,437;23,29125
 322,79; 7227,118;  218,795;30386,859;23,23093
 323,39; 7130,733;  184,183;30387,488;22,99930
 323,98; 6998,456;  174,103;30420,496;22,56253
 324,58; 6931,641;  179,485;30356,813;22,37493
 325,17; 6843,452;  192,023;30287,818;22,10086
 325,76; 6775,500;  197,410;30100,390;21,99811
 326,36; 6597,468;  175,489;29826,570;21,65850
 326,95; 6494,908;  219,025;29616,480;21,34839
 327,55; 6312,343;  174,486;29302,445;21,07205
 328,14; 6182,459;  173,951;28946,224;20,88298
 328,74; 6108,679;  208,101;28545,984;20,82223
 329,33; 5984,049;  200,950;28335,099;20,55544
 329,92; 5770,997;  175,022;27842,756;20,22564
 330,52; 5660,723;  199,105;27254,317;20,18693
 331,11; 5513,912;  196,948;26905,621;19,90726
 331,71; 5332,395;  187,179;26370,284;19,65090
 332,30; 5235,561;  195,256;26084,189;19,46895
 332,89; 5133,843;  263,719;25567,427;19,24668
 333,49; 4944,003;  203,486;25049,289;19,07975
 334,08; 4792,709;  186,717;24639,713;18,83611
 334,68; 4718,919;  181,178;24338,140;18,78440
 335,27; 4619,324;  202,721;23951,048;18,59754
 335,86; 4598,528;  254,255;23773,621;18,47104
 336,46; 4472,455;  201,259;23539,405;18,30135
 337,05; 4349,798;  183,563;23364,156;17,97294
 337,65; 4301,707;  160,948;23286,565;17,90551
 338,24; 4311,631;  235,642;23232,838;17,72385
 338,83; 4248,358;  214,334;23044,540;17,66968
 339,43; 4181,664;  185,177;23179,624;17,38023
 340,02; 4139,443;  187,100;23090,444;17,25662
 340,61; 4140,465;  204,103;23105,317;17,18844
 341,21; 4134,755;  221,639;23102,830;17,10189
 341,80; 4062,287;  192,871;23027,556;16,94535
 342,40; 4049,373;  186,721;23106,096;16,85322
 342,99; 4051,459;  195,950;23249,812;16,72392
 343,58; 4049,818;  188,027;23336,406;16,68277
 344,18; 4071,753;  211,027;23501,004;16,57677
 344,77; 4068,541;  171,946;23713,863;16,55173
 345,36; 4092,446;  169,948;23982,249;16,47257
 345,96; 4162,163;  208,104;24303,794;16,40982
 346,55; 4156,556;  176,876;24492,922;16,36648
 347,14; 4199,275;  173,105;24746,293;16,38440
 347,74; 4227,270;  152,186;25075,935;16,35021
 348,33; 4364,263;  192,724;25719,170;16,34203
 348,92; 4431,672;  204,110;26157,009;16,28936
 349,52; 4501,042;  161,879;26639,250;16,38820
 350,11; 4520,529;  186,177;26847,188;16,25727
 350,70; 4591,025;  183,718;26963,736;16,45744
 351,29; 4500,100;  164,019;26696,100;16,34279
 351,89; 4494,001;  197,791;26695,513;16,21351
 352,48; 4464,661;  163,718;26809,385;16,14125
 353,07; 4486,667;  195,875;26673,903;16,20511
 353,67; 4487,010;  204,187;26612,724;16,21757
 354,26; 4455,832;  200,259;26397,179;16,24456
 354,85; 4436,107;  196,951;26325,534;16,22421
 355,45; 4413,931;  164,563;26194,801;16,32474
 356,04; 4429,910;  177,029;26137,809;16,38195
 356,63; 4429,654;  223,563;25949,606;16,34954
 357,22; 4398,511;  189,020;25757,303;16,46372
 357,82; 4382,292;  188,252;25677,760;16,45399
 358,41; 4409,043;  213,564;25592,300;16,53147
 359,00; 4341,606;  170,562;25463,741;16,49079
 359,60; 4401,382;  187,949;25318,490;16,76618
 360,19; 4403,150;  210,183;25197,413;16,78044
 360,78; 4389,747;  184,178;25028,254;16,92785
 361,37; 4365,206;  191,332;24979,030;16,83849
 361,97; 4382,588;  198,025;24760,050;17,03672
 362,56; 4342,282;  180,100;24554,526;17,07602
 363,15; 4406,194;  247,409;24384,202;17,23007
 363,74; 4341,866;  195,560;24035,490;17,39227
 364,34; 4312,513;  210,562;23692,079;17,46885
 364,93; 4276,771;  182,638;23376,310;17,65194
 365,52; 4237,528;  157,640;23014,467;17,84975
 366,11; 4234,933;  180,254;22762,319;17,95530
 366,71; 4170,567;  176,485;22404,821;17,96842
 367,30; 4175,178;  186,794;22125,708;18,17950
 367,89; 4194,014;  225,797;21940,565;18,27428
 368,48; 4162,246;  210,484;21650,964;18,43132
 369,07; 4115,255;  196,564;21260,582;18,60372
 369,67; 4126,659;  213,022;21081,993;18,75338
 370,26; 4083,789;  183,642;20727,594;18,98441
 370,85; 4105,201;  193,794;20484,043;19,27728
 371,44; 4123,015;  190,564;20344,195;19,51237
 372,03; 4087,608;  158,254;20084,965;19,71903
 372,63; 4080,232;  169,948;19851,219;19,86804
 373,22; 4051,358;  182,718;19566,064;19,95858
 373,81; 4033,336;  165,717;19257,156;20,25840
 374,40; 4032,324;  184,874;19095,341;20,34561
 374,99; 4040,101;  180,870;18818,155;20,70704
 375,59; 4041,082;  176,797;18649,898;20,91844
 376,18; 4081,346;  205,255;18485,669;21,20352
 376,77; 4082,239;  204,718;18322,983;21,40117
 377,36; 4133,530;  210,409;18254,461;21,74191
 377,95; 4093,793;  202,870;18024,449;21,83265
 378,55; 4094,447;  182,181;17939,536;22,03181
 379,14; 4150,050;  206,871;17780,036;22,43864
 379,73; 4169,173;  193,947;17711,692;22,69257
 380,32; 4223,299;  199,718;17803,167;22,85678
 380,91; 4242,759;  170,253;17635,943;23,31718
 381,50; 4254,433;  198,561;17607,379;23,29780
 382,10; 4285,838;  175,256;17520,244;23,69896
 382,69; 4341,840;  169,025;17476,839;24,10943
 383,28; 4397,692;  215,562;17412,792;24,31863
 383,87; 4392,116;  185,023;17300,327;24,58089
 384,46; 4413,460;  175,482;17238,428;24,83732
 385,05; 4491,338;  207,484;17208,185;25,19810
 385,64; 4524,702;  181,793;17237,165;25,46358
 386,24; 4541,696;  164,405;17209,954;25,67996
 386,83; 4657,803;  202,174;17219,270;26,18325
 387,42; 4725,697;  201,331;17280,640;26,49033
 388,01; 4824,753;  189,788;17463,012;26,83324
 388,60; 4933,046;  189,021;17692,420;27,10345
 389,19; 5038,551;  188,631;17776,810;27,57488
 389,78; 5161,684;  174,555;18081,791;27,84980
 390,37; 5376,059;  250,635;18425,585;28,20048
 390,96; 5415,180;  190,482;18538,289;28,47587
 391,56; 5521,292;  193,707;18650,999;28,86439
 392,15; 5617,591;  178,094;18893,374;29,06447
 392,74; 5666,215;  149,934;19049,831;29,18683
 393,33; 5861,131;  188,245;19341,004;29,61916
 393,92; 6050,986;  189,933;19701,937;30,03819
 394,51; 6159,231;  168,707;19784,570;30,53918
 395,10; 6292,983;  208,081;20078,734;30,62256
 395,69; 6393,841;  200,236;20168,346;31,01748
 396,28; 6500,047;  192,156;20289,710;31,38636
 396,87; 6607,145;  192,921;20384,471;31,76687
 397,46; 6644,267;  201,764;20462,379;31,79816
 398,06; 6826,684;  222,914;20668,445;32,29934
 398,65; 6934,253;  177,904;20697,307;32,92663
 399,24; 7053,483;  214,980;20815,419;33,19591
 399,83; 7069,128;  180,735;20785,856;33,43049
 400,42; 7188,108;  227,107;20996,048;33,51640
 401,01; 7271,054;  187,862;21115,874;33,84550
 401,60; 7384,393;  205,459;21093,710;34,36829
 402,19; 7439,912;  228,828;21076,134;34,59000
 402,78; 7537,759;  214,266;21090,613;35,08034
 403,37; 7520,202;  196,320;20908,625;35,36005
 403,96; 7559,153;  204,371;20808,678;35,69536
 404,55; 7574,301;  215,650;20680,261;35,95793
 405,14; 7587,704;  194,239;20596,325;36,23877
 405,73; 7608,084;  194,054;20538,783;36,44202
 406,32; 7687,134;  208,802;20506,156;36,84388
 406,91; 7602,443;  199,778;20219,544;36,97678
 407,50; 7626,308;  216,689;20140,040;37,19063
 408,09; 7604,998;  175,142;19900,824;37,66590
 408,68; 7666,317;  195,751;19757,492;38,18968
 409,27; 7619,997;  170,605;19620,873;38,29969
 409,86; 7678,403;  195,701;19514,918;38,73191
 410,45; 7705,558;  227,024;19420,853;38,96322
 411,04; 7714,432;  222,271;19389,900;39,08757
 411,63; 7636,683;  211,446;19122,469;39,26407
 412,22; 7642,441;  210,311;18965,820;39,62638
 412,81; 7634,396;  206,010;18723,003;40,11659
 413,40; 7601,151;  218,019;18411,480;40,58124
 413,99; 7552,238;  266,939;18222,700;40,57360
 414,58; 7410,854;  182,787;17844,281;40,92557
 415,17; 7369,932;  207,010;17610,702;41,15748
 415,76; 7326,233;  192,157;17487,526;41,24848
 416,35; 7314,417;  187,237;17364,331;41,49235
 416,94; 7415,602;  219,312;17399,599;41,88690
 417,53; 7473,394;  188,703;17494,331;42,09434
 418,12; 7594,241;  187,243;17587,065;42,56939
 418,71; 7778,412;  219,635;17889,195;42,77853
 419,30; 7874,045;  197,398;17967,627;43,19948
 419,89; 7938,822;  185,784;18141,650;43,17830
 420,48; 8135,890;  215,327;18339,088;43,70265
 421,07; 8203,534;  206,713;18370,683;44,02573
 421,66; 8186,114;  185,102;18429,547;43,85451
 422,25; 8284,389;  184,417;18541,033;44,12563
 422,84; 8283,760;  210,880;18468,791;44,21579
 423,43; 8227,579;  193,107;18235,917;44,53005
 424,02; 8168,992;  221,955;18024,512;44,63986
 424,60; 8075,811;  184,503;17727,874;44,98171
 425,19; 7944,983;  199,421;17443,027;44,91846
 425,78; 8002,890;  217,883;17302,379;45,56767
 426,37; 7954,763;  219,502;17167,176;45,64202
 426,96; 7917,223;  204,040;17092,413;45,67155
 427,55; 7899,055;  203,276;16998,108;45,82230
 428,14; 7850,539;  193,817;16782,352;46,15671
 428,73; 7755,851;  207,428;16579,619;46,10515
 429,32; 7857,607;  223,117;16622,322;46,55403
 429,91; 7860,343;  232,197;16632,026;46,51357
 430,50; 7838,084;  211,508;16431,920;47,01839
 431,08; 7780,787;  216,049;16367,272;46,83693
 431,67; 7787,168;  261,128;16265,187;47,02582
 432,26; 7719,997;  275,977;16116,511;46,99349
 432,85; 7658,598;  299,668;15847,059;47,33225
 433,44; 7538,387;  294,364;15563,953;47,44086
 434,03; 7440,868;  306,292;15247,034;47,75249
 434,62; 7261,898;  264,749;14912,630;47,76902
 435,21; 7213,815;  287,899;14675,251;48,13892
 435,79; 7141,694;  277,444;14492,952;48,28706
 436,38; 7167,429;  273,141;14413,445;48,75629
 436,97; 7131,350;  271,911;14334,081;48,77938
 437,56; 7030,162;  262,456;14204,784;48,54072
 438,15; 7032,644;  253,608;14149,776;48,78349
 438,74; 7008,006;  269,532;14124,993;48,63406
 439,33; 7072,247;  243,685;14122,486;49,20139
 439,91; 7063,473;  220,996;14191,729;48,97722
 440,50; 7153,116;  249,919;14255,296;49,28962
 441,09; 7214,104;  261,615;14281,341;49,59076
 441,68; 7188,030;  230,235;14350,824;49,27411
 442,27; 7222,758;  229,002;14346,400;49,53998
 442,86; 7181,591;  198,626;14288,724;49,55937
 443,44; 7290,186;  203,548;14348,488;50,10017
 444,03; 7355,085;  283,165;14433,586;49,97675
 444,62; 7273,374;  211,780;14270,084;50,23076
 445,21; 7196,947;  223,010;14187,912;49,93903
 445,80; 7191,157;  253,245;14069,612;50,21516
 446,39; 7129,511;  285,937;13915,268;50,21210
 446,97; 6968,450;  209,019;13679,755;50,17864
 447,56; 6916,935;  212,100;13496,117;50,47295
 448,15; 6824,434;  210,558;13334,247;50,39647
 448,74; 6778,514;  225,866;13138,562;50,74578
 449,33; 6680,921;  222,946;13006,050;50,51961
 449,91; 6579,825;  205,796;12813,667;50,55595
 450,50; 6552,664;  209,565;12613,273;51,13873
 451,09; 6466,492;  220,411;12513,170;50,81105
 451,68; 6496,987;  229,259;12469,382;51,20641
 452,26; 6418,477;  233,800;12365,222;50,98065
 452,85; 6336,691;  205,953;12247,917;50,91145
 453,44; 6372,604;  216,343;12264,864;51,09557
 454,03; 6350,511;  198,032;12204,112;51,24469
 454,61; 6355,147;  196,882;12204,865;51,28476
 455,20; 6455,521;  228,731;12345,016;51,39191
 455,79; 6428,335;  234,958;12389,756;50,95418
 456,38; 6479,660;  229,426;12419,207;51,27438
 456,97; 6530,713;  201,656;12488,537;51,51069
 457,55; 6494,838;  212,043;12503,507;51,11511
 458,14; 6516,760;  244,194;12467,731;51,31547
 458,73; 6431,228;  220,813;12383,278;51,06214
 459,31; 6468,489;  246,278;12473,698;50,88735
 459,90; 6539,595;  265,507;12498,511;51,28820
 460,49; 6567,268;  320,660;12630,366;50,74539
 461,08; 6533,485;  228,434;12708,907;50,51933
 461,66; 6650,841;  226,047;12696,836;51,51874
 462,25; 6648,449;  227,743;12804,869;51,05066
 462,84; 6708,105;  250,896;12849,446;51,25359
 463,43; 6633,292;  201,978;12809,595;51,01134
 464,01; 6651,540;  218,211;12824,298;51,03351
 464,60; 6664,301;  278,823;12787,926;51,04665
 465,19; 6482,562;  198,058;12511,745;51,03674
 465,77; 6505,206;  215,214;12549,661;50,99533
 466,36; 6488,003;  241,209;12477,865;51,04985
 466,95; 6328,679;  222,671;12214,910;50,91633
 467,53; 6230,361;  214,755;12000,333;51,04210
 468,12; 6091,516;  254,063;11768,270;50,69783
 468,71; 5972,835;  217,674;11542,980;50,81682
 469,29; 5866,537;  200,833;11284,625;51,11702
 469,88; 5763,251;  206,296;11076,470;51,12112
 470,47; 5785,348;  277,377;11198,594;50,43368
 471,06; 5744,477;  221,531;11175,804;50,41819
 471,64; 5795,702;  218,991;11180,558;50,87513
 472,23; 5748,030;  196,075;11186,541;50,51610
 472,81; 5780,177;  200,533;11318,162;50,18736
 473,40; 5867,256;  207,998;11414,477;50,49988
 473,99; 5978,370;  322,306;11605,788;50,12694
 474,57; 5944,359;  214,075;11664,498;50,04430
 475,16; 6025,576;  227,226;11839,922;49,93113
 475,75; 6110,560;  240,616;11947,777;50,13978
 476,33; 6158,469;  242,696;11995,877;50,33338
 476,92; 6110,236;  233,845;12030,688;49,81325
 477,51; 6143,048;  236,848;12123,686;49,68689
 478,09; 6154,738;  239,464;12147,384;49,67513
 478,68; 6139,606;  238,080;12061,215;49,91507
 479,27; 6181,670;  266,385;12132,331;49,85093
 479,85; 6069,189;  235,542;12072,738;49,28234
 480,44; 6138,029;  216,620;12148,708;49,62592
 481,02; 6585,834;  234,545;13208,389;48,95457
 481,61; 7446,004;  268,083;14955,253;48,87205
 482,20; 7943,774;  233,315;16086,974;48,63520
 482,78; 8270,931;  270,696;16807,891;48,37721
 483,37; 8521,517;  249,088;17312,735;48,47984
 483,95; 8640,377;  289,165;17579,725;48,29926
 484,54; 8659,922;  299,775;17751,560;47,90425
 485,13; 8644,430;  261,938;17642,236;48,22986
 485,71; 8566,486;  235,937;17468,636;48,34152
 486,30; 8470,099;  287,783;17239,488;48,26839
 486,88; 8343,206;  353,322;16980,371;48,05353
 487,47; 8017,545;  295,554;16399,176;47,95189
 488,05; 7636,788;  278,786;15653,955;47,85640
 488,64; 7108,811;  273,250;14593,521;47,73346
 489,23; 6430,513;  294,017;13069,524;48,03329
 489,81; 5492,966;  295,249;11155,948;47,85804
 490,40; 5158,293;  246,711;10496,463;47,91903
 490,98; 5016,906;  227,251;10243,882;47,81703
 491,57; 4945,308;  257,326;10124,251;47,51209
 492,15; 4896,275;  227,405;10098,388;47,29893
 492,74; 4852,683;  238,709;10020,248;47,17022
 493,32; 4830,414;  260,251; 9944,783;47,19034
 493,91; 4757,171;  236,484; 9857,094;46,98961
 494,50; 4700,507;  242,258; 9793,626;46,67655
 495,08; 4673,399;  227,027; 9764,526;46,61990
 495,67; 4681,012;  250,637; 9742,939;46,67335
 496,25; 4598,130;  197,948; 9575,083;46,92459
 496,84; 4554,385;  202,483; 9641,341;46,10623
 497,42; 4532,347;  205,718; 9589,442;46,10781
 498,01; 4496,537;  236,868; 9532,746;45,82320
 498,59; 4456,429;  202,487; 9441,521;46,04315
 499,18; 4412,045;  199,099; 9425,815;45,66030
 499,76; 4414,916;  220,025; 9400,206;45,69508
 500,35; 4287,330;  215,951; 9110,549;45,77361
 500,93; 4272,450;  209,333; 9166,617;45,36104
 501,52; 4241,951;  201,949; 9082,243;45,49401
 502,10; 4214,956;  220,030; 9058,041;45,20164
 502,69; 4115,514;  200,647; 8889,046;45,05855
 503,27; 4018,327;  182,566; 8767,989;44,67761
 503,86; 4033,481;  201,570; 8717,401;44,99750
 504,44; 3970,888;  180,725; 8556,861;45,24953
 505,03; 3841,137;  172,418; 8381,055;44,69340
 505,61; 3795,680;  196,109; 8265,644;44,60691
 506,19; 3734,815;  199,725; 8144,080;44,49814
 506,78; 3634,346;  171,729; 7943,035;44,55644
 507,36; 3578,223;  189,879; 7839,184;44,29611
 507,95; 3462,023;  184,038; 7738,646;43,39054
 508,53; 3440,234;  188,806; 7598,333;43,88173
 509,12; 3412,484;  188,038; 7512,632;44,02219
 509,70; 3352,263;  219,346; 7357,865;43,88750
 510,29; 3283,896;  228,963; 7276,338;43,34852
 510,87; 3167,812;  187,883; 7066,022;43,32465
 511,46; 3126,421;  184,807; 6983,978;43,26431
 512,04; 3049,954;  196,193; 6844,347;42,92561
 512,62; 3021,881;  197,037; 6696,754;43,46102
 513,21; 2947,948;  181,194; 6626,702;42,92529
 513,79; 2852,857;  182,123; 6481,334;42,39792
 514,38; 2796,845;  167,814; 6345,079;42,55979
 514,96; 2784,087;  223,967; 6282,739;42,25476
 515,54; 2686,488;  178,122; 6144,275;42,04328
 516,13; 2659,841;  204,199; 6045,812;42,03704
 516,71; 2598,667;  197,433; 5951,219;41,73312
 517,30; 2530,869;  172,589; 5809,329;41,83765
 517,88; 2537,239;  205,435; 5779,046;41,83651
 518,46; 2439,512;  177,051; 5651,680;41,32630
 519,05; 2428,035;  187,360; 5613,445;41,29451
 519,63; 2388,583;  188,590; 5590,174;40,72865
 520,22; 2378,545;  209,363; 5514,646;40,88721
 520,80; 2321,823;  185,902; 5473,715;40,39327
 521,38; 2331,525;  237,284; 5447,396;40,19570
 521,97; 2299,115;  184,211; 5382,787;40,68237
 522,55; 2262,751;  200,134; 5386,283;39,77166
 523,13; 2235,593;  178,520; 5359,246;39,70627
 523,72; 2210,652;  189,897; 5333,935;39,28345
 524,30; 2282,293;  223,829; 5476,038;39,19235
 524,89; 2239,469;  170,058; 5451,164;39,18520
 525,47; 2268,828;  194,445; 5541,219;38,79690
 526,05; 2266,429;  155,984; 5591,026;38,83033
 526,64; 2329,665;  202,601; 5713,657;38,59631
 527,22; 2353,580;  202,214; 5800,480;38,42915
 527,80; 2389,672;  243,293; 5864,484;38,18371
 528,39; 2364,244;  180,833; 5897,066;38,19668
 528,97; 2425,556;  186,909; 6093,194;37,90280
 529,55; 2460,554;  207,059; 6193,788;37,64151
 530,14; 2519,694;  224,064; 6380,112;37,29065
 530,72; 2532,554;  185,909; 6463,046;37,38400
 531,30; 2552,818;  174,603; 6567,181;37,20275
 531,89; 2573,550;  188,834; 6668,332;36,80403
 532,47; 2615,098;  232,450; 6760,796;36,49697
 533,05; 2635,521;  213,139; 6794,555;36,80639
 533,63; 2642,679;  208,297; 6830,877;36,75882
 534,22; 2619,966;  193,066; 6850,228;36,45547
 534,80; 2650,116;  222,607; 6992,758;35,85606
 535,38; 2728,152;  322,911; 7061,139;35,69545
 535,97; 2608,902;  199,912; 7007,113;35,38886
 536,55; 2690,566;  253,453; 7050,405;35,85597
 537,13; 2659,440;  244,526; 7025,700;35,61204
 537,71; 2676,778;  306,526; 7075,170;35,01813
 538,30; 2695,148;  306,759; 7125,732;35,02564
 538,88; 2709,236;  351,917; 7249,189;34,17756
 539,46; 2789,983;  403,068; 7401,946;34,10425
 540,05; 2791,341;  406,147; 7479,267;33,72195
 540,63; 2877,779;  449,378; 7665,393;33,65294
 541,21; 2924,999;  470,456; 7839,915;33,30696
 541,79; 2939,654;  499,994; 7931,296;32,82950
 542,38; 2981,601;  537,839; 7995,737;32,76745
 542,96; 3015,876;  536,689; 8163,133;32,50778
 543,54; 3046,817;  562,148; 8313,117;32,05624
 544,12; 3078,677;  536,226; 8372,876;32,44309
 544,70; 3055,331;  506,843; 8485,152;31,94271
 545,29; 3115,541;  535,377; 8602,091;31,98531
 545,87; 3129,577;  513,841; 8649,065;32,15321
 546,45; 3067,818;  463,685; 8638,453;31,85575
 547,03; 3077,949;  446,071; 8751,531;31,68854
 547,62; 3072,029;  403,687; 8838,706;31,63410
 548,20; 3132,156;  423,611; 8978,950;31,65911
 548,78; 3096,858;  381,693; 9065,672;31,26636
 549,36; 3121,643;  336,924; 9190,936;31,45150
 549,94; 3149,123;  319,226; 9313,536;31,46319
 550,53; 3221,689;  322,692; 9505,822;31,56872
 551,11; 3192,499;  292,156; 9627,567;31,06819
 551,69; 3279,494;  292,693; 9876,538;31,16495
 552,27; 3299,668;  263,229;10085,376;30,91420
 552,85; 3369,963;  268,540;10370,253;30,70195
 553,44; 3438,170;  256,154;10633,415;30,66335
 554,02; 3509,354;  267,770;10902,913;30,47993
 554,60; 3504,374;  215,772;11157,288;30,05618
 555,18; 3611,683;  266,077;11510,163;29,75435
 555,76; 3679,911;  248,463;11787,107;29,73875
 556,34; 3732,755;  245,620;12088,728;29,44442
 556,93; 3814,715;  238,155;12359,487;29,50633
 557,51; 3864,790;  223,927;12642,045;29,31895
 558,09; 3945,275;  240,693;13024,674;28,97831
 558,67; 4039,816;  246,006;13360,339;28,92873
 559,25; 4123,461;  250,005;13550,794;29,12200
 559,83; 4131,525;  234,469;13792,567;28,74339
 560,41; 4180,160;  217,619;14055,671;28,63511
 561,00; 4252,623;  241,083;14372,880;28,38662
 561,58; 4286,896;  229,080;14549,424;28,33602
 562,16; 4327,555;  218,694;14810,534;28,15862
 562,74; 4365,410;  197,232;15169,571;27,83919
 563,32; 4442,681;  204,315;15520,945;27,67166
 563,90; 4555,604;  233,006;15847,994;27,68236
 564,48; 4610,565;  223,849;16100,844;27,62938
 565,06; 4713,576;  215,698;16628,812;27,40417
 565,65; 4866,275;  230,779;17214,512;27,29374
 566,23; 5033,140;  277,544;17829,462;27,09445
 566,81; 5073,156;  209,543;18389,250;26,75298
 567,39; 5338,833;  224,854;19136,196;27,04186
 567,97; 5437,930;  239,236;19670,789;26,75388
 568,55; 5630,840;  265,545;20462,856;26,56440
 569,13; 5746,867;  211,621;20941,625;26,70162
 569,71; 5878,404;  219,541;21809,989;26,21003
 570,29; 6101,622;  270,770;22649,825;26,05495
 570,87; 6247,361;  270,232;23273,292;25,98406
 571,45; 6333,282;  249,467;23807,095;25,82524
 572,03; 6398,624;  209,547;24254,552;25,73955
 572,61; 6493,285;  197,238;24871,809;25,51634
 573,20; 6661,093;  243,851;25371,827;25,53824
 573,78; 6779,239;  224,546;25980,062;25,44967
 574,36; 6827,241;  236,391;26388,119;25,20235
 574,94; 6996,183;  303,932;26697,061;25,35604
 575,52; 6913,714;  228,089;26860,156;25,10367
 576,10; 7052,371;  295,626;27417,888;24,91217
 576,68; 7127,337;  277,931;27838,508;24,85219
 577,26; 7296,825;  298,706;28451,892;24,85729
 577,84; 7318,022;  296,084;28849,178;24,59256
 578,42; 7439,867;  352,933;29123,331;24,63273
 579,00; 7340,642;  295,469;29239,641;24,34056
 579,58; 7398,354;  333,317;29495,877;24,22640
 580,16; 7331,678;  286,010;29479,720;24,13420
 580,74; 7358,016;  302,241;29640,665;24,04961
 581,32; 7317,841;  291,163;29698,681;23,89416
 581,90; 7298,431;  327,779;29655,366;23,76824
 582,48; 7271,389;  312,087;29723,376;23,66201
 583,06; 7256,407;  296,240;29708,388;23,66426
 583,64; 7225,992;  310,855;29953,750;23,32814
 584,22; 7130,290;  314,474;29761,404;23,14610
 584,80; 7075,902;  323,779;29581,110;23,07840
 585,38; 6943,587;  342,927;29217,752;22,85957
 585,96; 6874,915;  299,392;29257,799;22,70678
 586,54; 6870,616;  316,627;29261,199;22,64324
 587,12; 6849,173;  282,011;29227,365;22,68814
 587,70; 6878,868;  326,469;29386,514;22,54779
 588,28; 6791,098;  301,011;29414,667;22,29224
 588,86; 6802,173;  301,473;29621,533;22,17151
 589,44; 6740,084;  293,322;29491,641;22,07922
 590,02; 6789,247;  289,475;29774,833;22,04407
 590,59; 6739,985;  271,473;29856,230;21,86434
 591,17; 6771,456;  283,249;30016,442;21,82143
 591,75; 6743,446;  268,247;30141,180;21,67581
 592,33; 6776,534;  288,707;30299,519;21,61830
 592,91; 6738,272;  227,479;30557,867;21,46624
 593,49; 6773,028;  253,634;30759,318;21,37108
 594,07; 6789,473;  259,634;30897,733;21,31281
 594,65; 6763,934;  278,320;30916,803;21,16819
 595,23; 6794,732;  272,860;31270,014;21,04023
 595,81; 6786,051;  247,476;31456,625;20,95083
 596,39; 6823,583;  247,630;31574,721;20,99127
 596,97; 6752,927;  256,940;31688,633;20,66700
 597,55; 6771,561;  252,398;31643,184;20,76776
 598,12; 6716,502;  228,943;31593,083;20,68464
 598,70; 6744,734;  228,095;31682,881;20,71748
 599,28; 6740,251;  262,787;31766,617;20,56088
 599,86; 6709,316;  243,787;31879,173;20,43765
 600,44; 6701,095;  203,942;32064,868;20,39223
 601,02; 6741,911;  269,099;31862,411;20,48792
 601,60; 6608,924;  244,016;31898,842;20,10723
 602,18; 6602,355;  222,327;31935,910;20,11765
 602,75; 6592,252;  223,476;32026,526;20,02568
 603,33; 6607,904;  238,710;32067,697;20,01067
 603,91; 6533,689;  219,559;32077,050;19,81992
 604,49; 6541,610;  253,480;32054,057;19,77364
 605,07; 6530,602;  259,324;32084,405;19,70546
 605,65; 6473,641;  257,096;32282,093;19,41154
 606,23; 6533,343;  319,012;32301,118;19,43065
 606,80; 6513,676;  348,860;32418,215;19,22338
 607,38; 6526,840;  395,559;32387,350;19,16517
 607,96; 6477,583;  453,168;32420,938;18,84528
 608,54; 6511,681;  505,788;32552,321;18,74116
 609,12; 6477,655;  506,476;32521,412;18,65123
 609,70; 6451,167;  535,094;32563,006;18,47162
 610,27; 6448,324;  532,860;32599,140;18,44761
 610,85; 6458,211;  587,710;32780,221;18,23561
 611,43; 6379,484;  552,787;32697,303;18,12657
 612,01; 6323,460;  535,862;32517,527;18,09661
 612,59; 6276,764;  540,479;32498,351;17,94952
 613,16; 6267,174;  490,705;32517,100;18,03659
 613,74; 6179,191;  473,172;32391,971;17,87667
 614,32; 6148,522;  453,404;32345,103;17,85768
 614,90; 6105,449;  399,709;32269,342;17,90337
 615,48; 6033,810;  354,321;31909,532;17,99858
 616,05; 5965,610;  338,935;32071,834;17,73136
 616,63; 5895,562;  342,396;31798,136;17,65391
 617,21; 5888,920;  328,091;31668,177;17,74350
 617,79; 5816,119;  310,707;31662,112;17,56034
 618,36; 5808,488;  318,247;31594,402;17,55408
 618,94; 5648,820;  265,475;31281,521;17,35665
 619,52; 5659,108;  287,012;31074,515;17,44895
 620,10; 5580,748;  267,630;31007,382;17,28419
 620,67; 5575,003;  277,781;30922,641;17,28584
 621,25; 5572,598;  313,170;30758,264;17,27512
 621,83; 5523,300;  273,783;30793,253;17,20055
 622,41; 5492,191;  333,398;30774,314;16,94690
 622,98; 5450,931;  301,319;30612,936;16,98891
 623,56; 5428,425;  307,319;30538,014;16,94009
 624,14; 5355,011;  282,402;30516,383;16,77784
 624,72; 5324,302;  273,398;30430,170;16,74882
 625,29; 5327,327;  274,395;30358,673;16,79592
 625,87; 5346,310;  314,476;30286,731;16,78831
 626,45; 5265,250;  270,010;30263,274;16,65454
 627,02; 5255,322;  275,169;30217,482;16,63249
 627,60; 5221,233;  261,557;30101,283;16,62105
 628,18; 5197,655;  247,861;30174,259;16,53989
 628,76; 5193,115;  239,165;30200,189;16,53465
 629,33; 5197,922;  286,166;30212,528;16,41281
 629,91; 5166,748;  266,168;30134,305;16,40738
 630,49; 5208,901;  284,320;30316,788;16,39752
 631,06; 5169,241;  262,089;30425,636;16,26849
 631,64; 5168,049;  263,780;30379,143;16,28494
 632,22; 5120,090;  221,471;30248,952;16,31379
 632,79; 5184,993;  256,086;30573,918;16,25745
 633,37; 5193,879;  231,631;30480,613;16,40468
 633,95; 5152,965;  256,241;30626,610;16,12336
 634,52; 5156,825;  229,936;30722,277;16,15779
 635,10; 5146,489;  239,706;30768,738;16,07251
 635,68; 5174,186;  243,163;30838,069;16,11714
 636,25; 5158,728;  221,315;30866,091;16,11176
 636,83; 5166,577;  202,319;31030,881;16,10279
 637,41; 5145,780;  230,778;31103,482;15,92022
 637,98; 5211,326;  257,932;31250,771;15,98238
 638,56; 5197,364;  242,161;31268,726;15,97084
 639,13; 5136,301;  230,550;31465,652;15,70589
 639,71; 5225,257;  282,396;31595,528;15,78527
 640,29; 5118,501;  197,166;31331,864;15,80659
 640,86; 5127,994;  221,781;31518,712;15,67634
 641,44; 5088,180;  220,243;31538,791;15,54330
 642,02; 5128,365;  245,935;31498,101;15,62269
 642,59; 5090,012;  220,858;31549,257;15,54230
 643,17; 5057,582;  218,935;31572,106;15,43272
 643,74; 5127,229;  222,936;31620,031;15,62022
 644,32; 5124,492;  243,705;31624,495;15,55342
 644,89; 5103,523;  239,551;31553,651;15,53285
 645,47; 5129,709;  248,551;31644,192;15,54725
 646,05; 5088,741;  250,859;31611,656;15,42653
 646,62; 5103,080;  230,244;31508,350;15,57906
 647,20; 5101,496;  242,244;31677,814;15,45781
 647,77; 5015,528;  219,552;31590,509;15,28795
 648,35; 5013,329;  205,629;31437,665;15,39349
 648,92; 4997,129;  220,706;31536,128;15,25262
 649,50; 4963,546;  199,475;31455,208;15,24223
 650,08; 4953,193;  200,321;31330,902;15,26753
 650,65; 4977,147;  205,783;31524,443;15,23489
 651,23; 4991,487;  193,937;32113,907;15,02993
 651,80; 5140,980;  196,014;32978,986;15,08395
 652,38; 5237,935;  215,014;33420,680;15,12670
 652,95; 5216,735;  191,860;33682,452;15,00384
 653,53; 5257,998;  221,322;33932,916;14,94049
 654,10; 5343,568;  252,553;34001,610;15,08491
 654,68; 5248,523;  206,399;33939,074;14,94730
 655,25; 5247,554;  195,784;34010,076;14,93975
 655,83; 5254,278;  186,938;34132,925;14,92766
 656,40; 5287,541;  233,707;34117,773;14,91507
 656,98; 5268,034;  216,630;34001,314;14,95176
 657,55; 5224,065;  211,015;33852,008;14,90161
 658,13; 5175,174;  206,323;33606,088;14,87690
 658,70; 5158,129;  233,554;33373,475;14,85995
 659,28; 5050,930;  203,707;32672,938;14,92866
 659,85; 4940,038;  238,400;31938,864;14,83145
 660,43; 4966,070;  224,169;31835,866;15,00046
 661,00; 4905,794;  207,785;31997,637;14,77833
 661,58; 4972,671;  205,631;32299,486;14,85344
 662,15; 4977,165;  201,093;32432,103;14,81825
 662,73; 5070,812;  276,170;32681,337;14,79592
 663,30; 5029,074;  218,708;32765,108;14,78002
 663,88; 5046,029;  205,478;32979,264;14,76958
 664,45; 5085,676;  204,247;33182,420;14,80200
 665,03; 5133,861;  214,555;33517,730;14,77128
 665,60; 5319,354;  291,862;33881,502;14,96739
 666,17; 5180,001;  206,786;33876,965;14,77039
 666,75; 5237,956;  201,017;34247,122;14,79447
 667,32; 5324,219;  222,940;34514,739;14,87609
 667,90; 5309,635;  210,863;34759,049;14,75844
 668,47; 5354,897;  235,401;34978,205;14,73541
 669,05; 5408,852;  203,555;35190,131;14,87798
 669,62; 5386,114;  184,017;35287,671;14,81925
 670,19; 5441,377;  190,786;35354,058;14,93203
 670,77; 5457,485;  209,325;35586,753;14,83477
 671,34; 5405,132;  204,094;35506,986;14,73261
 671,92; 5502,010;  193,864;35773,065;14,91924
 672,49; 5524,272;  216,171;35796,221;14,91876
 673,06; 5501,766;  176,710;35855,762;14,92488
 673,64; 5490,336;  185,710;35888,764;14,85762
 674,21; 5521,290;  176,095;35786,612;15,01016
 674,79; 5534,168;  218,556;36006,307;14,85316
 675,36; 5603,892;  220,633;36144,309;14,98527
 675,93; 5532,001;  184,557;35922,619;14,96288
 676,51; 5589,802;  206,634;36172,545;14,96742
 677,08; 5618,218;  216,172;36211,316;15,00771
 677,65; 5611,019;  210,095;36233,703;14,99273
 678,23; 5663,204;  217,095;36526,321;14,99924
 678,80; 5677,236;  201,096;36591,015;15,04851
 679,38; 5715,421;  202,250;36700,710;15,10522
 679,95; 5754,299;  212,096;36994,635;15,06748
 680,52; 5808,869;  200,481;37206,330;15,15541
 681,10; 5890,285;  219,558;37515,716;15,20459
 681,67; 5939,317;  210,558;37679,796;15,28923
 682,24; 5974,964;  177,865;37796,490;15,41018
 682,82; 6030,611;  191,635;38262,723;15,33704
 683,39; 6127,181;  260,173;38554,802;15,32071
 683,96; 6190,136;  209,558;38842,343;15,48058
 684,54; 6224,475;  187,327;38945,192;15,57657
 685,11; 6287,353;  250,789;39362,809;15,43404
 685,68; 6364,846;  207,635;39788,965;15,55585
 686,25; 6380,801;  195,020;39773,044;15,62933
 686,83; 6425,602;  209,559;39990,124;15,62583
 687,40; 6509,095;  189,943;40179,126;15,80215
 687,97; 6584,819;  239,482;40649,744;15,70229
 688,55; 6564,235;  187,943;40597,515;15,77916
 689,12; 6589,267;  167,867;40850,287;15,78421
 689,69; 6644,991;  178,713;40927,596;15,86860
 690,26; 6655,176;  198,405;41028,983;15,81357
 690,84; 6748,131;  193,328;41170,370;15,99628
 691,41; 6758,624;  212,252;41281,603;15,93980
 691,98; 6819,502;  200,098;41426,221;16,05633
 692,56; 6831,995;  193,098;41576,069;16,04258
 693,13; 6889,103;  257,329;41618,072;16,03398
 693,70; 6933,673;  214,329;41739,535;16,18136
 694,27; 6933,628;  192,098;41837,615;16,18789
 694,84; 6983,583;  182,098;41999,463;16,26474
 695,42; 7169,768;  309,714;42157,927;16,39271
 695,99; 7068,800;  207,560;42268,467;16,31263
 696,56; 7101,755;  205,176;42062,777;16,47629
 697,13; 7195,325;  223,637;42465,010;16,50441
 697,71; 7225,280;  194,714;42405,243;16,65595
 698,28; 7262,696;  200,484;42685,938;16,62266
 698,85; 7299,804;  165,484;42749,248;16,75362
 699,42; 7343,990;  171,945;42917,404;16,77849
 699,99; 7463,483;  218,099;43094,637;16,89825
 700,57; 7442,592;  207,946;42982,024;16,91362
 701,14; 7499,931;  175,100;43243,565;17,00741
 701,71; 7586,039;  205,254;43393,259;17,08990
 702,28; 7598,609;  196,100;43389,108;17,13821
 702,85; 7653,487;  199,638;43459,879;17,23025
 703,43; 7720,596;  220,946;43677,805;17,25769
 704,00; 7780,397;  231,946;43936,884;17,27139
 704,57; 7772,274;  211,331;43860,809;17,32196
 705,14; 7895,921;  231,562;44073,811;17,48168
 705,71; 7913,261;  237,947;44170,967;17,47049
 706,28; 7891,523;  205,408;43985,585;17,55615
 706,86; 8035,555;  236,485;44296,664;17,70095
 707,43; 8077,433;  266,408;44263,667;17,75343
 708,00; 8043,772;  251,947;44272,592;17,70039
 708,57; 8061,573;  213,716;44162,671;17,85675
 709,14; 8154,220;  241,178;44266,596;17,97380
 709,71; 8159,251;  215,409;44289,522;18,02383
 710,28; 8312,591;  219,255;44550,985;18,25630
 710,86; 8285,776;  218,486;44591,911;18,18045
 711,43; 8329,577;  252,101;44707,836;18,16970
 712,00; 8361,147;  223,640;44776,146;18,26498
 712,57; 8445,640;  241,563;44921,841;18,36174
 713,14; 8494,980;  216,717;45019,997;18,47691
 713,71; 8577,934;  223,717;44877,768;18,70876
 714,28; 8594,812;  221,410;45031,232;18,68653
 714,85; 8578,382;  207,179;44795,157;18,77457
 715,42; 8694,645;  206,333;44930,006;18,97946
 716,00; 8806,984;  293,487;44958,316;19,06085
 716,57; 8782,477;  210,410;45137,164;19,08009
 717,14; 8797,278;  195,025;45000,705;19,19902
 717,71; 8855,617;  194,103;45114,015;19,28213
 718,28; 8948,187;  236,564;45249,863;19,35344
 718,85; 8900,219;  196,180;45256,481;19,31643
 719,42; 9013,789;  219,334;45374,483;19,47609
 719,99; 8976,436;  197,949;45290,408;19,46775
 720,56; 9134,775;  211,872;45504,180;19,70070
 721,13; 9162,192;  203,795;45534,798;19,76218
 721,70; 9225,839;  199,488;45353,800;19,99001
 722,27; 9246,178;  217,103;45439,571;19,96590
 722,84; 9429,979;  275,642;45645,189;20,17727
 723,41; 9353,857;  178,950;45564,268;20,21558
 723,98; 9409,658;  196,181;45692,578;20,25100
 724,55; 9547,228;  234,181;45880,273;20,40273
 725,12; 9538,952;  161,181;45785,275;20,55443
 725,69; 9689,983;  191,642;45912,508;20,77463
 726,27; 9697,476;  194,796;46100,972;20,70022
 726,84; 9797,046;  209,796;46272,051;20,81368
 727,41; 9897,232;  229,643;46219,284;21,02123
 727,98; 9969,725;  227,643;46454,286;21,07460
 728,55;10015,449;  257,720;46409,981;21,14247
 729,12;10092,558;  193,489;46419,598;21,41445
 729,69;10172,128;  231,105;46690,216;21,39736
 730,26;10245,313;  212,259;46748,988;21,55943
 730,82;10279,729;  200,259;46789,759;21,63464
 731,39;10320,761;  202,797;46789,223;21,71870
 731,96;10441,023;  196,105;47146,764;21,82061
 732,53;10539,055;  213,951;47229,997;21,96081
 733,10;10628,087;  218,259;47406,614;22,06016
 733,67;10730,811;  219,182;47580,232;22,19467
 734,24;10687,150;  195,798;47363,542;22,24264
 734,81;10756,028;  238,567;47405,467;22,29839
 735,38;10825,444;  206,413;47182,854;22,60501
 735,95;10833,476;  207,875;47039,626;22,68888
 736,52;10879,507;  227,029;47306,243;22,62671
 737,09;10900,616;  220,491;46945,322;22,85749
 737,66;11001,340;  264,645;47125,478;22,91187
 738,23;11067,448;  209,568;47270,019;23,07220
 738,80;11255,480;  285,491;47433,021;23,26737
 739,37;11239,896;  238,414;47544,562;23,25592
 739,94;11301,774;  211,183;47537,872;23,43411
 740,51;11543,344;  346,645;47725,567;23,63224
 741,07;11455,453;  214,337;47657,031;23,69409
 741,64;11547,715;  242,876;47821,033;23,76057
 742,21;11597,208;  216,799;47846,881;23,89332
 742,78;11672,009;  183,876;47695,114;24,17982
 743,35;11815,887;  213,338;47841,578;24,36065
 743,92;11872,072;  252,723;48011,734;24,32913
 744,49;11922,796;  242,723;47954,736;24,48036
 745,06;11967,905;  215,954;47984,508;24,60186
 745,63;12002,936;  199,261;47951,741;24,71845
 746,19;12131,814;  207,185;48003,282;24,94896
 746,76;12137,154;  211,031;47986,976;24,96261
 747,33;12241,724;  211,185;47932,363;25,21006
 747,90;12394,217;  229,800;48207,904;25,35410
 748,47;12411,864;  219,723;48079,752;25,47458
 749,04;12509,588;  225,493;48062,831;25,67888
 749,61;12533,235;  248,493;48079,987;25,68337
 750,17;12689,882;  241,493;48101,759;26,00986
 750,74;12703,760;  225,724;48091,607;26,06875
 751,31;12716,484;  200,032;47929,917;26,22351
 751,88;12755,823;  194,032;47761,381;26,40843
 752,45;12904,931;  201,570;48047,614;26,55049
 753,02;12925,809;  243,570;47837,155;26,64695
 753,58;12905,610;  206,186;47801,157;26,68228
 754,15;12987,949;  199,801;47897,006;26,81111
 754,72;12992,443;  202,263;47735,854;26,90767
 755,29;12985,243;  193,340;47625,779;26,96868
 755,86;13126,967;  223,494;47612,166;27,22902
 756,42;13184,384;  239,109;47549,784;27,36227
 756,99;13152,723;  193,571;47528,325;27,37767
 757,56;13286,524;  221,494;47488,788;27,64074
 758,13;13237,940;  172,187;47382,252;27,67578
 758,70;13384,510;  203,956;47498,870;27,86886
 759,26;13478,542;  210,572;47622,718;27,98433
 759,83;13497,419;  221,572;47698,797;27,96256
 760,40;13546,682;  182,879;47539,646;28,21942
 760,97;13584,483;  194,341;47545,879;28,27816
 761,53;13588,514;  185,033;47250,573;28,47833
 762,10;13677,469;  187,572;47242,729;28,66826
 762,67;13764,731;  223,880;47363,039;28,72527
 763,24;13662,840;  157,111;46810,965;28,94880
 763,80;13831,256;  203,649;47057,890;29,08511
 764,37;13935,596;  199,265;46949,508;29,38237
 764,94;13827,243;  175,649;46512,741;29,46148
 765,50;13926,582;  187,496;46622,820;29,58757
 766,07;14048,075;  215,342;46601,591;29,82076
 766,64;14016,184;  183,573;46386,824;29,93861
 767,21;14056,061;  200,496;46244,057;30,09230
 767,77;14149,939;  212,496;46237,752;30,28216
 768,34;14154,202;  211,804;46083,754;30,39417
 768,91;14222,464;  221,419;46028,295;30,56538
 769,47;14258,726;  206,958;45959,297;30,71268
 770,04;14298,912;  218,573;45886,838;30,83178
 770,61;14248,405;  194,420;45673,071;30,90238
 771,18;14353,514;  189,112;45574,766;31,20898
 771,74;14461,853;  198,574;45760,999;31,30492
 772,31;14408,654;  207,651;45522,309;31,33865
 772,88;14401,916;  185,189;45194,157;31,58643
 773,44;14408,563;  192,651;45197,544;31,58748
 774,01;14527,210;  205,728;45247,161;31,79624
 774,58;14488,396;  195,882;44967,779;31,92296
 775,14;14514,735;  187,036;45002,089;31,97073
 775,71;14584,921;  190,498;45007,245;32,11840
 776,27;14718,029;  256,344;45031,324;32,29859
 776,84;14830,753;  311,036;45082,865;32,43048
 777,41;14823,785;  210,344;44851,790;32,73514
 777,97;14857,432;  191,498;44521,023;33,08390
 778,54;14926,233;  217,113;44589,641;33,14916
 779,11;14984,187;  239,883;44533,566;33,28760
 779,67;15005,603;  196,806;44509,723;33,41869
 780,24;15064,404;  219,883;44317,648;33,66275
 780,80;15159,128;  232,806;44183,727;33,96134
 781,37;15180,852;  226,268;44244,345;33,97373
 781,94;15104,730;  216,268;44098,193;33,92846
 782,50;15236,608;  210,576;44058,118;34,26881
 783,07;15262,409;  238,807;44164,813;34,20207
 783,63;15311,517;  211,037;43904,354;34,56016
 784,20;15346,857;  240,114;43756,664;34,71494
 784,77;15357,350;  211,191;43611,204;34,89897
 785,33;15344,997;  188,499;43542,053;34,96022
 785,90;15379,721;  202,961;43474,670;35,07317
 786,46;15405,214;  248,346;43350,596;35,16491
 787,03;15433,553;  203,269;43279,290;35,35676
 787,59;15455,969;  207,884;43225,370;35,44625
 788,16;15554,539;  223,192;43184,372;35,68651
 788,73;15514,417;  221,038;43086,374;35,67773
 789,29;15491,218;  213,654;42647,992;36,00283
 789,86;15537,404;  241,962;42764,302;35,97037
 790,42;15520,358;  212,039;42514,458;36,18781
 790,99;15547,159;  232,654;42188,537;36,50145
 791,55;15585,729;  215,808;42205,155;36,60434
 792,12;15614,222;  249,116;42234,311;36,59649
 792,68;15558,177;  220,116;42022,621;36,69173
 793,25;15649,670;  235,808;41749,315;37,12975
 793,81;15628,702;  317,732;41461,548;37,21330
 794,38;15547,734;  191,578;41261,089;37,39065
 794,94;15574,688;  212,501;41053,014;37,61507
 795,51;15593,181;  231,886;40950,247;37,72572
 796,07;15620,059;  227,347;40739,096;37,99567
 796,64;15746,245;  240,271;40835,713;38,19634
 797,20;15651,199;  235,117;40351,177;38,42871
 797,77;15594,462;  194,348;40175,026;38,51889
 798,33;15599,801;  238,040;40026,182;38,60889
 798,90;15663,217;  250,656;39942,107;38,83094
 799,46;15604,018;  212,425;39510,802;39,16598
 800,03;15623,973;  227,810;39487,727;39,21599
 800,59;15579,466;  242,810;39295,960;39,27124
 801,15;15632,036;  248,502;39119,347;39,57602
 801,72;15460,837;  222,502;38846,041;39,45349
 802,28;15527,946;  254,887;38628,351;39,80109
 802,85;15543,439;  222,656;38441,969;40,08649
 803,41;15496,317;  238,041;38174,817;40,22027
 803,98;15480,194;  216,580;37995,973;40,40196
 804,54;15397,995;  214,580;37805,360;40,39133
 805,11;15421,411;  242,041;37534,440;40,70366
 805,67;15454,443;  242,118;37478,903;40,85295
 806,23;15300,475;  230,118;36999,906;40,98570
 806,80;15354,429;  256,657;36971,216;41,12203
 807,36;15414,461;  250,965;36936,064;41,33421
 807,93;15439,108;  263,811;36716,989;41,62956
 808,49;15299,524;  235,119;36466,376;41,57848
 809,05;15271,017;  217,427;36270,225;41,75429
 809,62;15267,895;  242,119;36224,842;41,75831
 810,18;15312,235;  239,888;36103,768;42,02654
 810,74;15266,574;  202,196;35830,539;42,28201
 811,31;15293,144;  199,812;35807,080;42,38835
 811,87;15275,253;  238,504;35550,159;42,58296
 812,44;15333,207;  264,196;35585,238;42,66299
 813,00;15258,470;  186,581;35325,010;42,89289
 813,56;15365,424;  236,812;35426,243;42,99192
 814,13;15447,456;  243,274;35306,245;43,36250
 814,69;15430,411;  222,043;35126,709;43,57116
 815,25;15315,750;  195,351;34763,634;43,74067
 815,82;15406,705;  248,582;34740,790;43,94651
 816,38;15411,736;  282,736;34607,408;44,07617
 816,94;15341,076;  227,120;34295,564;44,36350
 817,51;15331,415;  202,582;34186,182;44,51804
 818,07;15281,600;  204,736;33943,107;44,68759
 818,63;15277,786;  237,505;33742,648;44,88947
 819,20;15359,202;  227,198;33680,034;45,23385
 819,76;15186,311;  218,198;33318,191;45,22089
 820,32;15288,881;  257,506;33216,654;45,60608
 820,89;15181,605;  241,044;33095,272;45,47531
 821,45;15156,867;  218,121;32781,428;45,87601
 822,01;15110,283;  235,967;32576,738;45,99246
 822,57;15151,700;  250,275;32504,356;46,20012
 823,14;15137,116;  202,275;32337,050;46,47563
 823,70;15064,763;  209,814;32111,668;46,56453
 824,26;15090,333;  214,891;31924,516;46,91144
 824,82;15104,211;  245,814;31755,826;47,15453
 825,39;15053,319;  213,507;31557,905;47,34438
 825,95;15170,274;  234,122;31663,677;47,52263
 826,51;15071,690;  234,891;31224,987;47,87594
 827,08;15187,645;  270,199;31294,066;48,08377
 827,64;15189,677;  247,430;31137,838;48,37180
 828,20;15081,477;  219,276;30844,148;48,52984
 828,76;15115,971;  250,353;30913,304;48,48071
 829,32;15149,156;  264,507;30782,921;48,77268
 829,89;15011,572;  201,046;30631,693;48,66977
 830,45;15124,835;  239,354;30549,772;49,11011
 831,01;15129,943;  230,200;30435,236;49,32867
 831,57;15063,437;  231,046;30356,700;49,23508
 832,14;15103,391;  213,585;30360,163;49,39136
 832,70;15019,884;  211,354;30087,473;49,56645
 833,26;15043,301;  187,200;30007,552;49,81866
 833,82;15030,948;  225,277;29996,401;49,73165
 834,38;15106,056;  216,431;29933,019;50,10543
 834,95;14987,626;  194,431;29881,482;49,83046
 835,51;14958,966;  181,201;29619,485;50,19914
 836,07;15123,305;  216,739;29849,179;50,30489
 836,63;15120,029;  244,739;29809,104;50,31493
 837,19;15119,522;  226,278;29616,722;50,67376
 837,75;15027,400;  183,509;29437,186;50,74197
 838,32;15117,047;  251,817;29434,496;50,93854
 838,88;15237,617;  245,817;29527,190;51,19910
 839,44;15202,110;  241,894;29466,116;51,19115
 840,00;15214,065;  231,740;29344,195;51,46363
 840,56;15209,481;  207,740;29087,582;51,94537
 841,12;15263,974;  209,202;29022,969;52,24854
 841,68;15188,775;  199,509;28915,509;52,19831
 842,25;15277,499;  210,202;28897,435;52,52266
 842,81;15197,454;  196,971;28658,899;52,70368
 843,37;15287,947;  194,741;28716,824;52,91762
 843,93;15244,055;  216,894;28621,134;52,90464
 844,49;15346,395;  234,510;28662,136;53,15915
 845,05;15311,119;  186,202;28451,138;53,51124
 845,61;15370,843;  245,972;28538,602;53,45869
 846,17;15318,797;  207,818;28423,297;53,55564
 846,73;15437,367;  218,280;28418,684;53,96762
 847,29;15291,014;  209,972;28240,686;53,80185
 847,86;15317,277;  214,049;28164,688;54,03536
 848,42;15254,308;  214,126;28038,306;54,05436
 848,98;15311,263;  219,203;27979,846;54,36495
 849,54;15355,372;  202,280;28005,079;54,50204
 850,10;15322,250;  229,973;27859,466;54,62379
 850,66;15299,589;  209,357;27766,469;54,75985
 851,22;15321,236;  197,819;27664,702;55,06055
 851,78;15411,806;  250,819;27777,089;55,07825
 852,34;15294,684;  223,742;27524,091;55,20421
 852,90;15289,946;  207,742;27507,016;55,24764
 853,46;15222,209;  203,742;27169,557;55,69447
 854,02;15275,932;  219,742;27278,559;55,64246
 854,58;15192,733;  213,512;27066,561;55,78220
 855,14;15210,303;  211,589;27005,487;55,97810
 855,70;15189,181;  180,281;26777,412;56,43052
 856,26;15262,828;  225,743;26742,030;56,70887
 856,82;15180,244;  213,974;26686,570;56,53496
 857,38;15261,968;  255,435;26626,034;56,90630
 857,94;15202,769;  219,051;26536,806;56,93388
 858,50;15237,724;  237,743;26454,885;57,21440
 859,06;15137,063;  205,743;26178,733;57,48787
 859,62;15240,787;  235,205;26182,582;57,83083
 860,18;15219,357;  222,821;26027,815;58,11486
 860,74;15213,466;  185,359;25935,202;58,36194
 861,30;15096,267;  200,128;25775,742;58,24352
 861,86;15271,760;  267,129;25813,206;58,73556
 862,42;15192,330;  214,744;25544,824;59,12964
 862,98;15243,592;  246,590;25605,441;59,13912
 863,54;15194,932;  212,437;25394,982;59,49555
 864,10;15241,656;  214,206;25447,215;59,55473
 864,66;15172,226;  194,052;25251,910;59,77436
 865,22;15191,950;  209,898;25159,604;60,04901
 865,78;15208,058;  213,514;25047,222;60,37980
 866,34;15165,936;  198,283;25047,916;60,23289
 866,90;15178,968;  220,668;24849,534;60,73483
 867,45;15133,307;  229,206;24756,613;60,76509
 868,01;15100,262;  215,591;24654,539;60,90553
 868,57;15012,293;  206,976;24441,695;61,09135
 869,13;14986,863;  194,668;24362,312;61,20661
 869,69;15016,741;  225,284;24253,315;61,55917
 870,25;14986,927;  194,669;24182,471;61,66575
 870,81;15005,651;  208,053;24100,396;61,93448
 871,37;15044,759;  229,361;24070,091;62,14322
 871,93;15025,022;  247,515;23878,478;62,53451
 872,49;15014,284;  268,900;23714,172;62,89278
 873,04;14935,931;  197,592;23557,636;63,09209
 873,60;14900,809;  205,977;23462,254;63,18652
 874,16;14899,687;  221,208;23347,333;63,47142
 874,72;14897,379;  209,823;23380,025;63,38985
 875,28;14852,148;  218,131;23348,102;63,26864
 875,84;14900,456;  221,131;23300,025;63,60498
 876,40;14815,071;  215,131;23155,102;63,64411
 876,95;14843,610;  223,438;23142,256;63,79112
 877,51;14947,379;  251,592;23168,410;64,12665
 878,07;14932,610;  262,208;23186,410;63,99526
 878,63;14946,840;  212,054;23134,256;64,28172
 879,19;14974,763;  231,977;23189,102;64,21878
 879,75;14990,379;  204,131;23175,948;64,36691
 880,30;15009,917;  222,515;23103,794;64,62664
 880,86;15179,687;  262,438;23294,717;64,76670
 881,42;15176,071;  199,438;23303,487;64,82255
 881,98;15266,379;  229,362;23390,410;64,92373
 882,54;15422,687;  215,054;23375,487;65,66213
 883,09;15477,148;  220,900;23574,948;65,32593
 883,65;15527,302;  205,592;23483,948;65,81955
 884,21;15772,456;  246,515;23818,871;65,86504
 884,77;15785,302;  208,669;23800,794;66,02471
 885,32;15995,840;  216,823;23943,640;66,50288
 885,88;16134,148;  250,746;24105,717;66,58319
 886,44;16254,071;  222,592;24123,871;67,07373
 887,00;16288,225;  245,285;24141,794;67,13508
 887,56;16422,379;  209,823;24294,102;67,31593
 888,11;16470,225;  221,285;24308,102;67,45989
 888,67;16630,225;  252,823;24400,333;67,82232
 889,23;16711,840;  220,208;24482,179;67,97318
 889,79;16732,840;  204,592;24303,487;68,58509
 890,34;16826,687;  231,669;24299,333;68,95151
 890,90;16896,687;  298,592;24418,794;68,81408
 891,46;16841,763;  212,515;24348,410;68,89841
 892,01;16948,610;  239,746;24326,179;69,37044
 892,57;17036,533;  265,515;24254,487;69,91137
 893,13;16863,763;  224,900;24073,487;69,76876
 893,69;16998,687;  209,592;24010,179;70,54067
 894,24;16942,379;  224,362;23982,333;70,36803
 894,80;16847,994;  222,438;23844,640;70,38106
 895,36;16840,840;  229,746;23747,948;70,63080
 895,91;16827,610;  219,592;23516,640;71,28808
 896,47;16779,071;  247,438;23529,102;71,00709
 897,03;16683,148;  220,515;23267,563;71,43055
 897,58;16657,379;  227,977;23177,410;71,58958
 898,14;16658,994;  243,592;23120,563;71,75514
 898,70;16547,302;  198,362;22922,333;71,94579
 899,25;16579,533;  225,208;22978,948;71,87533
 899,81;16521,994;  246,438;22819,025;72,10319
 900,37;16443,302;  197,285;22637,487;72,39693
 900,92;16489,610;  229,208;22644,717;72,54085
 901,48;16426,148;  212,515;22451,794;72,90539
 902,03;16376,840;  216,054;22301,563;73,17371
 902,59;16319,763;  218,208;22331,640;72,81346
 903,15;16303,071;  250,515;22087,256;73,51168
 903,70;16154,225;  219,900;21979,563;73,22873
 904,26;16129,225;  223,746;21877,487;73,45372
 904,82;16130,533;  230,746;21862,640;73,50159
 905,37;16044,225;  228,669;21730,333;73,55503
 905,93;15999,225;  219,362;21658,179;73,60417
 906,48;15965,610;  236,208;21601,102;73,62265
 907,04;15972,763;  240,285;21476,102;74,08464
 907,60;15887,763;  238,131;21357,179;74,10198
 908,15;15886,071;  201,977;21213,410;74,64552
 908,71;15853,763;  239,438;21286,025;74,18935
 909,26;15761,302;  223,515;21088,256;74,46911
 909,82;15704,917;  243,746;20958,640;74,63794
 910,37;15718,610;  271,977;20923,948;74,79496
 910,93;15567,917;  209,823;20717,717;74,88869
 911,48;15538,225;  204,592;20649,102;75,00123
 912,04;15417,533;  219,131;20462,948;75,07676
 912,60;15513,763;  236,746;20524,871;75,30029
 913,15;15433,687;  231,669;20291,640;75,78285
 913,71;15296,379;  210,823;20166,025;75,59711
 914,26;15319,610;  197,977;20162,256;75,74345
 914,82;15348,840;  216,208;20106,948;76,07878
 915,37;15273,610;  209,669;20033,333;75,98969
 915,93;15286,994;  284,592;19933,563;76,35210
 916,48;15229,225;  219,515;19801,256;76,65156
 917,04;15082,302;  239,131;19686,640;76,32428
 917,59;15234,994;  259,208;19677,256;77,12303
 918,15;15073,302;  194,054;19513,640;77,01639
 918,70;15071,148;  222,515;19423,563;77,33241
 919,26;15074,917;  230,362;19416,717;77,37038
 919,81;14952,917;  201,054;19181,948;77,71954
 920,37;15037,456;  213,900;19112,640;78,43674
 920,92;14958,610;  243,746;19137,640;77,88158
 921,48;14813,456;  207,977;18901,410;78,13160
 922,03;14902,610;  212,977;18846,333;78,83514
 922,59;14800,302;  226,823;18791,794;78,49987
 923,14;14817,917;  236,438;18596,871;79,41795
 923,69;14804,763;  245,592;18562,179;79,48627
 924,25;14826,225;  257,285;18562,563;79,58874
 924,80;14723,610;  226,438;18369,025;79,90686
 925,36;14687,687;  207,362;18322,102;79,93670
 925,91;14640,148;  215,977;18221,717;80,10874
 926,47;14547,917;  190,592;18161,871;79,89039
 927,02;14629,533;  295,746;18083,333;80,58309
 927,57;14485,610;  212,362;17960,256;80,42221
 928,13;14441,610;  211,208;17831,179;80,76291
 928,68;14404,917;  225,592;17891,563;80,26349
 929,24;14307,379;  202,362;17668,102;80,75820
 929,79;14297,610;  204,285;17577,563;81,12070
 930,34;14229,994;  206,823;17422,256;81,45698
 930,90;14228,763;  206,900;17422,179;81,45011
 931,45;14211,994;  233,131;17462,256;81,13507
 932,01;14193,840;  236,515;17360,487;81,50752
 932,56;14116,840;  247,208;17165,563;81,97979
 933,11;14150,840;  256,131;17126,794;82,36018
 933,67;14075,840;  229,054;17004,563;82,54167
 934,22;14063,994;  227,362;16960,025;82,69235
 934,77;13937,917;  251,977;16781,410;82,79740
 935,33;13938,533;  230,285;16716,871;83,14789
 935,88;13983,610;  242,900;16752,025;83,23100
 936,43;13867,071;  227,362;16605,102;83,28200
 936,99;13862,379;  227,208;16544,640;83,56199
 937,54;13743,763;  198,054;16446,871;83,36428
 938,09;13764,610;  217,131;16372,717;83,85631
 938,65;13713,456;  228,131;16261,640;84,10713
 939,20;13660,379;  202,515;16177,563;84,24302
 939,75;13683,225;  215,285;16124,563;84,65463
 940,31;13642,071;  207,977;15971,333;85,22357
 940,86;13644,379;  235,515;15983,179;85,14827
 941,41;13623,687;  323,823;15937,871;85,17883
 941,96;13551,763;  207,977;15792,563;85,62169
 942,52;13520,379;  219,823;15760,256;85,58678
 943,07;13458,225;  197,746;15593,640;86,12997
 943,62;13497,687;  209,592;15560,102;86,56452
 944,18;13486,225;  199,362;15509,487;86,78481
 944,73;13441,225;  224,746;15427,102;86,93704
 945,28;13317,687;  193,746;15267,794;87,06315
 945,83;13366,533;  211,746;15246,871;87,49370
 946,39;13368,763;  211,977;15224,179;87,64062
 946,94;13331,763;  234,131;15147,563;87,82440
 947,49;13258,148;  207,823;15083,256;87,73073
 948,04;13236,456;  265,515;15046,333;87,75523
 948,59;13220,763;  250,592;14994,487;87,96978
 949,15;13202,071;  205,208;14878,102;88,57737
 949,70;13144,225;  219,438;14792,102;88,69200
 950,25;13119,917;  235,131;14693,487;89,11654
 950,80;13075,763;  182,592;14674,102;88,97052
 951,36;13055,456;  173,977;14514,563;89,82533
 951,91;13087,302;  241,977;14557,102;89,73254
 952,46;12976,225;  211,515;14430,333;89,77336
 953,01;12972,379;  229,285;14444,256;89,64559
 953,56;12876,379;  196,669;14223,487;90,39620
 954,11;12895,148;  228,285;14239,102;90,40774
 954,67;12902,071;  216,131;14136,179;91,13431
 955,22;12774,917;  194,362;14011,794;91,04843
 955,77;12826,456;  231,900;14036,179;91,23661
 956,32;12802,071;  276,285;13908,179;91,88588
 956,87;12726,917;  206,054;13860,563;91,69764
 957,42;12669,763;  211,515;13823,410;91,52472
 957,98;12649,763;  207,746;13717,102;92,09926
 958,53;12599,148;  247,362;13722,179;91,66571
 959,08;12536,456;  213,900;13561,487;92,32048
 959,63;12439,994;  208,515;13540,563;91,74494
 960,18;12418,225;  221,054;13492,025;91,90866
 960,73;12407,994;  218,900;13412,794;92,38436
 961,28;12332,456;  199,977;13368,256;92,13413
 961,83;12309,533;  236,515;13331,487;92,19583
 962,39;12239,687;  204,977;13205,179;92,57325
 962,94;12210,225;  222,900;13198,640;92,38259
 963,49;12146,687;  224,977;13043,256;93,00554
 964,04;12155,763;  229,592;13004,717;93,35463
 964,59;12078,071;  191,208;12920,256;93,38376
 965,14;12063,763;  234,054;12819,102;93,99813
 965,69;12000,071;  215,592;12784,256;93,76080
 966,24;11942,225;  202,285;12659,563;94,24161
 966,79;11869,456;  240,054;12654,871;93,67356
 967,34;11803,533;  187,515;12482,640;94,47661
 967,89;11772,456;  211,438;12511,256;93,99341
 968,44;11705,148;  216,592;12428,333;94,07796
 968,99;11642,840;  227,823;12349,563;94,16979
 969,55;11578,148;  219,592;12292,179;94,08552
 970,10;11572,840;  231,438;12193,256;94,81337
 970,65;11506,148;  245,131;12086,871;95,09597
 971,20;11412,610;  210,208;12017,179;94,87956
 971,75;11301,533;  194,592;11844,102;95,34256
 972,30;11281,917;  221,669;11904,948;94,66733
 972,85;11226,994;  208,515;11747,794;95,48672
 973,40;11078,533;  208,054;11706,948;94,53499
 973,95;11059,225;  228,977;11657,794;94,76263
 974,50;11014,379;  251,592;11607,640;94,77581
 975,05;11020,610;  222,285;11516,410;95,61011
 975,60;10922,302;  234,438;11411,640;95,62199
 976,15;10813,687;  201,362;11380,794;94,92722
 976,70;10801,610;  223,977;11312,563;95,39207
 977,25;10809,148;  230,438;11288,025;95,66925
 977,80;10714,071;  217,669;11137,871;96,11912
 978,35;10558,533;  246,438;11028,563;95,64065
 978,89;10493,763;  203,977;10951,025;95,74524
 979,44;10541,994;  226,823;10961,333;96,09355
 979,99;10382,917;  216,515;10728,948;96,70837
 980,54;10287,763;  235,900;10703,640;96,02706
 981,09;10287,687;  248,131;10667,256;96,35700
 981,64;10189,763;  228,438;10536,025;96,64071
 982,19;10228,687;  250,515;10493,410;97,41554
 982,74;10107,687;  223,746;10385,948;97,26180
 983,29; 9974,687;  213,054;10241,179;97,34255
 983,84; 9897,533;  222,823;10224,563;96,73026
 984,39; 9919,533;  309,746;10177,333;97,38741
 984,94; 9717,379;  193,054;10055,871;96,56800
 985,49; 9734,763;  254,515; 9997,948;97,29885
 986,03; 9639,379;  233,592; 9924,563;97,05721
 986,58; 9555,302;  273,823; 9831,563;97,10955
 987,13; 9490,302;  225,285; 9711,179;97,67152
 987,68; 9393,610;  237,900; 9625,410;97,53076
 988,23; 9375,533;  246,669; 9541,333;98,21618
 988,78; 9242,610;  215,054; 9450,179;97,75239
 989,33; 9192,302;  247,208; 9348,410;98,28476
 989,88; 9162,763;  266,592; 9341,563;98,02975
 990,42; 9064,071;  227,515; 9220,640;98,25901
 990,97; 8951,610;  214,438; 9067,794;98,68768
 991,52; 8866,917;  245,285; 9052,871;97,88871
 992,07; 8820,763;  269,900; 8989,487;98,06501
 992,62; 8692,533;  237,285; 8861,410;98,04181
 993,17; 8637,917;  250,669; 8761,025;98,55344
 993,71; 8602,302;  256,054; 8735,256;98,43200
 994,26; 8503,763;  225,977; 8609,025;98,74435
 994,81; 8446,225;  255,746; 8560,717;98,62140
 995,36; 8331,763;  227,362; 8417,794;98,94962
 995,91; 8277,840;  235,823; 8371,640;98,84707
 996,45; 8145,763;  225,515; 8249,563;98,70639
 997,00; 8057,994;  211,208; 8114,871;99,28037
 997,55; 8056,687;  240,746; 8144,640;98,88721
 998,10; 7950,225;  267,054; 8010,179;99,22572
 998,65; 7907,225;  232,285; 7979,256;99,07021
 999,19; 7817,610;  260,746; 7907,871;98,81967
 999,74; 7768,610;  275,669; 7788,256;99,73849
1000,29; 7657,840;  237,131; 7731,179;99,02138
1000,84; 7607,456;  229,592; 7572,256;100,47939
1001,38; 7494,456;  239,438; 7539,640;99,38105
1001,93; 7441,148;  248,362; 7480,871;99,45077
1002,48; 7334,148;  218,285; 7299,256;100,49276
1003,03; 7333,225;  256,438; 7323,102;100,14325
1003,57; 7219,763;  235,285; 7216,102;100,05245
1004,12; 7217,071;  275,746; 7162,717;100,78923
1004,67; 7111,610;  237,746; 7084,256;100,39953
1005,22; 6981,994;  218,900; 6931,563;100,75128
1005,76; 6873,610;  202,900; 6815,025;100,88602
1006,31; 6836,379;  251,592; 6788,563;100,73146
1006,86; 6764,994;  230,746; 6727,256;100,58090
1007,40; 6661,687;  216,977; 6614,410;100,73900
1007,95; 6597,071;  247,054; 6506,025;101,45465
1008,50; 6493,763;  237,131; 6437,794;100,90263
1009,04; 6427,840;  236,285; 6353,102;101,22185
1009,59; 6339,071;  237,669; 6198,410;102,35980
1010,14; 6271,917;  212,592; 6121,717;102,54183
1010,68; 6157,610;  240,592; 6066,102;101,57081
1011,23; 6072,225;  237,362; 5991,563;101,40178
1011,78; 6046,456;  248,438; 5919,948;102,23058
1012,32; 5966,533;  264,977; 5834,256;102,37512
1012,87; 5951,610;  263,746; 5799,794;102,74231
1013,42; 5803,763;  219,285; 5676,640;102,32939
1013,96; 5868,456;  266,285; 5702,948;103,04429
1014,51; 5713,533;  194,515; 5638,717;101,37422
1015,06; 5740,687;  198,977; 5622,871;102,17215
1015,60; 5816,379;  270,131; 5678,948;102,54087
1016,15; 5756,533;  222,208; 5631,025;102,32043
1016,69; 5810,302;  243,131; 5662,717;102,72317
1017,24; 5828,456;  214,208; 5628,410;103,69484
1017,79; 5882,610;  259,592; 5696,948;103,41456
1018,33; 5891,148;  231,515; 5689,410;103,69627
1018,88; 5912,917;  257,208; 5746,333;103,03481
1019,42; 5924,917;  223,285; 5714,640;103,82924
1019,97; 5916,917;  220,977; 5688,102;104,18530
1020,51; 5983,610;  259,746; 5828,410;102,78702
1021,06; 5964,071;  215,438; 5724,717;104,34456
1021,61; 5939,148;  197,208; 5715,640;104,05020
1022,15; 5892,379;  175,746; 5684,256;103,77821
1022,70; 5917,533;  233,823; 5684,717;104,27114
1023,24; 5877,840;  207,669; 5655,179;104,08740
1023,79; 5889,071;  210,592; 5595,487;105,45200
1024,33; 5759,302;  222,977; 5567,102;103,59647
1024,88; 5723,456;  237,285; 5434,410;105,56165
1025,42; 5670,763;  242,208; 5380,256;105,65405
1025,97; 5594,917;  223,746; 5349,487;104,78820
1026,51; 5490,917;  193,362; 5236,640;105,04190
1027,06; 5438,379;  207,669; 5202,410;104,72435
1027,60; 5356,148;  237,977; 5131,717;104,58608
1028,15; 5268,610;  240,438; 5051,871;104,50466
1028,69; 5143,071;  182,592; 4920,794;104,69117
1029,24; 5147,071;  205,131; 4923,025;104,74886
1029,78; 5047,840;  205,515; 4815,640;105,03674
1030,33; 4943,225;  193,592; 4682,102;105,81759
1030,87; 4917,610;  204,362; 4647,487;106,07957
1031,42; 4838,533;  196,438; 4556,487;106,46888
1031,96; 4820,456;  236,823; 4548,102;106,31724
1032,51; 4680,917;  203,438; 4440,717;105,66873
1033,05; 4658,917;  218,438; 4427,487;105,49841
1033,60; 4552,148;  192,669; 4295,871;106,24578
1034,14; 4484,379;  213,823; 4250,487;105,79420
1034,69; 4449,840;  216,515; 4207,410;106,07460
1035,23; 4384,302;  216,131; 4128,179;106,54703
1035,77; 4318,610;  222,208; 4076,333;106,28617
1036,32; 4247,533;  196,054; 3986,717;106,88047
1036,86; 4207,994;  222,669; 3999,102;105,53147
1037,41; 4138,687;  229,592; 3900,025;106,50227
1037,95; 4081,379;  180,746; 3846,102;106,41894
1038,50; 4025,071;  202,208; 3803,487;106,15294
1039,04; 4003,994;  241,131; 3772,948;106,54185
1039,58; 3921,148;  210,054; 3700,256;106,32893
1040,13; 3865,148;  215,669; 3657,871;106,02164
1040,67; 3860,302;  252,285; 3627,640;106,89295
1041,21; 3791,302;  244,208; 3596,717;105,80415
1041,76; 3690,687;  204,285; 3487,179;106,19903
1042,30; 3647,456;  211,592; 3481,948;105,06085
1042,85; 3605,840;  221,823; 3406,487;106,25981
1043,39; 3505,533;  198,131; 3354,563;104,78291
1043,93; 3521,148;  243,515; 3342,794;105,75469
1044,48; 3456,610;  230,592; 3280,640;105,76939
1045,02; 3391,379;  214,746; 3214,563;105,89421
1045,56; 3437,917;  242,592; 3238,410;106,65954
1046,11; 3315,994;  227,438; 3181,794;104,54245
1046,65; 3284,071;  238,208; 3089,025;106,84176
1047,19; 3205,148;  208,823; 3051,563;105,40270
1047,74; 3185,994;  191,900; 2994,487;106,83325
1048,28; 3129,302;  226,131; 3001,333;104,61117
1048,82; 3136,379;  243,592; 2956,025;106,64915
1049,37; 3096,302;  232,746; 2932,487;106,06782
1049,91; 3052,225;  224,362; 2855,256;107,48678
1050,45; 3010,071;  227,362; 2829,794;106,92725
1050,99; 2978,302;  229,362; 2806,487;106,66694
1051,54; 2897,379;  209,131; 2730,794;106,60614
1052,08; 2895,994;  251,746; 2717,333;107,24621
1052,62; 2880,379;  238,977; 2689,333;107,79667
1053,16; 2796,225;  216,592; 2629,871;106,89327
1053,71; 2785,610;  225,823; 2601,333;107,75736
1054,25; 2763,840;  254,054; 2566,948;108,51281
1054,79; 2727,533;  235,438; 2547,179;107,80165
1055,33; 2626,917;  200,131; 2450,640;107,83276
1055,88; 2644,533;  230,054; 2484,256;107,11014
1056,42; 2612,533;  241,823; 2468,640;106,46179
1056,96; 2598,840;  241,515; 2394,948;109,46825
1057,50; 2547,456;  234,131; 2408,871;106,37247
1058,05; 2488,994;  222,977; 2317,948;108,16461
1058,59; 2471,687;  256,977; 2302,794;108,25549
1059,13; 2380,687;  215,285; 2243,179;106,78081
1059,67; 2408,994;  236,900; 2229,640;109,00036
1060,21; 2362,533;  245,592; 2211,256;107,69597
1060,76; 2328,994;  235,208; 2190,179;107,10064
1061,30; 2309,302;  254,669; 2150,179;108,39474
1061,84; 2247,148;  238,977; 2104,410;107,65176
1062,38; 2202,533;  220,515; 2055,025;108,04072
1062,92; 2232,687;  267,208; 2092,333;107,69009
1063,46; 2159,225;  242,900; 2023,256;107,63719
1064,01; 2100,610;  230,669; 1992,794;106,11849
1064,55; 2103,994;  236,208; 1976,563;107,32211
1065,09; 2056,610;  202,208; 1910,025;108,58316
1065,63; 2072,763;  265,438; 1932,640;108,40469
1066,17; 2057,225;  271,823; 1910,563;108,94965
1066,71; 2017,840;  245,900; 1891,487;107,67835
1067,25; 1981,994;  232,900; 1824,102;109,92283
1067,80; 1965,225;  247,515; 1830,717;108,49593
1068,34; 1971,994;  257,746; 1846,410;107,90505
1068,88; 1910,610;  220,592; 1753,102;110,27776
1069,42; 1909,763;  255,438; 1791,717;107,68390
1069,96; 1885,610;  229,900; 1733,640;110,10608
1070,50; 1870,148;  271,131; 1754,948;107,76376
1071,04; 1802,840;  216,823; 1685,717;107,97355
1071,58; 1794,533;  238,362; 1667,871;108,86049
1072,12; 1807,840;  239,823; 1649,717;111,21524
1072,66; 1763,148;  240,362; 1640,871;108,73089
1073,21; 1768,071;  255,438; 1643,333;108,98761
1073,75; 1734,071;  247,823; 1602,256;109,73215
1074,29; 1700,840;  237,438; 1575,025;109,40615
1074,83; 1695,302;  261,746; 1580,025;108,74450
1075,37; 1694,148;  258,669; 1574,102;109,12598
1075,91; 1655,071;  243,208; 1527,179;109,96068
1076,45; 1646,917;  251,131; 1527,948;109,31764
1076,99; 1622,379;  262,669; 1491,410;110,65882
1077,53; 1591,917;  229,977; 1465,871;110,19878
1078,07; 1578,071;  259,131; 1478,333;108,18064
1078,61; 1537,148;  247,208; 1439,025;108,23306
1079,15; 1522,994;  240,823; 1419,333;108,79599
1079,69; 1530,840;  238,285; 1411,410;110,18057
1080,23; 1528,071;  272,438; 1414,333;109,96051
1080,77; 1563,302;  314,900; 1445,640;110,40571
1081,31; 1467,840;  232,823; 1355,948;109,96259
1081,85; 1479,840;  265,054; 1380,794;108,87717
1082,39; 1440,071;  240,669; 1324,794;110,63318
1082,93; 1438,687;  260,900; 1341,563;108,98736
1083,47; 1370,840;  227,823; 1288,102;107,80346
1084,01; 1399,302;  254,669; 1299,410;109,56145
1084,55; 1351,148;  245,362; 1275,025;107,39301
1085,09; 1360,840;  257,669; 1277,025;108,22239
1085,63; 1343,840;  252,746; 1253,333;109,04546
1086,17; 1329,610;  229,515; 1243,102;108,53481
1086,71; 1307,610;  237,054; 1222,717;108,61271
1087,24; 1311,379;  263,131; 1234,025;107,96728
1087,78; 1311,994;  267,438; 1210,333;110,78186
1088,32; 1243,687;  229,054; 1147,640;110,45586
1088,86; 1265,840;  258,285; 1194,102;107,66586
1089,40; 1241,071;  238,438; 1152,871;109,64532
1089,94; 1215,533;  221,515; 1128,717;109,56958
1090,48; 1205,456;  247,746; 1130,256;108,52115
1091,02; 1210,379;  266,515; 1135,333;108,63774
1091,56; 1184,533;  249,285; 1090,487;111,17997
1092,10; 1161,610;  221,669; 1072,256;110,50497
1092,63; 1175,148;  265,131; 1099,256;109,09843
1093,17; 1163,225;  264,669; 1091,179;108,71692
1093,71; 1106,610;  227,669; 1046,948;107,28220
1094,25; 1145,917;  268,362; 1067,640;109,79344
1094,79; 1080,610;  244,054; 1043,025;104,70413
1095,33; 1091,994;  256,438; 1041,025;106,49632
1095,87; 1071,763;  251,977; 1015,563;107,36000
1096,40; 1054,225;  223,515;  985,640;108,99913
1096,94; 1058,071;  244,900;  997,563;108,03914
1097,48; 1077,225;  267,285;  998,871;110,71013
1098,02; 1015,917;  235,208;  964,256;107,08616
1098,56;  987,763;  212,746;  929,871;108,07283
1099,10;  979,456;  228,208;  923,487;108,04990
1099,63;  970,302;  215,438;  921,871;106,85568
1100,17;  992,456;  249,823;  929,102;109,32663
1100,71; 1005,610;  268,515;  954,410;107,46471

