
Integration time [ms]: 150,000
Averaging Nr. [scans]: 13
Smoothing Nr. [pixels]: 0
Data measured with spectrometer [name]: 2009305U1
Wave   ;Sample   ;Dark     ;Reference;Reflectance
[nm]   ;[counts] ;[counts] ;[counts] ;[%]

 175,72;  221,346;  220,059;  219,839; 0,00000
 176,32;  242,624;  244,133;  235,111; 0,00000
 176,92;  287,105;  296,904;  286,352; 0,00000
 177,52;  277,252;  278,135;  278,215; 0,00000
 178,12;  244,584;  261,210;  251,705; 0,00000
 178,72;  290,671;  289,210;  260,310; 0,00000
 179,32;  274,760;  273,595;  266,225; 0,00000
 179,92;  278,384;  279,519;  265,978; 0,00000
 180,52;  263,282;  255,753;  268,579;58,69671
 181,12;  276,194;  283,134;  271,317; 0,00000
 181,73;  297,552;  296,827;  283,857; 0,00000
 182,33;  417,774;  403,290;  405,616;622,60962
 182,93;  287,644;  305,905;  290,593; 0,00000
 183,53;  255,769;  261,055;  248,819; 0,00000
 184,13;  265,311;  266,133;  248,344; 0,00000
 184,73;  303,835;  312,440;  294,762; 0,00000
 185,33;  278,561;  268,194;  345,473;13,41522
 185,93;  290,976;  266,500;  362,838;25,40649
 186,53;  310,506;  277,270;  382,013;31,73086
 187,13;  315,985;  292,657;  415,827;18,93975
 187,73;  284,712;  256,193;  363,692;26,52952
 188,33;  287,574;  266,730;  375,280;19,20193
 188,93;  302,708;  274,112;  378,002;27,52508
 189,53;  302,586;  274,109;  398,671;22,86189
 190,13;  332,940;  302,567;  434,752;22,97813
 190,73;  279,353;  237,185;  368,824;32,03332
 191,34;  310,632;  278,495;  406,065;25,19159
 191,94;  282,433;  261,883;  376,661;17,90424
 192,54;  301,916;  267,504;  385,011;29,28497
 193,14;  312,389;  292,041;  397,986;19,20573
 193,74;  304,018;  293,503;  382,193;11,85602
 194,34;  311,720;  289,119;  385,065;23,55662
 194,94;  268,627;  249,195;  342,210;20,89088
 195,54;  253,274;  222,040;  332,873;28,18058
 196,14;  272,325;  247,427;  348,372;24,66505
 196,74;  271,404;  246,732;  340,255;26,37989
 197,34;  242,077;  210,890;  336,743;24,78060
 197,94;  272,474;  252,118;  374,221;16,67086
 198,54;  291,154;  265,658;  377,640;22,76809
 199,14;  248,305;  233,044;  366,592;11,42730
 199,74;  247,375;  215,352;  344,214;24,85043
 200,34;  235,477;  215,275;  354,490;14,51160
 200,94;  284,716;  252,197;  385,688;24,36017
 201,54;  260,584;  227,198;  405,188;18,75757
 202,14;  302,735;  273,660;  451,776;16,32353
 202,74;  258,260;  238,582;  429,928;10,28387
 203,34;  237,815;  207,738;  438,885;13,01210
 203,94;  220,775;  188,353;  433,807;13,20921
 204,54;  295,308;  266,888;  530,748;10,77104
 205,14;  246,211;  213,967;  526,552;10,31513
 205,74;  297,060;  263,738;  594,026;10,08892
 206,34;  255,802;  223,891;  588,575; 8,75026
 206,94;  262,476;  231,352;  631,755; 7,77302
 207,54;  234,226;  212,891;  634,827; 5,05642
 208,14;  256,234;  227,968;  719,908; 5,74583
 208,74;  270,173;  224,736;  773,573; 8,27875
 209,34;  261,087;  224,352;  836,153; 6,00445
 209,94;  281,469;  233,736;  911,177; 7,04601
 210,54;  286,808;  224,276;  983,076; 8,24096
 211,14;  284,407;  230,121; 1067,857; 6,48005
 211,73;  295,365;  234,659; 1152,814; 6,61176
 212,33;  302,031;  247,582; 1232,836; 5,52641
 212,93;  298,495;  226,505; 1322,715; 6,56718
 213,53;  267,627;  192,890; 1352,349; 6,44587
 214,13;  322,009;  225,662; 1439,039; 7,94039
 214,73;  285,350;  200,506; 1433,237; 6,88260
 215,33;  277,700;  185,967; 1450,562; 7,25391
 215,93;  306,194;  218,738; 1562,395; 6,50882
 216,53;  277,493;  178,890; 1610,508; 6,88750
 217,13;  343,938;  232,584; 1772,350; 7,23186
 217,73;  339,026;  212,046; 1909,715; 7,47967
 218,33;  296,384;  181,662; 1998,465; 6,31451
 218,93;  369,220;  205,895; 2256,578; 7,96446
 219,53;  384,454;  212,585; 2457,318; 7,65654
 220,13;  366,331;  171,124; 2715,314; 7,67267
 220,73;  414,070;  204,429; 2974,344; 7,56850
 221,32;  440,865;  200,121; 3284,112; 7,80627
 221,92;  480,874;  207,124; 3589,947; 8,09237
 222,52;  473,756;  189,661; 3885,540; 7,68679
 223,12;  521,426;  205,200; 4216,790; 7,88282
 223,72;  562,188;  212,661; 4530,489; 8,09496
 224,32;  600,893;  218,431; 4842,127; 8,27179
 224,92;  588,935;  190,661; 5053,662; 8,18988
 225,52;  639,776;  220,275; 5374,992; 8,13819
 226,12;  656,697;  198,584; 5558,458; 8,54709
 226,72;  645,974;  175,507; 5803,857; 8,35889
 227,31;  684,939;  171,507; 6079,777; 8,69007
 227,91;  738,641;  220,044; 6386,690; 8,40971
 228,51;  755,987;  197,120; 6656,797; 8,65162
 229,11;  798,398;  199,891; 6967,339; 8,84391
 229,71;  798,853;  193,813; 7214,628; 8,61780
 230,31;  848,120;  184,969; 7483,812; 9,08570
 230,91;  856,317;  174,273; 7733,655; 9,02248
 231,51;  892,298;  179,276; 7951,943; 9,17346
 232,10;  946,265;  188,739; 8162,007; 9,50083
 232,70;  966,028;  209,042; 8372,758; 9,27257
 233,30; 1034,678;  232,122; 8534,145; 9,66698
 233,90; 1006,104;  188,430; 8662,449; 9,64919
 234,50; 1015,820;  191,122; 8700,749; 9,69134
 235,10; 1053,551;  180,815; 8734,354;10,20321
 235,70; 1075,708;  213,890; 8729,182;10,12082
 236,29; 1103,786;  206,505; 8613,828;10,67260
 236,89; 1070,655;  176,658; 8461,795;10,79037
 237,49; 1108,141;  208,661; 8375,802;11,01340
 238,09; 1070,725;  194,122; 8112,345;11,07071
 238,69; 1132,625;  253,042; 7921,225;11,47056
 239,29; 1074,992;  195,891; 7634,005;11,81887
 239,89; 1054,613;  197,351; 7351,182;11,98326
 240,48; 1037,459;  194,814; 7022,188;12,34216
 241,08; 1003,902;  193,814; 6725,598;12,40226
 241,68; 1002,805;  210,429; 6503,090;12,59205
 242,28;  992,255;  186,276; 6208,935;13,38245
 242,88; 1030,001;  243,354; 5978,661;13,71587
 243,48; 1014,763;  239,430; 5695,796;14,20971
 244,07;  988,606;  207,506; 5548,840;14,62370
 244,67;  993,758;  223,968; 5400,152;14,87176
 245,27;  991,211;  223,197; 5286,737;15,16753
 245,87; 1008,038;  226,508; 5191,014;15,74235
 246,47; 1007,015;  206,582; 5187,971;16,06848
 247,06; 1004,821;  188,814; 5185,657;16,33045
 247,66; 1032,507;  193,506; 5215,136;16,70773
 248,26; 1086,346;  217,198; 5355,809;16,91407
 248,86; 1138,770;  214,736; 5496,138;17,49600
 249,46; 1130,844;  161,430; 5668,629;17,60267
 250,05; 1241,012;  212,968; 5986,021;17,80764
 250,65; 1300,786;  174,966; 6167,859;18,78592
 251,25; 1366,319;  191,506; 6617,318;18,28272
 251,85; 1460,253;  197,966; 7047,216;18,42957
 252,44; 1544,369;  183,429; 7553,263;18,46637
 253,04; 1686,762;  206,506; 8118,805;18,70829
 253,64; 1783,036;  159,659; 8738,018;18,92410
 254,24; 1982,404;  215,199; 9500,630;19,03203
 254,84; 2122,306;  181,584;10343,706;19,09760
 255,43; 2276,603;  200,429;11114,700;19,02256
 256,03; 2453,014;  197,428;11984,037;19,13686
 256,63; 2652,313;  199,812;12838,099;19,40532
 257,23; 2802,392;  197,120;13650,075;19,36580
 257,82; 2988,550;  207,427;14628,421;19,28524
 258,42; 3118,278;  176,580;15329,840;19,41297
 259,02; 3336,137;  226,429;16241,836;19,41698
 259,62; 3420,679;  182,195;16840,254;19,44094
 260,21; 3571,310;  211,044;17450,764;19,49142
 260,81; 3672,481;  201,814;17992,983;19,50780
 261,41; 3719,006;  176,965;18444,469;19,38985
 262,01; 3856,042;  228,426;18940,842;19,38615
 262,60; 3861,315;  188,120;19269,383;19,25028
 263,20; 3931,586;  186,890;19666,922;19,22325
 263,80; 3947,571;  221,964;19809,334;19,02045
 264,40; 3979,544;  181,195;20067,643;19,10019
 264,99; 3963,670;  209,810;20302,700;18,68253
 265,59; 3986,806;  188,347;20477,711;18,72143
 266,19; 4025,333;  187,656;20695,956;18,71280
 266,78; 4022,223;  232,809;20808,334;18,41710
 267,38; 3983,482;  207,963;20827,682;18,31024
 267,98; 4010,747;  209,117;20843,731;18,42356
 268,58; 3966,601;  207,117;20903,679;18,16478
 269,17; 3907,893;  186,577;20957,009;17,91641
 269,77; 3869,413;  212,581;20879,353;17,69426
 270,37; 3796,736;  187,656;20705,884;17,58963
 270,96; 3760,994;  231,119;20633,688;17,30113
 271,56; 3692,355;  191,120;20455,634;17,27767
 272,16; 3600,046;  192,580;20189,875;17,03963
 272,75; 3575,510;  202,196;20272,543;16,80745
 273,35; 3544,759;  202,196;20236,517;16,68419
 273,95; 3513,580;  197,426;20101,472;16,66070
 274,54; 3466,156;  175,275;20201,359;16,43297
 275,14; 3529,881;  225,888;20492,182;16,30290
 275,74; 3473,636;  170,657;20486,687;16,25799
 276,33; 3533,899;  229,350;20803,386;16,06175
 276,93; 3548,294;  218,660;21101,099;15,94466
 277,53; 3553,394;  197,121;21620,065;15,66672
 278,12; 3654,073;  181,274;21953,294;15,95074
 278,72; 3758,860;  256,582;22466,776;15,76878
 279,32; 3771,557;  193,736;22982,101;15,70021
 279,91; 3839,111;  176,890;23591,053;15,64105
 280,51; 3936,285;  200,890;23952,577;15,72686
 281,11; 4022,692;  201,197;24617,127;15,65165
 281,70; 4088,721;  171,889;25020,332;15,76289
 282,30; 4186,124;  202,812;25560,327;15,70861
 282,90; 4227,226;  194,120;25900,899;15,68888
 283,49; 4378,598;  205,350;26268,446;16,01210
 284,09; 4497,778;  226,735;26763,393;16,09488
 284,69; 4597,819;  235,197;27083,359;16,24924
 285,28; 4694,862;  219,274;27335,695;16,50509
 285,88; 4822,916;  284,349;27558,447;16,64058
 286,47; 4842,002;  199,889;27665,739;16,90140
 287,07; 4921,872;  234,736;27693,556;17,06969
 287,67; 5068,994;  216,661;27810,411;17,58490
 288,26; 5138,536;  194,659;27831,777;17,88854
 288,86; 5269,907;  190,351;27780,514;18,41075
 289,46; 5458,328;  207,505;28017,758;18,88089
 290,05; 5621,557;  198,198;28030,312;19,48598
 290,65; 5784,570;  190,966;28193,098;19,97564
 291,24; 5985,115;  205,198;28329,040;20,55166
 291,84; 6202,390;  216,581;28469,176;21,18676
 292,44; 6384,811;  222,815;28563,052;21,74293
 293,03; 6649,713;  286,121;28746,923;22,35915
 293,63; 6765,268;  209,120;28796,357;22,93383
 294,22; 6972,094;  224,274;28972,167;23,47240
 294,82; 7097,051;  195,041;29038,924;23,92885
 295,41; 7183,798;  179,812;28741,332;24,52245
 296,01; 7264,484;  232,042;28716,960;24,68830
 296,61; 7332,567;  225,967;28459,378;25,17089
 297,20; 7282,018;  202,580;28170,096;25,31307
 297,80; 7362,908;  216,968;28132,858;25,59811
 298,39; 7252,715;  188,427;27753,524;25,62765
 298,99; 7330,414;  227,657;27623,153;25,92673
 299,58; 7312,996;  220,122;27562,992;25,94049
 300,18; 7288,252;  223,814;27299,287;26,09165
 300,78; 7231,407;  199,736;27016,165;26,22150
 301,37; 7243,423;  223,425;27044,086;26,17384
 301,97; 7242,831;  229,197;27053,448;26,14662
 302,56; 7198,503;  198,427;26910,529;26,20563
 303,16; 7145,733;  177,119;26880,826;26,09605
 303,75; 7174,464;  191,121;26905,775;26,14050
 304,35; 7226,185;  191,892;27131,436;26,11140
 304,94; 7200,030;  194,736;27120,113;26,01744
 305,54; 7212,635;  229,275;27073,881;26,01401
 306,13; 7103,649;  163,277;27079,258;25,78532
 306,73; 7091,144;  182,276;26829,317;25,92734
 307,33; 7086,666;  215,199;26837,088;25,81134
 307,92; 7082,748;  208,967;26898,695;25,75441
 308,52; 7149,576;  181,196;27253,927;25,73948
 309,11; 7232,240;  195,349;27664,861;25,61710
 309,71; 7260,137;  173,887;27967,959;25,49554
 310,30; 7332,207;  200,044;28164,104;25,50475
 310,90; 7451,361;  246,967;28445,181;25,54911
 311,49; 7409,785;  211,582;28591,433;25,36378
 312,09; 7441,595;  170,968;28799,598;25,39635
 312,68; 7564,858;  272,582;29061,811;25,32988
 313,28; 7507,210;  186,044;29195,234;25,23740
 313,87; 7504,683;  164,274;29338,553;25,16055
 314,47; 7527,728;  196,272;29582,828;24,94833
 315,06; 7547,374;  182,813;29634,434;25,00562
 315,66; 7597,672;  180,429;29838,983;25,00878
 316,25; 7498,463;  168,966;29707,112;24,81367
 316,85; 7485,143;  166,429;29844,952;24,65997
 317,44; 7504,953;  183,965;29965,107;24,58263
 318,04; 7442,414;  177,658;29952,748;24,39877
 318,63; 7430,392;  169,276;30035,972;24,31175
 319,22; 7506,021;  190,966;30189,128;24,38501
 319,82; 7476,912;  193,735;30266,455;24,21855
 320,41; 7385,563;  218,120;30140,489;23,95346
 321,01; 7371,026;  216,044;30224,613;23,84313
 321,60; 7362,264;  206,351;30290,966;23,78596
 322,20; 7310,716;  188,505;30278,437;23,66975
 322,79; 7326,160;  215,736;30386,859;23,56699
 323,39; 7309,830;  182,584;30387,488;23,59632
 323,98; 7219,788;  175,505;30420,496;23,29074
 324,58; 7208,363;  183,273;30356,813;23,28229
 325,17; 7107,679;  191,889;30287,818;22,97915
 325,76; 7100,886;  208,274;30100,390;23,05829
 326,36; 6974,435;  188,044;29826,570;22,89719
 326,95; 6928,575;  215,197;29616,480;22,83362
 327,55; 6788,192;  179,581;29302,445;22,69217
 328,14; 6726,596;  180,968;28946,224;22,75533
 328,74; 6660,664;  216,812;28545,984;22,74635
 329,33; 6551,638;  206,275;28335,099;22,55823
 329,92; 6424,439;  175,042;27842,756;22,58733
 330,52; 6239,770;  212,660;27254,317;22,28824
 331,11; 6167,820;  194,274;26905,621;22,36333
 331,71; 6063,573;  194,274;26370,284;22,42244
 332,30; 5923,030;  217,351;26084,189;22,05789
 332,89; 5848,370;  283,967;25567,427;22,00808
 333,49; 5687,746;  209,812;25049,289;22,05334
 334,08; 5596,098;  196,812;24639,713;22,08938
 334,68; 5466,611;  196,043;24338,140;21,83144
 335,27; 5400,034;  219,507;23951,048;21,82971
 335,86; 5374,897;  267,582;23773,621;21,72767
 336,46; 5272,540;  217,968;23539,405;21,67350
 337,05; 5216,862;  193,043;23364,156;21,68139
 337,65; 5178,475;  186,966;23286,565;21,60864
 338,24; 5205,505;  257,198;23232,838;21,53719
 338,83; 5153,071;  227,429;23044,540;21,58750
 339,43; 5110,200;  202,043;23179,624;21,36064
 340,02; 5085,306;  206,581;23090,444;21,31950
 340,61; 5111,125;  199,967;23105,317;21,44110
 341,21; 5137,510;  228,812;23102,830;21,45971
 341,80; 5138,293;  206,889;23027,556;21,60938
 342,40; 5144,951;  215,968;23106,096;21,53323
 342,99; 5127,601;  217,660;23249,812;21,31777
 343,58; 5153,254;  203,429;23336,406;21,39727
 344,18; 5186,403;  229,429;23501,004;21,30055
 344,77; 5218,408;  192,504;23713,863;21,36740
 345,36; 5297,959;  200,120;23982,249;21,43559
 345,96; 5399,596;  226,352;24303,794;21,48586
 346,55; 5427,721;  191,123;24492,922;21,54819
 347,14; 5495,388;  191,045;24746,293;21,60167
 347,74; 5551,812;  184,124;25075,935;21,56407
 348,33; 5706,754;  202,970;25719,170;21,56976
 348,92; 5845,355;  216,201;26157,009;21,70000
 349,52; 5906,932;  197,047;26639,250;21,59383
 350,11; 5969,104;  214,350;26847,188;21,60774
 350,70; 6017,073;  210,813;26963,736;21,70327
 351,29; 5945,112;  202,348;26696,100;21,67592
 351,89; 6021,454;  231,657;26695,513;21,87813
 352,48; 6002,329;  202,198;26809,385;21,79911
 353,07; 6009,753;  243,276;26673,903;21,81741
 353,67; 6056,368;  236,432;26612,724;22,06503
 354,26; 5996,482;  218,506;26397,179;22,07131
 354,85; 5968,195;  226,968;26325,534;21,99825
 355,45; 5960,032;  203,120;26194,801;22,14906
 356,04; 5958,672;  209,507;26137,809;22,17332
 356,63; 5957,927;  256,582;25949,606;22,19025
 357,22; 5948,069;  222,118;25757,303;22,42377
 357,82; 5924,869;  217,657;25677,760;22,41630
 358,41; 5931,901;  245,967;25592,300;22,43297
 359,00; 5892,986;  200,504;25463,741;22,53267
 359,60; 5963,103;  225,429;25318,490;22,86558
 360,19; 5958,199;  247,892;25197,413;22,88744
 360,78; 5956,055;  226,581;25028,254;23,10116
 361,37; 5900,125;  213,120;24979,030;22,96304
 361,97; 5955,154;  236,736;24760,050;23,31829
 362,56; 5910,479;  226,196;24554,526;23,36487
 363,15; 5960,360;  296,504;24384,202;23,51348
 363,74; 5881,199;  240,811;24035,490;23,70441
 364,34; 5856,361;  254,119;23692,079;23,90243
 364,93; 5802,987;  225,504;23376,310;24,09196
 365,52; 5689,051;  203,582;23014,467;24,04759
 366,11; 5714,312;  218,658;22762,319;24,37782
 366,71; 5671,175;  223,581;22404,821;24,55947
 367,30; 5644,078;  240,505;22125,708;24,69053
 367,89; 5660,185;  259,121;21940,565;24,91100
 368,48; 5611,800;  245,965;21650,964;25,06814
 369,07; 5556,458;  238,428;21260,582;25,29726
 369,67; 5503,806;  260,734;21081,993;25,18134
 370,26; 5479,982;  221,198;20727,594;25,64460
 370,85; 5457,418;  234,043;20484,043;25,79445
 371,44; 5455,049;  237,428;20344,195;25,94958
 372,03; 5406,148;  208,119;20084,965;26,15117
 372,63; 5371,046;  198,889;19851,219;26,31829
 373,22; 5379,805;  225,659;19566,064;26,64963
 373,81; 5308,401;  214,735;19257,156;26,74904
 374,40; 5308,921;  217,122;19095,341;26,97182
 374,99; 5302,043;  214,581;18818,155;27,34669
 375,59; 5236,079;  222,122;18649,898;27,20870
 376,18; 5315,122;  241,889;18485,669;27,80801
 376,77; 5300,027;  247,505;18322,983;27,95236
 377,36; 5346,212;  266,428;18254,461;28,23980
 377,95; 5301,084;  252,735;18024,449;28,40665
 378,55; 5309,795;  215,891;17939,536;28,74073
 379,14; 5358,272;  249,197;17780,036;29,14335
 379,73; 5353,146;  237,812;17711,692;29,27417
 380,32; 5423,786;  233,890;17803,167;29,53961
 380,91; 5422,992;  204,350;17635,943;29,93784
 381,50; 5420,241;  233,658;17607,379;29,85304
 382,10; 5432,094;  227,813;17520,244;30,09572
 382,69; 5474,681;  198,428;17476,839;30,53668
 383,28; 5552,323;  244,965;17412,792;30,91456
 383,87; 5533,365;  218,273;17300,327;31,11507
 384,46; 5561,795;  221,503;17238,428;31,38224
 385,05; 5625,531;  242,811;17208,185;31,72768
 385,64; 5633,619;  220,273;17237,165;31,81160
 386,24; 5660,041;  213,503;17209,954;32,04515
 386,83; 5788,325;  240,964;17219,270;32,67323
 387,42; 5827,835;  243,043;17280,640;32,77923
 388,01; 5924,034;  251,732;17463,012;32,95688
 388,60; 6024,588;  242,811;17692,420;33,13413
 389,19; 6119,713;  222,039;17776,810;33,59585
 389,78; 6232,263;  212,039;18081,791;33,68947
 390,37; 6483,175;  290,348;18425,585;34,14803
 390,96; 6532,073;  247,195;18538,289;34,36032
 391,56; 6629,903;  245,038;18650,999;34,68911
 392,15; 6708,212;  226,039;18893,374;34,72468
 392,74; 6792,695;  197,729;19049,831;34,98266
 393,33; 6965,383;  234,500;19341,004;35,22823
 393,92; 7132,595;  245,651;19701,937;35,39701
 394,51; 7223,646;  228,038;19784,570;35,77121
 395,10; 7355,964;  260,725;20078,734;35,80198
 395,69; 7455,149;  259,803;20168,346;36,14201
 396,28; 7534,092;  247,186;20289,710;36,35723
 396,87; 7611,375;  265,568;20384,471;36,51197
 397,46; 7736,491;  282,182;20462,379;36,93873
 398,06; 7897,959;  294,795;20668,445;37,31862
 398,65; 7949,259;  269,560;20697,307;37,59445
 399,24; 8082,306;  300,482;20815,419;37,93248
 399,83; 8123,095;  245,398;20785,856;38,35210
 400,42; 8236,954;  311,238;20996,048;38,31660
 401,01; 8302,301;  293,462;21115,874;38,46259
 401,60; 8414,398;  298,299;21093,710;39,02832
 402,19; 8445,778;  326,829;21076,134;39,12877
 402,78; 8488,156;  332,587;21090,613;39,28875
 403,37; 8503,274;  298,883;20908,625;39,80831
 403,96; 8505,017;  310,947;20808,678;39,97550
 404,55; 8539,330;  327,086;20680,261;40,34871
 405,14; 8491,239;  297,612;20596,325;40,36525
 405,73; 8469,297;  316,596;20538,783;40,31563
 406,32; 8569,150;  329,355;20506,156;40,83797
 406,91; 8475,031;  310,727;20219,544;41,00848
 407,50; 8455,471;  319,260;20140,040;41,04889
 408,09; 8360,325;  296,102;19900,824;41,13408
 408,68; 8388,548;  292,175;19757,492;41,59384
 409,27; 8344,579;  303,487;19620,873;41,62619
 409,86; 8373,491;  295,804;19514,918;42,02945
 410,45; 8413,361;  351,658;19420,853;42,27605
 411,04; 8434,229;  335,359;19389,900;42,50362
 411,63; 8354,970;  315,292;19122,469;42,74792
 412,22; 8330,821;  327,763;18965,820;42,93933
 412,81; 8228,913;  346,228;18723,003;42,89482
 413,40; 8212,741;  357,309;18411,480;43,51034
 413,99; 8153,096;  394,616;18222,700;43,51830
 414,58; 7939,742;  301,001;17844,281;43,54226
 415,17; 7917,367;  332,613;17610,702;43,89811
 415,76; 7886,740;  320,301;17487,526;44,07491
 416,35; 7797,115;  305,149;17364,331;43,91749
 416,94; 7894,761;  339,610;17399,599;44,28579
 417,53; 7940,480;  311,536;17494,331;44,39874
 418,12; 7973,819;  323,306;17587,065;44,31545
 418,71; 8163,754;  332,233;17889,195;44,60636
 419,30; 8202,036;  318,999;17967,627;44,66657
 419,89; 8327,088;  301,692;18141,650;44,98551
 420,48; 8451,149;  335,387;18339,088;45,07830
 421,07; 8499,380;  318,695;18370,683;45,31737
 421,66; 8487,750;  307,235;18429,547;45,14057
 422,25; 8530,413;  313,547;18541,033;45,07953
 422,84; 8570,902;  318,086;18468,791;45,46829
 423,43; 8430,032;  310,469;18235,917;45,29629
 424,02; 8425,109;  344,547;18024,512;45,70463
 424,60; 8236,817;  307,859;17727,874;45,51637
 425,19; 8240,862;  316,164;17443,027;46,27058
 425,78; 8108,196;  333,088;17302,379;45,81870
 426,37; 8099,527;  331,012;17167,176;46,14183
 426,96; 8056,674;  311,705;17092,413;46,15400
 427,55; 7986,140;  307,630;16998,108;46,00533
 428,14; 7950,385;  296,632;16782,352;46,42657
 428,73; 7881,926;  303,014;16579,619;46,56322
 429,32; 7903,638;  335,012;16622,322;46,46946
 429,91; 7911,938;  348,629;16632,026;46,44798
 430,50; 7846,105;  336,246;16431,920;46,65762
 431,08; 7822,929;  342,709;16367,272;46,67971
 431,67; 7815,981;  383,326;16265,187;46,79965
 432,26; 7786,338;  396,173;16116,511;47,01022
 432,85; 7675,530;  417,865;15847,059;47,03852
 433,44; 7556,455;  435,097;15563,953;47,07136
 434,03; 7452,752;  443,484;15247,034;47,34856
 434,62; 7247,485;  407,790;14912,630;47,15457
 435,21; 7208,947;  422,404;14675,251;47,61535
 435,79; 7153,088;  432,253;14492,952;47,79873
 436,38; 7114,417;  402,255;14413,445;47,90572
 436,97; 7027,600;  396,178;14334,081;47,57833
 437,56; 7014,995;  401,413;14204,784;47,91281
 438,15; 6957,374;  389,643;14149,776;47,73014
 438,74; 6977,762;  414,181;14124,993;47,87157
 439,33; 6934,225;  364,181;14122,486;47,75329
 439,91; 6944,767;  341,336;14191,729;47,67685
 440,50; 7007,234;  387,260;14255,296;47,73548
 441,09; 7074,713;  390,492;14281,341;48,11960
 441,68; 7043,733;  356,802;14350,824;47,78420
 442,27; 7063,353;  344,109;14346,400;47,98674
 442,86; 6998,950;  323,344;14288,724;47,80111
 443,44; 7053,902;  338,728;14348,488;47,93211
 444,03; 7144,663;  430,421;14433,586;47,94803
 444,62; 7050,876;  355,267;14270,084;48,11855
 445,21; 7003,601;  364,343;14187,912;48,02853
 445,80; 6982,625;  397,730;14069,612;48,16378
 446,39; 6904,345;  440,653;13915,268;47,96940
 446,97; 6763,825;  343,579;13679,755;48,14158
 447,56; 6706,716;  345,889;13496,117;48,37047
 448,15; 6680,584;  356,810;13334,247;48,72899
 448,74; 6595,627;  366,733;13138,562;48,77057
 449,33; 6467,601;  355,504;13006,050;48,31488
 449,91; 6445,093;  357,121;12813,667;48,87368
 450,50; 6339,923;  360,659;12613,273;48,79990
 451,09; 6311,711;  366,429;12513,170;48,94549
 451,68; 6330,761;  389,045;12469,382;49,18502
 452,26; 6226,567;  402,892;12365,222;48,68345
 452,85; 6169,408;  371,507;12247,917;48,81864
 453,44; 6202,031;  393,356;12264,864;48,92954
 454,03; 6144,043;  362,585;12204,112;48,82359
 454,61; 6120,389;  332,049;12204,865;48,75288
 455,20; 6212,998;  387,127;12345,016;48,71990
 455,79; 6210,540;  390,356;12389,756;48,50396
 456,38; 6291,127;  405,898;12419,207;48,98924
 456,97; 6251,946;  378,590;12488,537;48,50026
 457,55; 6279,805;  370,822;12503,507;48,70301
 458,14; 6308,666;  415,281;12467,731;48,89782
 458,73; 6273,547;  393,437;12383,278;49,04244
 459,31; 6377,614;  422,439;12473,698;49,41538
 459,90; 6383,176;  445,515;12498,511;49,26295
 460,49; 6467,856;  511,822;12630,366;49,14810
 461,08; 6416,015;  395,055;12708,907;48,89583
 461,66; 6435,440;  392,670;12696,836;49,11158
 462,25; 6497,703;  400,826;12804,869;49,15234
 462,84; 6543,527;  424,286;12849,446;49,24879
 463,43; 6504,017;  368,828;12809,595;49,31520
 464,01; 6520,057;  399,059;12824,298;49,26262
 464,60; 6518,820;  469,904;12787,926;49,10623
 465,19; 6403,615;  376,214;12511,745;49,66739
 465,77; 6378,344;  410,599;12549,661;49,16150
 466,36; 6391,496;  431,674;12477,865;49,47474
 466,95; 6230,291;  409,982;12214,910;49,30406
 467,53; 6110,180;  418,677;12000,333;49,14239
 468,12; 6031,446;  446,370;11768,270;49,32985
 468,71; 5930,624;  414,829;11542,980;49,56614
 469,29; 5778,815;  393,370;11284,625;49,44742
 469,88; 5705,485;  416,833;11076,470;49,61381
 470,47; 5772,949;  474,296;11198,594;49,40792
 471,06; 5702,986;  434,911;11175,804;49,04690
 471,64; 5715,746;  424,680;11180,558;49,19232
 472,23; 5709,648;  400,530;11186,541;49,22226
 472,81; 5775,957;  411,605;11318,162;49,18465
 473,40; 5788,249;  409,145;11414,477;48,87725
 473,99; 5985,515;  536,145;11605,788;49,22805
 474,57; 5903,134;  421,453;11664,498;48,75620
 475,16; 5979,457;  425,144;11839,922;48,65897
 475,75; 6071,070;  455,993;11947,777;48,86167
 476,33; 6081,316;  451,994;11995,877;48,76455
 476,92; 6105,491;  456,992;12030,688;48,80462
 477,51; 6115,140;  443,917;12123,686;48,55596
 478,09; 6134,748;  445,840;12147,384;48,61673
 478,68; 6121,075;  451,686;12061,215;48,83393
 479,27; 6128,936;  472,377;12132,331;48,51271
 479,85; 6104,978;  442,994;12072,738;48,68537
 480,44; 6125,874;  423,456;12148,708;48,63365
 481,02; 6589,199;  452,227;13208,389;48,10987
 481,61; 7354,368;  475,457;14955,253;47,50696
 482,20; 7789,901;  452,534;16086,974;46,93080
 482,78; 8150,737;  481,225;16807,891;46,97537
 483,37; 8321,685;  477,459;17312,735;46,59399
 483,95; 8441,647;  515,075;17579,725;46,45025
 484,54; 8509,164;  500,918;17751,560;46,42289
 485,13; 8442,403;  481,000;17642,236;46,39178
 485,71; 8332,306;  443,614;17468,636;46,33587
 486,30; 8282,683;  504,615;17239,488;46,47821
 486,88; 8200,732;  567,923;16980,371;46,50622
 487,47; 7923,473;  514,308;16399,176;46,64291
 488,05; 7600,848;  506,462;15653,955;46,83538
 488,64; 7072,129;  498,310;14593,521;46,63867
 489,23; 6412,750;  510,386;13069,524;46,99657
 489,81; 5559,065;  510,771;11155,948;47,42330
 490,40; 5227,195;  457,617;10496,463;47,51121
 490,98; 5135,105;  448,464;10243,882;47,84524
 491,57; 5072,979;  473,001;10124,251;47,66199
 492,15; 5038,131;  450,310;10098,388;47,55166
 492,74; 5001,725;  463,462;10020,248;47,48733
 493,32; 4968,939;  461,156; 9944,783;47,53226
 493,91; 4905,618;  452,619; 9857,094;47,34979
 494,50; 4860,980;  454,621; 9793,626;47,18232
 495,08; 4802,044;  430,160; 9764,526;46,83643
 495,67; 4824,567;  470,080; 9742,939;46,95949
 496,25; 4738,173;  403,697; 9575,083;47,26087
 496,84; 4720,572;  408,080; 9641,341;46,70605
 497,42; 4705,242;  407,236; 9589,442;46,80799
 498,01; 4651,908;  431,388; 9532,746;46,37242
 498,59; 4590,908;  391,005; 9441,521;46,40513
 499,18; 4580,162;  384,003; 9425,815;46,40838
 499,76; 4584,799;  423,081; 9400,206;46,35914
 500,35; 4462,250;  414,237; 9110,549;46,54862
 500,93; 4421,820;  399,390; 9166,617;45,88030
 501,52; 4388,052;  394,236; 9082,243;45,96930
 502,10; 4408,577;  407,777; 9058,041;46,25061
 502,69; 4279,471;  385,085; 8889,046;45,79496
 503,27; 4200,633;  364,237; 8767,989;45,65099
 503,86; 4192,569;  396,085; 8717,401;45,62360
 504,44; 4090,471;  357,470; 8556,861;45,52777
 505,03; 4016,719;  357,624; 8381,055;45,60511
 505,61; 3974,544;  365,470; 8265,644;45,68347
 506,19; 3906,793;  378,163; 8144,080;45,43739
 506,78; 3832,056;  363,241; 7943,035;45,76397
 507,36; 3775,056;  360,239; 7839,184;45,65907
 507,95; 3734,922;  358,704; 7738,646;45,74858
 508,53; 3655,413;  352,241; 7598,333;45,58556
 509,12; 3609,579;  359,703; 7512,632;45,43419
 509,70; 3563,680;  389,319; 7357,865;45,55270
 510,29; 3547,336;  396,243; 7276,338;45,80013
 510,87; 3439,993;  357,087; 7066,022;45,95224
 511,46; 3347,854;  340,780; 6983,978;45,26545
 512,04; 3323,785;  369,243; 6844,347;45,62927
 512,62; 3227,692;  362,780; 6696,754;45,23088
 513,21; 3167,451;  337,551; 6626,702;44,99653
 513,79; 3126,030;  353,400; 6481,334;45,24575
 514,38; 2998,235;  319,630; 6345,079;44,45486
 514,96; 3033,117;  383,707; 6282,739;44,91263
 515,54; 2923,353;  332,015; 6144,275;44,58400
 516,13; 2876,369;  359,092; 6045,812;44,26588
 516,71; 2847,949;  335,862; 5951,219;44,73601
 517,30; 2799,233;  327,787; 5809,329;45,08670
 517,88; 2756,384;  351,248; 5779,046;44,31146
 518,46; 2704,890;  331,249; 5651,680;44,61371
 519,05; 2698,603;  335,172; 5613,445;44,77660
 519,63; 2661,827;  343,634; 5590,174;44,18518
 520,22; 2643,923;  355,405; 5514,646;44,35766
 520,80; 2579,562;  334,405; 5473,715;43,68596
 521,38; 2633,301;  395,480; 5447,396;44,29647
 521,97; 2547,582;  335,329; 5382,787;43,82906
 522,55; 2560,530;  356,021; 5386,283;43,82494
 523,13; 2535,587;  331,406; 5359,246;43,83952
 523,72; 2513,195;  335,402; 5333,935;43,56864
 524,30; 2584,332;  373,330; 5476,038;43,32997
 524,89; 2556,221;  317,329; 5451,164;43,61052
 525,47; 2565,969;  344,177; 5541,219;42,75109
 526,05; 2535,386;  307,561; 5591,026;42,16598
 526,64; 2631,780;  344,177; 5713,657;42,60381
 527,22; 2613,574;  342,253; 5800,480;41,61279
 527,80; 2713,572;  386,331; 5864,484;42,48221
 528,39; 2650,664;  325,255; 5897,066;41,73524
 528,97; 2677,335;  325,947; 6093,194;40,77141
 529,55; 2737,930;  351,560; 6193,788;40,84691
 530,14; 2813,355;  360,409; 6380,112;40,74862
 530,72; 2825,404;  329,408; 6463,046;40,69357
 531,30; 2828,147;  309,102; 6567,181;40,25270
 531,89; 2884,497;  339,101; 6668,332;40,21651
 532,47; 2925,060;  367,179; 6760,796;40,00679
 533,05; 2881,502;  354,946; 6794,555;39,23462
 533,63; 2941,760;  349,256; 6830,877;39,99778
 534,22; 2920,274;  332,179; 6850,228;39,70659
 534,80; 2943,788;  360,565; 6992,758;38,94975
 535,38; 3028,376;  465,332; 7061,139;38,85869
 535,97; 2944,010;  334,717; 7007,113;39,10579
 536,55; 2996,289;  393,334; 7050,405;39,10061
 537,13; 2944,323;  387,024; 7025,700;38,52122
 537,71; 3002,531;  424,563; 7075,170;38,76290
 538,30; 3033,777;  437,103; 7125,732;38,82222
 538,88; 3068,980;  470,566; 7249,189;38,33248
 539,46; 3122,581;  532,103; 7401,946;37,70797
 540,05; 3156,068;  523,643; 7479,267;37,84600
 540,63; 3214,190;  564,335; 7665,393;37,31634
 541,21; 3260,071;  602,182; 7839,915;36,72268
 541,79; 3321,036;  626,951; 7931,296;36,88333
 542,38; 3382,430;  649,258; 7995,737;37,20384
 542,96; 3406,807;  657,183; 8163,133;36,63260
 543,54; 3467,835;  693,951; 8313,117;36,40666
 544,12; 3494,643;  662,951; 8372,876;36,72788
 544,70; 3510,554;  644,721; 8485,152;36,55199
 545,29; 3527,671;  649,489; 8602,091;36,19170
 545,87; 3540,421;  644,951; 8649,065;36,17477
 546,45; 3490,119;  587,565; 8638,453;36,05259
 547,03; 3521,082;  580,258; 8751,531;35,98979
 547,62; 3490,546;  553,490; 8838,706;35,44936
 548,20; 3529,186;  561,337; 8978,950;35,25761
 548,78; 3546,916;  522,877; 9065,672;35,39870
 549,36; 3541,044;  496,646; 9190,936;35,01606
 549,94; 3574,822;  462,952; 9313,536;35,16006
 550,53; 3582,072;  465,261; 9505,822;34,47585
 551,11; 3592,950;  416,263; 9627,567;34,48683
 551,69; 3695,981;  443,569; 9876,538;34,47920
 552,27; 3672,283;  386,645;10085,376;33,87699
 552,85; 3782,419;  404,263;10370,253;33,89684
 553,44; 3815,664;  407,800;10633,415;33,32673
 554,02; 3902,405;  407,031;10902,913;33,30233
 554,60; 3935,724;  353,032;11157,288;33,16001
 555,18; 4039,393;  403,570;11510,163;32,73572
 555,76; 4114,884;  380,262;11787,107;32,74018
 556,34; 4185,894;  379,033;12088,728;32,51034
 556,93; 4254,260;  378,493;12359,487;32,34929
 557,51; 4312,153;  341,571;12642,045;32,27991
 558,09; 4372,361;  380,800;13024,674;31,56913
 558,67; 4471,607;  369,880;13360,339;31,57492
 559,25; 4522,779;  382,110;13550,794;31,44330
 559,83; 4561,151;  363,880;13792,567;31,25600
 560,41; 4606,960;  355,033;14055,671;31,03452
 561,00; 4722,719;  372,880;14372,880;31,07028
 561,58; 4730,555;  356,956;14549,424;30,81634
 562,16; 4790,540;  352,724;14810,534;30,69494
 562,74; 4821,303;  342,724;15169,571;30,20588
 563,32; 4930,850;  337,188;15520,945;30,25379
 563,90; 5050,932;  347,495;15847,994;30,34378
 564,48; 5091,949;  365,878;16100,844;30,03547
 565,06; 5184,696;  351,418;16628,812;29,69319
 565,65; 5337,116;  356,343;17214,512;29,54516
 566,23; 5502,310;  407,803;17829,462;29,24237
 566,81; 5607,402;  344,879;18389,250;29,16435
 567,39; 5792,725;  347,265;19136,196;28,98227
 567,97; 5917,760;  380,418;19670,789;28,70521
 568,55; 6108,250;  401,880;20462,856;28,44512
 569,13; 6200,953;  342,495;20941,625;28,44031
 569,71; 6371,009;  350,955;21809,989;28,05371
 570,29; 6632,634;  386,108;22649,825;28,05698
 570,87; 6766,001;  395,032;23273,292;27,84726
 571,45; 6880,083;  372,034;23807,095;27,77057
 572,03; 6877,401;  324,420;24254,552;27,38381
 572,61; 7041,624;  326,496;24871,809;27,35809
 573,20; 7167,446;  365,648;25371,827;27,20047
 573,78; 7281,714;  338,034;25980,062;27,07929
 574,36; 7348,685;  367,880;26388,119;26,82837
 574,94; 7445,000;  435,574;26697,061;26,69090
 575,52; 7389,073;  346,806;26860,156;26,56121
 576,10; 7546,666;  413,036;27417,888;26,41611
 576,68; 7616,887;  386,035;27838,508;26,33953
 577,26; 7764,396;  402,730;28451,892;26,24558
 577,84; 7829,912;  410,419;28849,178;26,08937
 578,42; 7927,699;  451,959;29123,331;26,07388
 579,00; 7843,193;  392,880;29239,641;25,82721
 579,58; 7943,702;  446,574;29495,877;25,80829
 580,16; 7835,400;  392,036;29479,720;25,58940
 580,74; 7841,566;  408,036;29640,665;25,42888
 581,32; 7830,470;  401,805;29698,681;25,35651
 581,90; 7831,620;  426,651;29655,366;25,33457
 582,48; 7792,263;  403,959;29723,376;25,19936
 583,06; 7803,670;  406,266;29708,388;25,24529
 583,64; 7789,888;  398,420;29953,750;25,00892
 584,22; 7702,144;  411,883;29761,404;24,83945
 584,80; 7640,880;  410,343;29581,110;24,78693
 585,38; 7510,584;  424,264;29217,752;24,61084
 585,96; 7454,740;  384,265;29257,799;24,48773
 586,54; 7439,510;  410,883;29261,199;24,36239
 587,12; 7430,225;  377,882;29227,365;24,44530
 587,70; 7432,752;  402,727;29386,514;24,25503
 588,28; 7382,463;  377,421;29414,667;24,12433
 588,86; 7396,030;  376,267;29621,533;24,00307
 589,44; 7356,935;  372,500;29491,641;23,98572
 590,02; 7385,159;  364,884;29774,833;23,87041
 590,59; 7367,346;  359,114;29856,230;23,75904
 591,17; 7363,147;  374,271;30016,442;23,57748
 591,75; 7349,282;  340,808;30141,180;23,51808
 592,33; 7366,129;  375,731;30299,519;23,36067
 592,91; 7333,252;  318,424;30557,867;23,19761
 593,49; 7360,126;  331,809;30759,318;23,09856
 594,07; 7414,808;  349,886;30897,733;23,12740
 594,65; 7387,267;  367,883;30916,803;22,97752
 595,23; 7388,575;  358,576;31270,014;22,74239
 595,81; 7372,376;  348,192;31456,625;22,57968
 596,39; 7324,354;  333,961;31574,721;22,37587
 596,97; 7293,910;  338,270;31688,633;22,18679
 597,55; 7287,299;  347,037;31643,184;22,17609
 598,12; 7215,388;  312,502;31593,083;22,06764
 598,70; 7215,057;  319,194;31682,881;21,98678
 599,28; 7214,263;  344,886;31766,617;21,86187
 599,86; 7184,883;  338,117;31879,173;21,70747
 600,44; 7165,369;  298,809;32064,868;21,61603
 601,02; 7171,907;  356,273;31862,411;21,63272
 601,60; 7103,831;  331,654;31898,842;21,45321
 602,18; 7087,795;  301,348;31935,910;21,45263
 602,75; 7047,825;  307,038;32026,526;21,25125
 603,33; 7072,452;  322,270;32067,697;21,26348
 603,91; 7051,711;  306,118;32077,050;21,23196
 604,49; 6983,763;  339,194;32054,057;20,95096
 605,07; 6991,751;  333,577;32084,405;20,97008
 605,65; 6927,042;  334,656;32282,093;20,63510
 606,23; 6942,732;  374,267;32301,118;20,57348
 606,80; 6967,098;  406,038;32418,215;20,49551
 607,38; 6949,206;  401,503;32387,350;20,47063
 607,96; 6963,395;  435,730;32420,938;20,40839
 608,54; 7007,007;  501,579;32552,321;20,29728
 609,12; 6936,073;  483,653;32521,412;20,14005
 609,70; 6927,590;  509,424;32563,006;20,02324
 610,27; 6907,851;  500,422;32599,140;19,96163
 610,85; 6932,185;  526,424;32780,221;19,86049
 611,43; 6868,809;  513,886;32697,303;19,74596
 612,01; 6738,172;  473,885;32517,527;19,54924
 612,59; 6709,880;  485,655;32498,351;19,44299
 613,16; 6641,025;  460,883;32517,100;19,27907
 613,74; 6557,889;  448,347;32391,971;19,12601
 614,32; 6573,454;  424,809;32345,103;19,26249
 614,90; 6540,710;  409,808;32269,342;19,24354
 615,48; 6380,470;  369,422;31909,532;19,05842
 616,05; 6368,488;  348,652;32071,834;18,97614
 616,63; 6315,122;  367,883;31798,136;18,92202
 617,21; 6265,988;  370,807;31668,177;18,83603
 617,79; 6193,962;  352,269;31662,112;18,65769
 618,36; 6164,562;  360,577;31594,402;18,58237
 618,94; 6081,997;  296,807;31281,521;18,67111
 619,52; 5985,179;  335,267;31074,515;18,38012
 620,10; 5934,006;  298,269;31007,382;18,35200
 620,67; 5928,328;  313,190;30922,641;18,34446
 621,25; 5904,121;  339,116;30758,264;18,29442
 621,83; 5852,860;  312,499;30793,253;18,17659
 622,41; 5908,994;  368,345;30774,314;18,22224
 622,98; 5769,958;  329,344;30612,936;17,96555
 623,56; 5754,788;  344,036;30538,014;17,91997
 624,14; 5703,932;  322,347;30516,383;17,82334
 624,72; 5646,483;  319,037;30430,170;17,69261
 625,29; 5639,994;  298,190;30358,673;17,77019
 625,87; 5648,612;  348,884;30286,731;17,70244
 626,45; 5554,035;  293,728;30263,274;17,55217
 627,02; 5532,608;  315,346;30217,482;17,44779
 627,60; 5494,513;  285,271;30101,283;17,47129
 628,18; 5464,688;  268,807;30174,259;17,37436
 628,76; 5445,124;  273,267;30200,189;17,28162
 629,33; 5443,385;  309,652;30212,528;17,16802
 629,91; 5408,160;  290,346;30134,305;17,14858
 630,49; 5441,632;  323,345;30316,788;17,06469
 631,06; 5432,462;  309,960;30425,636;17,00942
 631,64; 5399,048;  303,267;30379,143;16,94309
 632,22; 5357,410;  263,958;30248,952;16,98667
 632,79; 5374,155;  307,112;30573,918;16,74125
 633,37; 5363,200;  277,346;30480,613;16,83875
 633,95; 5325,375;  296,190;30626,610;16,58132
 634,52; 5368,550;  282,730;30722,277;16,70794
 635,10; 5352,616;  295,346;30768,738;16,59569
 635,68; 5413,889;  285,343;30838,069;16,78589
 636,25; 5352,335;  266,496;30866,091;16,62061
 636,83; 5338,586;  263,421;31030,881;16,49523
 637,41; 5381,213;  275,574;31103,482;16,56175
 637,98; 5402,697;  311,420;31250,771;16,45567
 638,56; 5373,631;  280,265;31268,726;16,43633
 639,13; 5349,109;  261,959;31465,652;16,30304
 639,71; 5420,857;  333,498;31595,528;16,27328
 640,29; 5302,254;  235,037;31331,864;16,29496
 640,86; 5312,278;  264,191;31518,712;16,15154
 641,44; 5268,379;  262,114;31538,791;16,00639
 642,02; 5271,096;  294,729;31498,101;15,94817
 642,59; 5263,197;  259,422;31549,257;15,99170
 643,17; 5236,068;  262,268;31572,106;15,88574
 643,74; 5265,246;  262,652;31620,031;15,95348
 644,32; 5243,347;  296,037;31624,495;15,79174
 644,89; 5236,525;  278,499;31553,651;15,85293
 645,47; 5232,396;  294,883;31644,192;15,74999
 646,05; 5201,728;  288,422;31611,656;15,68582
 646,62; 5209,906;  273,499;31508,350;15,80416
 647,20; 5153,700;  281,037;31677,814;15,51963
 647,77; 5133,570;  243,422;31590,509;15,60001
 648,35; 5102,979;  244,268;31437,665;15,57609
 648,92; 5082,542;  264,884;31536,128;15,40603
 649,50; 5074,874;  231,961;31455,208;15,51060
 650,08; 5031,129;  236,422;31330,902;15,41980
 650,65; 5062,000;  242,807;31524,443;15,40582
 651,23; 5125,332;  215,499;32113,907;15,39209
 651,80; 5256,125;  233,192;32978,986;15,33917
 652,38; 5303,534;  235,345;33420,680;15,27237
 652,95; 5352,943;  229,884;33682,452;15,31440
 653,53; 5400,506;  247,499;33932,916;15,29744
 654,10; 5448,222;  290,961;34001,610;15,29861
 654,68; 5365,708;  234,346;33939,074;15,22446
 655,25; 5388,502;  227,269;34010,076;15,27769
 655,83; 5348,142;  239,423;34132,925;15,07286
 656,40; 5429,781;  277,038;34117,773;15,22645
 656,98; 5414,344;  247,269;34001,314;15,30802
 657,55; 5376,753;  232,269;33852,008;15,30198
 658,13; 5331,854;  237,192;33606,088;15,26770
 658,70; 5314,263;  251,192;33373,475;15,28600
 659,28; 5167,980;  243,961;32672,938;15,18401
 659,85; 5061,081;  274,038;31938,864;15,11786
 660,43; 5085,567;  273,500;31835,866;15,24622
 661,00; 5072,591;  231,731;31997,637;15,23917
 661,58; 5111,693;  246,192;32299,486;15,17941
 662,15; 5097,179;  237,654;32432,103;15,09429
 662,73; 5262,280;  310,962;32681,337;15,29583
 663,30; 5228,766;  255,654;32765,108;15,29743
 663,88; 5233,713;  253,577;32979,264;15,21782
 664,45; 5249,584;  237,270;33182,420;15,21412
 665,03; 5296,070;  243,193;33517,730;15,18542
 665,60; 5466,863;  346,116;33881,502;15,26968
 666,17; 5343,580;  226,654;33876,965;15,20618
 666,75; 5407,219;  232,577;34247,122;15,21303
 667,32; 5491,244;  262,347;34514,739;15,26579
 667,90; 5480,114;  254,116;34759,049;15,14566
 668,47; 5531,831;  246,962;34978,205;15,21647
 669,05; 5561,932;  234,578;35190,131;15,24037
 669,62; 5582,572;  205,270;35287,671;15,32763
 670,19; 5563,289;  221,809;35354,058;15,20392
 670,77; 5620,390;  238,193;35586,753;15,22607
 671,34; 5631,260;  228,270;35506,986;15,31516
 671,92; 5689,438;  217,424;35773,065;15,39000
 672,49; 5703,078;  244,886;35796,221;15,35299
 673,06; 5676,026;  200,963;35855,762;15,35575
 673,64; 5678,358;  218,424;35888,764;15,30665
 674,21; 5711,844;  216,809;35786,612;15,44859
 674,79; 5799,406;  248,347;36006,307;15,52398
 675,36; 5782,508;  258,194;36144,309;15,39401
 675,93; 5747,224;  225,963;35922,619;15,46717
 676,51; 5793,710;  240,578;36172,545;15,45457
 677,08; 5828,119;  241,886;36211,316;15,53050
 677,65; 5824,528;  228,809;36233,703;15,54155
 678,23; 5908,629;  235,809;36526,321;15,63169
 678,80; 5911,577;  231,732;36591,015;15,62144
 679,38; 5939,447;  228,809;36700,710;15,65764
 679,95; 5984,933;  240,886;36994,635;15,62846
 680,52; 6032,265;  240,271;37206,330;15,66841
 681,10; 6115,520;  257,040;37515,716;15,72380
 681,67; 6144,929;  240,733;37679,796;15,77015
 682,24; 6132,800;  205,040;37796,490;15,76890
 682,82; 6190,516;  233,040;38262,723;15,66533
 683,39; 6369,464;  283,964;38554,802;15,90114
 683,96; 6331,180;  232,271;38842,343;15,79616
 684,54; 6401,512;  213,810;38945,192;15,97594
 685,11; 6503,844;  284,425;39362,809;15,91524
 685,68; 6503,253;  224,887;39788,965;15,86886
 686,25; 6538,278;  212,425;39773,044;15,99028
 686,83; 6582,071;  213,964;39990,124;16,00986
 687,40; 6647,557;  206,964;40179,126;16,11270
 687,97; 6762,428;  270,426;40649,744;16,07754
 688,55; 6682,837;  201,041;40597,515;16,04545
 689,12; 6749,707;  201,964;40850,287;16,10827
 689,69; 6816,039;  200,503;40927,596;16,24358
 690,26; 6862,910;  215,041;41028,983;16,28823
 690,84; 6882,626;  217,887;41170,370;16,27432
 691,41; 6922,343;  233,272;41281,603;16,29560
 691,98; 7017,136;  234,657;41426,221;16,46570
 692,56; 7009,238;  224,811;41576,069;16,40682
 693,13; 7115,877;  264,272;41618,072;16,56826
 693,70; 7113,671;  241,195;41739,535;16,56084
 694,27; 7170,311;  214,041;41837,615;16,71233
 694,84; 7166,797;  204,349;41999,463;16,65852
 695,42; 7385,975;  347,734;42157,927;16,83379
 695,99; 7293,461;  231,426;42268,467;16,79955
 696,56; 7297,408;  221,272;42062,777;16,91176
 697,13; 7391,971;  249,734;42465,010;16,91861
 697,71; 7458,688;  236,042;42405,243;17,12777
 698,28; 7474,327;  218,503;42685,938;17,08562
 698,85; 7480,198;  184,965;42749,248;17,13933
 699,42; 7565,145;  187,119;42917,404;17,26650
 699,99; 7632,093;  237,350;43094,637;17,25434
 700,57; 7673,578;  226,504;42982,024;17,41781
 701,14; 7686,449;  218,504;43243,565;17,35720
 701,71; 7782,704;  244,273;43393,259;17,47070
 702,28; 7767,959;  206,734;43389,108;17,50998
 702,85; 7829,445;  213,119;43459,879;17,61132
 703,43; 7897,623;  234,581;43677,805;17,63921
 704,00; 7972,494;  266,042;43936,884;17,64667
 704,57; 7993,595;  223,965;43860,809;17,80521
 705,14; 8041,158;  243,735;44073,811;17,79012
 705,71; 8096,490;  245,350;44170,967;17,87371
 706,28; 8072,053;  219,350;43985,585;17,94238
 706,86; 8195,462;  249,427;44296,664;18,03980
 707,43; 8298,178;  274,120;44263,667;18,24083
 708,00; 8266,587;  247,812;44272,592;18,21423
 708,57; 8219,688;  222,504;44162,671;18,20017
 709,14; 8328,943;  235,581;44266,596;18,38105
 709,71; 8390,122;  220,351;44289,522;18,53852
 710,28; 8474,838;  232,197;44550,985;18,59853
 710,86; 8499,555;  231,120;44591,911;18,63906
 711,43; 8615,425;  269,274;44707,836;18,78133
 712,00; 8566,834;  239,735;44776,146;18,69728
 712,57; 8627,474;  249,505;44921,841;18,75427
 713,14; 8674,114;  226,351;45019,997;18,85929
 713,71; 8736,754;  236,351;44877,768;19,04152
 714,28; 8731,547;  228,812;45031,232;18,97829
 714,85; 8769,725;  221,659;44795,157;19,17746
 715,42; 8825,211;  227,428;44930,006;19,23331
 716,00; 8941,851;  319,120;44958,316;19,31650
 716,57; 8909,260;  226,428;45137,164;19,33353
 717,14; 8964,361;  214,890;45000,705;19,53626
 717,71; 8922,616;  213,351;45114,015;19,39674
 718,28; 9043,794;  266,274;45249,863;19,51272
 718,85; 9032,819;  214,351;45256,481;19,57826
 719,42; 9118,305;  230,044;45374,483;19,68850
 719,99; 9100,560;  221,275;45290,408;19,70148
 720,56; 9233,199;  253,736;45504,180;19,84392
 721,13; 9238,993;  220,505;45534,798;19,90208
 721,70; 9260,094;  205,198;45353,800;20,05576
 722,27; 9312,196;  243,044;45439,571;20,06604
 722,84; 9440,374;  307,890;45645,189;20,14342
 723,41; 9410,090;  201,736;45564,268;20,29947
 723,98; 9463,653;  224,044;45692,578;20,32089
 724,55; 9577,678;  257,121;45880,273;20,42944
 725,12; 9487,394;  179,660;45785,275;20,40919
 725,69; 9667,495;  210,660;45912,508;20,69246
 726,27; 9671,443;  219,429;46100,972;20,60091
 726,84; 9782,929;  234,121;46272,051;20,74117
 727,41; 9888,107;  246,891;46219,284;20,97175
 727,98; 9940,900;  238,198;46454,286;20,99421
 728,55;10012,540;  265,891;46409,981;21,12221
 729,12;10035,718;  224,968;46419,598;21,23786
 729,69;10124,820;  246,122;46690,216;21,27008
 730,26;10233,613;  245,199;46748,988;21,47871
 730,82;10220,868;  226,814;46789,759;21,46354
 731,39;10336,123;  237,352;46789,223;21,69359
 731,96;10436,840;  222,122;47146,764;21,76835
 732,53;10472,634;  227,968;47229,997;21,79622
 733,10;10591,273;  248,506;47406,614;21,93211
 733,67;10653,067;  241,430;47580,232;21,99388
 734,24;10588,784;  225,814;47363,542;21,98445
 734,81;10749,269;  260,737;47405,467;22,24752
 735,38;10705,140;  241,891;47182,854;22,29023
 735,95;10780,780;  236,122;47039,626;22,52963
 736,52;10858,804;  249,814;47306,243;22,54525
 737,09;10823,828;  245,276;46945,322;22,65212
 737,66;10931,622;  303,045;47125,478;22,69975
 738,23;10981,954;  239,430;47270,019;22,84157
 738,80;11190,901;  333,430;47433,021;23,05216
 739,37;11174,926;  265,430;47544,562;23,07465
 739,94;11204,565;  242,276;47537,872;23,17825
 740,51;11376,590;  386,199;47725,567;23,21617
 741,07;11291,614;  242,123;47657,031;23,30383
 741,64;11390,331;  277,661;47821,033;23,37375
 742,21;11412,278;  250,584;47846,881;23,45076
 742,78;11427,226;  210,584;47695,114;23,62167
 743,35;11510,635;  243,738;47841,578;23,67102
 743,92;11646,582;  303,431;48011,734;23,77605
 744,49;11657,068;  291,892;47954,736;23,84494
 745,06;11724,015;  245,969;47984,508;24,04356
 745,63;11702,270;  232,738;47951,741;24,03557
 746,19;11758,833;  235,046;48003,282;24,12437
 746,76;11777,473;  251,892;47986,976;24,14488
 747,33;11804,651;  246,585;47932,363;24,23797
 747,90;11941,906;  260,969;48207,904;24,36222
 748,47;12025,315;  251,585;48079,752;24,61673
 749,04;12044,647;  258,662;48062,831;24,65472
 749,61;12094,518;  296,508;48079,987;24,69056
 750,17;12202,157;  272,200;48101,759;24,94264
 750,74;12202,720;  260,431;48091,607;24,96758
 751,31;12249,360;  233,277;47929,917;25,19272
 751,88;12212,923;  226,893;47761,381;25,21544
 752,45;12390,024;  235,816;48047,614;25,42094
 753,02;12419,356;  271,124;47837,155;25,53972
 753,58;12447,380;  243,201;47801,157;25,66170
 754,15;12511,635;  236,970;47897,006;25,75463
 754,72;12492,737;  233,047;47735,854;25,80835
 755,29;12533,376;  234,662;47625,779;25,95152
 755,86;12593,862;  255,662;47612,166;26,05387
 756,42;12708,579;  270,893;47549,784;26,30706
 756,99;12756,219;  221,355;47528,325;26,49686
 757,56;12738,628;  237,970;47488,788;26,45596
 758,13;12732,729;  183,970;47382,252;26,58732
 758,70;12846,292;  234,740;47498,870;26,68314
 759,26;12879,624;  216,124;47622,718;26,71253
 759,83;12925,263;  218,509;47698,797;26,76217
 760,40;12996,057;  210,432;47539,646;27,01423
 760,97;13023,081;  194,971;47545,879;27,09158
 761,53;12912,413;  200,432;47250,573;27,01794
 762,10;12994,515;  196,971;47242,729;27,20233
 762,67;13101,924;  231,125;47363,039;27,30803
 763,24;13010,948;  183,971;46810,965;27,50977
 763,80;13098,588;  222,817;47057,890;27,49173
 764,37;13099,535;  218,586;46949,508;27,56408
 764,94;13045,559;  205,740;46512,741;27,72760
 765,50;13112,507;  197,740;46622,820;27,81851
 766,07;13254,146;  240,663;46601,591;28,06994
 766,64;13208,171;  216,740;46386,824;28,13820
 767,21;13220,657;  221,663;46244,057;28,24493
 767,77;13255,527;  236,279;46237,752;28,30181
 768,34;13355,244;  238,587;46083,754;28,61077
 768,91;13330,807;  257,125;46028,295;28,56314
 769,47;13469,908;  253,971;45959,297;28,91553
 770,04;13492,240;  236,202;45886,838;29,03801
 770,61;13419,572;  224,664;45673,071;29,03272
 771,18;13427,904;  223,741;45574,766;29,11547
 771,74;13514,928;  233,279;45760,999;29,17267
 772,31;13567,337;  251,510;45522,309;29,41372
 772,88;13534,669;  208,972;45194,157;29,62241
 773,44;13582,771;  212,279;45197,544;29,72194
 774,01;13708,410;  242,126;45247,161;29,92173
 774,58;13686,896;  226,279;44967,779;30,08531
 775,14;13746,767;  216,972;45002,089;30,21047
 775,71;13825,329;  229,126;45007,245;30,36350
 776,27;13892,508;  284,972;45031,324;30,41038
 776,84;13977,993;  344,433;45082,865;30,47393
 777,41;13928,633;  246,895;44851,790;30,67318
 777,97;13882,196;  222,511;44521,023;30,83554
 778,54;13979,605;  246,126;44589,641;30,97066
 779,11;14060,937;  275,511;44533,566;31,14784
 779,67;14087,346;  224,126;44509,723;31,30413
 780,24;14064,524;  246,895;44317,648;31,35329
 780,80;14114,472;  264,818;44183,727;31,53460
 781,37;14058,111;  267,511;44244,345;31,35878
 781,94;14143,366;  254,049;44098,193;31,67884
 782,50;14181,006;  243,203;44058,118;31,81064
 783,07;14277,954;  280,973;44164,813;31,89552
 783,63;14205,132;  243,973;43904,354;31,97672
 784,20;14326,387;  275,434;43756,664;32,31498
 784,77;14290,796;  246,588;43611,204;32,38633
 785,33;14296,666;  216,973;43542,053;32,49779
 785,90;14377,229;  226,127;43474,670;32,72041
 786,46;14318,253;  257,127;43350,596;32,62937
 787,03;14350,893;  242,127;43279,290;32,78275
 787,59;14383,533;  251,050;43225,370;32,88588
 788,16;14400,249;  261,819;43184,372;32,93940
 788,73;14419,966;  252,896;43086,374;33,07476
 789,29;14366,760;  237,512;42647,992;33,31546
 789,86;14455,092;  272,435;42764,302;33,37735
 790,42;14387,424;  240,819;42514,458;33,46436
 790,99;14309,756;  258,666;42188,537;33,51093
 791,55;14378,088;  234,050;42205,155;33,69946
 792,12;14461,958;  277,973;42234,311;33,80654
 792,68;14435,213;  255,743;42022,621;33,94908
 793,25;14409,315;  266,589;41749,315;34,09305
 793,81;14459,416;  356,973;41461,548;34,30869
 794,38;14272,671;  228,435;41261,089;34,22697
 794,94;14357,234;  236,589;41053,014;34,59550
 795,51;14377,874;  264,281;40950,247;34,68909
 796,07;14327,590;  255,358;40739,096;34,76021
 796,64;14390,384;  258,589;40835,713;34,82700
 797,20;14367,331;  275,051;40351,177;35,16378
 797,77;14219,048;  218,282;40175,026;35,03981
 798,33;14288,611;  261,512;40026,182;35,27528
 798,90;14295,173;  263,051;39942,107;35,36405
 799,46;14189,275;  250,436;39510,802;35,50359
 800,03;14235,145;  249,436;39487,727;35,64301
 800,59;14239,862;  271,051;39295,960;35,79460
 801,15;14260,886;  278,205;39119,347;35,99967
 801,72;14133,449;  261,436;38846,041;35,95220
 802,28;14132,243;  288,974;38628,351;36,10718
 802,85;14075,421;  266,282;38441,969;36,17260
 803,41;14083,830;  260,436;38174,817;36,45950
 803,98;13984,700;  245,821;37995,973;36,39424
 804,54;13933,878;  245,205;37805,360;36,44467
 805,11;13903,210;  267,744;37534,440;36,58888
 805,67;13917,850;  285,975;37478,903;36,65179
 806,23;13817,567;  259,359;36999,906;36,90257
 806,80;13894,437;  277,052;36971,216;37,11049
 807,36;13890,846;  274,821;36936,064;37,14011
 807,93;13876,717;  296,898;36716,989;37,28661
 808,49;13774,049;  252,975;36466,376;37,33721
 809,05;13768,073;  237,744;36270,225;37,55037
 809,62;13800,174;  273,590;36224,842;37,62479
 810,18;13888,891;  261,129;36103,768;38,02109
 810,74;13825,608;  231,129;35830,539;38,18737
 811,31;13767,478;  232,821;35807,080;38,04621
 811,87;13838,579;  268,206;35550,159;38,46265
 812,44;13926,527;  278,744;35585,238;38,65516
 813,00;13812,936;  202,206;35325,010;38,75183
 813,56;13939,191;  258,591;35426,243;38,90109
 814,13;13955,061;  259,745;35306,245;39,07756
 814,69;13942,932;  254,437;35126,709;39,25324
 815,25;13823,187;  222,129;34763,634;39,37598
 815,82;13944,519;  267,668;34740,790;39,67396
 816,38;13998,082;  304,745;34607,408;39,91917
 816,94;13833,568;  239,745;34295,564;39,91630
 817,51;13784,746;  224,591;34186,182;39,92791
 818,07;13780,001;  234,053;33943,107;40,18490
 818,63;13777,871;  247,283;33742,648;40,39540
 819,20;13751,511;  245,053;33680,034;40,39619
 819,76;13701,535;  230,130;33318,191;40,71380
 820,32;13704,252;  277,899;33216,654;40,76157
 820,89;13650,661;  256,591;33095,272;40,78748
 821,45;13605,147;  235,284;32781,428;41,07971
 822,01;13584,248;  259,207;32576,738;41,23162
 822,57;13658,196;  263,438;32504,356;41,54583
 823,14;13583,605;  224,361;32337,050;41,60114
 823,70;13532,552;  243,899;32111,668;41,69935
 824,26;13528,115;  233,284;31924,516;41,95113
 824,82;13558,524;  281,669;31755,826;42,18335
 825,39;13490,240;  253,284;31557,905;42,28435
 825,95;13606,880;  259,976;31663,677;42,50105
 826,51;13451,981;  260,900;31224,987;42,60123
 827,08;13566,929;  294,284;31294,066;42,81528
 827,64;13510,876;  261,592;31137,838;42,91093
 828,20;13452,593;  233,669;30844,148;43,18431
 828,76;13564,848;  277,900;30913,304;43,37122
 829,32;13517,103;  283,669;30782,921;43,38937
 829,89;13462,127;  220,515;30631,693;43,54193
 830,45;13454,075;  248,746;30549,772;43,58047
 831,01;13507,022;  256,669;30435,236;43,90650
 831,57;13487,277;  253,131;30356,700;43,96205
 832,14;13533,532;  245,823;30360,163;44,12419
 832,70;13478,480;  231,439;30087,473;44,36973
 833,26;13462,120;  217,592;30007,552;44,45970
 833,82;13472,221;  252,592;29996,401;44,44498
 834,38;13598,861;  234,900;29933,019;44,99935
 834,95;13544,808;  227,054;29881,482;44,90983
 835,51;13551,986;  194,823;29619,485;45,39445
 836,07;13641,010;  245,823;29849,179;45,24888
 836,63;13696,881;  264,208;29809,104;45,46529
 837,19;13608,751;  266,131;29616,722;45,45946
 837,75;13553,007;  217,747;29437,186;45,63832
 838,32;13652,800;  263,824;29434,496;45,89876
 838,88;13757,901;  270,978;29527,190;46,09935
 839,44;13695,849;  267,362;29466,116;45,98993
 840,00;13737,104;  260,747;29344,195;46,33686
 840,56;13687,821;  239,747;29087,582;46,61727
 841,12;13665,691;  251,362;29022,969;46,62350
 841,68;13655,177;  219,362;28915,509;46,82097
 842,25;13744,740;  230,901;28897,435;47,14152
 842,81;13645,456;  225,516;28658,899;47,19783
 843,37;13700,404;  216,747;28716,824;47,31095
 843,93;13702,197;  239,593;28621,134;47,43437
 844,49;13810,914;  269,132;28662,136;47,69408
 845,05;13708,708;  208,055;28451,138;47,80162
 845,61;13797,116;  266,209;28538,602;47,85908
 846,17;13756,910;  227,594;28423,297;47,98361
 846,73;13765,627;  244,901;28418,684;47,99045
 847,29;13771,113;  234,901;28240,686;48,33363
 847,86;13726,906;  231,209;28164,688;48,31370
 848,42;13735,392;  237,594;28038,306;48,55199
 848,98;13797,878;  250,132;27979,846;48,85642
 849,54;13823,902;  231,055;28005,079;48,94086
 850,10;13823,542;  265,363;27859,466;49,13433
 850,66;13767,105;  229,979;27766,469;49,16068
 851,22;13764,129;  221,209;27664,702;49,34838
 851,78;13878,384;  271,825;27777,089;49,46893
 852,34;13765,332;  258,210;27524,091;49,53855
 852,90;13771,971;  236,671;27507,016;49,63377
 853,46;13700,765;  228,979;27169,557;50,00556
 854,02;13796,789;  257,902;27278,559;50,10569
 854,58;13758,198;  245,210;27066,561;50,38146
 855,14;13773,761;  233,133;27005,487;50,57691
 855,70;13768,093;  198,979;26777,412;51,05310
 856,26;13824,117;  248,595;26742,030;51,24108
 856,82;13821,603;  241,210;26686,570;51,35265
 857,38;13811,781;  284,287;26626,034;51,35382
 857,94;13824,190;  240,979;26536,806;51,65539
 858,50;13749,676;  263,133;26454,885;51,49157
 859,06;13756,085;  239,056;26178,733;52,10947
 859,62;13813,417;  267,364;26182,582;52,27065
 860,18;13715,057;  244,287;26027,815;52,24564
 860,74;13673,851;  211,518;25935,202;52,33439
 861,30;13607,106;  214,057;25775,742;52,39502
 861,86;13706,515;  302,210;25813,206;52,54324
 862,42;13640,231;  236,441;25544,824;52,96186
 862,98;13687,102;  274,518;25605,441;52,94945
 863,54;13606,972;  239,595;25394,982;53,13922
 864,10;13746,304;  241,595;25447,215;53,57817
 864,66;13650,713;  218,134;25251,910;53,65782
 865,22;13664,584;  247,211;25159,604;53,85822
 865,78;13702,916;  238,595;25047,222;54,27274
 866,34;13753,940;  230,826;25047,916;54,49113
 866,90;13648,349;  247,519;24849,534;54,47046
 867,45;13592,604;  242,365;24756,613;54,45910
 868,01;13601,475;  252,057;24654,539;54,70516
 868,57;13572,960;  236,826;24441,695;55,09691
 869,13;13615,908;  217,673;24362,312;55,49155
 869,69;13563,855;  232,596;24253,315;55,49900
 870,25;13572,495;  214,750;24182,471;55,73223
 870,81;13650,289;  228,596;24100,396;56,22405
 871,37;13610,159;  255,288;24070,091;56,07803
 871,93;13578,722;  252,750;23878,478;56,40449
 872,49;13527,900;  295,058;23714,172;56,50445
 873,04;13523,155;  223,904;23557,636;56,99582
 873,60;13507,333;  232,442;23462,254;57,14593
 874,16;13478,896;  256,750;23347,333;57,26207
 874,72;13550,435;  241,442;23380,025;57,51862
 875,28;13540,665;  240,365;23348,102;57,55778
 875,84;13540,204;  248,519;23300,025;57,66081
 876,40;13567,512;  232,135;23155,102;58,17474
 876,95;13592,742;  244,750;23142,256;58,29453
 877,51;13618,281;  274,750;23168,410;58,28483
 878,07;13682,358;  286,135;23186,410;58,49809
 878,63;13711,742;  240,904;23134,256;58,84170
 879,19;13683,358;  262,981;23189,102;58,53749
 879,75;13779,588;  232,288;23175,948;59,04594
 880,30;13846,973;  237,288;23103,794;59,51799
 880,86;13996,665;  288,596;23294,717;59,58444
 881,42;13986,281;  226,596;23303,487;59,62538
 881,98;14053,819;  246,442;23390,410;59,65864
 882,54;14142,050;  235,212;23375,487;60,09798
 883,09;14281,665;  259,288;23574,948;60,14145
 883,65;14335,281;  233,519;23483,948;60,65162
 884,21;14506,588;  271,750;23818,871;60,45256
 884,77;14569,050;  231,135;23800,794;60,83209
 885,32;14644,742;  239,442;23943,640;60,77109
 885,88;14786,973;  281,288;24105,717;60,88576
 886,44;14895,512;  244,673;24123,871;61,35398
 887,00;14976,204;  269,750;24141,794;61,60534
 887,56;15120,973;  241,365;24294,102;61,86243
 888,11;15181,819;  253,981;24308,102;62,05938
 888,67;15280,973;  271,827;24400,333;62,20504
 889,23;15331,665;  244,750;24482,179;62,24635
 889,79;15309,665;  231,058;24303,487;62,63850
 890,34;15365,358;  253,596;24299,333;62,84591
 890,90;15530,742;  316,827;24418,794;63,12313
 891,46;15405,435;  237,058;24348,410;62,90969
 892,01;15568,050;  245,904;24326,179;63,62945
 892,57;15486,973;  278,750;24254,487;63,43172
 893,13;15457,973;  256,596;24073,487;63,82604
 893,69;15439,512;  230,365;24010,179;63,95822
 894,24;15421,665;  241,365;23982,333;63,94137
 894,80;15424,358;  238,519;23844,640;64,33009
 895,36;15416,973;  249,981;23747,948;64,54598
 895,91;15297,973;  243,904;23516,640;64,68543
 896,47;15391,204;  259,212;23529,102;65,02821
 897,03;15238,973;  238,673;23267,563;65,13688
 897,58;15267,819;  258,596;23177,410;65,48866
 898,14;15243,819;  258,212;23120,563;65,54710
 898,70;15163,281;  215,750;22922,333;65,82906
 899,25;15221,050;  240,365;22978,948;65,88223
 899,81;15169,588;  256,135;22819,025;66,09727
 900,37;14993,281;  209,058;22637,487;65,91734
 900,92;15156,512;  237,981;22644,717;66,58056
 901,48;15055,358;  236,365;22451,794;66,70586
 902,03;14959,127;  234,519;22301,563;66,72669
 902,59;14918,435;  239,673;22331,640;66,44389
 903,15;14919,896;  256,596;22087,256;67,16838
 903,70;14779,050;  240,212;21979,563;66,87798
 904,26;14784,896;  242,058;21877,487;67,21770
 904,82;14893,665;  236,750;21862,640;67,77485
 905,37;14780,742;  251,596;21730,333;67,64432
 905,93;14829,512;  237,750;21658,179;68,12077
 906,48;14822,435;  252,365;21601,102;68,24792
 907,04;14789,358;  255,519;21476,102;68,48935
 907,60;14750,281;  247,212;21357,179;68,70247
 908,15;14754,204;  229,827;21213,410;69,21781
 908,71;14770,896;  253,673;21286,025;69,02330
 909,26;14737,281;  251,673;21088,256;69,52007
 909,82;14715,435;  249,827;20958,640;69,85242
 910,37;14810,665;  284,442;20923,948;70,38067
 910,93;14660,512;  228,365;20717,717;70,43730
 911,48;14662,358;  231,365;20649,102;70,67871
 912,04;14615,050;  226,288;20462,948;71,10245
 912,60;14654,050;  251,212;20524,871;71,04212
 913,15;14603,973;  237,827;20291,640;71,63798
 913,71;14509,973;  231,519;20166,025;71,62683
 914,26;14520,358;  220,135;20162,256;71,70864
 914,82;14550,896;  259,596;20106,948;72,00608
 915,37;14504,896;  232,750;20033,333;72,07943
 915,93;14546,742;  307,904;19933,563;72,55215
 916,48;14426,204;  229,827;19801,256;72,53623
 917,04;14357,358;  254,365;19686,640;72,57510
 917,59;14380,973;  268,673;19677,256;72,71165
 918,15;14262,204;  213,135;19513,640;72,79120
 918,70;14217,127;  240,596;19423,563;72,85907
 919,26;14154,665;  246,442;19416,717;72,55098
 919,81;14137,435;  209,827;19181,948;73,41091
 920,37;14146,588;  238,904;19112,640;73,68803
 920,92;14206,819;  253,135;19137,640;73,88959
 921,48;14105,204;  223,135;18901,410;74,32201
 922,03;14154,358;  222,212;18846,333;74,80700
 922,59;14070,896;  228,212;18791,794;74,56904
 923,14;14014,204;  248,135;18596,871;75,02462
 923,69;14059,127;  253,596;18562,179;75,40469
 924,25;14059,358;  268,827;18562,563;75,38389
 924,80;13892,665;  234,750;18369,025;75,31548
 925,36;13898,435;  223,596;18322,102;75,55783
 925,91;13822,665;  224,981;18221,717;75,55639
 926,47;13850,050;  217,288;18161,871;75,97146
 927,02;13892,358;  314,288;18083,333;76,41418
 927,57;13778,512;  212,519;17960,256;76,43787
 928,13;13763,050;  223,212;17831,179;76,89609
 928,68;13760,435;  229,673;17891,563;76,60993
 929,24;13586,665;  203,212;17668,102;76,63062
 929,79;13600,742;  217,750;17577,563;77,09180
 930,34;13496,665;  225,673;17422,256;77,17226
 930,90;13524,896;  218,288;17422,179;77,34650
 931,45;13580,973;  234,442;17462,256;77,47083
 932,01;13450,665;  235,673;17360,487;77,16868
 932,56;13409,204;  255,596;17165,563;77,78612
 933,11;13502,819;  263,981;17126,794;78,50907
 933,67;13437,358;  221,981;17004,563;78,74460
 934,22;13398,435;  238,288;16960,025;78,70083
 934,77;13358,588;  256,827;16781,410;79,28649
 935,33;13260,742;  237,212;16716,871;79,02791
 935,88;13293,435;  242,981;16752,025;79,05033
 936,43;13214,204;  235,135;16605,102;79,28586
 936,99;13207,896;  234,058;16544,640;79,54246
 937,54;13097,358;  204,058;16446,871;79,37849
 938,09;13054,588;  240,827;16372,717;79,43125
 938,65;13004,665;  232,135;16261,640;79,68138
 939,20;12926,435;  204,750;16177,563;79,64586
 939,75;12915,281;  220,365;16124,563;79,82116
 940,31;12899,819;  217,519;15971,333;80,50305
 940,86;12894,435;  236,365;15983,179;80,38496
 941,41;12938,665;  334,750;15937,871;80,77817
 941,96;12801,742;  214,288;15792,563;80,80133
 942,52;12728,435;  224,519;15760,256;80,48486
 943,07;12685,819;  206,673;15593,640;81,10205
 943,62;12657,512;  228,596;15560,102;81,06781
 944,18;12600,973;  206,058;15509,487;80,99437
 944,73;12553,127;  238,288;15427,102;81,07834
 945,28;12458,819;  203,904;15267,794;81,35292
 945,83;12529,358;  225,135;15246,871;81,90946
 946,39;12504,358;  222,288;15224,179;81,87014
 946,94;12500,127;  245,827;15147,563;82,23404
 947,49;12441,281;  222,673;15083,256;82,22159
 948,04;12466,896;  274,442;15046,333;82,53821
 948,59;12417,665;  251,442;14994,487;82,52178
 949,15;12361,050;  221,827;14878,102;82,82611
 949,70;12306,742;  224,827;14792,102;82,93875
 950,25;12283,204;  233,596;14693,487;83,33125
 950,80;12259,127;  199,212;14674,102;83,31611
 951,36;12170,204;  199,212;14514,563;83,62346
 951,91;12278,588;  246,365;14557,102;84,07829
 952,46;12126,742;  219,596;14430,333;83,78979
 953,01;12194,973;  232,442;14444,256;84,17315
 953,56;12069,588;  212,442;14223,487;84,62714
 954,11;12108,896;  238,827;14239,102;84,78454
 954,67;12002,819;  222,673;14136,179;84,66699
 955,22;11928,127;  202,288;14011,794;84,91135
 955,77;11968,742;  245,288;14036,179;85,00868
 956,32;11926,896;  278,058;13908,179;85,46394
 956,87;11791,665;  213,212;13860,563;84,84030
 957,42;11710,127;  219,673;13823,410;84,46542
 957,98;11743,358;  214,212;13717,102;85,38280
 958,53;11754,512;  258,519;13722,179;85,38535
 959,08;11647,512;  216,288;13561,487;85,65795
 959,63;11592,281;  227,135;13540,563;85,36603
 960,18;11612,281;  244,058;13492,025;85,81107
 960,73;11532,358;  228,750;13412,794;85,73703
 961,28;11499,819;  201,673;13368,256;85,80925
 961,83;11502,050;  248,904;13331,487;86,01624
 962,39;11396,512;  211,596;13205,179;86,08030
 962,94;11368,588;  239,596;13198,640;85,87819
 963,49;11286,742;  237,365;13043,256;86,28355
 964,04;11294,204;  244,827;13004,717;86,59461
 964,59;11152,588;  207,673;12920,256;86,09514
 965,14;11270,819;  251,596;12819,102;87,68027
 965,69;11162,127;  238,596;12784,256;87,07020
 966,24;11054,204;  219,596;12659,563;87,09515
 966,79;11049,435;  237,981;12654,871;87,07054
 967,34;10984,127;  209,135;12482,640;87,79066
 967,89;10923,588;  225,288;12511,256;87,07739
 968,44;10937,819;  221,288;12428,333;87,78973
 968,99;10882,204;  235,596;12349,563;87,88704
 969,55;10824,819;  227,981;12292,179;87,83707
 970,10;10769,435;  240,058;12193,256;88,08837
 970,65;10755,973;  254,904;12086,871;88,75168
 971,20;10702,973;  220,212;12017,179;88,85980
 971,75;10562,050;  203,288;11844,102;88,98658
 972,30;10512,435;  240,981;11904,948;88,06141
 972,85;10496,281;  216,365;11747,794;89,14694
 973,40;10356,819;  208,288;11706,948;88,25838
 973,95;10315,665;  240,288;11657,794;88,24499
 974,50;10357,281;  259,519;11607,640;88,98179
 975,05;10249,588;  231,058;11516,410;88,77464
 975,60;10214,896;  239,904;11411,640;89,28775
 976,15;10194,358;  222,058;11380,794;89,36764
 976,70;10114,819;  229,058;11312,563;89,19345
 977,25;10122,588;  248,135;11288,025;89,44340
 977,80;10025,358;  223,519;11137,871;89,80688
 978,35; 9880,435;  243,519;11028,563;89,35444
 978,89; 9840,204;  212,750;10951,025;89,65550
 979,44; 9814,665;  233,827;10961,333;89,31096
 979,99; 9705,281;  215,904;10728,948;90,26288
 980,54; 9710,896;  249,981;10703,640;90,50338
 981,09; 9611,665;  250,827;10667,256;89,86610
 981,64; 9518,973;  247,212;10536,025;90,11497
 982,19; 9499,665;  276,365;10493,410;90,27366
 982,74; 9421,358;  247,058;10385,948;90,48623
 983,29; 9340,973;  220,596;10241,179;91,01643
 983,84; 9295,588;  242,519;10224,563;90,69354
 984,39; 9324,512;  348,596;10177,333;91,32319
 984,94; 9072,742;  211,442;10055,871;90,01335
 985,49; 9090,050;  253,519; 9997,948;90,68290
 986,03; 9066,358;  262,750; 9924,563;91,11755
 986,58; 8983,512;  287,827; 9831,563;91,11405
 987,13; 8882,204;  243,596; 9711,179;91,24407
 987,68; 8814,973;  248,288; 9625,410;91,35730
 988,23; 8755,281;  244,288; 9541,333;91,54514
 988,78; 8640,050;  227,135; 9450,179;91,21625
 989,33; 8635,281;  242,288; 9348,410;92,16869
 989,88; 8581,358;  291,212; 9341,563;91,60026
 990,42; 8489,050;  244,365; 9220,640;91,84973
 990,97; 8366,896;  230,365; 9067,794;92,06898
 991,52; 8331,665;  257,288; 9052,871;91,80036
 992,07; 8335,665;  290,288; 8989,487;92,48412
 992,62; 8235,512;  245,750; 8861,410;92,73534
 993,17; 8089,512;  259,212; 8761,025;92,10153
 993,71; 8023,742;  253,827; 8735,256;91,61092
 994,26; 7925,742;  228,442; 8609,025;91,84684
 994,81; 7987,127;  264,904; 8560,717;93,08578
 995,36; 7835,435;  234,673; 8417,794;92,88340
 995,91; 7794,588;  234,981; 8371,640;92,90800
 996,45; 7750,588;  242,365; 8249,563;93,76842
 997,00; 7661,973;  232,596; 8114,871;94,25422
 997,55; 7624,050;  244,596; 8144,640;93,41029
 998,10; 7519,435;  262,981; 8010,179;93,66553
 998,65; 7492,358;  238,288; 7979,256;93,71011
 999,19; 7431,588;  267,519; 7907,871;93,76622
 999,74; 7343,127;  278,827; 7788,256;94,07240
1000,29; 7327,665;  255,904; 7731,179;94,60203
1000,84; 7197,588;  250,673; 7572,256;94,88270
1001,38; 7193,896;  244,365; 7539,640;95,26071
1001,93; 7143,204;  250,058; 7480,871;95,33016
1002,48; 7001,665;  230,519; 7299,256;95,79005
1003,03; 6983,512;  257,058; 7323,102;95,19405
1003,57; 6914,204;  255,673; 7216,102;95,66265
1004,12; 6852,050;  292,288; 7162,717;95,47820
1004,67; 6746,204;  238,519; 7084,256;95,06186
1005,22; 6613,742;  242,135; 6931,563;95,24890
1005,76; 6540,281;  232,981; 6815,025;95,82585
1006,31; 6512,742;  269,981; 6788,563;95,76869
1006,86; 6390,896;  229,750; 6727,256;94,82325
1007,40; 6308,358;  230,135; 6614,410;95,20616
1007,95; 6264,896;  245,673; 6506,025;96,14832
1008,50; 6163,358;  259,212; 6437,794;95,55826
1009,04; 6085,973;  238,904; 6353,102;95,63101
1009,59; 5978,281;  255,673; 6198,410;96,29583
1010,14; 5867,204;  235,904; 6121,717;95,67582
1010,68; 5803,819;  240,212; 6066,102;95,49798
1011,23; 5709,127;  239,596; 5991,563;95,08974
1011,78; 5700,204;  255,750; 5919,948;96,12047
1012,32; 5649,512;  283,519; 5834,256;96,67172
1012,87; 5586,973;  276,904; 5799,794;96,14656
1013,42; 5480,050;  231,135; 5676,640;96,38986
1013,96; 5516,204;  276,673; 5702,948;96,55852
1014,51; 5393,819;  206,981; 5638,717;95,49135
1015,06; 5386,588;  206,135; 5622,871;95,63791
1015,60; 5471,050;  288,596; 5678,948;96,14314
1016,15; 5422,588;  232,442; 5631,025;96,13905
1016,69; 5485,050;  246,904; 5662,717;96,71947
1017,24; 5466,973;  224,981; 5628,410;97,01233
1017,79; 5575,050;  285,827; 5696,948;97,74727
1018,33; 5547,512;  236,904; 5689,410;97,39756
1018,88; 5586,435;  264,288; 5746,333;97,08324
1019,42; 5606,281;  225,519; 5714,640;98,02592
1019,97; 5639,127;  228,827; 5688,102;99,10290
1020,51; 5707,435;  268,288; 5828,410;97,82424
1021,06; 5628,742;  218,827; 5724,717;98,25687
1021,61; 5664,050;  207,288; 5715,640;99,06342
1022,15; 5660,973;  196,442; 5684,256;99,57574
1022,70; 5613,127;  249,519; 5684,717;98,68284
1023,24; 5602,896;  214,750; 5655,179;99,03900
1023,79; 5581,358;  233,596; 5595,487;99,73650
1024,33; 5539,127;  231,827; 5567,102;99,47566
1024,88; 5485,435;  254,750; 5434,410;100,98510
1025,42; 5366,973;  250,058; 5380,256;99,74109
1025,97; 5332,435;  227,365; 5349,487;99,66709
1026,51; 5224,896;  207,519; 5236,640;99,76648
1027,06; 5189,358;  227,827; 5202,410;99,73763
1027,60; 5108,588;  259,981; 5131,717;99,52524
1028,15; 5017,127;  253,827; 5051,871;99,27587
1028,69; 4908,204;  197,750; 4920,794;99,73343
1029,24; 4912,896;  227,519; 4923,025;99,78429
1029,78; 4804,665;  213,135; 4815,640;99,76154
1030,33; 4713,127;  207,904; 4682,102;100,69342
1030,87; 4669,819;  223,058; 4647,487;100,50476
1031,42; 4581,127;  213,288; 4556,487;100,56733
1031,96; 4543,050;  244,750; 4548,102;99,88260
1032,51; 4493,665;  222,673; 4440,717;101,25528
1033,05; 4445,896;  233,365; 4427,487;100,43894
1033,60; 4290,665;  200,058; 4295,871;99,87290
1034,14; 4262,204;  212,058; 4250,487;100,29015
1034,69; 4231,973;  231,365; 4207,410;100,61779
1035,23; 4198,896;  221,673; 4128,179;101,81024
1035,77; 4133,050;  223,365; 4076,333;101,47204
1036,32; 4051,281;  203,442; 3986,717;101,70655
1036,86; 4055,204;  242,981; 3999,102;101,49361
1037,41; 3981,204;  235,904; 3900,025;102,21551
1037,95; 3875,050;  198,058; 3846,102;100,79352
1038,50; 3864,742;  218,212; 3803,487;101,70854
1039,04; 3865,204;  244,442; 3772,948;102,61458
1039,58; 3768,665;  201,442; 3700,256;101,95522
1040,13; 3747,204;  216,058; 3657,871;102,59551
1040,67; 3707,204;  253,981; 3627,640;102,35837
1041,21; 3674,665;  254,365; 3596,717;102,33213
1041,76; 3561,742;  210,135; 3487,179;102,27533
1042,30; 3527,127;  231,596; 3481,948;101,38997
1042,85; 3467,896;  222,673; 3406,487;101,92881
1043,39; 3415,281;  220,365; 3354,563;101,93725
1043,93; 3388,435;  246,596; 3342,794;101,47408
1044,48; 3346,358;  242,288; 3280,640;102,16293
1045,02; 3272,973;  225,827; 3214,563;101,95432
1045,56; 3306,127;  255,058; 3238,410;102,26984
1046,11; 3211,358;  235,135; 3181,794;101,00329
1046,65; 3183,204;  234,673; 3089,025;103,29948
1047,19; 3137,819;  223,058; 3051,563;103,04952
1047,74; 3066,435;  211,365; 2994,487;102,58516
1048,28; 3067,358;  232,442; 3001,333;102,38453
1048,82; 3028,665;  275,365; 2956,025;102,70980
1049,37; 2995,588;  245,058; 2932,487;102,34804
1049,91; 2943,512;  243,904; 2855,256;103,37970
1050,45; 2906,819;  249,904; 2829,794;102,98559
1050,99; 2873,127;  247,058; 2806,487;102,60372
1051,54; 2817,665;  226,058; 2730,794;103,46828
1052,08; 2828,358;  258,673; 2717,333;104,51567
1052,62; 2738,358;  254,212; 2689,333;102,01325
1053,16; 2703,281;  222,827; 2629,871;103,04978
1053,71; 2671,204;  248,750; 2601,333;102,96998
1054,25; 2640,435;  246,442; 2566,948;103,16683
1054,79; 2601,127;  251,904; 2547,179;102,35040
1055,33; 2526,819;  207,058; 2450,640;103,39541
1055,88; 2527,973;  243,212; 2484,256;101,95076
1056,42; 2495,127;  253,827; 2468,640;101,19588
1056,96; 2482,512;  248,442; 2394,948;104,07935
1057,50; 2425,435;  249,904; 2408,871;100,76719
1058,05; 2392,896;  234,135; 2317,948;103,59668
1058,59; 2377,358;  271,058; 2302,794;103,66994
1059,13; 2313,896;  216,519; 2243,179;103,48935
1059,67; 2325,588;  244,442; 2229,640;104,83317
1060,21; 2275,127;  240,750; 2211,256;103,24136
1060,76; 2258,742;  250,827; 2190,179;103,53538
1061,30; 2223,512;  267,442; 2150,179;103,89501
1061,84; 2198,819;  256,135; 2104,410;105,10799
1062,38; 2124,819;  224,596; 2055,025;103,81300
1062,92; 2179,435;  280,981; 2092,333;104,80867
1063,46; 2110,050;  260,212; 2023,256;104,92298
1064,01; 2056,665;  240,058; 1992,794;103,64408
1064,55; 2062,819;  257,673; 1976,563;105,01811
1065,09; 2010,127;  214,827; 1910,025;105,90503
1065,63; 2038,281;  273,981; 1932,640;106,36902
1066,17; 2046,896;  280,135; 1910,563;108,36177
1066,71; 1963,281;  271,288; 1891,487;104,43120
1067,25; 1943,819;  243,750; 1824,102;107,57536
1067,80; 1916,665;  252,981; 1830,717;105,44756
1068,34; 1911,435;  269,827; 1846,410;104,12443
1068,88; 1854,204;  242,827; 1753,102;106,69427
1069,42; 1874,435;  263,981; 1791,717;105,41437
1069,96; 1823,204;  238,058; 1733,640;105,98853
1070,50; 1849,204;  281,442; 1754,948;106,39670
1071,04; 1753,435;  227,442; 1685,717;104,64366
1071,58; 1763,358;  233,442; 1667,871;106,65676
1072,12; 1743,050;  247,750; 1649,717;106,65727
1072,66; 1721,665;  238,058; 1640,871;105,75944
1073,21; 1720,127;  263,212; 1643,333;105,56431
1073,75; 1695,127;  255,750; 1602,256;106,89720
1074,29; 1652,588;  249,365; 1575,025;105,85093
1074,83; 1647,050;  263,135; 1580,025;105,08964
1075,37; 1631,127;  269,673; 1574,102;104,37165
1075,91; 1602,665;  253,981; 1527,179;105,92889
1076,45; 1572,512;  262,442; 1527,948;103,52140
1076,99; 1557,358;  260,519; 1491,410;105,35775
1077,53; 1511,204;  245,519; 1465,871;103,71472
1078,07; 1515,819;  262,058; 1478,333;103,08208
1078,61; 1482,742;  246,365; 1439,025;103,66553
1079,15; 1466,204;  250,135; 1419,333;104,00883
1079,69; 1460,127;  241,519; 1411,410;104,16426
1080,23; 1469,281;  277,058; 1414,333;104,83156
1080,77; 1499,512;  317,596; 1445,640;104,77562
1081,31; 1416,588;  240,750; 1355,948;105,43763
1081,85; 1411,358;  268,596; 1380,794;102,74802
1082,39; 1375,512;  254,212; 1324,794;104,73736
1082,93; 1383,973;  271,058; 1341,563;103,96164
1083,47; 1342,512;  233,442; 1288,102;105,15897
1084,01; 1344,204;  257,750; 1299,410;104,30028
1084,55; 1305,204;  254,827; 1275,025;102,95814
1085,09; 1322,050;  263,827; 1277,025;104,44385
1085,63; 1295,512;  260,981; 1253,333;104,25039
1086,17; 1266,512;  245,058; 1243,102;102,34555
1086,71; 1238,819;  230,442; 1222,717;101,62273
1087,24; 1259,588;  282,596; 1234,025;102,68685
1087,78; 1259,050;  273,442; 1210,333;105,19989
1088,32; 1199,204;  234,904; 1147,640;105,64933
1088,86; 1233,358;  273,673; 1194,102;104,26494
1089,40; 1210,127;  254,058; 1152,871;106,37015
1089,94; 1159,819;  231,365; 1128,717;103,46597
1090,48; 1156,973;  253,135; 1130,256;103,04602
1091,02; 1154,742;  280,058; 1135,333;102,26940
1091,56; 1131,742;  253,212; 1090,487;104,92739
1092,10; 1097,665;  230,442; 1072,256;103,01844
1092,63; 1128,588;  270,135; 1099,256;103,53781
1093,17; 1109,435;  257,750; 1091,179;102,19044
1093,71; 1076,742;  244,673; 1046,948;103,71372
1094,25; 1095,896;  278,212; 1067,640;103,57927
1094,79; 1069,435;  247,135; 1043,025;103,31825
1095,33; 1061,665;  255,058; 1041,025;102,62611
1095,87; 1043,204;  256,519; 1015,563;103,64147
1096,40; 1010,050;  229,673;  985,640;103,22892
1096,94; 1007,742;  259,519;  997,563;101,37916
1097,48; 1023,204;  263,288;  998,871;103,30795
1098,02;  986,896;  236,288;  964,256;103,11008
1098,56;  952,512;  223,442;  929,871;103,20491
1099,10;  936,281;  226,596;  923,487;101,83590
1099,63;  933,973;  226,596;  921,871;101,74060
1100,17;  967,512;  261,442;  929,102;105,75287
1100,71;  973,819;  283,442;  954,410;102,89278

