
Integration time [ms]: 150,000
Averaging Nr. [scans]: 13
Smoothing Nr. [pixels]: 0
Data measured with spectrometer [name]: 2009305U1
Wave   ;Sample   ;Dark     ;Reference;Reflectance
[nm]   ;[counts] ;[counts] ;[counts] ;[%]

 175,72;  222,656;  213,942;  232,391;47,22936
 176,32;  242,122;  248,562;  239,245; 0,00000
 176,92;  288,792;  283,713;  284,805;465,00471
 177,52;  275,006;  263,481;  288,463;46,13116
 178,12;  257,824;  258,638;  259,823;-68,69558
 178,72;  289,187;  287,793;  280,469; 0,00000
 179,32;  268,646;  285,408;  267,745; 0,00000
 179,92;  276,529;  275,791;  268,795; 0,00000
 180,52;  262,288;  256,325;  272,061;37,89691
 181,12;  276,750;  274,252;  289,721;16,14776
 181,73;  294,199;  302,098;  302,762; 0,00000
 182,33;  410,549;  411,173;  406,971; 0,00000
 182,93;  290,254;  293,097;  294,847;-162,47558
 183,53;  257,546;  259,948;  249,810; 0,00000
 184,13;  257,834;  259,332;  248,661; 0,00000
 184,73;  315,164;  314,025;  313,345; 0,00000
 185,33;  271,353;  254,895;  344,858;18,29412
 185,93;  281,363;  268,436;  359,913;14,13096
 186,53;  309,847;  274,666;  381,617;32,89447
 187,13;  320,844;  285,970;  414,333;27,16836
 187,73;  294,102;  262,974;  373,416;28,18490
 188,33;  299,482;  249,284;  379,789;38,46462
 188,93;  290,157;  282,673;  384,519; 7,34791
 189,53;  287,896;  265,370;  380,835;19,50949
 190,13;  326,554;  301,453;  437,825;18,40625
 190,73;  271,954;  245,679;  384,820;18,88316
 191,34;  306,810;  279,444;  409,815;20,99038
 191,94;  280,112;  263,439;  370,276;15,60613
 192,54;  299,517;  255,737;  399,966;30,35427
 193,14;  311,455;  288,047;  387,600;23,51248
 193,74;  298,259;  296,202;  379,404; 2,47222
 194,34;  304,199;  272,354;  392,221;26,56685
 194,94;  267,934;  250,278;  345,600;18,52196
 195,54;  231,502;  229,741;  336,398; 1,65096
 196,14;  268,298;  246,661;  343,765;22,28250
 196,74;  263,681;  250,434;  354,623;12,71390
 197,34;  238,477;  216,429;  347,856;16,77609
 197,94;  269,626;  241,201;  367,795;22,45364
 198,54;  284,130;  253,200;  382,880;23,85087
 199,14;  249,748;  227,043;  362,749;16,73070
 199,74;  233,884;  217,966;  353,672;11,72973
 200,34;  240,301;  216,427;  355,290;17,19222
 200,94;  286,586;  255,891;  406,391;20,39568
 201,54;  262,504;  232,120;  402,629;17,81954
 202,14;  310,102;  282,811;  452,335;16,09881
 202,74;  258,643;  229,889;  425,863;14,67237
 203,34;  237,410;  212,733;  417,845;12,03111
 203,94;  223,400;  190,041;  432,337;13,76773
 204,54;  280,264;  250,816;  504,220;11,62082
 205,14;  255,886;  224,735;  505,171;11,10810
 205,74;  303,445;  266,041;  591,229;11,50233
 206,34;  252,259;  210,426;  593,142;10,93036
 206,94;  266,321;  235,042;  631,831; 7,88289
 207,54;  243,556;  202,119;  644,718; 9,36232
 208,14;  253,343;  222,503;  714,144; 6,27285
 208,74;  254,415;  218,889;  754,132; 6,63730
 209,34;  264,571;  212,581;  808,442; 8,72520
 209,94;  270,437;  238,274;  890,249; 4,93326
 210,54;  282,911;  222,657;  966,494; 8,10053
 211,14;  287,318;  227,582; 1025,633; 7,48532
 211,73;  286,097;  228,121; 1111,974; 6,55954
 212,33;  308,373;  248,275; 1188,775; 6,38995
 212,93;  290,065;  234,120; 1272,131; 5,38963
 213,53;  270,628;  200,889; 1281,363; 6,45449
 214,13;  322,651;  218,193; 1379,045; 8,99835
 214,73;  282,179;  199,042; 1377,951; 7,05207
 215,33;  276,283;  194,966; 1390,403; 6,80232
 215,93;  319,373;  224,887; 1496,612; 7,42975
 216,53;  281,239;  186,428; 1531,015; 7,05130
 217,13;  328,341;  232,733; 1687,840; 6,57046
 217,73;  341,030;  210,579; 1839,536; 8,00827
 218,33;  319,192;  175,808; 1944,509; 8,10671
 218,93;  371,484;  212,421; 2182,917; 8,07227
 219,53;  389,405;  216,962; 2401,433; 7,89404
 220,13;  366,013;  168,115; 2581,899; 8,19865
 220,73;  412,172;  202,504; 2851,019; 7,91642
 221,32;  446,877;  201,274; 3120,286; 8,41389
 221,92;  476,512;  213,808; 3428,167; 8,17283
 222,52;  492,886;  194,733; 3717,576; 8,46344
 223,12;  522,911;  200,502; 4022,269; 8,43613
 223,72;  565,663;  204,348; 4372,501; 8,66847
 224,32;  610,564;  220,194; 4616,964; 8,87856
 224,92;  616,380;  195,194; 4835,348; 9,07699
 225,52;  676,380;  219,427; 5110,293; 9,34300
 226,12;  688,574;  199,580; 5350,032; 9,49420
 226,72;  682,889;  174,734; 5553,453; 9,44751
 227,31;  705,013;  161,734; 5830,376; 9,58394
 227,91;  800,760;  223,966; 6177,329; 9,68855
 228,51;  809,422;  185,737; 6407,624;10,02406
 229,11;  853,571;  199,734; 6726,183;10,01827
 229,71;  864,207;  185,966; 6921,669;10,06933
 230,31;  912,911;  179,270; 7217,584;10,42354
 230,91;  938,224;  179,353; 7438,424;10,45411
 231,51;  979,001;  184,425; 7630,921;10,67046
 232,10; 1036,683;  185,808; 7920,663;11,00053
 232,70; 1067,815;  201,585; 8050,067;11,03690
 233,30; 1129,963;  215,349; 8212,688;11,43649
 233,90; 1117,780;  193,887; 8357,534;11,31716
 234,50; 1137,447;  191,348; 8338,267;11,61297
 235,10; 1172,996;  188,578; 8361,810;12,04441
 235,70; 1230,839;  215,581; 8439,675;12,34493
 236,29; 1214,666;  200,120; 8272,400;12,56826
 236,89; 1189,832;  174,968; 8134,388;12,75048
 237,49; 1214,174;  209,733; 8099,993;12,73014
 238,09; 1213,028;  191,119; 7834,758;13,36941
 238,69; 1250,589;  244,892; 7651,380;13,57859
 239,29; 1191,807;  194,888; 7392,371;13,85094
 239,89; 1175,477;  201,506; 7129,926;14,05761
 240,48; 1128,306;  185,042; 6781,450;14,29966
 241,08; 1107,060;  193,735; 6490,908;14,50374
 241,68; 1117,393;  218,657; 6241,874;14,92119
 242,28; 1057,646;  180,579; 5954,187;15,19096
 242,88; 1079,095;  238,732; 5729,199;15,30586
 243,48; 1050,884;  232,272; 5513,531;15,50032
 244,07; 1002,038;  213,889; 5315,560;15,44884
 244,67; 1018,308;  210,888; 5200,991;16,18044
 245,27; 1005,097;  218,351; 5068,512;16,22103
 245,87;  965,413;  228,809; 5047,813;15,28539
 246,47;  981,435;  209,044; 4990,205;16,15489
 247,06;  963,946;  195,273; 4988,255;16,03747
 247,66;  950,929;  199,734; 5045,375;15,50249
 248,26; 1014,025;  218,736; 5147,014;16,13727
 248,86; 1031,785;  217,351; 5321,282;15,95698
 249,46; 1002,633;  157,348; 5440,689;15,99906
 250,05; 1080,187;  214,503; 5738,680;15,67081
 250,65; 1097,569;  184,429; 5969,510;15,78440
 251,25; 1151,187;  197,889; 6357,869;15,47567
 251,85; 1223,432;  213,276; 6812,734;15,30666
 252,44; 1268,001;  184,659; 7249,516;15,33424
 253,04; 1384,941;  215,889; 7818,327;15,37733
 253,64; 1423,718;  169,044; 8404,469;15,23508
 254,24; 1577,666;  214,196; 9168,218;15,22746
 254,84; 1643,941;  185,887; 9921,228;14,97692
 255,43; 1742,288;  196,120;10750,633;14,64936
 256,03; 1886,204;  192,352;11606,163;14,84037
 256,63; 1981,725;  206,045;12400,234;14,56169
 257,23; 2103,936;  186,506;13216,811;14,71516
 257,82; 2245,953;  206,431;14106,224;14,67304
 258,42; 2281,733;  157,278;14919,565;14,39110
 259,02; 2453,559;  217,504;15677,903;14,46311
 259,62; 2517,594;  192,894;16358,485;14,38055
 260,21; 2635,400;  210,120;16988,555;14,45475
 260,81; 2658,147;  194,580;17427,877;14,29539
 261,41; 2725,147;  174,585;17907,684;14,38306
 262,01; 2838,906;  227,433;18314,057;14,43870
 262,60; 2812,782;  178,660;18710,427;14,21409
 263,20; 2931,254;  185,890;19121,858;14,49814
 263,80; 2957,293;  223,663;19337,865;14,30157
 264,40; 2951,204;  173,894;19593,059;14,30190
 264,99; 2971,807;  213,356;19766,863;14,10719
 265,59; 2995,599;  189,435;19883,310;14,24892
 266,19; 3017,968;  192,586;20100,326;14,19238
 266,78; 3093,899;  232,818;20275,972;14,27460
 267,38; 3092,430;  204,280;20331,852;14,34922
 267,98; 3046,633;  201,664;20347,819;14,12165
 268,58; 3089,246;  206,127;20373,698;14,29582
 269,17; 3089,884;  197,205;20470,340;14,26853
 269,77; 3058,757;  201,507;20310,845;14,20858
 270,37; 3006,502;  163,587;20130,593;14,23806
 270,96; 3062,092;  234,969;20224,724;14,14286
 271,56; 2974,618;  198,276;19928,464;14,07155
 272,16; 3003,599;  194,200;19783,490;14,34150
 272,75; 2972,886;  191,354;19749,068;14,22217
 273,35; 2940,055;  205,123;19603,610;14,09869
 273,95; 2912,946;  203,200;19589,915;13,97733
 274,54; 2923,574;  184,427;19713,410;14,02606
 275,14; 3012,236;  219,738;20045,880;14,08493
 275,74; 2991,489;  175,893;19968,529;14,22548
 276,33; 3073,790;  228,661;20344,883;14,14345
 276,93; 3090,174;  199,734;20646,721;14,13627
 277,53; 3149,648;  199,197;20999,862;14,18441
 278,12; 3206,420;  174,968;21460,082;14,24212
 278,72; 3379,839;  255,582;21988,591;14,37563
 279,32; 3404,646;  197,736;22420,475;14,43076
 279,91; 3470,891;  186,813;22956,548;14,42300
 280,51; 3585,214;  190,351;23409,978;14,62066
 281,11; 3669,708;  194,121;23992,394;14,60437
 281,70; 3717,239;  174,506;24405,547;14,62064
 282,30; 3866,234;  188,737;24945,233;14,85467
 282,90; 3960,497;  186,276;25231,041;15,06990
 283,49; 4072,269;  213,892;25761,610;15,10263
 284,09; 4198,244;  229,583;26079,930;15,35245
 284,69; 4324,695;  229,967;26439,436;15,62309
 285,28; 4392,492;  211,352;26775,853;15,73958
 285,88; 4573,092;  274,970;26939,836;16,11905
 286,47; 4556,053;  205,891;27004,886;16,23255
 287,07; 4703,125;  225,274;27049,551;16,69327
 287,67; 4848,961;  225,195;27202,685;17,13935
 288,26; 4891,958;  186,582;27102,628;17,48168
 288,86; 5039,750;  187,891;27191,277;17,96760
 289,46; 5205,011;  214,505;27293,857;18,42919
 290,05; 5368,743;  191,350;27370,022;19,04947
 290,65; 5575,430;  204,353;27556,115;19,63704
 291,24; 5724,795;  205,043;27630,937;20,12606
 291,84; 5937,417;  212,430;27732,464;20,80298
 292,44; 6141,276;  204,349;27752,918;21,55076
 293,03; 6372,626;  282,582;28043,745;21,93728
 293,63; 6500,159;  187,199;28143,117;22,58184
 294,22; 6695,877;  223,583;28296,048;23,05567
 294,82; 6803,231;  194,432;28317,253;23,49977
 295,41; 6869,700;  181,890;28083,700;23,96909
 296,01; 7021,931;  237,201;28096,142;24,35387
 296,61; 7037,105;  232,890;27923,821;24,57200
 297,20; 7005,663;  202,047;27461,720;24,95854
 297,80; 7112,020;  224,734;27448,525;25,29878
 298,39; 7076,432;  191,430;27120,118;25,56754
 298,99; 7162,507;  238,431;27050,417;25,82455
 299,58; 7125,249;  222,195;26883,144;25,89200
 300,18; 7137,646;  229,273;26738,677;26,06008
 300,78; 6987,780;  198,812;26411,633;25,89942
 301,37; 7097,618;  217,587;26374,822;26,30259
 301,97; 7112,750;  216,429;26462,857;26,27528
 302,56; 7091,043;  202,968;26361,078;26,33246
 303,16; 7098,427;  183,969;26230,113;26,54696
 303,75; 7074,862;  196,735;26281,135;26,36874
 304,35; 7141,914;  187,579;26493,154;26,43673
 304,94; 7141,008;  195,813;26507,819;26,39554
 305,54; 7168,953;  211,197;26480,593;26,48617
 306,13; 7123,509;  168,117;26435,270;26,47943
 306,73; 7124,385;  167,656;26274,725;26,64692
 307,33; 7075,043;  214,734;26205,376;26,39530
 307,92; 7109,579;  212,736;26265,361;26,47274
 308,52; 7130,986;  187,277;26595,919;26,29332
 309,11; 7294,030;  203,278;27114,294;26,34888
 309,71; 7348,767;  181,048;27312,404;26,41858
 310,30; 7340,599;  183,505;27535,013;26,16709
 310,90; 7500,368;  237,813;27768,090;26,38025
 311,49; 7450,281;  211,121;27941,666;26,10537
 312,09; 7465,599;  158,042;28080,139;26,17123
 312,68; 7597,090;  272,659;28453,748;25,99059
 313,28; 7505,348;  183,813;28570,668;25,79199
 313,87; 7512,480;  168,813;28691,474;25,74678
 314,47; 7577,140;  197,508;28880,144;25,72857
 315,06; 7564,807;  184,505;29022,169;25,59258
 315,66; 7592,445;  184,273;29287,908;25,45446
 316,25; 7549,668;  161,738;29046,383;25,57736
 316,85; 7516,365;  157,042;29132,485;25,39848
 317,44; 7528,872;  192,432;29362,911;25,15022
 318,04; 7536,527;  173,045;29264,041;25,31189
 318,63; 7482,246;  162,118;29361,379;25,06957
 319,22; 7462,202;  190,968;29467,076;24,83675
 319,82; 7432,172;  196,737;29597,083;24,61003
 320,41; 7374,413;  213,353;29530,808;24,42592
 321,01; 7365,068;  212,427;29689,791;24,26486
 321,60; 7333,276;  206,814;29706,584;24,15769
 322,20; 7249,375;  179,890;29680,092;23,96419
 322,79; 7234,668;  217,966;29699,284;23,80050
 323,39; 7200,983;  187,271;29847,921;23,64652
 323,98; 7133,723;  181,428;29806,670;23,46747
 324,58; 7117,231;  186,200;29699,958;23,48407
 325,17; 7074,326;  196,199;29622,153;23,37435
 325,76; 6977,775;  207,582;29630,781;23,00971
 326,36; 6867,638;  187,581;29222,829;23,00672
 326,95; 6773,333;  223,506;29064,392;22,71021
 327,55; 6692,313;  181,275;28815,775;22,73844
 328,14; 6498,983;  175,273;28463,180;22,35482
 328,74; 6468,829;  220,815;28041,923;22,45782
 329,33; 6358,241;  208,043;27790,675;22,29736
 329,92; 6165,365;  169,124;27269,257;22,12624
 330,52; 6030,824;  209,349;26750,874;21,93346
 331,11; 5941,445;  186,506;26357,545;21,98972
 331,71; 5801,122;  184,583;25920,241;21,82396
 332,30; 5708,239;  204,967;25450,434;21,79905
 332,89; 5619,308;  270,427;25062,635;21,57485
 333,49; 5398,117;  205,814;24569,585;21,31158
 334,08; 5288,529;  193,122;24255,736;21,17562
 334,68; 5180,266;  192,968;23878,852;21,05599
 335,27; 5117,182;  204,657;23597,646;20,99999
 335,86; 5116,906;  267,198;23330,776;21,02756
 336,46; 4952,824;  219,041;23089,223;20,69849
 337,05; 4889,107;  187,814;22964,391;20,64091
 337,65; 4827,973;  177,122;22873,967;20,49118
 338,24; 4879,293;  237,351;22794,093;20,57896
 338,83; 4783,998;  212,889;22743,478;20,28846
 339,43; 4757,618;  186,584;22695,499;20,30766
 340,02; 4714,303;  195,430;22572,882;20,19387
 340,61; 4745,408;  208,274;22608,053;20,25526
 341,21; 4742,829;  233,507;22675,846;20,09293
 341,80; 4683,730;  211,583;22645,813;19,93448
 342,40; 4707,914;  204,734;22704,721;20,01414
 342,99; 4720,308;  199,350;22802,481;20,00147
 343,58; 4692,934;  202,812;22941,367;19,74673
 344,18; 4751,204;  226,119;23014,638;19,85686
 344,77; 4760,413;  189,430;23305,459;19,77408
 345,36; 4766,795;  181,275;23620,623;19,56334
 345,96; 4903,194;  224,196;23867,521;19,78993
 346,55; 4854,857;  195,964;24027,576;19,54922
 347,14; 4933,651;  186,272;24316,452;19,67403
 347,74; 4953,623;  172,346;24672,474;19,51531
 348,33; 5062,618;  205,885;25204,741;19,42782
 348,92; 5181,911;  219,115;25709,443;19,46933
 349,52; 5253,824;  180,038;26172,362;19,52033
 350,11; 5285,450;  191,277;26345,265;19,47761
 350,70; 5305,440;  208,351;26517,553;19,37379
 351,29; 5274,792;  184,895;26275,357;19,50865
 351,89; 5286,862;  230,893;26317,871;19,38120
 352,48; 5253,934;  187,120;26263,976;19,43031
 353,07; 5300,579;  237,426;26233,108;19,47690
 353,67; 5307,350;  229,191;26088,368;19,63775
 354,26; 5241,127;  210,118;25981,875;19,52140
 354,85; 5246,410;  231,350;25943,832;19,50438
 355,45; 5183,584;  189,968;25704,619;19,57156
 356,04; 5229,465;  215,964;25688,609;19,68190
 356,63; 5219,745;  253,967;25533,278;19,64364
 357,22; 5179,226;  220,894;25399,401;19,69272
 357,82; 5193,757;  214,509;25097,329;20,01079
 358,41; 5242,963;  243,967;25158,396;20,06466
 359,00; 5135,018;  210,969;24921,461;19,92696
 359,60; 5185,894;  234,197;24962,439;20,02446
 360,19; 5193,025;  245,579;24788,803;20,15809
 360,78; 5149,174;  219,045;24602,428;20,21922
 361,37; 5171,003;  223,275;24406,737;20,45914
 361,97; 5177,169;  228,813;24367,164;20,49998
 362,56; 5154,375;  222,123;24060,995;20,68996
 363,15; 5189,502;  294,737;23957,851;20,68521
 363,74; 5093,906;  237,662;23645,721;20,74604
 364,34; 5048,174;  239,738;23324,576;20,82941
 364,93; 4961,537;  217,892;22939,109;20,87760
 365,52; 4922,599;  192,891;22602,468;21,10574
 366,11; 4944,879;  226,969;22335,961;21,33933
 366,71; 4890,817;  214,430;22013,384;21,45235
 367,30; 4838,996;  222,352;21647,546;21,54773
 367,89; 4884,259;  268,658;21460,408;21,78018
 368,48; 4858,641;  251,200;21201,799;21,99193
 369,07; 4795,440;  229,505;20829,245;22,16501
 369,67; 4772,755;  260,277;20648,878;22,13236
 370,26; 4739,251;  220,736;20376,785;22,41767
 370,85; 4749,276;  234,506;20121,968;22,70159
 371,44; 4686,618;  241,813;19945,086;22,55871
 372,03; 4669,728;  208,353;19773,307;22,80289
 372,63; 4653,869;  193,660;19517,739;23,08110
 373,22; 4624,430;  224,967;19254,975;23,11856
 373,81; 4607,646;  201,121;18988,468;23,45475
 374,40; 4578,306;  219,196;18787,296;23,47634
 374,99; 4566,120;  226,122;18529,273;23,71175
 375,59; 4525,112;  208,273;18256,718;23,91807
 376,18; 4573,100;  242,660;18162,390;24,16577
 376,77; 4566,182;  245,121;18035,472;24,28879
 377,36; 4587,462;  258,506;17921,314;24,50888
 377,95; 4555,782;  244,507;17660,616;24,75453
 378,55; 4545,298;  228,119;17528,406;24,95438
 379,14; 4583,678;  253,506;17506,891;25,09752
 379,73; 4544,055;  232,507;17369,001;25,16004
 380,32; 4632,030;  233,890;17444,048;25,55549
 380,91; 4640,189;  207,662;17259,454;25,99450
 381,50; 4658,896;  234,123;17212,303;26,06153
 382,10; 4647,953;  226,198;17167,125;26,10102
 382,69; 4645,787;  213,891;17171,775;26,13473
 383,28; 4706,626;  251,969;17107,921;26,42780
 383,87; 4728,596;  207,430;16945,459;27,01134
 384,46; 4711,199;  205,663;16872,676;27,03266
 385,05; 4805,266;  237,277;16895,573;27,42171
 385,64; 4809,417;  232,353;16911,884;27,44121
 386,24; 4828,849;  203,740;16868,829;27,75328
 386,83; 4900,951;  244,125;16846,250;28,04958
 387,42; 4944,383;  249,507;16948,577;28,11459
 388,01; 5003,254;  254,819;17102,084;28,18520
 388,60; 5117,944;  235,124;17268,178;28,66673
 389,19; 5200,929;  233,129;17501,568;28,76809
 389,78; 5306,772;  226,359;17678,726;29,11017
 390,37; 5498,604;  311,433;18122,707;29,12296
 390,96; 5494,822;  241,971;18184,944;29,27526
 391,56; 5622,477;  251,129;18253,601;29,83672
 392,15; 5669,497;  231,743;18501,421;29,76382
 392,74; 5738,085;  210,901;18682,579;29,92248
 393,33; 5873,164;  246,206;18928,329;30,11948
 393,92; 5991,936;  243,826;19316,299;30,13825
 394,51; 6121,676;  231,899;19480,521;30,59843
 395,10; 6217,130;  280,138;19635,383;30,67381
 395,69; 6285,738;  263,137;19766,542;30,87974
 396,28; 6349,001;  269,678;19821,217;31,09383
 396,87; 6408,351;  276,297;19937,458;31,18867
 397,46; 6511,993;  278,069;20023,477;31,57151
 398,06; 6601,028;  290,841;20210,492;31,67820
 398,65; 6601,025;  282,310;20211,051;31,70655
 399,24; 6746,628;  309,619;20402,464;32,03633
 399,83; 6730,713;  277,169;20340,226;32,16631
 400,42; 6856,415;  328,255;20560,997;32,26532
 401,01; 6871,264;  292,190;20641,873;32,33011
 401,60; 6930,269;  321,513;20678,949;32,46360
 402,19; 6941,301;  344,602;20641,510;32,50101
 402,78; 6985,445;  338,852;20613,213;32,78324
 403,37; 6959,847;  315,485;20529,885;32,86945
 403,96; 6943,879;  326,967;20384,918;32,98897
 404,55; 6999,537;  344,144;20347,433;33,27149
 405,14; 6953,316;  310,166;20218,735;33,36830
 405,73; 6994,748;  333,421;20178,585;33,56650
 406,32; 7027,294;  339,438;20154,650;33,75112
 406,91; 6935,562;  324,611;19866,927;33,82890
 407,50; 6944,773;  338,929;19721,621;34,08115
 408,09; 6871,421;  311,397;19460,606;34,25741
 408,68; 6888,458;  306,633;19344,030;34,57313
 409,27; 6877,262;  306,165;19181,040;34,81399
 409,86; 6851,793;  319,458;19099,654;34,78310
 410,45; 6885,314;  366,060;19034,327;34,92158
 411,04; 6850,009;  355,047;18942,772;34,94221
 411,63; 6789,718;  330,800;18759,861;35,04746
 412,22; 6753,669;  337,554;18649,055;35,03872
 412,81; 6715,879;  360,625;18362,441;35,30341
 413,40; 6619,311;  356,234;18048,340;35,40041
 413,99; 6616,433;  416,236;17831,555;35,60197
 414,58; 6434,445;  342,465;17567,988;35,36601
 415,17; 6380,247;  335,548;17373,903;35,47701
 415,76; 6316,688;  324,477;17144,896;35,62462
 416,35; 6266,597;  321,628;16976,996;35,69401
 416,94; 6335,011;  356,476;16937,137;36,05728
 417,53; 6389,507;  329,855;17167,945;35,98776
 418,12; 6450,443;  331,239;17215,533;36,24199
 418,71; 6624,135;  361,772;17548,188;36,43787
 419,30; 6626,100;  323,854;17690,037;36,29034
 419,89; 6706,242;  319,775;17790,546;36,55515
 420,48; 6796,671;  343,464;18010,919;36,52596
 421,07; 6841,537;  342,386;18116,313;36,56565
 421,66; 6855,100;  314,152;18093,606;36,78936
 422,25; 6859,611;  335,838;18142,382;36,63694
 422,84; 6941,028;  341,299;18160,700;37,03676
 423,43; 6824,629;  329,609;17886,718;36,99367
 424,02; 6792,033;  356,608;17737,342;37,02620
 424,60; 6624,745;  320,601;17411,167;36,88669
 425,19; 6577,155;  332,450;17129,792;37,17674
 425,78; 6524,264;  342,989;17028,026;37,04682
 426,37; 6476,740;  351,601;16867,315;37,08674
 426,96; 6442,338;  333,755;16799,931;37,09777
 427,55; 6456,070;  320,905;16661,577;37,54537
 428,14; 6378,683;  316,057;16449,245;37,57860
 428,73; 6378,604;  318,214;16369,411;37,75662
 429,32; 6380,847;  338,217;16320,889;37,80738
 429,91; 6364,274;  341,060;16369,798;37,57759
 430,50; 6353,753;  347,981;16137,160;38,03727
 431,08; 6274,740;  349,287;16017,676;37,81789
 431,67; 6328,902;  386,208;15979,767;38,10993
 432,26; 6263,775;  400,591;15853,204;37,94300
 432,85; 6194,996;  429,130;15592,354;38,02533
 433,44; 6091,420;  439,050;15364,413;37,87091
 434,03; 5980,118;  458,200;14998,865;37,97569
 434,62; 5821,797;  409,588;14610,684;38,11121
 435,21; 5767,969;  417,745;14402,049;38,25878
 435,79; 5747,706;  420,278;14308,624;38,35898
 436,38; 5709,991;  404,967;14228,421;38,37698
 436,97; 5667,311;  412,274;14135,694;38,29247
 437,56; 5612,254;  402,346;13922,198;38,53525
 438,15; 5576,582;  382,193;13861,187;38,53692
 438,74; 5595,254;  421,269;13872,037;38,46609
 439,33; 5567,619;  387,886;13874,993;38,40507
 439,91; 5599,100;  352,037;13906,896;38,70983
 440,50; 5628,676;  396,037;13936,821;38,64354
 441,09; 5682,212;  393,495;14099,999;38,58545
 441,68; 5671,651;  365,184;14044,600;38,79162
 442,27; 5692,515;  354,801;14012,552;39,08194
 442,86; 5675,869;  337,717;14054,835;38,91599
 443,44; 5714,842;  351,872;14048,363;39,15580
 444,03; 5819,557;  435,948;14172,528;39,19177
 444,62; 5686,157;  348,332;14033,720;39,00383
 445,21; 5664,495;  369,179;13903,483;39,12514
 445,80; 5706,683;  412,406;13780,397;39,60413
 446,39; 5643,676;  453,868;13664,584;39,28483
 446,97; 5481,385;  351,710;13414,540;39,26925
 447,56; 5423,780;  367,476;13310,333;39,06636
 448,15; 5414,465;  370,634;13068,578;39,72164
 448,74; 5349,435;  382,479;12892,158;39,70490
 449,33; 5268,616;  369,015;12755,406;39,55633
 449,91; 5218,515;  367,242;12602,550;39,64978
 450,50; 5150,018;  367,243;12393,082;39,77082
 451,09; 5148,725;  383,935;12337,547;39,86067
 451,68; 5098,579;  391,857;12262,290;39,65081
 452,26; 5067,629;  397,470;12157,571;39,71189
 452,85; 5030,495;  379,010;12043,294;39,87801
 453,44; 5012,842;  381,928;12083,332;39,57571
 454,03; 4984,222;  359,239;12007,425;39,70561
 454,61; 4980,983;  367,081;12032,681;39,55135
 455,20; 5094,063;  384,387;12156,194;40,00810
 455,79; 5081,599;  396,775;12106,479;40,00805
 456,38; 5137,629;  396,462;12250,868;39,99498
 456,97; 5115,673;  396,463;12316,516;39,59052
 457,55; 5159,460;  390,845;12304,032;40,02804
 458,14; 5191,743;  412,463;12335,087;40,08580
 458,73; 5152,601;  392,691;12223,457;40,23332
 459,31; 5177,356;  426,534;12280,096;40,07928
 459,90; 5222,753;  452,151;12332,852;40,15421
 460,49; 5307,678;  509,613;12401,730;40,34660
 461,08; 5271,256;  408,686;12437,299;40,42503
 461,66; 5261,207;  402,073;12567,249;39,94298
 462,25; 5323,085;  403,454;12588,117;40,37560
 462,84; 5379,167;  421,609;12620,187;40,64046
 463,43; 5282,182;  370,220;12623,412;40,08720
 464,01; 5345,500;  405,757;12604,885;40,49259
 464,60; 5349,346;  464,529;12571,250;40,34798
 465,19; 5210,361;  388,756;12424,545;40,06056
 465,77; 5236,103;  412,678;12357,058;40,38238
 466,36; 5266,889;  434,912;12289,374;40,76083
 466,95; 5116,921;  414,297;11978,223;40,66633
 467,53; 5002,837;  422,137;11800,226;40,25896
 468,12; 4932,636;  447,752;11551,114;40,39213
 468,71; 4847,840;  416,679;11336,125;40,58045
 469,29; 4754,467;  400,367;11156,963;40,47842
 469,88; 4689,666;  411,212;10905,358;40,76991
 470,47; 4762,244;  467,978;10985,802;40,82846
 471,06; 4722,869;  424,055;10981,688;40,71759
 471,64; 4760,775;  434,748;11044,220;40,77514
 472,23; 4754,130;  408,512;11059,378;40,80060
 472,81; 4789,532;  387,130;11144,820;40,92330
 473,40; 4837,326;  404,358;11217,533;40,99599
 473,99; 5049,971;  526,358;11501,918;41,21533
 474,57; 4976,470;  409,050;11461,339;41,32555
 475,16; 5005,234;  438,360;11615,363;40,85956
 475,75; 5123,718;  463,433;11776,086;41,19533
 476,33; 5100,331;  448,354;11858,873;40,76920
 476,92; 5145,016;  454,665;11859,229;41,12696
 477,51; 5173,643;  440,201;11910,096;41,26840
 478,09; 5192,318;  442,124;11997,173;41,10925
 478,68; 5162,410;  449,738;11893,834;41,17994
 479,27; 5210,328;  494,740;11953,318;41,15334
 479,85; 5146,954;  450,508;11934,602;40,89522
 480,44; 5174,576;  427,507;11975,918;41,10583
 481,02; 5592,785;  460,120;12981,625;40,99080
 481,61; 6331,569;  469,352;14708,811;41,16882
 482,20; 6744,475;  455,043;15763,510;41,08466
 482,78; 7100,053;  489,969;16530,068;41,20975
 483,37; 7295,800;  464,886;17014,725;41,27480
 483,95; 7418,810;  508,963;17232,883;41,31715
 484,54; 7458,504;  502,968;17411,462;41,13635
 485,13; 7454,507;  467,037;17426,056;41,20209
 485,71; 7331,031;  455,115;17141,241;41,20738
 486,30; 7298,244;  486,269;16955,550;41,36170
 486,88; 7215,251;  554,653;16693,670;41,27016
 487,47; 6924,874;  499,190;16195,867;40,93659
 488,05; 6658,743;  506,497;15427,606;41,23182
 488,64; 6197,539;  474,341;14376,701;41,16710
 489,23; 5625,921;  500,573;12963,572;41,12452
 489,81; 4836,497;  502,803;11066,539;41,02425
 490,40; 4504,849;  458,649;10354,466;40,88799
 490,98; 4421,507;  436,725;10124,396;41,13250
 491,57; 4374,095;  462,496;10027,959;40,89294
 492,15; 4311,539;  447,802; 9917,861;40,79951
 492,74; 4315,504;  448,881; 9902,800;40,89968
 493,32; 4302,068;  469,802; 9814,395;41,01051
 493,91; 4212,591;  449,570; 9728,293;40,55538
 494,50; 4222,234;  446,258; 9679,862;40,89385
 495,08; 4191,949;  428,643; 9633,014;40,88607
 495,67; 4185,988;  472,185; 9578,252;40,78383
 496,25; 4126,107;  398,491; 9489,384;41,00385
 496,84; 4091,641;  416,109; 9512,673;40,40572
 497,42; 4075,495;  399,952; 9464,352;40,54921
 498,01; 4102,346;  437,108; 9453,793;40,64950
 498,59; 3979,174;  386,490; 9371,547;39,98511
 499,18; 4000,167;  393,339; 9287,218;40,55405
 499,76; 3992,566;  424,568; 9245,423;40,44958
 500,35; 3888,629;  415,949; 9113,908;39,92522
 500,93; 3873,869;  393,029; 9072,928;40,10232
 501,52; 3855,638;  386,490; 8958,662;40,46989
 502,10; 3861,971;  404,794; 8950,689;40,45424
 502,69; 3766,614;  387,254; 8864,315;39,86475
 503,27; 3681,013;  368,489; 8650,440;39,99691
 503,86; 3675,204;  392,639; 8591,426;40,03720
 504,44; 3627,633;  358,484; 8498,052;40,16367
 505,03; 3510,418;  357,792; 8276,629;39,81173
 505,61; 3509,576;  375,715; 8182,201;40,14432
 506,19; 3455,591;  381,484; 8061,205;40,02889
 506,78; 3389,162;  365,789; 7854,997;40,36973
 507,36; 3312,641;  375,869; 7714,319;40,01897
 507,95; 3248,408;  371,018; 7640,545;39,58152
 508,53; 3214,227;  369,097; 7535,150;39,70289
 509,12; 3180,455;  366,249; 7394,503;40,04132
 509,70; 3119,122;  391,172; 7298,662;39,49264
 510,29; 3069,209;  393,478; 7191,135;39,36255
 510,87; 3007,197;  349,866; 7022,534;39,82411
 511,46; 2942,174;  339,788; 6880,962;39,78470
 512,04; 2861,135;  357,094; 6728,628;39,30043
 512,62; 2823,696;  375,481; 6677,963;38,84525
 513,21; 2753,911;  341,786; 6516,175;39,06663
 513,79; 2727,212;  355,704; 6406,863;39,19096
 514,38; 2661,698;  327,167; 6279,236;39,22217
 514,96; 2656,708;  379,629; 6209,849;39,05648
 515,54; 2559,534;  333,782; 6073,357;38,77905
 516,13; 2550,030;  344,012; 5991,474;39,06211
 516,71; 2484,579;  344,472; 5877,527;38,67857
 517,30; 2450,182;  326,778; 5807,386;38,74395
 517,88; 2425,202;  352,086; 5754,270;38,37551
 518,46; 2357,480;  322,162; 5637,507;38,29136
 519,05; 2344,341;  340,238; 5601,825;38,08933
 519,63; 2322,457;  335,546; 5536,935;38,19963
 520,22; 2345,204;  356,928; 5499,494;38,66311
 520,80; 2280,872;  339,543; 5416,535;38,23777
 521,38; 2304,455;  398,699; 5437,134;37,82436
 521,97; 2245,656;  341,311; 5372,006;37,85451
 522,55; 2239,534;  346,926; 5348,352;37,84137
 523,13; 2221,251;  335,771; 5293,668;38,02984
 523,72; 2206,653;  339,777; 5276,160;37,81871
 524,30; 2265,470;  356,001; 5388,254;37,94461
 524,89; 2239,092;  317,157; 5357,816;38,12866
 525,47; 2256,772;  350,846; 5516,835;36,89373
 526,05; 2261,053;  305,692; 5526,607;37,45245
 526,64; 2314,455;  351,230; 5612,998;37,31113
 527,22; 2365,621;  350,616; 5719,181;37,53340
 527,80; 2391,815;  389,845; 5811,920;36,92257
 528,39; 2368,561;  325,460; 5872,543;36,83200
 528,97; 2415,028;  325,153; 5978,577;36,96654
 529,55; 2464,666;  335,771; 6130,053;36,74130
 530,14; 2569,735;  367,767; 6293,126;37,16177
 530,72; 2548,318;  329,306; 6366,578;36,75521
 531,30; 2591,249;  312,459; 6511,320;36,76143
 531,89; 2652,065;  330,228; 6552,628;37,31418
 532,47; 2663,117;  364,843; 6681,402;36,38491
 533,05; 2682,524;  360,153; 6677,919;36,75937
 533,63; 2670,442;  348,535; 6755,674;36,23938
 534,22; 2659,949;  324,996; 6714,482;36,54367
 534,80; 2719,802;  354,071; 6853,036;36,40166
 535,38; 2815,576;  462,151; 6950,707;36,27040
 535,97; 2687,591;  321,073; 6847,326;36,26151
 536,55; 2732,869;  397,686; 6924,884;35,77619
 537,13; 2667,301;  368,767; 6919,242;35,08958
 537,71; 2730,095;  400,767; 6942,048;35,60966
 538,30; 2750,785;  402,765; 7012,295;35,52476
 538,88; 2797,986;  439,069; 7128,972;35,26085
 539,46; 2862,757;  495,610; 7286,458;34,85791
 540,05; 2868,348;  485,762; 7347,659;34,72197
 540,63; 2947,145;  508,762; 7543,852;34,66029
 541,21; 3006,425;  526,684; 7667,785;34,72491
 541,79; 3029,472;  549,299; 7780,092;34,30015
 542,38; 3077,065;  581,916; 7875,773;34,20891
 542,96; 3107,338;  584,144; 7980,066;34,11602
 543,54; 3172,542;  604,607; 8164,629;33,96729
 544,12; 3203,090;  565,453; 8291,941;34,13759
 544,70; 3192,286;  562,605; 8385,298;33,61606
 545,29; 3230,601;  566,147; 8512,273;33,53148
 545,87; 3207,549;  578,146; 8531,707;33,05945
 546,45; 3183,316;  536,609; 8530,426;33,10943
 547,03; 3199,249;  516,762; 8591,549;33,22053
 547,62; 3186,787;  498,376; 8632,401;33,05142
 548,20; 3228,916;  516,221; 8840,064;32,58946
 548,78; 3230,467;  477,294; 8880,825;32,76210
 549,36; 3260,512;  465,448; 9026,130;32,65001
 549,94; 3248,276;  428,145; 9142,098;32,36340
 550,53; 3278,197;  439,218; 9317,086;31,97816
 551,11; 3308,055;  414,601; 9443,100;32,04801
 551,69; 3379,931;  430,756; 9739,513;31,68173
 552,27; 3395,874;  374,681; 9858,810;31,85525
 552,85; 3482,611;  388,216;10164,715;31,65136
 553,44; 3554,241;  395,525;10360,705;31,69753
 554,02; 3631,172;  403,986;10624,518;31,57552
 554,60; 3628,092;  352,755;10879,871;31,11334
 555,18; 3761,713;  388,064;11148,668;31,35186
 555,76; 3821,494;  378,832;11421,403;31,17627
 556,34; 3917,070;  380,215;11755,460;31,09257
 556,93; 3963,400;  373,217;12065,669;30,70513
 557,51; 4031,083;  341,676;12319,922;30,80089
 558,09; 4140,894;  375,679;12629,092;30,72789
 558,67; 4216,931;  361,136;12942,700;30,64639
 559,25; 4282,003;  382,599;13158,233;30,52220
 559,83; 4303,373;  356,905;13401,977;30,25256
 560,41; 4384,688;  347,907;13674,225;30,29179
 561,00; 4475,115;  369,906;13965,624;30,19487
 561,58; 4496,385;  352,985;14149,608;30,03199
 562,16; 4538,638;  341,216;14381,370;29,89584
 562,74; 4585,986;  325,448;14690,480;29,65909
 563,32; 4696,083;  324,674;15052,900;29,68048
 563,90; 4757,485;  347,444;15327,277;29,43985
 564,48; 4837,229;  363,677;15664,760;29,23683
 565,06; 4963,217;  342,675;16147,122;29,23571
 565,65; 5086,844;  355,134;16690,722;28,96566
 566,23; 5279,929;  405,059;17315,816;28,82703
 566,81; 5366,713;  340,368;17892,079;28,63735
 567,39; 5579,710;  348,058;18582,558;28,69096
 567,97; 5706,777;  385,752;19137,351;28,37638
 568,55; 5919,579;  409,597;19795,822;28,42215
 569,13; 5988,556;  357,598;20353,817;28,16012
 569,71; 6146,348;  324,832;21192,523;27,89727
 570,29; 6425,941;  404,218;22011,707;27,86869
 570,87; 6534,331;  383,448;22564,174;27,73076
 571,45; 6626,043;  367,137;23067,776;27,57150
 572,03; 6697,388;  315,211;23468,330;27,56508
 572,61; 6778,966;  319,828;24101,783;27,15983
 573,20; 6942,586;  353,368;24631,384;27,14068
 573,78; 7067,713;  330,674;25093,400;27,20637
 574,36; 7184,239;  352,674;25566,896;27,09409
 574,94; 7273,450;  417,134;25892,718;26,91328
 575,52; 7257,760;  325,209;26073,775;26,92403
 576,10; 7377,226;  389,979;26511,306;26,74921
 576,68; 7436,420;  359,288;27011,137;26,55400
 577,26; 7583,815;  381,900;27596,784;26,46315
 577,84; 7661,586;  387,059;28050,013;26,29700
 578,42; 7734,641;  442,595;28272,915;26,20180
 579,00; 7686,343;  368,751;28402,900;26,10242
 579,58; 7773,601;  418,596;28528,295;26,16537
 580,16; 7706,197;  363,825;28536,803;26,06175
 580,74; 7706,790;  365,287;28735,573;25,87744
 581,32; 7681,775;  360,441;28727,990;25,80883
 581,90; 7610,891;  396,441;28727,533;25,46478
 582,48; 7588,058;  376,287;28789,380;25,38186
 583,06; 7617,782;  358,903;28904,719;25,42887
 583,64; 7587,805;  358,288;28896,794;25,33250
 584,22; 7515,973;  383,208;28848,125;25,05809
 584,80; 7449,422;  382,672;28643,531;25,00543
 585,38; 7320,090;  389,292;28189,805;24,93047
 585,96; 7262,976;  343,289;28262,787;24,78442
 586,54; 7247,497;  374,362;28201,276;24,69959
 587,12; 7197,606;  352,056;28306,538;24,48820
 587,70; 7241,415;  385,289;28397,943;24,47510
 588,28; 7202,623;  344,825;28413,307;24,43238
 588,86; 7196,020;  364,670;28510,119;24,27160
 589,44; 7136,296;  328,591;28561,562;24,11261
 590,02; 7138,874;  341,899;28762,210;23,91591
 590,59; 7110,499;  325,209;28738,852;23,88040
 591,17; 7119,571;  348,050;28948,390;23,67637
 591,75; 7121,844;  323,282;28960,993;23,73989
 592,33; 7129,594;  352,283;29278,410;23,42972
 592,91; 7120,410;  294,281;29389,885;23,46103
 593,49; 7115,673;  314,203;29615,740;23,21199
 594,07; 7171,291;  330,742;29880,086;23,14958
 594,65; 7142,596;  350,439;29820,624;23,04756
 595,23; 7151,770;  336,669;30113,248;22,88746
 595,81; 7181,378;  331,976;30218,176;22,91828
 596,39; 7111,480;  325,975;30360,793;22,59213
 596,97; 7097,226;  311,666;30557,269;22,43487
 597,55; 7112,896;  312,515;30399,859;22,60213
 598,12; 7066,589;  294,202;30422,591;22,47842
 598,70; 7028,978;  295,281;30555,773;22,25244
 599,28; 7086,408;  332,127;30678,273;22,25746
 599,86; 7070,906;  313,050;30722,849;22,22263
 600,44; 6994,882;  272,434;30806,315;22,01635
 601,02; 7045,326;  346,123;30836,916;21,97123
 601,60; 6983,150;  319,205;30796,416;21,86534
 602,18; 6955,025;  282,664;30779,590;21,87880
 602,75; 6898,862;  288,899;30865,636;21,61762
 603,33; 6922,053;  306,819;30873,889;21,64170
 603,91; 6832,874;  283,278;30885,369;21,40245
 604,49; 6860,494;  307,665;30881,390;21,43288
 605,07; 6848,554;  317,359;30994,608;21,29003
 605,65; 6806,656;  315,588;31052,279;21,11830
 606,23; 6788,018;  345,978;31160,773;20,90567
 606,80; 6772,293;  355,514;31216,713;20,79238
 607,38; 6773,904;  363,663;31197,250;20,78980
 607,96; 6777,373;  390,130;31345,905;20,63345
 608,54; 6780,703;  435,818;31378,740;20,50512
 609,12; 6756,800;  427,668;31435,059;20,41169
 609,70; 6766,480;  435,281;31411,463;20,43892
 610,27; 6733,182;  419,745;31498,749;20,31415
 610,85; 6731,869;  459,897;31566,539;20,16281
 611,43; 6676,502;  442,050;31444,196;20,10974
 612,01; 6605,025;  406,052;31433,067;19,97928
 612,59; 6566,234;  413,435;31332,348;19,89979
 613,16; 6526,311;  400,208;31300,741;19,82523
 613,74; 6456,174;  383,358;31201,927;19,70506
 614,32; 6458,437;  381,049;31156,741;19,74737
 614,90; 6363,738;  373,743;31048,957;19,52715
 615,48; 6273,065;  347,208;30851,821;19,42610
 616,05; 6228,983;  319,901;30803,662;19,38436
 616,63; 6162,901;  341,363;30677,425;19,19016
 617,21; 6115,167;  331,515;30568,403;19,12780
 617,79; 6060,924;  319,129;30588,485;18,96900
 618,36; 6042,909;  331,975;30408,377;18,98809
 618,94; 5937,395;  265,207;30145,323;18,98315
 619,52; 5906,445;  307,055;29994,081;18,86140
 620,10; 5887,720;  275,591;29947,944;18,91366
 620,67; 5859,023;  293,517;29842,233;18,83502
 621,25; 5794,519;  309,513;29745,916;18,63341
 621,83; 5732,718;  283,515;29690,669;18,53019
 622,41; 5734,646;  350,977;29726,591;18,32700
 622,98; 5656,981;  314,671;29382,386;18,37884
 623,56; 5614,946;  318,671;29483,345;18,15990
 624,14; 5574,355;  296,281;29283,806;18,20809
 624,72; 5497,274;  303,669;29263,515;17,93381
 625,29; 5515,606;  287,056;29333,230;18,00082
 625,87; 5514,107;  335,052;29264,793;17,90218
 626,45; 5406,653;  284,056;29152,342;17,74472
 627,02; 5392,224;  293,744;29046,679;17,73203
 627,60; 5364,961;  267,511;29045,507;17,71301
 628,18; 5322,723;  262,899;29089,675;17,55251
 628,76; 5298,189;  258,055;29139,542;17,45109
 629,33; 5321,125;  307,285;29056,934;17,43966
 629,91; 5300,182;  277,514;29023,175;17,47279
 630,49; 5287,678;  304,593;29225,084;17,23029
 631,06; 5276,797;  287,055;29224,120;17,24343
 631,64; 5257,708;  289,210;29211,113;17,17902
 632,22; 5195,944;  264,826;29152,413;17,07002
 632,79; 5263,065;  292,057;29366,452;17,09755
 633,37; 5241,346;  265,667;29387,606;17,08567
 633,95; 5229,703;  284,595;29426,765;16,96891
 634,52; 5203,738;  274,054;29646,937;16,78311
 635,10; 5200,760;  286,976;29565,404;16,78295
 635,68; 5265,266;  287,134;29761,836;16,88951
 636,25; 5222,596;  263,904;29705,248;16,84261
 636,83; 5210,574;  253,901;29912,080;16,71267
 637,41; 5243,281;  273,596;29828,910;16,81486
 637,98; 5225,718;  306,673;30037,063;16,54551
 638,56; 5239,137;  279,366;30170,244;16,59292
 639,13; 5199,231;  257,902;30144,270;16,53372
 639,71; 5268,256;  341,593;30305,928;16,44176
 640,29; 5121,267;  232,439;30073,417;16,38293
 640,86; 5193,969;  261,132;30333,564;16,40319
 641,44; 5147,594;  266,747;30277,866;16,26346
 642,02; 5174,142;  290,055;30228,706;16,31365
 642,59; 5144,075;  250,901;30405,468;16,22697
 643,17; 5141,084;  257,439;30435,231;16,18291
 643,74; 5129,325;  254,670;30417,994;16,16087
 644,32; 5107,642;  278,593;30401,988;16,03089
 644,89; 5110,037;  278,208;30386,520;16,04816
 645,47; 5092,046;  288,823;30405,052;15,94895
 646,05; 5087,671;  281,823;30394,892;15,95934
 646,62; 5011,527;  263,746;30275,962;15,81949
 647,20; 5062,229;  269,823;30494,802;15,85578
 647,77; 5017,623;  241,131;30418,719;15,82795
 648,35; 4978,479;  231,438;30305,712;15,78439
 648,92; 4981,028;  264,130;30254,168;15,72821
 649,50; 4913,345;  237,207;30278,930;15,56548
 650,08; 4931,816;  230,284;30135,001;15,72171
 650,65; 4954,672;  252,284;30321,841;15,63837
 651,23; 5007,143;  218,515;30809,373;15,65379
 651,80; 5110,384;  227,207;31718,213;15,50658
 652,38; 5196,393;  250,130;32069,668;15,54474
 652,95; 5197,634;  231,515;32456,431;15,41081
 653,53; 5236,336;  245,514;32679,040;15,38785
 654,10; 5276,653;  283,899;32812,418;15,34885
 654,68; 5212,509;  231,745;32669,335;15,35491
 655,25; 5225,211;  224,822;32728,790;15,38393
 655,83; 5237,144;  231,437;32816,630;15,36191
 656,40; 5253,692;  273,360;32820,469;15,30192
 656,98; 5196,625;  241,206;32834,232;15,20392
 657,55; 5194,096;  243,052;32723,995;15,24292
 658,13; 5131,798;  241,821;32366,143;15,22204
 658,70; 5048,269;  268,129;32158,367;14,98935
 659,28; 4970,741;  240,129;31474,361;15,14560
 659,85; 4873,520;  274,667;30820,585;15,05554
 660,43; 4898,914;  259,744;30682,117;15,24920
 661,00; 4828,462;  252,590;30825,957;14,96686
 661,58; 4874,087;  236,898;31013,335;15,06734
 662,15; 4892,943;  235,744;31192,098;15,04440
 662,73; 4989,414;  308,821;31424,015;15,04279
 663,30; 4935,962;  241,975;31621,701;14,95866
 663,88; 4905,587;  249,898;31646,540;14,82862
 664,45; 4947,366;  241,667;31939,842;14,84533
 665,03; 4997,222;  231,820;32257,758;14,87982
 665,60; 5120,847;  341,743;32606,598;14,81210
 666,17; 5025,472;  246,897;32631,207;14,75583
 666,75; 5066,328;  243,282;32926,739;14,75684
 667,32; 5152,107;  266,359;33298,194;14,79103
 667,90; 5144,040;  257,589;33444,803;14,72390
 668,47; 5186,819;  274,743;33657,797;14,71428
 669,05; 5224,059;  239,435;33942,791;14,78970
 669,62; 5209,454;  224,666;33967,169;14,77302
 670,19; 5213,386;  222,974;34069,778;14,74412
 670,77; 5229,088;  253,666;34231,233;14,64326
 671,34; 5255,944;  242,281;34088,534;14,81305
 671,92; 5283,185;  229,973;34483,913;14,75221
 672,49; 5334,502;  259,281;34460,368;14,83936
 673,06; 5283,204;  209,435;34466,515;14,81086
 673,64; 5304,522;  226,281;34473,509;14,82818
 674,21; 5278,531;  212,204;34427,349;14,80727
 674,79; 5363,926;  258,742;34672,035;14,83492
 675,36; 5403,705;  255,127;34711,567;14,94228
 675,93; 5329,483;  207,204;34592,407;14,89676
 676,51; 5400,647;  247,511;34809,169;14,90998
 677,08; 5402,964;  243,280;34850,932;14,90908
 677,65; 5428,820;  246,434;34861,234;14,97159
 678,23; 5462,907;  245,665;35089,458;14,97323
 678,80; 5470,147;  230,434;35136,375;15,01095
 679,38; 5481,542;  233,588;35252,830;14,98592
 679,95; 5549,936;  249,357;35525,054;15,02615
 680,52; 5531,023;  234,203;35772,356;14,90460
 681,10; 5653,955;  258,818;36171,888;15,02277
 681,67; 5675,504;  251,357;36259,035;15,06386
 682,24; 5664,744;  206,280;36386,260;15,08697
 682,82; 5717,677;  237,741;36745,792;15,01021
 683,39; 5854,994;  283,433;37066,016;15,14728
 683,96; 5855,465;  247,895;37278,856;15,14293
 684,54; 5847,629;  213,895;37639,850;15,05301
 685,11; 5977,023;  290,356;37925,074;15,11016
 685,68; 5985,110;  238,664;38169,837;15,14967
 686,25; 5957,273;  221,356;38295,369;15,06518
 686,83; 5987,283;  231,664;38387,593;15,08447
 687,40; 6018,062;  218,971;38711,741;15,06540
 687,97; 6148,764;  273,279;39111,427;15,12813
 688,55; 6147,543;  216,971;39122,190;15,24364
 689,12; 6166,476;  213,663;39254,952;15,24748
 689,69; 6223,409;  213,509;39285,254;15,38170
 690,26; 6217,418;  227,355;39464,632;15,26626
 690,84; 6255,659;  218,586;39549,241;15,34954
 691,41; 6326,668;  244,048;39679,081;15,42441
 691,98; 6374,447;  241,124;40035,767;15,41243
 692,56; 6344,380;  221,817;39923,683;15,42135
 693,13; 6450,621;  276,047;40073,985;15,51481
 693,70; 6468,246;  250,739;40198,978;15,56391
 694,27; 6425,794;  221,970;40273,972;15,48942
 694,84; 6500,957;  227,739;40409,196;15,61222
 695,42; 6634,890;  363,047;40562,498;15,60181
 695,99; 6561,823;  238,201;40668,261;15,64089
 696,56; 6598,987;  229,278;40425,177;15,84666
 697,13; 6688,150;  250,893;40928,094;15,82522
 697,71; 6696,467;  237,354;40919,011;15,87721
 698,28; 6735,862;  233,970;41056,697;15,92714
 698,85; 6690,564;  206,970;41095,767;15,85665
 699,42; 6752,650;  210,354;41349,915;15,90269
 699,99; 6850,045;  255,816;41336,447;16,05192
 700,57; 6865,285;  249,123;41415,440;16,07179
 701,14; 6880,756;  224,969;41550,203;16,10587
 701,71; 6945,920;  251,892;41730,889;16,13836
 702,28; 6970,545;  223,277;41843,883;16,21137
 702,85; 7002,632;  231,584;41842,876;16,27214
 703,43; 7061,564;  252,430;42044,947;16,29271
 704,00; 7111,728;  264,353;42261,787;16,30427
 704,57; 7114,661;  232,969;42225,319;16,38797
 705,14; 7172,286;  260,122;42461,928;16,37883
 705,71; 7216,065;  269,507;42584,152;16,41644
 706,28; 7144,305;  240,353;42407,146;16,37296
 706,86; 7261,084;  267,199;42609,524;16,51748
 707,43; 7313,786;  291,507;42608,672;16,59440
 708,00; 7345,873;  272,430;42597,050;16,71236
 708,57; 7328,421;  234,353;42547,890;16,76548
 709,14; 7325,585;  253,045;42677,652;16,67084
 709,71; 7350,748;  234,583;42723,492;16,74829
 710,28; 7468,373;  249,891;42956,101;16,90265
 710,86; 7476,998;  242,199;43044,941;16,90265
 711,43; 7583,393;  281,122;43032,704;17,08070
 712,00; 7575,864;  244,814;43090,159;17,11049
 712,57; 7658,566;  273,968;43237,537;17,18805
 713,14; 7675,345;  250,737;43336,454;17,23218
 713,71; 7701,739;  267,814;43246,371;17,29682
 714,28; 7678,518;  249,583;43236,134;17,28200
 714,85; 7641,066;  233,813;43089,127;17,28433
 715,42; 7773,768;  242,736;43212,505;17,52635
 716,00; 7862,855;  330,044;43356,730;17,50730
 716,57; 7846,788;  245,505;43522,647;17,56420
 717,14; 7876,028;  235,352;43316,486;17,73555
 717,71; 7873,269;  216,275;43472,172;17,70162
 718,28; 7941,278;  284,967;43603,320;17,67452
 718,85; 7929,596;  212,121;43541,621;17,81113
 719,42; 8042,990;  246,736;43593,461;17,98580
 719,99; 8050,307;  228,890;43414,147;18,11131
 720,56; 8129,163;  266,813;43777,140;18,07008
 721,13; 8156,711;  221,889;43855,211;18,18523
 721,70; 8134,798;  232,889;43612,358;18,21578
 722,27; 8229,654;  257,812;43730,814;18,33745
 722,84; 8348,971;  316,120;43911,577;18,42589
 723,41; 8294,519;  223,120;43891,032;18,48359
 723,98; 8323,375;  233,427;43995,487;18,48621
 724,55; 8411,231;  260,274;44173,942;18,56132
 725,12; 8411,395;  200,504;44037,474;18,73052
 725,69; 8508,327;  243,581;44181,468;18,81007
 726,27; 8555,260;  226,658;44316,308;18,89015
 726,84; 8666,501;  245,735;44467,840;19,04198
 727,41; 8719,895;  256,889;44551,833;19,10603
 727,98; 8754,905;  257,042;44802,596;19,07679
 728,55; 8839,761;  297,196;44755,128;19,21494
 729,12; 8872,309;  226,119;44790,891;19,40140
 729,69; 8930,011;  263,811;44922,500;19,40541
 730,26; 8965,328;  254,350;45143,724;19,40544
 730,82; 8944,415;  253,888;45098,103;19,37937
 731,39; 9027,271;  245,965;45088,019;19,58275
 731,96; 9126,742;  222,888;45360,090;19,72620
 732,53; 9197,367;  252,195;45507,699;19,76593
 733,10; 9309,992;  263,426;45678,770;19,91962
 733,67; 9317,156;  250,041;45739,840;19,93219
 734,24; 9274,319;  237,195;45466,218;19,98081
 734,81; 9367,021;  282,195;45622,827;20,03683
 735,38; 9354,415;  258,041;45525,744;20,09462
 735,95; 9381,194;  263,272;45320,276;20,23642
 736,52; 9401,281;  247,426;45478,501;20,23798
 737,09; 9358,060;  268,426;45200,725;20,22962
 737,66; 9539,070;  318,887;45480,103;20,41615
 738,23; 9545,387;  257,349;45489,405;20,53419
 738,80; 9655,935;  338,964;45834,783;20,47874
 739,37; 9724,637;  289,348;45843,315;20,71233
 739,94; 9732,262;  258,810;45876,616;20,76701
 740,51; 9948,272;  420,348;46032,610;20,88895
 741,07; 9773,666;  262,348;46013,988;20,78902
 741,64; 9987,214;  285,502;46088,443;21,18142
 742,21;10022,301;  268,117;46098,437;21,28326
 742,78; 9982,234;  239,579;45969,200;21,30491
 743,35;10082,244;  265,886;46198,963;21,37100
 743,92;10206,253;  326,117;46355,341;21,46492
 744,49;10233,417;  314,348;46251,334;21,59277
 745,06;10257,811;  260,886;46256,482;21,73453
 745,63;10301,205;  242,655;46212,937;21,88055
 746,19;10422,369;  266,040;46279,700;22,07242
 746,76;10420,840;  269,270;46202,540;22,10069
 747,33;10535,311;  272,578;46311,072;22,29164
 747,90;10608,090;  277,501;46478,065;22,36031
 748,47;10591,177;  275,116;46369,367;22,38036
 749,04;10659,879;  277,501;46429,822;22,49590
 749,61;10737,350;  314,501;46430,123;22,60156
 750,17;10785,360;  287,885;46419,040;22,75572
 750,74;10815,985;  287,577;46394,187;22,83492
 751,31;10805,226;  247,424;46338,335;22,90647
 751,88;10809,158;  245,962;46223,559;22,97466
 752,45;10941,476;  260,500;46379,168;23,15977
 753,02;10922,562;  281,039;46202,623;23,17325
 753,58;10950,111;  258,192;46049,848;23,34905
 754,15;11029,043;  261,115;46249,380;23,41451
 754,72;11022,361;  250,346;46024,835;23,53279
 755,29;11026,063;  258,115;45829,060;23,62898
 755,86;11096,611;  278,192;45989,361;23,66690
 756,42;11187,313;  281,038;45922,278;23,89566
 756,99;11189,553;  234,115;45845,271;24,01921
 757,56;11194,948;  241,577;45842,726;24,01995
 758,13;11244,265;  194,653;45746,258;24,25735
 758,70;11361,582;  244,576;45813,406;24,39608
 759,26;11342,054;  227,269;45909,323;24,33075
 759,83;11430,910;  244,345;45917,470;24,49266
 760,40;11481,842;  217,115;45844,541;24,68850
 760,97;11480,237;  213,653;45946,611;24,63559
 761,53;11526,400;  201,191;45538,297;24,98000
 762,10;11528,718;  200,191;45633,829;24,93423
 762,67;11631,573;  229,345;45480,900;25,19743
 763,24;11523,429;  178,960;45142,740;25,23024
 763,80;11650,516;  220,576;45303,426;25,35319
 764,37;11661,603;  223,422;45338,419;25,35339
 764,94;11622,305;  217,345;44805,413;25,57850
 765,50;11655,930;  217,114;44845,868;25,63104
 766,07;11804,862;  254,191;44927,939;25,85561
 766,64;11795,564;  233,191;44698,548;26,00311
 767,21;11752,651;  241,114;44582,926;25,96091
 767,77;11885,507;  244,190;44542,304;26,27949
 768,34;11923,670;  257,498;44448,682;26,39932
 768,91;11904,680;  266,190;44302,984;26,42901
 769,47;12015,305;  256,575;44390,746;26,64314
 770,04;11953,469;  263,652;44253,663;26,57380
 770,61;11948,940;  234,959;43964,349;26,78743
 771,18;11967,950;  240,267;43998,112;26,80133
 771,74;12070,806;  255,498;44062,490;26,97128
 772,31;12072,584;  271,344;43868,561;27,06879
 772,88;12094,748;  235,882;43699,785;27,28440
 773,44;12071,065;  234,343;43574,317;27,31133
 774,01;12112,921;  275,574;43676,695;27,27429
 774,58;12083,162;  235,805;43413,381;27,43868
 775,14;12138,787;  238,420;43453,375;27,53761
 775,71;12159,950;  234,035;43417,446;27,61689
 776,27;12190,345;  313,882;43282,978;27,63955
 776,84;12301,277;  366,805;43421,894;27,71908
 777,41;12282,672;  264,958;43214,965;27,98070
 777,97;12220,374;  250,497;42939,420;28,03977
 778,54;12256,768;  260,112;42996,260;28,07145
 779,11;12323,162;  288,727;42979,946;28,18949
 779,67;12335,480;  268,419;42977,324;28,25420
 780,24;12327,797;  265,189;42792,087;28,36466
 780,80;12383,807;  269,035;42735,465;28,52788
 781,37;12397,047;  285,342;42748,228;28,52304
 781,94;12413,672;  267,881;42466,222;28,78263
 782,50;12416,067;  267,342;42478,831;28,78061
 783,07;12538,000;  286,573;42588,055;28,96217
 783,63;12503,240;  257,496;42370,895;29,07802
 784,20;12530,942;  295,803;42269,658;29,14943
 784,77;12498,721;  261,111;42054,805;29,28100
 785,33;12516,423;  240,034;42003,260;29,39521
 785,90;12575,510;  256,957;41958,408;29,53987
 786,46;12636,904;  286,957;41880,325;29,69211
 787,03;12607,837;  260,341;41802,472;29,72283
 787,59;12664,308;  259,726;41700,927;29,93297
 788,16;12686,164;  274,418;41620,844;30,01891
 788,73;12632,712;  274,034;41597,453;29,90720
 789,29;12647,183;  251,110;41260,908;30,22710
 789,86;12665,808;  295,495;41199,056;30,24263
 790,42;12619,049;  271,341;40958,818;30,34769
 790,99;12649,366;  272,341;40754,966;30,57367
 791,55;12658,145;  261,879;40746,421;30,61975
 792,12;12780,078;  306,956;40708,645;30,87277
 792,68;12652,703;  277,033;40461,408;30,79722
 793,25;12606,559;  285,494;40209,171;30,86155
 793,81;12701,876;  366,571;39938,011;31,17224
 794,38;12561,194;  244,033;39787,620;31,14831
 794,94;12587,819;  261,494;39647,383;31,29630
 795,51;12602,905;  273,648;39460,069;31,46309
 796,07;12508,377;  273,879;39260,832;31,38101
 796,64;12564,540;  291,032;39409,210;31,37546
 797,20;12448,011;  286,494;38950,588;31,45429
 797,77;12405,175;  231,878;38631,659;31,70147
 798,33;12380,492;  261,417;38575,345;31,63099
 798,90;12385,271;  280,878;38519,877;31,65458
 799,46;12326,435;  255,032;38056,409;31,93376
 800,03;12364,675;  269,340;38048,556;32,01585
 800,59;12365,839;  281,416;37944,165;32,08587
 801,15;12382,310;  289,032;37662,851;32,35762
 801,72;12308,704;  270,109;37398,383;32,42433
 802,28;12299,252;  292,570;37212,685;32,52071
 802,85;12268,339;  274,493;36984,986;32,67144
 803,41;12267,503;  276,570;36836,980;32,79759
 803,98;12188,359;  262,185;36430,973;32,97366
 804,54;12178,676;  266,954;36340,582;33,02058
 805,11;12216,916;  279,262;36156,345;33,27376
 805,67;12102,234;  303,723;36007,339;33,04570
 806,23;12027,551;  280,493;35717,871;33,14878
 806,80;12094,945;  291,108;35601,403;33,42888
 807,36;12084,571;  299,339;35624,089;33,36253
 807,93;12102,580;  308,108;35394,313;33,61570
 808,49;12032,513;  271,338;35077,230;33,79076
 809,05;12015,984;  253,800;34892,993;33,95629
 809,62;12034,148;  285,877;34816,679;34,02258
 810,18;12096,542;  269,338;34789,826;34,26140
 810,74;12036,860;  239,415;34568,589;34,36565
 811,31;12026,562;  256,953;34472,121;34,39880
 811,87;12054,494;  280,184;34216,269;34,69555
 812,44;12085,966;  294,953;34357,416;34,61585
 813,00;12038,283;  222,953;34017,641;34,96209
 813,56;12079,677;  276,107;34080,173;34,91761
 814,13;12085,610;  279,030;34023,166;34,98854
 814,69;12085,697;  251,876;33879,160;35,19113
 815,25;12006,706;  227,722;33471,154;35,43252
 815,82;12011,562;  277,645;33500,147;35,31919
 816,38;12051,033;  313,568;33346,372;35,53276
 816,94;11942,351;  237,953;33033,134;35,68938
 817,51;11897,514;  235,106;32749,128;35,86886
 818,07;11903,755;  252,568;32706,814;35,90035
 818,63;11843,765;  259,183;32416,269;36,02497
 819,20;11907,620;  265,798;32452,263;36,16993
 819,76;11811,092;  237,721;32109,564;36,31221
 820,32;11875,717;  282,183;32075,173;36,46569
 820,89;11820,188;  268,337;31837,859;36,59178
 821,45;11741,044;  251,952;31549,007;36,70982
 822,01;11717,900;  270,798;31403,616;36,76860
 822,57;11713,832;  274,106;31264,225;36,91411
 823,14;11696,458;  230,798;31097,295;37,14597
 823,70;11621,467;  243,028;30937,212;37,07034
 824,26;11650,785;  249,259;30755,975;37,37382
 824,82;11668,948;  284,721;30647,661;37,49383
 825,39;11591,343;  246,105;30400,577;37,62373
 825,95;11634,583;  263,874;30414,263;37,71331
 826,51;11627,593;  267,874;30120,488;38,05268
 827,08;11620,218;  296,874;30146,327;37,93484
 827,64;11588,689;  284,643;29959,552;38,09294
 828,20;11565,083;  245,182;29785,007;38,32081
 828,76;11596,708;  290,259;29812,385;38,29822
 829,32;11611,257;  298,335;29650,456;38,54209
 829,89;11546,266;  241,105;29518,142;38,61443
 830,45;11675,122;  276,643;29463,674;39,05323
 831,01;11601,440;  271,951;29353,052;38,95825
 831,57;11564,372;  270,489;29269,430;38,94585
 832,14;11656,613;  256,335;29244,193;39,32777
 832,70;11627,930;  244,181;28954,418;39,65049
 833,26;11643,248;  220,027;28888,565;39,84584
 833,82;11663,488;  261,565;28903,713;39,80820
 834,38;11732,882;  250,719;28807,091;40,20876
 834,95;11753,815;  243,565;28727,392;40,40977
 835,51;11713,671;  218,181;28604,463;40,49664
 836,07;11830,835;  249,104;28714,764;40,68668
 836,63;11906,921;  281,257;28682,527;40,93361
 837,19;11873,008;  269,257;28549,982;41,03060
 837,75;11835,402;  221,642;28266,437;41,41146
 838,32;11992,950;  284,719;28343,585;41,72739
 838,88;12027,268;  282,488;28406,809;41,76023
 839,44;12047,431;  273,488;28302,880;42,00570
 840,00;12001,364;  259,949;28280,642;41,90266
 840,56;11970,066;  243,103;28033,021;42,19862
 841,12;11993,153;  239,488;27914,476;42,47035
 841,68;11914,855;  231,334;27790,469;42,39437
 842,25;12031,249;  248,026;27896,155;42,61852
 842,81;11885,182;  241,718;27616,688;42,53325
 843,37;11951,345;  232,026;27647,758;42,74670
 843,93;11973,509;  255,487;27594,059;42,86260
 844,49;12030,365;  262,872;27645,822;42,97379
 845,05;11896,836;  210,025;27405,047;42,97408
 845,61;12090,384;  268,718;27456,886;43,48092
 846,17;12057,701;  238,871;27339,342;43,61116
 846,73;12061,557;  254,948;27315,028;43,63110
 847,29;12033,413;  236,102;27138,637;43,85204
 847,86;12066,192;  241,948;27111,861;44,00552
 848,42;12037,586;  242,794;26990,393;44,09664
 848,98;12077,904;  263,486;26910,387;44,33693
 849,54;12064,529;  252,563;26995,765;44,16811
 850,10;12086,769;  266,179;26909,682;44,36575
 850,66;12095,702;  235,563;26666,829;44,87163
 851,22;12030,481;  226,717;26607,592;44,74364
 851,78;12165,106;  285,178;26678,355;45,01136
 852,34;12061,885;  269,640;26529,195;44,90649
 852,90;12099,279;  248,870;26495,034;45,15101
 853,46;12024,597;  238,563;26244,028;45,32137
 854,02;12007,837;  254,409;26301,252;45,12420
 854,58;12034,078;  250,870;26099,554;45,58533
 855,14;12030,087;  239,562;26025,470;45,72468
 855,70;11950,020;  212,947;25916,464;45,66330
 856,26;12038,184;  256,947;25867,150;46,00212
 856,82;11958,886;  253,870;25749,374;45,91012
 857,38;12033,126;  302,254;25675,906;46,23249
 857,94;12023,521;  248,716;25611,362;46,42577
 858,50;12033,146;  274,254;25480,586;46,65055
 859,06;11974,155;  243,331;25218,503;46,96994
 859,62;11987,319;  271,946;25298,035;46,81264
 860,18;11992,559;  252,100;25060,721;47,32411
 860,74;11967,723;  216,562;25002,714;47,41019
 861,30;11948,425;  246,869;24816,708;47,62569
 861,86;12059,281;  319,946;24890,625;47,77782
 862,42;11947,598;  240,715;24682,695;47,89662
 862,98;11986,300;  291,869;24688,997;47,93364
 863,54;11841,464;  249,023;24474,760;47,85176
 864,10;12025,012;  253,253;24526,907;48,49603
 864,66;11893,099;  218,176;24366,362;48,34699
 865,22;11900,416;  255,022;24190,125;48,65404
 865,78;11961,503;  248,253;24193,811;48,91617
 866,34;11919,128;  238,253;24092,112;48,96849
 866,90;11902,214;  251,791;23978,798;49,10195
 867,45;11893,916;  243,253;23773,330;49,51392
 868,01;11901,157;  257,868;23686,862;49,69607
 868,57;11850,859;  239,714;23600,087;49,70445
 869,13;11802,715;  237,330;23485,080;49,74840
 869,69;11821,417;  233,406;23371,305;50,08238
 870,25;11785,119;  220,022;23242,145;50,23471
 870,81;11829,667;  241,099;23242,754;50,38145
 871,37;11880,984;  257,175;23147,440;50,78058
 871,93;11878,763;  275,175;23046,818;50,95631
 872,49;11835,696;  300,406;22873,273;51,10246
 873,04;11752,552;  226,867;22713,420;51,25590
 873,60;11719,869;  230,867;22635,029;51,28066
 874,16;11767,879;  261,790;22568,177;51,58204
 874,72;11719,187;  232,098;22491,946;51,60452
 875,28;11654,571;  246,329;22428,408;51,43000
 875,84;11649,187;  250,406;22390,869;51,48393
 876,40;11657,187;  237,252;22352,946;51,63724
 876,95;11709,340;  265,637;22299,792;51,93620
 877,51;11738,879;  283,637;22322,254;51,97804
 878,07;11762,263;  297,252;22311,331;52,08036
 878,63;11725,956;  254,483;22296,177;52,04443
 879,19;11764,187;  270,098;22358,331;52,03716
 879,75;11794,956;  247,252;22321,638;52,31268
 880,30;11815,494;  239,406;22373,638;52,29948
 880,86;11929,494;  292,637;22521,562;52,35007
 881,42;11893,340;  232,021;22510,946;52,34238
 881,98;11989,879;  264,406;22569,638;52,56826
 882,54;12008,340;  254,098;22638,485;52,51090
 883,09;12111,802;  268,483;22714,408;52,76378
 883,65;12122,879;  227,406;22761,638;52,78845
 884,21;12254,340;  280,944;22960,177;52,79454
 884,77;12263,648;  238,483;22999,715;52,83178
 885,32;12359,494;  249,329;23011,638;53,20271
 885,88;12524,879;  288,098;23216,792;53,36885
 886,44;12527,956;  257,637;23296,715;53,25872
 887,00;12511,879;  278,252;23317,638;53,09875
 887,56;12576,956;  247,867;23393,946;53,26642
 888,11;12553,340;  256,098;23412,254;53,10572
 888,67;12668,494;  274,790;23560,715;53,22401
 889,23;12672,340;  260,483;23537,869;53,32153
 889,79;12655,725;  236,560;23478,177;53,43503
 890,34;12638,648;  261,637;23438,869;53,40159
 890,90;12766,033;  335,252;23556,100;53,53285
 891,46;12660,879;  251,944;23515,331;53,34105
 892,01;12691,956;  271,637;23481,408;53,51332
 892,57;12624,956;  290,867;23462,100;53,23018
 893,13;12615,187;  254,637;23253,715;53,74367
 893,69;12605,802;  233,175;23210,254;53,84769
 894,24;12605,648;  247,098;23140,023;53,98415
 894,80;12620,879;  248,944;23016,946;54,33913
 895,36;12624,340;  252,713;22917,177;54,58601
 895,91;12553,802;  247,560;22825,408;54,50582
 896,47;12556,494;  278,790;22719,100;54,71272
 897,03;12521,879;  252,252;22567,638;54,98281
 897,58;12503,725;  259,560;22400,946;55,29990
 898,14;12532,110;  261,406;22242,792;55,82316
 898,70;12440,033;  213,406;22143,177;55,75355
 899,25;12556,110;  253,329;22181,715;56,10436
 899,81;12455,340;  251,867;22036,408;56,01896
 900,37;12383,263;  222,713;21764,946;56,44981
 900,92;12456,956;  245,252;21832,023;56,57031
 901,48;12355,110;  243,790;21694,254;56,46181
 902,03;12378,110;  242,713;21513,023;57,05322
 902,59;12354,802;  239,252;21413,408;57,21857
 903,15;12353,725;  255,637;21360,715;57,32311
 903,70;12296,263;  240,406;21169,177;57,60423
 904,26;12289,956;  245,175;21055,177;57,87977
 904,82;12259,263;  243,098;21036,638;57,78797
 905,37;12284,033;  267,406;20925,485;58,16914
 905,93;12132,494;  237,944;20862,100;57,67291
 906,48;12203,340;  261,252;20831,946;58,05389
 907,04;12227,571;  258,098;20762,331;58,37562
 907,60;12159,648;  266,713;20541,562;58,65856
 908,15;12074,956;  227,021;20455,408;58,57083
 908,71;12120,263;  258,406;20409,408;58,86485
 909,26;12119,417;  239,483;20304,177;59,20815
 909,82;12111,648;  261,483;20233,869;59,33275
 910,37;12119,187;  285,944;20174,331;59,49825
 910,93;12074,187;  236,637;19962,485;60,01035
 911,48;11977,340;  224,637;19879,562;59,79521
 912,04;11993,417;  235,329;19814,869;60,05293
 912,60;12100,648;  244,021;19806,562;60,60883
 913,15;12041,187;  252,021;19604,792;60,91720
 913,71;12019,494;  228,175;19536,331;61,06911
 914,26;12048,417;  213,021;19437,023;61,56572
 914,82;12003,417;  258,560;19373,254;61,44413
 915,37;11940,033;  236,560;19328,331;61,30114
 915,93;11953,417;  306,713;19241,254;61,51036
 916,48;11886,725;  217,098;19115,946;61,74782
 917,04;11913,571;  255,560;19033,331;62,08411
 917,59;11893,956;  268,637;18987,254;62,10565
 918,15;11799,494;  210,406;18833,715;62,22894
 918,70;11773,956;  230,713;18762,869;62,28764
 919,26;11770,340;  243,560;18633,638;62,67934
 919,81;11727,187;  220,098;18520,254;62,87973
 920,37;11706,263;  234,329;18455,946;62,95783
 920,92;11784,263;  252,560;18444,177;63,39021
 921,48;11655,187;  224,867;18301,254;63,23343
 922,03;11671,956;  229,637;18233,100;63,55621
 922,59;11627,417;  243,483;18105,562;63,73242
 923,14;11592,956;  251,406;18036,638;63,76948
 923,69;11588,494;  264,637;17984,792;63,90383
 924,25;11572,879;  273,944;17944,254;63,94305
 924,80;11493,417;  234,098;17753,792;64,26664
 925,36;11431,417;  221,021;17678,946;64,21379
 925,91;11413,187;  225,098;17594,408;64,41297
 926,47;11396,110;  207,560;17556,638;64,49074
 927,02;11488,725;  315,098;17558,638;64,79891
 927,57;11356,879;  226,175;17284,023;65,25268
 928,13;11316,417;  215,483;17281,023;65,04883
 928,68;11373,033;  228,637;17233,023;65,53836
 929,24;11285,571;  203,252;17075,331;65,68437
 929,79;11247,648;  224,790;16946,638;65,91890
 930,34;11187,417;  221,713;16873,331;65,85369
 930,90;11183,802;  213,252;16818,638;66,06621
 931,45;11167,494;  232,406;16841,023;65,83985
 932,01;11170,648;  228,252;16796,408;66,04474
 932,56;11142,802;  257,252;16666,023;66,33982
 933,11;11193,340;  260,021;16579,485;66,99558
 933,67;11116,802;  215,790;16498,408;66,94877
 934,22;11055,110;  228,944;16413,638;66,89138
 934,77;11009,648;  262,252;16297,100;67,02524
 935,33;11041,340;  228,790;16237,715;67,54076
 935,88;11044,725;  241,560;16149,562;67,91026
 936,43;11049,033;  232,406;16092,562;68,20000
 936,99;11035,571;  234,175;15959,946;68,68596
 937,54;10957,263;  215,098;15838,638;68,75628
 938,09;10975,879;  239,867;15850,485;68,77378
 938,65;10945,494;  238,637;15749,177;69,02956
 939,20;10847,494;  204,483;15622,177;69,03115
 939,75;10863,263;  211,021;15540,100;69,49043
 940,31;10815,417;  209,252;15446,562;69,60655
 940,86;10821,417;  231,637;15465,331;69,51551
 941,41;10863,033;  337,790;15419,946;69,78606
 941,96;10699,417;  216,790;15296,562;69,51450
 942,52;10693,033;  222,867;15159,408;70,09766
 943,07;10612,263;  206,560;15129,792;69,72822
 943,62;10631,417;  226,944;15026,100;70,30450
 944,18;10614,802;  198,790;14977,254;70,48102
 944,73;10555,648;  245,944;14924,946;70,23437
 945,28;10465,110;  192,790;14737,562;70,62551
 945,83;10535,110;  219,483;14770,177;70,89440
 946,39;10533,263;  217,637;14769,177;70,89027
 946,94;10494,494;  242,329;14655,485;71,13061
 947,49;10415,340;  212,944;14504,869;71,38574
 948,04;10472,417;  274,252;14543,946;71,46730
 948,59;10386,033;  247,175;14437,946;71,44684
 949,15;10282,417;  215,175;14429,638;70,82393
 949,70;10267,187;  225,944;14290,792;71,39247
 950,25;10242,879;  232,329;14228,408;71,52396
 950,80;10193,648;  187,790;14121,100;71,81250
 951,36;10177,340;  179,021;14015,715;72,25945
 951,91;10170,956;  236,329;14056,254;71,88626
 952,46;10059,956;  225,944;13898,177;71,92689
 953,01;10121,033;  224,483;13934,254;72,18611
 953,56;10002,417;  194,406;13775,869;72,21616
 954,11;10100,340;  228,098;13778,638;72,85497
 954,67; 9983,187;  224,713;13705,023;72,39057
 955,22; 9901,725;  203,790;13541,100;72,71283
 955,77; 9949,571;  249,175;13578,946;72,77241
 956,32; 9930,263;  279,406;13514,023;72,92132
 956,87; 9842,648;  216,098;13390,562;73,06977
 957,42; 9804,187;  217,329;13284,100;73,36822
 957,98; 9828,033;  209,098;13328,485;73,31848
 958,53; 9858,571;  255,329;13253,485;73,88158
 959,08; 9752,802;  196,867;13110,715;73,99758
 959,63; 9692,110;  223,098;13049,023;73,82712
 960,18; 9683,340;  242,713;13036,331;73,79169
 960,73; 9666,340;  219,713;13011,715;73,84792
 961,28; 9623,879;  197,406;12875,408;74,35299
 961,83; 9627,571;  244,560;12834,869;74,52566
 962,39; 9518,110;  206,637;12727,408;74,36821
 962,94; 9568,956;  227,483;12728,254;74,72717
 963,49; 9480,033;  232,713;12643,715;74,50905
 964,04; 9518,879;  237,021;12593,100;75,11977
 964,59; 9456,340;  209,021;12445,869;75,56945
 965,14; 9446,956;  262,021;12509,331;74,99553
 965,69; 9355,956;  231,560;12355,946;75,25656
 966,24; 9341,956;  218,252;12294,177;75,55284
 966,79; 9328,033;  251,406;12194,638;75,99807
 967,34; 9255,033;  196,406;12056,023;76,38212
 967,89; 9271,417;  226,252;12113,869;76,08897
 968,44; 9186,494;  231,098;11975,792;76,25057
 968,99; 9174,033;  236,098;11943,177;76,34641
 969,55; 9167,263;  235,637;11895,023;76,60460
 970,10; 9083,956;  236,560;11827,100;76,33290
 970,65; 9054,725;  255,175;11775,715;76,38140
 971,20; 8994,033;  221,021;11661,562;76,68354
 971,75; 8914,417;  197,021;11527,485;76,93768
 972,30; 8906,494;  240,406;11490,408;77,03188
 972,85; 8863,263;  209,867;11405,331;77,29377
 973,40; 8812,263;  213,790;11288,254;77,64234
 973,95; 8803,187;  228,867;11244,254;77,83948
 974,50; 8785,802;  266,406;11252,023;77,55045
 975,05; 8650,340;  245,713;11099,331;77,43618
 975,60; 8638,187;  242,406;11083,946;77,44085
 976,15; 8577,417;  216,790;11005,869;77,49157
 976,70; 8513,879;  237,637;10919,023;77,48285
 977,25; 8529,879;  252,329;10874,408;77,92778
 977,80; 8434,648;  230,790;10771,946;77,82693
 978,35; 8341,648;  250,867;10640,023;77,87717
 978,89; 8273,725;  206,560;10613,485;77,51728
 979,44; 8370,648;  233,406;10594,408;78,53721
 979,99; 8235,956;  227,637;10429,869;78,49575
 980,54; 8230,956;  255,637;10391,023;78,68786
 981,09; 8163,494;  253,021;10319,177;78,58485
 981,64; 8104,494;  238,867;10235,177;78,68531
 982,19; 8132,417;  281,867;10170,562;79,38915
 982,74; 8010,263;  239,329;10073,023;79,02355
 983,29; 7954,187;  228,560; 9925,331;79,67216
 983,84; 7930,033;  242,560; 9856,562;79,96122
 984,39; 8002,725;  351,483; 9957,638;79,64937
 984,94; 7823,263;  207,560; 9720,715;80,05444
 985,49; 7867,110;  263,175; 9651,562;80,99299
 986,03; 7804,417;  249,790; 9573,408;81,02678
 986,58; 7735,648;  290,175; 9548,869;80,41602
 987,13; 7658,110;  247,560; 9410,638;80,87402
 987,68; 7526,879;  266,098; 9275,715;80,58923
 988,23; 7543,033;  250,790; 9286,485;80,70484
 988,78; 7477,110;  227,252; 9132,177;81,41402
 989,33; 7440,033;  264,329; 9075,100;81,44240
 989,88; 7408,494;  272,252; 9035,177;81,43676
 990,42; 7327,802;  234,560; 8880,408;82,04218
 990,97; 7257,571;  245,098; 8798,485;81,98476
 991,52; 7289,571;  253,637; 8767,100;82,64480
 992,07; 7214,802;  285,483; 8679,100;82,55462
 992,62; 7087,725;  250,098; 8561,715;82,26590
 993,17; 7115,033;  262,790; 8514,946;83,03578
 993,71; 7062,571;  265,021; 8433,177;83,22013
 994,26; 6967,187;  235,098; 8308,485;83,38618
 994,81; 6940,956;  263,329; 8294,485;83,14652
 995,36; 6815,417;  226,560; 8143,562;83,22415
 995,91; 6762,879;  244,329; 8144,638;82,51006
 996,45; 6745,110;  239,790; 8037,408;83,42701
 997,00; 6642,648;  226,790; 7917,715;83,42114
 997,55; 6661,571;  248,098; 7891,638;83,90710
 998,10; 6602,033;  273,790; 7767,792;84,44410
 998,65; 6524,110;  244,560; 7756,177;83,59784
 999,19; 6478,417;  277,252; 7628,023;84,36075
 999,74; 6423,725;  287,944; 7559,869;84,37629
1000,29; 6398,033;  265,483; 7439,177;85,48664
1000,84; 6288,263;  247,483; 7371,254;84,79751
1001,38; 6244,110;  254,637; 7303,254;84,97373
1001,93; 6183,340;  262,790; 7254,408;84,68069
1002,48; 6045,187;  227,252; 7141,023;84,14994
1003,03; 6043,879;  272,867; 7085,715;84,70777
1003,57; 5946,033;  253,021; 6971,638;84,73487
1004,12; 5985,340;  293,790; 6974,715;85,19105
1004,67; 5906,802;  248,175; 6895,715;85,12362
1005,22; 5789,033;  242,637; 6718,177;85,65148
1005,76; 5688,417;  232,867; 6636,562;85,19379
1006,31; 5665,187;  264,329; 6606,946;85,15188
1006,86; 5606,110;  239,713; 6484,485;85,93423
1007,40; 5543,494;  234,098; 6398,869;86,12479
1007,95; 5495,263;  251,329; 6333,715;86,21508
1008,50; 5437,110;  251,790; 6225,715;86,79920
1009,04; 5363,879;  248,944; 6176,638;86,28877
1009,59; 5294,417;  260,329; 6062,254;86,76583
1010,14; 5215,110;  239,329; 5975,792;86,73952
1010,68; 5165,956;  247,560; 5875,715;87,38913
1011,23; 5066,879;  238,329; 5830,408;86,34624
1011,78; 5061,725;  247,483; 5775,023;87,09556
1012,32; 5011,956;  276,560; 5679,485;87,64505
1012,87; 4962,648;  270,021; 5623,562;87,65465
1013,42; 4844,263;  226,329; 5490,638;87,72156
1013,96; 4881,648;  280,637; 5559,254;87,16320
1014,51; 4790,956;  211,098; 5476,408;86,98174
1015,06; 4774,417;  207,867; 5445,715;87,18370
1015,60; 4781,494;  287,713; 5507,100;86,09787
1016,15; 4739,571;  222,329; 5436,638;86,63165
1016,69; 4716,802;  246,790; 5461,562;85,71827
1017,24; 4740,725;  225,560; 5464,254;86,18876
1017,79; 4773,879;  289,175; 5519,869;85,73821
1018,33; 4747,956;  243,483; 5516,792;85,42023
1018,88; 4760,187;  259,175; 5560,946;84,89638
1019,42; 4736,340;  236,252; 5525,869;85,07399
1019,97; 4705,956;  224,175; 5524,638;84,55451
1020,51; 4767,802;  278,944; 5624,638;83,97146
1021,06; 4680,571;  217,560; 5582,408;83,18990
1021,61; 4684,110;  204,483; 5550,869;83,78794
1022,15; 4625,263;  187,944; 5520,869;83,20611
1022,70; 4671,494;  239,637; 5536,331;83,67215
1023,24; 4639,571;  237,483; 5489,562;83,81612
1023,79; 4582,340;  241,483; 5439,869;83,50394
1024,33; 4589,263;  226,329; 5403,023;84,28032
1024,88; 4554,417;  250,252; 5347,946;84,43357
1025,42; 4467,033;  250,944; 5235,485;84,58329
1025,97; 4400,802;  223,713; 5209,946;83,77243
1026,51; 4345,417;  208,713; 5069,946;85,09578
1027,06; 4340,033;  228,252; 5058,023;85,13407
1027,60; 4248,494;  260,867; 4993,100;84,26523
1028,15; 4246,033;  261,944; 4895,023;85,99224
1028,69; 4124,110;  201,483; 4763,869;85,97752
1029,24; 4073,263;  228,098; 4756,869;84,90527
1029,78; 4031,417;  224,790; 4650,485;86,01197
1030,33; 3955,802;  214,944; 4564,792;85,99973
1030,87; 3918,263;  217,713; 4530,869;85,79681
1031,42; 3840,956;  205,021; 4447,869;85,69561
1031,96; 3842,494;  241,713; 4411,254;86,35918
1032,51; 3753,340;  216,483; 4338,331;85,80757
1033,05; 3727,956;  231,098; 4313,485;85,65719
1033,60; 3604,494;  196,406; 4159,023;86,00600
1034,14; 3582,263;  222,790; 4158,408;85,36077
1034,69; 3576,648;  228,790; 4116,869;86,10570
1035,23; 3524,110;  228,483; 4029,331;86,70767
1035,77; 3502,340;  223,637; 3970,869;87,49667
1036,32; 3445,494;  192,944; 3925,792;87,13320
1036,86; 3416,879;  239,637; 3893,946;86,94508
1037,41; 3357,648;  231,252; 3818,408;87,15529
1037,95; 3293,725;  197,483; 3722,946;87,82511
1038,50; 3264,725;  211,944; 3698,792;87,55130
1039,04; 3275,648;  247,560; 3681,023;88,19341
1039,58; 3188,340;  206,483; 3613,638;87,51750
1040,13; 3126,340;  222,098; 3577,254;86,56058
1040,67; 3148,263;  253,329; 3554,946;87,68232
1041,21; 3082,033;  259,637; 3485,946;87,48064
1041,76; 3000,494;  220,329; 3414,715;87,03284
1042,30; 2992,494;  213,098; 3370,023;88,04125
1042,85; 2938,110;  218,944; 3296,023;88,36840
1043,39; 2896,033;  216,329; 3252,331;88,26423
1043,93; 2898,417;  238,406; 3252,638;88,24838
1044,48; 2813,417;  244,560; 3189,177;87,23910
1045,02; 2787,802;  226,329; 3149,023;87,64082
1045,56; 2776,802;  251,098; 3119,946;88,03895
1046,11; 2770,033;  228,406; 3101,792;88,45406
1046,65; 2684,417;  242,867; 3022,638;87,83277
1047,19; 2657,340;  205,713; 2951,715;89,27987
1047,74; 2594,417;  207,252; 2893,869;88,85394
1048,28; 2598,725;  233,637; 2909,254;88,39412
1048,82; 2593,417;  266,329; 2917,562;87,77383
1049,37; 2525,494;  243,560; 2852,485;87,46647
1049,91; 2523,956;  238,329; 2817,792;88,60862
1050,45; 2446,802;  238,098; 2748,715;87,97453
1050,99; 2436,648;  239,175; 2724,946;88,40207
1051,54; 2388,648;  211,713; 2658,869;88,95775
1052,08; 2393,494;  251,021; 2650,023;89,30685
1052,62; 2360,187;  246,790; 2624,869;88,86989
1053,16; 2319,571;  225,098; 2571,254;89,27255
1053,71; 2303,417;  246,175; 2554,562;89,12036
1054,25; 2265,956;  245,406; 2518,946;88,87240
1054,79; 2244,417;  247,867; 2507,792;88,34585
1055,33; 2178,956;  202,098; 2420,408;89,11550
1055,88; 2199,340;  228,790; 2414,331;90,16306
1056,42; 2153,033;  239,098; 2403,792;88,41593
1056,96; 2150,417;  253,790; 2363,638;89,89400
1057,50; 2108,110;  248,790; 2321,331;89,71209
1058,05; 2066,033;  241,637; 2280,023;89,50197
1058,59; 2067,879;  259,252; 2233,946;91,59023
1059,13; 2003,340;  211,790; 2196,715;90,25782
1059,67; 2015,956;  246,483; 2206,254;90,28978
1060,21; 1954,494;  238,867; 2142,638;90,11729
1060,76; 1946,879;  237,944; 2139,408;89,87470
1061,30; 1952,187;  265,175; 2115,562;91,17076
1061,84; 1884,187;  243,406; 2048,869;90,87865
1062,38; 1849,571;  216,175; 2001,023;91,51458
1062,92; 1890,417;  278,944; 2050,946;90,94082
1063,46; 1817,802;  246,713; 1974,946;90,90723
1064,01; 1790,571;  236,713; 1952,562;90,55917
1064,55; 1783,725;  257,867; 1931,638;91,16286
1065,09; 1709,571;  214,713; 1849,177;91,45862
1065,63; 1744,725;  268,790; 1901,946;90,37317
1066,17; 1733,956;  270,867; 1877,946;91,04024
1066,71; 1698,110;  266,098; 1856,254;90,05480
1067,25; 1653,571;  232,944; 1800,638;90,61888
1067,80; 1639,571;  258,252; 1796,792;89,78115
1068,34; 1646,033;  282,713; 1790,023;90,44719
1068,88; 1590,110;  229,329; 1720,023;91,28504
1069,42; 1638,494;  270,098; 1755,485;92,12391
1069,96; 1574,879;  251,252; 1713,023;90,54953
1070,50; 1590,879;  284,175; 1715,869;91,26976
1071,04; 1542,956;  229,406; 1649,408;92,50340
1071,58; 1520,725;  240,790; 1638,408;91,57976
1072,12; 1505,725;  250,790; 1630,562;90,95237
1072,66; 1492,340;  249,944; 1619,177;90,73667
1073,21; 1494,110;  266,790; 1612,562;91,19821
1073,75; 1457,110;  246,637; 1570,562;91,43064
1074,29; 1438,879;  243,713; 1540,869;92,13738
1074,83; 1434,725;  266,944; 1545,408;91,34252
1075,37; 1424,110;  270,483; 1536,100;91,15132
1075,91; 1426,571;  250,021; 1510,485;93,34265
1076,45; 1389,956;  260,867; 1497,331;91,31596
1076,99; 1372,571;  267,637; 1480,254;91,11981
1077,53; 1342,802;  252,483; 1423,100;93,14054
1078,07; 1345,802;  259,867; 1431,408;92,69289
1078,61; 1328,879;  250,867; 1394,023;94,30137
1079,15; 1283,648;  249,175; 1370,408;92,26212
1079,69; 1279,494;  247,944; 1388,254;90,46227
1080,23; 1297,187;  272,713; 1404,408;90,52561
1080,77; 1321,340;  318,483; 1428,946;90,30983
1081,31; 1251,110;  251,021; 1340,100;91,82884
1081,85; 1240,417;  257,560; 1348,100;90,12575
1082,39; 1209,571;  244,483; 1302,792;91,19150
1082,93; 1223,879;  267,406; 1341,485;89,05055
1083,47; 1176,187;  235,790; 1259,715;91,84229
1084,01; 1198,879;  260,560; 1298,254;90,42348
1084,55; 1154,956;  240,944; 1239,485;91,53476
1085,09; 1170,340;  255,944; 1271,254;90,06082
1085,63; 1130,340;  244,406; 1236,177;89,32853
1086,17; 1122,263;  244,021; 1198,177;92,04391
1086,71; 1096,648;  227,637; 1204,100;88,99581
1087,24; 1131,802;  272,867; 1220,485;90,64151
1087,78; 1122,187;  274,252; 1210,562;90,56135
1088,32; 1056,340;  230,944; 1146,562;90,14641
1088,86; 1073,110;  262,021; 1171,254;89,20582
1089,40; 1075,802;  252,867; 1140,485;92,71277
1089,94; 1023,417;  227,713; 1116,562;89,52079
1090,48; 1031,725;  259,790; 1110,254;90,76635
1091,02; 1051,033;  262,175; 1139,023;89,96515
1091,56; 1017,110;  239,560; 1093,331;91,07241
1092,10;  976,494;  228,406; 1055,331;90,46630
1092,63; 1029,879;  272,637; 1117,331;89,64691
1093,17;  998,725;  262,098; 1074,331;90,69161
1093,71;  964,033;  243,713; 1032,177;91,35734
1094,25;  985,340;  264,252; 1068,946;89,61024
1094,79;  953,417;  244,483; 1016,485;91,83068
1095,33;  942,571;  256,483; 1020,100;89,84716
1095,87;  938,110;  258,329; 1002,254;91,37759
1096,40;  894,187;  227,329;  955,408;91,59141
1096,94;  922,033;  257,329;  993,254;90,32223
1097,48;  929,648;  267,637;  981,023;92,79843
1098,02;  879,033;  239,944;  954,254;89,46939
1098,56;  843,879;  223,637;  921,638;88,85968
1099,10;  857,802;  227,483;  907,254;92,72521
1099,63;  839,956;  236,483;  903,177;90,51722
1100,17;  865,417;  254,944;  926,023;90,96890
1100,71;  867,648;  282,790;  936,485;89,46961

