
Integration time [ms]: 150,000
Averaging Nr. [scans]: 13
Smoothing Nr. [pixels]: 0
Data measured with spectrometer [name]: 2009305U1
Wave   ;Sample   ;Dark     ;Reference;Reflectance
[nm]   ;[counts] ;[counts] ;[counts] ;[%]

 175,72;  211,895;  213,942;  232,391;-11,09500
 176,32;  236,987;  248,562;  239,245; 0,00000
 176,92;  284,733;  283,713;  284,805;93,41365
 177,52;  272,929;  263,481;  288,463;37,81918
 178,12;  252,505;  258,638;  259,823;-517,57368
 178,72;  280,619;  287,793;  280,469; 0,00000
 179,32;  267,359;  285,408;  267,745; 0,00000
 179,92;  272,097;  275,791;  268,795; 0,00000
 180,52;  260,583;  256,325;  272,061;27,05788
 181,12;  277,803;  274,252;  289,721;22,95277
 181,73;  309,261;  302,098;  302,762; 0,00000
 182,33;  414,172;  411,173;  406,971; 0,00000
 182,93;  292,803;  293,097;  294,847;-16,77010
 183,53;  251,941;  259,948;  249,810; 0,00000
 184,13;  256,505;  259,332;  248,661; 0,00000
 184,73;  314,117;  314,025;  313,345; 0,00000
 185,33;  284,684;  254,895;  344,858;33,11228
 185,93;  286,172;  268,436;  359,913;19,38806
 186,53;  304,283;  274,666;  381,617;27,69187
 187,13;  319,913;  285,970;  414,333;26,44256
 187,73;  287,064;  262,974;  373,416;21,81203
 188,33;  297,520;  249,284;  379,789;36,96128
 188,93;  306,879;  282,673;  384,519;23,76679
 189,53;  297,222;  265,370;  380,835;27,58564
 190,13;  336,572;  301,453;  437,825;25,75236
 190,73;  274,441;  245,679;  384,820;20,67112
 191,34;  309,894;  279,444;  409,815;23,35625
 191,94;  288,866;  263,439;  370,276;23,80002
 192,54;  294,374;  255,737;  399,966;26,78858
 193,14;  319,657;  288,047;  387,600;31,75116
 193,74;  311,643;  296,202;  379,404;18,55819
 194,34;  320,728;  272,354;  392,221;40,35606
 194,94;  274,608;  250,278;  345,600;25,52369
 195,54;  231,806;  229,741;  336,398; 1,93596
 196,14;  258,698;  246,661;  343,765;12,39543
 196,74;  277,273;  250,434;  354,623;25,75990
 197,34;  241,971;  216,429;  347,856;19,43493
 197,94;  274,601;  241,201;  367,795;26,38371
 198,54;  299,532;  253,200;  382,880;35,72783
 199,14;  257,578;  227,043;  362,749;22,50116
 199,74;  248,012;  217,966;  353,672;22,14028
 200,34;  241,738;  216,427;  355,290;18,22699
 200,94;  276,095;  255,891;  406,391;13,42501
 201,54;  258,050;  232,120;  402,629;15,20730
 202,14;  312,688;  282,811;  452,335;17,62404
 202,74;  267,801;  229,889;  425,863;19,34513
 203,34;  250,130;  212,733;  417,845;18,23243
 203,94;  230,701;  190,041;  432,337;16,78099
 204,54;  298,039;  250,816;  504,220;18,63555
 205,14;  259,335;  224,735;  505,171;12,33793
 205,74;  299,109;  266,041;  591,229;10,16904
 206,34;  271,396;  210,426;  593,142;15,93083
 206,94;  293,544;  235,042;  631,831;14,74392
 207,54;  255,185;  202,119;  644,718;11,98970
 208,14;  272,976;  222,503;  714,144;10,26620
 208,74;  271,124;  218,889;  754,132; 9,75912
 209,34;  290,749;  212,581;  808,442;13,11846
 209,94;  297,332;  238,274;  890,249; 9,05830
 210,54;  305,609;  222,657;  966,494;11,15199
 211,14;  300,542;  227,582; 1025,633; 9,14230
 211,73;  301,228;  228,121; 1111,974; 8,27138
 212,33;  324,662;  248,275; 1188,775; 8,12192
 212,93;  306,565;  234,120; 1272,131; 6,97921
 213,53;  282,481;  200,889; 1281,363; 7,55146
 214,13;  334,020;  218,193; 1379,045; 9,97773
 214,73;  299,611;  199,042; 1377,951; 8,53071
 215,33;  285,639;  194,966; 1390,403; 7,58495
 215,93;  330,910;  224,887; 1496,612; 8,33697
 216,53;  296,994;  186,428; 1531,015; 8,22304
 217,13;  349,569;  232,733; 1687,840; 8,02934
 217,73;  356,854;  210,579; 1839,536; 8,97966
 218,33;  324,722;  175,808; 1944,509; 8,41936
 218,93;  372,278;  212,421; 2182,917; 8,11257
 219,53;  401,001;  216,962; 2401,433; 8,42488
 220,13;  375,562;  168,115; 2581,899; 8,59425
 220,73;  438,352;  202,504; 2851,019; 8,90491
 221,32;  455,817;  201,274; 3120,286; 8,72017
 221,92;  499,327;  213,808; 3428,167; 8,88260
 222,52;  495,911;  194,733; 3717,576; 8,54930
 223,12;  547,442;  200,502; 4022,269; 9,07801
 223,72;  586,029;  204,348; 4372,501; 9,15709
 224,32;  621,815;  220,194; 4616,964; 9,13447
 224,92;  655,791;  195,194; 4835,348; 9,92633
 225,52;  692,901;  219,427; 5110,293; 9,68078
 226,12;  725,200;  199,580; 5350,032;10,20533
 226,72;  728,710;  174,734; 5553,453;10,29940
 227,31;  766,839;  161,734; 5830,376;10,67461
 227,91;  851,337;  223,966; 6177,329;10,53810
 228,51;  867,108;  185,737; 6407,624;10,95121
 229,11;  926,191;  199,734; 6726,183;11,13097
 229,71;  962,184;  185,966; 6921,669;11,52393
 230,31; 1030,352;  179,270; 7217,584;12,09213
 230,91; 1072,393;  179,353; 7438,424;12,30240
 231,51; 1135,214;  184,425; 7630,921;12,76827
 232,10; 1184,669;  185,808; 7920,663;12,91376
 232,70; 1256,651;  201,585; 8050,067;13,44293
 233,30; 1346,072;  215,349; 8212,688;14,13874
 233,90; 1360,740;  193,887; 8357,534;14,29327
 234,50; 1403,587;  191,348; 8338,267;14,87972
 235,10; 1463,406;  188,578; 8361,810;15,59760
 235,70; 1543,199;  215,581; 8439,675;16,14303
 236,29; 1574,015;  200,120; 8272,400;17,01990
 236,89; 1600,576;  174,968; 8134,388;17,91095
 237,49; 1666,034;  209,733; 8099,993;18,45694
 238,09; 1652,089;  191,119; 7834,758;19,11354
 238,69; 1707,131;  244,892; 7651,380;19,74268
 239,29; 1647,306;  194,888; 7392,371;20,17953
 239,89; 1646,831;  201,506; 7129,926;20,86081
 240,48; 1614,680;  185,042; 6781,450;21,67297
 241,08; 1605,597;  193,735; 6490,908;22,42057
 241,68; 1616,506;  218,657; 6241,874;23,20768
 242,28; 1559,630;  180,579; 5954,187;23,88542
 242,88; 1611,530;  238,732; 5729,199;25,00331
 243,48; 1602,831;  232,272; 5513,531;25,95138
 244,07; 1515,928;  213,889; 5315,560;25,52182
 244,67; 1541,766;  210,888; 5200,991;26,67035
 245,27; 1520,997;  218,351; 5068,512;26,85778
 245,87; 1519,517;  228,809; 5047,813;26,78371
 246,47; 1539,790;  209,044; 4990,205;27,83313
 247,06; 1511,371;  195,273; 4988,255;27,45885
 247,66; 1517,952;  199,734; 5045,375;27,20420
 248,26; 1572,945;  218,736; 5147,014;27,47835
 248,86; 1610,580;  217,351; 5321,282;27,29717
 249,46; 1588,165;  157,348; 5440,689;27,08167
 250,05; 1695,428;  214,503; 5738,680;26,80806
 250,65; 1695,445;  184,429; 5969,510;26,11919
 251,25; 1785,281;  197,889; 6357,869;25,76944
 251,85; 1879,333;  213,276; 6812,734;25,24536
 252,44; 1927,561;  184,659; 7249,516;24,67004
 253,04; 2068,814;  215,889; 7818,327;24,37277
 253,64; 2115,881;  169,044; 8404,469;23,63979
 254,24; 2291,456;  214,196; 9168,218;23,19919
 254,84; 2383,473;  185,887; 9921,228;22,57328
 255,43; 2504,594;  196,120;10750,633;21,87192
 256,03; 2630,335;  192,352;11606,163;21,35994
 256,63; 2763,859;  206,045;12400,234;20,97568
 257,23; 2855,200;  186,506;13216,811;20,48066
 257,82; 2998,786;  206,431;14106,224;20,08918
 258,42; 3046,779;  157,278;14919,565;19,57354
 259,02; 3201,753;  217,504;15677,903;19,30253
 259,62; 3197,721;  192,894;16358,485;18,58780
 260,21; 3273,958;  210,120;16988,555;18,26057
 260,81; 3303,179;  194,580;17427,877;18,03833
 261,41; 3304,490;  174,585;17907,684;17,65007
 262,01; 3355,760;  227,433;18314,057;17,29636
 262,60; 3327,276;  178,660;18710,427;16,99037
 263,20; 3342,705;  185,890;19121,858;16,67100
 263,80; 3361,622;  223,663;19337,865;16,41690
 264,40; 3305,158;  173,894;19593,059;16,12460
 264,99; 3333,706;  213,356;19766,863;15,95801
 265,59; 3323,485;  189,435;19883,310;15,91383
 266,19; 3316,209;  192,586;20100,326;15,69049
 266,78; 3353,963;  232,818;20275,972;15,57212
 267,38; 3333,159;  204,280;20331,852;15,54523
 267,98; 3320,214;  201,664;20347,819;15,47963
 268,58; 3334,365;  206,127;20373,698;15,51123
 269,17; 3317,599;  197,205;20470,340;15,39177
 269,77; 3325,214;  201,507;20310,845;15,53361
 270,37; 3295,568;  163,587;20130,593;15,68578
 270,96; 3341,543;  234,969;20224,724;15,54083
 271,56; 3284,373;  198,276;19928,464;15,64150
 272,16; 3263,663;  194,200;19783,490;15,66909
 272,75; 3270,542;  191,354;19749,068;15,74411
 273,35; 3293,548;  205,123;19603,610;15,92096
 273,95; 3311,899;  203,200;19589,915;16,03520
 274,54; 3345,752;  184,427;19713,410;16,18786
 275,14; 3443,018;  219,738;20045,880;16,25772
 275,74; 3417,469;  175,893;19968,529;16,37769
 276,33; 3585,716;  228,661;20344,883;16,68830
 276,93; 3655,579;  199,734;20646,721;16,90149
 277,53; 3743,756;  199,197;20999,862;17,04060
 278,12; 3843,791;  174,968;21460,082;17,23657
 278,72; 4062,213;  255,582;21988,591;17,51543
 279,32; 4144,900;  197,736;22420,475;17,76183
 279,91; 4313,304;  186,813;22956,548;18,12270
 280,51; 4475,918;  190,351;23409,978;18,45666
 281,11; 4615,741;  194,121;23992,394;18,57958
 281,70; 4746,930;  174,506;24405,547;18,87011
 282,30; 4975,219;  188,737;24945,233;19,33425
 282,90; 5153,260;  186,276;25231,041;19,83242
 283,49; 5371,904;  213,892;25761,610;20,18972
 284,09; 5557,424;  229,583;26079,930;20,61033
 284,69; 5771,969;  229,967;26439,436;21,14504
 285,28; 5912,913;  211,352;26775,853;21,46308
 285,88; 6112,473;  274,970;26939,836;21,89211
 286,47; 6272,365;  205,891;27004,886;22,63694
 287,07; 6521,467;  225,274;27049,551;23,47199
 287,67; 6718,216;  225,195;27202,685;24,06829
 288,26; 6901,163;  186,582;27102,628;24,94639
 288,86; 7110,922;  187,891;27191,277;25,63764
 289,46; 7398,478;  214,505;27293,857;26,52934
 290,05; 7729,386;  191,350;27370,022;27,73511
 290,65; 8028,400;  204,353;27556,115;28,60528
 291,24; 8273,791;  205,043;27630,937;29,42018
 291,84; 8635,397;  212,430;27732,464;30,60668
 292,44; 8944,565;  204,349;27752,918;31,72657
 293,03; 9303,625;  282,582;28043,745;32,49519
 293,63; 9552,697;  187,199;28143,117;33,50095
 294,22; 9893,368;  223,583;28296,048;34,44580
 294,82;10103,551;  194,432;28317,253;35,23515
 295,41;10292,392;  181,890;28083,700;36,23601
 296,01;10510,354;  237,201;28096,142;36,87561
 296,61;10549,961;  232,890;27923,821;37,25794
 297,20;10595,821;  202,047;27461,720;38,12875
 297,80;10728,970;  224,734;27448,525;38,58477
 298,39;10755,948;  191,430;27120,118;39,23146
 298,99;10886,798;  238,431;27050,417;39,71495
 299,58;10901,948;  222,195;26883,144;40,05766
 300,18;10934,419;  229,273;26738,677;40,38245
 300,78;10922,619;  198,812;26411,633;40,91054
 301,37;11017,272;  217,587;26374,822;41,28756
 301,97;11105,838;  216,429;26462,857;41,48911
 302,56;11092,461;  202,968;26361,078;41,62951
 303,16;11152,545;  183,969;26230,113;42,11209
 303,75;11190,182;  196,735;26281,135;42,14568
 304,35;11379,381;  187,579;26493,154;42,54536
 304,94;11427,616;  195,813;26507,819;42,68699
 305,54;11434,970;  211,197;26480,593;42,72566
 306,13;11422,260;  168,117;26435,270;42,84493
 306,73;11454,452;  167,656;26274,725;43,23272
 307,33;11366,710;  214,734;26205,376;42,90766
 307,92;11429,496;  212,736;26265,361;43,05424
 308,52;11632,512;  187,277;26595,919;43,33898
 309,11;11794,953;  203,278;27114,294;43,07409
 309,71;11927,080;  181,048;27312,404;43,29320
 310,30;12034,540;  183,505;27535,013;43,32863
 310,90;12143,694;  237,813;27768,090;43,24650
 311,49;12212,406;  211,121;27941,666;43,27822
 312,09;12282,520;  158,042;28080,139;43,42252
 312,68;12524,250;  272,659;28453,748;43,47451
 313,28;12479,419;  183,813;28570,668;43,31444
 313,87;12449,365;  168,813;28691,474;43,05542
 314,47;12580,141;  197,508;28880,144;43,17118
 315,06;12625,711;  184,505;29022,169;43,14221
 315,66;12703,135;  184,273;29287,908;43,01477
 316,25;12617,064;  161,738;29046,383;43,12092
 316,85;12545,043;  157,042;29132,485;42,75345
 317,44;12654,383;  192,432;29362,911;42,72110
 318,04;12556,130;  173,045;29264,041;42,56673
 318,63;12594,079;  162,118;29361,379;42,57629
 319,22;12577,262;  190,968;29467,076;42,30854
 319,82;12484,071;  196,737;29597,083;41,79316
 320,41;12415,064;  213,353;29530,808;41,61927
 321,01;12374,030;  212,427;29689,791;41,25743
 321,60;12319,387;  206,814;29706,584;41,05989
 322,20;12228,273;  179,890;29680,092;40,84170
 322,79;12229,261;  217,966;29699,284;40,74206
 323,39;12145,724;  187,271;29847,921;40,31757
 323,98;12065,355;  181,428;29806,670;40,11419
 324,58;11970,755;  186,200;29699,958;39,92902
 325,17;11888,084;  196,199;29622,153;39,73324
 325,76;11814,831;  207,582;29630,781;39,44931
 326,36;11542,531;  187,581;29222,829;39,10747
 326,95;11409,497;  223,506;29064,392;38,78518
 327,55;11198,767;  181,275;28815,775;38,47629
 328,14;11021,360;  175,273;28463,180;38,34178
 328,74;10876,336;  220,815;28041,923;38,30013
 329,33;10668,381;  208,043;27790,675;37,92364
 329,92;10409,577;  169,124;27269,257;37,78746
 330,52;10156,712;  209,349;26750,874;37,47849
 331,11; 9964,245;  186,506;26357,545;37,36091
 331,71; 9693,073;  184,583;25920,241;36,94675
 332,30; 9501,539;  204,967;25450,434;36,82472
 332,89; 9327,247;  270,427;25062,635;36,53091
 333,49; 9045,355;  205,814;24569,585;36,28150
 334,08; 8856,755;  193,122;24255,736;36,00454
 334,68; 8641,484;  192,968;23878,852;35,66899
 335,27; 8464,928;  204,657;23597,646;35,31088
 335,86; 8381,169;  267,198;23330,776;35,18088
 336,46; 8158,244;  219,041;23089,223;34,71421
 337,05; 8008,067;  187,814;22964,391;34,33463
 337,65; 7904,342;  177,122;22873,967;34,04535
 338,24; 7846,088;  237,351;22794,093;33,73154
 338,83; 7757,699;  212,889;22743,478;33,48696
 339,43; 7706,149;  186,584;22695,499;33,40705
 340,02; 7610,569;  195,430;22572,882;33,13665
 340,61; 7571,852;  208,274;22608,053;32,87344
 341,21; 7514,797;  233,507;22675,846;32,44443
 341,80; 7473,115;  211,583;22645,813;32,36809
 342,40; 7407,016;  204,734;22704,721;32,01016
 342,99; 7393,324;  199,350;22802,481;31,82733
 343,58; 7343,843;  202,812;22941,367;31,40495
 344,18; 7326,848;  226,119;23014,638;31,15924
 344,77; 7304,686;  189,430;23305,459;30,78062
 345,36; 7359,958;  181,275;23620,623;30,62663
 345,96; 7430,483;  224,196;23867,521;30,47916
 346,55; 7409,194;  195,964;24027,576;30,26749
 347,14; 7452,053;  186,272;24316,452;30,11076
 347,74; 7486,537;  172,346;24672,474;29,85368
 348,33; 7587,281;  205,885;25204,741;29,52693
 348,92; 7679,172;  219,115;25709,443;29,26623
 349,52; 7774,890;  180,038;26172,362;29,21960
 350,11; 7718,374;  191,277;26345,265;28,77992
 350,70; 7731,816;  208,351;26517,553;28,59632
 351,29; 7578,707;  184,895;26275,357;28,33914
 351,89; 7563,633;  230,893;26317,871;28,10881
 352,48; 7502,548;  187,120;26263,976;28,05334
 353,07; 7428,078;  237,426;26233,108;27,66095
 353,67; 7362,112;  229,191;26088,368;27,58371
 354,26; 7238,527;  210,118;25981,875;27,27175
 354,85; 7180,233;  231,350;25943,832;27,02533
 355,45; 7017,778;  189,968;25704,619;26,76035
 356,04; 7017,929;  215,964;25688,609;26,70302
 356,63; 6926,121;  253,967;25533,278;26,39373
 357,22; 6832,224;  220,894;25399,401;26,25783
 357,82; 6698,016;  214,509;25097,329;26,05616
 358,41; 6689,733;  243,967;25158,396;25,87162
 359,00; 6574,084;  210,969;24921,461;25,75066
 359,60; 6532,768;  234,197;24962,439;25,47116
 360,19; 6485,367;  245,579;24788,803;25,42367
 360,78; 6401,933;  219,045;24602,428;25,35697
 361,37; 6379,982;  223,275;24406,737;25,45833
 361,97; 6312,433;  228,813;24367,164;25,20313
 362,56; 6202,313;  222,123;24060,995;25,08588
 363,15; 6184,823;  294,737;23957,851;24,89143
 363,74; 6037,894;  237,662;23645,721;24,77878
 364,34; 5963,023;  239,738;23324,576;24,79240
 364,93; 5831,361;  217,892;22939,109;24,70585
 365,52; 5735,938;  192,891;22602,468;24,73517
 366,11; 5668,789;  226,969;22335,961;24,61361
 366,71; 5528,262;  214,430;22013,384;24,37655
 367,30; 5481,088;  222,352;21647,546;24,54464
 367,89; 5472,941;  268,658;21460,408;24,55806
 368,48; 5363,838;  251,200;21201,799;24,40330
 369,07; 5303,354;  229,505;20829,245;24,63065
 369,67; 5186,980;  260,277;20648,878;24,16401
 370,26; 5118,913;  220,736;20376,785;24,30128
 370,85; 5090,772;  234,506;20121,968;24,41873
 371,44; 5067,975;  241,813;19945,086;24,49421
 372,03; 5006,574;  208,353;19773,307;24,52457
 372,63; 4967,942;  193,660;19517,739;24,70639
 373,22; 4887,682;  224,967;19254,975;24,50191
 373,81; 4846,913;  201,121;18988,468;24,72830
 374,40; 4842,141;  219,196;18787,296;24,89724
 374,99; 4786,993;  226,122;18529,273;24,91850
 375,59; 4704,213;  208,273;18256,718;24,91040
 376,18; 4746,411;  242,660;18162,390;25,13292
 376,77; 4697,122;  245,121;18035,472;25,02480
 377,36; 4728,197;  258,506;17921,314;25,30566
 377,95; 4711,129;  244,507;17660,616;25,64650
 378,55; 4645,953;  228,119;17528,406;25,53618
 379,14; 4691,261;  253,506;17506,891;25,72107
 379,73; 4685,842;  232,507;17369,001;25,98744
 380,32; 4714,907;  233,890;17444,048;26,03704
 380,91; 4654,587;  207,662;17259,454;26,07893
 381,50; 4722,439;  234,123;17212,303;26,43579
 382,10; 4713,138;  226,198;17167,125;26,48580
 382,69; 4745,840;  213,891;17171,775;26,72473
 383,28; 4817,197;  251,969;17107,921;27,08377
 383,87; 4777,019;  207,430;16945,459;27,30064
 384,46; 4802,741;  205,663;16872,676;27,58190
 385,05; 4846,657;  237,277;16895,573;27,67018
 385,64; 4898,096;  232,353;16911,884;27,97287
 386,24; 4875,490;  203,740;16868,829;28,03315
 386,83; 4948,873;  244,125;16846,250;28,33823
 387,42; 5015,271;  249,507;16948,577;28,53910
 388,01; 5127,329;  254,819;17102,084;28,92167
 388,60; 5241,742;  235,124;17268,178;29,39354
 389,19; 5313,719;  233,129;17501,568;29,42125
 389,78; 5431,389;  226,359;17678,726;29,82421
 390,37; 5666,875;  311,433;18122,707;30,06771
 390,96; 5716,789;  241,971;18184,944;30,51232
 391,56; 5794,328;  251,129;18253,601;30,79132
 392,15; 5919,730;  231,743;18501,421;31,13348
 392,74; 5965,711;  210,901;18682,579;31,15477
 393,33; 6148,072;  246,206;18928,329;31,59098
 393,92; 6353,839;  243,826;19316,299;32,03577
 394,51; 6410,909;  231,899;19480,521;32,10105
 395,10; 6564,141;  280,138;19635,383;32,46667
 395,69; 6724,471;  263,137;19766,542;33,12926
 396,28; 6819,390;  269,678;19821,217;33,49973
 396,87; 6870,701;  276,297;19937,458;33,54026
 397,46; 6996,057;  278,069;20023,477;34,02304
 398,06; 7136,160;  290,841;20210,492;34,36465
 398,65; 7198,025;  282,310;20211,051;34,70222
 399,24; 7348,203;  309,619;20402,464;35,03030
 399,83; 7359,492;  277,169;20340,226;35,30032
 400,42; 7514,086;  328,255;20560,997;35,51585
 401,01; 7603,966;  292,190;20641,873;35,93066
 401,60; 7708,691;  321,513;20678,949;36,28737
 402,19; 7811,224;  344,602;20641,510;36,78699
 402,78; 7840,527;  338,852;20613,213;37,00080
 403,37; 7848,980;  315,485;20529,885;37,26796
 403,96; 7912,722;  326,967;20384,918;37,81919
 404,55; 7946,714;  344,144;20347,433;38,00660
 405,14; 7967,403;  310,166;20218,735;38,46202
 405,73; 8024,601;  333,421;20178,585;38,75594
 406,32; 8092,515;  339,438;20154,650;39,12690
 406,91; 8051,570;  324,611;19866,927;39,53963
 407,50; 8086,678;  338,929;19721,621;39,97251
 408,09; 8090,516;  311,397;19460,606;40,62371
 408,68; 8075,354;  306,633;19344,030;40,80768
 409,27; 8100,696;  306,165;19181,040;41,29580
 409,86; 8100,731;  319,458;19099,654;41,43340
 410,45; 8235,665;  366,060;19034,327;42,15498
 411,04; 8226,329;  355,047;18942,772;42,34667
 411,63; 8219,407;  330,800;18759,861;42,80526
 412,22; 8226,877;  337,554;18649,055;43,08398
 412,81; 8196,984;  360,625;18362,441;43,53094
 413,40; 8107,931;  356,234;18048,340;43,81444
 413,99; 8086,001;  416,236;17831,555;44,04034
 414,58; 7917,900;  342,465;17567,988;43,97797
 415,17; 7880,725;  335,548;17373,903;44,28348
 415,76; 7887,466;  324,477;17144,896;44,96314
 416,35; 7888,177;  321,628;16976,996;45,43009
 416,94; 7958,228;  356,476;16937,137;45,84710
 417,53; 8099,743;  329,855;17167,945;46,14471
 418,12; 8216,027;  331,239;17215,533;46,69895
 418,71; 8478,179;  361,772;17548,188;47,22571
 419,30; 8517,657;  323,854;17690,037;47,18252
 419,89; 8672,564;  319,775;17790,546;47,81007
 420,48; 8858,240;  343,464;18010,919;48,19469
 421,07; 8951,495;  342,386;18116,313;48,43673
 421,66; 9032,057;  314,152;18093,606;49,03359
 422,25; 9109,494;  335,838;18142,382;49,27209
 422,84; 9157,515;  341,299;18160,700;49,47538
 423,43; 9087,696;  329,609;17886,718;49,88342
 424,02; 9069,874;  356,608;17737,342;50,13175
 424,60; 8906,652;  320,601;17411,167;50,23854
 425,19; 8864,550;  332,450;17129,792;50,79434
 425,78; 8909,738;  342,989;17028,026;51,34390
 426,37; 8869,326;  351,601;16867,315;51,57346
 426,96; 8911,451;  333,755;16799,931;52,09283
 427,55; 8814,858;  320,905;16661,577;51,98044
 428,14; 8832,585;  316,057;16449,245;52,78887
 428,73; 8840,391;  318,214;16369,411;53,09372
 429,32; 8848,741;  338,217;16320,889;53,24844
 429,91; 8915,177;  341,060;16369,798;53,49216
 430,50; 8895,095;  347,981;16137,160;54,13274
 431,08; 8895,759;  349,287;16017,676;54,54595
 431,67; 8907,696;  386,208;15979,767;54,64749
 432,26; 8907,140;  400,591;15853,204;55,04926
 432,85; 8798,166;  429,130;15592,354;55,19299
 433,44; 8700,670;  439,050;15364,413;55,35289
 434,03; 8580,950;  458,200;14998,865;55,86230
 434,62; 8407,007;  409,588;14610,684;56,31550
 435,21; 8345,074;  417,745;14402,049;56,68734
 435,79; 8322,269;  420,278;14308,624;56,89656
 436,38; 8308,002;  404,967;14228,421;57,17121
 436,97; 8243,530;  412,274;14135,694;57,06490
 437,56; 8204,489;  402,346;13922,198;57,70879
 438,15; 8176,091;  382,193;13861,187;57,82255
 438,74; 8247,502;  421,269;13872,037;58,18428
 439,33; 8243,086;  387,886;13874,993;58,24229
 439,91; 8304,322;  352,037;13906,896;58,66741
 440,50; 8405,080;  396,037;13936,821;59,14755
 441,09; 8449,864;  393,495;14099,999;58,77771
 441,68; 8441,834;  365,184;14044,600;59,04236
 442,27; 8476,344;  354,801;14012,552;59,46472
 442,86; 8486,060;  337,717;14054,835;59,40273
 443,44; 8542,456;  351,872;14048,363;59,80060
 444,03; 8672,489;  435,948;14172,528;59,96064
 444,62; 8577,170;  348,332;14033,720;60,12864
 445,21; 8526,053;  369,179;13903,483;60,26814
 445,80; 8530,973;  412,406;13780,397;60,73139
 446,39; 8423,631;  453,868;13664,584;60,32801
 446,97; 8344,362;  351,710;13414,540;61,18622
 447,56; 8201,989;  367,476;13310,333;60,53155
 448,15; 8171,763;  370,634;13068,578;61,43616
 448,74; 8074,578;  382,479;12892,158;61,48918
 449,33; 8023,323;  369,015;12755,406;61,79611
 449,91; 7973,271;  367,242;12602,550;62,16459
 450,50; 7863,458;  367,243;12393,082;62,33424
 451,09; 7814,464;  383,935;12337,547;62,16137
 451,68; 7788,870;  391,857;12262,290;62,31461
 452,26; 7790,989;  397,470;12157,571;62,86952
 452,85; 7728,969;  379,010;12043,294;63,01252
 453,44; 7756,286;  381,928;12083,332;63,02114
 454,03; 7740,531;  359,239;12007,425;63,36860
 454,61; 7768,976;  367,081;12032,681;63,45061
 455,20; 7900,350;  384,387;12156,194;63,84715
 455,79; 7895,995;  396,775;12106,479;64,04278
 456,38; 7976,319;  396,462;12250,868;63,94126
 456,97; 8029,368;  396,463;12316,516;64,03416
 457,55; 8059,748;  390,845;12304,032;64,37323
 458,14; 8050,257;  412,463;12335,087;64,06135
 458,73; 8065,591;  392,691;12223,457;64,85548
 459,31; 8058,610;  426,534;12280,096;64,38635
 459,90; 8167,171;  452,151;12332,852;64,93741
 460,49; 8217,123;  509,613;12401,730;64,81193
 461,08; 8215,607;  408,686;12437,299;64,90292
 461,66; 8280,719;  402,073;12567,249;64,76393
 462,25; 8324,944;  403,454;12588,117;65,01197
 462,84; 8342,450;  421,609;12620,187;64,93250
 463,43; 8304,166;  370,220;12623,412;64,75003
 464,01; 8321,126;  405,757;12604,885;64,88471
 464,60; 8382,320;  464,529;12571,250;65,39996
 465,19; 8250,894;  388,756;12424,545;65,32300
 465,77; 8227,936;  412,678;12357,058;65,43043
 466,36; 8207,178;  434,912;12289,374;65,56405
 466,95; 8026,365;  414,297;11978,223;65,82599
 467,53; 7864,469;  422,137;11800,226;65,40933
 468,12; 7785,641;  447,752;11551,114;66,08709
 468,71; 7629,993;  416,679;11336,125;66,05934
 469,29; 7444,314;  400,367;11156,963;65,48491
 469,88; 7324,408;  411,212;10905,358;65,87669
 470,47; 7402,681;  467,978;10985,802;65,93286
 471,06; 7348,199;  424,055;10981,688;65,58425
 471,64; 7429,877;  434,748;11044,220;65,93286
 472,23; 7416,767;  408,512;11059,378;65,79985
 472,81; 7495,527;  387,130;11144,820;66,07735
 473,40; 7554,556;  404,358;11217,533;66,12487
 473,99; 7762,196;  526,358;11501,918;65,92683
 474,57; 7731,345;  409,050;11461,339;66,25139
 475,16; 7877,346;  438,360;11615,363;66,55618
 475,75; 7934,264;  463,433;11776,086;66,03960
 476,33; 7984,676;  448,354;11858,873;66,04715
 476,92; 8027,688;  454,665;11859,229;66,40344
 477,51; 8020,029;  440,201;11910,096;66,08455
 478,09; 8086,770;  442,124;11997,173;66,15849
 478,68; 8044,692;  449,738;11893,834;66,36570
 479,27; 8119,078;  494,740;11953,318;66,53825
 479,85; 8037,878;  450,508;11934,602;66,06851
 480,44; 8116,598;  427,507;11975,918;66,58138
 481,02; 8782,973;  460,120;12981,625;66,46847
 481,61; 9914,229;  469,352;14708,811;66,32891
 482,20;10568,034;  455,043;15763,510;66,06142
 482,78;11084,540;  489,969;16530,068;66,05053
 483,37;11434,862;  464,886;17014,725;66,28449
 483,95;11618,682;  508,963;17232,883;66,43011
 484,54;11717,001;  502,968;17411,462;66,32190
 485,13;11646,444;  467,037;17426,056;65,92013
 485,71;11531,214;  455,115;17141,241;66,37909
 486,30;11426,724;  486,269;16955,550;66,42947
 486,88;11204,143;  554,653;16693,670;65,98599
 487,47;10794,024;  499,190;16195,867;65,58607
 488,05;10292,295;  506,497;15427,606;65,58358
 488,64; 9647,040;  474,341;14376,701;65,97944
 489,23; 8648,743;  500,573;12963,572;65,37888
 489,81; 7408,417;  502,803;11066,539;65,37094
 490,40; 6918,293;  458,649;10354,466;65,27651
 490,98; 6775,070;  436,725;10124,396;65,42692
 491,57; 6700,242;  462,496;10027,959;65,21112
 492,15; 6623,411;  447,802; 9917,861;65,21194
 492,74; 6578,555;  448,881; 9902,800;64,83738
 493,32; 6525,053;  469,802; 9814,395;64,79952
 493,91; 6457,553;  449,570; 9728,293;64,75011
 494,50; 6449,579;  446,258; 9679,862;65,01601
 495,08; 6375,408;  428,643; 9633,014;64,60806
 495,67; 6329,556;  472,185; 9578,252;64,32383
 496,25; 6270,236;  398,491; 9489,384;64,58930
 496,84; 6241,628;  416,109; 9512,673;64,04087
 497,42; 6220,546;  399,952; 9464,352;64,21379
 498,01; 6205,156;  437,108; 9453,793;63,97083
 498,59; 6137,774;  386,490; 9371,547;64,00944
 499,18; 6109,465;  393,339; 9287,218;64,27034
 499,76; 6105,066;  424,568; 9245,423;64,39849
 500,35; 5935,315;  415,949; 9113,908;63,45588
 500,93; 5892,874;  393,029; 9072,928;63,36301
 501,52; 5874,252;  386,490; 8958,662;64,01833
 502,10; 5822,960;  404,794; 8950,689;63,40081
 502,69; 5749,487;  387,254; 8864,315;63,25581
 503,27; 5664,944;  368,489; 8650,440;63,95178
 503,86; 5568,886;  392,639; 8591,426;63,13430
 504,44; 5500,672;  358,484; 8498,052;63,17520
 505,03; 5335,223;  357,792; 8276,629;62,85558
 505,61; 5309,108;  375,715; 8182,201;63,19607
 506,19; 5173,036;  381,484; 8061,205;62,39227
 506,78; 5087,723;  365,789; 7854,997;63,04984
 507,36; 4996,643;  375,869; 7714,319;62,96662
 507,95; 4915,561;  371,018; 7640,545;62,51497
 508,53; 4820,957;  369,097; 7535,150;62,12430
 509,12; 4770,697;  366,249; 7394,503;62,66774
 509,70; 4676,538;  391,172; 7298,662;62,03940
 510,29; 4588,729;  393,478; 7191,135;61,71613
 510,87; 4433,702;  349,866; 7022,534;61,20244
 511,46; 4320,328;  339,788; 6880,962;60,85359
 512,04; 4285,912;  357,094; 6728,628;61,66204
 512,62; 4213,223;  375,481; 6677,963;60,89255
 513,21; 4119,171;  341,786; 6516,175;61,17828
 513,79; 4018,980;  355,704; 6406,863;60,53842
 514,38; 3887,153;  327,167; 6279,236;59,81089
 514,96; 3884,217;  379,629; 6209,849;60,11072
 515,54; 3772,698;  333,782; 6073,357;59,91586
 516,13; 3769,594;  344,012; 5991,474;60,65700
 516,71; 3646,163;  344,472; 5877,527;59,67211
 517,30; 3558,448;  326,778; 5807,386;58,96553
 517,88; 3526,800;  352,086; 5754,270;58,76723
 518,46; 3457,147;  322,162; 5637,507;58,97989
 519,05; 3418,754;  340,238; 5601,825;58,50928
 519,63; 3387,234;  335,546; 5536,935;58,67064
 520,22; 3352,750;  356,928; 5499,494;58,25538
 520,80; 3334,366;  339,543; 5416,535;58,98814
 521,38; 3320,743;  398,699; 5437,134;57,99507
 521,97; 3240,435;  341,311; 5372,006;57,62870
 522,55; 3208,091;  346,926; 5348,352;57,20698
 523,13; 3219,762;  335,771; 5293,668;58,16965
 523,72; 3190,268;  339,777; 5276,160;57,74452
 524,30; 3253,823;  356,001; 5388,254;57,58499
 524,89; 3235,128;  317,157; 5357,816;57,88869
 525,47; 3293,785;  350,846; 5516,835;56,96757
 526,05; 3258,001;  305,692; 5526,607;56,54772
 526,64; 3340,477;  351,230; 5612,998;56,81070
 527,22; 3395,262;  350,616; 5719,181;56,71248
 527,80; 3458,408;  389,845; 5811,920;56,59388
 528,39; 3451,873;  325,460; 5872,543;56,36138
 528,97; 3513,988;  325,153; 5978,577;56,40538
 529,55; 3600,171;  335,771; 6130,053;56,33831
 530,14; 3675,673;  367,767; 6293,126;55,82626
 530,72; 3686,575;  329,306; 6366,578;55,60905
 531,30; 3745,982;  312,459; 6511,320;55,38957
 531,89; 3802,496;  330,228; 6552,628;55,80271
 532,47; 3846,490;  364,843; 6681,402;55,11936
 533,05; 3884,128;  360,153; 6677,919;55,77881
 533,63; 3883,665;  348,535; 6755,674;55,17487
 534,22; 3851,010;  324,996; 6714,482;55,18462
 534,80; 3932,024;  354,071; 6853,036;55,05421
 535,38; 4023,942;  462,151; 6950,707;54,89343
 535,97; 3914,717;  321,073; 6847,326;55,06443
 536,55; 3951,807;  397,686; 6924,884;54,45094
 537,13; 3928,989;  368,767; 6919,242;54,35060
 537,71; 3962,834;  400,767; 6942,048;54,45520
 538,30; 4013,247;  402,765; 7012,295;54,62539
 538,88; 4038,945;  439,069; 7128,972;53,81059
 539,46; 4168,757;  495,610; 7286,458;54,08967
 540,05; 4170,514;  485,762; 7347,659;53,69873
 540,63; 4284,446;  508,762; 7543,852;53,66930
 541,21; 4362,879;  526,684; 7667,785;53,71994
 541,79; 4430,239;  549,299; 7780,092;53,67240
 542,38; 4498,128;  581,916; 7875,773;53,69193
 542,96; 4566,026;  584,144; 7980,066;53,83889
 543,54; 4639,813;  604,607; 8164,629;53,37559
 544,12; 4623,095;  565,453; 8291,941;52,51599
 544,70; 4683,942;  562,605; 8385,298;52,68437
 545,29; 4752,805;  566,147; 8512,273;52,68804
 545,87; 4709,778;  578,146; 8531,707;51,94694
 546,45; 4678,250;  536,609; 8530,426;51,81055
 547,03; 4653,832;  516,762; 8591,549;51,23442
 547,62; 4664,434;  498,376; 8632,401;51,21767
 548,20; 4721,730;  516,221; 8840,064;50,52364
 548,78; 4715,666;  477,294; 8880,825;50,43561
 549,36; 4745,479;  465,448; 9026,130;49,99638
 549,94; 4768,205;  428,145; 9142,098;49,80587
 550,53; 4831,290;  439,218; 9317,086;49,47215
 551,11; 4858,799;  414,601; 9443,100;49,22410
 551,69; 4976,381;  430,756; 9739,513;48,83171
 552,27; 5001,061;  374,681; 9858,810;48,78023
 552,85; 5120,134;  388,216;10164,715;48,40095
 553,44; 5196,243;  395,525;10360,705;48,17492
 554,02; 5359,586;  403,986;10624,518;48,48671
 554,60; 5379,941;  352,755;10879,871;47,75464
 555,18; 5549,147;  388,064;11148,668;47,96276
 555,76; 5648,752;  378,832;11421,403;47,72367
 556,34; 5827,169;  380,215;11755,460;47,88428
 556,93; 5938,730;  373,217;12065,669;47,59919
 557,51; 6051,858;  341,676;12319,922;47,67127
 558,09; 6179,309;  375,679;12629,092;47,36338
 558,67; 6268,161;  361,136;12942,700;46,94985
 559,25; 6345,527;  382,599;13158,233;46,67423
 559,83; 6443,719;  356,905;13401,977;46,65988
 560,41; 6555,730;  347,907;13674,225;46,58318
 561,00; 6682,032;  369,906;13965,624;46,42731
 561,58; 6711,146;  352,985;14149,608;46,08491
 562,16; 6810,374;  341,216;14381,370;46,07612
 562,74; 6922,315;  325,448;14690,480;45,92309
 563,32; 7062,363;  324,674;15052,900;45,74678
 563,90; 7190,866;  347,444;15327,277;45,68423
 564,48; 7314,214;  363,677;15664,760;45,42513
 565,06; 7463,954;  342,675;16147,122;45,05871
 565,65; 7704,135;  355,134;16690,722;44,98767
 566,23; 7973,915;  405,059;17315,816;44,75764
 566,81; 8173,555;  340,368;17892,079;44,62920
 567,39; 8465,045;  348,058;18582,558;44,51445
 567,97; 8652,937;  385,752;19137,351;44,08789
 568,55; 8973,188;  409,597;19795,822;44,17359
 569,13; 9123,988;  357,598;20353,817;43,84024
 569,71; 9455,479;  324,832;21192,523;43,75495
 570,29; 9803,208;  404,218;22011,707;43,49876
 570,87;10043,073;  383,448;22564,174;43,54963
 571,45;10189,218;  367,137;23067,776;43,26786
 572,03;10296,026;  315,211;23468,330;43,10786
 572,61;10549,128;  319,828;24101,783;43,01286
 573,20;10767,494;  353,368;24631,384;42,89529
 573,78;10950,606;  330,674;25093,400;42,88676
 574,36;11078,924;  352,674;25566,896;42,54047
 574,94;11238,238;  417,134;25892,718;42,47637
 575,52;11223,061;  325,209;26073,775;42,32411
 576,10;11417,336;  389,979;26511,306;42,21592
 576,68;11562,605;  359,288;27011,137;42,03579
 577,26;11716,680;  381,900;27596,784;41,64919
 577,84;11905,236;  387,059;28050,013;41,63755
 578,42;12028,682;  442,595;28272,915;41,63117
 579,00;11932,080;  368,751;28402,900;41,24730
 579,58;12000,838;  418,596;28528,295;41,20372
 580,16;11939,780;  363,825;28536,803;41,08886
 580,74;12016,182;  365,287;28735,573;41,06724
 581,32;11972,490;  360,441;28727,990;40,93427
 581,90;11912,412;  396,441;28727,533;40,64782
 582,48;11896,792;  376,287;28789,380;40,54647
 583,06;11826,307;  358,903;28904,719;40,17193
 583,64;11885,829;  358,288;28896,794;40,39294
 584,22;11717,410;  383,208;28848,125;39,81815
 584,80;11592,293;  382,672;28643,531;39,66483
 585,38;11459,059;  389,292;28189,805;39,81857
 585,96;11368,101;  343,289;28262,787;39,48786
 586,54;11363,559;  374,362;28201,276;39,49125
 587,12;11276,535;  352,056;28306,538;39,07953
 587,70;11319,195;  385,289;28397,943;39,03203
 588,28;11273,025;  344,825;28413,307;38,93406
 588,86;11231,707;  364,670;28510,119;38,61028
 589,44;11162,242;  328,591;28561,562;38,37234
 590,02;11196,953;  341,899;28762,210;38,19470
 590,59;11164,344;  325,209;28738,852;38,14764
 591,17;11230,085;  348,050;28948,390;38,04862
 591,75;11139,440;  323,282;28960,993;37,76893
 592,33;11129,025;  352,283;29278,410;37,25608
 592,91;11159,820;  294,281;29389,885;37,34426
 593,49;11126,302;  314,203;29615,740;36,89943
 594,07;11227,010;  330,742;29880,086;36,87482
 594,65;11169,997;  350,439;29820,624;36,71357
 595,23;11199,867;  336,669;30113,248;36,48236
 595,81;11183,967;  331,976;30218,176;36,31104
 596,39;11135,498;  325,975;30360,793;35,98997
 596,97;11141,796;  311,666;30557,269;35,80729
 597,55;11074,865;  312,515;30399,859;35,77036
 598,12;10962,555;  294,202;30422,591;35,40964
 598,70;11030,222;  295,281;30555,773;35,47511
 599,28;11049,336;  332,127;30678,273;35,31654
 599,86;10936,870;  313,050;30722,849;34,93551
 600,44;10914,095;  272,434;30806,315;34,85198
 601,02;10912,174;  346,123;30836,916;34,65325
 601,60;10854,270;  319,205;30796,416;34,56703
 602,18;10756,332;  282,664;30779,590;34,34336
 602,75;10702,796;  288,899;30865,636;34,05823
 603,33;10671,206;  306,819;30873,889;33,90704
 603,91;10613,021;  283,278;30885,369;33,75502
 604,49;10614,932;  307,665;30881,390;33,71283
 605,07;10580,930;  317,359;30994,608;33,45662
 605,65;10520,659;  315,588;31052,279;33,20159
 606,23;10547,691;  345,978;31160,773;33,10654
 606,80;10544,618;  355,514;31216,713;33,01590
 607,38;10520,282;  363,663;31197,250;32,94012
 607,96;10519,864;  390,130;31345,905;32,72325
 608,54;10507,557;  435,818;31378,740;32,54941
 609,12;10446,808;  427,668;31435,059;32,31210
 609,70;10487,234;  435,281;31411,463;32,45059
 610,27;10404,183;  419,745;31498,749;32,12599
 610,85;10405,727;  459,897;31566,539;31,97333
 611,43;10359,287;  442,050;31444,196;31,98887
 612,01;10289,071;  406,052;31433,067;31,85295
 612,59;10197,375;  413,435;31332,348;31,64387
 613,16;10166,896;  400,208;31300,741;31,60686
 613,74;10019,089;  383,358;31201,927;31,26599
 614,32; 9994,424;  381,049;31156,741;31,23691
 614,90; 9830,332;  373,743;31048,957;30,82811
 615,48; 9729,954;  347,208;30851,821;30,75845
 616,05; 9661,859;  319,901;30803,662;30,64569
 616,63; 9547,917;  341,363;30677,425;30,34855
 617,21; 9496,710;  331,515;30568,403;30,31130
 617,79; 9402,623;  319,129;30588,485;30,00888
 618,36; 9335,213;  331,975;30408,377;29,93456
 618,94; 9161,546;  265,207;30145,323;29,77344
 619,52; 9105,096;  307,055;29994,081;29,63598
 620,10; 9012,254;  275,591;29947,944;29,44378
 620,67; 8890,031;  293,517;29842,233;29,09268
 621,25; 8876,643;  309,513;29745,916;29,10386
 621,83; 8802,866;  283,515;29690,669;28,97034
 622,41; 8816,283;  350,977;29726,591;28,81746
 622,98; 8674,010;  314,671;29382,386;28,75816
 623,56; 8616,037;  318,671;29483,345;28,45006
 624,14; 8505,034;  296,281;29283,806;28,31823
 624,72; 8445,125;  303,669;29263,515;28,11291
 625,29; 8395,689;  287,056;29333,230;27,91636
 625,87; 8371,417;  335,052;29264,793;27,77890
 626,45; 8229,518;  284,056;29152,342;27,52315
 627,02; 8163,422;  293,744;29046,679;27,37000
 627,60; 8105,342;  267,511;29045,507;27,23550
 628,18; 8038,347;  262,899;29089,675;26,97300
 628,76; 8010,873;  258,055;29139,542;26,84356
 629,33; 8001,548;  307,285;29056,934;26,76298
 629,91; 7900,254;  277,514;29023,175;26,51788
 630,49; 7917,182;  304,593;29225,084;26,32248
 631,06; 7917,594;  287,055;29224,120;26,36943
 631,64; 7827,996;  289,210;29211,113;26,06601
 632,22; 7745,733;  264,826;29152,413;25,89662
 632,79; 7784,847;  292,057;29366,452;25,77110
 633,37; 7754,528;  265,667;29387,606;25,71553
 633,95; 7676,124;  284,595;29426,765;25,36369
 634,52; 7666,987;  274,054;29646,937;25,16925
 635,10; 7608,111;  286,976;29565,404;25,00522
 635,68; 7595,053;  287,134;29761,836;24,79387
 636,25; 7579,825;  263,904;29705,248;24,84914
 636,83; 7592,719;  253,901;29912,080;24,74467
 637,41; 7533,534;  273,596;29828,910;24,56390
 637,98; 7578,772;  306,673;30037,063;24,46015
 638,56; 7507,463;  279,366;30170,244;24,18161
 639,13; 7453,900;  257,902;30144,270;24,07786
 639,71; 7570,963;  341,593;30305,928;24,12658
 640,29; 7357,818;  232,439;30073,417;23,87783
 640,86; 7358,119;  261,132;30333,564;23,59965
 641,44; 7276,344;  266,747;30277,866;23,35667
 642,02; 7315,877;  290,055;30228,706;23,46740
 642,59; 7285,563;  250,901;30405,468;23,32868
 643,17; 7235,788;  257,439;30435,231;23,12412
 643,74; 7176,859;  254,670;30417,994;22,94903
 644,32; 7146,853;  278,593;30401,988;22,80042
 644,89; 7109,924;  278,208;30386,520;22,69046
 645,47; 7069,764;  288,823;30405,052;22,51590
 646,05; 7026,296;  281,823;30394,892;22,39716
 646,62; 6945,521;  263,746;30275,962;22,26352
 647,20; 6930,900;  269,823;30494,802;22,03832
 647,77; 6815,663;  241,131;30418,719;21,78614
 648,35; 6805,965;  231,438;30305,712;21,86097
 648,92; 6738,497;  264,130;30254,168;21,58839
 649,50; 6677,645;  237,207;30278,930;21,43831
 650,08; 6604,716;  230,284;30135,001;21,31581
 650,65; 6582,402;  252,284;30321,841;21,05159
 651,23; 6664,012;  218,515;30809,373;21,07001
 651,80; 6775,314;  227,207;31718,213;20,79358
 652,38; 6828,077;  250,130;32069,668;20,67267
 652,95; 6854,763;  231,515;32456,431;20,55319
 653,53; 6829,911;  245,514;32679,040;20,30121
 654,10; 6898,982;  283,899;32812,418;20,33626
 654,68; 6806,745;  231,745;32669,335;20,26969
 655,25; 6708,047;  224,822;32728,790;19,94595
 655,83; 6715,810;  231,437;32816,630;19,89975
 656,40; 6716,804;  273,360;32820,469;19,79729
 656,98; 6632,875;  241,206;32834,232;19,61054
 657,55; 6556,869;  243,052;32723,995;19,43853
 658,13; 6479,402;  241,821;32366,143;19,41700
 658,70; 6396,011;  268,129;32158,367;19,21554
 659,28; 6214,544;  240,129;31474,361;19,12778
 659,85; 6028,461;  274,667;30820,585;18,83654
 660,43; 5949,839;  259,744;30682,117;18,70365
 661,00; 5944,833;  252,590;30825,957;18,61831
 661,58; 5928,827;  236,898;31013,335;18,49444
 662,15; 5890,206;  235,744;31192,098;18,26592
 662,73; 5951,508;  308,821;31424,015;18,13483
 663,30; 5938,425;  241,975;31621,701;18,15328
 663,88; 5894,650;  249,898;31646,540;17,97884
 664,45; 5904,490;  241,667;31939,842;17,86482
 665,03; 5903,176;  231,820;32257,758;17,70863
 665,60; 6001,862;  341,743;32606,598;17,54268
 666,17; 5919,318;  246,897;32631,207;17,51595
 666,75; 5903,697;  243,282;32926,739;17,31890
 667,32; 5944,691;  266,359;33298,194;17,19048
 667,90; 5872,454;  257,589;33444,803;16,91876
 668,47; 5902,756;  274,743;33657,797;16,85889
 669,05; 5940,211;  239,435;33942,791;16,91456
 669,62; 5863,667;  224,666;33967,169;16,71186
 670,19; 5880,122;  222,974;34069,778;16,71398
 670,77; 5866,963;  253,666;34231,233;16,52060
 671,34; 5831,110;  242,281;34088,534;16,51240
 671,92; 5822,489;  229,973;34483,913;16,32664
 672,49; 5840,252;  259,281;34460,368;16,31811
 673,06; 5779,862;  209,435;34466,515;16,26066
 673,64; 5765,779;  226,281;34473,509;16,17503
 674,21; 5711,773;  212,204;34427,349;16,07349
 674,79; 5744,613;  258,742;34672,035;15,94114
 675,36; 5730,684;  255,127;34711,567;15,89124
 675,93; 5679,370;  207,204;34592,407;15,91431
 676,51; 5668,287;  247,511;34809,169;15,68436
 677,08; 5637,204;  243,280;34850,932;15,58593
 677,65; 5593,045;  246,434;34861,234;15,44602
 678,23; 5611,577;  245,665;35089,458;15,39991
 678,80; 5567,417;  230,434;35136,375;15,28961
 679,38; 5580,411;  233,588;35252,830;15,26824
 679,95; 5596,328;  249,357;35525,054;15,15766
 680,52; 5557,476;  234,203;35772,356;14,97904
 681,10; 5613,624;  258,818;36171,888;14,91047
 681,67; 5666,926;  251,357;36259,035;15,04004
 682,24; 5587,766;  206,280;36386,260;14,87421
 682,82; 5596,914;  237,741;36745,792;14,67943
 683,39; 5682,985;  283,433;37066,016;14,67964
 683,96; 5628,210;  247,895;37278,856;14,52923
 684,54; 5619,819;  213,895;37639,850;14,44432
 685,11; 5655,890;  290,356;37925,074;14,25687
 685,68; 5665,269;  238,664;38169,837;14,30645
 686,25; 5639,878;  221,356;38295,369;14,23155
 686,83; 5665,257;  231,664;38387,593;14,24049
 687,40; 5632,866;  218,971;38711,741;14,06471
 687,97; 5741,552;  273,279;39111,427;14,07965
 688,55; 5634,777;  216,971;39122,190;13,92565
 689,12; 5626,925;  213,663;39254,952;13,86548
 689,69; 5651,381;  213,509;39285,254;13,91766
 690,26; 5611,836;  227,355;39464,632;13,72287
 690,84; 5614,292;  218,586;39549,241;13,71883
 691,41; 5678,978;  244,048;39679,081;13,78199
 691,98; 5650,818;  241,124;40035,767;13,59403
 692,56; 5630,582;  221,817;39923,683;13,62345
 693,13; 5636,422;  276,047;40073,985;13,46898
 693,70; 5625,954;  250,739;40198,978;13,45545
 694,27; 5623,871;  221,970;40273,972;13,48722
 694,84; 5614,096;  227,739;40409,196;13,40508
 695,42; 5771,167;  363,047;40562,498;13,45322
 695,99; 5623,700;  238,201;40668,261;13,32053
 696,56; 5578,155;  229,278;40425,177;13,30702
 697,13; 5600,688;  250,893;40928,094;13,15183
 697,71; 5574,451;  237,354;40919,011;13,11917
 698,28; 5588,522;  233,970;41056,697;13,11660
 698,85; 5565,747;  206,970;41095,767;13,10573
 699,42; 5564,356;  210,354;41349,915;13,01424
 699,99; 5583,273;  255,816;41336,447;12,96830
 700,57; 5602,498;  249,123;41415,440;13,00426
 701,14; 5576,415;  224,969;41550,203;12,94958
 701,71; 5587,024;  251,892;41730,889;12,86225
 702,28; 5554,403;  223,277;41843,883;12,80886
 702,85; 5572,936;  231,584;41842,876;12,83630
 703,43; 5599,468;  252,430;42044,947;12,79425
 704,00; 5587,308;  264,353;42261,787;12,67448
 704,57; 5573,533;  232,969;42225,319;12,71795
 705,14; 5580,912;  260,122;42461,928;12,60797
 705,71; 5561,675;  269,507;42584,152;12,50671
 706,28; 5556,977;  240,353;42407,146;12,60856
 706,86; 5587,971;  267,199;42609,524;12,56608
 707,43; 5611,657;  291,507;42608,672;12,57209
 708,00; 5590,343;  272,430;42597,050;12,56459
 708,57; 5540,876;  234,353;42547,890;12,54096
 709,14; 5544,254;  253,045;42677,652;12,47203
 709,71; 5570,556;  234,583;42723,492;12,55851
 710,28; 5580,319;  249,891;42956,101;12,48162
 710,86; 5534,467;  242,199;43044,941;12,36432
 711,43; 5610,461;  281,122;43032,704;12,46583
 712,00; 5558,455;  244,814;43090,159;12,40191
 712,57; 5571,680;  273,968;43237,537;12,33071
 713,14; 5530,366;  250,737;43336,454;12,25378
 713,71; 5577,284;  267,814;43246,371;12,35377
 714,28; 5545,508;  249,583;43236,134;12,31996
 714,85; 5489,579;  233,813;43089,127;12,26398
 715,42; 5533,189;  242,736;43212,505;12,31203
 716,00; 5616,260;  330,044;43356,730;12,28590
 716,57; 5550,484;  245,505;43522,647;12,25815
 717,14; 5517,786;  235,352;43316,486;12,26160
 717,71; 5492,396;  216,275;43472,172;12,19746
 718,28; 5615,236;  284,967;43603,320;12,30487
 718,85; 5514,999;  212,121;43541,621;12,23849
 719,42; 5630,839;  246,736;43593,461;12,42102
 719,99; 5545,218;  228,890;43414,147;12,31052
 720,56; 5607,443;  266,813;43777,140;12,27440
 721,13; 5578,591;  221,889;43855,211;12,27663
 721,70; 5606,046;  232,889;43612,358;12,38641
 722,27; 5605,732;  257,812;43730,814;12,30170
 722,84; 5729,803;  316,120;43911,577;12,41800
 723,41; 5633,567;  223,120;43891,032;12,38998
 723,98; 5664,407;  233,427;43995,487;12,41025
 724,55; 5728,862;  260,274;44173,942;12,45304
 725,12; 5650,779;  200,504;44037,474;12,43306
 725,69; 5700,773;  243,581;44181,468;12,42024
 726,27; 5707,152;  226,658;44316,308;12,43034
 726,84; 5800,992;  245,735;44467,840;12,56217
 727,41; 5808,448;  256,889;44551,833;12,53317
 727,98; 5849,211;  257,042;44802,596;12,55382
 728,55; 5874,436;  297,196;44755,128;12,54498
 729,12; 5867,584;  226,119;44790,891;12,65902
 729,69; 5882,270;  263,811;44922,500;12,58089
 730,26; 5920,033;  254,350;45143,724;12,62144
 730,82; 5898,412;  253,888;45098,103;12,58696
 731,39; 5924,944;  245,965;45088,019;12,66441
 731,96; 5983,939;  222,888;45360,090;12,76342
 732,53; 6023,240;  252,195;45507,699;12,75214
 733,10; 6076,542;  263,426;45678,770;12,79989
 733,67; 6093,613;  250,041;45739,840;12,84589
 734,24; 6051,992;  237,195;45466,218;12,85634
 734,81; 6114,601;  282,195;45622,827;12,86353
 735,38; 6088,518;  258,041;45525,744;12,87999
 735,95; 6093,512;  263,272;45320,276;12,93970
 736,52; 6104,121;  247,426;45478,501;12,94839
 737,09; 6084,269;  268,426;45200,725;12,94357
 737,66; 6183,263;  318,887;45480,103;12,98543
 738,23; 6142,027;  257,349;45489,405;13,00997
 738,80; 6280,636;  338,964;45834,783;13,05982
 739,37; 6276,476;  289,348;45843,315;13,14293
 739,94; 6306,932;  258,810;45876,616;13,25825
 740,51; 6439,080;  420,348;46032,610;13,19542
 741,07; 6322,535;  262,348;46013,988;13,24584
 741,64; 6369,222;  285,502;46088,443;13,28238
 742,21; 6379,369;  268,117;46098,437;13,33452
 742,78; 6369,363;  239,579;45969,200;13,40441
 743,35; 6420,204;  265,886;46198,963;13,39844
 743,92; 6563,813;  326,117;46355,341;13,55160
 744,49; 6611,115;  314,348;46251,334;13,70740
 745,06; 6550,263;  260,886;46256,482;13,67387
 745,63; 6551,103;  242,655;46212,937;13,72288
 746,19; 6592,635;  266,040;46279,700;13,74939
 746,76; 6608,091;  269,270;46202,540;13,80006
 747,33; 6630,393;  272,578;46311,072;13,80978
 747,90; 6707,310;  277,501;46478,065;13,91716
 748,47; 6703,073;  275,116;46369,367;13,94525
 749,04; 6720,528;  277,501;46429,822;13,96035
 749,61; 6772,984;  314,501;46430,123;14,00498
 750,17; 6790,132;  287,885;46419,040;14,09513
 750,74; 6774,203;  287,577;46394,187;14,06875
 751,31; 6821,812;  247,424;46338,335;14,26396
 751,88; 6828,268;  245,962;46223,559;14,31633
 752,45; 6857,416;  260,500;46379,168;14,30422
 753,02; 6941,948;  281,039;46202,623;14,50496
 753,58; 6926,865;  258,192;46049,848;14,56307
 754,15; 6990,090;  261,115;46249,380;14,63194
 754,72; 6942,623;  250,346;46024,835;14,62010
 755,29; 6975,078;  258,115;45829,060;14,73957
 755,86; 7026,226;  278,192;45989,361;14,76233
 756,42; 7050,066;  281,038;45922,278;14,83095
 756,99; 7062,983;  234,115;45845,271;14,97193
 757,56; 7115,823;  241,577;45842,726;15,07472
 758,13; 7110,202;  194,653;45746,258;15,18179
 758,70; 7253,581;  244,576;45813,406;15,38114
 759,26; 7260,421;  227,269;45909,323;15,39588
 759,83; 7319,800;  244,345;45917,470;15,49150
 760,40; 7324,332;  217,115;45844,541;15,57663
 760,97; 7308,865;  213,653;45946,611;15,51444
 761,53; 7365,320;  201,191;45538,297;15,80191
 762,10; 7322,160;  200,191;45633,829;15,67554
 762,67; 7402,385;  229,345;45480,900;15,85148
 763,24; 7340,918;  178,960;45142,740;15,92828
 763,80; 7449,219;  220,576;45303,426;16,03413
 764,37; 7453,521;  223,422;45338,419;16,02593
 764,94; 7422,515;  217,345;44805,413;16,15941
 765,50; 7462,124;  217,114;44845,868;16,23395
 766,07; 7541,272;  254,191;44927,939;16,31178
 766,64; 7457,574;  233,191;44698,548;16,24722
 767,21; 7553,491;  241,114;44582,926;16,49093
 767,77; 7564,485;  244,190;44542,304;16,52507
 768,34; 7560,018;  257,498;44448,682;16,52483
 768,91; 7632,319;  266,190;44302,984;16,72721
 769,47; 7655,313;  256,575;44390,746;16,76419
 770,04; 7675,846;  263,652;44253,663;16,84972
 770,61; 7669,532;  234,959;43964,349;17,00132
 771,18; 7707,603;  240,267;43998,112;17,06514
 771,74; 7755,366;  255,498;44062,490;17,12025
 772,31; 7765,207;  271,344;43868,561;17,18886
 772,88; 7759,970;  235,882;43699,785;17,31112
 773,44; 7794,810;  234,343;43574,317;17,44456
 774,01; 7882,419;  275,574;43676,695;17,52684
 774,58; 7858,952;  235,805;43413,381;17,65534
 775,14; 7966,100;  238,420;43453,375;17,88196
 775,71; 7967,786;  234,035;43417,446;17,90908
 776,27; 8049,472;  313,882;43282,978;18,00268
 776,84; 8159,774;  366,805;43421,894;18,10000
 777,41; 8080,460;  264,958;43214,965;18,19674
 777,97; 8050,301;  250,497;42939,420;18,27126
 778,54; 8132,141;  260,112;42996,260;18,42007
 779,11; 8168,596;  288,727;42979,946;18,45782
 779,67; 8209,283;  268,419;42977,324;18,59299
 780,24; 8235,354;  265,189;42792,087;18,74147
 780,80; 8300,809;  269,035;42735,465;18,91323
 781,37; 8354,342;  285,342;42748,228;19,00248
 781,94; 8353,028;  267,881;42466,222;19,15987
 782,50; 8380,253;  267,342;42478,831;19,21967
 783,07; 8423,708;  286,573;42588,055;19,23605
 783,63; 8456,549;  257,496;42370,895;19,46899
 784,20; 8537,081;  295,803;42269,658;19,63431
 784,77; 8510,075;  261,111;42054,805;19,73734
 785,33; 8531,300;  240,034;42003,260;19,85303
 785,90; 8598,294;  256,957;41958,408;20,00251
 786,46; 8579,673;  286,957;41880,325;19,93759
 787,03; 8636,744;  260,341;41802,472;20,16363
 787,59; 8732,507;  259,726;41700,927;20,44531
 788,16; 8728,808;  274,418;41620,844;20,44769
 788,73; 8770,341;  274,034;41597,453;20,56051
 789,29; 8713,412;  251,110;41260,908;20,63483
 789,86; 8835,867;  295,495;41199,056;20,87929
 790,42; 8829,938;  271,341;40958,818;21,03497
 790,99; 8814,625;  272,341;40754,966;21,10111
 791,55; 8843,850;  261,879;40746,421;21,19814
 792,12; 8871,536;  306,956;40708,645;21,19857
 792,68; 8845,684;  277,033;40461,408;21,32334
 793,25; 8871,678;  285,494;40209,171;21,50649
 793,81; 8959,979;  366,571;39938,011;21,71619
 794,38; 8832,204;  244,033;39787,620;21,71824
 794,94; 8822,044;  261,494;39647,383;21,73507
 795,51; 8899,269;  273,648;39460,069;22,01176
 796,07; 8845,648;  273,879;39260,832;21,98625
 796,64; 8929,180;  291,032;39409,210;22,08218
 797,20; 8860,482;  286,494;38950,588;22,17558
 797,77; 8820,630;  231,878;38631,659;22,36667
 798,33; 8880,086;  261,417;38575,345;22,49487
 798,90; 8881,926;  280,878;38519,877;22,49287
 799,46; 8871,535;  255,032;38056,409;22,79415
 800,03; 8851,606;  269,340;38048,556;22,71690
 800,59; 8904,600;  281,416;37944,165;22,89579
 801,15; 8931,286;  289,032;37662,851;23,12382
 801,72; 8875,280;  270,109;37398,383;23,17687
 802,28; 8881,967;  292,570;37212,685;23,26482
 802,85; 8904,115;  274,493;36984,986;23,50723
 803,41; 8897,955;  276,570;36836,980;23,58120
 803,98; 8850,641;  262,185;36430,973;23,74549
 804,54; 8840,481;  266,954;36340,582;23,76674
 805,11; 8835,091;  279,262;36156,345;23,84762
 805,67; 8955,469;  303,723;36007,339;24,23213
 806,23; 8839,233;  280,493;35717,871;24,15173
 806,80; 8895,996;  291,108;35601,403;24,36935
 807,36; 8911,144;  299,339;35624,089;24,37896
 807,93; 8948,599;  308,108;35394,313;24,62646
 808,49; 8885,747;  271,338;35077,230;24,74986
 809,05; 8886,741;  253,800;34892,993;24,92247
 809,62; 8919,504;  285,877;34816,679;25,00269
 810,18; 8916,422;  269,338;34789,826;25,04913
 810,74; 8919,954;  239,415;34568,589;25,28619
 811,31; 8903,487;  256,953;34472,121;25,27105
 811,87; 8963,634;  280,184;34216,269;25,58766
 812,44; 9045,859;  294,953;34357,416;25,69076
 813,00; 8942,469;  222,953;34017,641;25,80144
 813,56; 9075,617;  276,107;34080,173;26,03092
 814,13; 9054,072;  279,030;34023,166;26,00464
 814,69; 9066,605;  251,876;33879,160;26,21303
 815,25; 9009,214;  227,722;33471,154;26,41572
 815,82; 9092,054;  277,645;33500,147;26,53144
 816,38; 9174,740;  313,568;33346,372;26,82537
 816,94; 9053,581;  237,953;33033,134;26,88086
 817,51; 9078,113;  235,106;32749,128;27,19752
 818,07; 9096,030;  252,568;32706,814;27,24902
 818,63; 9140,178;  259,183;32416,269;27,61754
 819,20; 9086,557;  265,798;32452,263;27,40518
 819,76; 9054,628;  237,721;32109,564;27,66362
 820,32; 9112,391;  282,183;32075,173;27,77407
 820,89; 9102,693;  268,337;31837,859;27,98381
 821,45; 9102,610;  251,952;31549,007;28,27952
 822,01; 9138,604;  270,798;31403,616;28,48379
 822,57; 9167,982;  274,106;31264,225;28,69907
 823,14; 9131,207;  230,798;31097,295;28,83518
 823,70; 9088,201;  243,028;30937,212;28,81710
 824,26; 9045,503;  249,259;30755,975;28,83379
 824,82; 9173,343;  284,721;30647,661;29,27458
 825,39; 9066,337;  246,105;30400,577;29,25016
 825,95; 9165,562;  263,874;30414,263;29,52429
 826,51; 9108,325;  267,874;30120,488;29,61366
 827,08; 9187,550;  296,874;30146,327;29,78505
 827,64; 9122,467;  284,643;29959,552;29,78214
 828,20; 9108,923;  245,182;29785,007;30,00607
 828,76; 9168,532;  290,259;29812,385;30,07329
 829,32; 9135,603;  298,335;29650,456;30,10777
 829,89; 9151,828;  241,105;29518,142;30,43588
 830,45; 9242,976;  276,643;29463,674;30,72026
 831,01; 9205,893;  271,951;29353,052;30,72078
 831,57; 9252,425;  270,489;29269,430;30,97333
 832,14; 9225,573;  256,335;29244,193;30,94136
 832,70; 9195,259;  244,181;28954,418;31,17731
 833,26; 9222,792;  220,027;28888,565;31,40294
 833,82; 9243,632;  261,565;28903,713;31,35961
 834,38; 9279,472;  250,719;28807,091;31,61730
 834,95; 9330,774;  243,565;28727,392;31,90305
 835,51; 9255,383;  218,181;28604,463;31,83651
 836,07; 9398,916;  249,104;28714,764;32,14333
 836,63; 9493,372;  281,257;28682,527;32,43557
 837,19; 9432,673;  269,257;28549,982;32,40163
 837,75; 9368,436;  221,642;28266,437;32,61495
 838,32; 9509,815;  284,719;28343,585;32,87765
 838,88; 9514,194;  282,488;28406,809;32,82464
 839,44; 9562,495;  273,488;28302,880;33,14024
 840,00; 9589,951;  259,949;28280,642;33,29683
 840,56; 9594,022;  243,103;28033,021;33,64860
 841,12; 9566,170;  239,488;27914,476;33,70076
 841,68; 9512,087;  231,334;27790,469;33,67578
 842,25; 9610,235;  248,026;27896,155;33,86200
 842,81; 9630,152;  241,718;27616,688;34,29569
 843,37; 9605,146;  232,026;27647,758;34,18884
 843,93; 9709,217;  255,487;27594,059;34,58019
 844,49; 9764,057;  262,872;27645,822;34,69745
 845,05; 9762,743;  210,025;27405,047;35,12672
 845,61; 9805,661;  268,718;27456,886;35,07755
 846,17; 9749,116;  238,871;27339,342;35,09254
 846,73; 9828,418;  254,948;27315,028;35,37857
 847,29; 9819,950;  236,102;27138,637;35,62433
 847,86; 9846,252;  241,948;27111,861;35,74371
 848,42; 9828,938;  242,794;26990,393;35,83927
 848,98; 9818,625;  263,486;26910,387;35,85835
 849,54; 9908,465;  252,563;26995,765;36,10600
 850,10; 9905,843;  266,179;26909,682;36,18017
 850,66; 9916,991;  235,563;26666,829;36,62870
 851,22; 9937,216;  226,717;26607,592;36,80886
 851,78;10000,749;  285,178;26678,355;36,81092
 852,34; 9943,358;  269,640;26529,195;36,83885
 852,90; 9982,814;  248,870;26495,034;37,08711
 853,46; 9935,192;  238,563;26244,028;37,28689
 854,02;10004,956;  254,409;26301,252;37,43466
 854,58; 9943,565;  250,870;26099,554;37,49783
 855,14; 9930,790;  239,562;26025,470;37,58342
 855,70; 9947,014;  212,947;25916,464;37,87057
 856,26; 9961,316;  256,947;25867,150;37,89259
 856,82; 9972,618;  253,870;25749,374;38,11946
 857,38;10000,843;  302,254;25675,906;38,22307
 857,94; 9895,144;  248,716;25611,362;38,03400
 858,50; 9963,985;  274,254;25480,586;38,44165
 859,06; 9930,979;  243,331;25218,503;38,78911
 859,62;10004,434;  271,946;25298,035;38,88937
 860,18; 9946,121;  252,100;25060,721;39,07521
 860,74; 9956,345;  216,562;25002,714;39,29526
 861,30; 9959,493;  246,869;24816,708;39,53068
 861,86;10048,180;  319,946;24890,625;39,59286
 862,42; 9941,097;  240,715;24682,695;39,68738
 862,98;10019,398;  291,869;24688,997;39,87162
 863,54; 9980,931;  249,023;24474,760;40,17177
 864,10;10041,463;  253,253;24526,907;40,32442
 864,66; 9904,073;  218,176;24366,362;40,11024
 865,22; 9915,067;  255,022;24190,125;40,35932
 865,78; 9909,061;  248,253;24193,811;40,34488
 866,34; 9935,209;  238,253;24092,112;40,65152
 866,90; 9915,510;  251,791;23978,798;40,72877
 867,45; 9936,581;  243,253;23773,330;41,19548
 868,01; 9908,191;  257,868;23686,862;41,18966
 868,57; 9847,031;  239,714;23600,087;41,12656
 869,13; 9836,102;  237,330;23485,080;41,28904
 869,69; 9897,557;  233,406;23371,305;41,76763
 870,25; 9871,936;  220,022;23242,145;41,92452
 870,81; 9954,469;  241,099;23242,754;42,22900
 871,37; 9944,539;  257,175;23147,440;42,32089
 871,93; 9968,534;  275,175;23046,818;42,56767
 872,49; 9967,451;  300,406;22873,273;42,82595
 873,04; 9896,752;  226,867;22713,420;43,00297
 873,60; 9913,900;  230,867;22635,029;43,21979
 874,16; 9891,433;  261,790;22568,177;43,16989
 874,72; 9927,048;  232,098;22491,946;43,55353
 875,28; 9951,279;  246,329;22428,408;43,75131
 875,84; 9990,740;  250,406;22390,869;43,99336
 876,40; 9984,202;  237,252;22352,946;44,07255
 876,95; 9972,048;  265,637;22299,792;44,05166
 877,51;10091,202;  283,637;22322,254;44,50173
 878,07;10144,817;  297,252;22311,331;44,73303
 878,63;10150,356;  254,483;22296,177;44,89615
 879,19;10211,510;  270,098;22358,331;45,00773
 879,75;10192,894;  247,252;22321,638;45,05512
 880,30;10261,125;  239,406;22373,638;45,27701
 880,86;10379,663;  292,637;22521,562;45,37793
 881,42;10372,740;  232,021;22510,946;45,51709
 881,98;10415,048;  264,406;22569,638;45,50790
 882,54;10472,587;  254,098;22638,485;45,65007
 883,09;10599,587;  268,483;22714,408;46,02663
 883,65;10642,817;  227,406;22761,638;46,22040
 884,21;10757,510;  280,944;22960,177;46,19453
 884,77;10766,356;  238,483;22999,715;46,25353
 885,32;10905,125;  249,329;23011,638;46,81333
 885,88;11011,817;  288,098;23216,792;46,76986
 886,44;11035,202;  257,637;23296,715;46,77950
 887,00;11087,740;  278,252;23317,638;46,91743
 887,56;11165,356;  247,867;23393,946;47,16777
 888,11;11215,663;  256,098;23412,254;47,32895
 888,67;11343,817;  274,790;23560,715;47,53527
 889,23;11380,817;  260,483;23537,869;47,77312
 889,79;11307,433;  236,560;23478,177;47,63383
 890,34;11376,510;  261,637;23438,869;47,95600
 890,90;11446,663;  335,252;23556,100;47,85102
 891,46;11469,740;  251,944;23515,331;48,22082
 892,01;11453,202;  271,637;23481,408;48,17611
 892,57;11492,510;  290,867;23462,100;48,34288
 893,13;11441,279;  254,637;23253,715;48,63952
 893,69;11494,971;  233,175;23210,254;49,01318
 894,24;11485,356;  247,098;23140,023;49,09053
 894,80;11496,663;  248,944;23016,946;49,40143
 895,36;11471,971;  252,713;22917,177;49,50154
 895,91;11415,663;  247,560;22825,408;49,46487
 896,47;11469,433;  278,790;22719,100;49,86848
 897,03;11420,202;  252,252;22567,638;50,04596
 897,58;11361,894;  259,560;22400,946;50,14291
 898,14;11336,356;  261,406;22242,792;50,38331
 898,70;11364,125;  213,406;22143,177;50,84740
 899,25;11421,894;  253,329;22181,715;50,93200
 899,81;11383,587;  251,867;22036,408;51,09917
 900,37;11333,125;  222,713;21764,946;51,57502
 900,92;11398,433;  245,252;21832,023;51,66674
 901,48;11361,202;  243,790;21694,254;51,82830
 902,03;11321,356;  242,713;21513,023;52,08501
 902,59;11318,894;  239,252;21413,408;52,32625
 903,15;11403,279;  255,637;21360,715;52,81971
 903,70;11252,202;  240,406;21169,177;52,61559
 904,26;11266,587;  245,175;21055,177;52,96209
 904,82;11280,510;  243,098;21036,638;53,08096
 905,37;11231,740;  267,406;20925,485;53,07529
 905,93;11273,817;  237,944;20862,100;53,50945
 906,48;11279,356;  261,252;20831,946;53,56214
 907,04;11336,971;  258,098;20762,331;54,03213
 907,60;11277,048;  266,713;20541,562;54,30539
 908,15;11291,894;  227,021;20455,408;54,69973
 908,71;11345,740;  258,406;20409,408;55,02126
 909,26;11290,894;  239,483;20304,177;55,07889
 909,82;11265,202;  261,483;20233,869;55,09466
 910,37;11303,894;  285,944;20174,331;55,39891
 910,93;11197,817;  236,637;19962,485;55,56760
 911,48;11206,510;  224,637;19879,562;55,87339
 912,04;11176,510;  235,329;19814,869;55,88068
 912,60;11197,048;  244,021;19806,562;55,98980
 913,15;11164,433;  252,021;19604,792;56,38682
 913,71;11120,894;  228,175;19536,331;56,41512
 914,26;11098,587;  213,021;19437,023;56,62487
 914,82;11107,894;  258,560;19373,254;56,75913
 915,37;11087,048;  236,560;19328,331;56,83333
 915,93;11122,433;  306,713;19241,254;57,12164
 916,48;11060,048;  217,098;19115,946;57,37360
 917,04;11130,663;  255,560;19033,331;57,91477
 917,59;11111,894;  268,637;18987,254;57,92766
 918,15;11036,971;  210,406;18833,715;58,13449
 918,70;11016,433;  230,713;18762,869;58,20002
 919,26;11011,125;  243,560;18633,638;58,55095
 919,81;10977,433;  220,098;18520,254;58,78275
 920,37;10997,356;  234,329;18455,946;59,06735
 920,92;10998,202;  252,560;18444,177;59,06920
 921,48;10899,740;  224,867;18301,254;59,05424
 922,03;10901,663;  229,637;18233,100;59,27763
 922,59;10934,356;  243,483;18105,562;59,85235
 923,14;10880,971;  251,406;18036,638;59,76624
 923,69;10885,356;  264,637;17984,792;59,93581
 924,25;10867,279;  273,944;17944,254;59,94991
 924,80;10736,817;  234,098;17753,792;59,94807
 925,36;10788,894;  221,021;17678,946;60,53339
 925,91;10727,663;  225,098;17594,408;60,46622
 926,47;10724,356;  207,560;17556,638;60,61876
 927,02;10754,740;  315,098;17558,638;60,54234
 927,57;10666,663;  226,175;17284,023;61,20636
 928,13;10672,356;  215,483;17281,023;61,27478
 928,68;10662,817;  228,637;17233,023;61,36170
 929,24;10594,125;  203,252;17075,331;61,58621
 929,79;10577,510;  224,790;16946,638;61,91133
 930,34;10503,587;  221,713;16873,331;61,74699
 930,90;10527,356;  213,252;16818,638;62,11300
 931,45;10539,125;  232,406;16841,023;62,05646
 932,01;10555,125;  228,252;16796,408;62,32965
 932,56;10493,433;  257,252;16666,023;62,38237
 933,11;10550,202;  260,021;16579,485;63,05465
 933,67;10443,279;  215,790;16498,408;62,81231
 934,22;10478,971;  228,944;16413,638;63,33161
 934,77;10426,971;  262,252;16297,100;63,39143
 935,33;10415,894;  228,790;16237,715;63,63390
 935,88;10374,510;  241,560;16149,562;63,69719
 936,43;10375,279;  232,406;16092,562;63,95191
 936,99;10379,894;  234,175;15959,946;64,51651
 937,54;10272,510;  215,098;15838,638;64,37345
 938,09;10299,510;  239,867;15850,485;64,44103
 938,65;10316,971;  238,637;15749,177;64,97733
 939,20;10276,663;  204,483;15622,177;65,32871
 939,75;10201,510;  211,021;15540,100;65,17344
 940,31;10181,894;  209,252;15446,562;65,44884
 940,86;10281,510;  231,637;15465,331;65,97135
 941,41;10283,356;  337,790;15419,946;65,94260
 941,96;10156,125;  216,790;15296,562;65,91171
 942,52;10162,202;  222,867;15159,408;66,54375
 943,07;10118,356;  206,560;15129,792;66,41856
 943,62;10114,125;  226,944;15026,100;66,80909
 944,18;10113,433;  198,790;14977,254;67,08845
 944,73;10081,202;  245,944;14924,946;67,00222
 945,28;10006,356;  192,790;14737,562;67,47143
 945,83;10032,817;  219,483;14770,177;67,44238
 946,39;10029,587;  217,637;14769,177;67,42894
 946,94;10020,048;  242,329;14655,485;67,83885
 947,49; 9971,279;  212,944;14504,869;68,27866
 948,04;10020,510;  274,252;14543,946;68,30040
 948,59; 9997,125;  247,175;14437,946;68,70627
 949,15; 9921,125;  215,175;14429,638;68,28221
 949,70; 9944,817;  225,944;14290,792;69,10045
 950,25; 9936,279;  232,329;14228,408;69,33335
 950,80; 9804,510;  187,790;14121,100;69,01963
 951,36; 9758,202;  179,021;14015,715;69,23027
 951,91; 9833,894;  236,329;14056,254;69,44730
 952,46; 9746,663;  225,944;13898,177;69,63544
 953,01; 9763,048;  224,483;13934,254;69,57494
 953,56; 9621,125;  194,406;13775,869;69,40871
 954,11; 9663,048;  228,098;13778,638;69,62785
 954,67; 9598,279;  224,713;13705,023;69,53524
 955,22; 9450,587;  203,790;13541,100;69,33030
 955,77; 9524,202;  249,175;13578,946;69,58129
 956,32; 9520,510;  279,406;13514,023;69,82524
 956,87; 9402,433;  216,098;13390,562;69,72834
 957,42; 9378,894;  217,329;13284,100;70,11346
 957,98; 9430,510;  209,098;13328,485;70,28844
 958,53; 9416,125;  255,329;13253,485;70,47766
 959,08; 9340,356;  196,867;13110,715;70,80375
 959,63; 9327,433;  223,098;13049,023;70,98384
 960,18; 9352,356;  242,713;13036,331;71,20459
 960,73; 9275,279;  219,713;13011,715;70,79084
 961,28; 9269,740;  197,406;12875,408;71,55966
 961,83; 9288,663;  244,560;12834,869;71,83385
 962,39; 9169,510;  206,637;12727,408;71,58403
 962,94; 9101,894;  227,483;12728,254;70,99091
 963,49; 9074,663;  232,713;12643,715;71,24284
 964,04; 9060,125;  237,021;12593,100;71,40699
 964,59; 9009,894;  209,021;12445,869;71,92108
 965,14; 9017,048;  262,021;12509,331;71,48531
 965,69; 8939,279;  231,560;12355,946;71,81987
 966,24; 8863,510;  218,252;12294,177;71,59085
 966,79; 8869,894;  251,406;12194,638;72,16211
 967,34; 8792,433;  196,406;12056,023;72,48149
 967,89; 8772,740;  226,252;12113,869;71,89404
 968,44; 8775,202;  231,098;11975,792;72,74863
 968,99; 8722,817;  236,098;11943,177;72,49220
 969,55; 8699,663;  235,637;11895,023;72,59410
 970,10; 8638,971;  236,560;11827,100;72,49370
 970,65; 8606,202;  255,175;11775,715;72,48815
 971,20; 8541,510;  221,021;11661,562;72,72811
 971,75; 8439,894;  197,021;11527,485;72,74965
 972,30; 8435,663;  240,406;11490,408;72,84672
 972,85; 8378,202;  209,867;11405,331;72,96111
 973,40; 8361,587;  213,790;11288,254;73,57283
 973,95; 8376,663;  228,867;11244,254;73,96741
 974,50; 8369,971;  266,406;11252,023;73,76523
 975,05; 8314,510;  245,713;11099,331;74,34200
 975,60; 8262,971;  242,406;11083,946;73,97994
 976,15; 8201,125;  216,790;11005,869;74,00386
 976,70; 8186,202;  237,637;10919,023;74,41511
 977,25; 8158,125;  252,329;10874,408;74,42796
 977,80; 8080,433;  230,790;10771,946;74,46662
 978,35; 8022,279;  250,867;10640,023;74,80311
 978,89; 7981,356;  206,560;10613,485;74,70791
 979,44; 7952,279;  233,406;10594,408;74,49929
 979,99; 7874,048;  227,637;10429,869;74,94841
 980,54; 7847,817;  255,637;10391,023;74,90766
 981,09; 7792,125;  253,021;10319,177;74,89556
 981,64; 7733,125;  238,867;10235,177;74,97024
 982,19; 7761,817;  281,867;10170,562;75,64143
 982,74; 7676,510;  239,329;10073,023;75,62957
 983,29; 7604,356;  228,560; 9925,331;76,06446
 983,84; 7563,279;  242,560; 9856,562;76,14643
 984,39; 7635,817;  351,483; 9957,638;75,82986
 984,94; 7462,433;  207,560; 9720,715;76,26148
 985,49; 7442,510;  263,175; 9651,562;76,47038
 986,03; 7429,971;  249,790; 9573,408;77,01068
 986,58; 7362,587;  290,175; 9548,869;76,38671
 987,13; 7237,125;  247,560; 9410,638;76,27966
 987,68; 7241,587;  266,098; 9275,715;77,42269
 988,23; 7184,740;  250,790; 9286,485;76,73954
 988,78; 7050,663;  227,252; 9132,177;76,62514
 989,33; 7071,510;  264,329; 9075,100;77,25976
 989,88; 7060,587;  272,252; 9035,177;77,46654
 990,42; 6927,356;  234,560; 8880,408;77,41052
 990,97; 6861,279;  245,098; 8798,485;77,35159
 991,52; 6865,125;  253,637; 8767,100;77,65921
 992,07; 6817,510;  285,483; 8679,100;77,82136
 992,62; 6736,971;  250,098; 8561,715;78,04586
 993,17; 6708,510;  262,790; 8514,946;78,10952
 993,71; 6686,202;  265,021; 8433,177;78,61237
 994,26; 6594,202;  235,098; 8308,485;78,76625
 994,81; 6543,356;  263,329; 8294,485;78,19581
 995,36; 6387,279;  226,560; 8143,562;77,81632
 995,91; 6412,740;  244,329; 8144,638;78,07810
 996,45; 6354,740;  239,790; 8037,408;78,42075
 997,00; 6264,894;  226,790; 7917,715;78,50946
 997,55; 6309,279;  248,098; 7891,638;79,29808
 998,10; 6203,279;  273,790; 7767,792;79,12312
 998,65; 6101,740;  244,560; 7756,177;77,97496
 999,19; 6086,817;  277,252; 7628,023;79,03341
 999,74; 6032,433;  287,944; 7559,869;78,99543
1000,29; 5978,663;  265,483; 7439,177;79,64071
1000,84; 5900,202;  247,483; 7371,254;79,35010
1001,38; 5824,894;  254,637; 7303,254;79,02625
1001,93; 5823,894;  262,790; 7254,408;79,53959
1002,48; 5764,740;  227,252; 7141,023;80,09360
1003,03; 5775,971;  272,867; 7085,715;80,77538
1003,57; 5669,817;  253,021; 6971,638;80,62367
1004,12; 5676,356;  293,790; 6974,715;80,56617
1004,67; 5582,510;  248,175; 6895,715;80,24524
1005,22; 5461,587;  242,637; 6718,177;80,59482
1005,76; 5381,048;  232,867; 6636,562;80,39392
1006,31; 5372,817;  264,329; 6606,946;80,54228
1006,86; 5335,663;  239,713; 6484,485;81,60347
1007,40; 5196,202;  234,098; 6398,869;80,49129
1007,95; 5189,356;  251,329; 6333,715;81,18568
1008,50; 5131,740;  251,790; 6225,715;81,68750
1009,04; 5059,510;  248,944; 6176,638;81,15407
1009,59; 4996,894;  260,329; 6062,254;81,63783
1010,14; 4950,894;  239,329; 5975,792;82,13362
1010,68; 4854,587;  247,560; 5875,715;81,85678
1011,23; 4832,048;  238,329; 5830,408;82,14690
1011,78; 4757,663;  247,483; 5775,023;81,59471
1012,32; 4755,433;  276,560; 5679,485;82,89719
1012,87; 4715,125;  270,021; 5623,562;83,03111
1013,42; 4599,894;  226,329; 5490,638;83,07956
1013,96; 4629,279;  280,637; 5559,254;82,38222
1014,51; 4571,048;  211,098; 5476,408;82,80520
1015,06; 4547,125;  207,867; 5445,715;82,84428
1015,60; 4563,048;  287,713; 5507,100;81,91259
1016,15; 4526,125;  222,329; 5436,638;82,53818
1016,69; 4559,048;  246,790; 5461,562;82,69313
1017,24; 4519,663;  225,560; 5464,254;81,96897
1017,79; 4566,125;  289,175; 5519,869;81,76639
1018,33; 4563,894;  243,483; 5516,792;81,92979
1018,88; 4574,279;  259,175; 5560,946;81,38985
1019,42; 4568,279;  236,252; 5525,869;81,89679
1019,97; 4552,433;  224,175; 5524,638;81,65810
1020,51; 4604,433;  278,944; 5624,638;80,91537
1021,06; 4539,971;  217,560; 5582,408;80,56913
1021,61; 4542,663;  204,483; 5550,869;81,14230
1022,15; 4495,048;  187,944; 5520,869;80,76438
1022,70; 4499,740;  239,637; 5536,331;80,42948
1023,24; 4475,510;  237,483; 5489,562;80,69237
1023,79; 4465,433;  241,483; 5439,869;81,25502
1024,33; 4429,510;  226,329; 5403,023;81,19430
1024,88; 4386,048;  250,252; 5347,946;81,13072
1025,42; 4315,663;  250,944; 5235,485;81,54652
1025,97; 4258,817;  223,713; 5209,946;80,92490
1026,51; 4164,587;  208,713; 5069,946;81,37593
1027,06; 4166,817;  228,252; 5058,023;81,54766
1027,60; 4120,587;  260,867; 4993,100;81,56233
1028,15; 4078,971;  261,944; 4895,023;82,38640
1028,69; 3959,817;  201,483; 4763,869;82,37651
1029,24; 3949,587;  228,098; 4756,869;82,17435
1029,78; 3863,433;  224,790; 4650,485;82,21631
1030,33; 3813,048;  214,944; 4564,792;82,71792
1030,87; 3758,971;  217,713; 4530,869;82,10364
1031,42; 3690,510;  205,021; 4447,869;82,14974
1031,96; 3679,817;  241,713; 4411,254;82,45762
1032,51; 3626,048;  216,483; 4338,331;82,71934
1033,05; 3602,356;  231,098; 4313,485;82,58056
1033,60; 3507,356;  196,406; 4159,023;83,55462
1034,14; 3494,971;  222,790; 4158,408;83,14276
1034,69; 3446,279;  228,790; 4116,869;82,75265
1035,23; 3411,202;  228,483; 4029,331;83,73708
1035,77; 3396,740;  223,637; 3970,869;84,67859
1036,32; 3320,740;  192,944; 3925,792;83,79115
1036,86; 3290,740;  239,637; 3893,946;83,49330
1037,41; 3251,510;  231,252; 3818,408;84,19645
1037,95; 3190,894;  197,483; 3722,946;84,90831
1038,50; 3159,817;  211,944; 3698,792;84,54263
1039,04; 3138,279;  247,560; 3681,023;84,19251
1039,58; 3056,125;  206,483; 3613,638;83,63698
1040,13; 3038,894;  222,098; 3577,254;83,95426
1040,67; 3026,279;  253,329; 3554,946;83,98763
1041,21; 2983,202;  259,637; 3485,946;84,41736
1041,76; 2877,433;  220,329; 3414,715;83,18041
1042,30; 2878,048;  213,098; 3370,023;84,41601
1042,85; 2814,817;  218,944; 3296,023;84,36160
1043,39; 2784,048;  216,329; 3252,331;84,57568
1043,93; 2786,971;  238,406; 3252,638;84,55105
1044,48; 2728,510;  244,560; 3189,177;84,35561
1045,02; 2690,202;  226,329; 3149,023;84,30143
1045,56; 2675,433;  251,098; 3119,946;84,50551
1046,11; 2631,740;  228,406; 3101,792;83,64119
1046,65; 2597,971;  242,867; 3022,638;84,72294
1047,19; 2536,048;  205,713; 2951,715;84,86282
1047,74; 2505,817;  207,252; 2893,869;85,55611
1048,28; 2496,663;  233,637; 2909,254;84,57962
1048,82; 2485,125;  266,329; 2917,562;83,68923
1049,37; 2434,356;  243,560; 2852,485;83,97314
1049,91; 2423,433;  238,329; 2817,792;84,71156
1050,45; 2377,279;  238,098; 2748,715;85,20537
1050,99; 2358,510;  239,175; 2724,946;85,25864
1051,54; 2288,356;  211,713; 2658,869;84,85942
1052,08; 2316,048;  251,021; 2650,023;86,07859
1052,62; 2263,125;  246,790; 2624,869;84,78838
1053,16; 2220,510;  225,098; 2571,254;85,05026
1053,71; 2195,971;  246,175; 2554,562;84,46576
1054,25; 2196,740;  245,406; 2518,946;85,82802
1054,79; 2163,202;  247,867; 2507,792;84,75213
1055,33; 2073,740;  202,098; 2420,408;84,37246
1055,88; 2075,740;  228,790; 2414,331;84,50770
1056,42; 2060,663;  239,098; 2403,792;84,14885
1056,96; 2052,663;  253,790; 2363,638;85,26079
1057,50; 2022,510;  248,790; 2321,331;85,58189
1058,05; 1975,433;  241,637; 2280,023;85,05728
1058,59; 1929,510;  259,252; 2233,946;84,58310
1059,13; 1874,356;  211,790; 2196,715;83,75961
1059,67; 1900,125;  246,483; 2206,254;84,37936
1060,21; 1863,356;  238,867; 2142,638;85,33003
1060,76; 1837,587;  237,944; 2139,408;84,12690
1061,30; 1823,356;  265,175; 2115,562;84,20839
1061,84; 1793,279;  243,406; 2048,869;85,84350
1062,38; 1720,356;  216,175; 2001,023;84,27500
1062,92; 1778,971;  278,944; 2050,946;84,65154
1063,46; 1696,663;  246,713; 1974,946;83,89785
1064,01; 1688,202;  236,713; 1952,562;84,59306
1064,55; 1674,356;  257,867; 1931,638;84,62856
1065,09; 1636,971;  214,713; 1849,177;87,01679
1065,63; 1648,894;  268,790; 1901,946;84,50534
1066,17; 1642,279;  270,867; 1877,946;85,33567
1066,71; 1613,817;  266,098; 1856,254;84,75391
1067,25; 1559,817;  232,944; 1800,638;84,63851
1067,80; 1591,356;  258,252; 1796,792;86,64731
1068,34; 1587,663;  282,713; 1790,023;86,57478
1068,88; 1510,510;  229,329; 1720,023;85,94524
1069,42; 1526,663;  270,098; 1755,485;84,59518
1069,96; 1474,048;  251,252; 1713,023;83,65168
1070,50; 1499,817;  284,175; 1715,869;84,90935
1071,04; 1440,202;  229,406; 1649,408;85,26722
1071,58; 1449,048;  240,790; 1638,408;86,45125
1072,12; 1401,894;  250,790; 1630,562;83,42716
1072,66; 1413,587;  249,944; 1619,177;84,98499
1073,21; 1423,433;  266,790; 1612,562;85,94643
1073,75; 1372,433;  246,637; 1570,562;85,03474
1074,29; 1357,279;  243,713; 1540,869;85,84670
1074,83; 1369,048;  266,944; 1545,408;86,20535
1075,37; 1329,740;  270,483; 1536,100;83,69494
1075,91; 1319,587;  250,021; 1510,485;84,85493
1076,45; 1305,125;  260,867; 1497,331;84,45520
1076,99; 1288,048;  267,637; 1480,254;84,14951
1077,53; 1258,894;  252,483; 1423,100;85,97272
1078,07; 1266,740;  259,867; 1431,408;85,94438
1078,61; 1243,510;  250,867; 1394,023;86,83351
1079,15; 1226,817;  249,175; 1370,408;87,19352
1079,69; 1202,663;  247,944; 1388,254;83,72456
1080,23; 1228,202;  272,713; 1404,408;84,42991
1080,77; 1270,125;  318,483; 1428,946;85,69776
1081,31; 1184,125;  251,021; 1340,100;85,67826
1081,85; 1169,971;  257,560; 1348,100;83,66600
1082,39; 1163,202;  244,483; 1302,792;86,81006
1082,93; 1160,971;  267,406; 1341,485;83,19365
1083,47; 1118,433;  235,790; 1259,715;86,20185
1084,01; 1129,663;  260,560; 1298,254;83,75337
1084,55; 1100,202;  240,944; 1239,485;86,05137
1085,09; 1112,279;  255,944; 1271,254;84,34221
1085,63; 1078,740;  244,406; 1236,177;84,12572
1086,17; 1063,894;  244,021; 1198,177;85,92654
1086,71; 1052,279;  227,637; 1204,100;84,45194
1087,24; 1065,048;  272,867; 1220,485;83,59712
1087,78; 1062,971;  274,252; 1210,562;84,23701
1088,32; 1034,740;  230,944; 1146,562;87,78735
1088,86; 1036,510;  262,021; 1171,254;85,18045
1089,40; 1009,817;  252,867; 1140,485;85,27887
1089,94;  961,048;  227,713; 1116,562;82,50393
1090,48;  976,740;  259,790; 1110,254;84,30109
1091,02;  982,894;  262,175; 1139,023;82,19431
1091,56;  959,817;  239,560; 1093,331;84,36191
1092,10;  934,279;  228,406; 1055,331;85,36120
1092,63;  969,817;  272,637; 1117,331;82,53647
1093,17;  963,817;  262,098; 1074,331;86,39387
1093,71;  905,202;  243,713; 1032,177;83,89589
1094,25;  930,510;  264,252; 1068,946;82,79638
1094,79;  904,279;  244,483; 1016,485;85,46561
1095,33;  891,740;  256,483; 1020,100;83,19058
1095,87;  894,202;  258,329; 1002,254;85,47543
1096,40;  848,510;  227,329;  955,408;85,31779
1096,94;  869,433;  257,329;  993,254;83,17476
1097,48;  854,048;  267,637;  981,023;82,20109
1098,02;  817,279;  239,944;  954,254;80,82414
1098,56;  803,740;  223,637;  921,638;83,10920
1099,10;  799,894;  227,483;  907,254;84,20651
1099,63;  791,279;  236,483;  903,177;83,21598
1100,17;  813,587;  254,944;  926,023;83,24541
1100,71;  836,433;  282,790;  936,485;84,69438

