
Integration time [ms]: 150,000
Averaging Nr. [scans]: 13
Smoothing Nr. [pixels]: 0
Data measured with spectrometer [name]: 2009305U1
Wave   ;Sample   ;Dark     ;Reference;Reflectance
[nm]   ;[counts] ;[counts] ;[counts] ;[%]

 175,72;  225,108;  213,942;  232,391;60,52152
 176,32;  244,999;  248,562;  239,245; 0,00000
 176,92;  286,234;  283,713;  284,805;230,78204
 177,52;  280,978;  263,481;  288,463;70,04102
 178,12;  265,165;  258,638;  259,823;550,79427
 178,72;  293,910;  287,793;  280,469; 0,00000
 179,32;  288,222;  285,408;  267,745; 0,00000
 179,92;  270,659;  275,791;  268,795; 0,00000
 180,52;  261,330;  256,325;  272,061;31,80892
 181,12;  282,975;  274,252;  289,721;56,38871
 181,73;  313,562;  302,098;  302,762; 0,00000
 182,33;  418,497;  411,173;  406,971; 0,00000
 182,93;  296,023;  293,097;  294,847;167,21708
 183,53;  266,485;  259,948;  249,810; 0,00000
 184,13;  259,732;  259,332;  248,661; 0,00000
 184,73;  303,194;  314,025;  313,345; 0,00000
 185,33;  281,654;  254,895;  344,858;29,74459
 185,93;  287,987;  268,436;  359,913;21,37173
 186,53;  298,800;  274,666;  381,617;22,56584
 187,13;  315,059;  285,970;  414,333;22,66126
 187,73;  286,144;  262,974;  373,416;20,97934
 188,33;  278,068;  249,284;  379,789;22,05582
 188,93;  291,319;  282,673;  384,519; 8,48921
 189,53;  288,814;  265,370;  380,835;20,30395
 190,13;  332,037;  301,453;  437,825;22,42704
 190,73;  285,401;  245,679;  384,820;28,54790
 191,34;  301,461;  279,444;  409,815;16,88797
 191,94;  289,764;  263,439;  370,276;24,64044
 192,54;  293,694;  255,737;  399,966;26,31724
 193,14;  317,427;  288,047;  387,600;29,51189
 193,74;  295,573;  296,202;  379,404;-0,75555
 194,34;  295,447;  272,354;  392,221;19,26567
 194,94;  255,241;  250,278;  345,600; 5,20647
 195,54;  232,889;  229,741;  336,398; 2,95153
 196,14;  260,836;  246,661;  343,765;14,59753
 196,74;  255,100;  250,434;  354,623; 4,47802
 197,34;  228,399;  216,429;  347,856; 9,10759
 197,94;  264,415;  241,201;  367,795;18,33749
 198,54;  291,828;  253,200;  382,880;29,78725
 199,14;  240,621;  227,043;  362,749;10,00553
 199,74;  251,115;  217,966;  353,672;24,42704
 200,34;  236,957;  216,427;  355,290;14,78424
 200,94;  259,662;  255,891;  406,391; 2,50569
 201,54;  245,014;  232,120;  402,629; 7,56172
 202,14;  289,819;  282,811;  452,335; 4,13412
 202,74;  255,872;  229,889;  425,863;13,25831
 203,34;  227,188;  212,733;  417,845; 7,04727
 203,94;  214,750;  190,041;  432,337;10,19786
 204,54;  281,399;  250,816;  504,220;12,06882
 205,14;  252,228;  224,735;  505,171; 9,80367
 205,74;  286,892;  266,041;  591,229; 6,41212
 206,34;  254,856;  210,426;  593,142;11,60896
 206,94;  263,597;  235,042;  631,831; 7,19638
 207,54;  226,844;  202,119;  644,718; 5,58626
 208,14;  251,601;  222,503;  714,144; 5,91845
 208,74;  248,601;  218,889;  754,132; 5,55104
 209,34;  258,196;  212,581;  808,442; 7,65525
 209,94;  259,354;  238,274;  890,249; 3,23327
 210,54;  257,791;  222,657;  966,494; 4,72340
 211,14;  271,520;  227,582; 1025,633; 5,50570
 211,73;  279,261;  228,121; 1111,974; 5,78605
 212,33;  288,552;  248,275; 1188,775; 4,28252
 212,93;  270,536;  234,120; 1272,131; 3,50824
 213,53;  251,864;  200,889; 1281,363; 4,71781
 214,13;  288,009;  218,193; 1379,045; 6,01421
 214,73;  255,742;  199,042; 1377,951; 4,80959
 215,33;  249,815;  194,966; 1390,403; 4,58823
 215,93;  283,042;  224,887; 1496,612; 4,57292
 216,53;  244,309;  186,428; 1531,015; 4,30477
 217,13;  294,969;  232,733; 1687,840; 4,27705
 217,73;  288,260;  210,579; 1839,536; 4,76878
 218,33;  272,066;  175,808; 1944,509; 5,44228
 218,93;  307,353;  212,421; 2182,917; 4,81769
 219,53;  319,406;  216,962; 2401,433; 4,68964
 220,13;  302,701;  168,115; 2581,899; 5,57573
 220,73;  331,188;  202,504; 2851,019; 4,85870
 221,32;  342,985;  201,274; 3120,286; 4,85478
 221,92;  372,289;  213,808; 3428,167; 4,93040
 222,52;  359,503;  194,733; 3717,576; 4,67721
 223,12;  401,062;  200,502; 4022,269; 5,24784
 223,72;  417,787;  204,348; 4372,501; 5,12071
 224,32;  455,823;  220,194; 4616,964; 5,35915
 224,92;  441,192;  195,194; 4835,348; 5,30150
 225,52;  474,168;  219,427; 5110,293; 5,20850
 226,12;  492,390;  199,580; 5350,032; 5,68514
 226,72;  478,730;  174,734; 5553,453; 5,65184
 227,31;  488,637;  161,734; 5830,376; 5,76687
 227,91;  562,613;  223,966; 6177,329; 5,68834
 228,51;  574,978;  185,737; 6407,624; 6,25599
 229,11;  590,026;  199,734; 6726,183; 5,98016
 229,71;  583,180;  185,966; 6921,669; 5,89713
 230,31;  612,795;  179,270; 7217,584; 6,15949
 230,91;  630,374;  179,353; 7438,424; 6,21321
 231,51;  658,937;  184,425; 7630,921; 6,37228
 232,10;  689,928;  185,808; 7920,663; 6,51751
 232,70;  731,063;  201,585; 8050,067; 6,74624
 233,30;  789,329;  215,349; 8212,688; 7,17715
 233,90;  769,621;  193,887; 8357,534; 7,05241
 234,50;  799,390;  191,348; 8338,267; 7,46346
 235,10;  807,268;  188,578; 8361,810; 7,56971
 235,70;  856,419;  215,581; 8439,675; 7,79220
 236,29;  863,297;  200,120; 8272,400; 8,21549
 236,89;  844,419;  174,968; 8134,388; 8,41080
 237,49;  918,997;  209,733; 8099,993; 8,98911
 238,09;  899,317;  191,119; 7834,758; 9,26520
 238,69;  948,484;  244,892; 7651,380; 9,49967
 239,29;  913,155;  194,888; 7392,371; 9,97942
 239,89;  908,897;  201,506; 7129,926;10,20998
 240,48;  887,763;  185,042; 6781,450;10,65308
 241,08;  887,427;  193,735; 6490,908;11,01593
 241,68;  905,159;  218,657; 6241,874;11,39760
 242,28;  872,625;  180,579; 5954,187;11,98636
 242,88;  903,349;  238,732; 5729,199;12,10494
 243,48;  910,657;  232,272; 5513,531;12,84514
 244,07;  868,289;  213,889; 5315,560;12,82718
 244,67;  889,204;  210,888; 5200,991;13,59323
 245,27;  881,261;  218,351; 5068,512;13,66778
 245,87;  893,034;  228,809; 5047,813;13,78345
 246,47;  894,739;  209,044; 4990,205;14,34160
 247,06;  874,993;  195,273; 4988,255;14,18158
 247,66;  900,584;  199,734; 5045,375;14,46353
 248,26;  955,815;  218,736; 5147,014;14,95613
 248,86;  971,419;  217,351; 5321,282;14,77425
 249,46;  930,366;  157,348; 5440,689;14,63122
 250,05; 1027,082;  214,503; 5738,680;14,70951
 250,65; 1038,099;  184,429; 5969,510;14,75641
 251,25; 1095,216;  197,889; 6357,869;14,56705
 251,85; 1156,257;  213,276; 6812,734;14,28877
 252,44; 1191,354;  184,659; 7249,516;14,24934
 253,04; 1287,649;  215,889; 7818,327;14,09759
 253,64; 1333,083;  169,044; 8404,469;14,13453
 254,24; 1456,973;  214,196; 9168,218;13,87954
 254,84; 1510,520;  185,887; 9921,228;13,60643
 255,43; 1616,658;  196,120;10750,633;13,45905
 256,03; 1709,565;  192,352;11606,163;13,29278
 256,63; 1787,633;  206,045;12400,234;12,97002
 257,23; 1852,706;  186,506;13216,811;12,78711
 257,82; 1968,921;  206,431;14106,224;12,67997
 258,42; 1968,124;  157,278;14919,565;12,26670
 259,02; 2114,532;  217,504;15677,903;12,27024
 259,62; 2121,419;  192,894;16358,485;11,92982
 260,21; 2187,285;  210,120;16988,555;11,78397
 260,81; 2204,633;  194,580;17427,877;11,66378
 261,41; 2176,468;  174,585;17907,684;11,28896
 262,01; 2251,087;  227,433;18314,057;11,18868
 262,60; 2224,476;  178,660;18710,427;11,03951
 263,20; 2225,913;  185,890;19121,858;10,77327
 263,80; 2234,047;  223,663;19337,865;10,51775
 264,40; 2200,865;  173,894;19593,059;10,43799
 264,99; 2197,180;  213,356;19766,863;10,14562
 265,59; 2165,448;  189,435;19883,310;10,03364
 266,19; 2136,618;  192,586;20100,326; 9,76520
 266,78; 2161,456;  232,818;20275,972; 9,62243
 267,38; 2124,306;  204,280;20331,852; 9,53928
 267,98; 2097,136;  201,664;20347,819; 9,40860
 268,58; 2049,136;  206,127;20373,698; 9,13848
 269,17; 2011,424;  197,205;20470,340; 8,94888
 269,77; 2030,974;  201,507;20310,845; 9,09760
 270,37; 1949,601;  163,587;20130,593; 8,94483
 270,96; 1949,759;  234,969;20224,724; 8,57834
 271,56; 1899,387;  198,276;19928,464; 8,62187
 272,16; 1871,225;  194,200;19783,490; 8,56092
 272,75; 1864,528;  191,354;19749,068; 8,55506
 273,35; 1849,403;  205,123;19603,610; 8,47633
 273,95; 1822,253;  203,200;19589,915; 8,35135
 274,54; 1815,580;  184,427;19713,410; 8,35248
 275,14; 1852,536;  219,738;20045,880; 8,23558
 275,74; 1809,557;  175,893;19968,529; 8,25390
 276,33; 1896,180;  228,661;20344,883; 8,28943
 276,93; 1897,054;  199,734;20646,721; 8,30108
 277,53; 1916,945;  199,197;20999,862; 8,25814
 278,12; 1941,767;  174,968;21460,082; 8,30063
 278,72; 2065,609;  255,582;21988,591; 8,32847
 279,32; 2072,965;  197,736;22420,475; 8,43834
 279,91; 2107,261;  186,813;22956,548; 8,43421
 280,51; 2190,079;  190,351;23409,978; 8,61223
 281,11; 2235,091;  194,121;23992,394; 8,57613
 281,70; 2300,731;  174,506;24405,547; 8,77480
 282,30; 2358,848;  188,737;24945,233; 8,76582
 282,90; 2454,670;  186,276;25231,041; 9,05736
 283,49; 2529,281;  213,892;25761,610; 9,06300
 284,09; 2628,957;  229,583;26079,930; 9,28179
 284,69; 2706,062;  229,967;26439,436; 9,44733
 285,28; 2764,463;  211,352;26775,853; 9,61099
 285,88; 2899,739;  274,970;26939,836; 9,84355
 286,47; 2906,022;  205,891;27004,886;10,07549
 287,07; 3028,702;  225,274;27049,551;10,45108
 287,67; 3117,503;  225,195;27202,685;10,72119
 288,26; 3214,961;  186,582;27102,628;11,25120
 288,86; 3316,597;  187,891;27191,277;11,58635
 289,46; 3489,941;  214,505;27293,857;12,09569
 290,05; 3600,953;  191,350;27370,022;12,54514
 290,65; 3760,739;  204,353;27556,115;13,00240
 291,24; 3944,969;  205,043;27630,937;13,63648
 291,84; 4103,557;  212,430;27732,464;14,13925
 292,44; 4270,325;  204,349;27752,918;14,75930
 293,03; 4521,961;  282,582;28043,745;15,27090
 293,63; 4614,654;  187,199;28143,117;15,83727
 294,22; 4794,099;  223,583;28296,048;16,28114
 294,82; 4854,075;  194,432;28317,253;16,56890
 295,41; 4923,884;  181,890;28083,700;16,99529
 296,01; 5103,763;  237,201;28096,142;17,46858
 296,61; 5130,467;  232,890;27923,821;17,68658
 297,20; 5149,484;  202,047;27461,720;18,14929
 297,80; 5267,342;  224,734;27448,525;18,52280
 298,39; 5229,642;  191,430;27120,118;18,70946
 298,99; 5343,314;  238,431;27050,417;19,03956
 299,58; 5348,710;  222,195;26883,144;19,22855
 300,18; 5382,334;  229,273;26738,677;19,43861
 300,78; 5357,058;  198,812;26411,633;19,67833
 301,37; 5430,071;  217,587;26374,822;19,92750
 301,97; 5474,233;  216,429;26462,857;20,03246
 302,56; 5466,702;  202,968;26361,078;20,12276
 303,16; 5512,144;  183,969;26230,113;20,45667
 303,75; 5546,844;  196,735;26281,135;20,51076
 304,35; 5621,868;  187,579;26493,154;20,65832
 304,94; 5661,443;  195,813;26507,819;20,77238
 305,54; 5718,678;  211,197;26480,593;20,96539
 306,13; 5678,171;  168,117;26435,270;20,97698
 306,73; 5712,301;  167,656;26274,725;21,23810
 307,33; 5756,038;  214,734;26205,376;21,32038
 307,92; 5824,516;  212,736;26265,361;21,54017
 308,52; 5870,840;  187,277;26595,919;21,52160
 309,11; 5972,496;  203,278;27114,294;21,43813
 309,71; 6041,557;  181,048;27312,404;21,60050
 310,30; 6080,674;  183,505;27535,013;21,56067
 310,90; 6265,520;  237,813;27768,090;21,89483
 311,49; 6278,508;  211,121;27941,666;21,87980
 312,09; 6265,811;  158,042;28080,139;21,87432
 312,68; 6436,249;  272,659;28453,748;21,87137
 313,28; 6458,131;  183,813;28570,668;22,10290
 313,87; 6451,840;  168,813;28691,474;22,02819
 314,47; 6502,954;  197,508;28880,144;21,98349
 315,06; 6539,710;  184,505;29022,169;22,03786
 315,66; 6588,119;  184,273;29287,908;22,00359
 316,25; 6596,848;  161,738;29046,383;22,27865
 316,85; 6558,236;  157,042;29132,485;22,09179
 317,44; 6632,346;  192,432;29362,911;22,07682
 318,04; 6615,225;  173,045;29264,041;22,14493
 318,63; 6611,232;  162,118;29361,379;22,08657
 319,22; 6651,314;  190,968;29467,076;22,06695
 319,82; 6613,261;  196,737;29597,083;21,82465
 320,41; 6620,387;  213,353;29530,808;21,85399
 321,01; 6629,613;  212,427;29689,791;21,76988
 321,60; 6656,779;  206,814;29706,584;21,86446
 322,20; 6574,034;  179,890;29680,092;21,67492
 322,79; 6652,949;  217,966;29699,284;21,82732
 323,39; 6595,815;  187,271;29847,921;21,60622
 323,98; 6573,062;  181,428;29806,670;21,57496
 324,58; 6555,540;  186,200;29699,958;21,58092
 325,17; 6551,297;  196,199;29622,153;21,59691
 325,76; 6514,022;  207,582;29630,781;21,43356
 326,36; 6364,050;  187,581;29222,829;21,27231
 326,95; 6369,314;  223,506;29064,392;21,30936
 327,55; 6258,443;  181,275;28815,775;21,22324
 328,14; 6163,601;  175,273;28463,180;21,16922
 328,74; 6102,285;  220,815;28041,923;21,14032
 329,33; 6055,002;  208,043;27790,675;21,19797
 329,92; 5854,937;  169,124;27269,257;20,98076
 330,52; 5788,297;  209,349;26750,874;21,01970
 331,11; 5698,941;  186,506;26357,545;21,06311
 331,71; 5554,645;  184,583;25920,241;20,86624
 332,30; 5480,674;  204,967;25450,434;20,89764
 332,89; 5428,528;  270,427;25062,635;20,80533
 333,49; 5297,014;  205,814;24569,585;20,89660
 334,08; 5151,974;  193,122;24255,736;20,60812
 334,68; 5097,305;  192,968;23878,852;20,70574
 335,27; 5032,414;  204,657;23597,646;20,63763
 335,86; 5012,864;  267,198;23330,776;20,57645
 336,46; 4884,394;  219,041;23089,223;20,39928
 337,05; 4829,617;  187,814;22964,391;20,37972
 337,65; 4786,775;  177,122;22873,967;20,30967
 338,24; 4803,730;  237,351;22794,093;20,24397
 338,83; 4759,548;  212,889;22743,478;20,17994
 339,43; 4753,674;  186,584;22695,499;20,29014
 340,02; 4698,775;  195,430;22572,882;20,12448
 340,61; 4692,394;  208,274;22608,053;20,01859
 341,21; 4726,901;  233,507;22675,846;20,02195
 341,80; 4657,650;  211,583;22645,813;19,81823
 342,40; 4690,653;  204,734;22704,721;19,93743
 342,99; 4692,605;  199,350;22802,481;19,87890
 343,58; 4684,617;  202,812;22941,367;19,71016
 344,18; 4740,568;  226,119;23014,638;19,81019
 344,77; 4741,982;  189,430;23305,459;19,69435
 345,36; 4776,698;  181,275;23620,623;19,60559
 345,96; 4881,633;  224,196;23867,521;19,69874
 346,55; 4908,179;  195,964;24027,576;19,77296
 347,14; 4923,831;  186,272;24316,452;19,63334
 347,74; 4979,608;  172,346;24672,474;19,62138
 348,33; 5104,977;  205,885;25204,741;19,59726
 348,92; 5208,799;  219,115;25709,443;19,57481
 349,52; 5267,766;  180,038;26172,362;19,57396
 350,11; 5317,953;  191,277;26345,265;19,60189
 350,70; 5338,370;  208,351;26517,553;19,49895
 351,29; 5263,901;  184,895;26275,357;19,46691
 351,89; 5295,411;  230,893;26317,871;19,41397
 352,48; 5281,423;  187,120;26263,976;19,53572
 353,07; 5297,001;  237,426;26233,108;19,46314
 353,67; 5239,143;  229,191;26088,368;19,37398
 354,26; 5249,686;  210,118;25981,875;19,55461
 354,85; 5183,568;  231,350;25943,832;19,25998
 355,45; 5124,144;  189,968;25704,619;19,33860
 356,04; 5173,799;  215,964;25688,609;19,46337
 356,63; 5149,678;  253,967;25533,278;19,36647
 357,22; 5108,885;  220,894;25399,401;19,41335
 357,82; 5090,257;  214,509;25097,329;19,59484
 358,41; 5086,726;  243,967;25158,396;19,43757
 359,00; 5038,990;  210,969;24921,461;19,53835
 359,60; 5060,261;  234,197;24962,439;19,51640
 360,19; 5034,014;  245,579;24788,803;19,51021
 360,78; 5030,144;  219,045;24602,428;19,73106
 361,37; 4971,330;  223,275;24406,737;19,63348
 361,97; 4961,937;  228,813;24367,164;19,60831
 362,56; 4909,451;  222,123;24060,995;19,66254
 363,15; 4972,763;  294,737;23957,851;19,76927
 363,74; 4841,917;  237,662;23645,721;19,66953
 364,34; 4806,026;  239,738;23324,576;19,78047
 364,93; 4749,099;  217,892;22939,109;19,94262
 365,52; 4646,403;  192,891;22602,468;19,87325
 366,11; 4633,075;  226,969;22335,961;19,92902
 366,71; 4606,775;  214,430;22013,384;20,14934
 367,30; 4543,913;  222,352;21647,546;20,17046
 367,89; 4545,528;  268,658;21460,408;20,18177
 368,48; 4522,213;  251,200;21201,799;20,38611
 369,07; 4434,832;  229,505;20829,245;20,41446
 369,67; 4418,974;  260,277;20648,878;20,39717
 370,26; 4388,204;  220,736;20376,785;20,67602
 370,85; 4298,318;  234,506;20121,968;20,43404
 371,44; 4301,119;  241,813;19945,086;20,60219
 372,03; 4253,034;  208,353;19773,307;20,67309
 372,63; 4190,277;  193,660;19517,739;20,68206
 373,22; 4218,127;  224,967;19254,975;20,98349
 373,81; 4159,386;  201,121;18988,468;21,06878
 374,40; 4130,840;  219,196;18787,296;21,06647
 374,99; 4093,953;  226,122;18529,273;21,13205
 375,59; 4073,734;  208,273;18256,718;21,41714
 376,18; 4101,180;  242,660;18162,390;21,53224
 376,77; 4075,678;  245,121;18035,472;21,53165
 377,36; 4122,063;  258,506;17921,314;21,87397
 377,95; 4068,917;  244,507;17660,616;21,95904
 378,55; 4022,151;  228,119;17528,406;21,93046
 379,14; 4075,978;  253,506;17506,891;22,15491
 379,73; 4032,751;  232,507;17369,001;22,17632
 380,32; 4097,791;  233,890;17444,048;22,45128
 380,91; 4049,456;  207,662;17259,454;22,53015
 381,50; 4094,561;  234,123;17212,303;22,73764
 382,10; 4075,022;  226,198;17167,125;22,71909
 382,69; 4034,261;  213,891;17171,775;22,52858
 383,28; 4086,630;  251,969;17107,921;22,74959
 383,87; 4077,459;  207,430;16945,459;23,12118
 384,46; 4100,946;  205,663;16872,676;23,37121
 385,05; 4141,322;  237,277;16895,573;23,43604
 385,64; 4128,921;  232,353;16911,884;23,36138
 386,24; 4152,342;  203,740;16868,829;23,69386
 386,83; 4220,342;  244,125;16846,250;23,95005
 387,42; 4231,678;  249,507;16948,577;23,84666
 388,01; 4306,035;  254,819;17102,084;24,04673
 388,60; 4385,869;  235,124;17268,178;24,36876
 389,19; 4466,889;  233,129;17501,568;24,51733
 389,78; 4511,950;  226,359;17678,726;24,55593
 390,37; 4712,909;  311,433;18122,707;24,71174
 390,96; 4713,516;  241,971;18184,944;24,92087
 391,56; 4779,015;  251,129;18253,601;25,15147
 392,15; 4832,715;  231,743;18501,421;25,18365
 392,74; 4853,687;  210,901;18682,579;25,13462
 393,33; 4996,999;  246,206;18928,329;25,42962
 393,92; 5094,854;  243,826;19316,299;25,43471
 394,51; 5180,019;  231,899;19480,521;25,70636
 395,10; 5276,218;  280,138;19635,383;25,81254
 395,69; 5344,206;  263,137;19766,542;26,05222
 396,28; 5375,543;  269,678;19821,217;26,11490
 396,87; 5430,195;  276,297;19937,458;26,21360
 397,46; 5503,900;  278,069;20023,477;26,46606
 398,06; 5560,847;  290,841;20210,492;26,45632
 398,65; 5605,699;  282,310;20211,051;26,71212
 399,24; 5687,512;  309,619;20402,464;26,76522
 399,83; 5662,117;  277,169;20340,226;26,84012
 400,42; 5776,511;  328,255;20560,997;26,92792
 401,01; 5782,484;  292,190;20641,873;26,97975
 401,60; 5860,774;  321,513;20678,949;27,21001
 402,19; 5872,338;  344,602;20641,510;27,23437
 402,78; 5918,381;  338,852;20613,213;27,52012
 403,37; 5903,136;  315,485;20529,885;27,64193
 403,96; 5846,604;  326,967;20384,918;27,51845
 404,55; 5854,348;  344,144;20347,433;27,54649
 405,14; 5819,448;  310,166;20218,735;27,67292
 405,73; 5852,666;  333,421;20178,585;27,81153
 406,32; 5894,854;  339,438;20154,650;28,03612
 406,91; 5850,014;  324,611;19866,927;28,27405
 407,50; 5837,700;  338,929;19721,621;28,36949
 408,09; 5777,737;  311,397;19460,606;28,54603
 408,68; 5776,025;  306,633;19344,030;28,72973
 409,27; 5717,725;  306,165;19181,040;28,67070
 409,86; 5725,302;  319,458;19099,654;28,78481
 410,45; 5773,843;  366,060;19034,327;28,96778
 411,04; 5720,869;  355,047;18942,772;28,86756
 411,63; 5703,778;  330,800;18759,861;29,15492
 412,22; 5681,003;  337,554;18649,055;29,18084
 412,81; 5642,626;  360,625;18362,441;29,34149
 413,40; 5575,933;  356,234;18048,340;29,50298
 413,99; 5586,779;  416,236;17831,555;29,68963
 414,58; 5450,504;  342,465;17567,988;29,65389
 415,17; 5409,350;  335,548;17373,903;29,77871
 415,76; 5342,602;  324,477;17144,896;29,83353
 416,35; 5323,351;  321,628;16976,996;30,03069
 416,94; 5336,209;  356,476;16937,137;30,03338
 417,53; 5403,925;  329,855;17167,945;30,13447
 418,12; 5459,573;  331,239;17215,533;30,37340
 418,71; 5556,123;  361,772;17548,188;30,22358
 419,30; 5589,273;  323,854;17690,037;30,31996
 419,89; 5621,747;  319,775;17790,546;30,34767
 420,48; 5719,779;  343,464;18010,919;30,43061
 421,07; 5768,228;  342,386;18116,313;30,52697
 421,66; 5732,159;  314,152;18093,606;30,47341
 422,25; 5818,539;  335,838;18142,382;30,79037
 422,84; 5791,652;  341,299;18160,700;30,58662
 423,43; 5733,753;  329,609;17886,718;30,78038
 424,02; 5709,203;  356,608;17737,342;30,79614
 424,60; 5604,396;  320,601;17411,167;30,91644
 425,19; 5544,465;  332,450;17129,792;31,02881
 425,78; 5560,769;  342,989;17028,026;31,27221
 426,37; 5518,129;  351,601;16867,315;31,28250
 426,96; 5462,161;  333,755;16799,931;31,14509
 427,55; 5424,756;  320,905;16661,577;31,23403
 428,14; 5330,262;  316,057;16449,245;31,08006
 428,73; 5287,833;  318,214;16369,411;30,96105
 429,32; 5333,125;  338,217;16320,889;31,25202
 429,91; 5367,023;  341,060;16369,798;31,35595
 430,50; 5311,399;  347,981;16137,160;31,43557
 431,08; 5237,836;  349,287;16017,676;31,20008
 431,67; 5289,585;  386,208;15979,767;31,44489
 432,26; 5224,338;  400,591;15853,204;31,21638
 432,85; 5141,536;  429,130;15592,354;31,07787
 433,44; 5093,301;  439,050;15364,413;31,18350
 434,03; 5015,710;  458,200;14998,865;31,34320
 434,62; 4867,500;  409,588;14610,684;31,39132
 435,21; 4823,961;  417,745;14402,049;31,50830
 435,79; 4812,285;  420,278;14308,624;31,62368
 436,38; 4741,175;  404,967;14228,421;31,36848
 436,97; 4704,244;  412,274;14135,694;31,27478
 437,56; 4679,895;  402,346;13922,198;31,63903
 438,15; 4615,838;  382,193;13861,187;31,40921
 438,74; 4650,393;  421,269;13872,037;31,44150
 439,33; 4645,579;  387,886;13874,993;31,56862
 439,91; 4652,320;  352,037;13906,896;31,72503
 440,50; 4689,543;  396,037;13936,821;31,70795
 441,09; 4715,494;  393,495;14099,999;31,53246
 441,68; 4674,594;  365,184;14044,600;31,50288
 442,27; 4639,963;  354,801;14012,552;31,37531
 442,86; 4637,116;  337,717;14054,835;31,34331
 443,44; 4695,922;  351,872;14048,363;31,71651
 444,03; 4776,735;  435,948;14172,528;31,60020
 444,62; 4683,112;  348,332;14033,720;31,67451
 445,21; 4685,934;  369,179;13903,483;31,89491
 445,80; 4658,435;  412,406;13780,397;31,76266
 446,39; 4631,132;  453,868;13664,584;31,62027
 446,97; 4491,686;  351,710;13414,540;31,69279
 447,56; 4436,455;  367,476;13310,333;31,43802
 448,15; 4354,107;  370,634;13068,578;31,37101
 448,74; 4339,649;  382,479;12892,158;31,63287
 449,33; 4267,422;  369,015;12755,406;31,47331
 449,91; 4226,969;  367,242;12602,550;31,54580
 450,50; 4176,378;  367,243;12393,082;31,67458
 451,09; 4127,560;  383,935;12337,547;31,31794
 451,68; 4138,981;  391,857;12262,290;31,56687
 452,26; 4098,774;  397,470;12157,571;31,47340
 452,85; 4062,276;  379,010;12043,294;31,57730
 453,44; 4075,526;  381,928;12083,332;31,56543
 454,03; 4038,081;  359,239;12007,425;31,58297
 454,61; 3981,421;  367,081;12032,681;30,98289
 455,20; 4075,923;  384,387;12156,194;31,35913
 455,79; 4095,053;  396,775;12106,479;31,58302
 456,38; 4089,639;  396,462;12250,868;31,15447
 456,97; 4113,854;  396,463;12316,516;31,18603
 457,55; 4116,615;  390,845;12304,032;31,27433
 458,14; 4136,704;  412,463;12335,087;31,23675
 458,73; 4072,586;  392,691;12223,457;31,10446
 459,31; 4117,643;  426,534;12280,096;31,13924
 459,90; 4150,687;  452,151;12332,852;31,13062
 460,49; 4230,145;  509,613;12401,730;31,28570
 461,08; 4173,740;  408,686;12437,299;31,30081
 461,66; 4162,639;  402,073;12567,249;30,91255
 462,25; 4205,756;  403,454;12588,117;31,20563
 462,84; 4236,403;  421,609;12620,187;31,27245
 463,43; 4160,075;  370,220;12623,412;30,92953
 464,01; 4196,763;  405,757;12604,885;31,07604
 464,60; 4262,103;  464,529;12571,250;31,36749
 465,19; 4087,888;  388,756;12424,545;30,73444
 465,77; 4110,297;  412,678;12357,058;30,95698
 466,36; 4098,160;  434,912;12289,374;30,90185
 466,95; 3986,694;  414,297;11978,223;30,89260
 467,53; 3935,366;  422,137;11800,226;30,87714
 468,12; 3841,094;  447,752;11551,114;30,56140
 468,71; 3787,799;  416,679;11336,125;30,87263
 469,29; 3672,260;  400,367;11156,963;30,41755
 469,88; 3633,114;  411,212;10905,358;30,70190
 470,47; 3720,495;  467,978;10985,802;30,92385
 471,06; 3662,353;  424,055;10981,688;30,67257
 471,64; 3679,730;  434,748;11044,220;30,58570
 472,23; 3659,976;  408,512;11059,378;30,52769
 472,81; 3674,284;  387,130;11144,820;30,55632
 473,40; 3746,887;  404,358;11217,533;30,91163
 473,99; 3892,672;  526,358;11501,918;30,67100
 474,57; 3810,875;  409,050;11461,339;30,77936
 475,16; 3859,085;  438,360;11615,363;30,60503
 475,75; 3875,789;  463,433;11776,086;30,16407
 476,33; 3943,162;  448,354;11858,873;30,62795
 476,92; 3954,870;  454,665;11859,229;30,69127
 477,51; 3960,502;  440,201;11910,096;30,69166
 478,09; 3954,226;  442,124;11997,173;30,39453
 478,68; 3928,660;  449,738;11893,834;30,39927
 479,27; 3976,640;  494,740;11953,318;30,38683
 479,85; 3912,579;  450,508;11934,602;30,14666
 480,44; 3963,287;  427,507;11975,918;30,61703
 481,02; 4219,250;  460,120;12981,625;30,02139
 481,61; 4780,295;  469,352;14708,811;30,27463
 482,20; 5132,521;  455,043;15763,510;30,55485
 482,78; 5328,044;  489,969;16530,068;30,16238
 483,37; 5458,630;  464,886;17014,725;30,17397
 483,95; 5582,740;  508,963;17232,883;30,33844
 484,54; 5612,631;  502,968;17411,462;30,21951
 485,13; 5567,318;  467,037;17426,056;30,07415
 485,71; 5512,885;  455,115;17141,241;30,31123
 486,30; 5467,918;  486,269;16955,550;30,24813
 486,88; 5405,837;  554,653;16693,670;30,05873
 487,47; 5229,909;  499,190;16195,867;30,13835
 488,05; 4964,626;  506,497;15427,606;29,87800
 488,64; 4630,937;  474,341;14376,701;29,89850
 489,23; 4222,974;  500,573;12963,572;29,86761
 489,81; 3621,524;  502,803;11066,539;29,52290
 490,40; 3401,723;  458,649;10354,466;29,74058
 490,98; 3333,597;  436,725;10124,396;29,90267
 491,57; 3324,460;  462,496;10027,959;29,91976
 492,15; 3277,285;  447,802; 9917,861;29,87820
 492,74; 3272,901;  448,881; 9902,800;29,87142
 493,32; 3246,715;  469,802; 9814,395;29,71678
 493,91; 3226,633;  449,570; 9728,293;29,92937
 494,50; 3185,795;  446,258; 9679,862;29,66921
 495,08; 3208,835;  428,643; 9633,014;30,20513
 495,67; 3182,200;  472,185; 9578,252;29,76054
 496,25; 3109,443;  398,491; 9489,384;29,82052
 496,84; 3122,864;  416,109; 9512,673;29,75580
 497,42; 3092,212;  399,952; 9464,352;29,70147
 498,01; 3114,856;  437,108; 9453,793;29,69770
 498,59; 3071,414;  386,490; 9371,547;29,88211
 499,18; 3028,548;  393,339; 9287,218;29,62947
 499,76; 3061,253;  424,568; 9245,423;29,89149
 500,35; 2987,386;  415,949; 9113,908;29,56368
 500,93; 2982,584;  393,029; 9072,928;29,83394
 501,52; 2968,143;  386,490; 8958,662;30,11668
 502,10; 2986,017;  404,794; 8950,689;30,20425
 502,69; 2877,827;  387,254; 8864,315;29,38014
 503,27; 2839,884;  368,489; 8650,440;29,84074
 503,86; 2797,940;  392,639; 8591,426;29,33728
 504,44; 2764,025;  358,484; 8498,052;29,55367
 505,03; 2724,418;  357,792; 8276,629;29,88603
 505,61; 2690,240;  375,715; 8182,201;29,64873
 506,19; 2665,499;  381,484; 8061,205;29,74085
 506,78; 2605,693;  365,789; 7854,997;29,90842
 507,36; 2562,057;  375,869; 7714,319;29,79087
 507,95; 2518,838;  371,018; 7640,545;29,54553
 508,53; 2500,106;  369,097; 7535,150;29,73755
 509,12; 2453,417;  366,249; 7394,503;29,69682
 509,70; 2435,514;  391,172; 7298,662;29,59602
 510,29; 2415,433;  393,478; 7191,135;29,74488
 510,87; 2332,397;  349,866; 7022,534;29,71122
 511,46; 2297,300;  339,788; 6880,962;29,92600
 512,04; 2265,198;  357,094; 6728,628;29,94733
 512,62; 2217,178;  375,481; 6677,963;29,22179
 513,21; 2153,830;  341,786; 6516,175;29,34775
 513,79; 2122,153;  355,704; 6406,863;29,19191
 514,38; 2067,477;  327,167; 6279,236;29,23874
 514,96; 2112,700;  379,629; 6209,849;29,72565
 515,54; 2019,813;  333,782; 6073,357;29,37554
 516,13; 2017,615;  344,012; 5991,474;29,63459
 516,71; 1972,169;  344,472; 5877,527;29,41769
 517,30; 1929,586;  326,778; 5807,386;29,24508
 517,88; 1934,975;  352,086; 5754,270;29,30091
 518,46; 1884,230;  322,162; 5637,507;29,38789
 519,05; 1875,452;  340,238; 5601,825;29,17779
 519,63; 1864,671;  335,546; 5536,935;29,39840
 520,22; 1860,598;  356,928; 5499,494;29,23968
 520,80; 1826,905;  339,543; 5416,535;29,29613
 521,38; 1850,213;  398,699; 5437,134;28,80883
 521,97; 1800,205;  341,311; 5372,006;28,99984
 522,55; 1800,103;  346,926; 5348,352;29,05526
 523,13; 1788,779;  335,771; 5293,668;29,30695
 523,72; 1783,234;  339,777; 5276,160;29,24118
 524,30; 1831,253;  356,001; 5388,254;29,31594
 524,89; 1803,743;  317,157; 5357,816;29,49190
 525,47; 1835,893;  350,846; 5516,835;28,74660
 526,05; 1833,164;  305,692; 5526,607;29,25678
 526,64; 1891,556;  351,230; 5612,998;29,27393
 527,22; 1908,852;  350,616; 5719,181;29,02519
 527,80; 1970,613;  389,845; 5811,920;29,15430
 528,39; 1951,459;  325,460; 5872,543;29,31269
 528,97; 1991,896;  325,153; 5978,577;29,48202
 529,55; 2047,334;  335,771; 6130,053;29,53883
 530,14; 2098,811;  367,767; 6293,126;29,21417
 530,72; 2068,698;  329,306; 6366,578;28,81089
 531,30; 2103,196;  312,459; 6511,320;28,88816
 531,89; 2160,872;  330,228; 6552,628;29,42023
 532,47; 2210,508;  364,843; 6681,402;29,21946
 533,05; 2191,504;  360,153; 6677,919;28,98731
 533,63; 2199,803;  348,535; 6755,674;28,89384
 534,22; 2203,212;  324,996; 6714,482;29,39541
 534,80; 2242,807;  354,071; 6853,036;29,06210
 535,38; 2330,066;  462,151; 6950,707;28,78784
 535,97; 2210,018;  321,073; 6847,326;28,94378
 536,55; 2279,661;  397,686; 6924,884;28,83282
 537,13; 2246,560;  368,767; 6919,242;28,66653
 537,71; 2274,406;  400,767; 6942,048;28,64331
 538,30; 2271,932;  402,765; 7012,295;28,27989
 538,88; 2321,596;  439,069; 7128,972;28,13982
 539,46; 2407,321;  495,610; 7286,458;28,15129
 540,05; 2397,284;  485,762; 7347,659;27,85705
 540,63; 2463,880;  508,762; 7543,852;27,79094
 541,21; 2548,576;  526,684; 7667,785;28,31345
 541,79; 2540,252;  549,299; 7780,092;27,53436
 542,38; 2597,669;  581,916; 7875,773;27,63631
 542,96; 2637,491;  584,144; 7980,066;27,76323
 543,54; 2684,584;  604,607; 8164,629;27,51284
 544,12; 2668,616;  565,453; 8291,941;27,22017
 544,70; 2687,511;  562,605; 8385,298;27,16335
 545,29; 2739,940;  566,147; 8512,273;27,35664
 545,87; 2753,790;  578,146; 8531,707;27,35434
 546,45; 2726,365;  536,609; 8530,426;27,39313
 547,03; 2728,033;  516,762; 8591,549;27,38489
 547,62; 2745,612;  498,376; 8632,401;27,62760
 548,20; 2774,652;  516,221; 8840,064;27,13208
 548,78; 2790,652;  477,294; 8880,825;27,52840
 549,36; 2777,656;  465,448; 9026,130;27,00962
 549,94; 2803,304;  428,145; 9142,098;27,25697
 550,53; 2851,506;  439,218; 9317,086;27,17193
 551,11; 2856,790;  414,601; 9443,100;27,04977
 551,69; 2927,207;  430,756; 9739,513;26,81830
 552,27; 2965,612;  374,681; 9858,810;27,31860
 552,85; 3043,296;  388,216;10164,715;27,15777
 553,44; 3097,782;  395,525;10360,705;27,11698
 554,02; 3178,624;  403,986;10624,518;27,14768
 554,60; 3185,858;  352,755;10879,871;26,91244
 555,18; 3306,025;  388,064;11148,668;27,11707
 555,76; 3369,247;  378,832;11421,403;27,08078
 556,34; 3472,494;  380,215;11755,460;27,18429
 556,93; 3519,029;  373,217;12065,669;26,90463
 557,51; 3566,619;  341,676;12319,922;26,92333
 558,09; 3658,158;  375,679;12629,092;26,78828
 558,67; 3736,486;  361,136;12942,700;26,82774
 559,25; 3797,218;  382,599;13158,233;26,72759
 559,83; 3831,753;  356,905;13401,977;26,63725
 560,41; 3912,356;  347,907;13674,225;26,74744
 561,00; 4017,348;  369,906;13965,624;26,82787
 561,58; 4004,968;  352,985;14149,608;26,47012
 562,16; 4080,045;  341,216;14381,370;26,62954
 562,74; 4151,340;  325,448;14690,480;26,63337
 563,32; 4207,566;  324,674;15052,900;26,36361
 563,90; 4288,494;  347,444;15327,277;26,30903
 564,48; 4371,603;  363,677;15664,760;26,19374
 565,06; 4507,579;  342,675;16147,122;26,35273
 565,65; 4626,538;  355,134;16690,722;26,14784
 566,23; 4823,603;  405,059;17315,816;26,12860
 566,81; 4876,186;  340,368;17892,079;25,84260
 567,39; 5039,712;  348,058;18582,558;25,72955
 567,97; 5185,927;  385,752;19137,351;25,59875
 568,55; 5379,579;  409,597;19795,822;25,63666
 569,13; 5458,651;  357,598;20353,817;25,51009
 569,71; 5675,474;  324,832;21192,523;25,64079
 570,29; 5889,065;  404,218;22011,707;25,38401
 570,87; 5983,486;  383,448;22564,174;25,24732
 571,45; 6120,113;  367,137;23067,776;25,34279
 572,03; 6196,955;  315,211;23468,330;25,40368
 572,61; 6304,307;  319,828;24101,783;25,16395
 573,20; 6416,453;  353,368;24631,384;24,97356
 573,78; 6548,267;  330,674;25093,400;25,10868
 574,36; 6637,352;  352,674;25566,896;24,92513
 574,94; 6763,275;  417,134;25892,718;24,91068
 575,52; 6699,586;  325,209;26073,775;24,75624
 576,10; 6851,772;  389,979;26511,306;24,73762
 576,68; 6895,161;  359,288;27011,137;24,52315
 577,26; 7027,201;  381,900;27596,784;24,41789
 577,84; 7110,611;  387,059;28050,013;24,30526
 578,42; 7214,133;  442,595;28272,915;24,33151
 579,00; 7087,352;  368,751;28402,900;23,96577
 579,58; 7180,777;  418,596;28528,295;24,05640
 580,16; 7136,428;  363,825;28536,803;24,03936
 580,74; 7161,619;  365,287;28735,573;23,95581
 581,32; 7106,493;  360,441;28727,990;23,78088
 581,90; 7113,773;  396,441;28727,533;23,71011
 582,48; 7097,975;  376,287;28789,380;23,65701
 583,06; 7133,526;  358,903;28904,719;23,73245
 583,64; 7118,412;  358,288;28896,794;23,68773
 584,22; 7053,562;  383,208;28848,125;23,43360
 584,80; 6962,181;  382,672;28643,531;23,28135
 585,38; 6876,344;  389,292;28189,805;23,33429
 585,96; 6829,570;  343,289;28262,787;23,23208
 586,54; 6811,303;  374,362;28201,276;23,13207
 587,12; 6859,546;  352,056;28306,538;23,27888
 587,70; 6842,838;  385,289;28397,943;23,05226
 588,28; 6769,052;  344,825;28413,307;22,88769
 588,86; 6800,736;  364,670;28510,119;22,86716
 589,44; 6750,112;  328,591;28561,562;22,74476
 590,02; 6792,562;  341,899;28762,210;22,69737
 590,59; 6742,262;  325,209;28738,852;22,58441
 591,17; 6837,796;  348,050;28948,390;22,69115
 591,75; 6814,934;  323,282;28960,993;22,66819
 592,33; 6847,120;  352,283;29278,410;22,45319
 592,91; 6814,877;  294,281;29389,885;22,41093
 593,49; 6875,683;  314,203;29615,740;22,39295
 594,07; 6885,796;  330,742;29880,086;22,18342
 594,65; 6935,748;  350,439;29820,624;22,34567
 595,23; 6942,274;  336,669;30113,248;22,18390
 595,81; 6929,954;  331,976;30218,176;22,07701
 596,39; 6927,974;  325,975;30360,793;21,98115
 596,97; 6940,322;  311,666;30557,269;21,91610
 597,55; 6930,890;  312,515;30399,859;21,99720
 598,12; 6890,593;  294,202;30422,591;21,89427
 598,70; 6862,760;  295,281;30555,773;21,70315
 599,28; 6878,399;  332,127;30678,273;21,57201
 599,86; 6869,371;  313,050;30722,849;21,55990
 600,44; 6870,391;  272,434;30806,315;21,60864
 601,02; 6863,334;  346,123;30836,916;21,37436
 601,60; 6805,821;  319,205;30796,416;21,28349
 602,18; 6753,881;  282,664;30779,590;21,21924
 602,75; 6712,302;  288,899;30865,636;21,00749
 603,33; 6730,415;  306,819;30873,889;21,01476
 603,91; 6694,978;  283,278;30885,369;20,95184
 604,49; 6725,642;  307,665;30881,390;20,99181
 605,07; 6649,286;  317,359;30994,608;20,64047
 605,65; 6700,869;  315,588;31052,279;20,77413
 606,23; 6683,161;  345,978;31160,773;20,56539
 606,80; 6665,671;  355,514;31216,713;20,44689
 607,38; 6598,051;  363,663;31197,250;20,21947
 607,96; 6659,553;  390,130;31345,905;20,25284
 608,54; 6649,622;  435,818;31378,740;20,08150
 609,12; 6600,541;  427,668;31435,059;19,90775
 609,70; 6629,075;  435,281;31411,463;19,99534
 610,27; 6609,946;  419,745;31498,749;19,91763
 610,85; 6614,302;  459,897;31566,539;19,78486
 611,43; 6531,521;  442,050;31444,196;19,64209
 612,01; 6417,201;  406,052;31433,067;19,37392
 612,59; 6435,221;  413,435;31332,348;19,47606
 613,16; 6358,424;  400,208;31300,741;19,28192
 613,74; 6307,055;  383,358;31201,927;19,22120
 614,32; 6262,456;  381,049;31156,741;19,11056
 614,90; 6196,784;  373,743;31048,957;18,98289
 615,48; 6104,975;  347,208;30851,821;18,87507
 616,05; 6033,015;  319,901;30803,662;18,74150
 616,63; 6035,210;  341,363;30677,425;18,76923
 617,21; 5975,323;  331,515;30568,403;18,66531
 617,79; 5912,545;  319,129;30588,485;18,47881
 618,36; 5916,578;  331,975;30408,377;18,56806
 618,94; 5777,112;  265,207;30145,323;18,44673
 619,52; 5732,918;  307,055;29994,081;18,27688
 620,10; 5671,351;  275,591;29947,944;18,18447
 620,67; 5647,695;  293,517;29842,233;18,11984
 621,25; 5599,351;  309,513;29745,916;17,97040
 621,83; 5521,582;  283,515;29690,669;17,81222
 622,41; 5560,809;  350,977;29726,591;17,73523
 622,98; 5498,477;  314,671;29382,386;17,83355
 623,56; 5464,214;  318,671;29483,345;17,64307
 624,14; 5379,610;  296,281;29283,806;17,53626
 624,72; 5364,550;  303,669;29263,515;17,47551
 625,29; 5321,007;  287,056;29333,230;17,33086
 625,87; 5339,792;  335,052;29264,793;17,29964
 626,45; 5204,817;  284,056;29152,342;17,04556
 627,02; 5210,974;  293,744;29046,679;17,10166
 627,60; 5195,120;  267,511;29045,507;17,12284
 628,18; 5164,387;  262,899;29089,675;17,00325
 628,76; 5111,513;  258,055;29139,542;16,80474
 629,33; 5095,679;  307,285;29056,934;16,65549
 629,91; 5088,582;  277,514;29023,175;16,73667
 630,49; 5094,282;  304,593;29225,084;16,56158
 631,06; 5069,327;  287,055;29224,120;16,52646
 631,64; 5053,546;  289,210;29211,113;16,47311
 632,22; 5003,424;  264,826;29152,413;16,40358
 632,79; 5024,910;  292,057;29366,452;16,27842
 633,37; 5032,711;  265,667;29387,606;16,36925
 633,95; 4998,991;  284,595;29426,765;16,17723
 634,52; 4964,278;  274,054;29646,937;15,96787
 635,10; 4982,051;  286,976;29565,404;16,03595
 635,68; 5010,817;  287,134;29761,836;16,02623
 636,25; 4981,182;  263,904;29705,248;16,02263
 636,83; 4948,744;  253,901;29912,080;15,82984
 637,41; 4945,805;  273,596;29828,910;15,80836
 637,98; 4986,939;  306,673;30037,063;15,74236
 638,56; 4963,275;  279,366;30170,244;15,67003
 639,13; 4928,250;  257,902;30144,270;15,62702
 639,71; 5014,752;  341,593;30305,928;15,59574
 640,29; 4894,758;  232,439;30073,417;15,62388
 640,86; 4890,497;  261,132;30333,564;15,39405
 641,44; 4879,852;  266,747;30277,866;15,37132
 642,02; 4927,668;  290,055;30228,706;15,49039
 642,59; 4864,638;  250,901;30405,468;15,30030
 643,17; 4812,378;  257,439;30435,231;15,09368
 643,74; 4843,887;  254,670;30417,994;15,21456
 644,32; 4839,703;  278,593;30401,988;15,14142
 644,89; 4798,827;  278,208;30386,520;15,01452
 645,47; 4792,336;  288,823;30405,052;14,95377
 646,05; 4772,460;  281,823;30394,892;14,91258
 646,62; 4708,584;  263,746;30275,962;14,81009
 647,20; 4702,554;  269,823;30494,802;14,66579
 647,77; 4629,447;  241,131;30418,719;14,54164
 648,35; 4625,494;  231,438;30305,712;14,61068
 648,92; 4611,387;  264,130;30254,168;14,49567
 649,50; 4571,742;  237,207;30278,930;14,42838
 650,08; 4530,174;  230,284;30135,001;14,37863
 650,65; 4512,683;  252,284;30321,841;14,16848
 651,23; 4566,499;  218,515;30809,373;14,21334
 651,80; 4674,777;  227,207;31718,213;14,12330
 652,38; 4702,208;  250,130;32069,668;13,99165
 652,95; 4727,717;  231,515;32456,431;13,95257
 653,53; 4727,380;  245,514;32679,040;13,81862
 654,10; 4762,119;  283,899;32812,418;13,76706
 654,68; 4718,243;  231,745;32669,335;13,83117
 655,25; 4667,213;  224,822;32728,790;13,66723
 655,83; 4686,414;  231,437;32816,630;13,67178
 656,40; 4691,077;  273,360;32820,469;13,57330
 656,98; 4635,970;  241,206;32834,232;13,48375
 657,55; 4594,632;  243,052;32723,995;13,39733
 658,13; 4534,679;  241,821;32366,143;13,36326
 658,70; 4535,650;  268,129;32158,367;13,38190
 659,28; 4398,081;  240,129;31474,361;13,31216
 659,85; 4327,359;  274,667;30820,585;13,26754
 660,43; 4283,714;  259,744;30682,117;13,22701
 661,00; 4257,838;  252,590;30825,957;13,10045
 661,58; 4294,885;  236,898;31013,335;13,18537
 662,15; 4260,394;  235,744;31192,098;13,00105
 662,73; 4363,902;  308,821;31424,015;13,03248
 663,30; 4327,180;  241,975;31621,701;13,01861
 663,88; 4308,074;  249,898;31646,540;12,92551
 664,45; 4311,659;  241,667;31939,842;12,83983
 665,03; 4290,014;  231,820;32257,758;12,67158
 665,60; 4429,753;  341,743;32606,598;12,67016
 666,17; 4380,262;  246,897;32631,207;12,76348
 666,75; 4377,309;  243,282;32926,739;12,64868
 667,32; 4433,048;  266,359;33298,194;12,61416
 667,90; 4407,634;  257,589;33444,803;12,50495
 668,47; 4457,066;  274,743;33657,797;12,52828
 669,05; 4432,113;  239,435;33942,791;12,43994
 669,62; 4417,160;  224,666;33967,169;12,42496
 670,19; 4436,822;  222,974;34069,778;12,44977
 670,77; 4453,177;  253,666;34231,233;12,35966
 671,34; 4412,378;  242,281;34088,534;12,32070
 671,92; 4449,579;  229,973;34483,913;12,31860
 672,49; 4443,780;  259,281;34460,368;12,23499
 673,06; 4401,212;  209,435;34466,515;12,23624
 673,64; 4378,643;  226,281;34473,509;12,12467
 674,21; 4397,844;  212,204;34427,349;12,23330
 674,79; 4424,122;  258,742;34672,035;12,10399
 675,36; 4442,631;  255,127;34711,567;12,15304
 675,93; 4391,986;  207,204;34592,407;12,17030
 676,51; 4416,341;  247,511;34809,169;12,06201
 677,08; 4411,849;  243,280;34850,932;12,04522
 677,65; 4425,589;  246,434;34861,234;12,07332
 678,23; 4428,482;  245,665;35089,458;12,00448
 678,80; 4408,375;  230,434;35136,375;11,96914
 679,38; 4413,884;  233,588;35252,830;11,93714
 679,95; 4439,777;  249,357;35525,054;11,87906
 680,52; 4409,901;  234,203;35772,356;11,74990
 681,10; 4499,717;  258,818;36171,888;11,80879
 681,67; 4476,303;  251,357;36259,035;11,73346
 682,24; 4501,581;  206,280;36386,260;11,87204
 682,82; 4492,782;  237,741;36745,792;11,65507
 683,39; 4567,060;  283,433;37066,016;11,64580
 683,96; 4534,645;  247,895;37278,856;11,57613
 684,54; 4555,000;  213,895;37639,850;11,59918
 685,11; 4668,739;  290,356;37925,074;11,63389
 685,68; 4598,556;  238,664;38169,837;11,49422
 686,25; 4601,603;  221,356;38295,369;11,50456
 686,83; 4647,111;  231,664;38387,593;11,57211
 687,40; 4660,005;  218,971;38711,741;11,53732
 687,97; 4704,513;  273,279;39111,427;11,40949
 688,55; 4639,484;  216,971;39122,190;11,36740
 689,12; 4657,146;  213,663;39254,952;11,38150
 689,69; 4685,885;  213,509;39285,254;11,44657
 690,26; 4646,471;  227,355;39464,632;11,26254
 690,84; 4662,749;  218,586;39549,241;11,29949
 691,41; 4713,181;  244,048;39679,081;11,33290
 691,98; 4755,920;  241,124;40035,767;11,34523
 692,56; 4695,736;  221,817;39923,683;11,26879
 693,13; 4735,860;  276,047;40073,985;11,20614
 693,70; 4740,523;  250,739;40198,978;11,23900
 694,27; 4696,955;  221,970;40273,972;11,17294
 694,84; 4702,463;  227,739;40409,196;11,13629
 695,42; 4865,895;  363,047;40562,498;11,20127
 695,99; 4746,404;  238,201;40668,261;11,15062
 696,56; 4729,989;  229,278;40425,177;11,19694
 697,13; 4789,805;  250,893;40928,094;11,15837
 697,71; 4767,468;  237,354;40919,011;11,13552
 698,28; 4794,207;  233,970;41056,697;11,17083
 698,85; 4738,639;  206,970;41095,767;11,08291
 699,42; 4789,840;  210,354;41349,915;11,13159
 699,99; 4798,195;  255,816;41336,447;11,05723
 700,57; 4808,473;  249,123;41415,440;11,07544
 701,14; 4797,674;  224,969;41550,203;11,06516
 701,71; 4815,567;  251,892;41730,889;11,00237
 702,28; 4815,845;  223,277;41843,883;11,03436
 702,85; 4818,276;  231,584;41842,876;11,02271
 703,43; 4853,400;  252,430;42044,947;11,00908
 704,00; 4899,448;  264,353;42261,787;11,03661
 704,57; 4849,033;  232,969;42225,319;10,99263
 705,14; 4863,849;  260,122;42461,928;10,90884
 705,71; 4928,973;  269,507;42584,152;11,01147
 706,28; 4870,944;  240,353;42407,146;10,98160
 706,86; 4907,606;  267,199;42609,524;10,95926
 707,43; 4934,269;  291,507;42608,672;10,97134
 708,00; 4901,854;  272,430;42597,050;10,93790
 708,57; 4892,286;  234,353;42547,890;11,00814
 709,14; 4926,564;  253,045;42677,652;11,01606
 709,71; 4909,149;  234,583;42723,492;11,00185
 710,28; 4931,119;  249,891;42956,101;10,96147
 710,86; 4937,705;  242,199;43044,941;10,97011
 711,43; 4990,983;  281,122;43032,704;11,01681
 712,00; 4952,568;  244,814;43090,159;10,98779
 712,57; 5012,231;  273,968;43237,537;11,02856
 713,14; 5002,586;  250,737;43336,454;11,02883
 713,71; 5029,094;  267,814;43246,371;11,07827
 714,28; 5022,988;  249,583;43236,134;11,10441
 714,85; 4991,958;  233,813;43089,127;11,10281
 715,42; 5025,082;  242,736;43212,505;11,12956
 716,00; 5128,052;  330,044;43356,730;11,15124
 716,57; 5059,253;  245,505;43522,647;11,12307
 717,14; 5053,069;  235,352;43316,486;11,18289
 717,71; 5022,501;  216,275;43472,172;11,11115
 718,28; 5083,010;  284,967;43603,320;11,07624
 718,85; 5043,595;  212,121;43541,621;11,15054
 719,42; 5105,335;  246,736;43593,461;11,20869
 719,99; 5089,536;  228,890;43414,147;11,25534
 720,56; 5108,583;  266,813;43777,140;11,12786
 721,13; 5101,937;  221,889;43855,211;11,18422
 721,70; 5088,523;  232,889;43612,358;11,19339
 722,27; 5131,109;  257,812;43730,814;11,20994
 722,84; 5197,617;  316,120;43911,577;11,19726
 723,41; 5114,434;  223,120;43891,032;11,20116
 723,98; 5161,019;  233,427;43995,487;11,25996
 724,55; 5201,912;  260,274;44173,942;11,25308
 725,12; 5174,421;  200,504;44037,474;11,34640
 725,69; 5211,084;  243,581;44181,468;11,30574
 726,27; 5212,669;  226,658;44316,308;11,30880
 726,84; 5250,024;  245,735;44467,840;11,31626
 727,41; 5263,763;  256,889;44551,833;11,30349
 727,98; 5307,195;  257,042;44802,596;11,33705
 728,55; 5350,781;  297,196;44755,128;11,36712
 729,12; 5320,597;  226,119;44790,891;11,43163
 729,69; 5336,106;  263,811;44922,500;11,35791
 730,26; 5346,922;  254,350;45143,724;11,34472
 730,82; 5383,354;  253,888;45098,103;11,43841
 731,39; 5392,939;  245,965;45088,019;11,47801
 731,96; 5393,602;  222,888;45360,090;11,45555
 732,53; 5428,110;  252,195;45507,699;11,43709
 733,10; 5504,311;  263,426;45678,770;11,53990
 733,67; 5507,204;  250,041;45739,840;11,55680
 734,24; 5488,252;  237,195;45466,218;11,60993
 734,81; 5517,376;  282,195;45622,827;11,54633
 735,38; 5516,115;  258,041;45525,744;11,61551
 735,95; 5471,162;  263,272;45320,276;11,55845
 736,52; 5519,671;  247,426;45478,501;11,65625
 737,09; 5516,102;  268,426;45200,725;11,67907
 737,66; 5585,227;  318,887;45480,103;11,66120
 738,23; 5588,581;  257,349;45489,405;11,78640
 738,80; 5692,551;  338,964;45834,783;11,76721
 739,37; 5644,676;  289,348;45843,315;11,75601
 739,94; 5664,723;  258,810;45876,616;11,85044
 740,51; 5791,539;  420,348;46032,610;11,77576
 741,07; 5677,048;  262,348;46013,988;11,83498
 741,64; 5735,325;  285,502;46088,443;11,89841
 742,21; 5798,834;  268,117;46098,437;12,06781
 742,78; 5773,189;  239,579;45969,200;12,10071
 743,35; 5737,082;  265,886;46198,963;11,91123
 743,92; 5867,668;  326,117;46355,341;12,03920
 744,49; 5898,638;  314,348;46251,334;12,15641
 745,06; 5846,454;  260,886;46256,482;12,14370
 745,63; 5836,809;  242,655;46212,937;12,16907
 746,19; 5868,625;  266,040;46279,700;12,17592
 746,76; 5909,057;  269,270;46202,540;12,27822
 747,33; 5898,335;  272,578;46311,072;12,21968
 747,90; 5987,767;  277,501;46478,065;12,35973
 748,47; 5989,968;  275,116;46369,367;12,39819
 749,04; 6033,707;  277,501;46429,822;12,47219
 749,61; 6022,369;  314,501;46430,123;12,37730
 750,17; 6014,340;  287,885;46419,040;12,41342
 750,74; 6022,464;  287,577;46394,187;12,43832
 751,31; 6014,357;  247,424;46338,335;12,51208
 751,88; 5974,327;  245,962;46223,559;12,45904
 752,45; 6059,374;  260,500;46379,168;12,57381
 753,02; 6070,267;  281,039;46202,623;12,60677
 753,58; 6062,622;  258,192;46049,848;12,67574
 754,15; 6069,516;  261,115;46249,380;12,63018
 754,72; 6073,793;  250,346;46024,835;12,72204
 755,29; 6066,071;  258,115;45829,060;12,74487
 755,86; 6097,580;  278,192;45989,361;12,73078
 756,42; 6157,165;  281,038;45922,278;12,87460
 756,99; 6087,059;  234,115;45845,271;12,83226
 757,56; 6137,490;  241,577;45842,726;12,92931
 758,13; 6107,922;  194,653;45746,258;12,98147
 758,70; 6180,662;  244,576;45813,406;13,02664
 759,26; 6195,632;  227,269;45909,323;13,06501
 759,83; 6290,448;  244,345;45917,470;13,23777
 760,40; 6225,495;  217,115;45844,541;13,16835
 760,97; 6230,696;  213,653;45946,611;13,15691
 761,53; 6220,743;  201,191;45538,297;13,27732
 762,10; 6243,098;  200,191;45633,829;13,30051
 762,67; 6290,453;  229,345;45480,900;13,39425
 763,24; 6216,115;  178,960;45142,740;13,42671
 763,80; 6306,470;  220,576;45303,426;13,49936
 764,37; 6290,825;  223,422;45338,419;13,44875
 764,94; 6258,872;  217,345;44805,413;13,54965
 765,50; 6331,150;  217,114;44845,868;13,69977
 766,07; 6363,428;  254,191;44927,939;13,67523
 766,64; 6359,321;  233,191;44698,548;13,77731
 767,21; 6285,983;  241,114;44582,926;13,63244
 767,77; 6343,646;  244,190;44542,304;13,76911
 768,34; 6373,232;  257,498;44448,682;13,83926
 768,91; 6387,971;  266,190;44302,984;13,90151
 769,47; 6427,326;  256,575;44390,746;13,98180
 770,04; 6408,450;  263,652;44253,663;13,96862
 770,61; 6399,189;  234,959;43964,349;14,09631
 771,18; 6430,390;  240,267;43998,112;14,14632
 771,74; 6431,130;  255,498;44062,490;14,09737
 772,31; 6453,407;  271,344;43868,561;14,17995
 772,88; 6434,839;  235,882;43699,785;14,26231
 773,44; 6427,579;  234,343;43574,317;14,28989
 774,01; 6484,703;  275,574;43676,695;14,30638
 774,58; 6468,519;  235,805;43413,381;14,43507
 775,14; 6509,181;  238,420;43453,375;14,51063
 775,71; 6475,305;  234,035;43417,446;14,45293
 776,27; 6588,429;  313,882;43282,978;14,60247
 776,84; 6666,400;  366,805;43421,894;14,63148
 777,41; 6590,831;  264,958;43214,965;14,72846
 777,97; 6556,340;  250,497;42939,420;14,77161
 778,54; 6606,464;  260,112;42996,260;14,85008
 779,11; 6653,896;  288,727;42979,946;14,90978
 779,67; 6674,327;  268,419;42977,324;14,99900
 780,24; 6663,451;  265,189;42792,087;15,04521
 780,80; 6748,729;  269,035;42735,465;15,25839
 781,37; 6721,315;  285,342;42748,228;15,15670
 781,94; 6751,670;  267,881;42466,222;15,36503
 782,50; 6772,640;  267,342;42478,831;15,41120
 783,07; 6798,533;  286,573;42588,055;15,39417
 783,63; 6760,888;  257,496;42370,895;15,44257
 784,20; 6819,473;  295,803;42269,658;15,54222
 784,77; 6803,213;  261,111;42054,805;15,65332
 785,33; 6746,414;  240,034;42003,260;15,57921
 785,90; 6814,769;  256,957;41958,408;15,72562
 786,46; 6837,970;  286,957;41880,325;15,75014
 787,03; 6796,555;  260,341;41802,472;15,73394
 787,59; 6830,679;  259,726;41700,927;15,85609
 788,16; 6880,188;  274,418;41620,844;15,97664
 788,73; 6860,004;  274,034;41597,453;15,93762
 789,29; 6830,436;  251,110;41260,908;16,04330
 789,86; 6853,252;  295,495;41199,056;16,03224
 790,42; 6854,299;  271,341;40958,818;16,17932
 790,99; 6845,116;  272,341;40754,966;16,23604
 791,55; 6819,393;  261,879;40746,421;16,19758
 792,12; 6857,902;  306,956;40708,645;16,21453
 792,68; 6840,026;  277,033;40461,408;16,33220
 793,25; 6854,227;  285,494;40209,171;16,45323
 793,81; 6874,582;  366,571;39938,011;16,44623
 794,38; 6777,706;  244,033;39787,620;16,52271
 794,94; 6803,138;  261,494;39647,383;16,60910
 795,51; 6785,569;  273,648;39460,069;16,61780
 796,07; 6760,078;  273,879;39260,832;16,63685
 796,64; 6827,587;  291,032;39409,210;16,70976
 797,20; 6766,711;  286,494;38950,588;16,76030
 797,77; 6714,373;  231,878;38631,659;16,88159
 798,33; 6767,266;  261,417;38575,345;16,98038
 798,90; 6809,698;  280,878;38519,877;17,07372
 799,46; 6733,284;  255,032;38056,409;17,13761
 800,03; 6739,254;  269,340;38048,556;17,12559
 800,59; 6710,993;  281,416;37944,165;17,07145
 801,15; 6736,271;  289,032;37662,851;17,25068
 801,72; 6691,395;  270,109;37398,383;17,29487
 802,28; 6673,981;  292,570;37212,685;17,28437
 802,85; 6664,335;  274,493;36984,986;17,40604
 803,41; 6661,844;  276,570;36836,980;17,46500
 803,98; 6648,430;  262,185;36430,973;17,65678
 804,54; 6651,938;  266,954;36340,582;17,69987
 805,11; 6648,678;  279,262;36156,345;17,75344
 805,67; 6660,186;  303,723;36007,339;17,80342
 806,23; 6566,849;  280,493;35717,871;17,73934
 806,80; 6626,665;  291,108;35601,403;17,94252
 807,36; 6633,789;  299,339;35624,089;17,93205
 807,93; 6628,067;  308,108;35394,313;18,01266
 808,49; 6569,960;  271,338;35077,230;18,09642
 809,05; 6562,392;  253,800;34892,993;18,21230
 809,62; 6625,439;  285,877;34816,679;18,35915
 810,18; 6605,871;  269,338;34789,826;18,35586
 810,74; 6553,303;  239,415;34568,589;18,39219
 811,31; 6539,427;  256,953;34472,121;18,36166
 811,87; 6607,704;  280,184;34216,269;18,64540
 812,44; 6606,982;  294,953;34357,416;18,53075
 813,00; 6507,568;  222,953;34017,641;18,59646
 813,56; 6638,230;  276,107;34080,173;18,82059
 814,13; 6572,970;  279,030;34023,166;18,65195
 814,69; 6566,786;  251,876;33879,160;18,77913
 815,25; 6498,679;  227,722;33471,154;18,86375
 815,82; 6565,880;  277,645;33500,147;18,92764
 816,38; 6591,466;  313,568;33346,372;19,00504
 816,94; 6486,205;  237,953;33033,134;19,05235
 817,51; 6534,406;  235,106;32749,128;19,37410
 818,07; 6485,684;  252,568;32706,814;19,20586
 818,63; 6464,885;  259,183;32416,269;19,29809
 819,20; 6472,471;  265,798;32452,263;19,28349
 819,76; 6418,287;  237,721;32109,564;19,39193
 820,32; 6470,565;  282,183;32075,173;19,46461
 820,89; 6415,458;  268,337;31837,859;19,47170
 821,45; 6413,736;  251,952;31549,007;19,68806
 822,01; 6405,783;  270,798;31403,616;19,70585
 822,57; 6394,830;  274,106;31264,225;19,75057
 823,14; 6325,108;  230,798;31097,295;19,74409
 823,70; 6326,386;  243,028;30937,212;19,81925
 824,26; 6298,433;  249,259;30755,975;19,82899
 824,82; 6364,788;  284,721;30647,661;20,02463
 825,39; 6316,066;  246,105;30400,577;20,12955
 825,95; 6308,805;  263,874;30414,263;20,04926
 826,51; 6287,391;  267,874;30120,488;20,16412
 827,08; 6357,438;  296,874;30146,327;20,30377
 827,64; 6333,331;  284,643;29959,552;20,38317
 828,20; 6256,917;  245,182;29785,007;20,35129
 828,76; 6337,810;  290,259;29812,385;20,48481
 829,32; 6343,626;  298,335;29650,456;20,59575
 829,89; 6286,981;  241,105;29518,142;20,65057
 830,45; 6311,336;  276,643;29463,674;20,67594
 831,01; 6297,998;  271,951;29353,052;20,72152
 831,57; 6276,199;  270,489;29269,430;20,71010
 832,14; 6302,477;  256,335;29244,193;20,85750
 832,70; 6269,601;  244,181;28954,418;20,98701
 833,26; 6246,494;  220,027;28888,565;21,02119
 833,82; 6296,234;  261,565;28903,713;21,06919
 834,38; 6358,358;  250,719;28807,091;21,38801
 834,95; 6314,251;  243,565;28727,392;21,31275
 835,51; 6289,529;  218,181;28604,463;21,38832
 836,07; 6374,499;  249,104;28714,764;21,51854
 836,63; 6384,008;  281,257;28682,527;21,48760
 837,19; 6355,362;  269,257;28549,982;21,52033
 837,75; 6302,640;  221,642;28266,437;21,68316
 838,32; 6387,841;  284,719;28343,585;21,75114
 838,88; 6399,965;  282,488;28406,809;21,75156
 839,44; 6440,166;  273,488;28302,880;22,00076
 840,00; 6377,983;  259,949;28280,642;21,83398
 840,56; 6389,491;  243,103;28033,021;22,11733
 841,12; 6380,077;  239,488;27914,476;22,18823
 841,68; 6320,662;  231,334;27790,469;22,09550
 842,25; 6356,940;  248,026;27896,155;22,09522
 842,81; 6345,987;  241,718;27616,688;22,29873
 843,37; 6357,804;  232,026;27647,758;22,34402
 843,93; 6375,620;  255,487;27594,059;22,38644
 844,49; 6465,590;  262,872;27645,822;22,65175
 845,05; 6379,022;  210,025;27405,047;22,68429
 845,61; 6459,300;  268,718;27456,886;22,76940
 846,17; 6419,885;  238,871;27339,342;22,80777
 846,73; 6436,932;  254,948;27315,028;22,84540
 847,29; 6429,672;  236,102;27138,637;23,02225
 847,86; 6433,104;  241,948;27111,861;23,04122
 848,42; 6432,304;  242,794;26990,393;23,14043
 848,98; 6467,505;  263,486;26910,387;23,28233
 849,54; 6451,014;  252,563;26995,765;23,17767
 850,10; 6461,369;  266,179;26909,682;23,25216
 850,66; 6484,647;  235,563;26666,829;23,64277
 851,22; 6444,694;  226,717;26607,592;23,57002
 851,78; 6515,356;  285,178;26678,355;23,60526
 852,34; 6442,788;  269,640;26529,195;23,50820
 852,90; 6470,527;  248,870;26495,034;23,70501
 853,46; 6414,344;  238,563;26244,028;23,74801
 854,02; 6477,314;  254,409;26301,252;23,89121
 854,58; 6429,515;  250,870;26099,554;23,90313
 855,14; 6453,716;  239,562;26025,470;24,09903
 855,70; 6422,071;  212,947;25916,464;24,15671
 856,26; 6461,349;  256,947;25867,150;24,22629
 856,82; 6420,626;  253,870;25749,374;24,18762
 857,38; 6452,443;  302,254;25675,906;24,23848
 857,94; 6426,182;  248,716;25611,362;24,35655
 858,50; 6431,306;  274,254;25480,586;24,42661
 859,06; 6355,430;  243,331;25218,503;24,47270
 859,62; 6455,631;  271,946;25298,035;24,70895
 860,18; 6401,909;  252,100;25060,721;24,78900
 860,74; 6375,648;  216,562;25002,714;24,84890
 861,30; 6395,234;  246,869;24816,708;25,02403
 861,86; 6467,512;  319,946;24890,625;25,01993
 862,42; 6369,328;  240,715;24682,695;25,07413
 862,98; 6442,991;  291,869;24688,997;25,21248
 863,54; 6377,115;  249,023;24474,760;25,29579
 864,10; 6431,469;  253,253;24526,907;25,45235
 864,66; 6346,747;  218,176;24366,362;25,37901
 865,22; 6366,179;  255,022;24190,125;25,53219
 865,78; 6372,303;  248,253;24193,811;25,57489
 866,34; 6375,581;  238,253;24092,112;25,72887
 866,90; 6381,936;  251,791;23978,798;25,83615
 867,45; 6340,214;  243,253;23773,330;25,91135
 868,01; 6394,107;  257,868;23686,862;26,19079
 868,57; 6342,308;  239,714;23600,087;26,12370
 869,13; 6281,893;  237,330;23485,080;26,00064
 869,69; 6312,633;  233,406;23371,305;26,27389
 870,25; 6296,218;  220,022;23242,145;26,39286
 870,81; 6326,727;  241,099;23242,754;26,45735
 871,37; 6324,928;  257,175;23147,440;26,50801
 871,93; 6324,667;  275,175;23046,818;26,56590
 872,49; 6307,253;  300,406;22873,273;26,61092
 873,04; 6211,685;  226,867;22713,420;26,61509
 873,60; 6248,039;  230,867;22635,029;26,85738
 874,16; 6243,317;  261,790;22568,177;26,81531
 874,72; 6236,471;  232,098;22491,946;26,97401
 875,28; 6243,317;  246,329;22428,408;27,03529
 875,84; 6249,010;  250,406;22390,869;27,09340
 876,40; 6235,240;  237,252;22352,946;27,12096
 876,95; 6266,240;  265,637;22299,792;27,23319
 877,51; 6326,779;  283,637;22322,254;27,42070
 878,07; 6296,548;  297,252;22311,331;27,25209
 878,63; 6311,317;  254,483;22296,177;27,47899
 879,19; 6351,317;  270,098;22358,331;27,53149
 879,75; 6344,087;  247,252;22321,638;27,61950
 880,30; 6360,548;  239,406;22373,638;27,65464
 880,86; 6433,779;  292,637;22521,562;27,62681
 881,42; 6350,779;  232,021;22510,946;27,46433
 881,98; 6416,394;  264,406;22569,638;27,58092
 882,54; 6446,702;  254,098;22638,485;27,66484
 883,09; 6554,087;  268,483;22714,408;28,00332
 883,65; 6512,163;  227,406;22761,638;27,88982
 884,21; 6591,548;  280,944;22960,177;27,82547
 884,77; 6610,240;  238,483;22999,715;27,99390
 885,32; 6658,010;  249,329;23011,638;28,15479
 885,88; 6727,548;  288,098;23216,792;28,08468
 886,44; 6710,548;  257,637;23296,715;28,00855
 887,00; 6732,548;  278,252;23317,638;28,01418
 887,56; 6762,933;  247,867;23393,946;28,14760
 888,11; 6849,394;  256,098;23412,254;28,47319
 888,67; 6877,702;  274,790;23560,715;28,35581
 889,23; 6920,933;  260,483;23537,869;28,61339
 889,79; 6828,702;  236,560;23478,177;28,36353
 890,34; 6936,394;  261,637;23438,869;28,79877
 890,90; 7025,548;  335,252;23556,100;28,81159
 891,46; 6930,394;  251,944;23515,331;28,70799
 892,01; 6966,317;  271,637;23481,408;28,84423
 892,57; 6941,394;  290,867;23462,100;28,70165
 893,13; 6933,394;  254,637;23253,715;29,03924
 893,69; 6915,933;  233,175;23210,254;29,08445
 894,24; 6946,317;  247,098;23140,023;29,26327
 894,80; 6934,625;  248,944;23016,946;29,36437
 895,36; 6923,317;  252,713;22917,177;29,43200
 895,91; 6856,394;  247,560;22825,408;29,27132
 896,47; 6920,087;  278,790;22719,100;29,59539
 897,03; 6808,317;  252,252;22567,638;29,37913
 897,58; 6844,471;  259,560;22400,946;29,74029
 898,14; 6874,010;  261,406;22242,792;30,08274
 898,70; 6796,933;  213,406;22143,177;30,02096
 899,25; 6850,548;  253,329;22181,715;30,08529
 899,81; 6829,240;  251,867;22036,408;30,19285
 900,37; 6750,240;  222,713;21764,946;30,30107
 900,92; 6783,933;  245,252;21832,023;30,29022
 901,48; 6750,163;  243,790;21694,254;30,33209
 902,03; 6779,317;  242,713;21513,023;30,73112
 902,59; 6764,548;  239,252;21413,408;30,81727
 903,15; 6762,933;  255,637;21360,715;30,83284
 903,70; 6693,702;  240,406;21169,177;30,83457
 904,26; 6680,394;  245,175;21055,177;30,92368
 904,82; 6708,471;  243,098;21036,638;31,09318
 905,37; 6700,087;  267,406;20925,485;31,13881
 905,93; 6654,856;  237,944;20862,100;31,11357
 906,48; 6684,933;  261,252;20831,946;31,22734
 907,04; 6686,625;  258,098;20762,331;31,35219
 907,60; 6683,394;  266,713;20541,562;31,64848
 908,15; 6596,856;  227,021;20455,408;31,48958
 908,71; 6694,702;  258,406;20409,408;31,94033
 909,26; 6624,856;  239,483;20304,177;31,82392
 909,82; 6606,087;  261,483;20233,869;31,76688
 910,37; 6692,087;  285,944;20174,331;32,21047
 910,93; 6552,163;  236,637;19962,485;32,01650
 911,48; 6534,856;  224,637;19879,562;32,10503
 912,04; 6566,163;  235,329;19814,869;32,33393
 912,60; 6615,625;  244,021;19806,562;32,57043
 913,15; 6546,471;  252,021;19604,792;32,52480
 913,71; 6499,394;  228,175;19536,331;32,47964
 914,26; 6468,471;  213,021;19437,023;32,53979
 914,82; 6525,702;  258,560;19373,254;32,78704
 915,37; 6466,163;  236,560;19328,331;32,62978
 915,93; 6539,625;  306,713;19241,254;32,91821
 916,48; 6428,625;  217,098;19115,946;32,86723
 917,04; 6480,163;  255,560;19033,331;33,14879
 917,59; 6455,163;  268,637;18987,254;33,05013
 918,15; 6353,087;  210,406;18833,715;32,98383
 918,70; 6392,625;  230,713;18762,869;33,24984
 919,26; 6406,087;  243,560;18633,638;33,51006
 919,81; 6323,625;  220,098;18520,254;33,35232
 920,37; 6345,010;  234,329;18455,946;33,53534
 920,92; 6316,856;  252,560;18444,177;33,33566
 921,48; 6284,394;  224,867;18301,254;33,52178
 922,03; 6254,779;  229,637;18233,100;33,46657
 922,59; 6270,163;  243,483;18105,562;33,74009
 923,14; 6261,933;  251,406;18036,638;33,79504
 923,69; 6289,087;  264,637;17984,792;33,99773
 924,25; 6288,240;  273,944;17944,254;34,03617
 924,80; 6211,010;  234,098;17753,792;34,11539
 925,36; 6204,240;  221,021;17678,946;34,27222
 925,91; 6204,779;  225,098;17594,408;34,42670
 926,47; 6167,163;  207,560;17556,638;34,35113
 927,02; 6261,240;  315,098;17558,638;34,48330
 927,57; 6153,856;  226,175;17284,023;34,75046
 928,13; 6140,087;  215,483;17281,023;34,71677
 928,68; 6143,702;  228,637;17233,023;34,78553
 929,24; 6103,240;  203,252;17075,331;34,96895
 929,79; 6077,702;  224,790;16946,638;35,00158
 930,34; 6089,394;  221,713;16873,331;35,23790
 930,90; 6056,625;  213,252;16818,638;35,18962
 931,45; 6086,471;  232,406;16841,023;35,24716
 932,01; 6059,779;  228,252;16796,408;35,19720
 932,56; 6037,933;  257,252;16666,023;35,22921
 933,11; 6113,394;  260,021;16579,485;35,86744
 933,67; 6009,394;  215,790;16498,408;35,58153
 934,22; 5986,702;  228,944;16413,638;35,57533
 934,77; 6048,394;  262,252;16297,100;36,08480
 935,33; 5992,933;  228,790;16237,715;36,00580
 935,88; 6012,010;  241,560;16149,562;36,27388
 936,43; 5980,702;  232,406;16092,562;36,24363
 936,99; 5984,779;  234,175;15959,946;36,56802
 937,54; 5926,702;  215,098;15838,638;36,55768
 938,09; 5961,933;  239,867;15850,485;36,65496
 938,65; 5902,317;  238,637;15749,177;36,51504
 939,20; 5871,010;  204,483;15622,177;36,75340
 939,75; 5845,856;  211,021;15540,100;36,75912
 940,31; 5837,702;  209,252;15446,562;36,93861
 940,86; 5900,163;  231,637;15465,331;37,21045
 941,41; 5948,163;  337,790;15419,946;37,19875
 941,96; 5843,163;  216,790;15296,562;37,31073
 942,52; 5804,779;  222,867;15159,408;37,37085
 943,07; 5785,702;  206,560;15129,792;37,38561
 943,62; 5788,471;  226,944;15026,100;37,58003
 944,18; 5745,471;  198,790;14977,254;37,53219
 944,73; 5745,779;  245,944;14924,946;37,46736
 945,28; 5669,856;  192,790;14737,562;37,65659
 945,83; 5695,933;  219,483;14770,177;37,63704
 946,39; 5709,394;  217,637;14769,177;37,74004
 946,94; 5717,779;  242,329;14655,485;37,98925
 947,49; 5649,548;  212,944;14504,869;38,03969
 948,04; 5713,010;  274,252;14543,946;38,11405
 948,59; 5663,394;  247,175;14437,946;38,16719
 949,15; 5585,702;  215,175;14429,638;37,78213
 949,70; 5608,240;  225,944;14290,792;38,26772
 950,25; 5609,240;  232,329;14228,408;38,41727
 950,80; 5556,933;  187,790;14121,100;38,53458
 951,36; 5506,779;  179,021;14015,715;38,50456
 951,91; 5598,856;  236,329;14056,254;38,80287
 952,46; 5537,087;  225,944;13898,177;38,84620
 953,01; 5527,317;  224,483;13934,254;38,67924
 953,56; 5498,625;  194,406;13775,869;39,05484
 954,11; 5532,702;  228,098;13778,638;39,14681
 954,67; 5452,625;  224,713;13705,023;38,78184
 955,22; 5433,087;  203,790;13541,100;39,20803
 955,77; 5485,471;  249,175;13578,946;39,28272
 956,32; 5474,702;  279,406;13514,023;39,25536
 956,87; 5413,779;  216,098;13390,562;39,45269
 957,42; 5350,471;  217,329;13284,100;39,28394
 957,98; 5359,394;  209,098;13328,485;39,25714
 958,53; 5388,087;  255,329;13253,485;39,48835
 959,08; 5302,856;  196,867;13110,715;39,53886
 959,63; 5326,087;  223,098;13049,023;39,78651
 960,18; 5286,548;  242,713;13036,331;39,42462
 960,73; 5294,087;  219,713;13011,715;39,66833
 961,28; 5212,317;  197,406;12875,408;39,55601
 961,83; 5283,702;  244,560;12834,869;40,02397
 962,39; 5199,856;  206,637;12727,408;39,87949
 962,94; 5181,087;  227,483;12728,254;39,62639
 963,49; 5169,163;  232,713;12643,715;39,77479
 964,04; 5163,163;  237,021;12593,100;39,86817
 964,59; 5131,087;  209,021;12445,869;40,22331
 965,14; 5157,779;  262,021;12509,331;39,97415
 965,69; 5115,471;  231,560;12355,946;40,28172
 966,24; 5098,856;  218,252;12294,177;40,41598
 966,79; 5073,317;  251,406;12194,638;40,37359
 967,34; 5032,625;  196,406;12056,023;40,77888
 967,89; 5047,702;  226,252;12113,869;40,55859
 968,44; 5006,548;  231,098;11975,792;40,66049
 968,99; 4984,856;  236,098;11943,177;40,56313
 969,55; 4979,010;  235,637;11895,023;40,68287
 970,10; 4965,010;  236,560;11827,100;40,79577
 970,65; 4962,471;  255,175;11775,715;40,86003
 971,20; 4878,702;  221,021;11661,562;40,71207
 971,75; 4835,010;  197,021;11527,485;40,93379
 972,30; 4883,394;  240,406;11490,408;41,27100
 972,85; 4816,010;  209,867;11405,331;41,14294
 973,40; 4767,471;  213,790;11288,254;41,11875
 973,95; 4770,394;  228,867;11244,254;41,22894
 974,50; 4808,240;  266,406;11252,023;41,34346
 975,05; 4733,394;  245,713;11099,331;41,34733
 975,60; 4726,240;  242,406;11083,946;41,35791
 976,15; 4741,779;  216,790;11005,869;41,94045
 976,70; 4694,163;  237,637;10919,023;41,72236
 977,25; 4687,548;  252,329;10874,408;41,75472
 977,80; 4618,317;  230,790;10771,946;41,62283
 978,35; 4596,240;  250,867;10640,023;41,82605
 978,89; 4541,856;  206,560;10613,485;41,65780
 979,44; 4604,702;  233,406;10594,408;42,18990
 979,99; 4540,087;  227,637;10429,869;42,26967
 980,54; 4522,625;  255,637;10391,023;42,09991
 981,09; 4526,548;  253,021;10319,177;42,45441
 981,64; 4466,087;  238,867;10235,177;42,28780
 982,19; 4492,010;  281,867;10170,562;42,57531
 982,74; 4446,240;  239,329;10073,023;42,78058
 983,29; 4385,856;  228,560; 9925,331;42,87299
 983,84; 4354,625;  242,560; 9856,562;42,77163
 984,39; 4450,163;  351,483; 9957,638;42,66723
 984,94; 4308,856;  207,560; 9720,715;43,11184
 985,49; 4356,317;  263,175; 9651,562;43,59793
 986,03; 4290,394;  249,790; 9573,408;43,33730
 986,58; 4317,317;  290,175; 9548,869;43,49579
 987,13; 4236,394;  247,560; 9410,638;43,53160
 987,68; 4191,394;  266,098; 9275,715;43,56785
 988,23; 4214,779;  250,790; 9286,485;43,87033
 988,78; 4153,240;  227,252; 9132,177;44,08783
 989,33; 4133,933;  264,329; 9075,100;43,91901
 989,88; 4136,240;  272,252; 9035,177;44,09473
 990,42; 4044,856;  234,560; 8880,408;44,07082
 990,97; 4039,702;  245,098; 8798,485;44,36376
 991,52; 4040,548;  253,637; 8767,100;44,48144
 992,07; 4034,163;  285,483; 8679,100;44,66109
 992,62; 3962,010;  250,098; 8561,715;44,65932
 993,17; 3943,394;  262,790; 8514,946;44,60173
 993,71; 3914,163;  265,021; 8433,177;44,67523
 994,26; 3826,317;  235,098; 8308,485;44,48219
 994,81; 3872,625;  263,329; 8294,485;44,94118
 995,36; 3796,240;  226,560; 8143,562;45,08880
 995,91; 3789,856;  244,329; 8144,638;44,87833
 996,45; 3740,548;  239,790; 8037,408;44,89522
 997,00; 3677,010;  226,790; 7917,715;44,86091
 997,55; 3680,625;  248,098; 7891,638;44,90755
 998,10; 3628,394;  273,790; 7767,792;44,76385
 998,65; 3598,471;  244,560; 7756,177;44,64966
 999,19; 3570,394;  277,252; 7628,023;44,79996
 999,74; 3559,163;  287,944; 7559,869;44,98423
1000,29; 3510,856;  265,483; 7439,177;45,23991
1000,84; 3438,856;  247,483; 7371,254;44,79893
1001,38; 3423,933;  254,637; 7303,254;44,96337
1001,93; 3390,240;  262,790; 7254,408;44,73142
1002,48; 3337,317;  227,252; 7141,023;44,98363
1003,03; 3364,087;  272,867; 7085,715;45,37338
1003,57; 3310,779;  253,021; 6971,638;45,51171
1004,12; 3327,010;  293,790; 6974,715;45,40119
1004,67; 3235,394;  248,175; 6895,715;44,93721
1005,22; 3205,471;  242,637; 6718,177;45,75425
1005,76; 3164,471;  232,867; 6636,562;45,77988
1006,31; 3137,240;  264,329; 6606,946;45,29536
1006,86; 3110,625;  239,713; 6484,485;45,97305
1007,40; 3073,163;  234,098; 6398,869;46,05305
1007,95; 3086,317;  251,329; 6333,715;46,60980
1008,50; 3019,779;  251,790; 6225,715;46,33450
1009,04; 2995,240;  248,944; 6176,638;46,32992
1009,59; 2946,625;  260,329; 6062,254;46,30008
1010,14; 2897,856;  239,329; 5975,792;46,34435
1010,68; 2875,933;  247,560; 5875,715;46,70043
1011,23; 2841,317;  238,329; 5830,408;46,54778
1011,78; 2837,087;  247,483; 5775,023;46,84912
1012,32; 2826,240;  276,560; 5679,485;47,19075
1012,87; 2811,240;  270,021; 5623,562;47,46801
1013,42; 2708,625;  226,329; 5490,638;47,15331
1013,96; 2744,933;  280,637; 5559,254;46,68450
1014,51; 2677,856;  211,098; 5476,408;46,84924
1015,06; 2688,779;  207,867; 5445,715;47,36509
1015,60; 2770,087;  287,713; 5507,100;47,56063
1016,15; 2693,856;  222,329; 5436,638;47,39893
1016,69; 2716,394;  246,790; 5461,562;47,35786
1017,24; 2703,163;  225,560; 5464,254;47,29430
1017,79; 2775,010;  289,175; 5519,869;47,52399
1018,33; 2731,548;  243,483; 5516,792;47,18224
1018,88; 2745,010;  259,175; 5560,946;46,88687
1019,42; 2731,317;  236,252; 5525,869;47,16911
1019,97; 2707,548;  224,175; 5524,638;46,85200
1020,51; 2802,856;  278,944; 5624,638;47,21392
1021,06; 2730,548;  217,560; 5582,408;46,84175
1021,61; 2695,856;  204,483; 5550,869;46,59919
1022,15; 2677,317;  187,944; 5520,869;46,67932
1022,70; 2716,548;  239,637; 5536,331;46,76335
1023,24; 2688,394;  237,483; 5489,562;46,66555
1023,79; 2674,163;  241,483; 5439,869;46,79684
1024,33; 2641,240;  226,329; 5403,023;46,64968
1024,88; 2630,394;  250,252; 5347,946;46,69057
1025,42; 2613,087;  250,944; 5235,485;47,38937
1025,97; 2557,471;  223,713; 5209,946;46,80403
1026,51; 2488,317;  208,713; 5069,946;46,89353
1027,06; 2488,163;  228,252; 5058,023;46,79128
1027,60; 2480,856;  260,867; 4993,100;46,91207
1028,15; 2439,856;  261,944; 4895,023;47,00787
1028,69; 2369,779;  201,483; 4763,869;47,52548
1029,24; 2361,856;  228,098; 4756,869;47,11560
1029,78; 2309,625;  224,790; 4650,485;47,10752
1030,33; 2287,317;  214,944; 4564,792;47,64242
1030,87; 2282,933;  217,713; 4530,869;47,88186
1031,42; 2236,779;  205,021; 4447,869;47,88665
1031,96; 2248,010;  241,713; 4411,254;48,11792
1032,51; 2165,856;  216,483; 4338,331;47,29367
1033,05; 2176,317;  231,098; 4313,485;47,64907
1033,60; 2115,394;  196,406; 4159,023;48,42730
1034,14; 2086,317;  222,790; 4158,408;47,35031
1034,69; 2081,240;  228,790; 4116,869;47,64435
1035,23; 2049,625;  228,483; 4029,331;47,91410
1035,77; 2044,548;  223,637; 3970,869;48,59350
1036,32; 1974,394;  192,944; 3925,792;47,72361
1036,86; 2006,010;  239,637; 3893,946;48,33671
1037,41; 1996,779;  231,252; 3818,408;49,21802
1037,95; 1919,933;  197,483; 3722,946;48,85741
1038,50; 1918,548;  211,944; 3698,792;48,94403
1039,04; 1932,317;  247,560; 3681,023;49,06875
1039,58; 1860,625;  206,483; 3613,638;48,54907
1040,13; 1861,856;  222,098; 3577,254;48,87277
1040,67; 1870,087;  253,329; 3554,946;48,96866
1041,21; 1855,625;  259,637; 3485,946;49,46793
1041,76; 1796,240;  220,329; 3414,715;49,33378
1042,30; 1766,163;  213,098; 3370,023;49,19551
1042,85; 1750,779;  218,944; 3296,023;49,78210
1043,39; 1716,856;  216,329; 3252,331;49,42444
1043,93; 1733,317;  238,406; 3252,638;49,59509
1044,48; 1693,087;  244,560; 3189,177;49,19237
1045,02; 1674,010;  226,329; 3149,023;49,53241
1045,56; 1695,856;  251,098; 3119,946;50,36020
1046,11; 1654,625;  228,406; 3101,792;49,63548
1046,65; 1622,163;  242,867; 3022,638;49,61905
1047,19; 1573,010;  205,713; 2951,715;49,79225
1047,74; 1557,163;  207,252; 2893,869;50,24577
1048,28; 1581,010;  233,637; 2909,254;50,35747
1048,82; 1569,625;  266,329; 2917,562;49,15812
1049,37; 1532,087;  243,560; 2852,485;49,38919
1049,91; 1531,394;  238,329; 2817,792;50,12924
1050,45; 1500,856;  238,098; 2748,715;50,29670
1050,99; 1489,702;  239,175; 2724,946;50,30740
1051,54; 1442,702;  211,713; 2658,869;50,30282
1052,08; 1471,625;  251,021; 2650,023;50,87965
1052,62; 1445,471;  246,790; 2624,869;50,40543
1053,16; 1395,317;  225,098; 2571,254;49,87816
1053,71; 1406,240;  246,175; 2554,562;50,25438
1054,25; 1399,779;  245,406; 2518,946;50,77425
1054,79; 1380,087;  247,867; 2507,792;50,09986
1055,33; 1321,548;  202,098; 2420,408;50,46410
1055,88; 1326,240;  228,790; 2414,331;50,21413
1056,42; 1335,856;  239,098; 2403,792;50,66571
1056,96; 1329,317;  253,790; 2363,638;50,97651
1057,50; 1300,548;  248,790; 2321,331;50,74727
1058,05; 1285,087;  241,637; 2280,023;51,19000
1058,59; 1298,317;  259,252; 2233,946;52,61905
1059,13; 1220,240;  211,790; 2196,715;50,80545
1059,67; 1232,394;  246,483; 2206,254;50,30748
1060,21; 1216,856;  238,867; 2142,638;51,37111
1060,76; 1208,471;  237,944; 2139,408;51,04105
1061,30; 1220,933;  265,175; 2115,562;51,65179
1061,84; 1176,702;  243,406; 2048,869;51,69289
1062,38; 1152,163;  216,175; 2001,023;52,44079
1062,92; 1182,548;  278,944; 2050,946;50,99339
1063,46; 1142,394;  246,713; 1974,946;51,82640
1064,01; 1104,010;  236,713; 1952,562;50,54621
1064,55; 1098,394;  257,867; 1931,638;50,21755
1065,09; 1056,779;  214,713; 1849,177;51,51938
1065,63; 1121,702;  268,790; 1901,946;52,22475
1066,17; 1111,856;  270,867; 1877,946;52,33026
1066,71; 1079,856;  266,098; 1856,254;51,17472
1067,25; 1045,163;  232,944; 1800,638;51,80980
1067,80; 1046,317;  258,252; 1796,792;51,22162
1068,34; 1077,471;  282,713; 1790,023;52,72690
1068,88; 1025,163;  229,329; 1720,023;53,38684
1069,42; 1034,010;  270,098; 1755,485;51,42847
1069,96;  999,548;  251,252; 1713,023;51,19106
1070,50; 1027,317;  284,175; 1715,869;51,90650
1071,04;  960,317;  229,406; 1649,408;51,47257
1071,58;  975,779;  240,790; 1638,408;52,58868
1072,12;  969,010;  250,790; 1630,562;52,05350
1072,66;  943,471;  249,944; 1619,177;50,65077
1073,21;  958,856;  266,790; 1612,562;51,42519
1073,75;  942,471;  246,637; 1570,562;52,55846
1074,29;  907,856;  243,713; 1540,869;51,19989
1074,83;  915,933;  266,944; 1545,408;50,76316
1075,37;  930,163;  270,483; 1536,100;52,12324
1075,91;  891,394;  250,021; 1510,485;50,88391
1076,45;  910,163;  260,867; 1497,331;52,51236
1076,99;  906,702;  267,637; 1480,254;52,70132
1077,53;  860,010;  252,483; 1423,100;51,89800
1078,07;  866,548;  259,867; 1431,408;51,78488
1078,61;  865,856;  250,867; 1394,023;53,79743
1079,15;  847,933;  249,175; 1370,408;53,40173
1079,69;  841,240;  247,944; 1388,254;52,02939
1080,23;  859,010;  272,713; 1404,408;51,80694
1080,77;  901,240;  318,483; 1428,946;52,47878
1081,31;  812,471;  251,021; 1340,100;51,55274
1081,85;  834,240;  257,560; 1348,100;52,88028
1082,39;  809,548;  244,483; 1302,792;53,39320
1082,93;  810,779;  267,406; 1341,485;50,58968
1083,47;  772,856;  235,790; 1259,715;52,45163
1084,01;  814,625;  260,560; 1298,254;53,39390
1084,55;  764,087;  240,944; 1239,485;52,39070
1085,09;  794,163;  255,944; 1271,254;53,01035
1085,63;  765,010;  244,406; 1236,177;52,49234
1086,17;  749,163;  244,021; 1198,177;52,94128
1086,71;  736,779;  227,637; 1204,100;52,14146
1087,24;  764,010;  272,867; 1220,485;51,82918
1087,78;  757,240;  274,252; 1210,562;51,58427
1088,32;  722,702;  230,944; 1146,562;53,70778
1088,86;  735,010;  262,021; 1171,254;52,02062
1089,40;  721,087;  252,867; 1140,485;52,75012
1089,94;  702,856;  227,713; 1116,562;53,45596
1090,48;  703,625;  259,790; 1110,254;52,18738
1091,02;  717,779;  262,175; 1139,023;51,95927
1091,56;  692,394;  239,560; 1093,331;53,03934
1092,10;  669,317;  228,406; 1055,331;53,31941
1092,63;  716,240;  272,637; 1117,331;52,51650
1093,17;  685,548;  262,098; 1074,331;52,13407
1093,71;  659,394;  243,713; 1032,177;52,72036
1094,25;  698,317;  264,252; 1068,946;53,94165
1094,79;  650,010;  244,483; 1016,485;52,52926
1095,33;  659,394;  256,483; 1020,100;52,76354
1095,87;  651,394;  258,329; 1002,254;52,83670
1096,40;  626,240;  227,329;  955,408;54,78961
1096,94;  634,394;  257,329;  993,254;51,23693
1097,48;  639,010;  267,637;  981,023;52,05776
1098,02;  612,163;  239,944;  954,254;52,10895
1098,56;  585,240;  223,637;  921,638;51,80557
1099,10;  590,856;  227,483;  907,254;53,45521
1099,63;  592,548;  236,483;  903,177;53,40760
1100,17;  609,625;  254,944;  926,023;52,85232
1100,71;  633,933;  282,790;  936,485;53,71660

