
Integration time [ms]: 150,000
Averaging Nr. [scans]: 13
Smoothing Nr. [pixels]: 0
Data measured with spectrometer [name]: 2009305U1
Wave   ;Sample   ;Dark     ;Reference;Reflectance
[nm]   ;[counts] ;[counts] ;[counts] ;[%]

 175,72;  227,452;  220,059;  219,839; 0,00000
 176,32;  256,252;  244,133;  235,111; 0,00000
 176,92;  289,112;  296,904;  286,352; 0,00000
 177,52;  282,518;  278,135;  278,215; 0,00000
 178,12;  262,303;  261,210;  251,705; 0,00000
 178,72;  280,540;  289,210;  260,310; 0,00000
 179,32;  275,471;  273,595;  266,225; 0,00000
 179,92;  276,759;  279,519;  265,978; 0,00000
 180,52;  263,897;  255,753;  268,579;63,49281
 181,12;  280,607;  283,134;  271,317; 0,00000
 181,73;  297,666;  296,827;  283,857; 0,00000
 182,33;  407,173;  403,290;  405,616;166,92845
 182,93;  286,241;  305,905;  290,593; 0,00000
 183,53;  248,041;  261,055;  248,819; 0,00000
 184,13;  255,659;  266,133;  248,344; 0,00000
 184,73;  311,315;  312,440;  294,762; 0,00000
 185,33;  289,027;  268,194;  345,473;26,95754
 185,93;  285,021;  266,500;  362,838;19,22461
 186,53;  302,374;  277,270;  382,013;23,96721
 187,13;  315,720;  292,657;  415,827;18,72432
 187,73;  281,511;  256,193;  363,692;23,55222
 188,33;  287,573;  266,730;  375,280;19,20098
 188,93;  304,456;  274,112;  378,002;29,20797
 189,53;  303,272;  274,109;  398,671;23,41228
 190,13;  339,661;  302,567;  434,752;28,06211
 190,73;  272,808;  237,185;  368,824;27,06161
 191,34;  307,072;  278,495;  406,065;22,40094
 191,94;  293,607;  261,883;  376,661;27,63935
 192,54;  302,315;  267,504;  385,011;29,62454
 193,14;  310,553;  292,041;  397,986;17,47286
 193,74;  311,485;  293,503;  382,193;20,27540
 194,34;  304,979;  289,119;  385,065;16,53063
 194,94;  260,968;  249,195;  342,210;12,65693
 195,54;  242,681;  222,040;  332,873;18,62325
 196,14;  266,844;  247,427;  348,372;19,23531
 196,74;  268,255;  246,732;  340,255;23,01294
 197,34;  244,499;  210,890;  336,743;26,70551
 197,94;  263,943;  252,118;  374,221; 9,68419
 198,54;  277,755;  265,658;  377,640;10,80340
 199,14;  255,293;  233,044;  366,592;16,65959
 199,74;  246,416;  215,352;  344,214;24,10650
 200,34;  240,895;  215,275;  354,490;18,40305
 200,94;  272,797;  252,197;  385,688;15,43171
 201,54;  253,709;  227,198;  405,188;14,89515
 202,14;  308,195;  273,660;  451,776;19,38891
 202,74;  255,519;  238,582;  429,928; 8,85138
 203,34;  248,813;  207,738;  438,885;17,76991
 203,94;  216,812;  188,353;  433,807;11,59435
 204,54;  294,910;  266,888;  530,748;10,61993
 205,14;  254,281;  213,967;  526,552;12,89694
 205,74;  298,720;  263,738;  594,026;10,59131
 206,34;  256,598;  223,891;  588,575; 8,96869
 206,94;  270,381;  231,352;  631,755; 9,74734
 207,54;  245,317;  212,891;  634,827; 7,68505
 208,14;  262,630;  227,968;  719,908; 7,04601
 208,74;  261,923;  224,736;  773,573; 6,77549
 209,34;  265,378;  224,352;  836,153; 6,70583
 209,94;  272,735;  233,736;  911,177; 5,75680
 210,54;  270,859;  224,276;  983,076; 6,13908
 211,14;  284,873;  230,121; 1067,857; 6,53575
 211,73;  286,281;  234,659; 1152,814; 5,62241
 212,33;  315,443;  247,582; 1232,836; 6,88770
 212,93;  298,061;  226,505; 1322,715; 6,52751
 213,53;  270,123;  192,890; 1352,349; 6,66110
 214,13;  308,583;  225,662; 1439,039; 6,83391
 214,73;  284,272;  200,506; 1433,237; 6,79511
 215,33;  272,735;  185,967; 1450,562; 6,86134
 215,93;  310,142;  218,738; 1562,395; 6,80266
 216,53;  263,033;  178,890; 1610,508; 5,87748
 217,13;  337,433;  232,584; 1772,350; 6,80940
 217,73;  320,927;  212,046; 1909,715; 6,41360
 218,33;  293,423;  181,662; 1998,465; 6,15152
 218,93;  347,314;  205,895; 2256,578; 6,89622
 219,53;  366,085;  212,585; 2457,318; 6,83822
 220,13;  340,772;  171,124; 2715,314; 6,66808
 220,73;  397,059;  204,429; 2974,344; 6,95437
 221,32;  408,846;  200,121; 3284,112; 6,76801
 221,92;  451,468;  207,124; 3589,947; 7,22308
 222,52;  458,209;  189,661; 3885,540; 7,26614
 223,12;  505,117;  205,200; 4216,790; 7,47628
 223,72;  520,394;  212,661; 4530,489; 7,12704
 224,32;  553,788;  218,431; 4842,127; 7,25301
 224,92;  567,688;  190,661; 5053,662; 7,75296
 225,52;  625,735;  220,275; 5374,992; 7,86580
 226,12;  630,990;  198,584; 5558,458; 8,06747
 226,72;  630,431;  175,507; 5803,857; 8,08274
 227,31;  661,485;  171,507; 6079,777; 8,29309
 227,91;  734,799;  220,044; 6386,690; 8,34740
 228,51;  762,414;  197,120; 6656,797; 8,75111
 229,11;  787,150;  199,891; 6967,339; 8,67770
 229,71;  816,529;  193,813; 7214,628; 8,86957
 230,31;  849,606;  184,969; 7483,812; 9,10606
 230,91;  883,890;  174,273; 7733,655; 9,38723
 231,51;  932,519;  179,276; 7951,943; 9,69092
 232,10;  991,215;  188,739; 8162,007;10,06459
 232,70; 1030,441;  209,042; 8372,758;10,06158
 233,30; 1100,772;  232,122; 8534,145;10,46311
 233,90; 1094,441;  188,430; 8662,449;10,69164
 234,50; 1143,354;  191,122; 8700,749;11,19005
 235,10; 1166,918;  180,815; 8734,354;11,52860
 235,70; 1219,741;  213,890; 8729,182;11,81228
 236,29; 1252,280;  206,505; 8613,828;12,43885
 236,89; 1241,064;  176,658; 8461,795;12,84718
 237,49; 1287,594;  208,661; 8375,802;13,21066
 238,09; 1274,675;  194,122; 8112,345;13,64642
 238,69; 1325,429;  253,042; 7921,225;13,98489
 239,29; 1277,135;  195,891; 7634,005;14,53654
 239,89; 1284,010;  197,351; 7351,182;15,18990
 240,48; 1268,575;  194,814; 7022,188;15,72729
 241,08; 1252,050;  193,814; 6725,598;16,20133
 241,68; 1243,087;  210,429; 6503,090;16,41052
 242,28; 1227,337;  186,276; 6208,935;17,28573
 242,88; 1263,091;  243,354; 5978,661;17,77999
 243,48; 1243,624;  239,430; 5695,796;18,40409
 244,07; 1232,545;  207,506; 5548,840;19,19069
 244,67; 1222,569;  223,968; 5400,152;19,29223
 245,27; 1220,128;  223,197; 5286,737;19,68840
 245,87; 1234,320;  226,508; 5191,014;20,30036
 246,47; 1229,612;  206,582; 5187,971;20,53705
 247,06; 1203,739;  188,814; 5185,657;20,31133
 247,66; 1238,992;  193,506; 5215,136;20,81964
 248,26; 1281,294;  217,198; 5355,809;20,70786
 248,86; 1330,551;  214,736; 5496,138;21,12726
 249,46; 1319,781;  161,430; 5668,629;21,03339
 250,05; 1438,559;  212,968; 5986,021;21,22952
 250,65; 1444,357;  174,966; 6167,859;21,18160
 251,25; 1529,430;  191,506; 6617,318;20,82109
 251,85; 1617,129;  197,966; 7047,216;20,71998
 252,44; 1684,515;  183,429; 7553,263;20,36798
 253,04; 1808,444;  206,506; 8118,805;20,24617
 253,64; 1869,036;  159,659; 8738,018;19,92663
 254,24; 2041,359;  215,199; 9500,630;19,66694
 254,84; 2155,627;  181,584;10343,706;19,42550
 255,43; 2276,542;  200,429;11114,700;19,02201
 256,03; 2404,483;  197,428;11984,037;18,72511
 256,63; 2552,118;  199,812;12838,099;18,61254
 257,23; 2618,992;  197,120;13650,075;18,00253
 257,82; 2799,404;  207,427;14628,421;17,97364
 258,42; 2839,736;  176,580;15329,840;17,57480
 259,02; 2965,232;  226,429;16241,836;17,10105
 259,62; 3024,618;  182,195;16840,254;17,06335
 260,21; 3057,680;  211,044;17450,764;16,51208
 260,81; 3091,666;  201,814;17992,983;16,24318
 261,41; 3131,426;  176,965;18444,469;16,17332
 262,01; 3200,989;  228,426;18940,842;15,88551
 262,60; 3120,684;  188,120;19269,383;15,36882
 263,20; 3164,916;  186,890;19666,922;15,28758
 263,80; 3168,700;  221,964;19809,334;15,04406
 264,40; 3117,298;  181,195;20067,643;14,76434
 264,99; 3136,714;  209,810;20302,700;14,56687
 265,59; 3055,036;  188,347;20477,711;14,12902
 266,19; 3066,438;  187,656;20695,956;14,03716
 266,78; 3069,083;  232,809;20808,334;13,78470
 267,38; 2997,769;  207,963;20827,682;13,52980
 267,98; 2980,253;  209,117;20843,731;13,42955
 268,58; 2943,899;  207,117;20903,679;13,22337
 269,17; 2904,811;  186,577;20957,009;13,08704
 269,77; 2862,108;  212,581;20879,353;12,82023
 270,37; 2797,349;  187,656;20705,884;12,71890
 270,96; 2828,777;  231,119;20633,688;12,73202
 271,56; 2721,479;  191,120;20455,634;12,48665
 272,16; 2677,529;  192,580;20189,875;12,42643
 272,75; 2665,634;  202,196;20272,543;12,27402
 273,35; 2623,467;  202,196;20236,517;12,08561
 273,95; 2614,142;  197,426;20101,472;12,14183
 274,54; 2565,117;  175,275;20201,359;11,93364
 275,14; 2645,625;  225,888;20492,182;11,93971
 275,74; 2590,949;  170,657;20486,687;11,91321
 276,33; 2676,535;  229,350;20803,386;11,89453
 276,93; 2702,696;  218,660;21101,099;11,89533
 277,53; 2756,018;  197,121;21620,065;11,94466
 278,12; 2761,497;  181,274;21953,294;11,85109
 278,72; 2930,868;  256,582;22466,776;12,04080
 279,32; 2952,332;  193,736;22982,101;12,10528
 279,91; 3029,676;  176,890;23591,053;12,18402
 280,51; 3108,023;  200,890;23952,577;12,23969
 281,11; 3216,422;  201,197;24617,127;12,34942
 281,70; 3297,006;  171,889;25020,332;12,57671
 282,30; 3389,018;  202,812;25560,327;12,56513
 282,90; 3506,137;  194,120;25900,899;12,88383
 283,49; 3605,975;  205,350;26268,446;13,04766
 284,09; 3702,890;  226,735;26763,393;13,09944
 284,69; 3806,635;  235,197;27083,359;13,30236
 285,28; 3925,382;  219,274;27335,695;13,66739
 285,88; 4118,571;  284,349;27558,447;14,05811
 286,47; 4114,706;  199,889;27665,739;14,25340
 287,07; 4289,670;  234,736;27693,556;14,76733
 287,67; 4434,086;  216,661;27810,411;15,28399
 288,26; 4542,447;  194,659;27831,777;15,73170
 288,86; 4714,925;  190,351;27780,514;16,39923
 289,46; 4905,308;  207,505;28017,758;16,89234
 290,05; 5136,768;  198,198;28030,312;17,74414
 290,65; 5399,828;  190,966;28193,098;18,60166
 291,24; 5634,371;  205,198;28329,040;19,30452
 291,84; 5937,964;  216,581;28469,176;20,25082
 292,44; 6166,195;  222,815;28563,052;20,97152
 293,03; 6497,667;  286,121;28746,923;21,82492
 293,63; 6641,421;  209,120;28796,357;22,50061
 294,22; 6924,434;  224,274;28972,167;23,30661
 294,82; 7101,994;  195,041;29038,924;23,94599
 295,41; 7281,390;  179,812;28741,332;24,86415
 296,01; 7423,540;  232,042;28716,960;25,24669
 296,61; 7570,621;  225,967;28459,378;26,01405
 297,20; 7658,383;  202,580;28170,096;26,65879
 297,80; 7758,105;  216,968;28132,858;27,01378
 298,39; 7730,129;  188,427;27753,524;27,35961
 298,99; 7902,647;  227,657;27623,153;28,01552
 299,58; 7903,754;  220,122;27562,992;28,10104
 300,18; 7953,642;  223,814;27299,287;28,54919
 300,78; 7907,642;  199,736;27016,165;28,74322
 301,37; 7987,217;  223,425;27044,086;28,94705
 301,97; 8067,900;  229,197;27053,448;29,22245
 302,56; 8115,193;  198,427;26910,529;29,63738
 303,16; 8095,526;  177,119;26880,826;29,65284
 303,75; 8153,502;  191,121;26905,775;29,80529
 304,35; 8260,982;  191,892;27131,436;29,95259
 304,94; 8340,212;  194,736;27120,113;30,25204
 305,54; 8351,307;  229,275;27073,881;30,25573
 306,13; 8395,702;  163,277;27079,258;30,58564
 306,73; 8354,621;  182,276;26829,317;30,66887
 307,33; 8391,124;  215,199;26837,088;30,71129
 307,92; 8417,691;  208,967;26898,695;30,75612
 308,52; 8567,037;  181,196;27253,927;30,97523
 309,11; 8788,146;  195,349;27664,861;31,28122
 309,71; 8843,616;  173,887;27967,959;31,19272
 310,30; 8910,278;  200,044;28164,104;31,14796
 310,90; 9037,817;  246,967;28445,181;31,17520
 311,49; 9098,766;  211,582;28591,433;31,31512
 312,09; 9125,742;  170,968;28799,598;31,27909
 312,68; 9376,584;  272,582;29061,811;31,62295
 313,28; 9381,767;  186,044;29195,234;31,69935
 313,87; 9372,801;  164,274;29338,553;31,56385
 314,47; 9450,856;  196,272;29582,828;31,49258
 315,06; 9525,364;  182,813;29634,434;31,72169
 315,66; 9522,358;  180,429;29838,983;31,49826
 316,25; 9481,500;  168,966;29707,112;31,52714
 316,85; 9481,646;  166,429;29844,952;31,38706
 317,44; 9513,109;  183,965;29965,107;31,32567
 318,04; 9526,006;  177,658;29952,748;31,39654
 318,63; 9479,710;  169,276;30035,972;31,17330
 319,22; 9557,616;  190,966;30189,128;31,22408
 319,82; 9565,158;  193,735;30266,455;31,16254
 320,41; 9454,643;  218,120;30140,489;30,86829
 321,01; 9467,953;  216,044;30224,613;30,83089
 321,60; 9511,855;  206,351;30290,966;30,93111
 322,20; 9441,541;  188,505;30278,437;30,75127
 322,79; 9414,606;  215,736;30386,859;30,48899
 323,39; 9423,643;  182,584;30387,488;30,59456
 323,98; 9335,615;  175,505;30420,496;30,28637
 324,58; 9293,126;  183,273;30356,813;30,19153
 325,17; 9224,285;  191,889;30287,818;30,01202
 325,76; 9181,654;  208,274;30100,390;30,01922
 326,36; 9032,149;  188,044;29826,570;29,83989
 326,95; 9011,190;  215,197;29616,480;29,91704
 327,55; 8846,550;  179,581;29302,445;29,76002
 328,14; 8640,717;  180,968;28946,224;29,40961
 328,74; 8588,224;  216,812;28545,984;29,55050
 329,33; 8454,695;  206,275;28335,099;29,32373
 329,92; 8268,535;  175,042;27842,756;29,25248
 330,52; 8105,757;  212,660;27254,317;29,18866
 331,11; 7969,405;  194,274;26905,621;29,10797
 331,71; 7776,292;  194,274;26370,284;28,96552
 332,30; 7624,904;  217,351;26084,189;28,63726
 332,89; 7540,875;  283,967;25567,427;28,70219
 333,49; 7314,817;  209,812;25049,289;28,60368
 334,08; 7202,769;  196,812;24639,713;28,66254
 334,68; 7037,035;  196,043;24338,140;28,33636
 335,27; 6944,574;  219,507;23951,048;28,33810
 335,86; 6906,251;  267,582;23773,621;28,24240
 336,46; 6762,193;  217,968;23539,405;28,06099
 337,05; 6645,997;  193,043;23364,156;27,84913
 337,65; 6595,431;  186,966;23286,565;27,74275
 338,24; 6631,965;  257,198;23232,838;27,74576
 338,83; 6564,034;  227,429;23044,540;27,77129
 339,43; 6499,581;  202,043;23179,624;27,40732
 340,02; 6457,088;  206,581;23090,444;27,31404
 340,61; 6434,737;  199,967;23105,317;27,21971
 341,21; 6396,455;  228,812;23102,830;26,96353
 341,80; 6340,208;  206,889;23027,556;26,87616
 342,40; 6362,749;  215,968;23106,096;26,85342
 342,99; 6374,182;  217,660;23249,812;26,73012
 343,58; 6358,464;  203,429;23336,406;26,60719
 344,18; 6382,307;  229,429;23501,004;26,43946
 344,77; 6428,053;  192,504;23713,863;26,51016
 345,36; 6488,959;  200,120;23982,249;26,44355
 345,96; 6548,795;  226,352;24303,794;26,25878
 346,55; 6517,878;  191,123;24492,922;26,03410
 347,14; 6600,092;  191,045;24746,293;26,10052
 347,74; 6691,067;  184,124;25075,935;26,14090
 348,33; 6756,439;  202,970;25719,170;25,68356
 348,92; 6934,891;  216,201;26157,009;25,90008
 349,52; 6988,711;  197,047;26639,250;25,68494
 350,11; 7063,517;  214,350;26847,188;25,71700
 350,70; 7065,625;  210,813;26963,736;25,62267
 351,29; 6985,676;  202,348;26696,100;25,60350
 351,89; 6976,058;  231,657;26695,513;25,48533
 352,48; 6899,898;  202,198;26809,385;25,17252
 353,07; 6910,643;  243,276;26673,903;25,22591
 353,67; 6884,977;  236,432;26612,724;25,20652
 354,26; 6804,026;  218,506;26397,179;25,15605
 354,85; 6747,835;  226,968;26325,534;24,98554
 355,45; 6701,341;  203,120;26194,801;25,00116
 356,04; 6690,486;  209,507;26137,809;24,99577
 356,63; 6629,887;  256,582;25949,606;24,80558
 357,22; 6557,929;  222,118;25757,303;24,81208
 357,82; 6491,617;  217,657;25677,760;24,64232
 358,41; 6509,869;  245,967;25592,300;24,71325
 359,00; 6397,439;  200,504;25463,741;24,52946
 359,60; 6362,261;  225,429;25318,490;24,45629
 360,19; 6386,530;  247,892;25197,413;24,60423
 360,78; 6334,639;  226,581;25028,254;24,62760
 361,37; 6238,224;  213,120;24979,030;24,32821
 361,97; 6238,576;  236,736;24760,050;24,47402
 362,56; 6164,152;  226,196;24554,526;24,40758
 363,15; 6188,996;  296,504;24384,202;24,46266
 363,74; 6073,222;  240,811;24035,490;24,51141
 364,34; 5957,458;  254,119;23692,079;24,33377
 364,93; 5882,208;  225,504;23376,310;24,43416
 365,52; 5778,867;  203,582;23014,467;24,44134
 366,11; 5760,912;  218,658;22762,319;24,58453
 366,71; 5639,154;  223,581;22404,821;24,41511
 367,30; 5606,859;  240,505;22125,708;24,52047
 367,89; 5605,392;  259,121;21940,565;24,65828
 368,48; 5503,853;  245,965;21650,964;24,56383
 369,07; 5447,318;  238,428;21260,582;24,77810
 369,67; 5352,523;  260,734;21081,993;24,45476
 370,26; 5293,487;  221,198;20727,594;24,73516
 370,85; 5264,932;  234,043;20484,043;24,84390
 371,44; 5254,199;  237,428;20344,195;24,95066
 372,03; 5164,546;  208,119;20084,965;24,93568
 372,63; 5111,864;  198,889;19851,219;24,99945
 373,22; 5058,190;  225,659;19566,064;24,98671
 373,81; 5007,382;  214,735;19257,156;25,16826
 374,40; 5006,421;  217,122;19095,341;25,36945
 374,99; 4961,553;  214,581;18818,155;25,51645
 375,59; 4933,194;  222,122;18649,898;25,56506
 376,18; 4935,735;  241,889;18485,669;25,72847
 376,77; 4914,184;  247,505;18322,983;25,81774
 377,36; 4914,974;  266,428;18254,461;25,84244
 377,95; 4910,709;  252,735;18024,449;26,21004
 378,55; 4870,799;  215,891;17939,536;26,26383
 379,14; 4870,501;  249,197;17780,036;26,36100
 379,73; 4850,725;  237,812;17711,692;26,39890
 380,32; 4910,203;  233,890;17803,167;26,61642
 380,91; 4878,211;  204,350;17635,943;26,81259
 381,50; 4919,275;  233,658;17607,379;26,96957
 382,10; 4883,665;  227,813;17520,244;26,92422
 382,69; 4945,851;  198,428;17476,839;27,47604
 383,28; 5002,869;  244,965;17412,792;27,71407
 383,87; 4962,615;  218,273;17300,327;27,77383
 384,46; 5005,644;  221,503;17238,428;28,11402
 385,05; 5054,802;  242,811;17208,185;28,36360
 385,64; 5057,604;  220,273;17237,165;28,42664
 386,24; 5069,475;  213,503;17209,954;28,57050
 386,83; 5151,408;  240,964;17219,270;28,92187
 387,42; 5191,774;  243,043;17280,640;29,04595
 388,01; 5309,393;  251,732;17463,012;29,38573
 388,60; 5417,096;  242,811;17692,420;29,65273
 389,19; 5504,025;  222,039;17776,810;30,08861
 389,78; 5579,750;  212,039;18081,791;30,03797
 390,37; 5808,436;  290,348;18425,585;30,42744
 390,96; 5832,393;  247,195;18538,289;30,53507
 391,56; 5978,972;  245,038;18650,999;31,15259
 392,15; 6037,383;  226,039;18893,374;31,13109
 392,74; 6081,781;  197,729;19049,831;31,21165
 393,33; 6278,189;  234,500;19341,004;31,63158
 393,92; 6433,586;  245,651;19701,937;31,80430
 394,51; 6478,877;  228,038;19784,570;31,96292
 395,10; 6690,216;  260,725;20078,734;32,44267
 395,69; 6775,288;  259,803;20168,346;32,72709
 396,28; 6849,609;  247,186;20289,710;32,94207
 396,87; 6901,387;  265,568;20384,471;32,98300
 397,46; 6983,387;  282,182;20462,379;33,20683
 398,06; 7158,852;  294,795;20668,445;33,69086
 398,65; 7221,718;  269,560;20697,307;34,03291
 399,24; 7320,338;  300,482;20815,419;34,21827
 399,83; 7337,939;  245,398;20785,856;34,52962
 400,42; 7445,485;  311,238;20996,048;34,49027
 401,01; 7564,227;  293,462;21115,874;34,91798
 401,60; 7636,597;  298,299;21093,710;35,28806
 402,19; 7674,027;  326,829;21076,134;35,40937
 402,78; 7748,353;  332,587;21090,613;35,72482
 403,37; 7768,403;  298,883;20908,625;36,24267
 403,96; 7741,408;  310,947;20808,678;36,25016
 404,55; 7789,613;  327,086;20680,261;36,66517
 405,14; 7768,959;  297,612;20596,325;36,80700
 405,73; 7800,122;  316,596;20538,783;37,00651
 406,32; 7822,970;  329,355;20506,156;37,13976
 406,91; 7803,528;  310,727;20219,544;37,63559
 407,50; 7819,512;  319,260;20140,040;37,84035
 408,09; 7726,183;  296,102;19900,824;37,89945
 408,68; 7725,151;  292,175;19757,492;38,18574
 409,27; 7728,993;  303,487;19620,873;38,43950
 409,86; 7769,553;  295,804;19514,918;38,88706
 410,45; 7808,494;  351,658;19420,853;39,10409
 411,04; 7771,920;  335,359;19389,900;39,02777
 411,63; 7700,058;  315,292;19122,469;39,26568
 412,22; 7669,962;  327,763;18965,820;39,39358
 412,81; 7665,383;  346,228;18723,003;39,82829
 413,40; 7577,885;  357,309;18411,480;39,99395
 413,99; 7534,198;  394,616;18222,700;40,04683
 414,58; 7362,885;  301,001;17844,281;40,25407
 415,17; 7372,891;  332,613;17610,702;40,74686
 415,76; 7265,267;  320,301;17487,526;40,45479
 416,35; 7273,543;  305,149;17364,331;40,84834
 416,94; 7355,204;  339,610;17399,599;41,12309
 417,53; 7437,197;  311,536;17494,331;41,46974
 418,12; 7470,807;  323,306;17587,065;41,40177
 418,71; 7657,586;  332,233;17889,195;41,72335
 419,30; 7653,183;  318,999;17967,627;41,55668
 419,89; 7805,424;  301,692;18141,650;42,06137
 420,48; 7958,952;  335,387;18339,088;42,34443
 421,07; 7935,850;  318,695;18370,683;42,19566
 421,66; 7999,353;  307,235;18429,547;42,44557
 422,25; 8024,386;  313,547;18541,033;42,30336
 422,84; 8072,045;  318,086;18468,791;42,71988
 423,43; 8006,029;  310,469;18235,917;42,93092
 424,02; 7881,773;  344,547;18024,512;42,63145
 424,60; 7759,631;  307,859;17727,874;42,77707
 425,19; 7710,071;  316,164;17443,027;43,17140
 425,78; 7672,242;  333,088;17302,379;43,24962
 426,37; 7628,258;  331,012;17167,176;43,34269
 426,96; 7563,920;  311,705;17092,413;43,21757
 427,55; 7542,308;  307,630;16998,108;43,34614
 428,14; 7500,113;  296,632;16782,352;43,69528
 428,73; 7485,755;  303,014;16579,619;44,12923
 429,32; 7512,768;  335,012;16622,322;44,06962
 429,91; 7436,456;  348,629;16632,026;43,52793
 430,50; 7411,746;  336,246;16431,920;43,95902
 431,08; 7415,553;  342,709;16367,272;44,13751
 431,67; 7418,562;  383,326;16265,187;44,29730
 432,26; 7360,851;  396,173;16116,511;44,30362
 432,85; 7291,441;  417,865;15847,059;44,54916
 433,44; 7212,519;  435,097;15563,953;44,79798
 434,03; 7080,718;  443,484;15247,034;44,83542
 434,62; 6894,617;  407,790;14912,630;44,72181
 435,21; 6836,796;  422,404;14675,251;45,00429
 435,79; 6825,327;  432,253;14492,952;45,46768
 436,38; 6743,983;  402,255;14413,445;45,26188
 436,97; 6733,104;  396,178;14334,081;45,46542
 437,56; 6659,677;  401,413;14204,784;45,33866
 438,15; 6612,493;  389,643;14149,776;45,22377
 438,74; 6675,419;  414,181;14124,993;45,66642
 439,33; 6619,881;  364,181;14122,486;45,46853
 439,91; 6646,165;  341,336;14191,729;45,52094
 440,50; 6704,297;  387,260;14255,296;45,55106
 441,09; 6767,797;  390,492;14281,341;45,91011
 441,68; 6749,170;  356,802;14350,824;45,67928
 442,27; 6706,044;  344,109;14346,400;45,43496
 442,86; 6701,162;  323,344;14288,724;45,66877
 443,44; 6771,540;  338,728;14348,488;45,91664
 444,03; 6836,662;  430,421;14433,586;45,74852
 444,62; 6777,420;  355,267;14270,084;46,15334
 445,21; 6750,108;  364,343;14187,912;46,19476
 445,80; 6714,869;  397,730;14069,612;46,20533
 446,39; 6674,631;  440,653;13915,268;46,26461
 446,97; 6494,643;  343,579;13679,755;46,12315
 447,56; 6423,982;  345,889;13496,117;46,22044
 448,15; 6392,585;  356,810;13334,247;46,50977
 448,74; 6308,076;  366,733;13138,562;46,51912
 449,33; 6299,187;  355,504;13006,050;46,98361
 449,91; 6195,362;  357,121;12813,667;46,86886
 450,50; 6095,120;  360,659;12613,273;46,80194
 451,09; 6095,722;  366,429;12513,170;47,16733
 451,68; 6022,910;  389,045;12469,382;46,63665
 452,26; 6055,499;  402,892;12365,222;47,25339
 452,85; 5977,521;  371,507;12247,917;47,20293
 453,44; 5978,629;  393,356;12264,864;47,04771
 454,03; 5981,304;  362,585;12204,112;47,44927
 454,61; 5961,073;  332,049;12204,865;47,41103
 455,20; 6087,300;  387,127;12345,016;47,66872
 455,79; 6077,917;  390,356;12389,756;47,39871
 456,38; 6101,617;  405,898;12419,207;47,41174
 456,97; 6168,932;  378,590;12488,537;47,81476
 457,55; 6158,531;  370,822;12503,507;47,70344
 458,14; 6190,848;  415,281;12467,731;47,92027
 458,73; 6125,821;  393,437;12383,278;47,81034
 459,31; 6122,327;  422,439;12473,698;47,29703
 459,90; 6174,958;  445,515;12498,511;47,53543
 460,49; 6287,719;  511,822;12630,366;47,66164
 461,08; 6223,338;  395,055;12708,907;47,33111
 461,66; 6280,673;  392,670;12696,836;47,85373
 462,25; 6352,772;  400,826;12804,869;47,98392
 462,84; 6393,859;  424,286;12849,446;48,04423
 463,43; 6282,084;  368,828;12809,595;47,53128
 464,01; 6357,214;  399,059;12824,298;47,95203
 464,60; 6359,286;  469,904;12787,926;47,81110
 465,19; 6213,791;  376,214;12511,745;48,10319
 465,77; 6190,380;  410,599;12549,661;47,61307
 466,36; 6209,249;  431,674;12477,865;47,96184
 466,95; 6061,574;  409,982;12214,910;47,87486
 467,53; 5974,450;  418,677;12000,333;47,97045
 468,12; 5895,602;  446,370;11768,270;48,13001
 468,71; 5776,950;  414,829;11542,980;48,18520
 469,29; 5664,335;  393,370;11284,625;48,39630
 469,88; 5539,680;  416,833;11076,470;48,05836
 470,47; 5701,220;  474,296;11198,594;48,73908
 471,06; 5613,424;  434,911;11175,804;48,21306
 471,64; 5703,136;  424,680;11180,558;49,07508
 472,23; 5676,097;  400,530;11186,541;48,91120
 472,81; 5684,508;  411,605;11318,162;48,34617
 473,40; 5724,728;  409,145;11414,477;48,30007
 473,99; 5894,521;  536,145;11605,788;48,40604
 474,57; 5889,062;  421,453;11664,498;48,63104
 475,16; 5913,303;  425,144;11839,922;48,07942
 475,75; 5984,738;  455,993;11947,777;48,11042
 476,33; 5999,748;  451,994;11995,877;48,05796
 476,92; 6049,300;  456,992;12030,688;48,31912
 477,51; 6073,221;  443,917;12123,686;48,19705
 478,09; 6089,190;  445,840;12147,384;48,22740
 478,68; 6044,152;  451,686;12061,215;48,17134
 479,27; 6087,623;  472,377;12132,331;48,15839
 479,85; 6040,805;  442,994;12072,738;48,13357
 480,44; 6062,249;  423,456;12148,708;48,09101
 481,02; 6523,235;  452,227;13208,389;47,59275
 481,61; 7280,681;  475,457;14955,253;46,99806
 482,20; 7736,985;  452,534;16086,974;46,59234
 482,78; 8087,054;  481,225;16807,891;46,58532
 483,37; 8297,072;  477,459;17312,735;46,44779
 483,95; 8404,175;  515,075;17579,725;46,23066
 484,54; 8484,621;  500,918;17751,560;46,28062
 485,13; 8427,602;  481,000;17642,236;46,30554
 485,71; 8328,794;  443,614;17468,636;46,31524
 486,30; 8226,687;  504,615;17239,488;46,14359
 486,88; 8203,309;  567,923;16980,371;46,52192
 487,47; 7886,701;  514,308;16399,176;46,41142
 488,05; 7585,156;  506,462;15653,955;46,73178
 488,64; 7075,267;  498,310;14593,521;46,66093
 489,23; 6418,193;  510,386;13069,524;47,03991
 489,81; 5590,531;  510,771;11155,948;47,71889
 490,40; 5235,849;  457,617;10496,463;47,59742
 490,98; 5152,661;  448,464;10243,882;48,02447
 491,57; 5114,910;  473,001;10124,251;48,09646
 492,15; 5071,140;  450,310;10098,388;47,89379
 492,74; 5034,253;  463,462;10020,248;47,82770
 493,32; 4986,960;  461,156; 9944,783;47,72229
 493,91; 4877,388;  452,619; 9857,094;47,04961
 494,50; 4859,707;  454,621; 9793,626;47,16869
 495,08; 4865,775;  430,160; 9764,526;47,51919
 495,67; 4843,021;  470,080; 9742,939;47,15850
 496,25; 4777,220;  403,697; 9575,083;47,68661
 496,84; 4735,485;  408,080; 9641,341;46,86757
 497,42; 4745,497;  407,236; 9589,442;47,24639
 498,01; 4682,453;  431,388; 9532,746;46,70803
 498,59; 4609,710;  391,005; 9441,521;46,61287
 499,18; 4609,366;  384,003; 9425,815;46,73137
 499,76; 4638,893;  423,081; 9400,206;46,96172
 500,35; 4493,246;  414,237; 9110,549;46,90504
 500,93; 4472,446;  399,390; 9166,617;46,45775
 501,52; 4435,575;  394,236; 9082,243;46,51629
 502,10; 4433,285;  407,777; 9058,041;46,53624
 502,69; 4311,445;  385,085; 8889,046;46,17095
 503,27; 4223,834;  364,237; 8767,989;45,92708
 503,86; 4216,562;  396,085; 8717,401;45,91193
 504,44; 4153,214;  357,470; 8556,861;46,29300
 505,03; 4067,918;  357,624; 8381,055;46,24323
 505,61; 4034,981;  365,470; 8265,644;46,44848
 506,19; 3956,967;  378,163; 8144,080;46,08348
 506,78; 3847,297;  363,241; 7943,035;45,96505
 507,36; 3802,194;  360,239; 7839,184;46,02193
 507,95; 3739,311;  358,704; 7738,646;45,80804
 508,53; 3680,920;  352,241; 7598,333;45,93757
 509,12; 3631,620;  359,703; 7512,632;45,74234
 509,70; 3621,201;  389,319; 7357,865;46,37813
 510,29; 3563,946;  396,243; 7276,338;46,04155
 510,87; 3431,666;  357,087; 7066,022;45,82811
 511,46; 3374,265;  340,780; 6983,978;45,66302
 512,04; 3325,168;  369,243; 6844,347;45,65063
 512,62; 3279,542;  362,780; 6696,754;46,04948
 513,21; 3222,535;  337,551; 6626,702;45,87239
 513,79; 3143,076;  353,400; 6481,334;45,52392
 514,38; 3075,392;  319,630; 6345,079;45,73538
 514,96; 3071,390;  383,707; 6282,739;45,56143
 515,54; 2932,445;  332,015; 6144,275;44,74043
 516,13; 2964,020;  359,092; 6045,812;45,80721
 516,71; 2903,971;  335,862; 5951,219;45,73367
 517,30; 2847,725;  327,787; 5809,329;45,97133
 517,88; 2816,082;  351,248; 5779,046;45,41131
 518,46; 2748,009;  331,249; 5651,680;45,42415
 519,05; 2729,331;  335,172; 5613,445;45,35875
 519,63; 2704,377;  343,634; 5590,174;44,99620
 520,22; 2696,775;  355,405; 5514,646;45,38207
 520,80; 2666,842;  334,405; 5473,715;45,38425
 521,38; 2690,155;  395,480; 5447,396;45,42187
 521,97; 2609,317;  335,329; 5382,787;45,05215
 522,55; 2638,513;  356,021; 5386,283;45,37522
 523,13; 2579,372;  331,406; 5359,246;44,71037
 523,72; 2555,289;  335,402; 5333,935;44,41077
 524,30; 2647,843;  373,330; 5476,038;44,57463
 524,89; 2563,999;  317,329; 5451,164;43,76204
 525,47; 2630,165;  344,177; 5541,219;43,98634
 526,05; 2612,290;  307,561; 5591,026;43,62154
 526,64; 2662,271;  344,177; 5713,657;43,17166
 527,22; 2718,030;  342,253; 5800,480;43,52653
 527,80; 2755,824;  386,331; 5864,484;43,25350
 528,39; 2733,090;  325,255; 5897,066;43,21459
 528,97; 2791,538;  325,947; 6093,194;42,75161
 529,55; 2833,626;  351,560; 6193,788;42,48492
 530,14; 2898,321;  360,409; 6380,112;42,16008
 530,72; 2907,815;  329,408; 6463,046;42,03715
 531,30; 2932,080;  309,102; 6567,181;41,91347
 531,89; 2961,287;  339,101; 6668,332;41,42978
 532,47; 3010,098;  367,179; 6760,796;41,33685
 533,05; 3014,931;  354,946; 6794,555;41,30663
 533,63; 3028,258;  349,256; 6830,877;41,33228
 534,22; 3022,831;  332,179; 6850,228;41,28002
 534,80; 3060,533;  360,565; 6992,758;40,71003
 535,38; 3161,643;  465,332; 7061,139;40,87916
 535,97; 3035,706;  334,717; 7007,113;40,48005
 536,55; 3101,457;  393,334; 7050,405;40,68040
 537,13; 3074,248;  387,024; 7025,700;40,47831
 537,71; 3151,182;  424,563; 7075,170;40,99804
 538,30; 3133,192;  437,103; 7125,732;40,30855
 538,88; 3185,533;  470,566; 7249,189;40,05190
 539,46; 3280,806;  532,103; 7401,946;40,01114
 540,05; 3296,130;  523,643; 7479,267;39,85965
 540,63; 3400,673;  564,335; 7665,393;39,94247
 541,21; 3477,363;  602,182; 7839,915;39,72489
 541,79; 3483,956;  626,951; 7931,296;39,11377
 542,38; 3544,987;  649,258; 7995,737;39,41656
 542,96; 3606,444;  657,183; 8163,133;39,29231
 543,54; 3674,231;  693,951; 8313,117;39,11557
 544,12; 3698,488;  662,951; 8372,876;39,37181
 544,70; 3707,814;  644,721; 8485,152;39,06791
 545,29; 3766,199;  649,489; 8602,091;39,19107
 545,87; 3761,879;  644,951; 8649,065;38,94157
 546,45; 3701,959;  587,565; 8638,453;38,68386
 547,03; 3709,268;  580,258; 8751,531;38,29281
 547,62; 3700,603;  553,490; 8838,706;37,98468
 548,20; 3770,850;  561,337; 8978,950;38,12855
 548,78; 3741,004;  522,877; 9065,672;37,67065
 549,36; 3764,833;  496,646; 9190,936;37,59004
 549,94; 3797,351;  462,952; 9313,536;37,67435
 550,53; 3846,211;  465,261; 9505,822;37,39756
 551,11; 3854,258;  416,263; 9627,567;37,32365
 551,69; 3937,048;  443,569; 9876,538;37,03477
 552,27; 3950,402;  386,645;10085,376;36,74457
 552,85; 4027,288;  404,263;10370,253;36,35389
 553,44; 4147,451;  407,800;10633,415;36,57141
 554,02; 4199,381;  407,031;10902,913;36,13179
 554,60; 4232,390;  353,032;11157,288;35,90583
 555,18; 4348,117;  403,570;11510,163;35,51537
 555,76; 4410,008;  380,262;11787,107;35,32744
 556,34; 4525,016;  379,033;12088,728;35,40641
 556,93; 4599,849;  378,493;12359,487;35,23377
 557,51; 4644,162;  341,571;12642,045;34,97907
 558,09; 4759,968;  380,800;13024,674;34,63470
 558,67; 4856,876;  369,880;13360,339;34,54071
 559,25; 4947,888;  382,110;13550,794;34,67148
 559,83; 4966,085;  363,880;13792,567;34,27144
 560,41; 5034,675;  355,033;14055,671;34,15638
 561,00; 5145,130;  372,880;14372,880;34,08750
 561,58; 5140,021;  356,956;14549,424;33,70143
 562,16; 5217,139;  352,724;14810,534;33,64558
 562,74; 5301,724;  342,724;15169,571;33,44609
 563,32; 5407,884;  337,188;15520,945;33,39553
 563,90; 5534,888;  347,495;15847,994;33,46597
 564,48; 5588,642;  365,878;16100,844;33,19209
 565,06; 5741,910;  351,418;16628,812;33,11643
 565,65; 5871,113;  356,343;17214,512;32,71274
 566,23; 6044,626;  407,803;17829,462;32,35526
 566,81; 6175,380;  344,879;18389,250;32,31202
 567,39; 6428,775;  347,265;19136,196;32,36751
 567,97; 6554,132;  380,418;19670,789;32,00412
 568,55; 6766,638;  401,880;20462,856;31,72706
 569,13; 6938,234;  342,495;20941,625;32,01950
 569,71; 7089,477;  350,955;21809,989;31,40180
 570,29; 7357,945;  386,108;22649,825;31,31479
 570,87; 7527,625;  395,032;23273,292;31,17629
 571,45; 7670,860;  372,034;23807,095;31,14490
 572,03; 7748,662;  324,420;24254,552;31,02466
 572,61; 7883,195;  326,496;24871,809;30,78673
 573,20; 8088,332;  365,648;25371,827;30,88310
 573,78; 8200,434;  338,034;25980,062;30,66216
 574,36; 8348,236;  367,880;26388,119;30,66980
 574,94; 8459,164;  435,574;26697,061;30,55269
 575,52; 8435,803;  346,806;26860,156;30,50915
 576,10; 8599,967;  413,036;27417,888;30,31652
 576,68; 8683,935;  386,035;27838,508;30,22642
 577,26; 8863,069;  402,730;28451,892;30,16254
 577,84; 8946,233;  410,419;28849,178;30,01472
 578,42; 9075,194;  451,959;29123,331;30,07612
 579,00; 9002,754;  392,880;29239,641;29,84693
 579,58; 9034,453;  446,574;29495,877;29,56312
 580,16; 8977,123;  392,036;29479,720;29,51451
 580,74; 9026,362;  408,036;29640,665;29,48187
 581,32; 8970,708;  401,805;29698,681;29,24852
 581,90; 8981,680;  426,651;29655,366;29,26926
 582,48; 8921,365;  403,959;29723,376;29,05039
 583,06; 8940,226;  406,266;29708,388;29,12404
 583,64; 8942,987;  398,420;29953,750;28,91041
 584,22; 8886,671;  411,883;29761,404;28,87539
 584,80; 8771,110;  410,343;29581,110;28,66146
 585,38; 8597,142;  424,264;29217,752;28,38447
 585,96; 8541,375;  384,265;29257,799;28,25116
 586,54; 8581,299;  410,883;29261,199;28,32002
 587,12; 8531,006;  377,882;29227,365;28,26090
 587,70; 8569,691;  402,727;29386,514;28,17770
 588,28; 8519,498;  377,421;29414,667;28,04012
 588,86; 8524,543;  376,267;29621,533;27,86186
 589,44; 8476,967;  372,500;29491,641;27,83210
 590,02; 8496,091;  364,884;29774,833;27,64781
 590,59; 8491,010;  359,114;29856,230;27,56845
 591,17; 8500,930;  374,271;30016,442;27,41587
 591,75; 8452,891;  340,808;30141,180;27,22142
 592,33; 8540,969;  375,731;30299,519;27,28678
 592,91; 8500,769;  318,424;30557,867;27,05852
 593,49; 8578,121;  331,809;30759,318;27,10150
 594,07; 8575,832;  349,886;30897,733;26,92807
 594,65; 8538,189;  367,883;30916,803;26,74499
 595,23; 8637,856;  358,576;31270,014;26,78387
 595,81; 8589,390;  348,192;31456,625;26,49184
 596,39; 8594,144;  333,961;31574,721;26,44040
 596,97; 8576,823;  338,270;31688,633;26,27897
 597,55; 8550,492;  347,037;31643,184;26,21235
 598,12; 8467,655;  312,502;31593,083;26,07098
 598,70; 8529,229;  319,194;31682,881;26,17688
 599,28; 8534,418;  344,886;31766,617;26,06327
 599,86; 8493,421;  338,117;31879,173;25,85615
 600,44; 8499,847;  298,809;32064,868;25,81698
 601,02; 8485,719;  356,273;31862,411;25,80274
 601,60; 8464,180;  331,654;31898,842;25,76259
 602,18; 8420,208;  301,348;31935,910;25,66452
 602,75; 8400,843;  307,038;32026,526;25,51682
 603,33; 8387,133;  322,270;32067,697;25,40480
 603,91; 8331,229;  306,118;32077,050;25,25929
 604,49; 8357,545;  339,194;32054,057;25,28263
 605,07; 8333,076;  333,577;32084,405;25,19461
 605,65; 8337,552;  334,656;32282,093;25,05020
 606,23; 8355,217;  374,267;32301,118;24,99761
 606,80; 8280,589;  406,038;32418,215;24,59861
 607,38; 8299,200;  401,503;32387,350;24,69123
 607,96; 8364,377;  435,730;32420,938;24,78848
 608,54; 8343,760;  501,579;32552,321;24,46802
 609,12; 8302,623;  483,653;32521,412;24,40548
 609,70; 8313,866;  509,424;32563,006;24,34811
 610,27; 8245,937;  500,422;32599,140;24,13029
 610,85; 8295,212;  526,424;32780,221;24,08643
 611,43; 8230,602;  513,886;32697,303;23,97731
 612,01; 8105,151;  473,885;32517,527;23,81523
 612,59; 8081,162;  485,655;32498,351;23,72655
 613,16; 8024,078;  460,883;32517,100;23,59354
 613,74; 7977,014;  448,347;32391,971;23,56861
 614,32; 7974,545;  424,809;32345,103;23,65184
 614,90; 7868,613;  409,808;32269,342;23,41153
 615,48; 7766,888;  369,422;31909,532;23,45415
 616,05; 7733,131;  348,652;32071,834;23,27786
 616,63; 7727,527;  367,883;31798,136;23,41580
 617,21; 7649,926;  370,807;31668,177;23,25792
 617,79; 7589,422;  352,269;31662,112;23,11462
 618,36; 7577,514;  360,577;31594,402;23,10616
 618,94; 7446,008;  296,807;31281,521;23,07332
 619,52; 7395,002;  335,267;31074,515;22,96652
 620,10; 7337,912;  298,269;31007,382;22,92363
 620,67; 7322,024;  313,190;30922,641;22,89761
 621,25; 7279,784;  339,116;30758,264;22,81677
 621,83; 7207,943;  312,499;30793,253;22,62229
 622,41; 7208,750;  368,345;30774,314;22,49692
 622,98; 7099,854;  329,344;30612,936;22,35702
 623,56; 7037,818;  344,036;30538,014;22,16926
 624,14; 7020,607;  322,347;30516,383;22,18405
 624,72; 6927,743;  319,037;30430,170;21,94771
 625,29; 6923,083;  298,190;30358,673;22,03855
 625,87; 6965,906;  348,884;30286,731;22,10253
 626,45; 6831,931;  293,728;30263,274;21,81616
 627,02; 6828,288;  315,346;30217,482;21,78086
 627,60; 6719,712;  285,271;30101,283;21,58049
 628,18; 6684,162;  268,807;30174,259;21,45212
 628,76; 6695,632;  273,267;30200,189;21,46016
 629,33; 6670,652;  309,652;30212,528;21,27220
 629,91; 6632,758;  290,346;30134,305;21,25191
 630,49; 6663,227;  323,345;30316,788;21,13756
 631,06; 6590,729;  309,960;30425,636;20,85548
 631,64; 6529,247;  303,267;30379,143;20,70091
 632,22; 6530,027;  263,958;30248,952;20,89735
 632,79; 6494,216;  307,112;30573,918;20,44188
 633,37; 6477,990;  277,346;30480,613;20,52971
 633,95; 6505,388;  296,190;30626,610;20,47185
 634,52; 6514,608;  282,730;30722,277;20,47297
 635,10; 6502,550;  295,346;30768,738;20,36926
 635,68; 6484,577;  285,343;30838,069;20,29028
 636,25; 6463,182;  266,496;30866,091;20,25088
 636,83; 6458,862;  263,421;31030,881;20,13634
 637,41; 6475,537;  275,574;31103,482;20,11153
 637,98; 6484,167;  311,420;31250,771;19,95112
 638,56; 6510,610;  280,265;31268,726;20,10537
 639,13; 6465,903;  261,959;31465,652;19,88208
 639,71; 6559,479;  333,498;31595,528;19,91547
 640,29; 6396,564;  235,037;31331,864;19,81401
 640,86; 6403,478;  264,191;31518,712;19,64288
 641,44; 6362,084;  262,114;31538,791;19,50325
 642,02; 6316,998;  294,729;31498,101;19,30006
 642,59; 6335,911;  259,422;31549,257;19,42001
 643,17; 6299,363;  262,268;31572,106;19,28178
 643,74; 6271,585;  262,652;31620,031;19,16274
 644,32; 6320,652;  296,037;31624,495;19,23049
 644,89; 6296,951;  278,499;31553,651;19,24356
 645,47; 6211,557;  294,883;31644,192;18,87338
 646,05; 6217,239;  288,422;31611,656;18,92786
 646,62; 6183,230;  273,499;31508,350;18,92031
 647,20; 6139,836;  281,037;31677,814;18,66051
 647,77; 6058,211;  243,422;31590,509;18,54970
 648,35; 6061,510;  244,268;31437,665;18,64895
 648,92; 6038,577;  264,884;31536,128;18,46327
 649,50; 5993,952;  231,961;31455,208;18,45417
 650,08; 5973,404;  236,422;31330,902;18,45016
 650,65; 5979,010;  242,807;31524,443;18,33729
 651,23; 6034,616;  215,499;32113,907;18,24266
 651,80; 6103,453;  233,192;32978,986;17,92676
 652,38; 6275,213;  235,345;33420,680;18,20041
 652,95; 6261,819;  229,884;33682,452;18,03131
 653,53; 6307,656;  247,499;33932,916;17,99044
 654,10; 6350,108;  290,961;34001,610;17,97398
 654,68; 6227,945;  234,346;33939,074;17,78266
 655,25; 6219,243;  227,269;34010,076;17,73676
 655,83; 6224,003;  239,423;34132,925;17,65701
 656,40; 6255,224;  277,038;34117,773;17,66565
 656,98; 6155,753;  247,269;34001,314;17,50452
 657,55; 6123,898;  232,269;33852,008;17,52431
 658,13; 6027,119;  237,192;33606,088;17,35127
 658,70; 6015,340;  251,192;33373,475;17,40263
 659,28; 5817,715;  243,961;32672,938;17,18757
 659,85; 5697,629;  274,038;31938,864;17,12812
 660,43; 5646,081;  273,500;31835,866;17,02211
 661,00; 5634,995;  231,731;31997,637;17,00963
 661,58; 5648,293;  246,192;32299,486;16,85350
 662,15; 5679,053;  237,654;32432,103;16,90167
 662,73; 5773,428;  310,962;32681,337;16,87489
 663,30; 5719,727;  255,654;32765,108;16,80764
 663,88; 5731,102;  253,577;32979,264;16,73769
 664,45; 5738,862;  237,270;33182,420;16,69925
 665,03; 5771,852;  243,193;33517,730;16,61529
 665,60; 5905,843;  346,116;33881,502;16,57869
 666,17; 5769,833;  226,654;33876,965;16,47289
 666,75; 5854,901;  232,577;34247,122;16,52917
 667,32; 5917,430;  262,347;34514,739;16,51004
 667,90; 5866,805;  254,116;34759,049;16,26634
 668,47; 5958,411;  246,962;34978,205;16,44470
 669,05; 5945,094;  234,578;35190,131;16,33651
 669,62; 5891,008;  205,270;35287,671;16,20681
 670,19; 5884,460;  221,809;35354,058;16,11810
 670,77; 5947,297;  238,193;35586,753;16,15088
 671,34; 5895,210;  228,270;35506,986;16,06334
 671,92; 5939,970;  217,424;35773,065;16,09462
 672,49; 5887,653;  244,886;35796,221;15,87217
 673,06; 5894,413;  200,963;35855,762;15,96826
 673,64; 5841,173;  218,424;35888,764;15,76309
 674,21; 5847,702;  216,809;35786,612;15,83054
 674,79; 5891,308;  248,347;36006,307;15,78099
 675,36; 5891,914;  258,194;36144,309;15,69889
 675,93; 5810,212;  225,963;35922,619;15,64362
 676,51; 5837,356;  240,578;36172,545;15,57604
 677,08; 5825,424;  241,886;36211,316;15,52301
 677,65; 5774,338;  228,809;36233,703;15,40215
 678,23; 5811,021;  235,809;36526,321;15,36272
 678,80; 5785,934;  231,732;36591,015;15,27588
 679,38; 5800,233;  228,809;36700,710;15,27593
 679,95; 5839,608;  240,886;36994,635;15,23306
 680,52; 5815,983;  240,271;37206,330;15,08333
 681,10; 5884,589;  257,040;37515,716;15,10400
 681,67; 5882,349;  240,733;37679,796;15,06880
 682,24; 5874,186;  205,040;37796,490;15,08094
 682,82; 5925,484;  233,040;38262,723;14,96842
 683,39; 6011,090;  283,964;38554,802;14,96473
 683,96; 5999,311;  232,271;38842,343;14,93662
 684,54; 6001,609;  213,810;38945,192;14,94344
 685,11; 6102,369;  284,425;39362,809;14,88788
 685,68; 6048,975;  224,887;39788,965;14,72065
 686,25; 6061,966;  212,425;39773,044;14,78627
 686,83; 6058,110;  213,964;39990,124;14,69259
 687,40; 6106,870;  206,964;40179,126;14,76004
 687,97; 6182,322;  270,426;40649,744;14,64090
 688,55; 6140,159;  201,041;40597,515;14,70207
 689,12; 6177,919;  201,964;40850,287;14,70160
 689,69; 6173,140;  200,503;40927,596;14,66502
 690,26; 6179,054;  215,041;41028,983;14,61268
 690,84; 6212,506;  217,887;41170,370;14,63799
 691,41; 6208,958;  233,272;41281,603;14,55768
 691,98; 6248,564;  234,657;41426,221;14,59985
 692,56; 6235,786;  224,811;41576,069;14,53638
 693,13; 6267,468;  264,272;41618,072;14,51667
 693,70; 6271,844;  241,195;41739,535;14,53226
 694,27; 6286,603;  214,041;41837,615;14,58924
 694,84; 6258,748;  204,349;41999,463;14,48590
 695,42; 6440,431;  347,734;42157,927;14,57228
 695,99; 6308,498;  231,426;42268,467;14,45647
 696,56; 6279,412;  221,272;42062,777;14,47878
 697,13; 6316,941;  249,734;42465,010;14,37207
 697,71; 6346,316;  236,042;42405,243;14,48990
 698,28; 6362,768;  218,503;42685,938;14,46818
 698,85; 6307,836;  184,965;42749,248;14,38500
 699,42; 6333,750;  187,119;42917,404;14,38472
 699,99; 6326,433;  237,350;43094,637;14,20781
 700,57; 6406,038;  226,504;42982,024;14,45319
 701,14; 6351,337;  218,504;43243,565;14,25410
 701,71; 6388,097;  244,273;43393,259;14,23863
 702,28; 6381,472;  206,734;43389,108;14,29921
 702,85; 6385,924;  213,119;43459,879;14,27345
 703,43; 6424,299;  234,581;43677,805;14,24783
 704,00; 6447,290;  266,042;43936,884;14,15418
 704,57; 6424,896;  223,965;43860,809;14,21031
 705,14; 6460,271;  243,735;44073,811;14,18327
 705,71; 6484,492;  245,350;44170,967;14,20388
 706,28; 6397,944;  219,350;43985,585;14,11726
 706,86; 6480,012;  249,427;44296,664;14,14523
 707,43; 6528,541;  274,120;44263,667;14,21797
 708,00; 6502,839;  247,812;44272,592;14,20797
 708,57; 6437,907;  222,504;44162,671;14,14515
 709,14; 6487,974;  235,581;44266,596;14,19997
 709,71; 6441,427;  220,351;44289,522;14,11662
 710,28; 6512,956;  232,197;44550,985;14,17177
 710,86; 6489,638;  231,120;44591,911;14,10822
 711,43; 6567,398;  269,274;44707,836;14,17266
 712,00; 6525,697;  239,735;44776,146;14,11421
 712,57; 6566,456;  249,505;44921,841;14,14063
 713,14; 6580,293;  226,351;45019,997;14,18492
 713,71; 6558,976;  236,351;44877,768;14,16314
 714,28; 6555,890;  228,812;45031,232;14,12218
 714,85; 6522,957;  221,659;44795,157;14,13687
 715,42; 6504,640;  227,428;44930,006;14,04217
 716,00; 6664,477;  319,120;44958,316;14,21476
 716,57; 6601,698;  226,428;45137,164;14,19543
 717,14; 6571,074;  214,890;45000,705;14,19240
 717,71; 6579,679;  213,351;45114,015;14,17870
 718,28; 6641,747;  266,274;45249,863;14,17289
 718,85; 6594,738;  214,351;45256,481;14,16537
 719,42; 6650,267;  230,044;45374,483;14,22151
 719,99; 6674,488;  221,275;45290,408;14,31848
 720,56; 6722,632;  253,736;45504,180;14,29576
 721,13; 6695,392;  220,505;45534,798;14,28884
 721,70; 6668,844;  205,198;45353,800;14,31638
 722,27; 6732,835;  243,044;45439,571;14,35905
 722,84; 6777,056;  307,890;45645,189;14,26897
 723,41; 6727,124;  201,736;45564,268;14,38497
 723,98; 6774,884;  224,044;45692,578;14,40741
 724,55; 6842,644;  257,121;45880,273;14,43461
 725,12; 6782,326;  179,660;45785,275;14,47775
 725,69; 6845,394;  210,660;45912,508;14,51743
 726,27; 6859,077;  219,429;46100,972;14,47128
 726,84; 6898,529;  234,121;46272,051;14,47591
 727,41; 6923,366;  246,891;46219,284;14,52279
 727,98; 6963,972;  238,198;46454,286;14,55288
 728,55; 7032,962;  265,891;46409,981;14,66509
 729,12; 7003,030;  224,968;46419,598;14,67284
 729,69; 7088,174;  246,122;46690,216;14,73180
 730,26; 7070,703;  245,199;46748,988;14,67731
 730,82; 7085,463;  226,814;46789,759;14,72984
 731,39; 7071,608;  237,352;46789,223;14,68095
 731,96; 7167,368;  222,122;47146,764;14,80085
 732,53; 7200,820;  227,968;47229,997;14,83521
 733,10; 7243,887;  248,506;47406,614;14,83389
 733,67; 7301,955;  241,430;47580,232;14,91488
 734,24; 7232,484;  225,814;47363,542;14,86425
 734,81; 7321,474;  260,737;47405,467;14,97673
 735,38; 7265,773;  241,891;47182,854;14,96322
 735,95; 7259,225;  236,122;47039,626;15,00551
 736,52; 7315,062;  249,814;47306,243;15,01441
 737,09; 7300,360;  245,276;46945,322;15,10723
 737,66; 7376,812;  303,045;47125,478;15,10764
 738,23; 7370,033;  239,430;47270,019;15,16163
 738,80; 7484,332;  333,430;47433,021;15,18251
 739,37; 7446,476;  265,430;47544,562;15,18862
 739,94; 7456,005;  242,276;47537,872;15,25243
 740,51; 7597,150;  386,199;47725,567;15,23246
 741,07; 7482,909;  242,123;47657,031;15,27112
 741,64; 7615,438;  277,661;47821,033;15,43386
 742,21; 7629,891;  250,584;47846,881;15,50395
 742,78; 7585,035;  210,584;47695,114;15,53022
 743,35; 7618,872;  243,738;47841,578;15,49468
 743,92; 7670,555;  303,431;48011,734;15,44202
 744,49; 7716,315;  291,892;47954,736;15,57696
 745,06; 7663,844;  245,969;47984,508;15,53855
 745,63; 7695,603;  232,738;47951,741;15,63919
 746,19; 7730,286;  235,046;48003,282;15,69085
 746,76; 7744,046;  251,892;47986,976;15,69528
 747,33; 7802,191;  246,585;47932,363;15,84457
 747,90; 7847,412;  260,969;48207,904;15,82258
 748,47; 7814,556;  251,585;48079,752;15,81280
 749,04; 7876,393;  258,662;48062,831;15,93529
 749,61; 7942,076;  296,508;48079,987;16,00044
 750,17; 7948,528;  272,200;48101,759;16,04934
 750,74; 7932,750;  260,431;48091,607;16,04041
 751,31; 7910,894;  233,277;47929,917;16,09677
 751,88; 7896,346;  226,893;47761,381;16,13450
 752,45; 7987,029;  235,816;48047,614;16,21193
 753,02; 8042,404;  271,124;47837,155;16,33788
 753,58; 8011,933;  243,201;47801,157;16,33530
 754,15; 8046,385;  236,970;47897,006;16,38567
 754,72; 8007,145;  233,047;47735,854;16,36556
 755,29; 7978,751;  234,662;47625,779;16,34080
 755,86; 8062,280;  255,662;47612,166;16,48479
 756,42; 8087,425;  270,893;47549,784;16,53282
 756,99; 8015,185;  221,355;47528,325;16,47501
 757,56; 8052,021;  237,970;47488,788;16,53739
 758,13; 8043,243;  183,970;47382,252;16,65161
 758,70; 8131,772;  234,740;47498,870;16,70830
 759,26; 8136,378;  216,124;47622,718;16,70707
 759,83; 8176,368;  218,509;47698,797;16,76034
 760,40; 8155,897;  210,432;47539,646;16,78766
 760,97; 8156,888;  194,971;47545,879;16,81471
 761,53; 8162,802;  200,432;47250,573;16,92316
 762,10; 8145,638;  196,971;47242,729;16,89561
 762,67; 8231,937;  231,125;47363,039;16,97536
 763,24; 8201,004;  183,971;46810,965;17,19397
 763,80; 8241,533;  222,817;47057,890;17,12118
 764,37; 8206,293;  218,586;46949,508;17,09298
 764,94; 8212,668;  205,740;46512,741;17,29097
 765,50; 8216,120;  197,740;46622,820;17,27166
 766,07; 8374,419;  240,663;46601,591;17,54442
 766,64; 8288,409;  216,740;46386,824;17,48247
 767,21; 8334,169;  221,663;46244,057;17,62730
 767,77; 8336,621;  236,279;46237,752;17,60888
 768,34; 8387,612;  238,587;46083,754;17,77510
 768,91; 8368,987;  257,125;46028,295;17,72265
 769,47; 8452,132;  253,971;45959,297;17,93699
 770,04; 8386,430;  236,202;45886,838;17,85348
 770,61; 8364,420;  224,664;45673,071;17,90988
 771,18; 8419,103;  223,741;45574,766;18,07095
 771,74; 8455,709;  233,279;45760,999;18,06027
 772,31; 8482,546;  251,510;45522,309;18,18178
 772,88; 8481,767;  208,972;45194,157;18,39005
 773,44; 8451,297;  212,279;45197,544;18,31492
 774,01; 8533,749;  242,126;45247,161;18,42377
 774,58; 8478,355;  226,279;44967,779;18,44389
 775,14; 8544,653;  216,972;45002,089;18,59475
 775,71; 8524,490;  229,126;45007,245;18,52549
 776,27; 8660,403;  284,972;45031,324;18,71757
 776,84; 8696,471;  344,433;45082,865;18,66860
 777,41; 8676,769;  246,895;44851,790;18,89899
 777,97; 8649,144;  222,511;44521,023;19,02239
 778,54; 8712,135;  246,126;44589,641;19,09188
 779,11; 8712,279;  275,511;44533,566;19,06267
 779,67; 8687,885;  224,126;44509,723;19,11177
 780,24; 8725,645;  246,895;44317,648;19,23895
 780,80; 8809,174;  264,818;44183,727;19,45485
 781,37; 8824,396;  267,511;44244,345;19,45771
 781,94; 8798,079;  254,049;44098,193;19,48728
 782,50; 8842,531;  243,203;44058,118;19,62648
 783,07; 8876,598;  280,973;44164,813;19,58722
 783,63; 8904,204;  243,973;43904,354;19,83545
 784,20; 8940,887;  275,434;43756,664;19,92918
 784,77; 8937,185;  246,588;43611,204;20,04076
 785,33; 8903,945;  216,973;43542,053;20,05068
 785,90; 8972,936;  226,127;43474,670;20,22452
 786,46; 8983,388;  257,127;43350,596;20,24961
 787,03; 8966,532;  242,127;43279,290;20,27180
 787,59; 8977,985;  251,050;43225,370;20,30732
 788,16; 9065,283;  261,819;43184,372;20,51011
 788,73; 9060,812;  252,896;43086,374;20,56316
 789,29; 9009,418;  237,512;42647,992;20,68335
 789,86; 9051,178;  272,435;42764,302;20,65982
 790,42; 9002,168;  240,819;42514,458;20,72533
 790,99; 8969,159;  258,666;42188,537;20,77396
 791,55; 9045,996;  234,050;42205,155;20,99527
 792,12; 9083,448;  277,973;42234,311;20,98723
 792,68; 9031,977;  255,743;42022,621;21,01243
 793,25; 9039,121;  266,589;41749,315;21,14743
 793,81; 9106,189;  356,973;41461,548;21,28526
 794,38; 8973,102;  228,435;41261,089;21,31148
 794,94; 8981,478;  236,589;41053,014;21,42493
 795,51; 9021,161;  264,281;40950,247;21,52310
 796,07; 8996,997;  255,358;40739,096;21,59296
 796,64; 9061,142;  258,589;40835,713;21,69339
 797,20; 9024,671;  275,051;40351,177;21,83250
 797,77; 8977,277;  218,282;40175,026;21,92119
 798,33; 9018,421;  261,512;40026,182;22,02183
 798,90; 9064,335;  263,051;39942,107;22,18118
 799,46; 8972,018;  250,436;39510,802;22,21472
 800,03; 9022,393;  249,436;39487,727;22,35815
 800,59; 9023,614;  271,051;39295,960;22,42815
 801,15; 9076,067;  278,205;39119,347;22,65088
 801,72; 9025,596;  261,436;38846,041;22,71414
 802,28; 9019,202;  288,974;38628,351;22,77092
 802,85; 9023,346;  266,282;38441,969;22,93885
 803,41; 9018,721;  260,436;38174,817;23,10017
 803,98; 8926,943;  245,821;37995,973;22,99626
 804,54; 8962,241;  245,205;37805,360;23,20820
 805,11; 8971,847;  267,744;37534,440;23,35625
 805,67; 8962,837;  285,975;37478,903;23,32933
 806,23; 8853,905;  259,359;36999,906;23,39254
 806,80; 8921,896;  277,052;36971,216;23,55918
 807,36; 8940,886;  274,821;36936,064;23,63822
 807,93; 8925,108;  296,898;36716,989;23,69080
 808,49; 8847,329;  252,975;36466,376;23,73252
 809,05; 8845,166;  237,744;36270,225;23,88795
 809,62; 8880,310;  273,590;36224,842;23,93997
 810,18; 8881,301;  261,129;36103,768;24,05005
 810,74; 8838,214;  231,129;35830,539;24,17761
 811,31; 8812,205;  232,821;35807,080;24,11683
 811,87; 8866,119;  268,206;35550,159;24,36915
 812,44; 8906,802;  278,744;35585,238;24,43759
 813,00; 8814,946;  202,206;35325,010;24,52179
 813,56; 8933,167;  258,591;35426,243;24,66635
 814,13; 8934,389;  259,745;35306,245;24,75181
 814,69; 8915,149;  254,437;35126,709;24,83552
 815,25; 8905,216;  222,129;34763,634;25,13813
 815,82; 8948,514;  267,668;34740,790;25,18149
 816,38; 9001,813;  304,745;34607,408;25,35391
 816,94; 8890,573;  239,745;34295,564;25,40191
 817,51; 8909,640;  224,591;34186,182;25,57315
 818,07; 8834,938;  234,053;33943,107;25,51506
 818,63; 8884,006;  247,283;33742,648;25,78483
 819,20; 8903,689;  245,053;33680,034;25,89694
 819,76; 8864,833;  230,130;33318,191;26,09613
 820,32; 8916,516;  277,899;33216,654;26,22630
 820,89; 8875,122;  256,591;33095,272;26,24506
 821,45; 8846,036;  235,284;32781,428;26,45706
 822,01; 8919,180;  259,207;32576,738;26,79652
 822,57; 8901,555;  263,438;32504,356;26,79241
 823,14; 8828,238;  224,361;32337,050;26,79277
 823,70; 8806,998;  243,899;32111,668;26,87072
 824,26; 8763,527;  233,284;31924,516;26,91673
 824,82; 8845,672;  281,669;31755,826;27,20963
 825,39; 8827,431;  253,284;31557,905;27,38940
 825,95; 8806,576;  259,976;31663,677;27,21526
 826,51; 8838,413;  260,900;31224,987;27,70149
 827,08; 8948,634;  294,284;31294,066;27,91745
 827,64; 8882,702;  261,592;31137,838;27,92150
 828,20; 8852,077;  233,669;30844,148;28,15509
 828,76; 8923,298;  277,900;30913,304;28,22029
 829,32; 8916,058;  283,669;30782,921;28,30361
 829,89; 8874,664;  220,515;30631,693;28,45713
 830,45; 8908,270;  248,746;30549,772;28,57832
 831,01; 8934,184;  256,669;30435,236;28,75390
 831,57; 8924,559;  253,131;30356,700;28,80532
 832,14; 9001,703;  245,823;30360,163;29,07545
 832,70; 8969,925;  231,439;30087,473;29,26874
 833,26; 8929,377;  217,592;30007,552;29,24403
 833,82; 9000,137;  252,592;29996,401;29,40963
 834,38; 9001,358;  234,900;29933,019;29,51856
 834,95; 9047,502;  227,054;29881,482;29,74412
 835,51; 8985,647;  194,823;29619,485;29,87570
 836,07; 9086,561;  245,823;29849,179;29,86397
 836,63; 9140,936;  264,208;29809,104;30,04488
 837,19; 9124,465;  266,131;29616,722;30,18111
 837,75; 9081,378;  217,747;29437,186;30,33471
 838,32; 9187,446;  263,824;29434,496;30,59108
 838,88; 9211,052;  270,978;29527,190;30,55787
 839,44; 9250,658;  267,362;29466,116;30,76602
 840,00; 9234,879;  260,747;29344,195;30,85649
 840,56; 9186,024;  239,747;29087,582;31,01195
 841,12; 9222,014;  251,362;29022,969;31,17884
 841,68; 9166,467;  219,362;28915,509;31,17876
 842,25; 9171,765;  230,901;28897,435;31,18920
 842,81; 9198,063;  225,516;28658,899;31,55638
 843,37; 9189,592;  216,747;28716,824;31,48358
 843,93; 9236,198;  239,593;28621,134;31,69879
 844,49; 9277,496;  269,132;28662,136;31,72741
 845,05; 9170,025;  208,055;28451,138;31,73156
 845,61; 9310,401;  266,209;28538,602;31,98948
 846,17; 9260,391;  227,594;28423,297;32,03608
 846,73; 9306,536;  244,901;28418,684;32,16336
 847,29; 9308,988;  234,901;28240,686;32,40076
 847,86; 9268,286;  231,209;28164,688;32,35214
 848,42; 9260,046;  237,594;28038,306;32,45403
 848,98; 9287,575;  250,132;27979,846;32,59119
 849,54; 9330,258;  231,055;28005,079;32,76156
 850,10; 9319,402;  265,363;27859,466;32,81150
 850,66; 9312,393;  229,979;27766,469;32,98320
 851,22; 9381,461;  221,209;27664,702;33,37859
 851,78; 9430,066;  271,825;27777,089;33,29632
 852,34; 9373,211;  258,210;27524,091;33,43006
 852,90; 9443,278;  236,671;27507,016;33,76051
 853,46; 9347,577;  228,979;27169,557;33,84708
 854,02; 9423,875;  257,902;27278,559;33,92210
 854,58; 9445,943;  245,210;27066,561;34,30376
 855,14; 9465,241;  233,133;27005,487;34,48374
 855,70; 9400,078;  198,979;26777,412;34,61866
 856,26; 9409,299;  248,595;26742,030;34,57726
 856,82; 9422,828;  241,210;26686,570;34,71920
 857,38; 9452,357;  284,287;26626,034;34,80434
 857,94; 9457,732;  240,979;26536,806;35,05025
 858,50; 9421,261;  263,133;26454,885;34,96570
 859,06; 9399,560;  239,056;26178,733;35,31464
 859,62; 9451,704;  267,364;26182,582;35,43995
 860,18; 9407,233;  244,287;26027,815;35,53798
 860,74; 9387,685;  211,518;25935,202;35,67206
 861,30; 9402,214;  214,057;25775,742;35,94504
 861,86; 9479,513;  302,210;25813,206;35,97391
 862,42; 9369,888;  236,441;25544,824;36,08862
 862,98; 9461,571;  274,518;25605,441;36,26813
 863,54; 9366,023;  239,595;25394,982;36,28021
 864,10; 9434,629;  241,595;25447,215;36,47216
 864,66; 9318,696;  218,134;25251,910;36,35314
 865,22; 9323,918;  247,211;25159,604;36,43450
 865,78; 9371,062;  238,595;25047,222;36,81166
 866,34; 9334,591;  230,826;25047,916;36,68345
 866,90; 9361,582;  247,519;24849,534;37,04600
 867,45; 9331,572;  242,365;24756,613;37,07724
 868,01; 9301,102;  252,057;24654,539;37,08248
 868,57; 9296,323;  236,826;24441,695;37,42841
 869,13; 9301,390;  217,673;24362,312;37,62209
 869,69; 9297,227;  232,596;24253,315;37,73672
 870,25; 9299,295;  214,750;24182,471;37,90325
 870,81; 9341,516;  228,596;24100,396;38,17442
 871,37; 9351,122;  255,288;24070,091;38,19403
 871,93; 9370,574;  252,750;23878,478;38,59278
 872,49; 9368,488;  295,058;23714,172;38,74369
 873,04; 9261,325;  223,904;23557,636;38,73114
 873,60; 9295,469;  232,442;23462,254;39,01464
 874,16; 9332,229;  256,750;23347,333;39,30381
 874,72; 9308,306;  241,442;23380,025;39,18504
 875,28; 9314,075;  240,365;23348,102;39,26698
 875,84; 9370,767;  248,519;23300,025;39,57333
 876,40; 9391,921;  232,135;23155,102;39,95899
 876,95; 9409,844;  244,750;23142,256;40,02661
 877,51; 9463,075;  274,750;23168,410;40,13480
 878,07; 9479,460;  286,135;23186,410;40,14504
 878,63; 9458,613;  240,904;23134,256;40,26370
 879,19; 9525,460;  262,981;23189,102;40,40142
 879,75; 9572,613;  232,288;23175,948;40,70983
 880,30; 9595,844;  237,288;23103,794;40,92692
 880,86; 9667,613;  288,596;23294,717;40,76749
 881,42; 9689,306;  226,596;23303,487;41,00513
 881,98; 9788,075;  246,442;23390,410;41,22730
 882,54; 9848,460;  235,212;23375,487;41,54336
 883,09; 9992,844;  259,288;23574,948;41,74686
 883,65;10013,844;  233,519;23483,948;42,06514
 884,21;10130,767;  271,750;23818,871;41,86931
 884,77;10127,690;  231,135;23800,794;41,98854
 885,32;10256,921;  239,442;23943,640;42,26036
 885,88;10388,690;  281,288;24105,717;42,42453
 886,44;10446,306;  244,673;24123,871;42,72184
 887,00;10476,998;  269,750;24141,794;42,75817
 887,56;10579,921;  241,365;24294,102;42,98287
 888,11;10606,690;  253,981;24308,102;43,03923
 888,67;10703,306;  271,827;24400,333;43,23301
 889,23;10717,306;  244,750;24482,179;43,20820
 889,79;10713,998;  231,058;24303,487;43,54750
 890,34;10771,229;  253,596;24299,333;43,74011
 890,90;10896,921;  316,827;24418,794;43,89722
 891,46;10790,998;  237,058;24348,410;43,77167
 892,01;10863,921;  245,904;24326,179;44,09425
 892,57;10874,767;  278,750;24254,487;44,19475
 893,13;10808,921;  256,596;24073,487;44,30606
 893,69;10840,537;  230,365;24010,179;44,61840
 894,24;10833,767;  241,365;23982,333;44,61656
 894,80;10814,229;  238,519;23844,640;44,80071
 895,36;10763,075;  249,981;23747,948;44,74044
 895,91;10757,767;  243,904;23516,640;45,17674
 896,47;10720,767;  259,212;23529,102;44,95748
 897,03;10649,306;  238,673;23267,563;45,20684
 897,58;10640,921;  258,596;23177,410;45,30045
 898,14;10649,767;  258,212;23120,563;45,45270
 898,70;10519,075;  215,750;22922,333;45,37594
 899,25;10612,998;  240,365;22978,948;45,61688
 899,81;10584,152;  256,135;22819,025;45,77435
 900,37;10467,767;  209,058;22637,487;45,73976
 900,92;10526,460;  237,981;22644,717;45,91690
 901,48;10476,767;  236,365;22451,794;46,09590
 902,03;10456,998;  234,519;22301,563;46,32464
 902,59;10486,537;  239,673;22331,640;46,38276
 903,15;10416,229;  256,596;22087,256;46,53837
 903,70;10321,613;  240,212;21979,563;46,37398
 904,26;10293,613;  242,058;21877,487;46,45878
 904,82;10320,152;  236,750;21862,640;46,62653
 905,37;10306,383;  251,596;21730,333;46,81275
 905,93;10291,537;  237,750;21658,179;46,93551
 906,48;10269,152;  252,365;21601,102;46,91981
 907,04;10247,921;  255,519;21476,102;47,08825
 907,60;10246,844;  247,212;21357,179;47,36925
 908,15;10206,460;  229,827;21213,410;47,54494
 908,71;10261,306;  253,673;21286,025;47,58209
 909,26;10177,613;  251,673;21088,256;47,63708
 909,82;10157,460;  249,827;20958,640;47,84259
 910,37;10171,921;  284,442;20923,948;47,90560
 910,93;10079,152;  228,365;20717,717;48,07759
 911,48;10027,306;  231,365;20649,102;47,97760
 912,04; 9981,152;  226,288;20462,948;48,20392
 912,60;10053,921;  251,212;20524,871;48,35195
 913,15; 9992,690;  237,827;20291,640;48,64343
 913,71; 9952,306;  231,519;20166,025;48,76362
 914,26; 9960,613;  220,135;20162,256;48,84375
 914,82; 9920,537;  259,596;20106,948;48,67622
 915,37; 9935,613;  232,750;20033,333;49,00292
 915,93; 9919,075;  307,904;19933,563;48,97247
 916,48; 9886,152;  229,827;19801,256;49,33889
 917,04; 9879,767;  254,365;19686,640;49,53307
 917,59; 9896,460;  268,673;19677,256;49,60582
 918,15; 9770,844;  213,135;19513,640;49,52051
 918,70; 9774,998;  240,596;19423,563;49,70244
 919,26; 9780,613;  246,442;19416,717;49,73414
 919,81; 9733,460;  209,827;19181,948;50,19804
 920,37; 9648,229;  238,904;19112,640;49,85407
 920,92; 9693,229;  253,135;19137,640;49,98857
 921,48; 9561,075;  223,135;18901,410;49,99359
 922,03; 9626,998;  222,212;18846,333;50,49788
 922,59; 9521,075;  228,212;18791,794;50,05964
 923,14; 9453,383;  248,135;18596,871;50,16829
 923,69; 9465,844;  253,596;18562,179;50,31655
 924,25; 9464,613;  268,827;18562,563;50,26740
 924,80; 9383,075;  234,750;18369,025;50,44770
 925,36; 9337,383;  223,596;18322,102;50,35657
 925,91; 9313,613;  224,981;18221,717;50,50156
 926,47; 9266,537;  217,288;18161,871;50,42886
 927,02; 9368,613;  314,288;18083,333;50,95561
 927,57; 9206,229;  212,519;17960,256;50,67525
 928,13; 9185,075;  223,212;17831,179;50,89664
 928,68; 9238,229;  229,673;17891,563;51,00561
 929,24; 9092,613;  203,212;17668,102;50,89870
 929,79; 9079,998;  217,750;17577,563;51,05036
 930,34; 9082,229;  225,673;17422,256;51,50184
 930,90; 9099,844;  218,288;17422,179;51,62528
 931,45; 9065,844;  234,442;17462,256;51,26247
 932,01; 9005,229;  235,673;17360,487;51,20964
 932,56; 9031,229;  255,596;17165,563;51,89621
 933,11; 9021,690;  263,981;17126,794;51,93504
 933,67; 8914,229;  221,981;17004,563;51,79327
 934,22; 8942,152;  238,288;16960,025;52,05119
 934,77; 8908,767;  256,827;16781,410;52,35800
 935,33; 8847,229;  237,212;16716,871;52,24633
 935,88; 8823,460;  242,981;16752,025;51,97441
 936,43; 8822,306;  235,135;16605,102;52,45686
 936,99; 8772,767;  234,058;16544,640;52,35073
 937,54; 8658,152;  204,058;16446,871;52,04821
 938,09; 8709,767;  240,827;16372,717;52,49813
 938,65; 8677,306;  232,135;16261,640;52,68516
 939,20; 8639,690;  204,750;16177,563;52,80811
 939,75; 8593,383;  220,365;16124,563;52,64659
 940,31; 8553,460;  217,519;15971,333;52,91379
 940,86; 8584,537;  236,365;15983,179;53,01499
 941,41; 8637,460;  334,750;15937,871;53,21185
 941,96; 8519,537;  214,288;15792,563;53,31301
 942,52; 8527,229;  224,519;15760,256;53,44265
 943,07; 8456,767;  206,673;15593,640;53,61742
 943,62; 8467,998;  228,596;15560,102;53,74164
 944,18; 8411,152;  206,058;15509,487;53,61605
 944,73; 8413,998;  238,288;15427,102;53,82718
 945,28; 8338,921;  203,904;15267,794;54,00343
 945,83; 8351,152;  225,135;15246,871;54,09506
 946,39; 8364,152;  222,288;15224,179;54,27225
 946,94; 8309,075;  245,827;15147,563;54,10945
 947,49; 8273,460;  222,673;15083,256;54,17544
 948,04; 8315,460;  274,442;15046,333;54,43459
 948,59; 8261,537;  251,442;14994,487;54,33135
 949,15; 8237,229;  221,827;14878,102;54,68922
 949,70; 8170,537;  224,827;14792,102;54,54493
 950,25; 8216,075;  233,596;14693,487;55,20428
 950,80; 8138,844;  199,212;14674,102;54,85107
 951,36; 8146,921;  199,212;14514,563;55,51879
 951,91; 8160,383;  246,365;14557,102;55,30126
 952,46; 8055,537;  219,596;14430,333;55,14099
 953,01; 8111,767;  232,442;14444,256;55,44208
 953,56; 8043,152;  212,442;14223,487;55,88955
 954,11; 8078,998;  238,827;14239,102;56,00012
 954,67; 8021,306;  222,673;14136,179;56,05081
 955,22; 7966,229;  202,288;14011,794;56,22171
 955,77; 7974,767;  245,288;14036,179;56,04771
 956,32; 7944,537;  278,058;13908,179;56,24659
 956,87; 7854,613;  213,212;13860,563;55,99183
 957,42; 7823,075;  219,673;13823,410;55,89201
 957,98; 7767,998;  214,212;13717,102;55,94200
 958,53; 7871,075;  258,519;13722,179;56,54150
 959,08; 7768,613;  216,288;13561,487;56,59208
 959,63; 7768,921;  227,135;13540,563;56,64797
 960,18; 7740,383;  244,058;13492,025;56,58472
 960,73; 7724,767;  228,750;13412,794;56,85674
 961,28; 7699,921;  201,673;13368,256;56,94908
 961,83; 7709,537;  248,904;13331,487;57,02722
 962,39; 7639,921;  211,596;13205,179;57,16918
 962,94; 7648,383;  239,596;13198,640;57,17078
 963,49; 7601,767;  237,365;13043,256;57,50793
 964,04; 7660,152;  244,827;13004,717;58,11433
 964,59; 7549,306;  207,673;12920,256;57,75091
 965,14; 7585,152;  251,596;12819,102;58,35331
 965,69; 7598,306;  238,596;12784,256;58,66339
 966,24; 7500,690;  219,596;12659,563;58,52985
 966,79; 7493,383;  237,981;12654,871;58,43171
 967,34; 7429,998;  209,135;12482,640;58,83293
 967,89; 7439,152;  225,288;12511,256;58,71628
 968,44; 7416,613;  221,288;12428,333;58,94404
 968,99; 7404,690;  235,596;12349,563;59,18040
 969,55; 7346,767;  227,981;12292,179;59,00754
 970,10; 7290,075;  240,058;12193,256;58,98018
 970,65; 7256,921;  254,904;12086,871;59,17881
 971,20; 7190,921;  220,212;12017,179;59,08900
 971,75; 7122,152;  203,288;11844,102;59,43625
 972,30; 7151,306;  240,981;11904,948;59,24506
 972,85; 7040,767;  216,365;11747,794;59,18089
 973,40; 7014,690;  208,288;11706,948;59,19300
 973,95; 6976,075;  240,288;11657,794;58,99525
 974,50; 6963,767;  259,519;11607,640;59,07804
 975,05; 6901,075;  231,058;11516,410;59,10332
 975,60; 6894,690;  239,904;11411,640;59,56806
 976,15; 6782,844;  222,058;11380,794;58,79507
 976,70; 6788,613;  229,058;11312,563;59,18304
 977,25; 6782,460;  248,135;11288,025;59,18831
 977,80; 6707,075;  223,519;11137,871;59,40395
 978,35; 6661,537;  243,519;11028,563;59,50849
 978,89; 6622,844;  212,750;10951,025;59,69389
 979,44; 6637,383;  233,827;10961,333;59,69287
 979,99; 6532,613;  215,904;10728,948;60,08450
 980,54; 6535,690;  249,981;10703,640;60,12927
 981,09; 6524,844;  250,827;10667,256;60,23194
 981,64; 6442,998;  247,212;10536,025;60,21867
 982,19; 6463,767;  276,365;10493,410;60,55961
 982,74; 6409,152;  247,058;10385,948;60,77681
 983,29; 6317,383;  220,596;10241,179;60,84263
 983,84; 6275,921;  242,519;10224,563;60,44255
 984,39; 6347,152;  348,596;10177,333;61,03079
 984,94; 6177,537;  211,442;10055,871;60,60376
 985,49; 6178,998;  253,519; 9997,948;60,80889
 986,03; 6141,844;  262,750; 9924,563;60,84877
 986,58; 6121,306;  287,827; 9831,563;61,12364
 987,13; 6014,690;  243,596; 9711,179;60,95636
 987,68; 5977,075;  248,288; 9625,410;61,09323
 988,23; 5970,921;  244,288; 9541,333;61,59627
 988,78; 5891,844;  227,135; 9450,179;61,41909
 989,33; 5846,844;  242,288; 9348,410;61,54713
 989,88; 5863,152;  291,212; 9341,563;61,56601
 990,42; 5787,383;  244,365; 9220,640;61,75187
 990,97; 5735,921;  230,365; 9067,794;62,29816
 991,52; 5699,998;  257,288; 9052,871;61,88003
 992,07; 5677,383;  290,288; 8989,487;61,92633
 992,62; 5588,844;  245,750; 8861,410;62,01608
 993,17; 5576,383;  259,212; 8761,025;62,54161
 993,71; 5556,844;  253,827; 8735,256;62,52505
 994,26; 5457,921;  228,442; 8609,025;62,39994
 994,81; 5446,306;  264,904; 8560,717;62,45803
 995,36; 5366,998;  234,673; 8417,794;62,71843
 995,91; 5343,690;  234,981; 8371,640;62,78633
 996,45; 5297,537;  242,365; 8249,563;63,13284
 997,00; 5223,844;  232,596; 8114,871;63,32243
 997,55; 5227,998;  244,596; 8144,640;63,08068
 998,10; 5163,460;  262,981; 8010,179;63,25485
 998,65; 5140,229;  238,288; 7979,256;63,32465
 999,19; 5081,537;  267,519; 7907,871;63,00780
 999,74; 5073,998;  278,827; 7788,256;63,85534
1000,29; 5020,229;  255,904; 7731,179;63,73444
1000,84; 4918,690;  250,673; 7572,256;63,75694
1001,38; 4876,229;  244,365; 7539,640;63,49128
1001,93; 4885,152;  250,058; 7480,871;64,10197
1002,48; 4773,075;  230,519; 7299,256;64,26263
1003,03; 4755,383;  257,058; 7323,102;63,66115
1003,57; 4705,306;  255,673; 7216,102;63,92757
1004,12; 4699,690;  292,288; 7162,717;64,15032
1004,67; 4608,306;  238,519; 7084,256;63,83223
1005,22; 4556,844;  242,135; 6931,563;64,50042
1005,76; 4428,229;  232,981; 6815,025;63,73777
1006,31; 4471,690;  269,981; 6788,563;64,45741
1006,86; 4386,690;  229,750; 6727,256;63,97748
1007,40; 4294,613;  230,135; 6614,410;63,66391
1007,95; 4254,690;  245,673; 6506,025;64,03821
1008,50; 4233,537;  259,212; 6437,794;64,32422
1009,04; 4169,152;  238,904; 6353,102;64,28068
1009,59; 4104,306;  255,673; 6198,410;64,76196
1010,14; 4031,767;  235,904; 6121,717;64,49174
1010,68; 4008,998;  240,212; 6066,102;64,69031
1011,23; 3920,613;  239,596; 5991,563;63,99580
1011,78; 3896,690;  255,750; 5919,948;64,27989
1012,32; 3889,229;  283,519; 5834,256;64,95912
1012,87; 3858,690;  276,904; 5799,794;64,85348
1013,42; 3776,537;  231,135; 5676,640;65,10694
1013,96; 3793,383;  276,673; 5702,948;64,80891
1014,51; 3700,998;  206,981; 5638,717;64,32597
1015,06; 3702,690;  206,135; 5622,871;64,55097
1015,60; 3780,767;  288,596; 5678,948;64,78559
1016,15; 3740,767;  232,442; 5631,025;64,98604
1016,69; 3748,460;  246,904; 5662,717;64,65429
1017,24; 3755,229;  224,981; 5628,410;65,33348
1017,79; 3776,998;  285,827; 5696,948;64,51844
1018,33; 3792,613;  236,904; 5689,410;65,21240
1018,88; 3851,383;  264,288; 5746,333;65,43351
1019,42; 3847,460;  225,519; 5714,640;65,98398
1019,97; 3834,229;  228,827; 5688,102;66,04177
1020,51; 3891,306;  268,288; 5828,410;65,16076
1021,06; 3819,767;  218,827; 5724,717;65,40160
1021,61; 3818,383;  207,288; 5715,640;65,55671
1022,15; 3809,921;  196,442; 5684,256;65,84551
1022,70; 3859,690;  249,519; 5684,717;66,42207
1023,24; 3824,921;  214,750; 5655,179;66,35821
1023,79; 3809,998;  233,596; 5595,487;66,70039
1024,33; 3765,613;  231,827; 5567,102;66,23438
1024,88; 3763,152;  254,750; 5434,410;67,73422
1025,42; 3743,844;  250,058; 5380,256;68,10237
1025,97; 3614,613;  227,365; 5349,487;66,12979
1026,51; 3546,921;  207,519; 5236,640;66,40130
1027,06; 3541,998;  227,827; 5202,410;66,62209
1027,60; 3498,460;  259,981; 5131,717;66,47484
1028,15; 3462,690;  253,827; 5051,871;66,87857
1028,69; 3349,306;  197,750; 4920,794;66,72721
1029,24; 3355,690;  227,519; 4923,025;66,62054
1029,78; 3270,075;  213,135; 4815,640;66,41905
1030,33; 3215,998;  207,904; 4682,102;67,23203
1030,87; 3184,921;  223,058; 4647,487;66,94341
1031,42; 3121,844;  213,288; 4556,487;66,96807
1031,96; 3130,690;  244,750; 4548,102;67,06262
1032,51; 3054,998;  222,673; 4440,717;67,14783
1033,05; 3033,537;  233,365; 4427,487;66,76419
1033,60; 2946,152;  200,058; 4295,871;67,04637
1034,14; 2939,690;  212,058; 4250,487;67,54193
1034,69; 2905,152;  231,365; 4207,410;67,24740
1035,23; 2848,075;  221,673; 4128,179;67,23149
1035,77; 2854,229;  223,365; 4076,333;68,28149
1036,32; 2730,844;  203,442; 3986,717;66,80461
1036,86; 2771,306;  242,981; 3999,102;67,31213
1037,41; 2735,998;  235,904; 3900,025;68,23176
1037,95; 2665,460;  198,058; 3846,102;67,63629
1038,50; 2655,921;  218,212; 3803,487;67,99226
1039,04; 2633,075;  244,442; 3772,948;67,69530
1039,58; 2561,690;  201,442; 3700,256;67,45853
1040,13; 2534,075;  216,058; 3657,871;67,34872
1040,67; 2534,690;  253,981; 3627,640;67,60343
1041,21; 2506,921;  254,365; 3596,717;67,39433
1041,76; 2426,460;  210,135; 3487,179;67,63183
1042,30; 2392,537;  231,596; 3481,948;66,48327
1042,85; 2371,998;  222,673; 3406,487;67,50788
1043,39; 2348,844;  220,365; 3354,563;67,91143
1043,93; 2350,383;  246,596; 3342,794;67,94741
1044,48; 2306,383;  242,288; 3280,640;67,93467
1045,02; 2257,537;  225,827; 3214,563;67,97888
1045,56; 2248,537;  255,058; 3238,410;66,82010
1046,11; 2215,767;  235,135; 3181,794;67,21620
1046,65; 2177,460;  234,673; 3089,025;68,06402
1047,19; 2130,537;  223,058; 3051,563;67,43769
1047,74; 2089,921;  211,365; 2994,487;67,49817
1048,28; 2112,921;  232,442; 3001,333;67,91453
1048,82; 2103,998;  275,365; 2956,025;68,21577
1049,37; 2045,152;  245,058; 2932,487;66,98202
1049,91; 2027,229;  243,904; 2855,256;68,29125
1050,45; 1979,998;  249,904; 2829,794;67,06077
1050,99; 1975,998;  247,058; 2806,487;67,55181
1051,54; 1924,998;  226,058; 2730,794;67,82911
1052,08; 1947,998;  258,673; 2717,333;68,70919
1052,62; 1897,613;  254,212; 2689,333;67,48748
1053,16; 1845,383;  222,827; 2629,871;67,40864
1053,71; 1846,998;  248,750; 2601,333;67,93589
1054,25; 1820,767;  246,442; 2566,948;67,84405
1054,79; 1791,383;  251,904; 2547,179;67,07165
1055,33; 1727,152;  207,058; 2450,640;67,75298
1055,88; 1745,075;  243,212; 2484,256;67,01623
1056,42; 1724,844;  253,827; 2468,640;66,41721
1056,96; 1695,921;  248,442; 2394,948;67,43419
1057,50; 1677,998;  249,904; 2408,871;66,14710
1058,05; 1647,537;  234,135; 2317,948;67,82766
1058,59; 1644,998;  271,058; 2302,794;67,62394
1059,13; 1587,690;  216,519; 2243,179;67,65671
1059,67; 1589,998;  244,442; 2229,640;67,77942
1060,21; 1560,383;  240,750; 2211,256;66,96924
1060,76; 1552,844;  250,827; 2190,179;67,13672
1061,30; 1535,229;  267,442; 2150,179;67,33744
1061,84; 1517,229;  256,135; 2104,410;68,23088
1062,38; 1437,229;  224,596; 2055,025;66,24856
1062,92; 1510,229;  280,981; 2092,333;67,86357
1063,46; 1420,229;  260,212; 2023,256;65,79627
1064,01; 1436,613;  240,058; 1992,794;68,26786
1064,55; 1410,383;  257,673; 1976,563;67,06126
1065,09; 1359,767;  214,827; 1910,025;67,54021
1065,63; 1392,844;  273,981; 1932,640;67,45588
1066,17; 1393,460;  280,135; 1910,563;68,28418
1066,71; 1350,306;  271,288; 1891,487;66,59786
1067,25; 1327,075;  243,750; 1824,102;68,54960
1067,80; 1324,460;  252,981; 1830,717;67,91241
1068,34; 1330,690;  269,827; 1846,410;67,28879
1068,88; 1271,998;  242,827; 1753,102;68,14462
1069,42; 1294,921;  263,981; 1791,717;67,48156
1069,96; 1246,690;  238,058; 1733,640;67,44078
1070,50; 1271,075;  281,442; 1754,948;67,16178
1071,04; 1226,613;  227,442; 1685,717;68,51733
1071,58; 1201,229;  233,442; 1667,871;67,46842
1072,12; 1210,152;  247,750; 1649,717;68,64653
1072,66; 1184,229;  238,058; 1640,871;67,44811
1073,21; 1194,460;  263,212; 1643,333;67,47582
1073,75; 1180,537;  255,750; 1602,256;68,68047
1074,29; 1155,613;  249,365; 1575,025;68,36205
1074,83; 1158,229;  263,135; 1580,025;67,97029
1075,37; 1156,998;  269,673; 1574,102;68,02402
1075,91; 1123,690;  253,981; 1527,179;68,30906
1076,45; 1109,383;  262,442; 1527,948;66,92505
1076,99; 1120,767;  260,519; 1491,410;69,88828
1077,53; 1074,690;  245,519; 1465,871;67,94525
1078,07; 1093,229;  262,058; 1478,333;68,33744
1078,61; 1069,306;  246,365; 1439,025;69,00044
1079,15; 1057,921;  250,135; 1419,333;69,08894
1079,69; 1043,921;  241,519; 1411,410;68,58779
1080,23; 1059,921;  277,058; 1414,333;68,83678
1080,77; 1092,921;  317,596; 1445,640;68,73179
1081,31; 1022,767;  240,750; 1355,948;70,12362
1081,85; 1031,229;  268,596; 1380,794;68,56986
1082,39;  995,690;  254,212; 1324,794;69,25937
1082,93; 1014,152;  271,058; 1341,563;69,41525
1083,47;  973,613;  233,442; 1288,102;70,18105
1084,01;  982,921;  257,750; 1299,410;69,61690
1084,55;  945,460;  254,827; 1275,025;67,69594
1085,09;  953,844;  263,827; 1277,025;68,10290
1085,63;  934,075;  260,981; 1253,333;67,82818
1086,17;  919,383;  245,058; 1243,102;67,56464
1086,71;  913,460;  230,442; 1222,717;68,83347
1087,24;  937,383;  282,596; 1234,025;68,82139
1087,78;  918,690;  273,442; 1210,333;68,87125
1088,32;  875,767;  234,904; 1147,640;70,21341
1088,86;  891,613;  273,673; 1194,102;67,13614
1089,40;  884,383;  254,058; 1152,871;70,12857
1089,94;  854,767;  231,365; 1128,717;69,47129
1090,48;  863,767;  253,135; 1130,256;69,61783
1091,02;  871,844;  280,058; 1135,333;69,19254
1091,56;  852,383;  253,212; 1090,487;71,56205
1092,10;  806,921;  230,442; 1072,256;68,48059
1092,63;  855,460;  270,135; 1099,256;70,59583
1093,17;  819,613;  257,750; 1091,179;67,41589
1093,71;  800,998;  244,673; 1046,948;69,34343
1094,25;  816,306;  278,212; 1067,640;68,16247
1094,79;  793,229;  247,135; 1043,025;68,61425
1095,33;  799,767;  255,058; 1041,025;69,30436
1095,87;  781,537;  256,519; 1015,563;69,16821
1096,40;  750,998;  229,673;  985,640;68,96132
1096,94;  767,921;  259,519;  997,563;68,88502
1097,48;  778,075;  263,288;  998,871;69,98350
1098,02;  738,383;  236,288;  964,256;68,97209
1098,56;  689,921;  223,442;  929,871;66,03338
1099,10;  705,613;  226,596;  923,487;68,73639
1099,63;  699,460;  226,596;  921,871;68,01100
1100,17;  724,921;  261,442;  929,102;69,41843
1100,71;  750,690;  283,442;  954,410;69,63798

