
Integration time [ms]: 150,000
Averaging Nr. [scans]: 13
Smoothing Nr. [pixels]: 0
Data measured with spectrometer [name]: 2009305U1
Wave   ;Sample   ;Dark     ;Reference;Reflectance
[nm]   ;[counts] ;[counts] ;[counts] ;[%]

 175,72;  219,418;  224,973;  232,391;-74,87337
 176,32;  244,972;  240,735;  239,245; 0,00000
 176,92;  290,091;  291,355;  284,805; 0,00000
 177,52;  276,187;  271,741;  288,463;26,58904
 178,12;  261,435;  266,428;  259,823; 0,00000
 178,72;  297,949;  286,502;  280,469; 0,00000
 179,32;  272,119;  275,812;  267,745; 0,00000
 179,92;  277,603;  285,891;  268,795; 0,00000
 180,52;  261,341;  252,746;  272,061;44,50150
 181,12;  277,207;  280,738;  289,721;-39,30930
 181,73;  295,847;  300,046;  302,762;-154,65512
 182,33;  407,164;  409,820;  406,971; 0,00000
 182,93;  300,620;  289,894;  294,847;216,57379
 183,53;  257,334;  255,809;  249,810; 0,00000
 184,13;  253,081;  257,656;  248,661; 0,00000
 184,73;  306,231;  305,962;  313,345; 3,64656
 185,33;  274,157;  255,305;  344,858;21,05043
 185,93;  280,610;  266,916;  359,913;14,72578
 186,53;  293,780;  267,842;  381,617;22,79754
 187,13;  322,671;  292,770;  414,333;24,59690
 187,73;  290,356;  273,916;  373,416;16,52184
 188,33;  274,466;  268,221;  379,789; 5,59683
 188,93;  294,379;  273,674;  384,519;18,67945
 189,53;  293,913;  278,744;  380,835;14,85858
 190,13;  337,192;  295,810;  437,825;29,13929
 190,73;  264,872;  249,202;  384,820;11,55449
 191,34;  309,161;  273,825;  409,815;25,98449
 191,94;  272,896;  252,218;  370,276;17,51486
 192,54;  287,456;  279,620;  399,966; 6,51106
 193,14;  304,290;  289,000;  387,600;15,50707
 193,74;  296,474;  287,461;  379,404; 9,80253
 194,34;  298,108;  281,078;  392,221;15,32267
 194,94;  260,416;  248,923;  345,600;11,88737
 195,54;  238,843;  215,844;  336,398;19,07803
 196,14;  257,759;  243,772;  343,765;13,98763
 196,74;  261,641;  238,843;  354,623;19,69047
 197,34;  229,190;  219,852;  347,856; 7,29507
 197,94;  257,021;  239,155;  367,795;13,88870
 198,54;  280,598;  252,772;  382,880;21,38659
 199,14;  249,956;  229,623;  362,749;15,27331
 199,74;  235,292;  217,931;  353,672;12,78985
 200,34;  229,184;  218,239;  355,290; 7,98587
 200,94;  276,409;  263,774;  406,391; 8,85924
 201,54;  245,461;  230,392;  402,629; 8,74932
 202,14;  292,220;  272,164;  452,335;11,13187
 202,74;  251,060;  229,777;  425,863;10,85383
 203,34;  240,191;  209,782;  417,845;14,61565
 203,94;  217,209;  184,318;  432,337;13,26144
 204,54;  285,604;  259,232;  504,220;10,76459
 205,14;  237,410;  202,546;  505,171;11,52052
 205,74;  288,442;  259,320;  591,229; 8,77415
 206,34;  248,723;  220,241;  593,142; 7,63805
 206,94;  261,880;  236,163;  631,831; 6,49951
 207,54;  222,875;  209,933;  644,718; 2,97680
 208,14;  244,837;  216,703;  714,144; 5,65587
 208,74;  259,101;  214,854;  754,132; 8,20492
 209,34;  255,517;  221,470;  808,442; 5,80053
 209,94;  271,915;  237,623;  890,249; 5,25435
 210,54;  259,996;  218,165;  966,494; 5,58989
 211,14;  273,242;  228,623; 1025,633; 5,59830
 211,73;  271,571;  232,237; 1111,974; 4,47104
 212,33;  295,381;  239,774; 1188,775; 5,85946
 212,93;  288,659;  225,854; 1272,131; 6,00279
 213,53;  247,514;  193,315; 1281,363; 4,98129
 214,13;  284,251;  227,245; 1379,045; 4,94927
 214,73;  267,374;  201,856; 1377,951; 5,57081
 215,33;  241,068;  197,931; 1390,403; 3,61748
 215,93;  291,371;  220,935; 1496,612; 5,52144
 216,53;  237,211;  181,546; 1531,015; 4,12495
 217,13;  314,094;  236,473; 1687,840; 5,34815
 217,73;  303,582;  216,551; 1839,536; 5,36240
 218,33;  271,898;  171,246; 1944,509; 5,67609
 218,93;  309,361;  195,482; 2182,917; 5,72998
 219,53;  327,695;  215,323; 2401,433; 5,14031
 220,13;  302,254;  175,016; 2581,899; 5,28643
 220,73;  327,664;  197,239; 2851,019; 4,91469
 221,32;  345,716;  198,931; 3120,286; 5,02458
 221,92;  384,546;  207,631; 3428,167; 5,49334
 222,52;  379,276;  187,089; 3717,576; 5,44362
 223,12;  397,592;  200,628; 4022,269; 5,15390
 223,72;  431,697;  216,244; 4372,501; 5,18384
 224,32;  450,105;  209,629; 4616,964; 5,45628
 224,92;  452,014;  198,167; 4835,348; 5,47416
 225,52;  489,985;  220,086; 5110,293; 5,51917
 226,12;  472,443;  198,780; 5350,032; 5,31255
 226,72;  475,951;  171,857; 5553,453; 5,65064
 227,31;  483,783;  164,703; 5830,376; 5,63182
 227,91;  555,374;  208,932; 6177,329; 5,80460
 228,51;  556,321;  200,929; 6407,624; 5,72595
 229,11;  585,565;  202,934; 6726,183; 5,86566
 229,71;  603,232;  194,930; 6921,669; 6,06983
 230,31;  620,342;  193,630; 7217,584; 6,07510
 230,91;  632,242;  180,543; 7438,424; 6,22357
 231,51;  662,721;  188,628; 7630,921; 6,37026
 232,10;  700,373;  184,400; 7920,663; 6,66955
 232,70;  740,801;  201,540; 8050,067; 6,87085
 233,30;  775,054;  219,935; 8212,688; 6,94529
 233,90;  775,271;  185,627; 8357,534; 7,21550
 234,50;  795,791;  186,858; 8338,267; 7,47028
 235,10;  839,398;  182,167; 8361,810; 8,03496
 235,70;  870,723;  221,701; 8439,675; 7,89759
 236,29;  882,191;  208,007; 8272,400; 8,36000
 236,89;  874,657;  181,697; 8134,388; 8,71353
 237,49;  931,513;  199,934; 8099,993; 9,26042
 238,09;  923,492;  182,779; 7834,758; 9,68002
 238,69;  963,941;  237,849; 7651,380; 9,79414
 239,29;  932,581;  197,933; 7392,371;10,21133
 239,89;  938,209;  205,697; 7129,926;10,57898
 240,48;  939,632;  180,010; 6781,450;11,50691
 241,08;  935,019;  192,163; 6490,908;11,79372
 241,68;  962,787;  202,472; 6241,874;12,58925
 242,28;  930,668;  194,242; 5954,187;12,78530
 242,88;  983,971;  243,245; 5729,199;13,50223
 243,48;  983,023;  230,703; 5513,531;14,24085
 244,07;  960,436;  211,470; 5315,560;14,67384
 244,67;  963,894;  216,011; 5200,991;15,00274
 245,27;  967,109;  216,314; 5068,512;15,47330
 245,87;  990,675;  220,860; 5047,813;15,94826
 246,47;  995,123;  205,776; 4990,205;16,49826
 247,06; 1004,727;  195,702; 4988,255;16,88088
 247,66; 1006,131;  191,010; 5045,375;16,79150
 248,26; 1088,105;  225,161; 5147,014;17,53291
 248,86; 1103,027;  213,622; 5321,282;17,41315
 249,46; 1100,770;  169,627; 5440,689;17,66517
 250,05; 1186,575;  220,933; 5738,680;17,50066
 250,65; 1207,505;  181,314; 5969,510;17,72903
 251,25; 1288,200;  189,547; 6357,869;17,81121
 251,85; 1353,496;  209,543; 6812,734;17,32424
 252,44; 1410,779;  170,315; 7249,516;17,52265
 253,04; 1535,279;  210,777; 7818,327;17,41036
 253,64; 1589,355;  162,159; 8404,469;17,31548
 254,24; 1757,469;  224,394; 9168,218;17,14116
 254,84; 1843,462;  186,320; 9921,228;17,02268
 255,43; 1957,305;  188,392;10750,633;16,74751
 256,03; 2054,672;  187,390;11606,163;16,35273
 256,63; 2184,642;  203,620;12400,234;16,24240
 257,23; 2261,245;  188,928;13216,811;15,90678
 257,82; 2410,707;  211,541;14106,224;15,82739
 258,42; 2430,266;  173,463;14919,565;15,30441
 259,02; 2588,628;  214,316;15677,903;15,35422
 259,62; 2573,052;  189,000;16358,485;14,74414
 260,21; 2647,402;  208,623;16988,555;14,53390
 260,81; 2680,232;  197,396;17427,877;14,40956
 261,41; 2697,656;  179,694;17907,684;14,20331
 262,01; 2699,606;  227,922;18314,057;13,66618
 262,60; 2663,168;  184,159;18710,427;13,38105
 263,20; 2664,304;  189,314;19121,858;13,07268
 263,80; 2666,417;  225,230;19337,865;12,77263
 264,40; 2602,056;  173,923;19593,059;12,50382
 264,99; 2594,408;  207,691;19766,863;12,20254
 265,59; 2552,577;  186,534;19883,310;12,01234
 266,19; 2518,291;  187,230;20100,326;11,70617
 266,78; 2509,819;  236,613;20275,972;11,34371
 267,38; 2439,868;  200,381;20331,852;11,12431
 267,98; 2356,645;  198,459;20347,819;10,71094
 268,58; 2361,700;  204,073;20373,698;10,69741
 269,17; 2282,552;  191,455;20470,340;10,31170
 269,77; 2289,631;  201,619;20310,845;10,38335
 270,37; 2181,988;  171,922;20130,593;10,07114
 270,96; 2177,238;  233,695;20224,724; 9,72208
 271,56; 2110,013;  195,697;19928,464; 9,70120
 272,16; 2047,116;  194,617;19783,490; 9,45689
 272,75; 1989,257;  188,079;19749,068; 9,20801
 273,35; 1977,485;  201,618;19603,610; 9,15301
 273,95; 1965,901;  199,848;19589,915; 9,10803
 274,54; 1908,155;  177,933;19713,410; 8,85682
 275,14; 1960,150;  225,157;20045,880; 8,75343
 275,74; 1862,445;  166,771;19968,529; 8,56325
 276,33; 1944,609;  223,619;20344,883; 8,55309
 276,93; 1941,984;  204,703;20646,721; 8,49858
 277,53; 1952,296;  188,238;20999,862; 8,47631
 278,12; 1950,828;  179,467;21460,082; 8,32383
 278,72; 2061,434;  253,623;21988,591; 8,31753
 279,32; 2031,880;  202,545;22420,475; 8,23360
 279,91; 2079,281;  178,621;22956,548; 8,34431
 280,51; 2147,115;  182,931;23409,978; 8,45645
 281,11; 2181,498;  200,621;23992,394; 8,32589
 281,70; 2196,461;  179,467;24405,547; 8,32571
 282,30; 2278,397;  192,312;24945,233; 8,42763
 282,90; 2315,530;  183,927;25231,041; 8,51037
 283,49; 2402,898;  208,464;25761,610; 8,58772
 284,09; 2464,466;  226,698;26079,930; 8,65566
 284,69; 2507,445;  228,699;26439,436; 8,69394
 285,28; 2571,361;  223,621;26775,853; 8,84197
 285,88; 2711,017;  291,463;26939,836; 9,07956
 286,47; 2667,347;  203,158;27004,886; 9,19414
 287,07; 2784,775;  230,314;27049,551; 9,52473
 287,67; 2880,407;  219,549;27202,685; 9,86119
 288,26; 2924,501;  183,237;27102,628;10,18323
 288,86; 3032,334;  191,236;27191,277;10,52257
 289,46; 3162,338;  206,314;27293,857;10,91286
 290,05; 3287,556;  186,932;27370,022;11,40644
 290,65; 3446,772;  201,312;27556,115;11,86432
 291,24; 3630,721;  201,238;27630,937;12,50281
 291,84; 3789,796;  207,851;27732,464;13,01361
 292,44; 3950,752;  196,627;27752,918;13,62348
 293,03; 4194,021;  282,546;28043,745;14,08972
 293,63; 4284,746;  199,927;28143,117;14,61830
 294,22; 4481,890;  223,929;28296,048;15,16793
 294,82; 4611,568;  201,615;28317,253;15,68505
 295,41; 4668,461;  177,390;28083,700;16,09339
 296,01; 4816,826;  232,386;28096,142;16,45306
 296,61; 4916,531;  225,469;27923,821;16,93625
 297,20; 4970,457;  198,848;27461,720;17,50223
 297,80; 5021,224;  218,779;27448,525;17,63676
 298,39; 5068,342;  189,158;27120,118;18,11738
 298,99; 5218,483;  226,925;27050,417;18,60891
 299,58; 5213,481;  212,472;26883,144;18,75097
 300,18; 5318,851;  216,548;26738,677;19,23791
 300,78; 5270,550;  205,008;26411,633;19,32924
 301,37; 5381,628;  207,460;26374,822;19,77337
 301,97; 5401,863;  231,083;26462,857;19,71189
 302,56; 5455,500;  190,158;26361,078;20,11906
 303,16; 5497,740;  180,465;26230,113;20,41208
 303,75; 5498,238;  195,931;26281,135;20,32687
 304,35; 5630,095;  192,013;26493,154;20,67622
 304,94; 5698,759;  194,468;26507,819;20,91824
 305,54; 5737,793;  211,008;26480,593;21,03872
 306,13; 5708,390;  171,782;26435,270;21,08101
 306,73; 5719,962;  176,242;26274,725;21,24154
 307,33; 5782,105;  214,857;26205,376;21,42030
 307,92; 5835,805;  217,084;26265,361;21,57041
 308,52; 5964,599;  182,388;26595,919;21,89110
 309,11; 6091,188;  185,078;27114,294;21,93198
 309,71; 6163,613;  181,538;27312,404;22,04897
 310,30; 6252,587;  189,007;27535,013;22,17355
 310,90; 6400,202;  243,776;27768,090;22,36723
 311,49; 6425,970;  216,622;27941,666;22,39617
 312,09; 6423,019;  172,086;28080,139;22,39831
 312,68; 6633,899;  265,854;28453,748;22,59142
 313,28; 6651,805;  173,084;28570,668;22,81434
 313,87; 6706,529;  173,622;28691,474;22,90813
 314,47; 6788,541;  203,001;28880,144;22,96442
 315,06; 6853,763;  176,546;29022,169;23,14811
 315,66; 6879,327;  189,932;29287,908;22,98921
 316,25; 6901,049;  165,157;29046,383;23,32274
 316,85; 6946,286;  152,855;29132,485;23,44209
 317,44; 7009,413;  193,693;29362,911;23,36614
 318,04; 7016,852;  180,312;29264,041;23,50641
 318,63; 7003,507;  169,858;29361,379;23,40971
 319,22; 7081,275;  197,619;29467,076;23,51822
 319,82; 7114,626;  202,390;29597,083;23,51525
 320,41; 7149,570;  210,312;29530,808;23,66692
 321,01; 7153,143;  211,316;29689,791;23,54880
 321,60; 7158,291;  214,928;29706,584;23,54348
 322,20; 7147,470;  181,469;29680,092;23,61467
 322,79; 7187,232;  217,700;29699,284;23,64029
 323,39; 7192,827;  183,858;29847,921;23,62781
 323,98; 7139,409;  175,777;29806,670;23,50126
 324,58; 7128,760;  187,234;29699,958;23,52045
 325,17; 7177,568;  195,696;29622,153;23,72651
 325,76; 7139,948;  202,391;29630,781;23,57437
 326,36; 7029,891;  176,470;29222,829;23,59477
 326,95; 7004,432;  214,775;29064,392;23,53465
 327,55; 6918,660;  181,005;28815,775;23,52963
 328,14; 6826,317;  182,087;28463,180;23,49354
 328,74; 6791,625;  210,619;28041,923;23,64606
 329,33; 6684,540;  201,239;27790,675;23,49922
 329,92; 6581,853;  170,770;27269,257;23,65845
 330,52; 6460,004;  206,702;26750,874;23,55810
 331,11; 6392,606;  195,005;26357,545;23,68883
 331,71; 6216,820;  184,698;25920,241;23,43887
 332,30; 6115,374;  200,853;25450,434;23,42424
 332,89; 6117,308;  277,470;25062,635;23,56183
 333,49; 5912,285;  212,313;24569,585;23,40152
 334,08; 5813,191;  191,082;24255,736;23,36252
 334,68; 5712,443;  186,390;23878,852;23,32410
 335,27; 5667,714;  213,472;23597,646;23,32450
 335,86; 5648,067;  270,698;23330,776;23,31896
 336,46; 5519,225;  207,242;23089,223;23,21470
 337,05; 5483,053;  188,313;22964,391;23,24693
 337,65; 5391,143;  176,005;22873,967;22,97624
 338,24; 5435,541;  240,008;22794,093;23,03589
 338,83; 5401,661;  218,623;22743,478;23,01030
 339,43; 5365,253;  189,081;22695,499;22,99865
 340,02; 5324,293;  186,619;22572,882;22,95012
 340,61; 5353,218;  196,930;22608,053;23,00772
 341,21; 5360,241;  220,850;22675,846;22,88751
 341,80; 5344,792;  201,543;22645,813;22,91564
 342,40; 5290,124;  193,780;22704,721;22,63941
 342,99; 5361,462;  197,008;22802,481;22,84603
 343,58; 5341,925;  190,393;22941,367;22,64313
 344,18; 5421,402;  201,470;23014,638;22,88122
 344,77; 5425,579;  188,695;23305,459;22,65405
 345,36; 5441,894;  170,775;23620,623;22,47826
 345,96; 5555,247;  214,162;23867,521;22,58066
 346,55; 5554,877;  186,243;24027,576;22,51818
 347,14; 5621,222;  179,318;24316,452;22,54578
 347,74; 5678,104;  162,785;24672,474;22,50261
 348,33; 5809,801;  187,477;25204,741;22,47378
 348,92; 5936,380;  202,094;25709,443;22,48092
 349,52; 5991,927;  169,478;26172,362;22,39155
 350,11; 6018,179;  197,157;26345,265;22,26173
 350,70; 6076,581;  181,623;26517,553;22,38371
 351,29; 6028,035;  178,613;26275,357;22,41438
 351,89; 5970,565;  213,385;26317,871;22,05437
 352,48; 5967,329;  169,238;26263,976;22,21939
 353,07; 5932,064;  208,319;26233,108;21,99344
 353,67; 5936,480;  204,325;26088,368;22,14552
 354,26; 5860,691;  197,626;25981,875;21,96327
 354,85; 5851,307;  208,932;25943,832;21,92499
 355,45; 5774,531;  182,543;25704,619;21,91040
 356,04; 5786,388;  186,319;25688,609;21,95908
 356,63; 5770,021;  233,160;25533,278;21,88472
 357,22; 5681,735;  202,768;25399,401;21,74484
 357,82; 5638,756;  195,077;25097,329;21,86019
 358,41; 5621,737;  227,468;25158,396;21,63686
 359,00; 5568,953;  173,311;24921,461;21,80220
 359,60; 5498,303;  193,392;24962,439;21,41750
 360,19; 5515,893;  215,935;24788,803;21,56834
 360,78; 5444,128;  199,082;24602,428;21,49314
 361,37; 5413,465;  184,928;24406,737;21,58607
 361,97; 5423,344;  194,621;24367,164;21,63083
 362,56; 5357,143;  192,080;24060,995;21,63929
 363,15; 5329,603;  262,774;23957,851;21,38347
 363,74; 5270,962;  194,309;23645,721;21,64753
 364,34; 5180,917;  205,157;23324,576;21,52199
 364,93; 5071,344;  185,618;22939,109;21,47242
 365,52; 5004,606;  155,313;22602,468;21,60315
 366,11; 4982,652;  191,081;22335,961;21,63738
 366,71; 4877,890;  192,158;22013,384;21,47328
 367,30; 4813,956;  196,544;21647,546;21,52539
 367,89; 4857,117;  228,778;21460,408;21,79926
 368,48; 4767,711;  208,233;21201,799;21,71846
 369,07; 4603,658;  195,623;20829,245;21,36336
 369,67; 4648,070;  234,541;20648,878;21,61975
 370,26; 4553,023;  183,623;20376,785;21,63802
 370,85; 4482,137;  201,544;20121,968;21,48846
 371,44; 4475,686;  207,083;19945,086;21,62632
 372,03; 4407,078;  173,773;19773,307;21,59901
 372,63; 4397,391;  167,698;19517,739;21,85883
 373,22; 4327,195;  185,699;19254,975;21,71816
 373,81; 4269,361;  175,928;18988,468;21,75906
 374,40; 4227,940;  192,933;18787,296;21,70016
 374,99; 4167,029;  191,774;18529,273;21,67828
 375,59; 4178,462;  175,010;18256,718;22,14090
 376,18; 4144,093;  210,928;18162,390;21,91000
 376,77; 4133,156;  222,775;18035,472;21,95277
 377,36; 4130,423;  230,313;17921,314;22,04573
 377,95; 4103,562;  217,158;17660,616;22,28001
 378,55; 4086,604;  194,393;17528,406;22,45418
 379,14; 4103,493;  210,236;17506,891;22,50873
 379,73; 4049,927;  207,619;17369,001;22,38927
 380,32; 4084,736;  204,006;17444,048;22,50998
 380,91; 4050,636;  177,540;17259,454;22,67366
 381,50; 4063,172;  197,157;17212,303;22,72102
 382,10; 4051,274;  181,237;17167,125;22,78384
 382,69; 4064,780;  163,621;17171,775;22,93699
 383,28; 4081,839;  220,619;17107,921;22,86463
 383,87; 4053,440;  191,465;16945,459;23,05107
 384,46; 4026,359;  175,615;16872,676;23,06240
 385,05; 4105,626;  217,541;16895,573;23,31261
 385,64; 4091,114;  190,465;16911,884;23,32726
 386,24; 4088,378;  178,461;16868,829;23,42619
 386,83; 4159,858;  213,692;16846,250;23,72555
 387,42; 4167,632;  197,696;16948,577;23,69986
 388,01; 4245,584;  208,227;17102,084;23,89837
 388,60; 4333,802;  206,000;17268,178;24,19270
 389,19; 4338,430;  187,224;17501,568;23,97553
 389,78; 4411,840;  188,686;17678,726;24,14605
 390,37; 4582,083;  259,460;18122,707;24,19842
 390,96; 4627,021;  200,077;18184,944;24,61483
 391,56; 4671,297;  208,222;18253,601;24,73250
 392,15; 4713,425;  181,302;18501,421;24,73850
 392,74; 4795,471;  164,602;18682,579;25,00742
 393,33; 4877,531;  204,376;18928,329;24,95817
 393,92; 5010,506;  206,523;19316,299;25,13888
 394,51; 5037,712;  175,068;19480,521;25,18793
 395,10; 5188,233;  213,361;19635,383;25,61459
 395,69; 5204,331;  208,978;19766,542;25,54179
 396,28; 5229,742;  203,128;19821,217;25,62234
 396,87; 5335,501;  212,044;19937,458;25,97389
 397,46; 5351,686;  225,194;20023,477;25,89362
 398,06; 5451,081;  220,727;20210,492;26,16516
 398,65; 5458,665;  206,329;20211,051;26,25548
 399,24; 5533,575;  238,327;20402,464;26,26072
 399,83; 5580,170;  189,769;20340,226;26,75076
 400,42; 5696,394;  237,598;20560,997;26,85966
 401,01; 5716,763;  219,655;20641,873;26,91729
 401,60; 5809,491;  224,782;20678,949;27,30353
 402,19; 5772,585;  240,914;20641,510;27,11524
 402,78; 5846,537;  241,497;20613,213;27,51383
 403,37; 5820,827;  229,235;20529,885;27,54391
 403,96; 5851,269;  246,737;20384,918;27,83038
 404,55; 5839,462;  237,850;20347,433;27,85544
 405,14; 5847,859;  216,890;20218,735;28,15225
 405,73; 5816,549;  237,538;20178,585;27,97752
 406,32; 5871,270;  249,278;20154,650;28,24359
 406,91; 5829,602;  231,398;19866,927;28,51058
 407,50; 5850,118;  245,227;19721,621;28,77787
 408,09; 5772,867;  210,677;19460,606;28,89460
 408,68; 5784,803;  232,283;19344,030;29,05292
 409,27; 5755,678;  219,910;19181,040;29,19535
 409,86; 5765,611;  227,321;19099,654;29,34608
 410,45; 5798,360;  273,343;19034,327;29,44951
 411,04; 5795,112;  262,596;18942,772;29,61704
 411,63; 5713,784;  251,164;18759,861;29,51380
 412,22; 5723,727;  260,037;18649,055;29,71170
 412,81; 5692,599;  277,201;18362,441;29,94374
 413,40; 5632,969;  270,828;18048,340;30,16249
 413,99; 5636,731;  333,670;17831,555;30,30686
 414,58; 5478,052;  237,058;17567,988;30,24070
 415,17; 5477,781;  260,278;17373,903;30,48742
 415,76; 5452,750;  240,806;17144,896;30,83244
 416,35; 5410,213;  229,272;16976,996;30,93519
 416,94; 5450,035;  267,116;16937,137;31,09126
 417,53; 5555,478;  242,586;17167,945;31,39013
 418,12; 5592,876;  248,973;17215,533;31,49668
 418,71; 5733,607;  269,367;17548,188;31,62392
 419,30; 5735,001;  249,666;17690,037;31,45194
 419,89; 5826,006;  237,976;17790,546;31,83596
 420,48; 5944,335;  276,367;18010,919;31,96003
 421,07; 5955,242;  261,754;18116,313;31,88815
 421,66; 5965,183;  230,144;18093,606;32,10486
 422,25; 5997,075;  250,693;18142,382;32,11760
 422,84; 6038,794;  283,387;18160,700;32,19391
 423,43; 5980,844;  253,152;17886,718;32,48176
 424,02; 5953,828;  268,000;17737,342;32,54747
 424,60; 5846,215;  239,321;17411,167;32,65167
 425,19; 5772,772;  264,314;17129,792;32,66115
 425,78; 5754,049;  273,007;17028,026;32,71284
 426,37; 5715,845;  270,396;16867,315;32,81000
 426,96; 5742,104;  259,012;16799,931;33,14865
 427,55; 5667,879;  259,250;16661,577;32,97477
 428,14; 5616,338;  243,330;16449,245;33,15461
 428,73; 5609,297;  264,401;16369,411;33,18778
 429,32; 5618,792;  275,626;16320,889;33,30058
 429,91; 5622,396;  284,863;16369,798;33,18343
 430,50; 5620,627;  272,712;16137,160;33,71006
 431,08; 5603,690;  267,255;16017,676;33,88123
 431,67; 5575,304;  317,643;15979,767;33,56927
 432,26; 5598,700;  341,723;15853,204;33,89088
 432,85; 5505,016;  352,568;15592,354;33,80919
 433,44; 5408,128;  359,804;15364,413;33,64515
 434,03; 5342,431;  367,656;14998,865;34,00112
 434,62; 5228,081;  324,958;14610,684;34,32183
 435,21; 5207,803;  332,799;14402,049;34,65006
 435,79; 5125,949;  341,038;14308,624;34,25725
 436,38; 5096,433;  334,276;14228,421;34,27456
 436,97; 5106,235;  333,200;14135,694;34,58096
 437,56; 5050,661;  327,825;13922,198;34,74111
 438,15; 5025,010;  313,361;13861,187;34,77790
 438,74; 5058,142;  328,131;13872,037;34,92354
 439,33; 5068,918;  307,591;13874,993;35,09387
 439,91; 5077,488;  271,365;13906,896;35,24705
 440,50; 5112,385;  326,904;13936,821;35,16173
 441,09; 5150,277;  327,755;14099,999;35,01624
 441,68; 5145,001;  296,684;14044,600;35,26583
 442,27; 5183,002;  277,682;14012,552;35,71435
 442,86; 5112,679;  261,001;14054,835;35,17280
 443,44; 5191,043;  272,076;14048,363;35,70604
 444,03; 5286,212;  369,232;14172,528;35,62178
 444,62; 5175,436;  287,309;14033,720;35,55929
 445,21; 5138,777;  290,769;13903,483;35,61382
 445,80; 5177,633;  328,930;13780,397;36,04591
 446,39; 5110,221;  358,390;13664,584;35,71142
 446,97; 4995,865;  275,398;13414,540;35,92676
 447,56; 4939,415;  272,634;13310,333;35,79451
 448,15; 4922,368;  279,244;13068,578;36,30466
 448,74; 4869,267;  305,475;12892,158;36,25889
 449,33; 4814,038;  285,095;12755,406;36,31781
 449,91; 4773,327;  290,793;12602,550;36,40857
 450,50; 4717,942;  285,023;12393,082;36,61131
 451,09; 4682,786;  298,254;12337,547;36,41851
 451,68; 4620,256;  314,103;12262,290;36,04022
 452,26; 4637,705;  311,106;12157,571;36,52228
 452,85; 4597,122;  297,335;12043,294;36,60652
 453,44; 4584,186;  303,344;12083,332;36,33995
 454,03; 4568,171;  281,954;12007,425;36,55475
 454,61; 4589,133;  280,344;12032,681;36,66325
 455,20; 4678,982;  311,963;12156,194;36,87043
 455,79; 4675,931;  308,881;12106,479;37,01644
 456,38; 4686,205;  322,737;12250,868;36,58132
 456,97; 4702,399;  291,505;12316,516;36,68100
 457,55; 4687,323;  290,739;12304,032;36,59766
 458,14; 4740,449;  327,888;12335,087;36,74929
 458,73; 4715,039;  309,509;12223,457;36,97792
 459,31; 4745,349;  335,053;12280,096;36,92156
 459,90; 4801,431;  350,588;12332,852;37,14525
 460,49; 4883,953;  420,125;12401,730;37,25568
 461,08; 4783,266;  316,209;12437,299;36,85359
 461,66; 4803,663;  313,745;12567,249;36,64191
 462,25; 4859,804;  317,365;12588,117;37,01842
 462,84; 4908,060;  340,287;12620,187;37,19716
 463,43; 4798,278;  285,371;12623,412;36,57718
 464,01; 4853,866;  313,143;12604,885;36,94125
 464,60; 4884,155;  373,600;12571,250;36,97889
 465,19; 4764,162;  292,991;12424,545;36,85572
 465,77; 4770,458;  312,609;12357,058;37,01165
 466,36; 4756,286;  347,064;12289,374;36,92101
 466,95; 4606,101;  305,757;11978,223;36,84178
 467,53; 4566,707;  331,304;11800,226;36,92939
 468,12; 4501,558;  347,998;11551,114;37,07505
 468,71; 4381,816;  317,530;11336,125;36,88570
 469,29; 4319,926;  304,691;11156,963;36,99903
 469,88; 4227,918;  306,155;10905,358;37,00055
 470,47; 4302,415;  369,236;10985,802;37,04756
 471,06; 4266,570;  322,698;10981,688;37,00043
 471,64; 4278,233;  329,081;11044,220;36,85582
 472,23; 4276,632;  306,784;11059,378;36,91991
 472,81; 4292,123;  295,163;11144,820;36,83951
 473,40; 4341,997;  312,630;11217,533;36,95005
 473,99; 4465,396;  436,553;11501,918;36,40949
 474,57; 4414,534;  319,476;11461,339;36,75380
 475,16; 4452,807;  325,088;11615,363;36,55996
 475,75; 4551,380;  357,018;11776,086;36,73121
 476,33; 4552,368;  340,560;11858,873;36,56618
 476,92; 4584,715;  344,708;11859,229;36,82313
 477,51; 4558,316;  348,251;11910,096;36,41343
 478,09; 4590,729;  348,866;11997,173;36,41613
 478,68; 4595,947;  352,252;11893,834;36,76875
 479,27; 4614,836;  380,710;11953,318;36,58748
 479,85; 4549,799;  347,406;11934,602;36,26756
 480,44; 4616,894;  324,716;11975,918;36,83893
 481,02; 4912,186;  349,719;12981,625;36,11860
 481,61; 5511,443;  370,871;14708,811;35,85293
 482,20; 5884,760;  363,258;15763,510;35,85332
 482,78; 6165,757;  382,484;16530,068;35,81510
 483,37; 6299,664;  378,647;17014,725;35,59142
 483,95; 6421,810;  401,418;17232,883;35,76867
 484,54; 6465,342;  398,178;17411,462;35,66133
 485,13; 6409,681;  374,499;17426,056;35,39373
 485,71; 6316,000;  351,113;17141,241;35,52616
 486,30; 6316,567;  390,498;16955,550;35,77453
 486,88; 6248,287;  448,268;16693,670;35,70253
 487,47; 6040,699;  410,500;16195,867;35,66721
 488,05; 5797,801;  395,886;15427,606;35,93677
 488,64; 5409,111;  401,583;14376,701;35,83174
 489,23; 4938,416;  407,118;12963,572;36,08740
 489,81; 4254,304;  407,350;11066,539;36,09049
 490,40; 4004,162;  349,736;10354,466;36,52698
 490,98; 3886,430;  356,045;10124,396;36,14105
 491,57; 3878,342;  376,503;10027,959;36,28301
 492,15; 3831,784;  350,353; 9917,861;36,38806
 492,74; 3806,370;  360,271; 9902,800;36,11305
 493,32; 3779,023;  376,352; 9814,395;36,05271
 493,91; 3754,900;  357,048; 9728,293;36,25828
 494,50; 3704,171;  366,901; 9679,862;35,83468
 495,08; 3681,763;  349,054; 9633,014;35,89750
 495,67; 3699,722;  374,355; 9578,252;36,12999
 496,25; 3611,731;  323,513; 9489,384;35,87458
 496,84; 3607,629;  311,739; 9512,673;35,82125
 497,42; 3573,214;  326,053; 9464,352;35,53354
 498,01; 3621,739;  347,586; 9453,793;35,95518
 498,59; 3529,777;  312,053; 9371,547;35,51770
 499,18; 3495,798;  302,664; 9287,218;35,54026
 499,76; 3534,228;  333,051; 9245,423;35,91834
 500,35; 3415,076;  322,364; 9113,908;35,17826
 500,93; 3427,059;  321,283; 9072,928;35,48791
 501,52; 3382,049;  308,591; 8958,662;35,53101
 502,10; 3385,057;  325,136; 8950,689;35,47507
 502,69; 3297,694;  314,293; 8864,315;34,89349
 503,27; 3250,865;  294,055; 8650,440;35,38384
 503,86; 3250,156;  312,830; 8591,426;35,48097
 504,44; 3202,918;  283,525; 8498,052;35,53940
 505,03; 3106,079;  272,832; 8276,629;35,39878
 505,61; 3087,787;  294,754; 8182,201;35,41110
 506,19; 3020,169;  320,063; 8061,205;34,87994
 506,78; 2959,311;  291,376; 7854,997;35,27325
 507,36; 2919,965;  306,217; 7714,319;35,28229
 507,95; 2865,981;  298,609; 7640,545;34,96860
 508,53; 2796,652;  294,760; 7535,150;34,55466
 509,12; 2789,669;  308,839; 7394,503;35,01196
 509,70; 2755,179;  323,840; 7298,662;34,85880
 510,29; 2727,306;  328,381; 7191,135;34,95571
 510,87; 2628,177;  290,606; 7022,534;34,72363
 511,46; 2581,805;  280,838; 6880,962;34,86248
 512,04; 2540,905;  287,303; 6728,628;34,98662
 512,62; 2512,372;  297,223; 6677,963;34,71618
 513,21; 2461,615;  283,920; 6516,175;34,94233
 513,79; 2408,472;  292,697; 6406,863;34,60447
 514,38; 2376,596;  265,156; 6279,236;35,10828
 514,96; 2351,222;  328,694; 6209,849;34,38999
 515,54; 2268,883;  268,465; 6073,357;34,46090
 516,13; 2256,354;  305,235; 5991,474;34,31300
 516,71; 2208,240;  293,776; 5877,527;34,28634
 517,30; 2185,082;  262,549; 5807,386;34,67250
 517,88; 2191,172;  294,087; 5754,270;34,74398
 518,46; 2115,984;  275,242; 5637,507;34,32770
 519,05; 2129,501;  284,629; 5601,825;34,69633
 519,63; 2109,305;  292,782; 5536,935;34,63903
 520,22; 2073,732;  307,094; 5499,494;34,02353
 520,80; 2057,637;  284,479; 5416,535;34,55063
 521,38; 2084,322;  337,937; 5437,134;34,24823
 521,97; 2024,846;  280,251; 5372,006;34,26313
 522,55; 1996,978;  304,097; 5348,352;33,56058
 523,13; 2000,275;  290,945; 5293,668;34,16800
 523,72; 2022,151;  285,703; 5276,160;34,79536
 524,30; 2079,434;  317,409; 5388,254;34,74816
 524,89; 1988,135;  267,944; 5357,816;33,79635
 525,47; 2053,496;  300,871; 5516,835;33,60116
 526,05; 2024,282;  268,564; 5526,607;33,39110
 526,64; 2100,619;  304,873; 5612,998;33,83014
 527,22; 2128,691;  303,871; 5719,181;33,69742
 527,80; 2203,303;  336,719; 5811,920;34,09161
 528,39; 2152,614;  283,875; 5872,543;33,43801
 528,97; 2203,322;  278,951; 5978,577;33,76311
 529,55; 2243,366;  313,945; 6130,053;33,17376
 530,14; 2308,685;  316,338; 6293,126;33,33474
 530,72; 2298,273;  290,951; 6366,578;33,03894
 531,30; 2309,435;  275,415; 6511,320;32,61789
 531,89; 2371,806;  304,184; 6552,628;33,09019
 532,47; 2422,316;  335,108; 6681,402;32,88861
 533,05; 2408,428;  335,796; 6677,919;32,68042
 533,63; 2375,124;  312,725; 6755,674;32,01018
 534,22; 2387,684;  291,878; 6714,482;32,63171
 534,80; 2425,375;  324,190; 6853,036;32,18311
 535,38; 2543,746;  427,569; 6950,707;32,44109
 535,97; 2418,975;  307,262; 6847,326;32,28886
 536,55; 2447,287;  366,190; 6924,884;31,73036
 537,13; 2430,581;  358,338; 6919,242;31,58472
 537,71; 2468,445;  388,030; 6942,048;31,74260
 538,30; 2485,740;  401,880; 7012,295;31,52390
 538,88; 2511,428;  452,193; 7128,972;30,84174
 539,46; 2597,046;  518,420; 7286,458;30,71238
 540,05; 2638,393;  520,807; 7347,659;31,01848
 540,63; 2691,904;  569,961; 7543,852;30,42697
 541,21; 2749,826;  593,886; 7667,785;30,47739
 541,79; 2797,504;  638,424; 7780,092;30,23214
 542,38; 2865,719;  661,960; 7875,773;30,54916
 542,96; 2858,939;  680,581; 7980,066;29,84263
 543,54; 2913,390;  702,578; 8164,629;29,62740
 544,12; 2913,458;  661,425; 8291,941;29,51351
 544,70; 2941,410;  645,351; 8385,298;29,66505
 545,29; 3004,755;  670,576; 8512,273;29,76625
 545,87; 2992,811;  647,271; 8531,707;29,74900
 546,45; 2954,193;  594,806; 8530,426;29,73161
 547,03; 2958,176;  589,039; 8591,549;29,60492
 547,62; 2939,618;  552,963; 8632,401;29,53986
 548,20; 2986,119;  557,119; 8840,064;29,32531
 548,78; 2970,459;  507,818; 8880,825;29,41167
 549,36; 2991,183;  488,895; 9026,130;29,31028
 549,94; 2973,273;  444,887; 9142,098;29,07123
 550,53; 3050,847;  452,124; 9317,086;29,31454
 551,11; 3041,852;  413,974; 9443,100;29,10445
 551,69; 3103,664;  429,510; 9739,513;28,72345
 552,27; 3150,706;  395,277; 9858,810;29,11628
 552,85; 3202,361;  400,435;10164,715;28,69568
 553,44; 3251,013;  396,664;10360,705;28,64650
 554,02; 3335,964;  410,511;10624,518;28,64158
 554,60; 3344,903;  340,666;10879,871;28,50534
 555,18; 3449,861;  389,202;11148,668;28,44619
 555,76; 3530,125;  364,049;11421,403;28,63321
 556,34; 3605,666;  377,669;11755,460;28,37104
 556,93; 3694,701;  358,356;12065,669;28,49796
 557,51; 3744,401;  337,823;12319,922;28,43056
 558,09; 3800,064;  363,203;12629,092;28,01967
 558,67; 3885,260;  350,287;12942,700;28,07224
 559,25; 3938,350;  380,209;13158,233;27,84579
 559,83; 3989,228;  363,673;13401,977;27,80695
 560,41; 4049,640;  343,207;13674,225;27,80308
 561,00; 4116,889;  364,748;13965,624;27,58750
 561,58; 4147,338;  358,283;14149,608;27,47419
 562,16; 4188,565;  344,820;14381,370;27,38383
 562,74; 4237,908;  341,896;14690,480;27,15259
 563,32; 4287,738;  332,904;15052,900;26,86709
 563,90; 4372,728;  353,210;15327,277;26,84320
 564,48; 4424,691;  361,052;15664,760;26,55330
 565,06; 4575,600;  348,979;16147,122;26,75391
 565,65; 4687,114;  355,676;16690,722;26,51622
 566,23; 4826,834;  403,595;17315,816;26,15410
 566,81; 4933,707;  345,824;17892,079;26,14736
 567,39; 5102,232;  364,366;18582,558;26,00624
 567,97; 5213,346;  374,363;19137,351;25,79005
 568,55; 5394,758;  399,673;19795,822;25,75297
 569,13; 5440,569;  365,595;20353,817;25,38982
 569,71; 5629,537;  338,666;21192,523;25,37119
 570,29; 5836,127;  404,049;22011,707;25,13960
 570,87; 5950,267;  390,281;22564,174;25,07447
 571,45; 6057,203;  378,210;23067,776;25,02909
 572,03; 6090,216;  339,136;23468,330;24,86502
 572,61; 6178,491;  339,365;24101,783;24,57295
 573,20; 6334,920;  360,592;24631,384;24,61530
 573,78; 6421,437;  353,288;25093,400;24,52757
 574,36; 6489,250;  372,903;25566,896;24,27701
 574,94; 6633,968;  451,291;25892,718;24,30161
 575,52; 6607,567;  366,988;26073,775;24,27600
 576,10; 6716,746;  430,601;26511,306;24,10266
 576,68; 6804,502;  420,367;27011,137;24,00884
 577,26; 6942,955;  431,912;27596,784;23,96861
 577,84; 6985,574;  427,903;28050,013;23,74066
 578,42; 7096,010;  493,061;28272,915;23,76884
 579,00; 7011,752;  426,673;28402,900;23,53812
 579,58; 7125,927;  480,675;28528,295;23,69275
 580,16; 7035,587;  439,600;28536,803;23,47560
 580,74; 7068,149;  438,447;28735,573;23,42889
 581,32; 7027,930;  432,138;28727,990;23,31010
 581,90; 7024,090;  465,831;28727,533;23,20546
 582,48; 7014,517;  446,754;28789,380;23,17274
 583,06; 7023,208;  460,983;28904,719;23,07089
 583,64; 7008,877;  463,291;28896,794;23,02068
 584,22; 6923,509;  453,219;28848,125;22,78680
 584,80; 6930,899;  465,677;28643,531;22,94434
 585,38; 6823,987;  483,977;28189,805;22,88331
 585,96; 6754,175;  445,289;28262,787;22,67956
 586,54; 6727,742;  463,218;28201,276;22,58458
 587,12; 6656,663;  431,986;28306,538;22,33104
 587,70; 6767,352;  461,905;28397,943;22,57102
 588,28; 6658,481;  437,986;28413,307;22,23565
 588,86; 6698,206;  449,833;28510,119;22,26768
 589,44; 6649,016;  417,222;28561,562;22,14226
 590,02; 6643,820;  424,144;28762,210;21,94813
 590,59; 6675,553;  407,911;28738,852;22,12296
 591,17; 6721,287;  420,381;28948,390;22,08674
 591,75; 6678,844;  401,070;28960,993;21,98106
 592,33; 6679,851;  438,761;29278,410;21,64066
 592,91; 6668,336;  372,072;29389,885;21,69793
 593,49; 6724,978;  384,074;29615,740;21,69190
 594,07; 6768,327;  403,151;29880,086;21,59375
 594,65; 6709,017;  418,834;29820,624;21,39388
 595,23; 6738,924;  412,605;30113,248;21,30028
 595,81; 6746,175;  391,607;30218,176;21,30506
 596,39; 6733,569;  389,299;30360,793;21,16768
 596,97; 6709,707;  397,072;30557,269;20,93035
 597,55; 6701,576;  390,681;30399,859;21,02988
 598,12; 6668,768;  362,691;30422,591;20,97837
 598,70; 6646,803;  360,073;30555,773;20,81995
 599,28; 6716,362;  379,842;30678,273;20,91369
 599,86; 6649,500;  383,688;30722,849;20,65256
 600,44; 6575,934;  349,074;30806,315;20,44460
 601,02; 6635,357;  406,310;30836,916;20,46968
 601,60; 6583,649;  378,301;30796,416;20,40017
 602,18; 6574,067;  345,459;30779,590;20,46586
 602,75; 6522,460;  345,837;30865,636;20,23809
 603,33; 6493,146;  374,380;30873,889;20,06185
 603,91; 6484,156;  350,846;30885,369;20,08648
 604,49; 6478,364;  387,535;30881,390;19,97396
 605,07; 6430,662;  390,532;30994,608;19,73636
 605,65; 6450,545;  391,536;31052,279;19,76146
 606,23; 6478,703;  453,756;31160,773;19,62075
 606,80; 6441,215;  501,452;31216,713;19,33815
 607,38; 6408,334;  542,615;31197,250;19,13485
 607,96; 6408,795;  601,914;31345,905;18,88786
 608,54; 6443,762;  654,151;31378,740;18,84357
 609,12; 6415,006;  655,683;31435,059;18,71163
 609,70; 6378,443;  685,534;31411,463;18,52803
 610,27; 6385,743;  690,144;31498,749;18,48704
 610,85; 6361,449;  724,303;31566,539;18,27736
 611,43; 6329,103;  715,303;31444,196;18,26880
 612,01; 6278,673;  687,608;31433,067;18,18501
 612,59; 6239,821;  682,995;31332,348;18,13032
 613,16; 6116,523;  633,758;31300,741;17,87840
 613,74; 6143,013;  618,150;31201,927;18,06469
 614,32; 6042,896;  581,997;31156,741;17,86082
 614,90; 6030,743;  545,455;31048,957;17,98249
 615,48; 5880,429;  489,835;30851,821;17,75442
 616,05; 5843,982;  463,603;30803,662;17,73358
 616,63; 5805,841;  471,371;30677,425;17,66027
 617,21; 5771,198;  450,759;30568,403;17,66552
 617,79; 5739,828;  443,838;30588,485;17,56859
 618,36; 5701,186;  452,070;30408,377;17,52257
 618,94; 5561,628;  378,836;30145,323;17,41150
 619,52; 5510,991;  409,526;29994,081;17,24368
 620,10; 5498,195;  395,837;29947,944;17,26563
 620,67; 5465,401;  387,371;29842,233;17,24004
 621,25; 5459,180;  426,070;29745,916;17,16622
 621,83; 5382,558;  386,913;29690,669;17,04780
 622,41; 5407,640;  455,759;29726,591;16,91746
 622,98; 5306,190;  410,294;29382,386;16,89866
 623,56; 5288,949;  415,217;29483,345;16,76659
 624,14; 5232,467;  401,148;29283,806;16,72740
 624,72; 5156,991;  383,759;29263,515;16,52795
 625,29; 5135,125;  380,832;29333,230;16,42107
 625,87; 5183,996;  432,299;29264,793;16,48035
 626,45; 5067,966;  370,370;29152,342;16,32131
 627,02; 5038,704;  383,915;29046,679;16,23985
 627,60; 5011,745;  366,458;29045,507;16,19749
 628,18; 4980,083;  351,991;29089,675;16,10461
 628,76; 4959,675;  350,679;29139,542;16,00965
 629,33; 4940,468;  397,604;29056,934;15,85126
 629,91; 4929,349;  374,145;29023,175;15,90003
 630,49; 4933,484;  391,603;29225,084;15,75211
 631,06; 4936,474;  367,910;29224,120;15,83217
 631,64; 4913,297;  372,678;29211,113;15,74503
 632,22; 4833,245;  335,830;29152,413;15,60704
 632,79; 4891,035;  366,522;29366,452;15,60181
 633,37; 4840,947;  337,608;29387,606;15,50203
 633,95; 4835,378;  350,677;29426,765;15,42402
 634,52; 4829,186;  343,682;29646,937;15,30719
 635,10; 4815,297;  350,067;29565,404;15,28386
 635,68; 4781,021;  338,830;29761,836;15,09768
 636,25; 4787,642;  323,981;29705,248;15,19220
 636,83; 4754,521;  326,295;29912,080;14,96741
 637,41; 4772,961;  332,675;29828,910;15,05374
 637,98; 4808,029;  369,752;30037,063;14,96016
 638,56; 4746,616;  343,903;30170,244;14,76116
 639,13; 4723,742;  313,371;30144,270;14,78457
 639,71; 4813,817;  407,680;30305,928;14,73711
 640,29; 4662,746;  292,757;30073,417;14,67392
 640,86; 4702,479;  320,526;30333,564;14,60017
 641,44; 4664,213;  324,603;30277,866;14,48794
 642,02; 4679,485;  350,834;30228,706;14,48782
 642,59; 4641,681;  318,757;30405,468;14,36822
 643,17; 4623,568;  314,142;30435,231;14,30701
 643,74; 4615,533;  311,373;30417,994;14,29639
 644,32; 4606,575;  351,296;30401,988;14,16033
 644,89; 4549,078;  344,988;30386,520;13,99426
 645,47; 4591,119;  355,681;30405,052;14,09493
 646,05; 4575,314;  345,835;30394,892;14,07525
 646,62; 4487,741;  328,066;30275,962;13,88971
 647,20; 4509,474;  328,527;30494,802;13,85967
 647,77; 4415,362;  306,912;30418,719;13,64398
 648,35; 4414,557;  307,066;30305,712;13,69225
 648,92; 4421,599;  321,066;30254,168;13,69899
 649,50; 4336,948;  289,605;30278,930;13,49595
 650,08; 4340,836;  294,451;30135,001;13,56002
 650,65; 4343,877;  298,836;30321,841;13,47314
 651,23; 4375,226;  278,990;30809,373;13,41692
 651,80; 4448,960;  289,144;31718,213;13,23557
 652,38; 4513,617;  305,452;32069,668;13,24813
 652,95; 4512,043;  277,760;32456,431;13,15866
 653,53; 4538,854;  294,683;32679,040;13,10562
 654,10; 4569,895;  349,529;32812,418;13,00059
 654,68; 4502,706;  282,683;32669,335;13,03013
 655,25; 4456,286;  290,529;32728,790;12,84211
 655,83; 4455,097;  294,453;32816,630;12,79325
 656,40; 4481,061;  324,222;32820,469;12,79175
 656,98; 4428,257;  291,453;32834,232;12,71189
 657,55; 4387,068;  300,684;32723,995;12,60323
 658,13; 4372,571;  293,223;32366,143;12,71898
 658,70; 4326,381;  300,377;32158,367;12,63735
 659,28; 4204,807;  296,607;31474,361;12,53522
 659,85; 4102,849;  328,531;30820,585;12,37804
 660,43; 4123,660;  322,146;30682,117;12,52147
 661,00; 4052,163;  294,531;30825,957;12,30742
 661,58; 4084,589;  302,685;31013,335;12,31463
 662,15; 4066,553;  286,377;31192,098;12,23131
 662,73; 4147,595;  379,070;31424,015;12,13893
 663,30; 4102,252;  313,608;31621,701;12,10116
 663,88; 4128,447;  320,301;31646,540;12,15641
 664,45; 4087,258;  305,916;31939,842;11,95344
 665,03; 4101,069;  311,840;32257,758;11,86139
 665,60; 4228,341;  399,224;32606,598;11,88894
 666,17; 4138,075;  296,455;32631,207;11,88078
 666,75; 4148,039;  300,994;32926,739;11,79144
 667,32; 4203,542;  307,379;33298,194;11,80984
 667,90; 4162,507;  300,456;33444,803;11,65222
 668,47; 4180,471;  322,456;33657,797;11,57335
 669,05; 4178,590;  300,456;33942,791;11,52754
 669,62; 4163,785;  275,225;33967,169;11,54151
 670,19; 4186,596;  275,302;34069,778;11,57377
 670,77; 4186,945;  302,226;34231,233;11,44955
 671,34; 4141,602;  283,841;34088,534;11,41191
 671,92; 4216,182;  296,687;34483,913;11,46479
 672,49; 4208,300;  314,072;34460,368;11,40454
 673,06; 4136,727;  259,611;34466,515;11,33431
 673,64; 4154,076;  279,303;34473,509;11,33166
 674,21; 4137,271;  266,150;34427,349;11,33192
 674,79; 4173,389;  309,304;34672,035;11,24499
 675,36; 4131,354;  307,765;34711,567;11,11386
 675,93; 4105,934;  271,227;34592,407;11,17300
 676,51; 4163,283;  304,842;34809,169;11,18248
 677,08; 4131,555;  300,689;34850,932;11,08781
 677,65; 4137,982;  298,843;34861,234;11,10785
 678,23; 4141,562;  294,151;35089,458;11,05727
 678,80; 4118,526;  283,458;35136,375;11,00358
 679,38; 4128,875;  303,459;35252,830;10,94560
 679,95; 4149,763;  311,382;35525,054;10,90026
 680,52; 4122,112;  295,997;35772,356;10,78497
 681,10; 4161,846;  312,228;36171,888;10,73523
 681,67; 4135,580;  308,459;36259,035;10,64551
 682,24; 4138,775;  272,767;36386,260;10,70516
 682,82; 4180,432;  276,229;36745,792;10,70537
 683,39; 4254,397;  342,536;37066,016;10,65220
 683,96; 4240,669;  295,998;37278,856;10,66621
 684,54; 4240,633;  273,691;37639,850;10,61641
 685,11; 4288,906;  337,537;37925,074;10,51244
 685,68; 4269,178;  282,537;38169,837;10,52237
 686,25; 4251,220;  258,768;38295,369;10,49634
 686,83; 4279,415;  282,845;38387,593;10,48838
 687,40; 4284,841;  258,922;38711,741;10,46976
 687,97; 4355,652;  335,384;39111,427;10,36792
 688,55; 4272,616;  267,384;39122,190;10,30820
 689,12; 4285,581;  243,384;39254,952;10,36153
 689,69; 4291,776;  260,615;39285,254;10,32978
 690,26; 4318,895;  285,923;39464,632;10,29378
 690,84; 4289,321;  289,923;39549,241;10,18713
 691,41; 4327,285;  308,615;39679,081;10,20732
 691,98; 4369,250;  295,385;40035,767;10,25120
 692,56; 4376,138;  280,923;39923,683;10,33030
 693,13; 4388,948;  336,385;40073,985;10,19831
 693,70; 4366,067;  306,154;40198,978;10,17705
 694,27; 4351,416;  274,924;40273,972;10,19147
 694,84; 4353,381;  275,386;40409,196;10,16100
 695,42; 4525,960;  418,309;40562,498;10,23224
 695,99; 4393,771;  295,001;40668,261;10,15219
 696,56; 4367,659;  292,155;40425,177;10,15499
 697,13; 4408,316;  296,078;40928,094;10,12068
 697,71; 4396,050;  295,925;40919,011;10,09309
 698,28; 4384,553;  291,156;41056,697;10,04132
 698,85; 4385,594;  258,925;41095,767;10,10526
 699,42; 4383,405;  254,694;41349,915;10,04669
 699,99; 4431,062;  299,156;41336,447;10,06866
 700,57; 4432,949;  304,618;41415,440;10,04196
 701,14; 4440,837;  281,926;41550,203;10,07774
 701,71; 4440,725;  300,156;41730,889; 9,99395
 702,28; 4464,920;  292,772;41843,883;10,04100
 702,85; 4462,654;  292,234;41842,876;10,03696
 703,43; 4484,003;  318,849;42044,947; 9,98213
 704,00; 4487,352;  316,003;42261,787; 9,94462
 704,57; 4455,163;  302,080;42225,319; 9,90640
 705,14; 4525,666;  327,927;42461,928; 9,96283
 705,71; 4493,477;  331,773;42584,152; 9,84963
 706,28; 4453,287;  305,235;42407,146; 9,85241
 706,86; 4541,791;  338,927;42609,524; 9,94276
 707,43; 4561,601;  374,696;42608,672; 9,91359
 708,00; 4515,720;  331,696;42597,050; 9,89942
 708,57; 4486,838;  303,927;42547,890; 9,90180
 709,14; 4502,649;  338,004;42677,652; 9,83628
 709,71; 4546,152;  309,928;42723,492; 9,98790
 710,28; 4517,809;  310,928;42956,101; 9,86485
 710,86; 4525,696;  318,543;43044,941; 9,84673
 711,43; 4564,584;  345,620;43032,704; 9,88347
 712,00; 4586,549;  314,621;43090,159; 9,98685
 712,57; 4593,590;  327,544;43237,537; 9,94185
 713,14; 4552,632;  312,005;43336,454; 9,85632
 713,71; 4578,596;  324,159;43246,371; 9,91197
 714,28; 4560,715;  313,160;43236,134; 9,89576
 714,85; 4514,602;  288,006;43089,127; 9,87497
 715,42; 4539,875;  290,468;43212,505; 9,90029
 716,00; 4653,685;  379,929;43356,730; 9,94433
 716,57; 4573,188;  299,237;43522,647; 9,88805
 717,14; 4538,999;  282,468;43316,486; 9,89108
 717,71; 4583,271;  267,084;43472,172; 9,99000
 718,28; 4655,313;  330,391;43603,320; 9,99452
 718,85; 4580,893;  263,007;43541,621; 9,97695
 719,42; 4609,550;  295,930;43593,461; 9,96274
 719,99; 4578,207;  267,853;43414,147; 9,99009
 720,56; 4632,248;  303,238;43777,140; 9,95772
 721,13; 4625,828;  272,392;43855,211; 9,98888
 721,70; 4601,562;  264,546;43612,358;10,00515
 722,27; 4631,603;  298,700;43730,814; 9,97627
 722,84; 4728,953;  353,162;43911,577;10,04580
 723,41; 4654,148;  265,470;43891,032;10,05988
 723,98; 4669,112;  269,085;43995,487;10,06263
 724,55; 4706,692;  314,778;44173,942;10,01368
 725,12; 4667,426;  237,008;44037,474;10,11500
 725,69; 4715,929;  271,316;44181,468;10,12206
 726,27; 4720,125;  272,624;44316,308;10,09793
 726,84; 4746,166;  278,240;44467,840;10,11081
 727,41; 4789,977;  310,471;44551,833;10,12515
 727,98; 4815,326;  301,855;44802,596;10,14246
 728,55; 4830,291;  324,317;44755,128;10,14155
 729,12; 4800,871;  274,471;44790,891;10,16793
 729,69; 4857,758;  302,471;44922,500;10,20906
 730,26; 4829,338;  302,241;45143,724;10,09578
 730,82; 4836,995;  302,856;45098,103;10,12192
 731,39; 4858,652;  297,933;45088,019;10,18243
 731,96; 4898,309;  269,010;45360,090;10,26655
 732,53; 4897,427;  294,087;45507,699;10,18131
 733,10; 4915,469;  311,010;45678,770;10,14919
 733,67; 4941,664;  303,395;45739,840;10,20826
 734,24; 4922,936;  296,549;45466,218;10,24224
 734,81; 4946,670;  321,626;45622,827;10,20954
 735,38; 4969,250;  295,857;45525,744;10,33253
 735,95; 4972,138;  309,550;45320,276;10,35884
 736,52; 4956,333;  311,934;45478,501;10,28282
 737,09; 4966,759;  314,242;45200,725;10,36507
 737,66; 5017,878;  364,781;45480,103;10,31378
 738,23; 5022,688;  304,089;45489,405;10,44277
 738,80; 5143,038;  388,781;45834,783;10,46133
 739,37; 5112,233;  331,550;45843,315;10,50428
 739,94; 5047,582;  309,781;45876,616;10,39748
 740,51; 5211,085;  467,089;46032,610;10,41137
 741,07; 5093,281;  304,705;46013,988;10,47616
 741,64; 5115,476;  343,090;46088,443;10,43251
 742,21; 5180,594;  314,782;46098,437;10,62784
 742,78; 5115,097;  276,244;45969,200;10,58993
 743,35; 5149,600;  313,782;46198,963;10,53895
 743,92; 5219,796;  362,398;46355,341;10,56118
 744,49; 5238,991;  352,783;46251,334;10,64567
 745,06; 5203,417;  313,706;46256,482;10,64305
 745,63; 5186,459;  292,321;46212,937;10,65782
 746,19; 5192,270;  310,860;46279,700;10,61895
 746,76; 5245,696;  322,014;46202,540;10,73153
 747,33; 5250,968;  318,014;46311,072;10,72543
 747,90; 5303,086;  330,783;46478,065;10,77486
 748,47; 5309,051;  318,399;46369,367;10,83724
 749,04; 5346,939;  317,553;46429,822;10,90683
 749,61; 5368,211;  359,322;46430,123;10,87215
 750,17; 5387,252;  329,246;46419,040;10,97424
 750,74; 5411,448;  333,246;46394,187;11,02496
 751,31; 5380,797;  310,246;46338,335;11,01621
 751,88; 5385,838;  300,015;46223,559;11,07454
 752,45; 5449,034;  306,169;46379,168;11,16243
 753,02; 5456,691;  339,092;46202,623;11,15832
 753,58; 5384,194;  295,477;46049,848;11,12182
 754,15; 5416,927;  308,093;46249,380;11,12036
 754,72; 5404,892;  301,708;46024,835;11,16106
 755,29; 5418,472;  282,631;45829,060;11,27606
 755,86; 5456,360;  315,478;45989,361;11,25563
 756,42; 5481,478;  311,016;45922,278;11,33593
 756,99; 5426,673;  260,247;45845,271;11,33360
 757,56; 5444,176;  280,094;45842,726;11,33403
 758,13; 5426,141;  229,940;45746,258;11,41613
 758,70; 5491,259;  266,094;45813,406;11,47195
 759,26; 5493,993;  251,248;45909,323;11,48262
 759,83; 5532,573;  253,863;45917,470;11,55999
 760,40; 5528,769;  230,556;45844,541;11,61533
 760,97; 5529,964;  225,633;45946,611;11,60153
 761,53; 5533,698;  217,556;45538,297;11,73004
 762,10; 5531,047;  217,633;45633,829;11,69938
 762,67; 5570,012;  255,479;45480,900;11,75121
 763,24; 5515,591;  211,556;45142,740;11,80480
 763,80; 5604,325;  252,480;45303,426;11,87954
 764,37; 5587,751;  255,711;45338,419;11,82724
 764,94; 5566,331;  240,634;44805,413;11,95046
 765,50; 5588,988;  250,249;44845,868;11,97144
 766,07; 5627,030;  284,865;44927,939;11,96639
 766,64; 5631,071;  269,019;44698,548;12,06867
 767,21; 5628,959;  271,711;44582,926;12,09005
 767,77; 5622,770;  280,250;44542,304;12,07020
 768,34; 5671,350;  286,635;44448,682;12,19308
 768,91; 5679,776;  309,635;44302,984;12,20671
 769,47; 5690,202;  292,712;44390,746;12,23975
 770,04; 5653,397;  292,789;44253,663;12,19404
 770,61; 5644,900;  268,943;43964,349;12,30326
 771,18; 5673,634;  284,635;43998,112;12,32800
 771,74; 5716,752;  284,712;44062,490;12,40821
 772,31; 5732,948;  293,174;43868,561;12,48359
 772,88; 5708,066;  256,636;43699,785;12,54842
 773,44; 5685,800;  273,790;43574,317;12,49872
 774,01; 5735,303;  285,252;43676,695;12,56020
 774,58; 5722,806;  256,329;43413,381;12,66648
 775,14; 5707,540;  276,175;43453,375;12,57924
 775,71; 5698,197;  260,175;43417,446;12,60048
 776,27; 5805,931;  335,637;43282,978;12,73721
 776,84; 5850,588;  390,406;43421,894;12,68880
 777,41; 5771,321;  286,945;43214,965;12,77575
 777,97; 5767,440;  275,329;42939,420;12,87291
 778,54; 5786,097;  297,330;42996,260;12,85458
 779,11; 5841,600;  315,022;42979,946;12,95345
 779,67; 5851,641;  285,330;42977,324;13,03830
 780,24; 5823,913;  286,792;42792,087;13,02690
 780,80; 5887,724;  304,715;42735,465;13,15793
 781,37; 5872,304;  305,484;42748,228;13,11607
 781,94; 5889,115;  294,946;42466,222;13,26535
 782,50; 5883,926;  296,484;42478,831;13,24592
 783,07; 5921,198;  328,715;42588,055;13,23372
 783,63; 5883,239;  283,485;42370,895;13,30506
 784,20; 5953,204;  319,023;42269,658;13,43050
 784,77; 5939,476;  291,177;42054,805;13,52445
 785,33; 5906,056;  264,024;42003,260;13,51734
 785,90; 5962,559;  278,024;41958,408;13,63840
 786,46; 5937,601;  306,101;41880,325;13,54565
 787,03; 5939,719;  275,870;41802,472;13,63909
 787,59; 5965,530;  277,640;41700,927;13,73114
 788,16; 5998,110;  288,178;41620,844;13,81457
 788,73; 5991,305;  283,794;41597,453;13,81507
 789,29; 5953,731;  277,794;41260,908;13,84945
 789,86; 6029,850;  311,563;41199,056;13,98542
 790,42; 5968,122;  290,333;40958,818;13,96115
 790,99; 6012,625;  285,871;40754,966;14,15093
 791,55; 5972,667;  280,102;40746,421;14,06741
 792,12; 6081,554;  322,641;40708,645;14,25968
 792,68; 6004,442;  296,564;40461,408;14,21113
 793,25; 6002,330;  298,487;40209,171;14,29152
 793,81; 6078,756;  390,333;39938,011;14,38371
 794,38; 5912,874;  256,795;39787,620;14,30802
 794,94; 5949,300;  278,103;39647,383;14,40513
 795,51; 6013,726;  296,334;39460,069;14,59869
 796,07; 5929,922;  291,488;39260,832;14,46890
 796,64; 5985,732;  294,257;39409,210;14,55064
 797,20; 5980,928;  309,104;38950,588;14,67807
 797,77; 5936,892;  258,565;38631,659;14,79768
 798,33; 5918,703;  283,335;38575,345;14,71683
 798,90; 5942,898;  303,565;38519,877;14,75635
 799,46; 5859,248;  270,489;38056,409;14,79059
 800,03; 5909,828;  295,181;38048,556;14,87191
 800,59; 5897,100;  294,412;37944,165;14,88107
 801,15; 5933,141;  309,181;37662,851;15,05598
 801,72; 5830,721;  284,182;37398,383;14,94452
 802,28; 5889,840;  303,874;37212,685;15,13450
 802,85; 5796,650;  285,797;36984,986;15,01628
 803,41; 5847,846;  273,028;36836,980;15,24676
 803,98; 5815,810;  292,259;36430,973;15,28430
 804,54; 5741,083;  272,028;36340,582;15,16294
 805,11; 5772,740;  294,875;36156,345;15,27507
 805,67; 5805,089;  329,644;36007,339;15,34697
 806,23; 5721,899;  295,567;35717,871;15,31897
 806,80; 5750,556;  318,721;35601,403;15,39519
 807,36; 5784,213;  302,106;35624,089;15,52038
 807,93; 5755,947;  318,952;35394,313;15,50089
 808,49; 5713,758;  272,722;35077,230;15,63314
 809,05; 5645,030;  258,030;34892,993;15,55365
 809,62; 5696,918;  279,107;34816,679;15,68672
 810,18; 5699,959;  284,799;34789,826;15,69383
 810,74; 5661,847;  249,876;34568,589;15,76974
 811,31; 5646,427;  258,492;34472,121;15,74792
 811,87; 5659,468;  286,723;34216,269;15,83501
 812,44; 5725,356;  313,877;34357,416;15,89576
 813,00; 5612,474;  219,954;34017,641;15,95530
 813,56; 5664,824;  282,569;34080,173;15,92496
 814,13; 5658,788;  276,108;34023,166;15,95007
 814,69; 5636,060;  265,493;33879,160;15,97733
 815,25; 5594,256;  239,262;33471,154;16,11402
 815,82; 5640,067;  286,108;33500,147;16,11956
 816,38; 5667,416;  318,262;33346,372;16,19576
 816,94; 5602,380;  259,185;33033,134;16,30318
 817,51; 5547,345;  242,186;32749,128;16,32008
 818,07; 5558,079;  240,340;32706,814;16,37917
 818,63; 5546,274;  270,032;32416,269;16,41325
 819,20; 5568,392;  269,724;32452,263;16,46442
 819,76; 5511,895;  249,109;32109,564;16,51824
 820,32; 5563,475;  288,494;32075,173;16,59494
 820,89; 5508,517;  267,110;31837,859;16,60210
 821,45; 5538,635;  252,417;31549,007;16,89072
 822,01; 5561,446;  268,187;31403,616;17,00076
 822,57; 5517,180;  286,110;31264,225;16,88634
 823,14; 5478,452;  233,879;31097,295;16,99285
 823,70; 5504,263;  260,803;30937,212;17,09281
 824,26; 5499,997;  239,187;30755,975;17,23907
 824,82; 5512,038;  282,187;30647,661;17,22302
 825,39; 5456,772;  259,803;30400,577;17,24232
 825,95; 5477,044;  267,572;30414,263;17,28041
 826,51; 5483,317;  272,265;30120,488;17,45850
 827,08; 5541,204;  308,188;30146,327;17,53801
 827,64; 5487,553;  275,957;29959,552;17,55716
 828,20; 5469,441;  247,111;29785,007;17,68010
 828,76; 5495,098;  286,035;29812,385;17,64208
 829,32; 5521,755;  299,189;29650,456;17,79332
 829,89; 5466,950;  243,496;29518,142;17,84293
 830,45; 5482,530;  268,727;29463,674;17,85858
 831,01; 5487,033;  265,958;29353,052;17,94980
 831,57; 5500,536;  256,035;29269,430;18,07614
 832,14; 5486,270;  259,112;29244,193;18,03396
 832,70; 5472,927;  242,959;28954,418;18,21561
 833,26; 5492,507;  221,728;28888,565;18,38633
 833,82; 5520,702;  259,959;28903,713;18,36611
 834,38; 5541,667;  248,651;28807,091;18,53398
 834,95; 5509,631;  248,267;28727,392;18,47446
 835,51; 5484,673;  216,421;28604,463;18,55800
 836,07; 5556,945;  253,883;28714,764;18,63281
 836,63; 5589,910;  278,344;28682,527;18,69994
 837,19; 5573,797;  266,498;28549,982;18,76466
 837,75; 5562,147;  217,960;28266,437;19,05339
 838,32; 5641,188;  278,575;28343,585;19,10782
 838,88; 5636,537;  281,191;28406,809;19,04081
 839,44; 5676,194;  263,499;28302,880;19,30390
 840,00; 5673,390;  263,807;28280,642;19,30833
 840,56; 5605,046;  242,115;28033,021;19,29743
 841,12; 5616,396;  243,115;27914,476;19,41820
 841,68; 5583,976;  220,192;27790,469;19,45495
 842,25; 5620,709;  247,807;27896,155;19,43300
 842,81; 5605,597;  230,423;27616,688;19,62726
 843,37; 5603,792;  236,654;27647,758;19,58016
 843,93; 5627,834;  249,038;27594,059;19,67011
 844,49; 5660,337;  264,731;27645,822;19,70559
 845,05; 5617,763;  218,269;27405,047;19,86073
 845,61; 5700,651;  264,654;27456,886;19,99099
 846,17; 5640,692;  245,962;27339,342;19,91162
 846,73; 5692,426;  252,193;27315,028;20,10223
 847,29; 5659,006;  232,116;27138,637;20,16942
 847,86; 5691,124;  235,270;27111,861;20,29965
 848,42; 5658,627;  243,886;26990,393;20,24467
 848,98; 5703,207;  254,578;26910,387;20,44068
 849,54; 5719,018;  247,501;26995,765;20,45560
 850,10; 5738,214;  260,578;26909,682;20,55467
 850,66; 5684,486;  223,656;26666,829;20,65119
 851,22; 5677,835;  221,348;26607,592;20,67929
 851,78; 5747,800;  292,348;26678,355;20,67555
 852,34; 5680,764;  261,887;26529,195;20,62974
 852,90; 5673,575;  240,502;26495,034;20,69385
 853,46; 5643,616;  233,041;26244,028;20,80112
 854,02; 5694,350;  256,272;26301,252;20,87956
 854,58; 5658,392;  253,580;26099,554;20,91162
 855,14; 5689,510;  248,887;26025,470;21,10684
 855,70; 5648,475;  211,426;25916,464;21,15168
 856,26; 5679,362;  251,888;25867,150;21,18844
 856,82; 5669,788;  239,888;25749,374;21,28581
 857,38; 5705,368;  288,273;25675,906;21,33754
 857,94; 5699,948;  242,119;25611,362;21,51357
 858,50; 5681,067;  284,042;25480,586;21,41970
 859,06; 5638,493;  240,581;25218,503;21,61073
 859,62; 5684,996;  268,889;25298,035;21,63920
 860,18; 5669,268;  249,196;25060,721;21,84498
 860,74; 5613,387;  214,812;25002,714;21,77907
 861,30; 5632,659;  226,351;24816,708;21,98548
 861,86; 5704,700;  327,197;24890,625;21,89232
 862,42; 5601,665;  238,274;24682,695;21,94117
 862,98; 5696,014;  277,428;24688,997;22,19680
 863,54; 5648,363;  246,505;24474,760;22,29570
 864,10; 5653,328;  236,736;24526,907;22,29952
 864,66; 5642,062;  219,198;24366,362;22,45756
 865,22; 5669,411;  246,275;24190,125;22,64939
 865,78; 5625,222;  242,121;24193,811;22,47483
 866,34; 5613,494;  228,429;24092,112;22,56594
 866,90; 5644,766;  254,967;23978,798;22,71892
 867,45; 5641,115;  251,737;23773,330;22,91247
 868,01; 5592,157;  251,814;23686,862;22,78785
 868,57; 5570,583;  246,506;23600,087;22,79769
 869,13; 5555,932;  211,506;23485,080;22,96349
 869,69; 5578,589;  236,583;23371,305;23,09086
 870,25; 5561,400;  221,507;23242,145;23,19611
 870,81; 5560,134;  240,199;23242,754;23,12758
 871,37; 5604,944;  261,738;23147,440;23,34736
 871,93; 5578,909;  259,738;23046,818;23,34293
 872,49; 5591,950;  292,430;22873,273;23,46910
 873,04; 5552,377;  225,969;22713,420;23,68613
 873,60; 5528,726;  230,123;22635,029;23,64930
 874,16; 5515,306;  244,200;22568,177;23,61186
 874,72; 5529,844;  246,277;22491,946;23,75099
 875,28; 5519,537;  237,585;22428,408;23,80242
 875,84; 5545,537;  247,354;22390,869;23,92657
 876,40; 5510,460;  232,046;22352,946;23,86166
 876,95; 5546,844;  256,738;22299,792;23,99897
 877,51; 5584,460;  270,277;22322,254;24,09844
 878,07; 5614,075;  280,969;22311,331;24,20798
 878,63; 5575,306;  243,123;22296,177;24,17889
 879,19; 5593,844;  265,200;22358,331;24,11901
 879,75; 5611,152;  237,200;22321,638;24,33366
 880,30; 5611,306;  231,738;22373,638;24,29587
 880,86; 5700,306;  286,046;22521,562;24,34960
 881,42; 5652,998;  219,200;22510,946;24,37583
 881,98; 5693,998;  247,277;22569,638;24,40029
 882,54; 5745,767;  239,662;22638,485;24,58212
 883,09; 5786,998;  261,354;22714,408;24,60977
 883,65; 5764,229;  236,585;22761,638;24,53998
 884,21; 5889,383;  271,508;22960,177;24,76071
 884,77; 5822,921;  230,123;22999,715;24,56257
 885,32; 5848,844;  246,738;23011,638;24,60852
 885,88; 5954,306;  290,585;23216,792;24,70413
 886,44; 5937,537;  244,431;23296,715;24,69649
 887,00; 5959,075;  266,046;23317,638;24,69690
 887,56; 5981,229;  242,585;23393,946;24,78750
 888,11; 6035,613;  258,277;23412,254;24,95181
 888,67; 6073,844;  270,738;23560,715;24,91675
 889,23; 6066,075;  243,969;23537,869;24,99412
 889,79; 6030,306;  230,815;23478,177;24,94688
 890,34; 6089,152;  262,046;23438,869;25,14195
 890,90; 6207,075;  331,815;23556,100;25,29791
 891,46; 6129,537;  233,277;23515,331;25,32534
 892,01; 6152,613;  255,200;23481,408;25,39120
 892,57; 6163,844;  284,200;23462,100;25,36746
 893,13; 6142,306;  243,046;23253,715;25,63706
 893,69; 6121,998;  227,738;23210,254;25,64671
 894,24; 6095,613;  243,585;23140,023;25,55869
 894,80; 6087,306;  243,200;23016,946;25,66159
 895,36; 6075,383;  246,354;22917,177;25,71159
 895,91; 6072,844;  240,277;22825,408;25,82481
 896,47; 6086,075;  261,892;22719,100;25,93458
 897,03; 6059,152;  233,892;22567,638;26,08277
 897,58; 6050,152;  247,892;22400,946;26,19169
 898,14; 6071,075;  247,738;22242,792;26,47566
 898,70; 6017,229;  209,585;22143,177;26,47831
 899,25; 6050,075;  245,354;22181,715;26,46164
 899,81; 6041,229;  250,662;22036,408;26,57961
 900,37; 5984,690;  216,662;21764,946;26,76793
 900,92; 6049,998;  242,277;21832,023;26,90037
 901,48; 6002,075;  230,046;21694,254;26,89141
 902,03; 5988,383;  228,277;21513,023;27,06213
 902,59; 5952,075;  223,200;21413,408;27,03548
 903,15; 6022,844;  253,738;21360,715;27,33270
 903,70; 5949,383;  234,508;21169,177;27,29862
 904,26; 5950,998;  230,738;21055,177;27,46897
 904,82; 5984,152;  230,892;21036,638;27,65226
 905,37; 5933,537;  253,354;20925,485;27,47749
 905,93; 5983,229;  227,046;20862,100;27,89517
 906,48; 5961,460;  255,123;20831,946;27,73186
 907,04; 5954,075;  255,277;20762,331;27,78945
 907,60; 5941,844;  246,662;20541,562;28,06214
 908,15; 5950,306;  231,354;20455,408;28,27797
 908,71; 5948,921;  245,815;20409,408;28,28418
 909,26; 5927,921;  232,508;20304,177;28,37539
 909,82; 5943,306;  242,585;20233,869;28,51603
 910,37; 5939,460;  273,892;20174,331;28,46956
 910,93; 5873,921;  220,969;19962,485;28,63484
 911,48; 5846,075;  229,969;19879,562;28,58128
 912,04; 5879,075;  232,969;19814,869;28,83329
 912,60; 5891,921;  244,508;19806,562;28,86923
 913,15; 5891,921;  229,892;19604,792;29,22353
 913,71; 5821,767;  217,585;19536,331;29,00904
 914,26; 5829,229;  207,815;19437,023;29,23372
 914,82; 5868,075;  233,892;19373,254;29,43767
 915,37; 5837,690;  215,585;19328,331;29,41548
 915,93; 5918,998;  295,662;19241,254;29,68150
 916,48; 5826,152;  220,969;19115,946;29,66494
 917,04; 5865,306;  243,662;19033,331;29,91880
 917,59; 5892,613;  260,892;18987,254;30,07376
 918,15; 5818,075;  201,123;18833,715;30,14584
 918,70; 5824,383;  237,200;18762,869;30,15914
 919,26; 5817,767;  236,431;18633,638;30,33795
 919,81; 5766,613;  227,508;18520,254;30,28034
 920,37; 5807,152;  234,431;18455,946;30,58319
 920,92; 5808,998;  245,815;18444,177;30,56969
 921,48; 5744,075;  208,662;18301,254;30,59492
 922,03; 5741,460;  229,123;18233,100;30,61733
 922,59; 5746,537;  233,662;18105,562;30,84661
 923,14; 5703,844;  241,738;18036,638;30,69478
 923,69; 5731,537;  254,815;17984,792;30,88961
 924,25; 5730,844;  271,585;17944,254;30,89097
 924,80; 5650,613;  230,200;17753,792;30,93209
 925,36; 5624,460;  219,508;17678,946;30,95719
 925,91; 5575,306;  225,431;17594,408;30,80132
 926,47; 5617,306;  197,046;17556,638;31,22343
 927,02; 5678,460;  299,892;17558,638;31,16430
 927,57; 5590,844;  223,431;17284,023;31,46089
 928,13; 5561,767;  218,046;17281,023;31,31764
 928,68; 5590,998;  235,585;17233,023;31,50718
 929,24; 5503,613;  197,046;17075,331;31,44021
 929,79; 5491,613;  218,662;16946,638;31,52176
 930,34; 5457,767;  217,277;16873,331;31,46298
 930,90; 5467,537;  210,354;16818,638;31,65398
 931,45; 5506,075;  232,046;16841,023;31,75409
 932,01; 5482,075;  226,123;16796,408;31,71914
 932,56; 5471,844;  250,354;16666,023;31,80797
 933,11; 5479,690;  258,662;16579,485;31,98998
 933,67; 5436,998;  212,738;16498,408;32,07888
 934,22; 5439,844;  236,892;16413,638;32,16315
 934,77; 5456,306;  248,354;16297,100;32,45083
 935,33; 5382,383;  232,662;16237,715;32,17559
 935,88; 5371,613;  229,123;16149,562;32,30119
 936,43; 5390,921;  230,123;16092,562;32,53471
 936,99; 5409,998;  242,200;15959,946;32,87875
 937,54; 5311,998;  209,046;15838,638;32,64930
 938,09; 5354,306;  232,200;15850,485;32,79557
 938,65; 5284,229;  249,046;15749,177;32,48478
 939,20; 5259,075;  210,123;15622,177;32,75976
 939,75; 5254,767;  212,354;15540,100;32,89729
 940,31; 5203,537;  210,277;15446,562;32,77216
 940,86; 5226,844;  231,431;15465,331;32,79143
 941,41; 5303,690;  334,738;15419,946;32,93923
 941,96; 5152,306;  213,277;15296,562;32,74505
 942,52; 5152,306;  217,585;15159,408;33,02623
 943,07; 5083,306;  206,431;15129,792;32,67947
 943,62; 5077,537;  214,815;15026,100;32,83119
 944,18; 5051,537;  206,277;14977,254;32,80257
 944,73; 5045,229;  243,277;14924,946;32,70713
 945,28; 4961,767;  191,892;14737,562;32,79241
 945,83; 5006,767;  212,354;14770,177;32,93359
 946,39; 5025,537;  219,815;14769,177;33,03046
 946,94; 5050,921;  239,892;14655,485;33,37379
 947,49; 5000,767;  216,123;14504,869;33,48540
 948,04; 5077,152;  268,738;14543,946;33,68367
 948,59; 5043,998;  247,354;14437,946;33,80158
 949,15; 4996,383;  206,508;14429,638;33,67666
 949,70; 4974,537;  222,277;14290,792;33,77940
 950,25; 4924,613;  236,892;14228,408;33,50403
 950,80; 4950,229;  184,431;14121,100;34,19611
 951,36; 4942,460;  195,123;14015,715;34,34973
 951,91; 4992,613;  240,354;14056,254;34,39703
 952,46; 4919,306;  223,585;13898,177;34,33902
 953,01; 4964,537;  225,200;13934,254;34,57085
 953,56; 4934,767;  201,969;13775,869;34,86690
 954,11; 4936,767;  229,200;13778,638;34,74363
 954,67; 4927,152;  212,662;13705,023;34,94192
 955,22; 4857,613;  196,508;13541,100;34,92880
 955,77; 4891,537;  250,969;13578,946;34,81824
 956,32; 4889,075;  270,277;13514,023;34,87531
 956,87; 4848,537;  211,662;13390,562;35,18408
 957,42; 4842,075;  214,046;13284,100;35,40941
 957,98; 4806,460;  208,892;13328,485;35,04352
 958,53; 4842,152;  259,354;13253,485;35,26822
 959,08; 4807,767;  211,738;13110,715;35,63096
 959,63; 4802,921;  216,431;13049,023;35,74095
 960,18; 4809,767;  229,738;13036,331;35,76306
 960,73; 4816,613;  225,815;13011,715;35,90516
 961,28; 4765,613;  197,662;12875,408;36,03126
 961,83; 4817,075;  238,508;12834,869;36,34833
 962,39; 4747,998;  202,969;12727,408;36,28928
 962,94; 4763,537;  231,662;12728,254;36,26489
 963,49; 4730,844;  231,200;12643,715;36,25087
 964,04; 4734,613;  241,508;12593,100;36,37673
 964,59; 4711,690;  194,738;12445,869;36,86967
 965,14; 4722,998;  249,508;12509,331;36,48903
 965,69; 4708,767;  211,662;12355,946;37,03064
 966,24; 4637,460;  210,892;12294,177;36,63381
 966,79; 4676,306;  253,815;12194,638;37,03673
 967,34; 4637,921;  196,277;12056,023;37,45143
 967,89; 4627,537;  211,662;12113,869;37,10131
 968,44; 4598,844;  218,892;11975,792;37,25431
 968,99; 4573,075;  233,200;11943,177;37,06135
 969,55; 4571,613;  227,431;11895,023;37,23290
 970,10; 4535,844;  229,585;11827,100;37,13088
 970,65; 4525,921;  253,277;11775,715;37,08108
 971,20; 4467,383;  206,969;11661,562;37,19393
 971,75; 4421,229;  194,969;11527,485;37,29322
 972,30; 4444,690;  221,815;11490,408;37,47473
 972,85; 4378,537;  215,815;11405,331;37,20198
 973,40; 4361,921;  213,123;11288,254;37,46049
 973,95; 4345,460;  232,969;11244,254;37,34796
 974,50; 4351,229;  264,585;11252,023;37,19378
 975,05; 4346,844;  223,123;11099,331;37,91506
 975,60; 4323,460;  241,046;11083,946;37,65057
 976,15; 4270,767;  211,354;11005,869;37,60626
 976,70; 4279,075;  230,662;10919,023;37,87684
 977,25; 4251,998;  241,585;10874,408;37,71730
 977,80; 4218,152;  210,969;10771,946;37,94330
 978,35; 4185,921;  237,892;10640,023;37,95404
 978,89; 4171,613;  207,738;10613,485;38,09314
 979,44; 4189,767;  233,277;10594,408;38,18589
 979,99; 4124,998;  217,738;10429,869;38,26096
 980,54; 4122,998;  254,662;10391,023;38,16297
 981,09; 4085,921;  244,662;10319,177;38,12848
 981,64; 4042,075;  235,354;10235,177;38,06789
 982,19; 4096,383;  273,969;10170,562;38,62353
 982,74; 4048,998;  235,662;10073,023;38,76381
 983,29; 3980,537;  221,892; 9925,331;38,73518
 983,84; 3964,152;  247,738; 9856,562;38,67709
 984,39; 4039,998;  343,200; 9957,638;38,45048
 984,94; 3890,075;  205,815; 9720,715;38,72095
 985,49; 3893,306;  259,431; 9651,562;38,69063
 986,03; 3862,306;  259,662; 9573,408;38,68094
 986,58; 3850,075;  286,969; 9548,869;38,47057
 987,13; 3781,229;  236,508; 9410,638;38,63822
 987,68; 3765,998;  244,892; 9275,715;38,98987
 988,23; 3774,152;  243,585; 9286,485;39,04242
 988,78; 3700,383;  216,046; 9132,177;39,07902
 989,33; 3710,383;  250,585; 9075,100;39,20666
 989,88; 3704,921;  269,969; 9035,177;39,18848
 990,42; 3603,921;  232,969; 8880,408;38,98209
 990,97; 3591,613;  223,738; 8798,485;39,27667
 991,52; 3581,306;  257,277; 8767,100;39,06108
 992,07; 3614,613;  274,508; 8679,100;39,74144
 992,62; 3550,921;  243,892; 8561,715;39,75835
 993,17; 3501,844;  257,123; 8514,946;39,29269
 993,71; 3479,383;  266,585; 8433,177;39,34074
 994,26; 3420,613;  237,508; 8308,485;39,43892
 994,81; 3435,383;  262,123; 8294,485;39,50594
 995,36; 3383,844;  234,431; 8143,562;39,81997
 995,91; 3375,767;  236,892; 8144,638;39,69367
 996,45; 3320,690;  245,738; 8037,408;39,46461
 997,00; 3250,306;  219,969; 7917,715;39,36654
 997,55; 3274,229;  251,585; 7891,638;39,56313
 998,10; 3260,613;  271,892; 7767,792;39,87141
 998,65; 3214,613;  239,046; 7756,177;39,58382
 999,19; 3177,767;  255,585; 7628,023;39,63658
 999,74; 3199,690;  278,200; 7559,869;40,12116
1000,29; 3122,229;  259,892; 7439,177;39,86938
1000,84; 3082,383;  235,277; 7371,254;39,89791
1001,38; 3064,229;  242,662; 7303,254;39,96219
1001,93; 3063,998;  247,200; 7254,408;40,19858
1002,48; 2996,613;  225,123; 7141,023;40,07418
1003,03; 3015,229;  250,585; 7085,715;40,44757
1003,57; 2939,152;  253,354; 6971,638;39,97744
1004,12; 2973,921;  291,585; 6974,715;40,13593
1004,67; 2879,613;  236,508; 6895,715;39,69099
1005,22; 2846,229;  229,277; 6718,177;40,32967
1005,76; 2800,460;  216,431; 6636,562;40,24885
1006,31; 2808,613;  242,277; 6606,946;40,32160
1006,86; 2753,383;  233,969; 6484,485;40,30729
1007,40; 2715,229;  225,123; 6398,869;40,33379
1007,95; 2718,690;  241,277; 6333,715;40,66374
1008,50; 2689,613;  257,046; 6225,715;40,75561
1009,04; 2629,690;  237,277; 6176,638;40,28065
1009,59; 2634,767;  241,508; 6062,254;41,11603
1010,14; 2571,460;  222,354; 5975,792;40,82960
1010,68; 2556,767;  244,200; 5875,715;41,06474
1011,23; 2537,229;  236,508; 5830,408;41,12911
1011,78; 2529,537;  242,508; 5775,023;41,33796
1012,32; 2515,306;  277,815; 5679,485;41,42220
1012,87; 2485,998;  262,662; 5623,562;41,47320
1013,42; 2431,306;  216,508; 5490,638;41,99361
1013,96; 2461,921;  280,431; 5559,254;41,32532
1014,51; 2397,460;  206,969; 5476,408;41,56971
1015,06; 2389,613;  215,200; 5445,715;41,57169
1015,60; 2462,998;  278,969; 5507,100;41,77456
1016,15; 2430,075;  220,200; 5436,638;42,36367
1016,69; 2425,460;  241,662; 5461,562;41,83601
1017,24; 2394,306;  219,354; 5464,254;41,46794
1017,79; 2474,075;  271,046; 5519,869;41,97186
1018,33; 2388,537;  231,508; 5516,792;40,81197
1018,88; 2411,306;  259,354; 5560,946;40,59067
1019,42; 2429,690;  233,508; 5525,869;41,49722
1019,97; 2400,229;  221,354; 5524,638;41,08539
1020,51; 2436,690;  279,123; 5624,638;40,36219
1021,06; 2377,075;  214,662; 5582,408;40,28532
1021,61; 2361,152;  199,354; 5550,869;40,39600
1022,15; 2363,537;  191,815; 5520,869;40,75247
1022,70; 2387,537;  233,892; 5536,331;40,61611
1023,24; 2343,998;  216,277; 5489,562;40,34907
1023,79; 2352,229;  238,354; 5439,869;40,63960
1024,33; 2324,075;  228,123; 5403,023;40,50227
1024,88; 2328,767;  247,585; 5347,946;40,80461
1025,42; 2281,152;  244,200; 5235,485;40,81017
1025,97; 2251,383;  226,200; 5209,946;40,63575
1026,51; 2176,229;  195,585; 5069,946;40,63392
1027,06; 2188,460;  222,123; 5058,023;40,66123
1027,60; 2161,383;  239,046; 4993,100;40,43573
1028,15; 2149,229;  245,431; 4895,023;40,94548
1028,69; 2070,921;  195,431; 4763,869;41,05320
1029,24; 2066,844;  223,969; 4756,869;40,65554
1029,78; 2025,537;  204,123; 4650,485;40,96413
1030,33; 1995,075;  205,123; 4564,792;41,05706
1030,87; 1989,306;  226,815; 4530,869;40,94954
1031,42; 1948,537;  204,815; 4447,869;41,09590
1031,96; 1963,998;  239,738; 4411,254;41,33413
1032,51; 1916,613;  219,662; 4338,331;41,20146
1033,05; 1899,229;  222,277; 4313,485;40,98917
1033,60; 1817,537;  196,815; 4159,023;40,90450
1034,14; 1820,537;  220,277; 4158,408;40,63500
1034,69; 1816,921;  223,123; 4116,869;40,93225
1035,23; 1803,460;  212,046; 4029,331;41,68967
1035,77; 1783,306;  212,738; 3970,869;41,79118
1036,32; 1754,998;  195,354; 3925,792;41,80860
1036,86; 1741,229;  230,892; 3893,946;41,23162
1037,41; 1715,075;  230,969; 3818,408;41,36951
1037,95; 1656,075;  199,354; 3722,946;41,34193
1038,50; 1659,613;  215,277; 3698,792;41,46204
1039,04; 1676,075;  237,815; 3681,023;41,77092
1039,58; 1631,075;  200,738; 3613,638;41,90971
1040,13; 1624,229;  215,277; 3577,254;41,90844
1040,67; 1639,383;  249,969; 3554,946;42,04004
1041,21; 1626,844;  266,354; 3485,946;42,25660
1041,76; 1537,998;  203,508; 3414,715;41,55727
1042,30; 1537,998;  216,815; 3370,023;41,89964
1042,85; 1520,767;  213,508; 3296,023;42,40886
1043,39; 1487,306;  205,662; 3252,331;42,06706
1043,93; 1508,460;  241,585; 3252,638;42,07414
1044,48; 1469,921;  238,123; 3189,177;41,74096
1045,02; 1443,306;  226,431; 3149,023;41,63684
1045,56; 1459,383;  254,662; 3119,946;42,04543
1046,11; 1435,152;  225,431; 3101,792;42,05734
1046,65; 1409,537;  241,200; 3022,638;42,00476
1047,19; 1391,767;  218,662; 2951,715;42,92289
1047,74; 1351,998;  199,585; 2893,869;42,77252
1048,28; 1348,998;  225,046; 2909,254;41,87276
1048,82; 1369,306;  258,892; 2917,562;41,76576
1049,37; 1330,537;  245,508; 2852,485;41,62019
1049,91; 1323,075;  241,892; 2817,792;41,97301
1050,45; 1299,921;  239,508; 2748,715;42,26089
1050,99; 1284,537;  243,200; 2724,946;41,95983
1051,54; 1231,460;  205,431; 2658,869;41,82004
1052,08; 1263,690;  249,892; 2650,023;42,23929
1052,62; 1242,075;  239,738; 2624,869;42,02439
1053,16; 1206,383;  224,892; 2571,254;41,83031
1053,71; 1212,998;  237,508; 2554,562;42,10046
1054,25; 1187,383;  240,738; 2518,946;41,55215
1054,79; 1199,921;  245,969; 2507,792;42,17624
1055,33; 1141,613;  205,123; 2420,408;42,27404
1055,88; 1171,844;  238,508; 2414,331;42,89579
1056,42; 1145,152;  247,123; 2403,792;41,63962
1056,96; 1148,306;  250,046; 2363,638;42,49919
1057,50; 1130,921;  240,200; 2321,331;42,79986
1058,05; 1103,383;  241,354; 2280,023;42,28390
1058,59; 1098,075;  263,431; 2233,946;42,35665
1059,13; 1053,767;  208,969; 2196,715;42,50030
1059,67; 1066,383;  238,200; 2206,254;42,08130
1060,21; 1034,229;  240,508; 2142,638;41,72800
1060,76; 1038,460;  247,815; 2139,408;41,79781
1061,30; 1053,152;  269,200; 2115,562;42,45929
1061,84; 1014,690;  237,969; 2048,869;42,89144
1062,38;  961,075;  212,969; 2001,023;41,83911
1062,92; 1038,152;  280,508; 2050,946;42,79416
1063,46;  995,921;  240,046; 1974,946;43,56879
1064,01;  962,537;  223,046; 1952,562;42,75709
1064,55;  966,921;  243,354; 1931,638;42,85814
1065,09;  914,921;  215,200; 1849,177;42,82320
1065,63;  957,306;  255,969; 1901,946;42,60914
1066,17;  960,998;  279,969; 1877,946;42,61819
1066,71;  935,229;  265,123; 1856,254;42,11507
1067,25;  907,690;  235,046; 1800,638;42,96420
1067,80;  897,229;  254,738; 1796,792;41,66459
1068,34;  927,537;  266,431; 1790,023;43,39125
1068,88;  865,152;  235,431; 1720,023;42,41711
1069,42;  903,383;  261,123; 1755,485;42,97886
1069,96;  871,306;  238,431; 1713,023;42,91864
1070,50;  897,767;  283,892; 1715,869;42,86906
1071,04;  844,075;  227,123; 1649,408;43,37753
1071,58;  824,383;  239,354; 1638,408;41,81604
1072,12;  848,613;  243,585; 1630,562;43,62213
1072,66;  833,460;  234,123; 1619,177;43,27171
1073,21;  843,075;  262,277; 1612,562;43,01301
1073,75;  821,229;  251,508; 1570,562;43,19165
1074,29;  801,998;  245,200; 1540,869;42,97378
1074,83;  807,921;  264,277; 1545,408;42,43472
1075,37;  819,075;  261,046; 1536,100;43,76512
1075,91;  794,075;  260,585; 1510,485;42,68265
1076,45;  786,152;  255,200; 1497,331;42,74525
1076,99;  801,306;  262,585; 1480,254;44,24199
1077,53;  756,152;  234,046; 1423,100;43,90935
1078,07;  765,613;  250,662; 1431,408;43,61242
1078,61;  753,537;  242,277; 1394,023;44,38996
1079,15;  742,075;  237,892; 1370,408;44,51884
1079,69;  734,844;  242,508; 1388,254;42,97082
1080,23;  756,921;  267,354; 1404,408;43,05577
1080,77;  800,998;  312,738; 1428,946;43,74272
1081,31;  715,844;  249,662; 1340,100;42,75186
1081,85;  739,306;  268,815; 1348,100;43,59280
1082,39;  694,613;  244,046; 1302,792;42,55669
1082,93;  726,690;  260,354; 1341,485;43,13415
1083,47;  688,306;  229,585; 1259,715;44,53038
1084,01;  696,537;  260,046; 1298,254;42,04268
1084,55;  679,229;  252,123; 1239,485;43,25728
1085,09;  704,537;  265,585; 1271,254;43,64774
1085,63;  672,460;  258,431; 1236,177;42,34523
1086,17;  650,537;  242,969; 1198,177;42,66793
1086,71;  654,844;  230,508; 1204,100;43,58462
1087,24;  688,921;  273,892; 1220,485;43,84452
1087,78;  671,152;  269,892; 1210,562;42,65682
1088,32;  637,921;  244,969; 1146,562;43,58421
1088,86;  655,152;  257,738; 1171,254;43,50375
1089,40;  628,383;  253,508; 1140,485;42,26435
1089,94;  604,998;  226,892; 1116,562;42,49959
1090,48;  626,537;  255,892; 1110,254;43,38260
1091,02;  649,306;  272,354; 1139,023;43,49432
1091,56;  608,767;  247,892; 1093,331;42,68495
1092,10;  592,306;  232,046; 1055,331;43,75882
1092,63;  630,152;  276,738; 1117,331;42,04339
1093,17;  604,998;  260,585; 1074,331;42,32443
1093,71;  591,767;  244,431; 1032,177;44,09244
1094,25;  621,767;  270,738; 1068,946;43,97713
1094,79;  579,152;  241,046; 1016,485;43,60188
1095,33;  589,921;  253,738; 1020,100;43,86738
1095,87;  570,075;  251,277; 1002,254;42,45111
1096,40;  552,383;  228,123;  955,408;44,58497
1096,94;  569,921;  252,046;  993,254;42,88609
1097,48;  572,229;  259,969;  981,023;43,30601
1098,02;  547,460;  242,123;  954,254;42,87647
1098,56;  518,306;  220,815;  921,638;42,44871
1099,10;  520,613;  225,200;  907,254;43,31234
1099,63;  521,690;  221,738;  903,177;44,01746
1100,17;  544,306;  258,200;  926,023;42,84155
1100,71;  572,844;  286,969;  936,485;44,01358

