
Integration time [ms]: 150,000
Averaging Nr. [scans]: 13
Smoothing Nr. [pixels]: 0
Data measured with spectrometer [name]: 2009305U1
Wave   ;Sample   ;Dark     ;Reference;Reflectance
[nm]   ;[counts] ;[counts] ;[counts] ;[%]

 175,72;  218,736;  211,210;  219,839;87,20945
 176,32;  237,200;  238,359;  235,111; 0,00000
 176,92;  283,961;  280,286;  286,352;60,58421
 177,52;  271,373;  274,209;  278,215;-70,81233
 178,12;  257,075;  249,436;  251,705;336,64102
 178,72;  287,088;  281,973;  260,310; 0,00000
 179,32;  281,960;  265,128;  266,225;1535,20677
 179,92;  274,176;  265,515;  265,978; 0,00000
 180,52;  257,796;  258,367;  268,579;-5,58495
 181,12;  269,368;  269,207;  271,317; 7,59361
 181,73;  283,838;  284,362;  283,857; 0,00000
 182,33;  397,013;  386,749;  405,616;54,40196
 182,93;  286,334;  289,440;  290,593;-269,26090
 183,53;  252,138;  265,665;  248,819; 0,00000
 184,13;  253,059;  259,589;  248,344; 0,00000
 184,73;  295,947;  299,126;  294,762; 0,00000
 185,33;  271,771;  254,019;  345,473;19,41073
 185,93;  284,953;  260,862;  362,838;23,62459
 186,53;  299,468;  260,325;  382,013;32,16632
 187,13;  320,362;  285,483;  415,827;26,75895
 187,73;  272,154;  255,016;  363,692;15,76963
 188,33;  289,370;  250,245;  375,280;31,29171
 188,93;  306,925;  269,008;  378,002;34,78825
 189,53;  292,159;  267,003;  398,671;19,10541
 190,13;  328,477;  304,302;  434,752;18,53144
 190,73;  268,915;  237,231;  368,824;24,07731
 191,34;  297,526;  272,390;  406,065;18,80348
 191,94;  287,578;  248,550;  376,661;30,46375
 192,54;  305,008;  272,409;  385,011;28,95102
 193,14;  307,930;  275,560;  397,986;26,44068
 193,74;  305,557;  282,328;  382,193;23,25992
 194,34;  300,101;  268,176;  385,065;27,31208
 194,94;  250,045;  246,636;  342,210; 3,56695
 195,54;  233,251;  219,250;  332,873;12,32249
 196,14;  257,637;  239,407;  348,372;16,72988
 196,74;  259,696;  234,480;  340,255;23,83903
 197,34;  235,477;  201,564;  336,743;25,08800
 197,94;  261,573;  243,483;  374,221;13,83672
 198,54;  273,705;  249,254;  377,640;19,04478
 199,14;  243,888;  221,411;  366,592;15,48158
 199,74;  236,080;  218,873;  344,214;13,72801
 200,34;  223,963;  211,258;  354,490; 8,87037
 200,94;  269,075;  250,102;  385,688;13,99357
 201,54;  249,995;  223,872;  405,188;14,40742
 202,14;  293,682;  258,567;  451,776;18,17462
 202,74;  256,128;  222,873;  429,928;16,06127
 203,34;  238,495;  210,337;  438,885;12,32014
 203,94;  210,027;  183,567;  433,807;10,57380
 204,54;  283,274;  268,406;  530,748; 5,66729
 205,14;  237,647;  196,642;  526,552;12,42921
 205,74;  288,418;  256,491;  594,026; 9,45890
 206,34;  261,018;  226,797;  588,575; 9,45914
 206,94;  262,943;  228,489;  631,755; 8,54369
 207,54;  233,682;  193,720;  634,827; 9,05951
 208,14;  256,479;  209,336;  719,908; 9,23340
 208,74;  268,850;  209,796;  773,573;10,47470
 209,34;  263,483;  203,950;  836,153; 9,41678
 209,94;  275,628;  225,180;  911,177; 7,35385
 210,54;  277,410;  210,414;  983,076; 8,67091
 211,14;  298,243;  219,873; 1067,857; 9,24201
 211,73;  287,140;  219,333; 1152,814; 7,26384
 212,33;  318,575;  239,025; 1232,836; 8,00460
 212,93;  299,850;  221,488; 1322,715; 7,11590
 213,53;  270,426;  193,796; 1352,349; 6,61434
 214,13;  308,347;  228,031; 1439,039; 6,63219
 214,73;  284,835;  201,413; 1433,237; 6,77229
 215,33;  276,551;  183,565; 1450,562; 7,33906
 215,93;  319,938;  218,876; 1562,395; 7,52221
 216,53;  288,687;  177,334; 1610,508; 7,76969
 217,13;  344,516;  223,567; 1772,350; 7,80927
 217,73;  338,630;  211,953; 1909,715; 7,46142
 218,33;  308,673;  170,416; 1998,465; 7,56309
 218,93;  370,664;  199,804; 2256,578; 8,30714
 219,53;  385,404;  193,878; 2457,318; 8,46172
 220,13;  370,998;  165,648; 2715,314; 8,05400
 220,73;  403,704;  196,258; 2974,344; 7,46725
 221,32;  457,773;  192,180; 3284,112; 8,58986
 221,92;  491,720;  208,186; 3589,947; 8,38420
 222,52;  491,043;  172,337; 3885,540; 8,58303
 223,12;  504,542;  193,799; 4216,790; 7,72418
 223,72;  556,119;  200,876; 4530,489; 8,20496
 224,32;  601,253;  202,800; 4842,127; 8,58861
 224,92;  606,542;  185,646; 5053,662; 8,64615
 225,52;  664,366;  214,874; 5374,992; 8,71089
 226,12;  678,853;  196,337; 5558,458; 8,99861
 226,72;  676,402;  175,952; 5803,857; 8,89229
 227,31;  711,459;  166,182; 6079,777; 9,22074
 227,91;  785,626;  214,643; 6386,690; 9,25112
 228,51;  790,497;  189,102; 6656,797; 9,29845
 229,11;  843,604;  200,798; 6967,339; 9,49978
 229,71;  871,639;  180,641; 7214,628; 9,82369
 230,31;  896,367;  180,416; 7483,812; 9,80298
 230,91;  940,337;  171,639; 7733,655;10,16524
 231,51; 1000,611;  173,491; 7951,943;10,63347
 232,10; 1039,692;  185,416; 8162,007;10,70979
 232,70; 1111,485;  194,637; 8372,758;11,21099
 233,30; 1174,208;  215,952; 8534,145;11,51999
 233,90; 1204,958;  187,491; 8662,449;12,00557
 234,50; 1224,986;  187,030; 8700,749;12,19157
 235,10; 1275,619;  176,492; 8734,354;12,84347
 235,70; 1338,578;  215,873; 8729,182;13,18765
 236,29; 1350,533;  193,718; 8613,828;13,73871
 236,89; 1364,788;  163,563; 8461,795;14,47568
 237,49; 1426,997;  201,798; 8375,802;14,98897
 238,09; 1417,403;  193,490; 8112,345;15,45569
 238,69; 1456,522;  233,946; 7921,225;15,90388
 239,29; 1431,135;  191,182; 7634,005;16,65971
 239,89; 1428,499;  193,178; 7351,182;17,25790
 240,48; 1418,538;  179,413; 7022,188;18,10852
 241,08; 1436,770;  192,104; 6725,598;19,05053
 241,68; 1450,028;  207,720; 6503,090;19,73367
 242,28; 1405,718;  173,644; 6208,935;20,41448
 242,88; 1457,078;  234,416; 5978,661;21,28499
 243,48; 1440,959;  233,567; 5695,796;22,10438
 244,07; 1411,684;  209,873; 5548,840;22,51017
 244,67; 1420,248;  207,875; 5400,152;23,34955
 245,27; 1410,678;  216,641; 5286,737;23,55059
 245,87; 1442,887;  218,185; 5191,014;24,62787
 246,47; 1433,390;  203,026; 5187,971;24,68160
 247,06; 1442,356;  184,489; 5185,657;25,15146
 247,66; 1470,922;  180,336; 5215,136;25,63330
 248,26; 1560,802;  215,103; 5355,809;26,17733
 248,86; 1591,851;  211,410; 5496,138;26,12132
 249,46; 1594,649;  159,568; 5668,629;26,04948
 250,05; 1701,076;  204,720; 5986,021;25,88269
 250,65; 1746,102;  187,871; 6167,859;26,05743
 251,25; 1833,934;  186,643; 6617,318;25,61614
 251,85; 1939,471;  197,716; 7047,216;25,42893
 252,44; 2027,984;  166,872; 7553,263;25,19650
 253,04; 2195,935;  199,027; 8118,805;25,21419
 253,64; 2286,286;  164,486; 8738,018;24,74825
 254,24; 2479,346;  207,182; 9500,630;24,44910
 254,84; 2596,265;  184,953;10343,706;23,73630
 255,43; 2740,224;  197,565;11114,700;23,29054
 256,03; 2903,632;  193,025;11984,037;22,98875
 256,63; 3064,769;  204,870;12838,099;22,63791
 257,23; 3180,009;  186,332;13650,075;22,23510
 257,82; 3330,849;  205,253;14628,421;21,67066
 258,42; 3417,669;  158,868;15329,840;21,48050
 259,02; 3567,579;  209,950;16241,836;20,94345
 259,62; 3563,690;  168,636;16840,254;20,36427
 260,21; 3687,455;  196,565;17450,764;20,23212
 260,81; 3657,622;  194,413;17992,983;19,45779
 261,41; 3698,985;  181,253;18444,469;19,26130
 262,01; 3727,913;  223,636;18940,842;18,72222
 262,60; 3661,316;  175,486;19269,383;18,25626
 263,20; 3683,246;  187,256;19666,922;17,94687
 263,80; 3651,711;  212,559;19809,334;17,54958
 264,40; 3570,335;  172,251;20067,643;17,07975
 264,99; 3540,596;  211,251;20302,700;16,57096
 265,59; 3497,660;  186,787;20477,711;16,31701
 266,19; 3451,518;  180,636;20695,956;15,94361
 266,78; 3438,243;  233,019;20808,334;15,57801
 267,38; 3345,178;  198,403;20827,682;15,25393
 267,98; 3287,396;  192,481;20843,731;14,98658
 268,58; 3255,389;  203,018;20903,679;14,74528
 269,17; 3175,211;  187,016;20957,009;14,38708
 269,77; 3122,366;  203,100;20879,353;14,11893
 270,37; 3063,702;  175,635;20705,884;14,06737
 270,96; 3027,301;  226,946;20633,688;13,72270
 271,56; 2942,519;  186,255;20455,634;13,59817
 272,16; 2890,341;  189,714;20189,875;13,50303
 272,75; 2834,581;  183,945;20272,543;13,19473
 273,35; 2798,657;  202,715;20236,517;12,95781
 273,95; 2786,543;  194,715;20101,472;13,01984
 274,54; 2741,182;  189,797;20201,359;12,74956
 275,14; 2798,262;  213,946;20492,182;12,74429
 275,74; 2709,370;  177,330;20486,687;12,46736
 276,33; 2803,491;  218,716;20803,386;12,55680
 276,93; 2803,547;  193,798;21101,099;12,48248
 277,53; 2865,340;  192,411;21620,065;12,47420
 278,12; 2903,941;  171,640;21953,294;12,54405
 278,72; 3060,754;  244,180;22466,776;12,67437
 279,32; 3042,784;  197,257;22982,101;12,48868
 279,91; 3123,035;  172,641;23591,053;12,59861
 280,51; 3225,561;  189,872;23952,577;12,77501
 281,11; 3357,631;  176,564;24617,127;13,01552
 281,70; 3397,786;  173,948;25020,332;12,97508
 282,30; 3502,903;  187,332;25560,327;13,06732
 282,90; 3589,644;  182,562;25900,899;13,24767
 283,49; 3761,233;  207,023;26268,446;13,63782
 284,09; 3865,536;  216,948;26763,393;13,74417
 284,69; 3962,870;  221,410;27083,359;13,92848
 285,28; 4067,575;  204,025;27335,695;14,24000
 285,88; 4255,851;  263,714;27558,447;14,62603
 286,47; 4283,990;  202,562;27665,739;14,86146
 287,07; 4420,822;  223,564;27693,556;15,27943
 287,67; 4567,343;  208,260;27810,411;15,79255
 288,26; 4648,380;  183,487;27831,777;16,14889
 288,86; 4790,873;  192,409;27780,514;16,66828
 289,46; 5059,727;  201,948;28017,758;17,46409
 290,05; 5211,895;  179,489;28030,312;18,06915
 290,65; 5517,145;  199,177;28193,098;18,99687
 291,24; 5700,418;  194,872;28329,040;19,56889
 291,84; 5992,461;  217,409;28469,176;20,44138
 292,44; 6225,189;  199,414;28563,052;21,24472
 293,03; 6522,793;  277,872;28746,923;21,93582
 293,63; 6671,625;  201,793;28796,357;22,62609
 294,22; 6966,564;  216,641;28972,167;23,47348
 294,82; 7157,325;  190,329;29038,924;24,15021
 295,41; 7253,247;  179,717;28741,332;24,76586
 296,01; 7506,775;  224,252;28716,960;25,55925
 296,61; 7587,293;  224,257;28459,378;26,07758
 297,20; 7616,438;  206,176;28170,096;26,49937
 297,80; 7740,327;  212,182;28132,858;26,96262
 298,39; 7717,932;  187,563;27753,524;27,31764
 298,99; 7886,398;  216,407;27623,153;27,98578
 299,58; 7950,441;  207,567;27562,992;28,30471
 300,18; 7997,751;  223,181;27299,287;28,71376
 300,78; 7975,705;  191,565;27016,165;29,01866
 301,37; 8057,530;  205,327;27044,086;29,25695
 301,97; 8182,785;  216,948;27053,448;29,68284
 302,56; 8228,039;  180,870;26910,529;30,10577
 303,16; 8229,665;  168,100;26880,826;30,17874
 303,75; 8302,752;  198,719;26905,775;30,34416
 304,35; 8446,341;  186,568;27131,436;30,65434
 304,94; 8545,698;  192,333;27120,113;31,02136
 305,54; 8593,080;  222,796;27073,881;31,17298
 306,13; 8571,811;  158,953;27079,258;31,25098
 306,73; 8581,314;  178,644;26829,317;31,52892
 307,33; 8669,632;  204,721;26837,088;31,78430
 307,92; 8654,197;  215,334;26898,695;31,62594
 308,52; 8866,656;  175,561;27253,927;32,09608
 309,11; 8993,179;  194,637;27664,861;32,02938
 309,71; 9137,845;  172,328;27967,959;32,25513
 310,30; 9241,957;  191,180;28164,104;32,35549
 310,90; 9414,880;  235,257;28445,181;32,54040
 311,49; 9477,851;  191,718;28591,433;32,69798
 312,09; 9518,693;  164,489;28799,598;32,66691
 312,68; 9729,042;  263,180;29061,811;32,86914
 313,28; 9737,966;  171,257;29195,234;32,96140
 313,87; 9758,188;  162,487;29338,553;32,88895
 314,47; 9806,370;  180,791;29582,828;32,73780
 315,06; 9897,706;  176,949;29634,434;32,99928
 315,66; 9972,770;  174,027;29838,983;33,03137
 316,25; 9926,309;  154,254;29707,112;33,06636
 316,85; 9939,818;  164,951;29844,952;32,93419
 317,44; 9999,275;  190,099;29965,107;32,94433
 318,04; 9937,202;  169,255;29952,748;32,79651
 318,63; 9931,785;  162,029;30035,972;32,70327
 319,22;10014,789;  191,716;30189,128;32,74640
 319,82; 9973,056;  185,640;30266,455;32,53707
 320,41; 9963,414;  197,562;30140,489;32,61489
 321,01; 9959,549;  197,719;30224,613;32,51029
 321,60; 9921,277;  197,486;30290,966;32,31195
 322,20; 9846,110;  175,872;30278,437;32,12430
 322,79; 9914,254;  218,795;30386,859;32,13815
 323,39; 9859,264;  184,183;30387,488;32,03319
 323,98; 9833,926;  174,103;30420,496;31,93711
 324,58; 9793,512;  179,485;30356,813;31,85844
 325,17; 9699,693;  192,023;30287,818;31,59136
 325,76; 9653,592;  197,410;30100,390;31,62287
 326,36; 9468,213;  175,489;29826,570;31,34025
 326,95; 9499,055;  219,025;29616,480;31,56746
 327,55; 9274,460;  174,486;29302,445;31,24137
 328,14; 9150,451;  173,951;28946,224;31,19844
 328,74; 9021,231;  208,101;28545,984;31,10017
 329,33; 8897,232;  200,950;28335,099;30,91006
 329,92; 8718,708;  175,022;27842,756;30,87960
 330,52; 8492,085;  199,105;27254,317;30,65206
 331,11; 8370,902;  196,948;26905,621;30,60412
 331,71; 8177,189;  187,179;26370,284;30,51590
 332,30; 8049,544;  195,256;26084,189;30,33840
 332,89; 7923,358;  263,719;25567,427;30,27082
 333,49; 7689,295;  203,486;25049,289;30,12907
 334,08; 7547,604;  186,717;24639,713;30,10219
 334,68; 7396,556;  181,178;24338,140;29,86873
 335,27; 7314,007;  202,721;23951,048;29,94437
 335,86; 7203,517;  254,255;23773,621;29,54698
 336,46; 7081,074;  201,259;23539,405;29,47884
 337,05; 6990,806;  183,563;23364,156;29,36613
 337,65; 6869,027;  160,948;23286,565;29,00714
 338,24; 6894,667;  235,642;23232,838;28,95581
 338,83; 6863,801;  214,334;23044,540;29,12574
 339,43; 6774,453;  185,177;23179,624;28,65594
 340,02; 6704,915;  187,100;23090,444;28,45792
 340,61; 6730,696;  204,103;23105,317;28,49890
 341,21; 6718,308;  221,639;23102,830;28,39305
 341,80; 6611,047;  192,871;23027,556;28,10714
 342,40; 6628,297;  186,721;23106,096;28,10537
 342,99; 6656,666;  195,950;23249,812;28,02444
 343,58; 6628,309;  188,027;23336,406;27,82174
 344,18; 6634,665;  211,027;23501,004;27,58112
 344,77; 6706,886;  171,946;23713,863;27,75874
 345,36; 6730,594;  169,948;23982,249;27,55150
 345,96; 6821,098;  208,104;24303,794;27,44472
 346,55; 6806,331;  176,876;24492,922;27,26371
 347,14; 6865,864;  173,105;24746,293;27,23602
 347,74; 6928,181;  152,186;25075,935;27,18690
 348,33; 7082,519;  192,724;25719,170;26,99081
 348,92; 7195,092;  204,110;26157,009;26,93719
 349,52; 7313,613;  161,879;26639,250;27,01074
 350,11; 7296,916;  186,177;26847,188;26,67093
 350,70; 7341,745;  183,718;26963,736;26,72898
 351,29; 7262,608;  164,019;26696,100;26,75474
 351,89; 7250,477;  197,791;26695,513;26,61620
 352,48; 7232,254;  163,718;26809,385;26,52790
 353,07; 7235,219;  195,875;26673,903;26,58560
 353,67; 7136,534;  204,187;26612,724;26,25040
 354,26; 7133,335;  200,259;26397,179;26,46523
 354,85; 7011,385;  196,951;26325,534;26,08038
 355,45; 6976,288;  164,563;26194,801;26,16851
 356,04; 6950,805;  177,029;26137,809;26,09234
 356,63; 6878,507;  223,563;25949,606;25,86851
 357,22; 6810,366;  189,020;25757,303;25,89672
 357,82; 6800,421;  188,252;25677,760;25,94075
 358,41; 6747,285;  213,564;25592,300;25,74486
 359,00; 6656,693;  170,562;25463,741;25,64380
 359,60; 6656,427;  187,949;25318,490;25,73951
 360,19; 6604,660;  210,183;25197,413;25,59098
 360,78; 6535,700;  184,178;25028,254;25,56554
 361,37; 6509,123;  191,332;24979,030;25,48761
 361,97; 6440,400;  198,025;24760,050;25,41474
 362,56; 6420,176;  180,100;24554,526;25,60091
 363,15; 6399,306;  247,409;24384,202;25,48763
 363,74; 6258,726;  195,560;24035,490;25,43282
 364,34; 6195,107;  210,562;23692,079;25,48619
 364,93; 6075,417;  182,638;23376,310;25,40684
 365,52; 5983,825;  157,640;23014,467;25,48991
 366,11; 5943,318;  180,254;22762,319;25,52054
 366,71; 5856,866;  176,485;22404,821;25,55468
 367,30; 5807,421;  186,794;22125,708;25,61944
 367,89; 5762,183;  225,797;21940,565;25,49595
 368,48; 5689,187;  210,484;21650,964;25,55308
 369,07; 5556,975;  196,564;21260,582;25,44819
 369,67; 5556,128;  213,022;21081,993;25,60311
 370,26; 5445,206;  183,642;20727,594;25,61126
 370,85; 5395,046;  193,794;20484,043;25,63424
 371,44; 5344,343;  190,564;20344,195;25,57246
 372,03; 5280,501;  158,254;20084,965;25,70543
 372,63; 5226,872;  169,948;19851,219;25,69409
 373,22; 5194,255;  182,718;19566,064;25,85486
 373,81; 5137,267;  165,717;19257,156;26,04073
 374,40; 5074,692;  184,874;19095,341;25,85773
 374,99; 5040,489;  180,870;18818,155;26,07472
 375,59; 4991,721;  176,797;18649,898;26,06451
 376,18; 5003,268;  205,255;18485,669;26,24674
 376,77; 4932,304;  204,718;18322,983;26,09293
 377,36; 4941,094;  210,409;18254,461;26,21742
 377,95; 4878,404;  202,870;18024,449;26,23524
 378,55; 4841,626;  182,181;17939,536;26,23952
 379,14; 4884,777;  206,871;17780,036;26,61960
 379,73; 4841,096;  193,947;17711,692;26,52824
 380,32; 4883,256;  199,718;17803,167;26,60580
 380,91; 4844,215;  170,253;17635,943;26,76082
 381,50; 4874,752;  198,561;17607,379;26,86105
 382,10; 4879,872;  175,256;17520,244;27,12377
 382,69; 4845,594;  169,025;17476,839;27,01999
 383,28; 4903,540;  215,562;17412,792;27,26008
 383,87; 4901,367;  185,023;17300,327;27,55630
 384,46; 4872,123;  175,482;17238,428;27,52538
 385,05; 4954,127;  207,484;17208,185;27,92028
 385,64; 4898,934;  181,793;17237,165;27,65780
 386,24; 4908,354;  164,405;17209,954;27,83101
 386,83; 5001,480;  202,174;17219,270;28,20285
 387,42; 5052,702;  201,331;17280,640;28,40496
 388,01; 5087,696;  189,788;17463,012;28,35550
 388,60; 5174,766;  189,021;17692,420;28,48444
 389,19; 5271,405;  188,631;17776,810;28,89881
 389,78; 5330,903;  174,555;18081,791;28,79478
 390,37; 5562,366;  250,635;18425,585;29,22556
 390,96; 5567,979;  190,482;18538,289;29,30866
 391,56; 5634,840;  193,707;18650,999;29,47958
 392,15; 5728,556;  178,094;18893,374;29,65738
 392,74; 5761,983;  149,934;19049,831;29,69354
 393,33; 5904,100;  188,245;19341,004;29,84351
 393,92; 6004,767;  189,933;19701,937;29,80132
 394,51; 6113,649;  168,707;19784,570;30,30681
 395,10; 6200,309;  208,081;20078,734;30,15617
 395,69; 6268,595;  200,236;20168,346;30,39025
 396,28; 6288,006;  192,156;20289,710;30,33130
 396,87; 6373,258;  192,921;20384,471;30,60853
 397,46; 6434,237;  201,764;20462,379;30,76152
 398,06; 6580,622;  222,914;20668,445;31,09583
 398,65; 6600,395;  177,904;20697,307;31,29960
 399,24; 6673,755;  214,980;20815,419;31,35261
 399,83; 6726,117;  180,735;20785,856;31,76580
 400,42; 6786,551;  227,107;20996,048;31,58295
 401,01; 6888,020;  187,862;21115,874;32,01526
 401,60; 6935,924;  205,459;21093,710;32,22129
 402,19; 6949,125;  228,828;21076,134;32,23581
 402,78; 7015,877;  214,266;21090,613;32,58046
 403,37; 6963,365;  196,320;20908,625;32,67162
 403,96; 6975,941;  204,371;20808,678;32,86483
 404,55; 6986,533;  215,650;20680,261;33,08582
 405,14; 6930,253;  194,239;20596,325;33,01630
 405,73; 7023,629;  194,054;20538,783;33,56926
 406,32; 7034,133;  208,802;20506,156;33,62671
 406,91; 6943,107;  199,778;20219,544;33,68336
 407,50; 6975,985;  216,689;20140,040;33,92650
 408,09; 6867,747;  175,142;19900,824;33,92838
 408,68; 6871,282;  195,751;19757,492;34,12544
 409,27; 6857,117;  170,605;19620,873;34,37748
 409,86; 6894,118;  195,701;19514,918;34,67230
 410,45; 6928,377;  227,024;19420,853;34,91410
 411,04; 6907,923;  222,271;19389,900;34,87991
 411,63; 6839,764;  211,446;19122,469;35,05002
 412,22; 6836,139;  210,311;18965,820;35,32737
 412,81; 6799,478;  206,010;18723,003;35,60766
 413,40; 6744,437;  218,019;18411,480;35,87233
 413,99; 6686,367;  266,939;18222,700;35,75135
 414,58; 6542,699;  182,787;17844,281;36,01004
 415,17; 6537,824;  207,010;17610,702;36,37627
 415,76; 6494,910;  192,157;17487,526;36,44185
 416,35; 6489,054;  187,237;17364,331;36,68733
 416,94; 6526,117;  219,312;17399,599;36,70955
 417,53; 6587,601;  188,703;17494,331;36,97582
 418,12; 6640,857;  187,243;17587,065;37,09011
 418,71; 6818,494;  219,635;17889,195;37,34592
 419,30; 6842,999;  197,398;17967,627;37,39739
 419,89; 6924,140;  185,784;18141,650;37,52732
 420,48; 7073,080;  215,327;18339,088;37,83847
 421,07; 7109,423;  206,713;18370,683;38,00221
 421,66; 7124,846;  185,102;18429,547;38,03757
 422,25; 7172,471;  184,417;18541,033;38,06831
 422,84; 7159,717;  210,880;18468,791;38,05932
 423,43; 7096,312;  193,107;18235,917;38,26014
 424,02; 7102,654;  221,955;18024,512;38,65006
 424,60; 6938,228;  184,503;17727,874;38,49730
 425,19; 6929,518;  199,421;17443,027;39,02952
 425,78; 6883,402;  217,883;17302,379;39,01501
 426,37; 6872,038;  219,502;17167,176;39,25339
 426,96; 6847,691;  204,040;17092,413;39,33861
 427,55; 6800,794;  203,276;16998,108;39,28302
 428,14; 6783,875;  193,817;16782,352;39,72658
 428,73; 6727,780;  207,428;16579,619;39,82577
 429,32; 6734,452;  223,117;16622,322;39,70519
 429,91; 6752,452;  232,197;16632,026;39,75807
 430,50; 6732,897;  211,508;16431,920;40,20483
 431,08; 6716,862;  216,049;16367,272;40,24966
 431,67; 6712,356;  261,128;16265,187;40,30995
 432,26; 6664,533;  275,977;16116,511;40,33043
 432,85; 6595,362;  299,668;15847,059;40,49357
 433,44; 6479,728;  294,364;15563,953;40,50773
 434,03; 6381,226;  306,292;15247,034;40,66019
 434,62; 6238,333;  264,749;14912,630;40,78121
 435,21; 6167,053;  287,899;14675,251;40,86335
 435,79; 6156,576;  277,444;14492,952;41,35717
 436,38; 6094,084;  273,141;14413,445;41,16561
 436,97; 6092,130;  271,911;14334,081;41,38920
 437,56; 6050,594;  262,456;14204,784;41,51486
 438,15; 5986,464;  253,608;14149,776;41,25494
 438,74; 6072,770;  269,532;14124,993;41,88412
 439,33; 6069,108;  243,685;14122,486;41,97354
 439,91; 6071,649;  220,996;14191,729;41,87792
 440,50; 6133,436;  249,919;14255,296;42,00899
 441,09; 6202,100;  261,615;14281,341;42,37233
 441,68; 6144,465;  230,235;14350,824;41,88373
 442,27; 6155,459;  229,002;14346,400;41,97981
 442,86; 6158,803;  198,626;14288,724;42,30046
 443,44; 6245,384;  203,548;14348,488;42,71376
 444,03; 6275,822;  283,165;14433,586;42,34967
 444,62; 6226,427;  211,780;14270,084;42,78359
 445,21; 6129,622;  223,010;14187,912;42,29612
 445,80; 6148,601;  253,245;14069,612;42,66936
 446,39; 6125,382;  285,937;13915,268;42,84469
 446,97; 5987,695;  209,019;13679,755;42,89800
 447,56; 5921,724;  212,100;13496,117;42,98115
 448,15; 5869,724;  210,558;13334,247;43,12177
 448,74; 5801,925;  225,866;13138,562;43,18276
 449,33; 5721,245;  222,946;13006,050;43,01224
 449,91; 5681,570;  205,796;12813,667;43,43139
 450,50; 5596,284;  209,565;12613,273;43,42829
 451,09; 5582,282;  220,411;12513,170;43,61812
 451,68; 5526,172;  229,259;12469,382;43,27499
 452,26; 5495,445;  233,800;12365,222;43,37204
 452,85; 5474,458;  205,953;12247,917;43,75121
 453,44; 5476,462;  216,343;12264,864;43,65779
 454,03; 5472,788;  198,032;12204,112;43,93404
 454,61; 5457,855;  196,882;12204,865;43,81229
 455,20; 5552,378;  228,731;12345,016;43,93795
 455,79; 5559,811;  234,958;12389,756;43,80865
 456,38; 5614,764;  229,426;12419,207;44,17912
 456,97; 5585,661;  201,656;12488,537;43,81914
 457,55; 5636,952;  212,043;12503,507;44,13558
 458,14; 5685,903;  244,194;12467,731;44,51829
 458,73; 5601,653;  220,813;12383,278;44,24136
 459,31; 5624,644;  246,278;12473,698;43,98610
 459,90; 5701,130;  265,507;12498,511;44,43408
 460,49; 5779,027;  320,660;12630,366;44,34198
 461,08; 5728,360;  228,434;12708,907;44,06825
 461,66; 5788,087;  226,047;12696,836;44,60054
 462,25; 5828,366;  227,743;12804,869;44,53023
 462,84; 5855,523;  250,896;12849,446;44,48628
 463,43; 5777,192;  201,978;12809,595;44,22099
 464,01; 5851,341;  218,211;12824,298;44,68579
 464,60; 5832,484;  278,823;12787,926;44,39695
 465,19; 5690,405;  198,058;12511,745;44,60360
 465,77; 5690,294;  215,214;12549,661;44,38853
 466,36; 5640,278;  241,209;12477,865;44,12209
 466,95; 5569,931;  222,671;12214,910;44,58934
 467,53; 5468,789;  214,755;12000,333;44,58020
 468,12; 5344,797;  254,063;11768,270;44,21263
 468,71; 5273,664;  217,674;11542,980;44,64330
 469,29; 5121,238;  200,833;11284,625;44,39279
 469,88; 5048,695;  206,296;11076,470;44,54758
 470,47; 5119,446;  277,377;11198,594;44,33635
 471,06; 5078,397;  221,531;11175,804;44,33765
 471,64; 5122,150;  218,991;11180,558;44,73046
 472,23; 5087,834;  196,075;11186,541;44,50911
 472,81; 5151,862;  200,533;11318,162;44,53583
 473,40; 5194,219;  207,998;11414,477;44,49409
 473,99; 5390,930;  322,306;11605,788;44,92074
 474,57; 5284,959;  214,075;11664,498;44,28556
 475,16; 5378,956;  227,226;11839,922;44,36291
 475,75; 5442,789;  240,616;11947,777;44,43582
 476,33; 5451,398;  242,696;11995,877;44,31738
 476,92; 5478,871;  233,845;12030,688;44,46127
 477,51; 5505,632;  236,848;12123,686;44,32452
 478,09; 5520,978;  239,464;12147,384;44,35295
 478,68; 5499,196;  238,080;12061,215;44,49848
 479,27; 5535,885;  266,385;12132,331;44,40859
 479,85; 5497,023;  235,542;12072,738;44,44872
 480,44; 5515,385;  216,620;12148,708;44,40770
 481,02; 5932,014;  234,545;13208,389;43,91504
 481,61; 6698,122;  268,083;14955,253;43,77997
 482,20; 7159,216;  233,315;16086,974;43,68645
 482,78; 7435,790;  270,696;16807,891;43,32714
 483,37; 7700,562;  249,088;17312,735;43,66871
 483,95; 7791,733;  289,165;17579,725;43,39112
 484,54; 7836,652;  299,775;17751,560;43,18686
 485,13; 7812,802;  261,938;17642,236;43,44497
 485,71; 7723,507;  235,937;17468,636;43,44978
 486,30; 7635,238;  287,783;17239,488;43,34346
 486,88; 7543,918;  353,322;16980,371;43,24638
 487,47; 7316,676;  295,554;16399,176;43,59964
 488,05; 6960,047;  278,786;15653,955;43,45488
 488,64; 6509,752;  273,250;14593,521;43,55017
 489,23; 5890,305;  294,017;13069,524;43,80482
 489,81; 5037,082;  295,249;11155,948;43,66048
 490,40; 4745,946;  246,711;10496,463;43,89603
 490,98; 4658,231;  227,251;10243,882;44,23623
 491,57; 4582,746;  257,326;10124,251;43,83758
 492,15; 4558,191;  227,405;10098,388;43,87391
 492,74; 4561,960;  238,709;10020,248;44,19806
 493,32; 4516,636;  260,251; 9944,783;43,95034
 493,91; 4426,582;  236,484; 9857,094;43,55335
 494,50; 4404,473;  242,258; 9793,626;43,57717
 495,08; 4387,801;  227,027; 9764,526;43,62542
 495,67; 4400,497;  250,637; 9742,939;43,71816
 496,25; 4352,441;  197,948; 9575,083;44,30451
 496,84; 4310,449;  202,483; 9641,341;43,52185
 497,42; 4277,448;  205,718; 9589,442;43,39141
 498,01; 4275,957;  236,868; 9532,746;43,45032
 498,59; 4195,534;  202,487; 9441,521;43,21931
 499,18; 4182,447;  199,099; 9425,815;43,17189
 499,76; 4177,643;  220,025; 9400,206;43,11046
 500,35; 4102,557;  215,951; 9110,549;43,69624
 500,93; 4060,728;  209,333; 9166,617;42,99735
 501,52; 4042,640;  201,949; 9082,243;43,24959
 502,10; 4007,436;  220,030; 9058,041;42,85360
 502,69; 3957,778;  200,647; 8889,046;43,24307
 503,27; 3878,271;  182,566; 8767,989;43,04628
 503,86; 3842,597;  201,570; 8717,401;42,75598
 504,44; 3762,824;  180,725; 8556,861;42,76552
 505,03; 3694,372;  172,418; 8381,055;42,90546
 505,61; 3657,825;  196,109; 8265,644;42,89858
 506,19; 3619,286;  199,725; 8144,080;43,04391
 506,78; 3537,257;  171,729; 7943,035;43,30711
 507,36; 3459,757;  189,879; 7839,184;42,74739
 507,95; 3437,464;  184,038; 7738,646;43,06545
 508,53; 3403,276;  188,806; 7598,333;43,38294
 509,12; 3289,456;  188,038; 7512,632;42,34253
 509,70; 3288,781;  219,346; 7357,865;42,99820
 510,29; 3252,546;  228,963; 7276,338;42,90366
 510,87; 3154,103;  187,883; 7066,022;43,12534
 511,46; 3087,226;  184,807; 6983,978;42,68784
 512,04; 3026,366;  196,193; 6844,347;42,57081
 512,62; 2996,342;  197,037; 6696,754;43,06810
 513,21; 2909,805;  181,194; 6626,702;42,33352
 513,79; 2876,069;  182,123; 6481,334;42,76641
 514,38; 2791,382;  167,814; 6345,079;42,47135
 514,96; 2783,883;  223,967; 6282,739;42,25139
 515,54; 2700,870;  178,122; 6144,275;42,28433
 516,13; 2686,167;  204,199; 6045,812;42,48771
 516,71; 2635,536;  197,433; 5951,219;42,37390
 517,30; 2547,050;  172,589; 5809,329;42,12473
 517,88; 2558,118;  205,435; 5779,046;42,21111
 518,46; 2469,077;  177,051; 5651,680;41,86632
 519,05; 2460,592;  187,360; 5613,445;41,89451
 519,63; 2452,508;  188,590; 5590,174;41,91210
 520,22; 2413,653;  209,363; 5514,646;41,54895
 520,80; 2389,834;  185,902; 5473,715;41,67947
 521,38; 2417,687;  237,284; 5447,396;41,84945
 521,97; 2344,350;  184,211; 5382,787;41,55250
 522,55; 2338,167;  200,134; 5386,283;41,22583
 523,13; 2347,952;  178,520; 5359,246;41,87506
 523,72; 2308,991;  189,897; 5333,935;41,19514
 524,30; 2397,400;  223,829; 5476,038;41,38394
 524,89; 2347,070;  170,058; 5451,164;41,22266
 525,47; 2381,947;  194,445; 5541,219;40,91255
 526,05; 2381,176;  155,984; 5591,026;40,94158
 526,64; 2413,578;  202,601; 5713,657;40,11893
 527,22; 2457,822;  202,214; 5800,480;40,29118
 527,80; 2544,617;  243,293; 5864,484;40,94014
 528,39; 2512,036;  180,833; 5897,066;40,78216
 528,97; 2560,490;  186,909; 6093,194;40,18738
 529,55; 2610,894;  207,059; 6193,788;40,15274
 530,14; 2673,774;  224,064; 6380,112;39,79355
 530,72; 2689,759;  185,909; 6463,046;39,88841
 531,30; 2699,879;  174,603; 6567,181;39,50325
 531,89; 2760,399;  188,834; 6668,332;39,68772
 532,47; 2797,185;  232,450; 6760,796;39,28614
 533,05; 2791,347;  213,139; 6794,555;39,17407
 533,63; 2825,828;  208,297; 6830,877;39,52434
 534,22; 2802,780;  193,066; 6850,228;39,20160
 534,80; 2841,043;  222,607; 6992,758;38,67618
 535,38; 2951,321;  322,911; 7061,139;39,00743
 535,97; 2838,012;  199,912; 7007,113;38,75455
 536,55; 2889,773;  253,453; 7050,405;38,78679
 537,13; 2860,918;  244,526; 7025,700;38,58318
 537,71; 2904,813;  306,526; 7075,170;38,38712
 538,30; 2921,652;  306,759; 7125,732;38,34732
 538,88; 2948,095;  351,917; 7249,189;37,64065
 539,46; 3029,860;  403,068; 7401,946;37,53162
 540,05; 3062,559;  406,147; 7479,267;37,55644
 540,63; 3148,164;  449,378; 7665,393;37,39995
 541,21; 3197,372;  470,456; 7839,915;37,00293
 541,79; 3254,968;  499,994; 7931,296;37,07256
 542,38; 3301,377;  537,839; 7995,737;37,05519
 542,96; 3341,069;  536,689; 8163,133;36,77179
 543,54; 3427,507;  562,148; 8313,117;36,96776
 544,12; 3408,986;  536,226; 8372,876;36,65802
 544,70; 3435,799;  506,843; 8485,152;36,71149
 545,29; 3487,194;  535,377; 8602,091;36,59256
 545,87; 3500,430;  513,841; 8649,065;36,71182
 546,45; 3448,752;  463,685; 8638,453;36,51562
 547,03; 3461,451;  446,071; 8751,531;36,30600
 547,62; 3477,813;  403,687; 8838,706;36,44481
 548,20; 3507,204;  423,611; 8978,950;36,04291
 548,78; 3510,932;  381,693; 9065,672;36,03462
 549,36; 3532,664;  336,924; 9190,936;36,09370
 549,94; 3559,331;  319,226; 9313,536;36,02394
 550,53; 3618,830;  322,692; 9505,822;35,89340
 551,11; 3649,535;  292,156; 9627,567;35,96391
 551,69; 3725,972;  292,693; 9876,538;35,82361
 552,27; 3766,380;  263,229;10085,376;35,66584
 552,85; 3856,497;  268,540;10370,253;35,51830
 553,44; 3929,386;  256,154;10633,415;35,39693
 554,02; 4019,220;  267,770;10902,913;35,27409
 554,60; 4045,400;  215,772;11157,288;35,00089
 555,18; 4169,568;  266,077;11510,163;34,71594
 555,76; 4238,922;  248,463;11787,107;34,58343
 556,34; 4345,424;  245,620;12088,728;34,61764
 556,93; 4434,510;  238,155;12359,487;34,61959
 557,51; 4514,020;  223,927;12642,045;34,54704
 558,09; 4602,558;  240,693;13024,674;34,11977
 558,67; 4676,862;  246,006;13360,339;33,78637
 559,25; 4789,057;  250,005;13550,794;34,12618
 559,83; 4817,234;  234,469;13792,567;33,80095
 560,41; 4936,233;  217,619;14055,671;34,09884
 561,00; 5009,881;  241,083;14372,880;33,74517
 561,58; 5057,522;  229,080;14549,424;33,71736
 562,16; 5077,333;  218,694;14810,534;33,29696
 562,74; 5154,710;  197,232;15169,571;33,11091
 563,32; 5270,273;  204,315;15520,945;33,07489
 563,90; 5354,641;  233,006;15847,994;32,79948
 564,48; 5413,735;  223,849;16100,844;32,68809
 565,06; 5563,930;  215,698;16628,812;32,58512
 565,65; 5710,449;  230,779;17214,512;32,26423
 566,23; 5908,526;  277,544;17829,462;32,08186
 566,81; 6093,634;  209,543;18389,250;32,36626
 567,39; 6295,165;  224,854;19136,196;32,09879
 567,97; 6450,796;  239,236;19670,789;31,96636
 568,55; 6708,504;  265,545;20462,856;31,90008
 569,13; 6782,429;  211,621;20941,625;31,69709
 569,71; 6974,064;  219,541;21809,989;31,28478
 570,29; 7275,231;  270,770;22649,825;31,29918
 570,87; 7424,498;  270,232;23273,292;31,10137
 571,45; 7548,478;  249,467;23807,095;30,98364
 572,03; 7596,837;  209,547;24254,552;30,72277
 572,61; 7820,687;  197,238;24871,809;30,89597
 573,20; 7967,327;  243,851;25371,827;30,73656
 573,78; 8082,898;  224,546;25980,062;30,51134
 574,36; 8247,159;  236,391;26388,119;30,63189
 574,94; 8347,586;  303,932;26697,061;30,47632
 575,52; 8306,318;  228,089;26860,156;30,33272
 576,10; 8494,706;  295,626;27417,888;30,23007
 576,68; 8569,193;  277,931;27838,508;30,08377
 577,26; 8719,123;  298,706;28451,892;29,90929
 577,84; 8879,899;  296,084;28849,178;30,06264
 578,42; 8956,901;  352,933;29123,331;29,90563
 579,00; 8904,984;  295,469;29239,641;29,74525
 579,58; 9010,403;  333,317;29495,877;29,75420
 580,16; 8875,313;  286,010;29479,720;29,42176
 580,74; 8944,678;  302,241;29640,665;29,45774
 581,32; 8871,844;  291,163;29698,681;29,17853
 581,90; 8930,035;  327,779;29655,366;29,33162
 582,48; 8899,631;  312,087;29723,376;29,19812
 583,06; 8919,778;  296,240;29708,388;29,31965
 583,64; 8896,951;  310,855;29953,750;28,96511
 584,22; 8772,115;  314,474;29761,404;28,72164
 584,80; 8736,266;  323,779;29581,110;28,75343
 585,38; 8585,646;  342,927;29217,752;28,54638
 585,96; 8591,627;  299,392;29257,799;28,63498
 586,54; 8510,885;  316,627;29261,199;28,31017
 587,12; 8527,340;  282,011;29227,365;28,48585
 587,70; 8550,300;  326,469;29386,514;28,29944
 588,28; 8524,610;  301,011;29414,667;28,24653
 588,86; 8518,041;  301,473;29621,533;28,02371
 589,44; 8489,004;  293,322;29491,641;28,06902
 590,02; 8490,688;  289,475;29774,833;27,81453
 590,59; 8518,607;  271,473;29856,230;27,87629
 591,17; 8504,274;  283,249;30016,442;27,64932
 591,75; 8484,241;  268,247;30141,180;27,50314
 592,33; 8510,733;  288,707;30299,519;27,39688
 592,91; 8526,132;  227,479;30557,867;27,36085
 593,49; 8544,455;  253,634;30759,318;27,17795
 594,07; 8621,099;  259,634;30897,733;27,29107
 594,65; 8569,587;  278,320;30916,803;27,06161
 595,23; 8632,237;  272,860;31270,014;26,96821
 595,81; 8608,446;  247,476;31456,625;26,79013
 596,39; 8586,561;  247,630;31574,721;26,61891
 596,97; 8568,959;  256,940;31688,633;26,44471
 597,55; 8522,565;  252,398;31643,184;26,34584
 598,12; 8517,587;  228,943;31593,083;26,42714
 598,70; 8458,063;  228,095;31682,881;26,16444
 599,28; 8486,169;  262,787;31766,617;26,10280
 599,86; 8493,121;  243,787;31879,173;26,07629
 600,44; 8398,446;  203,942;32064,868;25,71961
 601,02; 8428,561;  269,099;31862,411;25,82655
 601,60; 8384,519;  244,016;31898,842;25,71647
 602,18; 8309,011;  222,327;31935,910;25,49912
 602,75; 8318,774;  223,476;32026,526;25,45447
 603,33; 8294,496;  238,710;32067,697;25,30959
 603,91; 8257,623;  219,559;32077,050;25,23131
 604,49; 8279,889;  253,480;32054,057;25,23982
 605,07; 8233,356;  259,324;32084,405;25,05581
 605,65; 8219,493;  257,096;32282,093;24,86307
 606,23; 8248,473;  319,012;32301,118;24,79343
 606,80; 8275,985;  348,860;32418,215;24,71869
 607,38; 8253,268;  395,559;32387,350;24,56164
 607,96; 8265,630;  453,168;32420,938;24,43856
 608,54; 8244,782;  505,788;32552,321;24,14924
 609,12; 8203,245;  506,476;32521,412;24,04118
 609,70; 8189,429;  535,094;32563,006;23,89895
 610,27; 8194,919;  532,860;32599,140;23,89444
 610,85; 8151,180;  587,710;32780,221;23,49450
 611,43; 8075,361;  552,787;32697,303;23,40236
 612,01; 7999,626;  535,862;32517,527;23,33764
 612,59; 7988,266;  540,479;32498,351;23,30502
 613,16; 7897,903;  490,705;32517,100;23,12842
 613,74; 7804,909;  473,172;32391,971;22,96997
 614,32; 7744,089;  453,404;32345,103;22,86076
 614,90; 7676,441;  399,709;32269,342;22,83281
 615,48; 7593,421;  354,321;31909,532;22,94106
 616,05; 7548,693;  338,935;32071,834;22,72013
 616,63; 7470,964;  342,396;31798,136;22,66222
 617,21; 7390,448;  328,091;31668,177;22,53458
 617,79; 7352,907;  310,707;31662,112;22,46215
 618,36; 7303,799;  318,247;31594,402;22,33507
 618,94; 7153,430;  265,475;31281,521;22,20771
 619,52; 7101,550;  287,012;31074,515;22,13410
 620,10; 7077,831;  267,630;31007,382;22,15438
 620,67; 6964,301;  277,781;30922,641;21,81938
 621,25; 6980,125;  313,170;30758,264;21,89829
 621,83; 6921,516;  273,783;30793,253;21,78194
 622,41; 6919,959;  333,398;30774,314;21,63720
 622,98; 6825,993;  301,319;30612,936;21,52533
 623,56; 6784,158;  307,319;30538,014;21,42471
 624,14; 6748,998;  282,402;30516,383;21,38850
 624,72; 6717,170;  273,398;30430,170;21,36758
 625,29; 6621,340;  274,395;30358,673;21,09722
 625,87; 6728,849;  314,476;30286,731;21,40104
 626,45; 6613,255;  270,010;30263,274;21,14890
 627,02; 6513,512;  275,169;30217,482;20,83454
 627,60; 6488,706;  261,557;30101,283;20,86865
 628,18; 6490,168;  247,861;30174,259;20,85887
 628,76; 6459,896;  239,165;30200,189;20,76275
 629,33; 6432,393;  286,166;30212,528;20,53784
 629,91; 6423,831;  266,168;30134,305;20,61616
 630,49; 6465,337;  284,320;30316,788;20,58112
 631,06; 6405,271;  262,089;30425,636;20,36625
 631,64; 6395,851;  263,780;30379,143;20,36194
 632,22; 6329,392;  221,471;30248,952;20,34111
 632,79; 6379,113;  256,086;30573,918;20,19612
 633,37; 6377,145;  231,631;30480,613;20,31643
 633,95; 6355,804;  256,241;30626,610;20,08393
 634,52; 6338,046;  229,936;30722,277;20,03162
 635,10; 6295,197;  239,706;30768,738;19,83519
 635,68; 6324,479;  243,163;30838,069;19,87689
 636,25; 6280,532;  221,315;30866,091;19,77243
 636,83; 6284,127;  202,319;31030,881;19,72784
 637,41; 6269,345;  230,778;31103,482;19,55957
 637,98; 6340,077;  257,932;31250,771;19,62436
 638,56; 6266,956;  242,161;31268,726;19,41818
 639,13; 6215,446;  230,550;31465,652;19,16080
 639,71; 6328,549;  282,396;31595,528;19,30868
 640,29; 6144,787;  197,166;31331,864;19,10287
 640,86; 6181,612;  221,781;31518,712;19,04286
 641,44; 6155,514;  220,243;31538,791;18,95130
 642,02; 6146,185;  245,935;31498,101;18,87949
 642,59; 6161,010;  220,858;31549,257;18,96092
 643,17; 6096,988;  218,935;31572,106;18,74787
 643,74; 6084,890;  222,936;31620,031;18,67037
 644,32; 6088,946;  243,705;31624,495;18,62681
 644,89; 6080,002;  239,551;31553,651;18,65118
 645,47; 6053,750;  248,551;31644,192;18,49046
 646,05; 6049,113;  250,859;31611,656;18,48886
 646,62; 5945,092;  230,244;31508,350;18,27108
 647,20; 5985,686;  242,244;31677,814;18,27052
 647,77; 5895,895;  219,552;31590,509;18,09426
 648,35; 5858,797;  205,629;31437,665;18,10054
 648,92; 5895,699;  220,706;31536,128;18,12204
 649,50; 5818,755;  199,475;31455,208;17,97840
 650,08; 5787,272;  200,321;31330,902;17,94682
 650,65; 5757,558;  205,783;31524,443;17,72673
 651,23; 5849,922;  193,937;32113,907;17,71927
 651,80; 5994,670;  196,014;32978,986;17,68801
 652,38; 6041,495;  215,014;33420,680;17,54665
 652,95; 6044,397;  191,860;33682,452;17,47517
 653,53; 6089,837;  221,322;33932,916;17,40800
 654,10; 6133,508;  252,553;34001,610;17,42554
 654,68; 6064,410;  206,399;33939,074;17,36598
 655,25; 6036,158;  195,784;34010,076;17,27191
 655,83; 6019,367;  186,938;34132,925;17,18150
 656,40; 6039,269;  233,707;34117,773;17,13361
 656,98; 5948,248;  216,630;34001,314;16,96514
 657,55; 5959,381;  211,015;33852,008;17,08738
 658,13; 5878,821;  206,323;33606,088;16,98365
 658,70; 5822,338;  233,554;33373,475;16,86421
 659,28; 5678,086;  203,707;32672,938;16,86020
 659,85; 5555,142;  238,400;31938,864;16,77181
 660,43; 5516,967;  224,169;31835,866;16,74316
 661,00; 5456,561;  207,785;31997,637;16,51085
 661,58; 5503,847;  205,631;32299,486;16,50851
 662,15; 5485,672;  201,093;32432,103;16,39595
 662,73; 5577,343;  276,170;32681,337;16,35904
 663,30; 5542,322;  218,708;32765,108;16,35700
 663,88; 5554,609;  205,478;32979,264;16,32137
 664,45; 5548,280;  204,247;33182,420;16,20476
 665,03; 5533,797;  214,555;33517,730;15,97218
 665,60; 5706,853;  291,862;33881,502;16,12101
 666,17; 5610,370;  206,786;33876,965;16,04858
 666,75; 5634,656;  201,017;34247,122;15,95965
 667,32; 5659,327;  222,940;34514,739;15,85332
 667,90; 5648,768;  210,863;34759,049;15,74006
 668,47; 5675,900;  235,401;34978,205;15,65935
 669,05; 5669,264;  203,555;35190,131;15,62230
 669,62; 5654,242;  184,017;35287,671;15,58307
 670,19; 5662,375;  190,786;35354,058;15,56052
 670,77; 5669,969;  209,325;35586,753;15,43539
 671,34; 5650,256;  204,094;35506,986;15,42696
 671,92; 5661,234;  193,864;35773,065;15,36676
 672,49; 5620,136;  216,171;35796,221;15,18819
 673,06; 5610,192;  176,710;35855,762;15,22877
 673,64; 5585,171;  185,710;35888,764;15,12325
 674,21; 5548,688;  176,095;35786,612;15,08710
 674,79; 5610,282;  218,556;36006,307;15,06584
 675,36; 5643,645;  220,633;36144,309;15,09593
 675,93; 5548,778;  184,557;35922,619;15,00983
 676,51; 5602,526;  206,634;36172,545;15,00280
 677,08; 5589,812;  216,172;36211,316;14,92879
 677,65; 5599,945;  210,095;36233,703;14,96199
 678,23; 5606,155;  217,095;36526,321;14,84212
 678,80; 5592,826;  201,096;36591,015;14,81655
 679,38; 5653,804;  202,250;36700,710;14,93640
 679,95; 5658,706;  212,096;36994,635;14,80760
 680,52; 5628,993;  200,481;37206,330;14,66934
 681,10; 5701,587;  219,558;37515,716;14,69864
 681,67; 5701,566;  210,558;37679,796;14,65471
 682,24; 5708,852;  177,865;37796,490;14,70279
 682,82; 5773,292;  191,635;38262,723;14,66115
 683,39; 5833,579;  260,173;38554,802;14,55401
 683,96; 5828,327;  209,558;38842,343;14,54404
 684,54; 5853,844;  187,327;38945,192;14,62030
 685,11; 5929,054;  250,789;39362,809;14,51795
 685,68; 5904,879;  207,635;39788,965;14,39376
 686,25; 5879,550;  195,020;39773,044;14,36284
 686,83; 5906,221;  209,559;39990,124;14,32021
 687,40; 5905,200;  189,943;40179,126;14,29201
 687,97; 5993,640;  239,482;40649,744;14,23935
 688,55; 5915,926;  187,943;40597,515;14,17482
 689,12; 5917,674;  167,867;40850,287;14,13340
 689,69; 5895,807;  178,713;40927,596;14,03006
 690,26; 5913,632;  198,405;41028,983;13,99742
 690,84; 5939,380;  193,328;41170,370;14,02261
 691,41; 5928,512;  212,252;41281,603;13,91856
 691,98; 5949,107;  200,098;41426,221;13,94506
 692,56; 5933,701;  193,098;41576,069;13,87190
 693,13; 5943,679;  257,329;41618,072;13,74818
 693,70; 5953,812;  214,329;41739,535;13,82168
 694,27; 5904,945;  192,098;41837,615;13,71779
 694,84; 5944,770;  182,098;41999,463;13,78057
 695,42; 6080,825;  309,714;42157,927;13,79058
 695,99; 5949,035;  207,560;42268,467;13,65038
 696,56; 5919,937;  205,176;42062,777;13,65286
 697,13; 6003,531;  223,637;42465,010;13,68302
 697,71; 5983,125;  194,714;42405,243;13,71319
 698,28; 5959,181;  200,484;42685,938;13,55451
 698,85; 5955,313;  165,484;42749,248;13,59633
 699,42; 5980,523;  171,945;42917,404;13,58876
 699,99; 6050,963;  218,099;43094,637;13,60386
 700,57; 5998,173;  207,946;42982,024;13,53677
 701,14; 6000,305;  175,100;43243,565;13,52545
 701,71; 6069,438;  205,254;43393,259;13,57827
 702,28; 6041,032;  196,100;43389,108;13,53213
 702,85; 6031,242;  199,638;43459,879;13,48028
 703,43; 6029,605;  220,946;43677,805;13,36650
 704,00; 6070,968;  231,946;43936,884;13,36010
 704,57; 6050,255;  211,331;43860,809;13,37685
 705,14; 6086,234;  231,562;44073,811;13,35395
 705,71; 6071,289;  237,947;44170,967;13,27781
 706,28; 6040,422;  205,408;43985,585;13,32798
 706,86; 6080,093;  236,485;44296,664;13,26279
 707,43; 6077,226;  266,408;44263,667;13,20723
 708,00; 6077,512;  251,947;44272,592;13,23371
 708,57; 6049,106;  213,716;44162,671;13,27765
 709,14; 6054,085;  241,178;44266,596;13,20352
 709,71; 6026,756;  215,409;44289,522;13,18540
 710,28; 6097,889;  219,255;44550,985;13,26056
 710,86; 6111,560;  218,486;44591,911;13,28064
 711,43; 6078,923;  252,101;44707,836;13,10702
 712,00; 6087,210;  223,640;44776,146;13,16103
 712,57; 6135,958;  241,563;44921,841;13,19239
 713,14; 6112,629;  216,717;45019,997;13,15955
 713,71; 6120,377;  223,717;44877,768;13,20521
 714,28; 6162,509;  221,410;45031,232;13,25848
 714,85; 6098,334;  207,179;44795,157;13,21243
 715,42; 6136,313;  206,333;44930,006;13,25915
 716,00; 6212,215;  293,487;44958,316;13,25143
 716,57; 6157,424;  210,410;45137,164;13,23713
 717,14; 6157,788;  195,025;45000,705;13,30805
 717,71; 6179,305;  194,103;45114,015;13,32416
 718,28; 6252,437;  236,564;45249,863;13,36466
 718,85; 6171,109;  196,180;45256,481;13,25985
 719,42; 6241,780;  219,334;45374,483;13,33723
 719,99; 6209,912;  197,949;45290,408;13,33252
 720,56; 6255,276;  211,872;45504,180;13,34311
 721,13; 6269,254;  203,795;45534,798;13,38038
 721,70; 6246,695;  199,488;45353,800;13,39231
 722,27; 6300,520;  217,103;45439,571;13,45220
 722,84; 6361,191;  275,642;45645,189;13,41329
 723,41; 6283,631;  178,950;45564,268;13,45078
 723,98; 6312,225;  196,181;45692,578;13,44292
 724,55; 6392,204;  234,181;45880,273;13,49080
 725,12; 6305,644;  161,181;45785,275;13,46758
 725,69; 6348,854;  191,642;45912,508;13,46696
 726,27; 6405,602;  194,796;46100,972;13,52935
 726,84; 6434,427;  209,796;46272,051;13,51352
 727,41; 6489,790;  229,643;46219,284;13,61208
 727,98; 6540,692;  227,643;46454,286;13,65673
 728,55; 6536,055;  257,720;46409,981;13,60353
 729,12; 6522,880;  193,489;46419,598;13,69224
 729,69; 6552,705;  231,105;46690,216;13,60680
 730,26; 6583,607;  212,259;46748,988;13,69101
 730,82; 6538,663;  200,259;46789,759;13,60479
 731,39; 6616,257;  202,797;46789,223;13,76680
 731,96; 6627,620;  196,105;47146,764;13,69846
 732,53; 6649,445;  213,951;47229,997;13,68787
 733,10; 6690,501;  218,259;47406,614;13,71576
 733,67; 6702,018;  219,182;47580,232;13,68812
 734,24; 6686,304;  195,798;47363,542;13,76048
 734,81; 6736,668;  238,567;47405,467;13,77682
 735,38; 6684,031;  206,413;47182,854;13,78908
 735,95; 6683,856;  207,875;47039,626;13,82819
 736,52; 6723,450;  227,029;47306,243;13,79892
 737,09; 6725,275;  220,491;46945,322;13,92147
 737,66; 6788,485;  264,645;47125,478;13,92173
 738,23; 6787,925;  209,568;47270,019;13,97853
 738,80; 6914,442;  285,491;47433,021;14,06002
 739,37; 6851,883;  238,414;47544,562;13,98015
 739,94; 6839,631;  211,183;47537,872;14,00573
 740,51; 7021,994;  346,645;47725,567;14,08928
 741,07; 6897,357;  214,337;47657,031;14,08651
 741,64; 6945,644;  242,876;47821,033;14,08791
 742,21; 6959,853;  216,799;47846,881;14,15713
 742,78; 6936,371;  183,876;47695,114;14,21242
 743,35; 6984,195;  213,338;47841,578;14,21606
 743,92; 7070,020;  252,723;48011,734;14,27437
 744,49; 7086,076;  242,723;47954,736;14,34304
 745,06; 7037,516;  215,954;47984,508;14,28045
 745,63; 7017,803;  199,261;47951,741;14,27893
 746,19; 7087,705;  207,185;48003,282;14,39557
 746,76; 7092,530;  211,031;47986,976;14,40369
 747,33; 7113,585;  211,185;47932,363;14,46402
 747,90; 7156,410;  229,800;48207,904;14,43702
 748,47; 7162,927;  219,723;48079,752;14,50731
 749,04; 7206,368;  225,493;48062,831;14,59294
 749,61; 7179,654;  248,493;48079,987;14,49079
 750,17; 7206,325;  241,493;48101,759;14,55243
 750,74; 7219,919;  225,724;48091,607;14,61207
 751,31; 7218,975;  200,032;47929,917;14,70555
 751,88; 7192,031;  194,032;47761,381;14,71177
 752,45; 7277,471;  201,570;48047,614;14,78889
 753,02; 7277,219;  243,570;47837,155;14,77856
 753,58; 7278,429;  206,186;47801,157;14,85922
 754,15; 7326,869;  199,801;47897,006;14,94232
 754,72; 7323,386;  202,263;47735,854;14,98124
 755,29; 7313,057;  193,340;47625,779;15,01023
 755,86; 7365,882;  223,494;47612,166;15,07193
 756,42; 7415,092;  239,109;47549,784;15,16779
 756,99; 7385,147;  193,571;47528,325;15,19302
 757,56; 7398,357;  221,494;47488,788;15,18357
 758,13; 7393,028;  172,187;47382,252;15,29513
 758,70; 7478,007;  203,956;47498,870;15,38020
 759,26; 7493,293;  210,572;47622,718;15,36046
 759,83; 7539,195;  221,572;47698,797;15,41291
 760,40; 7538,328;  182,879;47539,646;15,53199
 760,97; 7543,614;  194,341;47545,879;15,52066
 761,53; 7518,054;  185,033;47250,573;15,58045
 762,10; 7508,879;  187,572;47242,729;15,55899
 762,67; 7553,858;  223,880;47363,039;15,54966
 763,24; 7545,914;  157,111;46810,965;15,83750
 763,80; 7616,354;  203,649;47057,890;15,82078
 764,37; 7544,794;  199,265;46949,508;15,71228
 764,94; 7549,466;  175,649;46512,741;15,91342
 765,50; 7577,752;  187,496;46622,820;15,91516
 766,07; 7628,269;  215,342;46601,591;15,98087
 766,64; 7614,402;  183,573;46386,824;16,08291
 767,21; 7570,304;  200,496;46244,057;16,00616
 767,77; 7622,206;  212,496;46237,752;16,09922
 768,34; 7641,261;  211,804;46083,754;16,19608
 768,91; 7599,548;  221,419;46028,295;16,10703
 769,47; 7676,603;  206,958;45959,297;16,32626
 770,04; 7667,044;  218,573;45886,838;16,30995
 770,61; 7630,099;  194,420;45673,071;16,34982
 771,18; 7621,078;  189,112;45574,766;16,37514
 771,74; 7670,441;  198,574;45760,999;16,39919
 772,31; 7666,189;  207,651;45522,309;16,45944
 772,88; 7641,014;  185,189;45194,157;16,56520
 773,44; 7619,685;  192,651;45197,544;16,50273
 774,01; 7748,895;  205,728;45247,161;16,74717
 774,58; 7661,566;  195,882;44967,779;16,67493
 775,14; 7735,622;  187,036;45002,089;16,84386
 775,71; 7743,447;  190,498;45007,245;16,85296
 776,27; 7819,425;  256,344;45031,324;16,89131
 776,84; 7896,789;  311,036;45082,865;16,94314
 777,41; 7807,306;  210,344;44851,790;17,01773
 777,97; 7825,208;  191,498;44521,023;17,22037
 778,54; 7850,725;  217,113;44589,641;17,20346
 779,11; 7892,089;  239,883;44533,566;17,27607
 779,67; 7925,913;  196,806;44509,723;17,44211
 780,24; 7889,046;  219,883;44317,648;17,39127
 780,80; 7986,948;  232,806;44183,727;17,64273
 781,37; 7977,081;  226,268;44244,345;17,60825
 781,94; 7997,367;  216,268;44098,193;17,73190
 782,50; 7981,269;  210,576;44058,118;17,72207
 783,07; 8065,940;  238,807;44164,813;17,81890
 783,63; 8068,996;  211,037;43904,354;17,98435
 784,20; 8055,667;  240,114;43756,664;17,95995
 784,77; 8057,184;  211,191;43611,204;18,07832
 785,33; 8035,547;  188,499;43542,053;18,10013
 785,90; 8086,295;  202,961;43474,670;18,21822
 786,46; 8083,505;  248,346;43350,596;18,17807
 787,03; 8074,330;  203,269;43279,290;18,27249
 787,59; 8105,462;  207,884;43225,370;18,35900
 788,16; 8124,749;  223,192;43184,372;18,39232
 788,73; 8099,804;  221,038;43086,374;18,38027
 789,29; 8068,860;  213,654;42647,992;18,51144
 789,86; 8116,070;  241,962;42764,302;18,51758
 790,42; 8102,664;  212,039;42514,458;18,65289
 790,99; 8086,258;  232,654;42188,537;18,71872
 791,55; 8107,006;  215,808;42205,155;18,79333
 792,12; 8168,062;  249,116;42234,311;18,86128
 792,68; 8098,040;  220,116;42022,621;18,84558
 793,25; 8110,942;  235,808;41749,315;18,97005
 793,81; 8194,536;  317,732;41461,548;19,14457
 794,38; 8058,823;  191,578;41261,089;19,15593
 794,94; 8119,648;  212,501;41053,014;19,36104
 795,51; 8073,627;  231,886;40950,247;19,25849
 796,07; 8054,144;  227,347;40739,096;19,31982
 796,64; 8113,430;  240,271;40835,713;19,39420
 797,20; 8101,255;  235,117;40351,177;19,60845
 797,77; 8039,234;  194,348;40175,026;19,62169
 798,33; 8072,597;  238,040;40026,182;19,69068
 798,90; 8082,038;  250,656;39942,107;19,73065
 799,46; 7994,401;  212,425;39510,802;19,80228
 800,03; 7997,764;  227,810;39487,727;19,79106
 800,59; 8024,359;  242,810;39295,960;19,92553
 801,15; 8034,337;  248,502;39119,347;20,03001
 801,72; 7985,855;  222,502;38846,041;20,10005
 802,28; 7970,295;  254,887;38628,351;20,10610
 802,85; 7924,043;  222,656;38441,969;20,15051
 803,41; 7924,329;  238,041;38174,817;20,26078
 803,98; 7863,462;  216,580;37995,973;20,24088
 804,54; 7839,056;  214,580;37805,360;20,28284
 805,11; 7859,804;  242,041;37534,440;20,42712
 805,67; 7887,091;  242,118;37478,903;20,53070
 806,23; 7829,377;  230,118;36999,906;20,66713
 806,80; 7842,971;  256,657;36971,216;20,66296
 807,36; 7857,411;  250,965;36936,064;20,73443
 807,93; 7873,698;  263,811;36716,989;20,87578
 808,49; 7806,907;  235,119;36466,376;20,89850
 809,05; 7741,886;  217,427;36270,225;20,87067
 809,62; 7794,865;  242,119;36224,842;20,98992
 810,18; 7848,228;  239,888;36103,768;21,21449
 810,74; 7731,746;  202,196;35830,539;21,13359
 811,31; 7742,032;  199,812;35807,080;21,18169
 811,87; 7783,703;  238,504;35550,159;21,36745
 812,44; 7772,990;  264,196;35585,238;21,25870
 813,00; 7738,814;  186,581;35325,010;21,49280
 813,56; 7823,562;  236,812;35426,243;21,55974
 814,13; 7825,772;  243,274;35306,245;21,62537
 814,69; 7818,597;  222,043;35126,709;21,76372
 815,25; 7730,114;  195,351;34763,634;21,79675
 815,82; 7815,708;  248,582;34740,790;21,93866
 816,38; 7827,379;  282,736;34607,408;21,98024
 816,94; 7776,820;  227,120;34295,564;22,16039
 817,51; 7757,952;  202,582;34186,182;22,23240
 818,07; 7757,239;  204,736;33943,107;22,38550
 818,63; 7748,141;  237,505;33742,648;22,41637
 819,20; 7743,042;  227,198;33680,034;22,46699
 819,76; 7660,252;  218,198;33318,191;22,48355
 820,32; 7731,385;  257,506;33216,654;22,67619
 820,89; 7690,902;  241,044;33095,272;22,67549
 821,45; 7657,804;  218,121;32781,428;22,84683
 822,01; 7582,398;  235,967;32576,738;22,71569
 822,57; 7597,530;  250,275;32504,356;22,77930
 823,14; 7572,432;  202,275;32337,050;22,93514
 823,70; 7515,950;  209,814;32111,668;22,90192
 824,26; 7562,621;  214,891;31924,516;23,17192
 824,82; 7603,984;  245,814;31755,826;23,35185
 825,39; 7542,040;  213,507;31557,905;23,38068
 825,95; 7514,865;  234,122;31663,677;23,16527
 826,51; 7462,459;  234,891;31224,987;23,32218
 827,08; 7542,437;  270,199;31294,066;23,44079
 827,64; 7505,416;  247,430;31137,838;23,49592
 828,20; 7477,933;  219,276;30844,148;23,70184
 828,76; 7478,066;  250,353;30913,304;23,57149
 829,32; 7493,276;  264,507;30782,921;23,68658
 829,89; 7341,485;  201,046;30631,693;23,46463
 830,45; 7460,233;  239,354;30549,772;23,82309
 831,01; 7418,212;  230,200;30435,236;23,79740
 831,57; 7383,268;  231,046;30356,700;23,74130
 832,14; 7406,477;  213,585;30360,163;23,85973
 832,70; 7373,379;  211,354;30087,473;23,97241
 833,26; 7358,665;  187,200;30007,552;24,04890
 833,82; 7433,952;  225,277;29996,401;24,21365
 834,38; 7436,700;  216,431;29933,019;24,29710
 834,95; 7345,140;  194,431;29881,482;24,08696
 835,51; 7360,888;  181,201;29619,485;24,38895
 836,07; 7424,636;  216,739;29849,179;24,32435
 836,63; 7451,153;  244,739;29809,104;24,37534
 837,19; 7458,748;  226,278;29616,722;24,60824
 837,75; 7387,496;  183,509;29437,186;24,62592
 838,32; 7426,474;  251,817;29434,496;24,58533
 838,88; 7476,761;  245,817;29527,190;24,69469
 839,44; 7478,740;  241,894;29466,116;24,76318
 840,00; 7456,180;  231,740;29344,195;24,81563
 840,56; 7434,697;  207,740;29087,582;25,02423
 841,12; 7465,214;  209,202;29022,969;25,18245
 841,68; 7399,193;  199,509;28915,509;25,07203
 842,25; 7444,787;  210,202;28897,435;25,21883
 842,81; 7418,535;  196,971;28658,899;25,37272
 843,37; 7428,129;  194,741;28716,824;25,36066
 843,93; 7442,108;  216,894;28621,134;25,43710
 844,49; 7492,779;  234,510;28662,136;25,53245
 845,05; 7406,373;  186,202;28451,138;25,54462
 845,61; 7506,660;  245,972;28538,602;25,66282
 846,17; 7452,177;  207,818;28423,297;25,67512
 846,73; 7472,848;  218,280;28418,684;25,72505
 847,29; 7468,365;  209,972;28240,686;25,89443
 847,86; 7519,806;  214,049;28164,688;26,13807
 848,42; 7489,015;  214,126;28038,306;26,14592
 848,98; 7480,840;  219,203;27979,846;26,15803
 849,54; 7570,588;  202,280;28005,079;26,50204
 850,10; 7559,490;  229,973;27859,466;26,52787
 850,66; 7544,469;  209,357;27766,469;26,61785
 851,22; 7526,755;  197,819;27664,702;26,68281
 851,78; 7601,119;  250,819;27777,089;26,70285
 852,34; 7566,713;  223,742;27524,091;26,89698
 852,90; 7564,999;  207,742;27507,016;26,95038
 853,46; 7536,055;  203,742;27169,557;27,19114
 854,02; 7543,880;  219,742;27278,559;27,06747
 854,58; 7601,012;  213,512;27066,561;27,51084
 855,14; 7585,991;  211,589;27005,487;27,52269
 855,70; 7546,124;  180,281;26777,412;27,69412
 856,26; 7617,333;  225,743;26742,030;27,87566
 856,82; 7560,620;  213,974;26686,570;27,75189
 857,38; 7589,599;  255,435;26626,034;27,81189
 857,94; 7526,116;  219,051;26536,806;27,76477
 858,50; 7541,018;  237,743;26454,885;27,85687
 859,06; 7518,150;  205,743;26178,733;28,15389
 859,62; 7556,667;  235,205;26182,582;28,21658
 860,18; 7528,339;  222,821;26027,815;28,31048
 860,74; 7502,010;  185,359;25935,202;28,41435
 861,30; 7466,835;  200,128;25775,742;28,41264
 861,86; 7596,429;  267,129;25813,206;28,69051
 862,42; 7430,946;  214,744;25544,824;28,48867
 862,98; 7505,694;  246,590;25605,441;28,62552
 863,54; 7430,750;  212,437;25394,982;28,66395
 864,10; 7464,728;  214,206;25447,215;28,73428
 864,66; 7426,169;  194,052;25251,910;28,86167
 865,22; 7410,378;  209,898;25159,604;28,85998
 865,78; 7409,280;  213,514;25047,222;28,97580
 866,34; 7385,413;  198,283;25047,916;28,92248
 866,90; 7333,545;  220,668;24849,534;28,88025
 867,45; 7374,909;  229,206;24756,613;29,13354
 868,01; 7316,964;  215,591;24654,539;29,05761
 868,57; 7341,866;  206,976;24441,695;29,44078
 869,13; 7305,153;  194,668;24362,312;29,42150
 869,69; 7347,285;  225,284;24253,315;29,64039
 870,25; 7279,726;  194,669;24182,471;29,53608
 870,81; 7311,550;  208,053;24100,396;29,73127
 871,37; 7306,529;  229,361;24070,091;29,68520
 871,93; 7312,893;  247,515;23878,478;29,89881
 872,49; 7270,025;  268,900;23714,172;29,86157
 873,04; 7191,389;  197,592;23557,636;29,93914
 873,60; 7221,598;  205,977;23462,254;30,16657
 874,16; 7244,346;  221,208;23347,333;30,36885
 874,72; 7205,808;  209,823;23380,025;30,19389
 875,28; 7203,577;  218,131;23348,102;30,20084
 875,84; 7253,962;  221,131;23300,025;30,47300
 876,40; 7219,577;  215,131;23155,102;30,53381
 876,95; 7259,500;  223,438;23142,256;30,69993
 877,51; 7267,115;  251,592;23168,410;30,61299
 878,07; 7331,269;  262,208;23186,410;30,83667
 878,63; 7312,885;  212,054;23134,256;30,97796
 879,19; 7349,885;  231,977;23189,102;31,00522
 879,75; 7364,654;  204,131;23175,948;31,17090
 880,30; 7391,808;  222,515;23103,794;31,33257
 880,86; 7496,885;  262,438;23294,717;31,41003
 881,42; 7467,269;  199,438;23303,487;31,45696
 881,98; 7496,423;  229,362;23390,410;31,37622
 882,54; 7566,577;  215,054;23375,487;31,74173
 883,09; 7618,192;  220,900;23574,948;31,67456
 883,65; 7622,423;  205,592;23483,948;31,86149
 884,21; 7750,038;  246,515;23818,871;31,83188
 884,77; 7700,269;  208,669;23800,794;31,75466
 885,32; 7840,808;  216,823;23943,640;32,13235
 885,88; 7887,423;  250,746;24105,717;32,01294
 886,44; 7935,192;  222,592;24123,871;32,26857
 887,00; 8002,577;  245,285;24141,794;32,46203
 887,56; 8024,346;  209,823;24294,102;32,44657
 888,11; 8071,423;  221,285;24308,102;32,59102
 888,67; 8153,885;  252,823;24400,333;32,71999
 889,23; 8145,731;  220,208;24482,179;32,66644
 889,79; 8174,500;  204,592;24303,487;33,07167
 890,34; 8148,731;  231,669;24299,333;32,89502
 890,90; 8296,115;  298,592;24418,794;33,15695
 891,46; 8219,500;  212,515;24348,410;33,17459
 892,01; 8268,577;  239,746;24326,179;33,33342
 892,57; 8284,269;  265,515;24254,487;33,42684
 893,13; 8230,500;  224,900;24073,487;33,56845
 893,69; 8198,885;  209,592;24010,179;33,56763
 894,24; 8209,192;  224,362;23982,333;33,60906
 894,80; 8217,038;  222,438;23844,640;33,84359
 895,36; 8193,808;  229,746;23747,948;33,86339
 895,91; 8147,808;  219,592;23516,640;34,03099
 896,47; 8117,731;  247,438;23529,102;33,80468
 897,03; 8104,654;  220,515;23267,563;34,20889
 897,58; 8040,500;  227,977;23177,410;34,04234
 898,14; 8020,423;  243,592;23120,563;33,99415
 898,70; 7995,962;  198,362;22922,333;34,31442
 899,25; 8028,654;  225,208;22978,948;34,29522
 899,81; 8020,885;  246,438;22819,025;34,44198
 900,37; 7960,500;  197,285;22637,487;34,59512
 900,92; 7957,577;  229,208;22644,717;34,47778
 901,48; 7928,269;  212,515;22451,794;34,69426
 902,03; 7881,808;  216,054;22301,563;34,70943
 902,59; 7873,731;  218,208;22331,640;34,61933
 903,15; 7917,269;  250,515;22087,256;35,10942
 903,70; 7839,731;  219,900;21979,563;35,01815
 904,26; 7789,654;  223,746;21877,487;34,94042
 904,82; 7749,346;  230,746;21862,640;34,75701
 905,37; 7794,808;  228,669;21730,333;35,18862
 905,93; 7756,577;  219,362;21658,179;35,15686
 906,48; 7764,731;  236,208;21601,102;35,23782
 907,04; 7775,885;  240,285;21476,102;35,48533
 907,60; 7729,962;  238,131;21357,179;35,47428
 908,15; 7702,885;  201,977;21213,410;35,69917
 908,71; 7756,192;  239,438;21286,025;35,71484
 909,26; 7710,192;  223,515;21088,256;35,88196
 909,82; 7687,269;  243,746;20958,640;35,93319
 910,37; 7718,192;  271,977;20923,948;36,05571
 910,93; 7585,577;  209,823;20717,717;35,96544
 911,48; 7624,885;  204,592;20649,102;36,29479
 912,04; 7579,038;  219,131;20462,948;36,35632
 912,60; 7638,346;  236,746;20524,871;36,48243
 913,15; 7516,115;  231,669;20291,640;36,31334
 913,71; 7475,808;  210,823;20166,025;36,40647
 914,26; 7496,192;  197,977;20162,256;36,55637
 914,82; 7512,115;  216,208;20106,948;36,67992
 915,37; 7473,115;  209,669;20033,333;36,64028
 915,93; 7552,038;  284,592;19933,563;36,98640
 916,48; 7438,808;  219,515;19801,256;36,86747
 917,04; 7438,192;  239,131;19686,640;37,01791
 917,59; 7461,038;  259,208;19677,256;37,08834
 918,15; 7362,269;  194,054;19513,640;37,10336
 918,70; 7382,269;  222,515;19423,563;37,28835
 919,26; 7374,423;  230,362;19416,717;37,23511
 919,81; 7307,346;  201,054;19181,948;37,43919
 920,37; 7318,115;  213,900;19112,640;37,59095
 920,92; 7316,577;  243,746;19137,640;37,43448
 921,48; 7287,423;  207,977;18901,410;37,87130
 922,03; 7268,038;  212,977;18846,333;37,86254
 922,59; 7245,962;  226,823;18791,794;37,80851
 923,14; 7229,808;  236,438;18596,871;38,08935
 923,69; 7243,731;  245,592;18562,179;38,20656
 924,25; 7241,885;  257,285;18562,563;38,15621
 924,80; 7162,885;  226,438;18369,025;38,23295
 925,36; 7145,808;  207,362;18322,102;38,30276
 925,91; 7096,731;  215,977;18221,717;38,21422
 926,47; 7126,269;  190,592;18161,871;38,59312
 927,02; 7169,346;  295,746;18083,333;38,64268
 927,57; 7040,500;  212,362;17960,256;38,47295
 928,13; 7062,423;  211,208;17831,179;38,88324
 928,68; 7044,962;  225,592;17891,563;38,60172
 929,24; 6992,885;  202,362;17668,102;38,87910
 929,79; 7008,500;  204,285;17577,563;39,16483
 930,34; 6969,885;  206,823;17422,256;39,28488
 930,90; 6983,731;  206,900;17422,179;39,36521
 931,45; 6986,269;  233,131;17462,256;39,19606
 932,01; 6981,654;  236,515;17360,487;39,39004
 932,56; 6945,346;  247,208;17165,563;39,59095
 933,11; 6972,885;  256,131;17126,794;39,81322
 933,67; 6912,500;  229,054;17004,563;39,84050
 934,22; 6891,115;  227,362;16960,025;39,82482
 934,77; 6937,500;  251,977;16781,410;40,44617
 935,33; 6875,423;  230,285;16716,871;40,30633
 935,88; 6824,423;  242,900;16752,025;39,86597
 936,43; 6862,654;  227,362;16605,102;40,51409
 936,99; 6828,269;  227,208;16544,640;40,45404
 937,54; 6765,423;  198,054;16446,871;40,41752
 938,09; 6816,654;  217,131;16372,717;40,84979
 938,65; 6779,654;  228,131;16261,640;40,86144
 939,20; 6789,654;  202,515;16177,563;41,23392
 939,75; 6763,577;  215,285;16124,563;41,16021
 940,31; 6746,577;  207,977;15971,333;41,47975
 940,86; 6764,346;  235,515;15983,179;41,45904
 941,41; 6738,038;  323,823;15937,871;41,07977
 941,96; 6662,962;  207,977;15792,563;41,41903
 942,52; 6644,115;  219,823;15760,256;41,33921
 943,07; 6575,885;  197,746;15593,640;41,42753
 943,62; 6588,808;  209,592;15560,102;41,55703
 944,18; 6576,038;  199,362;15509,487;41,65006
 944,73; 6557,731;  224,746;15427,102;41,65792
 945,28; 6442,731;  193,746;15267,794;41,45525
 945,83; 6515,423;  211,746;15246,871;41,92634
 946,39; 6506,500;  211,977;15224,179;41,92938
 946,94; 6496,269;  234,131;15147,563;41,98992
 947,49; 6464,885;  207,823;15083,256;42,06306
 948,04; 6496,192;  265,515;15046,333;42,15381
 948,59; 6450,962;  250,592;14994,487;42,05381
 949,15; 6422,962;  205,208;14878,102;42,37578
 949,70; 6415,115;  219,438;14792,102;42,51575
 950,25; 6368,731;  235,131;14693,487;42,42253
 950,80; 6302,115;  182,592;14674,102;42,22833
 951,36; 6282,346;  173,977;14514,563;42,59497
 951,91; 6335,038;  241,977;14557,102;42,56380
 952,46; 6245,500;  211,515;14430,333;42,43661
 953,01; 6292,192;  229,285;14444,256;42,65157
 953,56; 6165,962;  196,669;14223,487;42,55628
 954,11; 6219,577;  228,285;14239,102;42,76190
 954,67; 6184,346;  216,131;14136,179;42,87496
 955,22; 6141,654;  194,362;14011,794;43,04195
 955,77; 6197,192;  231,900;14036,179;43,21336
 956,32; 6177,115;  276,285;13908,179;43,28695
 956,87; 6078,269;  206,054;13860,563;43,00568
 957,42; 6061,577;  211,515;13823,410;42,97757
 957,98; 6080,269;  207,746;13717,102;43,47005
 958,53; 6078,731;  247,362;13722,179;43,27605
 959,08; 6043,038;  213,900;13561,487;43,67185
 959,63; 5990,192;  208,515;13540,563;43,36676
 960,18; 6006,115;  221,054;13492,025;43,59185
 960,73; 5964,038;  218,900;13412,794;43,54392
 961,28; 5899,731;  199,977;13368,256;43,28397
 961,83; 5971,192;  236,515;13331,487;43,79297
 962,39; 5875,885;  204,977;13205,179;43,62169
 962,94; 5897,423;  222,900;13198,640;43,73179
 963,49; 5849,346;  224,977;13043,256;43,87773
 964,04; 5843,808;  229,592;13004,717;43,94646
 964,59; 5819,192;  191,208;12920,256;44,21371
 965,14; 5825,192;  234,054;12819,102;44,42683
 965,69; 5772,577;  215,592;12784,256;44,21301
 966,24; 5710,654;  202,285;12659,563;44,21808
 966,79; 5720,423;  240,054;12654,871;44,14378
 967,34; 5640,423;  187,515;12482,640;44,35016
 967,89; 5670,654;  211,438;12511,256;44,38452
 968,44; 5625,038;  216,592;12428,333;44,28891
 968,99; 5618,731;  227,823;12349,563;44,47305
 969,55; 5618,192;  219,592;12292,179;44,71784
 970,10; 5586,500;  231,438;12193,256;44,76796
 970,65; 5572,115;  245,131;12086,871;44,98481
 971,20; 5538,500;  210,208;12017,179;45,12836
 971,75; 5478,962;  194,592;11844,102;45,36130
 972,30; 5505,808;  221,669;11904,948;45,22821
 972,85; 5486,346;  208,515;11747,794;45,73796
 973,40; 5415,962;  208,054;11706,948;45,29051
 973,95; 5411,808;  228,977;11657,794;45,34879
 974,50; 5433,192;  251,592;11607,640;45,62855
 975,05; 5363,038;  222,285;11516,410;45,51706
 975,60; 5375,808;  234,438;11411,640;45,99871
 976,15; 5357,269;  201,362;11380,794;46,11958
 976,70; 5324,500;  223,977;11312,563;45,99796
 977,25; 5300,885;  230,438;11288,025;45,85491
 977,80; 5253,962;  217,669;11137,871;46,11904
 978,35; 5227,269;  246,438;11028,563;46,19526
 978,89; 5178,269;  203,977;10951,025;46,28520
 979,44; 5154,885;  226,823;10961,333;45,90859
 979,99; 5113,654;  216,515;10728,948;46,58426
 980,54; 5122,731;  235,900;10703,640;46,68468
 981,09; 5088,885;  248,131;10667,256;46,46027
 981,64; 5041,346;  228,438;10536,025;46,69287
 982,19; 5041,731;  250,515;10493,410;46,77599
 982,74; 4969,500;  223,746;10385,948;46,70005
 983,29; 4911,808;  213,054;10241,179;46,85576
 983,84; 4913,038;  222,823;10224,563;46,89399
 984,39; 4968,423;  309,746;10177,333;47,21192
 984,94; 4794,115;  193,054;10055,871;46,65058
 985,49; 4785,423;  254,515; 9997,948;46,50217
 986,03; 4792,885;  233,592; 9924,563;47,04681
 986,58; 4765,577;  273,823; 9831,563;46,99598
 987,13; 4685,962;  225,285; 9711,179;47,02432
 987,68; 4681,808;  237,900; 9625,410;47,33852
 988,23; 4669,885;  246,669; 9541,333;47,58876
 988,78; 4570,500;  215,054; 9450,179;47,16175
 989,33; 4591,346;  247,208; 9348,410;47,73148
 989,88; 4586,346;  266,592; 9341,563;47,60074
 990,42; 4503,038;  227,515; 9220,640;47,54213
 990,97; 4436,115;  214,438; 9067,794;47,68448
 991,52; 4472,269;  245,285; 9052,871;47,99254
 992,07; 4482,038;  269,900; 8989,487;48,30663
 992,62; 4397,500;  237,285; 8861,410;48,23928
 993,17; 4317,500;  250,669; 8761,025;47,78685
 993,71; 4311,500;  256,054; 8735,256;47,82816
 994,26; 4214,038;  225,977; 8609,025;47,57293
 994,81; 4255,192;  255,746; 8560,717;48,15726
 995,36; 4201,192;  227,362; 8417,794;48,51796
 995,91; 4179,115;  235,823; 8371,640;48,46830
 996,45; 4144,423;  225,515; 8249,563;48,83953
 997,00; 4043,192;  211,208; 8114,871;48,48365
 997,55; 4040,038;  240,746; 8144,640;48,06861
 998,10; 4018,885;  267,054; 8010,179;48,45370
 998,65; 3981,269;  232,285; 7979,256;48,39291
 999,19; 3959,885;  260,746; 7907,871;48,37293
 999,74; 3929,962;  275,669; 7788,256;48,64227
1000,29; 3879,654;  237,131; 7731,179;48,60555
1000,84; 3835,423;  229,592; 7572,256;49,10794
1001,38; 3780,423;  239,438; 7539,640;48,50530
1001,93; 3786,885;  248,362; 7480,871;48,92525
1002,48; 3698,192;  218,285; 7299,256;49,14450
1003,03; 3726,577;  256,438; 7323,102;49,10576
1003,57; 3669,115;  235,285; 7216,102;49,18952
1004,12; 3672,192;  275,746; 7162,717;49,31698
1004,67; 3604,885;  237,746; 7084,256;49,18037
1005,22; 3517,038;  218,900; 6931,563;49,13308
1005,76; 3478,962;  202,900; 6815,025;49,54627
1006,31; 3461,731;  251,592; 6788,563;49,10743
1006,86; 3414,731;  230,746; 6727,256;49,01070
1007,40; 3359,962;  216,977; 6614,410;49,12884
1007,95; 3339,654;  247,054; 6506,025;49,41068
1008,50; 3300,115;  237,131; 6437,794;49,39769
1009,04; 3257,500;  236,285; 6353,102;49,39195
1009,59; 3209,808;  237,669; 6198,410;49,86190
1010,14; 3155,500;  212,592; 6121,717;49,80277
1010,68; 3115,731;  240,592; 6066,102;49,35428
1011,23; 3064,731;  237,362; 5991,563;49,13573
1011,78; 3060,269;  248,438; 5919,948;49,57817
1012,32; 3053,115;  264,977; 5834,256;50,06283
1012,87; 3024,885;  263,746; 5799,794;49,87562
1013,42; 2935,962;  219,285; 5676,640;49,78010
1013,96; 3005,808;  266,285; 5702,948;50,38979
1014,51; 2912,577;  194,515; 5638,717;49,92580
1015,06; 2910,577;  198,977; 5622,871;49,99360
1015,60; 2968,962;  270,131; 5678,948;49,89687
1016,15; 2922,269;  222,208; 5631,025;49,91963
1016,69; 2973,808;  243,131; 5662,717;50,38534
1017,24; 2966,808;  214,208; 5628,410;50,84036
1017,79; 3028,269;  259,592; 5696,948;50,91955
1018,33; 2991,885;  231,515; 5689,410;50,57572
1018,88; 3026,577;  257,208; 5746,333;50,45193
1019,42; 3008,808;  223,285; 5714,640;50,72560
1019,97; 3028,346;  220,977; 5688,102;51,35001
1020,51; 3087,192;  259,746; 5828,410;50,77423
1021,06; 3038,885;  215,438; 5724,717;51,24892
1021,61; 3015,962;  197,208; 5715,640;51,07888
1022,15; 3006,731;  175,746; 5684,256;51,39293
1022,70; 3028,346;  233,823; 5684,717;51,26724
1023,24; 3031,962;  207,669; 5655,179;51,84557
1023,79; 3008,731;  210,592; 5595,487;51,96274
1024,33; 2995,346;  222,977; 5567,102;51,87695
1024,88; 2954,731;  237,285; 5434,410;52,28749
1025,42; 2921,346;  242,208; 5380,256;52,14312
1025,97; 2896,346;  223,746; 5349,487;52,14076
1026,51; 2828,269;  193,362; 5236,640;52,24593
1027,06; 2801,038;  207,669; 5202,410;51,92200
1027,60; 2800,654;  237,977; 5131,717;52,36643
1028,15; 2763,346;  240,438; 5051,871;52,43569
1028,69; 2664,731;  182,592; 4920,794;52,38566
1029,24; 2650,423;  205,131; 4923,025;51,83016
1029,78; 2591,654;  205,515; 4815,640;51,75865
1030,33; 2550,962;  193,592; 4682,102;52,52009
1030,87; 2519,731;  204,362; 4647,487;52,11128
1031,42; 2480,654;  196,438; 4556,487;52,38968
1031,96; 2495,038;  236,823; 4548,102;52,37925
1032,51; 2419,346;  203,438; 4440,717;52,29554
1033,05; 2409,885;  218,438; 4427,487;52,06513
1033,60; 2325,423;  192,669; 4295,871;51,97779
1034,14; 2320,577;  213,823; 4250,487;52,19048
1034,69; 2312,038;  216,515; 4207,410;52,50761
1035,23; 2287,192;  216,131; 4128,179;52,94060
1035,77; 2241,500;  222,208; 4076,333;52,39302
1036,32; 2194,038;  196,054; 3986,717;52,70805
1036,86; 2213,962;  222,669; 3999,102;52,72945
1037,41; 2164,423;  229,592; 3900,025;52,71397
1037,95; 2129,885;  180,746; 3846,102;53,17733
1038,50; 2113,346;  202,208; 3803,487;53,06833
1039,04; 2097,192;  241,131; 3772,948;52,55259
1039,58; 2047,038;  210,054; 3700,256;52,63262
1040,13; 2018,885;  215,669; 3657,871;52,38552
1040,67; 2040,731;  252,285; 3627,640;52,98541
1041,21; 2039,577;  244,208; 3596,717;53,55299
1041,76; 1971,500;  204,285; 3487,179;53,83102
1042,30; 1921,731;  211,592; 3481,948;52,29212
1042,85; 1907,577;  221,823; 3406,487;52,93350
1043,39; 1864,192;  198,131; 3354,563;52,78305
1043,93; 1909,115;  243,515; 3342,794;53,74153
1044,48; 1840,962;  230,592; 3280,640;52,79816
1045,02; 1828,885;  214,746; 3214,563;53,80789
1045,56; 1829,731;  242,592; 3238,410;52,97848
1046,11; 1807,808;  227,438; 3181,794;53,49285
1046,65; 1778,423;  238,208; 3089,025;54,02715
1047,19; 1735,885;  208,823; 3051,563;53,71794
1047,74; 1705,038;  191,900; 2994,487;53,99078
1048,28; 1676,731;  226,131; 3001,333;52,27007
1048,82; 1709,346;  243,592; 2956,025;54,03835
1049,37; 1686,885;  232,746; 2932,487;53,86216
1049,91; 1668,731;  224,362; 2855,256;54,90032
1050,45; 1647,962;  227,362; 2829,794;54,58739
1050,99; 1625,038;  229,362; 2806,487;54,15635
1051,54; 1587,115;  209,131; 2730,794;54,64586
1052,08; 1599,962;  251,746; 2717,333;54,68132
1052,62; 1568,423;  238,977; 2689,333;54,25523
1053,16; 1519,885;  216,592; 2629,871;54,00504
1053,71; 1528,115;  225,823; 2601,333;54,82160
1054,25; 1502,654;  254,054; 2566,948;53,98431
1054,79; 1486,731;  235,438; 2547,179;54,12772
1055,33; 1427,885;  200,131; 2450,640;54,55448
1055,88; 1454,577;  230,054; 2484,256;54,32180
1056,42; 1452,577;  241,823; 2468,640;54,37149
1056,96; 1412,500;  241,515; 2394,948;54,37758
1057,50; 1395,808;  234,131; 2408,871;53,41681
1058,05; 1370,808;  222,977; 2317,948;54,78981
1058,59; 1383,346;  256,977; 2302,794;55,05718
1059,13; 1321,654;  215,285; 2243,179;54,55754
1059,67; 1335,192;  236,900; 2229,640;55,11467
1060,21; 1308,423;  245,592; 2211,256;54,06982
1060,76; 1318,962;  235,208; 2190,179;55,43580
1061,30; 1303,192;  254,669; 2150,179;55,31616
1061,84; 1265,500;  238,977; 2104,410;55,02868
1062,38; 1221,808;  220,515; 2055,025;54,58092
1062,92; 1258,577;  267,208; 2092,333;54,31788
1063,46; 1227,423;  242,900; 2023,256;55,29923
1064,01; 1197,346;  230,669; 1992,794;54,85859
1064,55; 1195,808;  236,208; 1976,563;55,13815
1065,09; 1159,346;  202,208; 1910,025;56,04455
1065,63; 1176,731;  265,438; 1932,640;54,65998
1066,17; 1178,654;  271,823; 1910,563;55,33706
1066,71; 1149,885;  245,900; 1891,487;54,93388
1067,25; 1111,115;  232,900; 1824,102;55,19195
1067,80; 1118,038;  247,515; 1830,717;54,98497
1068,34; 1126,885;  257,746; 1846,410;54,70878
1068,88; 1067,192;  220,592; 1753,102;55,24272
1069,42; 1101,192;  255,438; 1791,717;55,05211
1069,96; 1067,115;  229,900; 1733,640;55,67553
1070,50; 1094,346;  271,131; 1754,948;55,47956
1071,04; 1029,346;  216,823; 1685,717;55,31529
1071,58; 1032,654;  238,362; 1667,871;55,56397
1072,12; 1016,115;  239,823; 1649,717;55,06032
1072,66; 1008,500;  240,362; 1640,871;54,84707
1073,21; 1008,731;  255,438; 1643,333;54,27592
1073,75;  988,269;  247,823; 1602,256;54,66836
1074,29;  976,038;  237,438; 1575,025;55,21886
1074,83;  985,808;  261,746; 1580,025;54,92476
1075,37;  990,654;  258,669; 1574,102;55,64592
1075,91;  980,885;  243,208; 1527,179;57,45276
1076,45;  954,731;  251,131; 1527,948;55,10577
1076,99;  938,192;  262,669; 1491,410;54,97688
1077,53;  921,962;  229,977; 1465,871;55,99060
1078,07;  926,038;  259,131; 1478,333;54,70035
1078,61;  917,423;  247,208; 1439,025;56,23474
1079,15;  900,808;  240,823; 1419,333;56,00163
1079,69;  891,808;  238,285; 1411,410;55,70788
1080,23;  901,577;  272,438; 1414,333;55,09604
1080,77;  949,115;  314,900; 1445,640;56,08851
1081,31;  877,885;  232,823; 1355,948;57,43453
1081,85;  888,654;  265,054; 1380,794;55,89114
1082,39;  846,192;  240,669; 1324,794;55,85362
1082,93;  853,038;  260,900; 1341,563;54,79397
1083,47;  822,885;  227,823; 1288,102;56,12312
1084,01;  844,962;  254,669; 1299,410;56,50134
1084,55;  803,269;  245,362; 1275,025;54,18350
1085,09;  818,500;  257,669; 1277,025;55,01816
1085,63;  803,962;  252,746; 1253,333;55,08923
1086,17;  791,654;  229,515; 1243,102;55,46033
1086,71;  755,500;  237,054; 1222,717;52,59870
1087,24;  801,423;  263,131; 1234,025;55,44294
1087,78;  799,577;  267,438; 1210,333;56,43671
1088,32;  747,808;  229,054; 1147,640;56,47305
1088,86;  776,115;  258,285; 1194,102;55,33460
1089,40;  756,115;  238,438; 1152,871;56,61181
1089,94;  739,885;  221,515; 1128,717;57,13934
1090,48;  730,577;  247,746; 1130,256;54,71111
1091,02;  749,269;  266,515; 1135,333;55,56448
1091,56;  728,038;  249,285; 1090,487;56,91307
1092,10;  694,115;  221,669; 1072,256;55,54357
1092,63;  741,038;  265,131; 1099,256;57,05472
1093,17;  705,269;  264,669; 1091,179;53,30851
1093,71;  688,885;  227,669; 1046,948;56,29529
1094,25;  709,808;  268,362; 1067,640;55,23056
1094,79;  675,269;  244,054; 1043,025;53,97133
1095,33;  683,577;  256,438; 1041,025;54,44122
1095,87;  676,423;  251,977; 1015,563;55,58586
1096,40;  653,423;  223,515;  985,640;56,40908
1096,94;  670,808;  244,900;  997,563;56,58674
1097,48;  674,346;  267,285;  998,871;55,64093
1098,02;  631,731;  235,208;  964,256;54,38915
1098,56;  608,654;  212,746;  929,871;55,20763
1099,10;  622,808;  228,208;  923,487;56,75421
1099,63;  613,423;  215,438;  921,871;56,33723
1100,17;  625,346;  249,823;  929,102;55,28261
1100,71;  651,115;  268,515;  954,410;55,78120

