
Integration time [ms]: 150,000
Averaging Nr. [scans]: 13
Smoothing Nr. [pixels]: 0
Data measured with spectrometer [name]: 2009305U1
Wave   ;Sample   ;Dark     ;Reference;Reflectance
[nm]   ;[counts] ;[counts] ;[counts] ;[%]

 175,72;  228,377;  220,059;  219,839; 0,00000
 176,32;  245,135;  244,133;  235,111; 0,00000
 176,92;  287,047;  296,904;  286,352; 0,00000
 177,52;  267,757;  278,135;  278,215; 0,00000
 178,12;  236,107;  261,210;  251,705; 0,00000
 178,72;  283,969;  289,210;  260,310; 0,00000
 179,32;  274,046;  273,595;  266,225; 0,00000
 179,92;  276,167;  279,519;  265,978; 0,00000
 180,52;  269,188;  255,753;  268,579;104,74309
 181,12;  279,397;  283,134;  271,317; 0,00000
 181,73;  301,915;  296,827;  283,857; 0,00000
 182,33;  409,710;  403,290;  405,616;275,97057
 182,93;  300,557;  305,905;  290,593; 0,00000
 183,53;  257,322;  261,055;  248,819; 0,00000
 184,13;  258,089;  266,133;  248,344; 0,00000
 184,73;  315,062;  312,440;  294,762; 0,00000
 185,33;  284,361;  268,194;  345,473;20,92066
 185,93;  289,227;  266,500;  362,838;23,59036
 186,53;  297,797;  277,270;  382,013;19,59774
 187,13;  320,962;  292,657;  415,827;22,98072
 187,73;  285,252;  256,193;  363,692;27,03207
 188,33;  294,404;  266,730;  375,280;25,49445
 188,93;  307,794;  274,112;  378,002;32,42055
 189,53;  287,259;  274,109;  398,671;10,55679
 190,13;  334,318;  302,567;  434,752;24,02053
 190,73;  272,813;  237,185;  368,824;27,06510
 191,34;  306,576;  278,495;  406,065;22,01232
 191,94;  275,607;  261,883;  376,661;11,95713
 192,54;  305,153;  267,504;  385,011;32,03987
 193,14;  315,106;  292,041;  397,986;21,77025
 193,74;  292,042;  293,503;  382,193;-1,64622
 194,34;  304,449;  289,119;  385,065;15,97811
 194,94;  267,983;  249,195;  342,210;20,19856
 195,54;  245,938;  222,040;  332,873;21,56159
 196,14;  274,693;  247,427;  348,372;27,01047
 196,74;  266,671;  246,732;  340,255;21,31983
 197,34;  237,716;  210,890;  336,743;21,31577
 197,94;  269,339;  252,118;  374,221;14,10321
 198,54;  281,450;  265,658;  377,640;14,10299
 199,14;  262,808;  233,044;  366,592;22,28711
 199,74;  244,008;  215,352;  344,214;22,23778
 200,34;  241,406;  215,275;  354,490;18,77054
 200,94;  284,787;  252,197;  385,688;24,41370
 201,54;  260,922;  227,198;  405,188;18,94721
 202,14;  299,545;  273,660;  451,776;14,53286
 202,74;  270,420;  238,582;  429,928;16,63885
 203,34;  244,613;  207,738;  438,885;15,95328
 203,94;  216,160;  188,353;  433,807;11,32880
 204,54;  281,534;  266,888;  530,748; 5,55076
 205,14;  240,027;  213,967;  526,552; 8,33702
 205,74;  302,137;  263,738;  594,026;11,62594
 206,34;  250,642;  223,891;  588,575; 7,33537
 206,94;  270,505;  231,352;  631,755; 9,77839
 207,54;  240,054;  212,891;  634,827; 6,43775
 208,14;  265,979;  227,968;  719,908; 7,72685
 208,74;  282,440;  224,736;  773,573;10,51374
 209,34;  257,892;  224,352;  836,153; 5,48219
 209,94;  282,712;  233,736;  911,177; 7,22946
 210,54;  274,974;  224,276;  983,076; 6,68132
 211,14;  286,697;  230,121; 1067,857; 6,75342
 211,73;  296,803;  234,659; 1152,814; 6,76840
 212,33;  306,664;  247,582; 1232,836; 5,99670
 212,93;  297,194;  226,505; 1322,715; 6,44844
 213,53;  275,870;  192,890; 1352,349; 7,15679
 214,13;  312,836;  225,662; 1439,039; 7,18447
 214,73;  287,238;  200,506; 1433,237; 7,03571
 215,33;  275,712;  185,967; 1450,562; 7,09670
 215,93;  315,638;  218,738; 1562,395; 7,21164
 216,53;  290,552;  178,890; 1610,508; 7,79971
 217,13;  344,008;  232,584; 1772,350; 7,23646
 217,73;  327,191;  212,046; 1909,715; 6,78256
 218,33;  310,981;  181,662; 1998,465; 7,11796
 218,93;  366,539;  205,895; 2256,578; 7,83368
 219,53;  380,104;  212,585; 2457,318; 7,46276
 220,13;  373,863;  171,124; 2715,314; 7,96871
 220,73;  406,034;  204,429; 2974,344; 7,27840
 221,32;  443,978;  200,121; 3284,112; 7,90719
 221,92;  476,560;  207,124; 3589,947; 7,96483
 222,52;  480,087;  189,661; 3885,540; 7,85809
 223,12;  529,070;  205,200; 4216,790; 8,07338
 223,72;  559,039;  212,661; 4530,489; 8,02205
 224,32;  600,277;  218,431; 4842,127; 8,25847
 224,92;  594,177;  190,661; 5053,662; 8,29768
 225,52;  649,243;  220,275; 5374,992; 8,32186
 226,12;  659,489;  198,584; 5558,458; 8,59919
 226,72;  666,086;  175,507; 5803,857; 8,71623
 227,31;  690,371;  171,507; 6079,777; 8,78200
 227,91;  775,848;  220,044; 6386,690; 9,01307
 228,51;  779,171;  197,120; 6656,797; 9,01052
 229,11;  834,191;  199,891; 6967,339; 9,37280
 229,71;  845,817;  193,813; 7214,628; 9,28673
 230,31;  894,090;  184,969; 7483,812; 9,71552
 230,91;  911,578;  174,273; 7733,655; 9,75350
 231,51;  949,783;  179,276; 7951,943; 9,91303
 232,10; 1016,773;  188,739; 8162,007;10,38513
 232,70; 1047,911;  209,042; 8372,758;10,27558
 233,30; 1082,115;  232,122; 8534,145;10,23838
 233,90; 1101,169;  188,430; 8662,449;10,77103
 234,50; 1124,849;  191,122; 8700,749;10,97259
 235,10; 1170,870;  180,815; 8734,354;11,57479
 235,70; 1202,022;  213,890; 8729,182;11,60420
 236,29; 1217,875;  206,505; 8613,828;12,02962
 236,89; 1224,289;  176,658; 8461,795;12,64470
 237,49; 1255,555;  208,661; 8375,802;12,81837
 238,09; 1246,103;  194,122; 8112,345;13,28558
 238,69; 1301,969;  253,042; 7921,225;13,67895
 239,29; 1250,335;  195,891; 7634,005;14,17623
 239,89; 1227,158;  197,351; 7351,182;14,39519
 240,48; 1215,619;  194,814; 7022,188;14,95165
 241,08; 1206,251;  193,814; 6725,598;15,50017
 241,68; 1207,822;  210,429; 6503,090;15,85010
 242,28; 1163,296;  186,276; 6208,935;16,22241
 242,88; 1202,344;  243,354; 5978,661;16,72081
 243,48; 1183,509;  239,430; 5695,796;17,30234
 244,07; 1165,441;  207,506; 5548,840;17,93437
 244,67; 1165,764;  223,968; 5400,152;18,19479
 245,27; 1157,496;  223,197; 5286,737;18,45148
 245,87; 1157,576;  226,508; 5191,014;18,75449
 246,47; 1144,903;  206,582; 5187,971;18,83654
 247,06; 1179,324;  188,814; 5185,657;19,82271
 247,66; 1189,033;  193,506; 5215,136;19,82478
 248,26; 1243,737;  217,198; 5355,809;19,97698
 248,86; 1265,764;  214,736; 5496,138;19,90056
 249,46; 1260,584;  161,430; 5668,629;19,95849
 250,05; 1344,989;  212,968; 5986,021;19,60870
 250,65; 1372,497;  174,966; 6167,859;19,98251
 251,25; 1461,710;  191,506; 6617,318;19,76721
 251,85; 1532,123;  197,966; 7047,216;19,47888
 252,44; 1601,417;  183,429; 7553,263;19,24043
 253,04; 1716,419;  206,506; 8118,805;19,08312
 253,64; 1786,948;  159,659; 8738,018;18,96970
 254,24; 1942,943;  215,199; 9500,630;18,60704
 254,84; 2042,430;  181,584;10343,706;18,31159
 255,43; 2164,366;  200,429;11114,700;17,99422
 256,03; 2272,163;  197,428;11984,037;17,60247
 256,63; 2449,112;  199,812;12838,099;17,79751
 257,23; 2490,831;  197,120;13650,075;17,04987
 257,82; 2658,255;  207,427;14628,421;16,99487
 258,42; 2707,516;  176,580;15329,840;16,70225
 259,02; 2835,900;  226,429;16241,836;16,29351
 259,62; 2895,171;  182,195;16840,254;16,28627
 260,21; 2975,736;  211,044;17450,764;16,03676
 260,81; 3006,397;  201,814;17992,983;15,76391
 261,41; 2996,587;  176,965;18444,469;15,43518
 262,01; 3071,854;  228,426;18940,842;15,19541
 262,60; 3046,369;  188,120;19269,383;14,97935
 263,20; 3085,977;  186,890;19666,922;14,88235
 263,80; 3092,566;  221,964;19809,334;14,65537
 264,40; 3059,545;  181,195;20067,643;14,47393
 264,99; 3047,428;  209,810;20302,700;14,12250
 265,59; 3044,766;  188,347;20477,711;14,07841
 266,19; 3021,997;  187,656;20695,956;13,82045
 266,78; 3081,574;  232,809;20808,334;13,84540
 267,38; 3004,188;  207,963;20827,682;13,56093
 267,98; 3008,820;  209,117;20843,731;13,56799
 268,58; 2991,242;  207,117;20903,679;13,45211
 269,17; 2924,782;  186,577;20957,009;13,18319
 269,77; 2879,952;  212,581;20879,353;12,90657
 270,37; 2845,371;  187,656;20705,884;12,95294
 270,96; 2854,859;  231,119;20633,688;12,85985
 271,56; 2788,858;  191,120;20455,634;12,81915
 272,16; 2748,230;  192,580;20189,875;12,77998
 272,75; 2704,102;  202,196;20272,543;12,46569
 273,35; 2698,239;  202,196;20236,517;12,45884
 273,95; 2711,918;  197,426;20101,472;12,63307
 274,54; 2646,316;  175,275;20201,359;12,33911
 275,14; 2725,935;  225,888;20492,182;12,33598
 275,74; 2659,264;  170,657;20486,687;12,24948
 276,33; 2744,610;  229,350;20803,386;12,22541
 276,93; 2798,430;  218,660;21101,099;12,35377
 277,53; 2785,921;  197,121;21620,065;12,08424
 278,12; 2853,564;  181,274;21953,294;12,27397
 278,72; 3006,541;  256,582;22466,776;12,38151
 279,32; 3036,699;  193,736;22982,101;12,47550
 279,91; 3080,970;  176,890;23591,053;12,40309
 280,51; 3205,309;  200,890;23952,577;12,64929
 281,11; 3272,793;  201,197;24617,127;12,58029
 281,70; 3329,686;  171,889;25020,332;12,70823
 282,30; 3479,012;  202,812;25560,327;12,92004
 282,90; 3535,901;  194,120;25900,899;12,99961
 283,49; 3649,747;  205,350;26268,446;13,21561
 284,09; 3779,187;  226,735;26763,393;13,38696
 284,69; 3862,926;  235,197;27083,359;13,51202
 285,28; 4002,372;  219,274;27335,695;13,95132
 285,88; 4110,195;  284,349;27558,447;14,02740
 286,47; 4125,009;  199,889;27665,739;14,29091
 287,07; 4287,807;  234,736;27693,556;14,76054
 287,67; 4421,124;  216,661;27810,411;15,23701
 288,26; 4499,661;  194,659;27831,777;15,57688
 288,86; 4662,837;  190,351;27780,514;16,21044
 289,46; 4863,677;  207,505;28017,758;16,74265
 290,05; 4992,817;  198,198;28030,312;17,22693
 290,65; 5204,209;  190,966;28193,098;17,90308
 291,24; 5472,968;  205,198;28329,040;18,73062
 291,84; 5696,650;  216,581;28469,176;19,39669
 292,44; 5898,154;  222,815;28563,052;20,02573
 293,03; 6226,725;  286,121;28746,923;20,87293
 293,63; 6306,108;  209,120;28796,357;21,32766
 294,22; 6533,497;  224,274;28972,167;21,94673
 294,82; 6721,857;  195,041;29038,924;22,62808
 295,41; 6831,763;  179,812;28741,332;23,28990
 296,01; 6954,781;  232,042;28716,960;23,60105
 296,61; 7013,526;  225,967;28459,378;24,04087
 297,20; 7053,623;  202,580;28170,096;24,49643
 297,80; 7166,920;  216,968;28132,858;24,89604
 298,39; 7135,662;  188,427;27753,524;25,20301
 298,99; 7248,267;  227,657;27623,153;25,62687
 299,58; 7277,718;  220,122;27562,992;25,81147
 300,18; 7288,767;  223,814;27299,287;26,09355
 300,78; 7280,004;  199,736;27016,165;26,40273
 301,37; 7331,241;  223,425;27044,086;26,50127
 301,97; 7402,731;  229,197;27053,448;26,74272
 302,56; 7413,421;  198,427;26910,529;27,01021
 303,16; 7438,988;  177,119;26880,826;27,19423
 303,75; 7457,323;  191,121;26905,775;27,19931
 304,35; 7543,167;  191,892;27131,436;27,28805
 304,94; 7578,504;  194,736;27120,113;27,42308
 305,54; 7655,363;  229,275;27073,881;27,66324
 306,13; 7605,039;  163,277;27079,258;27,64812
 306,73; 7549,966;  182,276;26829,317;27,64919
 307,33; 7627,240;  215,199;26837,088;27,84191
 307,92; 7664,594;  208,967;26898,695;27,93445
 308,52; 7745,346;  181,196;27253,927;27,94011
 309,11; 7868,466;  195,349;27664,861;27,93321
 309,71; 7969,635;  173,887;27967,959;28,04824
 310,30; 8006,953;  200,044;28164,104;27,91765
 310,90; 8173,722;  246,967;28445,181;28,11084
 311,49; 8148,442;  211,582;28591,433;27,96653
 312,09; 8222,405;  170,968;28799,598;28,12373
 312,68; 8369,870;  272,582;29061,811;28,12610
 313,28; 8358,133;  186,044;29195,234;28,17069
 313,87; 8339,092;  164,274;29338,553;28,02063
 314,47; 8457,172;  196,272;29582,828;28,11115
 315,06; 8460,267;  182,813;29634,434;28,10526
 315,66; 8490,021;  180,429;29838,983;28,01752
 316,25; 8427,422;  168,966;29707,112;27,95861
 316,85; 8416,309;  166,429;29844,952;27,79747
 317,44; 8435,735;  183,965;29965,107;27,70804
 318,04; 8394,231;  177,658;29952,748;27,59546
 318,63; 8391,285;  169,276;30035,972;27,52902
 319,22; 8413,383;  190,966;30189,128;27,40974
 319,82; 8320,533;  193,735;30266,455;27,02382
 320,41; 8352,255;  218,120;30140,489;27,18413
 321,01; 8290,848;  216,044;30224,613;26,90833
 321,60; 8291,229;  206,351;30290,966;26,87380
 322,20; 8186,136;  188,505;30278,437;26,57909
 322,79; 8265,356;  215,736;30386,859;26,67988
 323,39; 8165,675;  182,584;30387,488;26,42979
 323,98; 8091,978;  175,505;30420,496;26,17449
 324,58; 8070,973;  183,273;30356,813;26,14112
 325,17; 8010,437;  191,889;30287,818;25,97876
 325,76; 7954,715;  208,274;30100,390;25,91466
 326,36; 7778,814;  188,044;29826,570;25,61116
 326,95; 7754,333;  215,197;29616,480;25,64220
 327,55; 7621,541;  179,581;29302,445;25,55367
 328,14; 7489,684;  180,968;28946,224;25,40814
 328,74; 7396,990;  216,812;28545,984;25,34553
 329,33; 7271,976;  206,275;28335,099;25,11908
 329,92; 7085,547;  175,042;27842,756;24,97678
 330,52; 6924,799;  212,660;27254,317;24,82148
 331,11; 6797,087;  194,274;26905,621;24,71913
 331,71; 6641,047;  194,274;26370,284;24,62855
 332,30; 6527,581;  217,351;26084,189;24,39506
 332,89; 6449,234;  283,967;25567,427;24,38459
 333,49; 6202,036;  209,812;25049,289;24,12379
 334,08; 6098,684;  196,812;24639,713;24,14555
 334,68; 5936,103;  196,043;24338,140;23,77614
 335,27; 5889,844;  219,507;23951,048;23,89368
 335,86; 5823,471;  267,582;23773,621;23,63601
 336,46; 5687,155;  217,968;23539,405;23,45133
 337,05; 5599,602;  193,043;23364,156;23,33319
 337,65; 5538,960;  186,966;23286,565;23,16921
 338,24; 5545,251;  257,198;23232,838;23,01591
 338,83; 5464,089;  227,429;23044,540;22,95059
 339,43; 5468,425;  202,043;23179,624;22,91966
 340,02; 5409,626;  206,581;23090,444;22,73674
 340,61; 5427,871;  199,967;23105,317;22,82394
 341,21; 5389,529;  228,812;23102,830;22,56148
 341,80; 5379,353;  206,889;23027,556;22,66570
 342,40; 5348,407;  215,968;23106,096;22,42206
 342,99; 5395,234;  217,660;23249,812;22,47977
 343,58; 5382,130;  203,429;23336,406;22,38666
 344,18; 5415,587;  229,429;23501,004;22,28537
 344,77; 5447,669;  192,504;23713,863;22,34210
 345,36; 5440,871;  200,120;23982,249;22,03651
 345,96; 5575,922;  226,352;24303,794;22,21818
 346,55; 5583,064;  191,123;24492,922;22,18741
 347,14; 5607,749;  191,045;24746,293;22,05925
 347,74; 5699,545;  184,124;25075,935;22,15757
 348,33; 5841,535;  202,970;25719,170;22,09798
 348,92; 5987,976;  216,201;26157,009;22,24979
 349,52; 6031,340;  197,047;26639,250;22,06432
 350,11; 6082,135;  214,350;26847,188;22,03214
 350,70; 6080,529;  210,813;26963,736;21,94047
 351,29; 6034,012;  202,348;26696,100;22,01147
 351,89; 6050,378;  231,657;26695,513;21,98743
 352,48; 6057,956;  202,198;26809,385;22,00818
 353,07; 6056,298;  243,276;26673,903;21,99351
 353,67; 6047,213;  236,432;26612,724;22,03032
 354,26; 5985,299;  218,506;26397,179;22,02859
 354,85; 5976,882;  226,968;26325,534;22,03153
 355,45; 5926,027;  203,120;26194,801;22,01823
 356,04; 5929,678;  209,507;26137,809;22,06149
 356,63; 5944,259;  256,582;25949,606;22,13705
 357,22; 5882,336;  222,118;25757,303;22,16635
 357,82; 5872,788;  217,657;25677,760;22,21174
 358,41; 5928,700;  245,967;25592,300;22,42034
 359,00; 5806,206;  200,504;25463,741;22,18917
 359,60; 5832,009;  225,429;25318,490;22,34315
 360,19; 5862,873;  247,892;25197,413;22,50537
 360,78; 5834,938;  226,581;25028,254;22,61281
 361,37; 5787,830;  213,120;24979,030;22,50961
 361,97; 5836,024;  236,736;24760,050;22,83251
 362,56; 5767,539;  226,196;24554,526;22,77732
 363,15; 5826,911;  296,504;24384,202;22,95947
 363,74; 5716,384;  240,811;24035,490;23,01175
 364,34; 5686,764;  254,119;23692,079;23,17883
 364,93; 5606,828;  225,504;23376,310;23,24465
 365,52; 5530,164;  203,582;23014,467;23,35105
 366,11; 5534,910;  218,658;22762,319;23,58203
 366,71; 5517,614;  223,581;22404,821;23,86716
 367,30; 5432,386;  240,505;22125,708;23,72325
 367,89; 5447,517;  259,121;21940,565;23,93012
 368,48; 5409,014;  245,965;21650,964;24,12076
 369,07; 5353,837;  238,428;21260,582;24,33342
 369,67; 5335,375;  260,734;21081,993;24,37240
 370,26; 5298,082;  221,198;20727,594;24,75757
 370,85; 5292,691;  234,043;20484,043;24,98098
 371,44; 5274,801;  237,428;20344,195;25,05312
 372,03; 5213,391;  208,119;20084,965;25,18142
 372,63; 5200,005;  198,889;19851,219;25,44796
 373,22; 5206,172;  225,659;19566,064;25,75185
 373,81; 5120,602;  214,735;19257,156;25,76283
 374,40; 5137,157;  217,122;19095,341;26,06197
 374,99; 5103,084;  214,581;18818,155;26,27723
 375,59; 5043,162;  222,122;18649,898;26,16181
 376,18; 5094,957;  241,889;18485,669;26,60122
 376,77; 5085,862;  247,505;18322,983;26,76752
 377,36; 5126,272;  266,428;18254,461;27,01709
 377,95; 5084,782;  252,735;18024,449;27,18954
 378,55; 5102,002;  215,891;17939,536;27,56832
 379,14; 5143,029;  249,197;17780,036;27,91556
 379,73; 5136,105;  237,812;17711,692;28,03209
 380,32; 5181,189;  233,890;17803,167;28,15881
 380,91; 5165,140;  204,350;17635,943;28,45862
 381,50; 5198,585;  233,658;17607,379;28,57722
 382,10; 5205,266;  227,813;17520,244;28,78400
 382,69; 5208,072;  198,428;17476,839;28,99366
 383,28; 5297,715;  244,965;17412,792;29,43150
 383,87; 5288,615;  218,273;17300,327;29,68227
 384,46; 5298,660;  221,503;17238,428;29,83593
 385,05; 5390,419;  242,811;17208,185;30,34185
 385,64; 5410,602;  220,273;17237,165;30,50104
 386,24; 5415,030;  213,503;17209,954;30,60361
 386,83; 5523,350;  240,964;17219,270;31,11256
 387,42; 5583,309;  243,043;17280,640;31,34401
 388,01; 5654,349;  251,732;17463,012;31,38997
 388,60; 5746,340;  242,811;17692,420;31,53956
 389,19; 5879,768;  222,039;17776,810;32,22901
 389,78; 5988,720;  212,039;18081,791;32,32659
 390,37; 6216,229;  290,348;18425,585;32,67606
 390,96; 6239,565;  247,195;18538,289;32,76113
 391,56; 6371,798;  245,038;18650,999;33,28683
 392,15; 6443,734;  226,039;18893,374;33,30789
 392,74; 6509,940;  197,729;19049,831;33,48280
 393,33; 6672,942;  234,500;19341,004;33,69765
 393,92; 6838,219;  245,651;19701,937;33,88400
 394,51; 6956,554;  228,038;19784,570;34,40546
 395,10; 7059,116;  260,725;20078,734;34,30410
 395,69; 7168,567;  259,803;20168,346;34,70251
 396,28; 7266,983;  247,186;20289,710;35,02452
 396,87; 7323,794;  265,568;20384,471;35,08256
 397,46; 7394,200;  282,182;20462,379;35,24256
 398,06; 7537,078;  294,795;20668,445;35,54730
 398,65; 7625,929;  269,560;20697,307;36,01165
 399,24; 7701,792;  300,482;20815,419;36,07766
 399,83; 7717,566;  245,398;20785,856;36,37781
 400,42; 7883,274;  311,238;20996,048;36,60674
 401,01; 7969,883;  293,462;21115,874;36,86615
 401,60; 8036,616;  298,299;21093,710;37,21166
 402,19; 8102,537;  326,829;21076,134;37,47454
 402,78; 8124,717;  332,587;21090,613;37,53792
 403,37; 8127,768;  298,883;20908,625;37,98633
 403,96; 8093,568;  310,947;20808,678;37,96821
 404,55; 8099,436;  327,086;20680,261;38,18741
 405,14; 8083,195;  297,612;20596,325;38,35506
 405,73; 8117,418;  316,596;20538,783;38,57556
 406,32; 8155,718;  329,355;20506,156;38,78892
 406,91; 8137,212;  310,727;20219,544;39,31165
 407,50; 8119,358;  319,260;20140,040;39,35313
 408,09; 8044,320;  296,102;19900,824;39,52220
 408,68; 8046,793;  292,175;19757,492;39,83813
 409,27; 8048,657;  303,487;19620,873;40,09430
 409,86; 8030,779;  295,804;19514,918;40,24626
 410,45; 8067,765;  351,658;19420,853;40,46372
 411,04; 8092,080;  335,359;19389,900;40,70799
 411,63; 8025,302;  315,292;19122,469;40,99504
 412,22; 7972,228;  327,763;18965,820;41,01535
 412,81; 7917,218;  346,228;18723,003;41,19869
 413,40; 7859,353;  357,309;18411,480;41,55297
 413,99; 7830,838;  394,616;18222,700;41,71072
 414,58; 7639,206;  301,001;17844,281;41,82915
 415,17; 7610,187;  332,613;17610,702;42,12025
 415,76; 7537,922;  320,301;17487,526;42,04303
 416,35; 7498,633;  305,149;17364,331;42,16781
 416,94; 7579,155;  339,610;17399,599;42,43582
 417,53; 7704,566;  311,536;17494,331;43,02577
 418,12; 7771,396;  323,306;17587,065;43,14292
 418,71; 7920,975;  332,233;17889,195;43,22355
 419,30; 7940,151;  318,999;17967,627;43,18269
 419,89; 8067,843;  301,692;18141,650;43,53234
 420,48; 8213,802;  335,387;18339,088;43,75998
 421,07; 8265,151;  318,695;18370,683;44,01984
 421,66; 8280,858;  307,235;18429,547;43,99893
 422,25; 8310,608;  313,547;18541,033;43,87364
 422,84; 8322,180;  318,086;18468,791;44,09798
 423,43; 8229,186;  310,469;18235,917;44,17584
 424,02; 8206,766;  344,547;18024,512;44,46965
 424,60; 8047,330;  307,859;17727,874;44,42861
 425,19; 7938,033;  316,164;17443,027;44,50242
 425,78; 7959,586;  333,088;17302,379;44,94294
 426,37; 7884,502;  331,012;17167,176;44,86467
 426,96; 7829,087;  311,705;17092,413;44,79776
 427,55; 7800,902;  307,630;16998,108;44,89549
 428,14; 7727,614;  296,632;16782,352;45,07527
 428,73; 7646,669;  303,014;16579,619;45,11786
 429,32; 7679,554;  335,012;16622,322;45,09364
 429,91; 7732,676;  348,629;16632,026;45,34709
 430,50; 7679,641;  336,246;16431,920;45,62341
 431,08; 7621,737;  342,709;16367,272;45,42419
 431,67; 7624,421;  383,326;16265,187;45,59350
 432,26; 7603,080;  396,173;16116,511;45,84448
 432,85; 7507,136;  417,865;15847,059;45,94712
 433,44; 7361,652;  435,097;15563,953;45,78373
 434,03; 7249,203;  443,484;15247,034;45,97356
 434,62; 7106,978;  407,790;14912,630;46,18588
 435,21; 6987,181;  422,404;14675,251;46,05941
 435,79; 6986,670;  432,253;14492,952;46,61516
 436,38; 6931,140;  402,255;14413,445;46,59765
 436,97; 6834,257;  396,178;14334,081;46,19116
 437,56; 6821,782;  401,413;14204,784;46,51305
 438,15; 6755,995;  389,643;14149,776;46,26665
 438,74; 6846,147;  414,181;14124,993;46,91163
 439,33; 6783,846;  364,181;14122,486;46,66029
 439,91; 6802,032;  341,336;14191,729;46,64630
 440,50; 6846,393;  387,260;14255,296;46,57569
 441,09; 6898,481;  390,492;14281,341;46,85091
 441,68; 6891,057;  356,802;14350,824;46,69319
 442,27; 6875,250;  344,109;14346,400;46,64338
 442,86; 6861,308;  323,344;14288,724;46,81551
 443,44; 6916,160;  338,728;14348,488;46,94893
 444,03; 7001,577;  430,421;14433,586;46,92622
 444,62; 6891,642;  355,267;14270,084;46,97421
 445,21; 6839,030;  364,343;14187,912;46,83803
 445,80; 6827,373;  397,730;14069,612;47,02822
 446,39; 6751,833;  440,653;13915,268;46,83755
 446,97; 6634,040;  343,579;13679,755;47,16840
 447,56; 6529,581;  345,889;13496,117;47,02346
 448,15; 6456,290;  356,810;13334,247;47,00066
 448,74; 6367,854;  366,733;13138,562;46,98717
 449,33; 6321,714;  355,504;13006,050;47,16168
 449,91; 6241,088;  357,121;12813,667;47,23594
 450,50; 6128,391;  360,659;12613,273;47,07348
 451,09; 6089,143;  366,429;12513,170;47,11316
 451,68; 6106,472;  389,045;12469,382;47,32837
 452,26; 6017,892;  402,892;12365,222;46,93902
 452,85; 5949,846;  371,507;12247,917;46,96991
 453,44; 5998,988;  393,356;12264,864;47,21921
 454,03; 5950,765;  362,585;12204,112;47,19138
 454,61; 5960,891;  332,049;12204,865;47,40949
 455,20; 6036,334;  387,127;12345,016;47,24252
 455,79; 6049,361;  390,356;12389,756;47,16074
 456,38; 6062,859;  405,898;12419,207;47,08911
 456,97; 6059,643;  378,590;12488,537;46,91229
 457,55; 6047,992;  370,822;12503,507;46,79236
 458,14; 6057,487;  415,281;12467,731;46,81377
 458,73; 6045,125;  393,437;12383,278;47,13731
 459,31; 6051,452;  422,439;12473,698;46,70892
 459,90; 6108,405;  445,515;12498,511;46,98325
 460,49; 6181,174;  511,822;12630,366;46,78245
 461,08; 6108,604;  395,055;12708,907;46,39936
 461,66; 6154,722;  392,670;12696,836;46,83009
 462,25; 6154,102;  400,826;12804,869;46,38227
 462,84; 6214,045;  424,286;12849,446;46,59705
 463,43; 6132,155;  368,828;12809,595;46,32614
 464,01; 6160,811;  399,059;12824,298;46,37135
 464,60; 6207,213;  469,904;12787,926;46,57655
 465,19; 6012,534;  376,214;12511,745;46,44478
 465,77; 6070,109;  410,599;12549,661;46,62229
 466,36; 5993,243;  431,674;12477,865;46,16869
 466,95; 5858,257;  409,982;12214,910;46,15255
 467,53; 5780,471;  418,677;12000,333;46,29557
 468,12; 5660,773;  446,370;11768,270;46,05590
 468,71; 5603,921;  414,829;11542,980;46,63032
 469,29; 5465,040;  393,370;11284,625;46,56644
 469,88; 5326,143;  416,833;11076,470;46,05513
 470,47; 5416,197;  474,296;11198,594;46,08135
 471,06; 5356,170;  434,911;11175,804;45,81796
 471,64; 5417,581;  424,680;11180,558;46,42020
 472,23; 5357,109;  400,530;11186,541;45,95377
 472,81; 5396,234;  411,605;11318,162;45,70305
 473,40; 5479,277;  409,145;11414,477;46,06978
 473,99; 5650,608;  536,145;11605,788;46,20260
 474,57; 5600,997;  421,453;11664,498;46,06887
 475,16; 5662,871;  425,144;11839,922;45,88549
 475,75; 5718,808;  455,993;11947,777;45,79633
 476,33; 5726,184;  451,994;11995,877;45,68818
 476,92; 5718,768;  456,992;12030,688;45,46323
 477,51; 5751,204;  443,917;12123,686;45,44000
 478,09; 5765,326;  445,840;12147,384;45,45970
 478,68; 5704,819;  451,686;12061,215;45,24846
 479,27; 5773,769;  472,377;12132,331;45,46666
 479,85; 5770,320;  442,994;12072,738;45,80776
 480,44; 5756,600;  423,456;12148,708;45,48426
 481,02; 6189,569;  452,227;13208,389;44,97703
 481,61; 6987,023;  475,457;14955,253;44,97001
 482,20; 7406,165;  452,534;16086,974;44,47637
 482,78; 7756,717;  481,225;16807,891;44,56202
 483,37; 7982,996;  477,459;17312,735;44,58220
 483,95; 8115,478;  515,075;17579,725;44,53888
 484,54; 8118,197;  500,918;17751,560;44,15650
 485,13; 8127,653;  481,000;17642,236;44,55771
 485,71; 7995,930;  443,614;17468,636;44,36009
 486,30; 7948,822;  504,615;17239,488;44,48320
 486,88; 7852,208;  567,923;16980,371;44,38269
 487,47; 7557,363;  514,308;16399,176;44,33814
 488,05; 7241,501;  506,462;15653,955;44,46306
 488,64; 6771,515;  498,310;14593,521;44,50594
 489,23; 6163,302;  510,386;13069,524;45,01039
 489,81; 5291,942;  510,771;11155,948;44,91397
 490,40; 4954,025;  457,617;10496,463;44,79008
 490,98; 4837,983;  448,464;10243,882;44,81196
 491,57; 4760,709;  473,001;10124,251;44,42645
 492,15; 4755,689;  450,310;10098,388;44,62421
 492,74; 4725,289;  463,462;10020,248;44,59476
 493,32; 4684,283;  461,156; 9944,783;44,53072
 493,91; 4615,696;  452,619; 9857,094;44,26698
 494,50; 4601,519;  454,621; 9793,626;44,40406
 495,08; 4547,743;  430,160; 9764,526;44,11208
 495,67; 4561,486;  470,080; 9742,939;44,12238
 496,25; 4476,742;  403,697; 9575,083;44,41036
 496,84; 4466,798;  408,080; 9641,341;43,95758
 497,42; 4419,781;  407,236; 9589,442;43,69914
 498,01; 4418,069;  431,388; 9532,746;43,80314
 498,59; 4344,992;  391,005; 9441,521;43,68797
 499,18; 4336,518;  384,003; 9425,815;43,71375
 499,76; 4369,800;  423,081; 9400,206;43,96417
 500,35; 4226,049;  414,237; 9110,549;43,83251
 500,93; 4219,655;  399,390; 9166,617;43,57438
 501,52; 4156,550;  394,236; 9082,243;43,30468
 502,10; 4181,458;  407,777; 9058,041;43,62504
 502,69; 4083,761;  385,085; 8889,046;43,49356
 503,27; 4025,337;  364,237; 8767,989;43,56507
 503,86; 3950,036;  396,085; 8717,401;42,70900
 504,44; 3928,985;  357,470; 8556,861;43,55829
 505,03; 3819,842;  357,624; 8381,055;43,15134
 505,61; 3801,602;  365,470; 8265,644;43,49439
 506,19; 3744,816;  378,163; 8144,080;43,35165
 506,78; 3655,043;  363,241; 7943,035;43,42864
 507,36; 3585,197;  360,239; 7839,184;43,12049
 507,95; 3496,891;  358,704; 7738,646;42,52320
 508,53; 3478,282;  352,241; 7598,333;43,14105
 509,12; 3430,512;  359,703; 7512,632;42,93079
 509,70; 3392,164;  389,319; 7357,865;43,09140
 510,29; 3327,435;  396,243; 7276,338;42,60394
 510,87; 3236,182;  357,087; 7066,022;42,91433
 511,46; 3188,852;  340,780; 6983,978;42,87200
 512,04; 3114,896;  369,243; 6844,347;42,40323
 512,62; 3092,206;  362,780; 6696,754;43,09184
 513,21; 3017,715;  337,551; 6626,702;42,61567
 513,79; 2955,832;  353,400; 6481,334;42,46834
 514,38; 2881,084;  319,630; 6345,079;42,51060
 514,96; 2862,547;  383,707; 6282,739;42,02113
 515,54; 2788,593;  332,015; 6144,275;42,26545
 516,13; 2789,857;  359,092; 6045,812;42,74459
 516,71; 2709,330;  335,862; 5951,219;42,26745
 517,30; 2634,455;  327,787; 5809,329;42,08064
 517,88; 2639,813;  351,248; 5779,046;42,16378
 518,46; 2569,810;  331,249; 5651,680;42,07481
 519,05; 2561,735;  335,172; 5613,445;42,18356
 519,63; 2545,480;  343,634; 5590,174;41,96759
 520,22; 2515,623;  355,405; 5514,646;41,87086
 520,80; 2463,534;  334,405; 5473,715;41,42831
 521,38; 2514,096;  395,480; 5447,396;41,93687
 521,97; 2447,690;  335,329; 5382,787;41,85000
 522,55; 2436,348;  356,021; 5386,283;41,35624
 523,13; 2416,583;  331,406; 5359,246;41,47261
 523,72; 2384,168;  335,402; 5333,935;40,98734
 524,30; 2463,120;  373,330; 5476,038;40,95453
 524,89; 2446,985;  317,329; 5451,164;41,48276
 525,47; 2490,745;  344,177; 5541,219;41,30365
 526,05; 2474,405;  307,561; 5591,026;41,01179
 526,64; 2544,840;  344,177; 5713,657;40,98466
 527,22; 2573,380;  342,253; 5800,480;40,87639
 527,80; 2614,241;  386,331; 5864,484;40,66900
 528,39; 2610,729;  325,255; 5897,066;41,01851
 528,97; 2652,412;  325,947; 6093,194;40,33927
 529,55; 2701,221;  351,560; 6193,788;40,21858
 530,14; 2792,107;  360,409; 6380,112;40,39565
 530,72; 2792,304;  329,408; 6463,046;40,15392
 531,30; 2836,633;  309,102; 6567,181;40,38829
 531,89; 2847,687;  339,101; 6668,332;39,63492
 532,47; 2908,492;  367,179; 6760,796;39,74766
 533,05; 2921,195;  354,946; 6794,555;39,85101
 533,63; 2894,648;  349,256; 6830,877;39,27092
 534,22; 2908,990;  332,179; 6850,228;39,53347
 534,80; 2943,829;  360,565; 6992,758;38,95037
 535,38; 3060,732;  465,332; 7061,139;39,34923
 535,97; 2927,407;  334,717; 7007,113;38,85695
 536,55; 2997,520;  393,334; 7050,405;39,11909
 537,13; 2956,726;  387,024; 7025,700;38,70804
 537,71; 2994,277;  424,563; 7075,170;38,63879
 538,30; 3024,268;  437,103; 7125,732;38,68006
 538,88; 3077,660;  470,566; 7249,189;38,46053
 539,46; 3143,102;  532,103; 7401,946;38,00667
 540,05; 3184,186;  523,643; 7479,267;38,25025
 540,63; 3242,113;  564,335; 7665,393;37,70956
 541,21; 3305,254;  602,182; 7839,915;37,34695
 541,79; 3366,770;  626,951; 7931,296;37,50943
 542,38; 3446,199;  649,258; 7995,737;38,07186
 542,96; 3466,321;  657,183; 8163,133;37,42548
 543,54; 3571,432;  693,951; 8313,117;37,76635
 544,12; 3565,837;  662,951; 8372,876;37,65129
 544,70; 3563,074;  644,721; 8485,152;37,22184
 545,29; 3619,871;  649,489; 8602,091;37,35108
 545,87; 3609,462;  644,951; 8649,065;37,03734
 546,45; 3585,711;  587,565; 8638,453;37,23993
 547,03; 3573,241;  580,258; 8751,531;36,62811
 547,62; 3597,722;  553,490; 8838,706;36,74295
 548,20; 3641,422;  561,337; 8978,950;36,59096
 548,78; 3637,003;  522,877; 9065,672;36,45323
 549,36; 3669,296;  496,646; 9190,936;36,49119
 549,94; 3662,467;  462,952; 9313,536;36,15033
 550,53; 3739,603;  465,261; 9505,822;36,21834
 551,11; 3751,096;  416,263; 9627,567;36,20370
 551,69; 3841,204;  443,569; 9876,538;36,01872
 552,27; 3890,418;  386,645;10085,376;36,12609
 552,85; 3950,434;  404,263;10370,253;35,58273
 553,44; 4046,147;  407,800;10633,415;35,58072
 554,02; 4110,687;  407,031;10902,913;35,28675
 554,60; 4134,072;  353,032;11157,288;34,99583
 555,18; 4299,889;  403,570;11510,163;35,08114
 555,76; 4370,468;  380,262;11787,107;34,98080
 556,34; 4465,839;  379,033;12088,728;34,90105
 556,93; 4559,234;  378,493;12359,487;34,89478
 557,51; 4639,215;  341,571;12642,045;34,93885
 558,09; 4750,738;  380,800;13024,674;34,56170
 558,67; 4848,457;  369,880;13360,339;34,47590
 559,25; 4926,475;  382,110;13550,794;34,50888
 559,83; 4960,811;  363,880;13792,567;34,23217
 560,41; 5033,425;  355,033;14055,671;34,14726
 561,00; 5153,787;  372,880;14372,880;34,14934
 561,58; 5181,003;  356,956;14549,424;33,99019
 562,16; 5268,053;  352,724;14810,534;33,99774
 562,74; 5328,260;  342,724;15169,571;33,62506
 563,32; 5416,611;  337,188;15520,945;33,45300
 563,90; 5523,853;  347,495;15847,994;33,39478
 564,48; 5598,935;  365,878;16100,844;33,25750
 565,06; 5727,569;  351,418;16628,812;33,02833
 565,65; 5865,823;  356,343;17214,512;32,68136
 566,23; 6090,514;  407,803;17829,462;32,61866
 566,81; 6238,044;  344,879;18389,250;32,65930
 567,39; 6439,267;  347,265;19136,196;32,42335
 567,97; 6599,485;  380,418;19670,789;32,23923
 568,55; 6825,442;  401,880;20462,856;32,02019
 569,13; 6978,122;  342,495;20941,625;32,21314
 569,71; 7161,853;  350,955;21809,989;31,73907
 570,29; 7498,254;  386,108;22649,825;31,94501
 570,87; 7634,774;  395,032;23273,292;31,64464
 571,45; 7728,288;  372,034;23807,095;31,38995
 572,03; 7781,842;  324,420;24254,552;31,16331
 572,61; 7970,231;  326,496;24871,809;31,14132
 573,20; 8084,077;  365,648;25371,827;30,86608
 573,78; 8228,776;  338,034;25980,062;30,77269
 574,36; 8340,736;  367,880;26388,119;30,64098
 574,94; 8428,648;  435,574;26697,061;30,43649
 575,52; 8435,726;  346,806;26860,156;30,50886
 576,10; 8587,207;  413,036;27417,888;30,26927
 576,68; 8660,884;  386,035;27838,508;30,14245
 577,26; 8838,445;  402,730;28451,892;30,07475
 577,84; 8927,731;  410,419;28849,178;29,94966
 578,42; 9027,518;  451,959;29123,331;29,90983
 579,00; 8970,172;  392,880;29239,641;29,73399
 579,58; 9023,551;  446,574;29495,877;29,52559
 580,16; 8999,136;  392,036;29479,720;29,59019
 580,74; 8990,066;  408,036;29640,665;29,35771
 581,32; 8990,496;  401,805;29698,681;29,31607
 581,90; 8878,540;  426,651;29655,366;28,91639
 582,48; 8891,994;  403,959;29723,376;28,95022
 583,06; 8919,016;  406,266;29708,388;29,05165
 583,64; 8917,240;  398,420;29953,750;28,82330
 584,22; 8807,513;  411,883;29761,404;28,60568
 584,80; 8751,203;  410,343;29581,110;28,59321
 585,38; 8582,889;  424,264;29217,752;28,33497
 585,96; 8581,021;  384,265;29257,799;28,38847
 586,54; 8510,376;  410,883;29261,199;28,07419
 587,12; 8515,630;  377,882;29227,365;28,20760
 587,70; 8539,259;  402,727;29386,514;28,07270
 588,28; 8508,738;  377,421;29414,667;28,00306
 588,86; 8428,778;  376,267;29621,533;27,53441
 589,44; 8404,949;  372,500;29491,641;27,58477
 590,02; 8430,694;  364,884;29774,833;27,42545
 590,59; 8436,242;  359,114;29856,230;27,38277
 591,17; 8484,657;  374,271;30016,442;27,36097
 591,75; 8403,402;  340,808;30141,180;27,05535
 592,33; 8474,486;  375,731;30299,519;27,06461
 592,91; 8466,656;  318,424;30557,867;26,94571
 593,49; 8446,921;  331,809;30759,318;26,67031
 594,07; 8514,555;  349,886;30897,733;26,72748
 594,65; 8482,495;  367,883;30916,803;26,56268
 595,23; 8575,767;  358,576;31270,014;26,58301
 595,81; 8458,603;  348,192;31456,625;26,07142
 596,39; 8550,356;  333,961;31574,721;26,30024
 596,97; 8474,326;  338,270;31688,633;25,95203
 597,55; 8445,869;  347,037;31643,184;25,87805
 598,12; 8342,064;  312,502;31593,083;25,66948
 598,70; 8357,727;  319,194;31682,881;25,63007
 599,28; 8398,223;  344,886;31766,617;25,62983
 599,86; 8315,151;  338,117;31879,173;25,29096
 600,44; 8316,418;  298,809;32064,868;25,23954
 601,02; 8351,109;  356,273;31862,411;25,37549
 601,60; 8250,460;  331,654;31898,842;25,08556
 602,18; 8248,388;  301,348;31935,910;25,12138
 602,75; 8193,058;  307,038;32026,526;24,86175
 603,33; 8174,785;  322,270;32067,697;24,73589
 603,91; 8122,552;  306,118;32077,050;24,60247
 604,49; 8131,811;  339,194;32054,057;24,57087
 605,07; 8046,202;  333,577;32084,405;24,29110
 605,65; 8077,120;  334,656;32282,093;24,23501
 606,23; 8062,066;  374,267;32301,118;24,07942
 606,80; 8055,419;  406,038;32418,215;23,89522
 607,38; 7997,450;  401,503;32387,350;23,74784
 607,96; 8011,516;  435,730;32420,938;23,68528
 608,54; 8028,251;  501,579;32552,321;23,48361
 609,12; 7992,300;  483,653;32521,412;23,43687
 609,70; 7903,059;  509,424;32563,006;23,06649
 610,27; 7946,617;  500,422;32599,140;23,19779
 610,85; 7917,637;  526,424;32780,221;22,91579
 611,43; 7881,485;  513,886;32697,303;22,89253
 612,01; 7766,434;  473,885;32517,527;22,75818
 612,59; 7693,125;  485,655;32498,351;22,51441
 613,16; 7638,844;  460,883;32517,100;22,39179
 613,74; 7584,358;  448,347;32391,971;22,33939
 614,32; 7525,266;  424,809;32345,103;22,24433
 614,90; 7409,966;  409,808;32269,342;21,97194
 615,48; 7362,496;  369,422;31909,532;22,17200
 616,05; 7273,360;  348,652;32071,834;21,82854
 616,63; 7219,071;  367,883;31798,136;21,79807
 617,21; 7173,605;  370,807;31668,177;21,73601
 617,79; 7126,787;  352,269;31662,112;21,63702
 618,36; 7025,180;  360,577;31594,402;21,33777
 618,94; 6919,691;  296,807;31281,521;21,37468
 619,52; 6876,620;  335,267;31074,515;21,28013
 620,10; 6796,203;  298,269;31007,382;21,15963
 620,67; 6707,490;  313,190;30922,641;20,88995
 621,25; 6728,448;  339,116;30758,264;21,00431
 621,83; 6653,549;  312,499;30793,253;20,80345
 622,41; 6612,434;  368,345;30774,314;20,53573
 622,98; 6528,398;  329,344;30612,936;20,47001
 623,56; 6498,057;  344,036;30538,014;20,38162
 624,14; 6478,034;  322,347;30516,383;20,38710
 624,72; 6378,734;  319,037;30430,170;20,12444
 625,29; 6370,245;  298,190;30358,673;20,19946
 625,87; 6328,117;  348,884;30286,731;19,97215
 626,45; 6240,559;  293,728;30263,274;19,84291
 627,02; 6200,497;  315,346;30217,482;19,68137
 627,60; 6162,668;  285,271;30101,283;19,71222
 628,18; 6114,146;  268,807;30174,259;19,54606
 628,76; 6091,020;  273,267;30200,189;19,43986
 629,33; 6102,263;  309,652;30212,528;19,37142
 629,91; 6052,896;  290,346;30134,305;19,30893
 630,49; 6039,380;  323,345;30316,788;19,05762
 631,06; 6070,808;  309,960;30425,636;19,12907
 631,64; 6028,258;  303,267;30379,143;19,03516
 632,22; 5951,585;  263,958;30248,952;18,96824
 632,79; 5995,696;  307,112;30573,918;18,79479
 633,37; 5947,965;  277,346;30480,613;18,77485
 633,95; 5903,478;  296,190;30626,610;18,48734
 634,52; 5890,445;  282,730;30722,277;18,42247
 635,10; 5904,689;  295,346;30768,738;18,40735
 635,68; 5913,135;  285,343;30838,069;18,41993
 636,25; 5843,444;  266,496;30866,091;18,22556
 636,83; 5855,020;  263,421;31030,881;18,17374
 637,41; 5800,406;  275,574;31103,482;17,92153
 637,98; 5864,422;  311,420;31250,771;17,94802
 638,56; 5805,954;  280,265;31268,726;17,83144
 639,13; 5760,679;  261,959;31465,652;17,62202
 639,71; 5834,788;  333,498;31595,528;17,59735
 640,29; 5692,335;  235,037;31331,864;17,54937
 640,86; 5704,171;  264,191;31518,712;17,40542
 641,44; 5673,930;  262,114;31538,791;17,30304
 642,02; 5673,843;  294,729;31498,101;17,23889
 642,59; 5675,064;  259,422;31549,257;17,30799
 643,17; 5641,131;  262,268;31572,106;17,17947
 643,74; 5628,428;  262,652;31620,031;17,11168
 644,32; 5589,880;  296,037;31624,495;16,89787
 644,89; 5586,562;  278,499;31553,651;16,97214
 645,47; 5582,398;  294,883;31644,192;16,86645
 646,05; 5583,234;  288,422;31611,656;16,90378
 646,62; 5482,762;  273,499;31508,350;16,67773
 647,20; 5483,214;  281,037;31677,814;16,56914
 647,77; 5450,742;  243,422;31590,509;16,61182
 648,35; 5399,578;  244,268;31437,665;16,52693
 648,92; 5387,337;  264,884;31536,128;16,38072
 649,50; 5341,096;  231,961;31455,208;16,36324
 650,08; 5291,471;  236,422;31330,902;16,25706
 650,65; 5296,615;  242,807;31524,443;16,15583
 651,23; 5364,758;  215,499;32113,907;16,14268
 651,80; 5454,671;  233,192;32978,986;15,94550
 652,38; 5490,507;  235,345;33420,680;15,83580
 652,95; 5528,190;  229,884;33682,452;15,83826
 653,53; 5556,256;  247,499;33932,916;15,75981
 654,10; 5598,862;  290,961;34001,610;15,74547
 654,68; 5518,928;  234,346;33939,074;15,67905
 655,25; 5469,457;  227,269;34010,076;15,51732
 655,83; 5474,908;  239,423;34132,925;15,44687
 656,40; 5504,206;  277,038;34117,773;15,44638
 656,98; 5457,119;  247,269;34001,314;15,43474
 657,55; 5409,955;  232,269;33852,008;15,40073
 658,13; 5314,560;  237,192;33606,088;15,21587
 658,70; 5290,935;  251,192;33373,475;15,21557
 659,28; 5181,848;  243,961;32672,938;15,22677
 659,85; 5092,684;  274,038;31938,864;15,21766
 660,43; 5059,135;  273,500;31835,866;15,16247
 661,00; 5064,663;  231,731;31997,637;15,21421
 661,58; 5077,884;  246,192;32299,486;15,07393
 662,15; 5054,951;  237,654;32432,103;14,96313
 662,73; 5153,479;  310,962;32681,337;14,95972
 663,30; 5079,392;  255,654;32765,108;14,83795
 663,88; 5113,998;  253,577;32979,264;14,85200
 664,45; 5120,218;  237,270;33182,420;14,82145
 665,03; 5164,054;  243,193;33517,730;14,78867
 665,60; 5290,121;  346,116;33881,502;14,74265
 666,17; 5214,188;  226,654;33876,965;14,82166
 666,75; 5251,332;  232,577;34247,122;14,75473
 667,32; 5271,475;  262,347;34514,739;14,62417
 667,90; 5273,234;  254,116;34759,049;14,54609
 668,47; 5288,455;  246,962;34978,205;14,51573
 669,05; 5319,753;  234,578;35190,131;14,54755
 669,62; 5314,973;  205,270;35287,671;14,56486
 670,19; 5319,194;  221,809;35354,058;14,50913
 670,77; 5354,569;  238,193;35586,753;14,47407
 671,34; 5330,866;  228,270;35506,986;14,46367
 671,92; 5400,394;  217,424;35773,065;14,57707
 672,49; 5364,846;  244,886;35796,221;14,40160
 673,06; 5300,682;  200,963;35855,762;14,30304
 673,64; 5310,903;  218,424;35888,764;14,27651
 674,21; 5313,969;  216,809;35786,612;14,33002
 674,79; 5390,805;  248,347;36006,307;14,38130
 675,36; 5368,334;  258,194;36144,309;14,23988
 675,93; 5316,016;  225,963;35922,619;14,25919
 676,51; 5361,775;  240,578;36172,545;14,25248
 677,08; 5316,304;  241,886;36211,316;14,10758
 677,65; 5331,370;  228,809;36233,703;14,17185
 678,23; 5367,668;  235,809;36526,321;14,14105
 678,80; 5358,042;  231,732;36591,015;14,09904
 679,38; 5345,725;  228,809;36700,710;14,02975
 679,95; 5393,868;  240,886;36994,635;14,02029
 680,52; 5411,781;  240,271;37206,330;13,98989
 681,10; 5492,079;  257,040;37515,716;14,05052
 681,67; 5489,453;  240,733;37679,796;14,01937
 682,24; 5448,213;  205,040;37796,490;13,94778
 682,82; 5520,818;  233,040;38262,723;13,90434
 683,39; 5616,346;  283,964;38554,802;13,93328
 683,96; 5592,875;  232,271;38842,343;13,88395
 684,54; 5614,557;  213,810;38945,192;13,94411
 685,11; 5706,316;  284,425;39362,809;13,87440
 685,68; 5708,229;  224,887;39788,965;13,85940
 686,25; 5690,988;  212,425;39773,044;13,84853
 686,83; 5732,901;  213,964;39990,124;13,87499
 687,40; 5735,660;  206,964;40179,126;13,83137
 687,97; 5823,650;  270,426;40649,744;13,75265
 688,55; 5779,409;  201,041;40597,515;13,80905
 689,12; 5747,168;  201,964;40850,287;13,64190
 689,69; 5833,004;  200,503;40927,596;13,82986
 690,26; 5867,225;  215,041;41028,983;13,84866
 690,84; 5832,292;  217,887;41170,370;13,70956
 691,41; 5867,589;  233,272;41281,603;13,72606
 691,98; 5946,579;  234,657;41426,221;13,86673
 692,56; 5903,877;  224,811;41576,069;13,73372
 693,13; 5995,482;  264,272;41618,072;13,85897
 693,70; 5978,164;  241,195;41739,535;13,82457
 694,27; 5935,462;  214,041;41837,615;13,74563
 694,84; 5941,759;  204,349;41999,463;13,72747
 695,42; 6116,442;  347,734;42157,927;13,79737
 695,99; 5993,432;  231,426;42268,467;13,70697
 696,56; 6014,345;  221,272;42062,777;13,84528
 697,13; 6041,334;  249,734;42465,010;13,71921
 697,71; 6088,247;  236,042;42405,243;13,87791
 698,28; 6116,007;  218,503;42685,938;13,88712
 698,85; 6079,766;  184,965;42749,248;13,84917
 699,42; 6098,294;  187,119;42917,404;13,83369
 699,99; 6153,053;  237,350;43094,637;13,80326
 700,57; 6149,581;  226,504;42982,024;13,85336
 701,14; 6172,571;  218,504;43243,565;13,83860
 701,71; 6226,254;  244,273;43393,259;13,86355
 702,28; 6236,320;  206,734;43389,108;13,96307
 702,85; 6245,156;  213,119;43459,879;13,94795
 703,43; 6350,223;  234,581;43677,805;14,07732
 704,00; 6337,136;  266,042;43936,884;13,90194
 704,57; 6335,818;  223,965;43860,809;14,00618
 705,14; 6438,424;  243,735;44073,811;14,13342
 705,71; 6406,644;  245,350;44170,967;14,02665
 706,28; 6403,019;  219,350;43985,585;14,12886
 706,86; 6438,316;  249,427;44296,664;14,05057
 707,43; 6480,460;  274,120;44263,667;14,10867
 708,00; 6460,219;  247,812;44272,592;14,11116
 708,57; 6447,978;  222,504;44162,671;14,16807
 709,14; 6506,353;  235,581;44266,596;14,24172
 709,71; 6504,727;  220,351;44289,522;14,26026
 710,28; 6515,333;  232,197;44550,985;14,17714
 710,86; 6512,092;  231,120;44591,911;14,15884
 711,43; 6590,466;  269,274;44707,836;14,22457
 712,00; 6600,764;  239,735;44776,146;14,28276
 712,57; 6668,446;  249,505;44921,841;14,36894
 713,14; 6631,898;  226,351;45019,997;14,30012
 713,71; 6668,272;  236,351;44877,768;14,40797
 714,28; 6655,262;  228,812;45031,232;14,34398
 714,85; 6625,175;  221,659;44795,157;14,36620
 715,42; 6684,780;  227,428;44930,006;14,44515
 716,00; 6797,309;  319,120;44958,316;14,51233
 716,57; 6735,760;  226,428;45137,164;14,49393
 717,14; 6750,288;  214,890;45000,705;14,59256
 717,71; 6790,509;  213,351;45114,015;14,64824
 718,28; 6865,422;  266,274;45249,863;14,67012
 718,85; 6820,412;  214,351;45256,481;14,66640
 719,42; 6892,710;  230,044;45374,483;14,75855
 719,99; 6868,853;  221,275;45290,408;14,74974
 720,56; 6938,459;  253,736;45504,180;14,77272
 721,13; 6942,833;  220,505;45534,798;14,83489
 721,70; 6978,054;  205,198;45353,800;15,00125
 722,27; 6979,967;  243,044;45439,571;14,90584
 722,84; 7095,033;  307,890;45645,189;14,97033
 723,41; 7013,023;  201,736;45564,268;15,01523
 723,98; 7091,552;  224,044;45692,578;15,10387
 724,55; 7148,849;  257,121;45880,273;15,10577
 725,12; 7049,839;  179,660;45785,275;15,06433
 725,69; 7195,291;  210,660;45912,508;15,28304
 726,27; 7179,742;  219,429;46100,972;15,17018
 726,84; 7230,501;  234,121;46272,051;15,19699
 727,41; 7310,260;  246,891;46219,284;15,36437
 727,98; 7346,635;  238,198;46454,286;15,38087
 728,55; 7375,625;  265,891;46409,981;15,40768
 729,12; 7354,692;  224,968;46419,598;15,43410
 729,69; 7379,989;  246,122;46690,216;15,36012
 730,26; 7434,517;  245,199;46748,988;15,45964
 730,82; 7453,354;  226,814;46789,759;15,51994
 731,39; 7472,959;  237,352;46789,223;15,54311
 731,96; 7548,026;  222,122;47146,764;15,61206
 732,53; 7617,785;  227,968;47229,997;15,72234
 733,10; 7682,621;  248,506;47406,614;15,76423
 733,67; 7739,534;  241,430;47580,232;15,83924
 734,24; 7694,062;  225,814;47363,542;15,84346
 734,81; 7762,129;  260,737;47405,467;15,91141
 735,38; 7771,042;  241,891;47182,854;16,03962
 735,95; 7738,032;  236,122;47039,626;16,02852
 736,52; 7786,560;  249,814;47306,243;16,01640
 737,09; 7758,089;  245,276;46945,322;16,08738
 737,66; 7878,848;  303,045;47125,478;16,17986
 738,23; 7901,684;  239,430;47270,019;16,29206
 738,80; 7998,289;  333,430;47433,021;16,27373
 739,37; 7984,125;  265,430;47544,562;16,32580
 739,94; 8029,884;  242,276;47537,872;16,46582
 740,51; 8193,566;  386,199;47725,567;16,49233
 741,07; 8070,325;  242,123;47657,031;16,51000
 741,64; 8186,162;  277,661;47821,033;16,63429
 742,21; 8165,305;  250,584;47846,881;16,62886
 742,78; 8134,295;  210,584;47695,114;16,68693
 743,35; 8189,824;  243,738;47841,578;16,69421
 743,92; 8318,660;  303,431;48011,734;16,80049
 744,49; 8337,726;  291,892;47954,736;16,88073
 745,06; 8294,870;  245,969;47984,508;16,86038
 745,63; 8334,014;  232,738;47951,741;16,97704
 746,19; 8422,235;  235,046;48003,282;17,13940
 746,76; 8406,609;  251,892;47986,976;17,08328
 747,33; 8485,291;  246,585;47932,363;17,27707
 747,90; 8540,589;  260,969;48207,904;17,26830
 748,47; 8560,656;  251,585;48079,752;17,37276
 749,04; 8603,799;  258,662;48062,831;17,45692
 749,61; 8620,789;  296,508;48079,987;17,42084
 750,17; 8706,779;  272,200;48101,759;17,63466
 750,74; 8674,846;  260,431;48091,607;17,59190
 751,31; 8704,297;  233,277;47929,917;17,76020
 751,88; 8704,364;  226,893;47761,381;17,83436
 752,45; 8797,662;  235,816;48047,614;17,90739
 753,02; 8794,344;  271,124;47837,155;17,91871
 753,58; 8810,411;  243,201;47801,157;18,01425
 754,15; 8876,708;  236,970;47897,006;18,12785
 754,72; 8819,160;  233,047;47735,854;18,07496
 755,29; 8864,688;  234,662;47625,779;18,21022
 755,86; 8894,140;  255,662;47612,166;18,24137
 756,42; 8978,668;  270,893;47549,784;18,41789
 756,99; 8896,658;  221,355;47528,325;18,33832
 757,56; 8946,955;  237,970;47488,788;18,43140
 758,13; 8914,561;  183,970;47382,252;18,49769
 758,70; 9052,089;  234,740;47498,870;18,65548
 759,26; 9061,387;  216,124;47622,718;18,65830
 759,83; 9106,992;  218,509;47698,797;18,72036
 760,40; 9104,136;  210,432;47539,646;18,79115
 760,97; 9117,741;  194,971;47545,879;18,84393
 761,53; 9085,346;  200,432;47250,573;18,88393
 762,10; 9102,952;  196,971;47242,729;18,93047
 762,67; 9195,095;  231,125;47363,039;19,01890
 763,24; 9084,854;  183,971;46810,965;19,08955
 763,80; 9184,152;  222,817;47057,890;19,13381
 764,37; 9209,065;  218,586;46949,508;19,23882
 764,94; 9129,901;  205,740;46512,741;19,27173
 765,50; 9193,968;  197,740;46622,820;19,37795
 766,07; 9259,573;  240,663;46601,591;19,45369
 766,64; 9212,332;  216,740;46386,824;19,48359
 767,21; 9184,168;  221,663;46244,057;19,47423
 767,77; 9268,466;  236,279;46237,752;19,63456
 768,34; 9249,071;  238,587;46083,754;19,65416
 768,91; 9323,061;  257,125;46028,295;19,80709
 769,47; 9363,436;  253,971;45959,297;19,93086
 770,04; 9401,425;  236,202;45886,838;20,07688
 770,61; 9327,338;  224,664;45673,071;20,02859
 771,18; 9362,328;  223,741;45574,766;20,15079
 771,74; 9417,395;  233,279;45760,999;20,17258
 772,31; 9431,154;  251,510;45522,309;20,27719
 772,88; 9418,529;  208,972;45194,157;20,47242
 773,44; 9382,903;  212,279;45197,544;20,38584
 774,01; 9476,201;  242,126;45247,161;20,51787
 774,58; 9499,345;  226,279;44967,779;20,72587
 775,14; 9575,642;  216,972;45002,089;20,89683
 775,71; 9546,171;  229,126;45007,245;20,80714
 776,27; 9590,083;  284,972;45031,324;20,79524
 776,84; 9716,304;  344,433;45082,865;20,94814
 777,41; 9628,986;  246,895;44851,790;21,03377
 777,97; 9627,207;  222,511;44521,023;21,23028
 778,54; 9647,197;  246,126;44589,641;21,20055
 779,11; 9728,725;  275,511;44533,566;21,35931
 779,67; 9759,946;  224,126;44509,723;21,53255
 780,24; 9769,013;  246,895;44317,648;21,60643
 780,80; 9779,541;  264,818;44183,727;21,66430
 781,37; 9868,069;  267,511;44244,345;21,83095
 781,94; 9776,829;  254,049;44098,193;21,71962
 782,50; 9855,665;  243,203;44058,118;21,93879
 783,07; 9912,424;  280,973;44164,813;21,94760
 783,63; 9883,721;  243,973;43904,354;22,07894
 784,20; 9897,788;  275,434;43756,664;22,12990
 784,77; 9918,932;  246,588;43611,204;22,30469
 785,33; 9854,614;  216,973;43542,053;22,24495
 785,90; 9953,373;  226,127;43474,670;22,49150
 786,46; 9946,979;  257,127;43350,596;22,48566
 787,03; 9906,353;  242,127;43279,290;22,45554
 787,59; 9973,728;  251,050;43225,370;22,62439
 788,16; 9998,717;  261,819;43184,372;22,68481
 788,73;10009,707;  252,896;43086,374;22,77847
 789,29; 9992,159;  237,512;42647,992;23,00056
 789,86;10034,072;  272,435;42764,302;22,97295
 790,42;10058,908;  240,819;42514,458;23,22508
 790,99; 9987,359;  258,666;42188,537;23,20230
 791,55;10038,118;  234,050;42205,155;23,35909
 792,12;10110,262;  277,973;42234,311;23,43457
 792,68;10052,021;  255,743;42022,621;23,45466
 793,25;10038,626;  266,589;41749,315;23,55688
 793,81;10086,463;  356,973;41461,548;23,67009
 794,38; 9950,683;  228,435;41261,089;23,69393
 794,94;10004,750;  236,589;41053,014;23,93194
 795,51;10007,971;  264,281;40950,247;23,94853
 796,07; 9915,653;  255,358;40739,096;23,86216
 796,64;10021,258;  258,589;40835,713;24,05954
 797,20; 9937,710;  275,051;40351,177;24,11076
 797,77; 9848,315;  218,282;40175,026;24,10115
 798,33; 9913,382;  261,512;40026,182;24,27247
 798,90; 9913,295;  263,051;39942,107;24,32075
 799,46; 9922,131;  250,436;39510,802;24,63476
 800,03; 9900,659;  249,436;39487,727;24,59644
 800,59; 9900,264;  271,051;39295,960;24,67453
 801,15; 9899,331;  278,205;39119,347;24,77045
 801,72; 9853,706;  261,436;38846,041;24,86035
 802,28; 9865,926;  288,974;38628,351;24,97941
 802,85; 9857,378;  266,282;38441,969;25,12357
 803,41; 9795,752;  260,436;38174,817;25,14960
 803,98; 9750,050;  245,821;37995,973;25,17666
 804,54; 9727,578;  245,205;37805,360;25,24583
 805,11; 9736,799;  267,744;37534,440;25,40889
 805,67; 9763,635;  285,975;37478,903;25,48243
 806,23; 9667,702;  259,359;36999,906;25,60752
 806,80; 9651,615;  277,052;36971,216;25,54783
 807,36; 9661,451;  274,821;36936,064;25,60369
 807,93; 9646,902;  296,898;36716,989;25,67265
 808,49; 9547,815;  252,975;36466,376;25,66685
 809,05; 9592,343;  237,744;36270,225;25,96157
 809,62; 9557,487;  273,590;36224,842;25,82357
 810,18; 9559,093;  261,129;36103,768;25,94107
 810,74; 9540,775;  231,129;35830,539;26,15112
 811,31; 9502,457;  232,821;35807,080;26,05714
 811,87; 9475,831;  268,206;35550,159;26,09727
 812,44; 9520,898;  278,744;35585,238;26,17692
 813,00; 9486,350;  202,206;35325,010;26,43338
 813,56; 9538,493;  258,591;35426,243;26,38761
 814,13; 9548,714;  259,745;35306,245;26,50470
 814,69; 9521,396;  254,437;35126,709;26,57401
 815,25; 9408,309;  222,129;34763,634;26,59461
 815,82; 9481,453;  267,668;34740,790;26,72745
 816,38; 9550,674;  304,745;34607,408;26,95397
 816,94; 9495,587;  239,745;34295,564;27,17844
 817,51; 9444,346;  224,591;34186,182;27,14759
 818,07; 9458,797;  234,053;33943,107;27,36578
 818,63; 9422,018;  247,283;33742,648;27,39106
 819,20; 9493,700;  245,053;33680,034;27,66159
 819,76; 9372,613;  230,130;33318,191;27,63076
 820,32; 9458,680;  277,899;33216,654;27,87228
 820,89; 9390,208;  256,591;33095,272;27,81359
 821,45; 9386,352;  235,284;32781,428;28,11721
 822,01; 9334,880;  259,207;32576,738;28,08282
 822,57; 9400,870;  263,438;32504,356;28,34111
 823,14; 9311,475;  224,361;32337,050;28,29758
 823,70; 9279,927;  243,899;32111,668;28,35475
 824,26; 9246,840;  233,284;31924,516;28,44180
 824,82; 9282,907;  281,669;31755,826;28,59882
 825,39; 9202,281;  253,284;31557,905;28,58682
 825,95; 9250,810;  259,976;31663,677;28,62985
 826,51; 9148,646;  260,900;31224,987;28,70340
 827,08; 9196,866;  294,284;31294,066;28,71821
 827,64; 9161,087;  261,592;31137,838;28,82311
 828,20; 9167,154;  233,669;30844,148;29,18440
 828,76; 9212,528;  277,900;30913,304;29,16439
 829,32; 9201,980;  283,669;30782,921;29,24108
 829,89; 9133,200;  220,515;30631,693;29,30727
 830,45; 9162,498;  248,746;30549,772;29,41733
 831,01; 9166,719;  256,669;30435,236;29,52443
 831,57; 9125,862;  253,131;30356,700;29,47402
 832,14; 9180,698;  245,823;30360,163;29,66984
 832,70; 9132,842;  231,439;30087,473;29,81442
 833,26; 9137,063;  217,592;30007,552;29,94120
 833,82; 9134,360;  252,592;29996,401;29,86090
 834,38; 9222,119;  234,900;29933,019;30,26191
 834,95; 9151,263;  227,054;29881,482;30,09402
 835,51; 9128,407;  194,823;29619,485;30,36087
 836,07; 9181,935;  245,823;29849,179;30,18614
 836,63; 9234,464;  264,208;29809,104;30,36144
 837,19; 9213,377;  266,131;29616,722;30,48404
 837,75; 9144,213;  217,747;29437,186;30,54975
 838,32; 9254,972;  263,824;29434,496;30,82256
 838,88; 9246,808;  270,978;29527,190;30,68008
 839,44; 9246,182;  267,362;29466,116;30,75070
 840,00; 9249,788;  260,747;29344,195;30,90775
 840,56; 9214,239;  239,747;29087,582;31,10976
 841,12; 9254,383;  251,362;29022,969;31,29134
 841,68; 9190,142;  219,362;28915,509;31,26127
 842,25; 9251,824;  230,901;28897,435;31,46848
 842,81; 9203,352;  225,516;28658,899;31,57498
 843,37; 9240,650;  216,747;28716,824;31,66273
 843,93; 9257,717;  239,593;28621,134;31,77461
 844,49; 9297,784;  269,132;28662,136;31,79886
 845,05; 9264,389;  208,055;28451,138;32,06567
 845,61; 9323,225;  266,209;28538,602;32,03484
 846,17; 9270,830;  227,594;28423,297;32,07310
 846,73; 9346,974;  244,901;28418,684;32,30689
 847,29; 9348,425;  234,901;28240,686;32,54158
 847,86; 9295,262;  231,209;28164,688;32,44871
 848,42; 9349,098;  237,594;28038,306;32,77435
 848,98; 9379,318;  250,132;27979,846;32,92203
 849,54; 9369,770;  231,055;28005,079;32,90382
 850,10; 9405,913;  265,363;27859,466;33,12501
 850,66; 9363,903;  229,979;27766,469;33,17026
 851,22; 9405,509;  221,209;27664,702;33,46622
 851,78; 9460,729;  271,825;27777,089;33,40780
 852,34; 9404,411;  258,210;27524,091;33,54449
 852,90; 9405,709;  236,671;27507,016;33,62274
 853,46; 9366,391;  228,979;27169,557;33,91691
 854,02; 9401,843;  257,902;27278,559;33,84056
 854,58; 9356,679;  245,210;27066,561;33,97095
 855,14; 9374,130;  233,133;27005,487;34,14342
 855,70; 9334,043;  198,979;26777,412;34,37021
 856,26; 9391,648;  248,595;26742,030;34,51064
 856,82; 9349,331;  241,210;26686,570;34,44128
 857,38; 9353,474;  284,287;26626,034;34,42895
 857,94; 9319,926;  240,979;26536,806;34,52619
 858,50; 9334,454;  263,133;26454,885;34,63427
 859,06; 9282,675;  239,056;26178,733;34,86404
 859,62; 9283,049;  267,364;26182,582;34,78916
 860,18; 9261,424;  244,287;26027,815;34,97247
 860,74; 9213,491;  211,518;25935,202;34,99488
 861,30; 9168,481;  214,057;25775,742;35,03065
 861,86; 9295,393;  302,210;25813,206;35,25218
 862,42; 9177,922;  236,441;25544,824;35,33011
 862,98; 9265,296;  274,518;25605,441;35,49329
 863,54; 9186,517;  239,595;25394,982;35,56662
 864,10; 9252,738;  241,595;25447,215;35,75053
 864,66; 9174,958;  218,134;25251,910;35,77896
 865,22; 9182,564;  247,211;25159,604;35,86710
 865,78; 9178,092;  238,595;25047,222;36,03382
 866,34; 9113,313;  230,826;25047,916;35,79181
 866,90; 9154,764;  247,519;24849,534;36,20535
 867,45; 9072,831;  242,365;24756,613;36,02177
 868,01; 9095,667;  252,057;24654,539;36,24062
 868,57; 9061,580;  236,826;24441,695;36,45859
 869,13; 9027,262;  217,673;24362,312;36,48673
 869,69; 8996,483;  232,596;24253,315;36,48470
 870,25; 8997,703;  214,750;24182,471;36,64493
 870,81; 9012,309;  228,596;24100,396;36,79535
 871,37; 9079,222;  255,288;24070,091;37,05231
 871,93; 9022,135;  252,750;23878,478;37,11795
 872,49; 9009,586;  295,058;23714,172;37,21118
 873,04; 8887,961;  223,904;23557,636;37,13104
 873,60; 8927,258;  232,442;23462,254;37,42956
 874,16; 8968,633;  256,750;23347,333;37,72916
 874,72; 8960,479;  241,442;23380,025;37,68181
 875,28; 8922,863;  240,365;23348,102;37,57399
 875,84; 8960,402;  248,519;23300,025;37,79312
 876,40; 8956,710;  232,135;23155,102;38,06041
 876,95; 8980,787;  244,750;23142,256;38,15279
 877,51; 8974,556;  274,750;23168,410;38,00094
 878,07; 8999,248;  286,135;23186,410;38,04807
 878,63; 9048,863;  240,904;23134,256;38,47388
 879,19; 9039,787;  262,981;23189,102;38,28299
 879,75; 9081,863;  232,288;23175,948;38,57090
 880,30; 9068,094;  237,288;23103,794;38,61896
 880,86; 9211,479;  288,596;23294,717;38,78482
 881,42; 9230,633;  226,596;23303,487;39,01755
 881,98; 9252,710;  246,442;23390,410;38,91410
 882,54; 9328,479;  235,212;23375,487;39,29628
 883,09; 9390,633;  259,288;23574,948;39,16400
 883,65; 9367,402;  233,519;23483,948;39,28479
 884,21; 9541,248;  271,750;23818,871;39,36574
 884,77; 9500,556;  231,135;23800,794;39,32777
 885,32; 9639,863;  239,442;23943,640;39,65720
 885,88; 9739,787;  281,288;24105,717;39,70084
 886,44; 9787,248;  244,673;24123,871;39,96187
 887,00; 9817,556;  269,750;24141,794;39,99576
 887,56; 9843,017;  241,365;24294,102;39,91917
 888,11; 9931,094;  253,981;24308,102;40,23058
 888,67; 9985,710;  271,827;24400,333;40,25895
 889,23; 9975,863;  244,750;24482,179;40,14912
 889,79; 9976,710;  231,058;24303,487;40,48471
 890,34;10000,017;  253,596;24299,333;40,53285
 890,90;10127,556;  316,827;24418,794;40,70510
 891,46;10061,017;  237,058;24348,410;40,74413
 892,01;10079,633;  245,904;24326,179;40,83728
 892,57;10115,171;  278,750;24254,487;41,02657
 893,13;10012,556;  256,596;24073,487;40,96236
 893,69;10004,094;  230,365;24010,179;41,10095
 894,24;10012,248;  241,365;23982,333;41,15621
 894,80; 9950,633;  238,519;23844,640;41,14235
 895,36; 9949,940;  249,981;23747,948;41,27999
 895,91; 9893,556;  243,904;23516,640;41,46333
 896,47; 9875,479;  259,212;23529,102;41,32494
 897,03; 9759,402;  238,673;23267,563;41,34254
 897,58; 9812,402;  258,596;23177,410;41,68543
 898,14; 9790,017;  258,212;23120,563;41,69215
 898,70; 9712,479;  215,750;22922,333;41,82368
 899,25; 9758,402;  240,365;22978,948;41,85853
 899,81; 9682,248;  256,135;22819,025;41,77707
 900,37; 9587,633;  209,058;22637,487;41,81557
 900,92; 9671,479;  237,981;22644,717;42,10117
 901,48; 9618,940;  236,365;22451,794;42,23450
 902,03; 9514,171;  234,519;22301,563;42,05208
 902,59; 9570,863;  239,673;22331,640;42,23793
 903,15; 9538,556;  256,596;22087,256;42,51800
 903,70; 9436,402;  240,212;21979,563;42,30204
 904,26; 9435,248;  242,058;21877,487;42,49137
 904,82; 9456,633;  236,750;21862,640;42,63354
 905,37; 9431,171;  251,596;21730,333;42,73797
 905,93; 9377,633;  237,750;21658,179;42,66900
 906,48; 9413,633;  252,365;21601,102;42,91246
 907,04; 9401,863;  255,519;21476,102;43,10129
 907,60; 9329,479;  247,212;21357,179;43,02360
 908,15; 9314,017;  229,827;21213,410;43,29189
 908,71; 9366,633;  253,673;21286,025;43,32830
 909,26; 9252,940;  251,673;21088,256;43,19935
 909,82; 9254,017;  249,827;20958,640;43,47999
 910,37; 9277,863;  284,442;20923,948;43,57382
 910,93; 9217,325;  228,365;20717,717;43,87137
 911,48; 9156,710;  231,365;20649,102;43,71368
 912,04; 9117,248;  226,288;20462,948;43,93492
 912,60; 9191,094;  251,212;20524,871;44,09605
 913,15; 9041,325;  237,827;20291,640;43,89937
 913,71; 9014,940;  231,519;20166,025;44,06139
 914,26; 9007,863;  220,135;20162,256;44,06617
 914,82; 8993,940;  259,596;20106,948;44,00760
 915,37; 9015,094;  232,750;20033,333;44,35397
 915,93; 8982,633;  307,904;19933,563;44,20095
 916,48; 8961,556;  229,827;19801,256;44,61467
 917,04; 8897,556;  254,365;19686,640;44,47853
 917,59; 8924,248;  268,673;19677,256;44,59664
 918,15; 8827,556;  213,135;19513,640;44,63314
 918,70; 8803,863;  240,596;19423,563;44,63995
 919,26; 8803,710;  246,442;19416,717;44,63821
 919,81; 8775,017;  209,827;19181,948;45,14619
 920,37; 8762,479;  238,904;19112,640;45,16104
 920,92; 8704,094;  253,135;19137,640;44,75076
 921,48; 8708,940;  223,135;18901,410;45,43142
 922,03; 8641,171;  222,212;18846,333;45,20460
 922,59; 8617,940;  228,212;18791,794;45,19456
 923,14; 8595,094;  248,135;18596,871;45,49065
 923,69; 8635,248;  253,596;18562,179;45,77991
 924,25; 8594,402;  268,827;18562,563;45,51052
 924,80; 8507,094;  234,750;18369,025;45,61718
 925,36; 8479,633;  223,596;18322,102;45,61723
 925,91; 8437,171;  224,981;18221,717;45,63155
 926,47; 8443,787;  217,288;18161,871;45,84391
 927,02; 8505,017;  314,288;18083,333;46,09549
 927,57; 8392,710;  212,519;17960,256;46,09146
 928,13; 8419,479;  223,212;17831,179;46,54863
 928,68; 8366,479;  229,673;17891,563;46,06985
 929,24; 8298,710;  203,212;17668,102;46,35299
 929,79; 8287,863;  217,750;17577,563;46,48733
 930,34; 8237,325;  225,673;17422,256;46,58863
 930,90; 8252,248;  218,288;17422,179;46,69851
 931,45; 8296,017;  234,442;17462,256;46,79395
 932,01; 8274,940;  235,673;17360,487;46,94514
 932,56; 8241,940;  255,596;17165,563;47,22862
 933,11; 8226,479;  263,981;17126,794;47,21927
 933,67; 8238,940;  221,981;17004,563;47,76952
 934,22; 8224,171;  238,288;16960,025;47,75750
 934,77; 8199,479;  256,827;16781,410;48,06567
 935,33; 8112,710;  237,212;16716,871;47,78920
 935,88; 8099,248;  242,981;16752,025;47,58766
 936,43; 8092,863;  235,135;16605,102;48,00088
 936,99; 8051,171;  234,058;16544,640;47,92664
 937,54; 7987,402;  204,058;16446,871;47,91869
 938,09; 7991,633;  240,827;16372,717;48,04648
 938,65; 7944,787;  232,135;16261,640;48,11534
 939,20; 7980,402;  204,750;16177,563;48,68054
 939,75; 7934,094;  220,365;16124,563;48,50121
 940,31; 7893,171;  217,519;15971,333;48,72250
 940,86; 7935,094;  236,365;15983,179;48,89071
 941,41; 7979,633;  334,750;15937,871;48,99586
 941,96; 7842,940;  214,288;15792,563;48,96981
 942,52; 7817,094;  224,519;15760,256;48,87168
 943,07; 7758,094;  206,673;15593,640;49,07673
 943,62; 7778,094;  228,596;15560,102;49,24173
 944,18; 7702,325;  206,058;15509,487;48,98423
 944,73; 7712,094;  238,288;15427,102;49,20599
 945,28; 7563,940;  203,904;15267,794;48,85880
 945,83; 7650,094;  225,135;15246,871;49,42810
 946,39; 7622,940;  222,288;15224,179;49,33146
 946,94; 7640,787;  245,827;15147,563;49,62482
 947,49; 7567,863;  222,673;15083,256;49,42734
 948,04; 7579,940;  274,442;15046,333;49,45540
 948,59; 7538,094;  251,442;14994,487;49,42434
 949,15; 7493,787;  221,827;14878,102;49,61670
 949,70; 7491,325;  224,827;14792,102;49,88234
 950,25; 7472,402;  233,596;14693,487;50,06128
 950,80; 7418,171;  199,212;14674,102;49,87229
 951,36; 7384,017;  199,212;14514,563;50,18952
 951,91; 7433,325;  246,365;14557,102;50,22075
 952,46; 7322,940;  219,596;14430,333;49,98576
 953,01; 7375,094;  232,442;14444,256;50,25855
 953,56; 7286,248;  212,442;14223,487;50,48736
 954,11; 7296,940;  238,827;14239,102;50,41411
 954,67; 7284,248;  222,673;14136,179;50,75338
 955,22; 7197,171;  202,288;14011,794;50,65266
 955,77; 7256,940;  245,288;14036,179;50,84263
 956,32; 7223,479;  278,058;13908,179;50,95642
 956,87; 7195,017;  213,212;13860,563;51,15868
 957,42; 7163,787;  219,673;13823,410;51,04563
 957,98; 7120,787;  214,212;13717,102;51,14886
 958,53; 7152,940;  258,519;13722,179;51,20763
 959,08; 7144,479;  216,288;13561,487;51,91523
 959,63; 7098,479;  227,135;13540,563;51,61213
 960,18; 7096,479;  244,058;13492,025;51,72432
 960,73; 7095,248;  228,750;13412,794;52,08188
 961,28; 7012,633;  201,673;13368,256;51,72914
 961,83; 7039,325;  248,904;13331,487;51,90429
 962,39; 6982,402;  211,596;13205,179;52,10884
 962,94; 6980,017;  239,596;13198,640;52,01326
 963,49; 6943,863;  237,365;13043,256;52,37042
 964,04; 6883,633;  244,827;13004,717;52,02871
 964,59; 6858,556;  207,673;12920,256;52,31732
 965,14; 6889,633;  251,596;12819,102;52,81905
 965,69; 6832,094;  238,596;12784,256;52,55601
 966,24; 6841,787;  219,596;12659,563;53,23318
 966,79; 6814,017;  237,981;12654,871;52,96041
 967,34; 6725,940;  209,135;12482,640;53,09653
 967,89; 6750,402;  225,288;12511,256;53,11029
 968,44; 6725,479;  221,288;12428,333;53,28227
 968,99; 6689,633;  235,596;12349,563;53,27765
 969,55; 6688,787;  227,981;12292,179;53,55355
 970,10; 6643,402;  240,058;12193,256;53,57013
 970,65; 6632,940;  254,904;12086,871;53,90512
 971,20; 6600,940;  220,212;12017,179;54,08787
 971,75; 6520,710;  203,288;11844,102;54,26958
 972,30; 6516,402;  240,981;11904,948;53,80177
 972,85; 6474,094;  216,365;11747,794;54,26673
 973,40; 6423,633;  208,288;11706,948;54,05277
 973,95; 6407,556;  240,288;11657,794;54,01589
 974,50; 6374,479;  259,519;11607,640;53,88522
 975,05; 6346,710;  231,058;11516,410;54,19106
 975,60; 6336,479;  239,904;11411,640;54,57142
 976,15; 6275,633;  222,058;11380,794;54,24965
 976,70; 6247,094;  229,058;11312,563;54,29723
 977,25; 6221,710;  248,135;11288,025;54,10901
 977,80; 6204,094;  223,519;11137,871;54,79551
 978,35; 6121,479;  243,519;11028,563;54,50102
 978,89; 6064,479;  212,750;10951,025;54,49412
 979,44; 6066,402;  233,827;10961,333;54,37028
 979,99; 6003,633;  215,904;10728,948;55,05283
 980,54; 6010,325;  249,981;10703,640;55,10361
 981,09; 5919,940;  250,827;10667,256;54,42473
 981,64; 5915,556;  247,212;10536,025;55,09230
 982,19; 5885,863;  276,365;10493,410;54,90334
 982,74; 5860,633;  247,058;10385,948;55,36676
 983,29; 5761,787;  220,596;10241,179;55,29809
 983,84; 5717,248;  242,519;10224,563;54,84577
 984,39; 5774,017;  348,596;10177,333;55,19958
 984,94; 5673,556;  211,442;10055,871;55,48431
 985,49; 5643,787;  253,519; 9997,948;55,31640
 986,03; 5624,479;  262,750; 9924,563;55,49402
 986,58; 5603,402;  287,827; 9831,563;55,69700
 987,13; 5492,863;  243,596; 9711,179;55,44464
 987,68; 5470,402;  248,288; 9625,410;55,68994
 988,23; 5443,710;  244,288; 9541,333;55,92553
 988,78; 5386,325;  227,135; 9450,179;55,93804
 989,33; 5371,479;  242,288; 9348,410;56,32684
 989,88; 5400,248;  291,212; 9341,563;56,45125
 990,42; 5286,171;  244,365; 9220,640;56,16813
 990,97; 5229,171;  230,365; 9067,794;56,56403
 991,52; 5221,633;  257,288; 9052,871;56,44133
 992,07; 5214,248;  290,288; 8989,487;56,60245
 992,62; 5162,248;  245,750; 8861,410;57,06467
 993,17; 5079,325;  259,212; 8761,025;56,69512
 993,71; 5095,094;  253,827; 8735,256;57,08080
 994,26; 5025,017;  228,442; 8609,025;57,23439
 994,81; 5046,633;  264,904; 8560,717;57,64026
 995,36; 4888,479;  234,673; 8417,794;56,87079
 995,91; 4920,710;  234,981; 8371,640;57,58787
 996,45; 4865,633;  242,365; 8249,563;57,73889
 997,00; 4776,325;  232,596; 8114,871;57,64489
 997,55; 4753,863;  244,596; 8144,640;57,07901
 998,10; 4726,556;  262,981; 8010,179;57,61535
 998,65; 4727,171;  238,288; 7979,256;57,98865
 999,19; 4669,017;  267,519; 7907,871;57,60858
 999,74; 4635,248;  278,827; 7788,256;58,01268
1000,29; 4603,325;  255,904; 7731,179;58,15734
1000,84; 4502,787;  250,673; 7572,256;58,07642
1001,38; 4476,402;  244,365; 7539,640;58,01065
1001,93; 4454,940;  250,058; 7480,871;58,15228
1002,48; 4359,479;  230,519; 7299,256;58,41156
1003,03; 4408,863;  257,058; 7323,102;58,75714
1003,57; 4341,325;  255,673; 7216,102;58,69828
1004,12; 4302,633;  292,288; 7162,717;58,37109
1004,67; 4229,633;  238,519; 7084,256;58,30072
1005,22; 4184,248;  242,135; 6931,563;58,93049
1005,76; 4088,940;  232,981; 6815,025;58,58301
1006,31; 4076,248;  269,981; 6788,563;58,39103
1006,86; 4010,017;  229,750; 6727,256;58,18028
1007,40; 3931,479;  230,135; 6614,410;57,97595
1007,95; 3949,633;  245,673; 6506,025;59,16536
1008,50; 3871,402;  259,212; 6437,794;58,46309
1009,04; 3841,479;  238,904; 6353,102;58,92146
1009,59; 3762,325;  255,673; 6198,410;59,00736
1010,14; 3737,787;  235,904; 6121,717;59,49700
1010,68; 3658,479;  240,212; 6066,102;58,67373
1011,23; 3657,556;  239,596; 5991,563;59,42245
1011,78; 3622,940;  255,750; 5919,948;59,44690
1012,32; 3593,787;  283,519; 5834,256;59,63654
1012,87; 3577,710;  276,904; 5799,794;59,76591
1013,42; 3479,248;  231,135; 5676,640;59,64760
1013,96; 3522,171;  276,673; 5702,948;59,81079
1014,51; 3419,556;  206,981; 5638,717;59,14453
1015,06; 3433,940;  206,135; 5622,871;59,58949
1015,60; 3515,094;  288,596; 5678,948;59,85691
1016,15; 3440,479;  232,442; 5631,025;59,42368
1016,69; 3449,171;  246,904; 5662,717;59,12809
1017,24; 3505,633;  224,981; 5628,410;60,71426
1017,79; 3526,710;  285,827; 5696,948;59,89300
1018,33; 3512,863;  236,904; 5689,410;60,08173
1018,88; 3576,325;  264,288; 5746,333;60,41609
1019,42; 3598,171;  225,519; 5714,640;61,44248
1019,97; 3570,556;  228,827; 5688,102;61,21195
1020,51; 3616,402;  268,288; 5828,410;60,21656
1021,06; 3570,248;  218,827; 5724,717;60,86974
1021,61; 3579,863;  207,288; 5715,640;61,22657
1022,15; 3566,017;  196,442; 5684,256;61,40105
1022,70; 3570,633;  249,519; 5684,717;61,10382
1023,24; 3558,248;  214,750; 5655,179;61,45652
1023,79; 3533,402;  233,596; 5595,487;61,54184
1024,33; 3516,787;  231,827; 5567,102;61,57058
1024,88; 3487,633;  254,750; 5434,410;62,41496
1025,42; 3438,094;  250,058; 5380,256;62,14256
1025,97; 3389,710;  227,365; 5349,487;61,73896
1026,51; 3298,094;  207,519; 5236,640;61,45358
1027,06; 3284,325;  227,827; 5202,410;61,44230
1027,60; 3244,556;  259,981; 5131,717;61,26306
1028,15; 3239,017;  253,827; 5051,871;62,21682
1028,69; 3120,402;  197,750; 4920,794;61,88068
1029,24; 3102,633;  227,519; 4923,025;61,23118
1029,78; 3034,171;  213,135; 4815,640;61,29349
1030,33; 2973,787;  207,904; 4682,102;61,81851
1030,87; 2952,633;  223,058; 4647,487;61,69327
1031,42; 2896,633;  213,288; 4556,487;61,78268
1031,96; 2912,248;  244,750; 4548,102;61,98652
1032,51; 2846,171;  222,673; 4440,717;62,19703
1033,05; 2837,248;  233,365; 4427,487;62,08411
1033,60; 2753,863;  200,058; 4295,871;62,35161
1034,14; 2707,402;  212,058; 4250,487;61,78998
1034,69; 2717,710;  231,365; 4207,410;62,53311
1035,23; 2675,094;  221,673; 4128,179;62,80347
1035,77; 2657,633;  223,365; 4076,333;63,17903
1036,32; 2610,248;  203,442; 3986,717;63,61699
1036,86; 2605,479;  242,981; 3999,102;62,89728
1037,41; 2577,710;  235,904; 3900,025;63,91180
1037,95; 2487,787;  198,058; 3846,102;62,76593
1038,50; 2487,787;  218,212; 3803,487;63,30268
1039,04; 2479,863;  244,442; 3772,948;63,35320
1039,58; 2417,863;  201,442; 3700,256;63,34779
1040,13; 2384,094;  216,058; 3657,871;62,99111
1040,67; 2409,710;  253,981; 3627,640;63,89882
1041,21; 2385,710;  254,365; 3596,717;63,76780
1041,76; 2292,017;  210,135; 3487,179;63,52928
1042,30; 2293,325;  231,596; 3481,948;63,43094
1042,85; 2243,940;  222,673; 3406,487;63,48573
1043,39; 2203,787;  220,365; 3354,563;63,28321
1043,93; 2206,863;  246,596; 3342,794;63,31208
1044,48; 2159,325;  242,288; 3280,640;63,09462
1045,02; 2145,633;  225,827; 3214,563;64,23469
1045,56; 2126,325;  255,058; 3238,410;62,72365
1046,11; 2107,017;  235,135; 3181,794;63,52558
1046,65; 2067,017;  234,673; 3089,025;64,19476
1047,19; 2033,017;  223,058; 3051,563;63,98996
1047,74; 1974,633;  211,365; 2994,487;63,35575
1048,28; 1970,017;  232,442; 3001,333;62,75348
1048,82; 1964,633;  275,365; 2956,025;63,01685
1049,37; 1934,325;  245,058; 2932,487;62,85812
1049,91; 1902,094;  243,904; 2855,256;63,49931
1050,45; 1882,094;  249,904; 2829,794;63,26588
1050,99; 1865,787;  247,058; 2806,487;63,24571
1051,54; 1804,479;  226,058; 2730,794;63,01745
1052,08; 1833,325;  258,673; 2717,333;64,04514
1052,62; 1800,402;  254,212; 2689,333;63,49542
1053,16; 1758,094;  222,827; 2629,871;63,78226
1053,71; 1742,325;  248,750; 2601,333;63,48661
1054,25; 1744,171;  246,442; 2566,948;64,54321
1054,79; 1716,787;  251,904; 2547,179;63,82166
1055,33; 1645,094;  207,058; 2450,640;64,09554
1055,88; 1665,017;  243,212; 2484,256;63,44390
1056,42; 1679,017;  253,827; 2468,640;64,34810
1056,96; 1647,633;  248,442; 2394,948;65,18456
1057,50; 1623,402;  249,904; 2408,871;63,61829
1058,05; 1586,863;  234,135; 2317,948;64,91602
1058,59; 1597,325;  271,058; 2302,794;65,27752
1059,13; 1514,017;  216,519; 2243,179;64,02151
1059,67; 1527,094;  244,442; 2229,640;64,61078
1060,21; 1532,171;  240,750; 2211,256;65,53755
1060,76; 1502,633;  250,827; 2190,179;64,54763
1061,30; 1494,402;  267,442; 2150,179;65,16895
1061,84; 1447,863;  256,135; 2104,410;64,47790
1062,38; 1431,402;  224,596; 2055,025;65,93022
1062,92; 1472,171;  280,981; 2092,333;65,76250
1063,46; 1410,171;  260,212; 2023,256;65,22579
1064,01; 1368,094;  240,058; 1992,794;64,35859
1064,55; 1377,940;  257,673; 1976,563;65,17387
1065,09; 1335,402;  214,827; 1910,025;66,10289
1065,63; 1371,094;  273,981; 1932,640;66,14458
1066,17; 1368,479;  280,135; 1910,563;66,75202
1066,71; 1312,940;  271,288; 1891,487;64,29164
1067,25; 1298,556;  243,750; 1824,102;66,74499
1067,80; 1299,710;  252,981; 1830,717;66,34370
1068,34; 1290,325;  269,827; 1846,410;64,72848
1068,88; 1247,402;  242,827; 1753,102;66,51603
1069,42; 1267,248;  263,981; 1791,717;65,67018
1069,96; 1226,863;  238,058; 1733,640;66,11509
1070,50; 1269,171;  281,442; 1754,948;67,03257
1071,04; 1197,171;  227,442; 1685,717;66,49835
1071,58; 1191,402;  233,442; 1667,871;66,78335
1072,12; 1185,710;  247,750; 1649,717;66,90310
1072,66; 1168,248;  238,058; 1640,871;66,30891
1073,21; 1189,710;  263,212; 1643,333;67,13165
1073,75; 1168,094;  255,750; 1602,256;67,75643
1074,29; 1144,863;  249,365; 1575,025;67,55113
1074,83; 1125,248;  263,135; 1580,025;65,46585
1075,37; 1118,710;  269,673; 1574,102;65,08876
1075,91; 1105,710;  253,981; 1527,179;66,89681
1076,45; 1101,248;  262,442; 1527,948;66,28226
1076,99; 1089,633;  260,519; 1491,410;67,35884
1077,53; 1030,633;  245,519; 1465,871;64,33500
1078,07; 1053,863;  262,058; 1478,333;65,10088
1078,61; 1036,402;  246,365; 1439,025;66,24158
1079,15; 1028,017;  250,135; 1419,333;66,53130
1079,69; 1012,402;  241,519; 1411,410;65,89358
1080,23; 1034,402;  277,058; 1414,333;66,59288
1080,77; 1072,171;  317,596; 1445,640;66,89232
1081,31;  974,863;  240,750; 1355,948;65,82808
1081,85;  990,325;  268,596; 1380,794;64,89211
1082,39;  971,710;  254,212; 1324,794;67,01940
1082,93;  990,479;  271,058; 1341,563;67,20386
1083,47;  926,325;  233,442; 1288,102;65,69728
1084,01;  961,556;  257,750; 1299,410;67,56581
1084,55;  919,479;  254,827; 1275,025;65,14930
1085,09;  942,094;  263,827; 1277,025;66,94321
1085,63;  922,325;  260,981; 1253,333;66,64412
1086,17;  897,479;  245,058; 1243,102;65,36996
1086,71;  887,171;  230,442; 1222,717;66,18416
1087,24;  910,863;  282,596; 1234,025;66,03408
1087,78;  904,171;  273,442; 1210,333;67,32152
1088,32;  861,479;  234,904; 1147,640;68,64796
1088,86;  887,787;  273,673; 1194,102;66,72036
1089,40;  857,479;  254,058; 1152,871;67,13530
1089,94;  843,940;  231,365; 1128,717;68,26474
1090,48;  841,940;  253,135; 1130,256;67,12935
1091,02;  855,633;  280,058; 1135,333;67,29707
1091,56;  832,940;  253,212; 1090,487;69,23996
1092,10;  805,171;  230,442; 1072,256;68,27271
1092,63;  837,171;  270,135; 1099,256;68,39007
1093,17;  814,710;  257,750; 1091,179;66,82749
1093,71;  776,633;  244,673; 1046,948;66,30639
1094,25;  803,940;  278,212; 1067,640;66,59610
1094,79;  773,248;  247,135; 1043,025;66,10376
1095,33;  781,325;  255,058; 1041,025;66,95791
1095,87;  763,479;  256,519; 1015,563;66,78921
1096,40;  730,787;  229,673;  985,640;66,28772
1096,94;  760,479;  259,519;  997,563;67,87664
1097,48;  763,633;  263,288;  998,871;68,02012
1098,02;  721,479;  236,288;  964,256;66,65002
1098,56;  691,787;  223,442;  929,871;66,29744
1099,10;  693,863;  226,596;  923,487;67,05033
1099,63;  688,325;  226,596;  921,871;66,40953
1100,17;  713,017;  261,442;  929,102;67,63551
1100,71;  742,863;  283,442;  954,410;68,47147

