
Integration time [ms]: 150,000
Averaging Nr. [scans]: 13
Smoothing Nr. [pixels]: 0
Data measured with spectrometer [name]: 2009305U1
Wave   ;Sample   ;Dark     ;Reference;Reflectance
[nm]   ;[counts] ;[counts] ;[counts] ;[%]

 175,72;  211,343;  213,942;  232,391;-14,09050
 176,32;  246,329;  248,562;  239,245; 0,00000
 176,92;  289,870;  283,713;  284,805;563,67431
 177,52;  275,943;  263,481;  288,463;49,88573
 178,12;  257,704;  258,638;  259,823;-78,88306
 178,72;  285,977;  287,793;  280,469; 0,00000
 179,32;  274,085;  285,408;  267,745; 0,00000
 179,92;  282,615;  275,791;  268,795; 0,00000
 180,52;  261,473;  256,325;  272,061;32,71544
 181,12;  280,415;  274,252;  289,721;39,84265
 181,73;  286,973;  302,098;  302,762; 0,00000
 182,33;  407,184;  411,173;  406,971; 0,00000
 182,93;  303,660;  293,097;  294,847;603,65370
 183,53;  251,414;  259,948;  249,810; 0,00000
 184,13;  260,861;  259,332;  248,661; 0,00000
 184,73;  318,174;  314,025;  313,345; 0,00000
 185,33;  276,542;  254,895;  344,858;24,06167
 185,93;  281,461;  268,436;  359,913;14,23771
 186,53;  302,131;  274,666;  381,617;25,68040
 187,13;  326,883;  285,970;  414,333;31,87297
 187,73;  289,840;  262,974;  373,416;24,32569
 188,33;  288,194;  249,284;  379,789;29,81522
 188,93;  303,839;  282,673;  384,519;20,78163
 189,53;  307,083;  265,370;  380,835;36,12661
 190,13;  339,717;  301,453;  437,825;28,05842
 190,73;  271,865;  245,679;  384,820;18,81932
 191,34;  311,836;  279,444;  409,815;24,84563
 191,94;  283,892;  263,439;  370,276;19,14373
 192,54;  299,184;  255,737;  399,966;30,12345
 193,14;  314,070;  288,047;  387,600;26,13944
 193,74;  314,790;  296,202;  379,404;22,34134
 194,34;  296,494;  272,354;  392,221;20,13847
 194,94;  281,864;  250,278;  345,600;33,13574
 195,54;  232,211;  229,741;  336,398; 2,31586
 196,14;  257,814;  246,661;  343,765;11,48561
 196,74;  265,095;  250,434;  354,623;14,07150
 197,34;  236,441;  216,429;  347,856;15,22662
 197,94;  274,885;  241,201;  367,795;26,60782
 198,54;  268,417;  253,200;  382,880;11,73405
 199,14;  252,345;  227,043;  362,749;18,64508
 199,74;  243,475;  217,966;  353,672;18,79700
 200,34;  243,918;  216,427;  355,290;19,79714
 200,94;  279,996;  255,891;  406,391;16,01651
 201,54;  260,169;  232,120;  402,629;16,44979
 202,14;  312,767;  282,811;  452,335;17,67086
 202,74;  259,792;  229,889;  425,863;15,25866
 203,34;  253,215;  212,733;  417,845;19,73686
 203,94;  229,875;  190,041;  432,337;16,44017
 204,54;  295,646;  250,816;  504,220;17,69106
 205,14;  244,255;  224,735;  505,171; 6,96061
 205,74;  306,572;  266,041;  591,229;12,46408
 206,34;  267,087;  210,426;  593,142;14,80474
 206,94;  253,360;  235,042;  631,831; 4,61648
 207,54;  234,866;  202,119;  644,718; 7,39873
 208,14;  255,373;  222,503;  714,144; 6,68572
 208,74;  266,804;  218,889;  754,132; 8,95190
 209,34;  271,990;  212,581;  808,442; 9,97027
 209,94;  270,719;  238,274;  890,249; 4,97639
 210,54;  270,343;  222,657;  966,494; 6,41092
 211,14;  280,614;  227,582; 1025,633; 6,64523
 211,73;  281,485;  228,121; 1111,974; 6,03766
 212,33;  309,789;  248,275; 1188,775; 6,54056
 212,93;  293,699;  234,120; 1272,131; 5,73971
 213,53;  266,087;  200,889; 1281,363; 6,03416
 214,13;  315,709;  218,193; 1379,045; 8,40040
 214,73;  277,075;  199,042; 1377,951; 6,61911
 215,33;  268,488;  194,966; 1390,403; 6,15020
 215,93;  323,441;  224,887; 1496,612; 7,74967
 216,53;  274,581;  186,428; 1531,015; 6,55615
 217,13;  340,075;  232,733; 1687,840; 7,37688
 217,73;  312,161;  210,579; 1839,536; 6,23604
 218,33;  273,973;  175,808; 1944,509; 5,55010
 218,93;  342,877;  212,421; 2182,917; 6,62049
 219,53;  345,256;  216,962; 2401,433; 5,87300
 220,13;  354,320;  168,115; 2581,899; 7,71421
 220,73;  393,823;  202,504; 2851,019; 7,22363
 221,32;  394,265;  201,274; 3120,286; 6,61153
 221,92;  434,073;  213,808; 3428,167; 6,85253
 222,52;  441,459;  194,733; 3717,576; 7,00362
 223,12;  473,693;  200,502; 4022,269; 7,14830
 223,72;  516,746;  204,348; 4372,501; 7,49487
 224,32;  534,621;  220,194; 4616,964; 7,15133
 224,92;  533,903;  195,194; 4835,348; 7,29952
 225,52;  602,105;  219,427; 5110,293; 7,82434
 226,12;  590,163;  199,580; 5350,032; 7,58348
 226,72;  605,428;  174,734; 5553,453; 8,00739
 227,31;  624,633;  161,734; 5830,376; 8,16596
 227,91;  691,214;  223,966; 6177,329; 7,84848
 228,51;  703,257;  185,737; 6407,624; 8,31775
 229,11;  774,054;  199,734; 6726,183; 8,79988
 229,71;  772,620;  185,966; 6921,669; 8,70962
 230,31;  789,120;  179,270; 7217,584; 8,66472
 230,91;  817,714;  179,353; 7438,424; 8,79398
 231,51;  854,366;  184,425; 7630,921; 8,99673
 232,10;  898,614;  185,808; 7920,663; 9,21551
 232,70;  949,186;  201,585; 8050,067; 9,52542
 233,30; 1029,900;  215,349; 8212,688;10,18528
 233,90; 1022,874;  193,887; 8357,534;10,15461
 234,50; 1042,584;  191,348; 8338,267;10,44856
 235,10; 1088,441;  188,578; 8361,810;11,00988
 235,70; 1157,534;  215,581; 8439,675;11,45357
 236,29; 1145,840;  200,120; 8272,400;11,71564
 236,89; 1145,526;  174,968; 8134,388;12,19383
 237,49; 1229,458;  209,733; 8099,993;12,92384
 238,09; 1202,856;  191,119; 7834,758;13,23633
 238,69; 1253,790;  244,892; 7651,380;13,62181
 239,29; 1222,594;  194,888; 7392,371;14,27868
 239,89; 1216,244;  201,506; 7129,926;14,64602
 240,48; 1173,676;  185,042; 6781,450;14,98746
 241,08; 1168,872;  193,735; 6490,908;15,48532
 241,68; 1190,281;  218,657; 6241,874;16,13132
 242,28; 1168,833;  180,579; 5954,187;17,11674
 242,88; 1177,531;  238,732; 5729,199;17,09871
 243,48; 1163,021;  232,272; 5513,531;17,62362
 244,07; 1152,034;  213,889; 5315,560;18,38899
 244,67; 1158,785;  210,888; 5200,991;18,99555
 245,27; 1164,485;  218,351; 5068,512;19,50726
 245,87; 1179,731;  228,809; 5047,813;19,73275
 246,47; 1186,049;  209,044; 4990,205;20,43449
 247,06; 1176,427;  195,273; 4988,255;20,47064
 247,66; 1183,577;  199,734; 5045,375;20,30368
 248,26; 1251,375;  218,736; 5147,014;20,95335
 248,86; 1292,000;  217,351; 5321,282;21,05532
 249,46; 1266,314;  157,348; 5440,689;20,98985
 250,05; 1388,263;  214,503; 5738,680;21,24769
 250,65; 1411,684;  184,429; 5969,510;21,21415
 251,25; 1499,473;  197,889; 6357,869;21,12968
 251,85; 1575,513;  213,276; 6812,734;20,64165
 252,44; 1651,701;  184,659; 7249,516;20,76534
 253,04; 1778,669;  215,889; 7818,327;20,55631
 253,64; 1872,871;  169,044; 8404,469;20,68900
 254,24; 2040,519;  214,196; 9168,218;20,39668
 254,84; 2138,621;  185,887; 9921,228;20,05820
 255,43; 2300,818;  196,120;10750,633;19,94122
 256,03; 2427,028;  192,352;11606,163;19,57870
 256,63; 2604,500;  206,045;12400,234;19,66883
 257,23; 2704,925;  186,506;13216,811;19,32740
 257,82; 2842,579;  206,431;14106,224;18,96537
 258,42; 2917,757;  157,278;14919,565;18,69954
 259,02; 3090,219;  217,504;15677,903;18,58112
 259,62; 3156,288;  192,894;16358,485;18,33149
 260,21; 3264,252;  210,120;16988,555;18,20272
 260,81; 3287,828;  194,580;17427,877;17,94925
 261,41; 3316,035;  174,585;17907,684;17,71518
 262,01; 3406,443;  227,433;18314,057;17,57658
 262,60; 3392,156;  178,660;18710,427;17,34047
 263,20; 3433,189;  185,890;19121,858;17,14884
 263,80; 3472,532;  223,663;19337,865;16,99714
 264,40; 3407,090;  173,894;19593,059;16,64951
 264,99; 3426,375;  213,356;19766,863;16,43193
 265,59; 3401,568;  189,435;19883,310;16,31032
 266,19; 3436,738;  192,586;20100,326;16,29593
 266,78; 3433,499;  232,818;20275,972;15,96895
 267,38; 3441,345;  204,280;20331,852;16,08274
 267,98; 3382,296;  201,664;20347,819;15,78779
 268,58; 3348,242;  206,127;20373,698;15,58004
 269,17; 3329,380;  197,205;20470,340;15,44988
 269,77; 3272,132;  201,507;20310,845;15,26965
 270,37; 3257,848;  163,587;20130,593;15,49687
 270,96; 3283,719;  234,969;20224,724;15,25156
 271,56; 3187,397;  198,276;19928,464;15,14999
 272,16; 3129,814;  194,200;19783,490;14,98581
 272,75; 3106,471;  191,354;19749,068;14,90520
 273,35; 3102,351;  205,123;19603,610;14,93533
 273,95; 3098,754;  203,200;19589,915;14,93576
 274,54; 3057,429;  184,427;19713,410;14,71148
 275,14; 3146,058;  219,738;20045,880;14,75991
 275,74; 3098,546;  175,893;19968,529;14,76637
 276,33; 3163,785;  228,661;20344,883;14,59083
 276,93; 3207,975;  199,734;20646,721;14,71239
 277,53; 3254,277;  199,197;20999,862;14,68741
 278,12; 3333,609;  174,968;21460,082;14,83967
 278,72; 3485,260;  255,582;21988,591;14,86071
 279,32; 3503,398;  197,736;22420,475;14,87513
 279,91; 3590,390;  186,813;22956,548;14,94781
 280,51; 3712,830;  190,351;23409,978;15,17027
 281,11; 3836,594;  194,121;23992,394;15,30562
 281,70; 3880,693;  174,506;24405,547;15,29520
 282,30; 4035,166;  188,737;24945,233;15,53705
 282,90; 4121,357;  186,276;25231,041;15,71219
 283,49; 4268,250;  213,892;25761,610;15,86974
 284,09; 4407,485;  229,583;26079,930;16,16188
 284,69; 4482,383;  229,967;26439,436;16,22473
 285,28; 4628,202;  211,352;26775,853;16,62689
 285,88; 4791,160;  274,970;26939,836;16,93686
 286,47; 4866,151;  205,891;27004,886;17,38968
 287,07; 5008,192;  225,274;27049,551;17,83055
 287,67; 5154,021;  225,195;27202,685;18,27014
 288,26; 5256,498;  186,582;27102,628;18,83603
 288,86; 5430,216;  187,891;27191,277;19,41359
 289,46; 5634,341;  214,505;27293,857;20,01464
 290,05; 5855,651;  191,350;27370,022;20,84098
 290,65; 6106,480;  204,353;27556,115;21,57860
 291,24; 6289,529;  205,043;27630,937;22,18519
 291,84; 6587,192;  212,430;27732,464;23,16408
 292,44; 6846,769;  204,349;27752,918;24,11167
 293,03; 7206,131;  282,582;28043,745;24,93969
 293,63; 7302,177;  187,199;28143,117;25,45071
 294,22; 7568,377;  223,583;28296,048;26,16369
 294,82; 7789,874;  194,432;28317,253;27,00811
 295,41; 7896,308;  181,890;28083,700;27,64845
 296,01; 8122,873;  237,201;28096,142;28,30572
 296,61; 8211,156;  232,890;27923,821;28,81184
 297,20; 8196,813;  202,047;27461,720;29,32818
 297,80; 8334,262;  224,734;27448,525;29,78838
 298,39; 8328,128;  191,430;27120,118;30,21573
 298,99; 8407,899;  238,431;27050,417;30,46946
 299,58; 8461,733;  222,195;26883,144;30,90489
 300,18; 8468,385;  229,273;26738,677;31,07996
 300,78; 8440,229;  198,812;26411,633;31,44040
 301,37; 8539,381;  217,587;26374,822;31,81450
 301,97; 8602,007;  216,429;26462,857;31,94941
 302,56; 8620,161;  202,968;26361,078;32,17814
 303,16; 8629,909;  183,969;26230,113;32,42684
 303,75; 8704,196;  196,735;26281,135;32,61513
 304,35; 8825,012;  187,579;26493,154;32,83499
 304,94; 8877,022;  195,813;26507,819;32,99334
 305,54; 8903,188;  211,197;26480,593;33,08790
 306,13; 8866,976;  168,117;26435,270;33,11687
 306,73; 8847,114;  167,656;26274,725;33,24562
 307,33; 8932,659;  214,734;26205,376;33,54255
 307,92; 8966,388;  212,736;26265,361;33,59989
 308,52; 9038,637;  187,277;26595,919;33,51691
 309,11; 9251,229;  203,278;27114,294;33,62174
 309,71; 9367,149;  181,048;27312,404;33,85788
 310,30; 9418,424;  183,505;27535,013;33,76384
 310,90; 9607,732;  237,813;27768,090;34,03496
 311,49; 9643,203;  211,121;27941,666;34,01333
 312,09; 9669,488;  158,042;28080,139;34,06422
 312,68; 9847,702;  272,659;28453,748;33,97684
 313,28; 9870,311;  183,813;28570,668;34,12318
 313,87; 9882,319;  168,813;28691,474;34,05540
 314,47; 9975,211;  197,508;28880,144;34,08927
 315,06; 9960,069;  184,505;29022,169;33,89860
 315,66;10021,334;  184,273;29287,908;33,80011
 316,25; 9981,130;  161,738;29046,383;33,99520
 316,85; 9986,630;  157,042;29132,485;33,92386
 317,44;10025,360;  192,432;29362,911;33,70849
 318,04; 9975,076;  173,045;29264,041;33,69438
 318,63; 9949,589;  162,118;29361,379;33,51958
 319,22; 9985,646;  190,968;29467,076;33,45621
 319,82; 9973,739;  196,737;29597,083;33,25472
 320,41; 9840,917;  213,353;29530,808;32,83902
 321,01; 9908,061;  212,427;29689,791;32,89179
 321,60; 9892,215;  206,814;29706,584;32,83212
 322,20; 9764,557;  179,890;29680,092;32,49017
 322,79; 9786,159;  217,966;29699,284;32,45510
 323,39; 9716,495;  187,271;29847,921;32,12750
 323,98; 9678,496;  181,428;29806,670;32,05735
 324,58; 9609,727;  186,200;29699,958;31,92927
 325,17; 9552,696;  196,199;29622,153;31,79675
 325,76; 9456,087;  207,582;29630,781;31,43270
 326,36; 9352,867;  187,581;29222,829;31,56607
 326,95; 9210,794;  223,506;29064,392;31,16162
 327,55; 9033,660;  181,275;28815,775;30,91510
 328,14; 8921,740;  175,273;28463,180;30,91946
 328,74; 8838,955;  220,815;28041,923;30,97698
 329,33; 8628,020;  208,043;27790,675;30,52637
 329,92; 8462,859;  169,124;27269,257;30,60404
 330,52; 8285,486;  209,349;26750,874;30,42831
 331,11; 8126,151;  186,506;26357,545;30,33752
 331,71; 7944,313;  184,583;25920,241;30,15167
 332,30; 7767,483;  204,967;25450,434;29,95594
 332,89; 7641,260;  270,427;25062,635;29,73044
 333,49; 7473,653;  205,814;24569,585;29,83052
 334,08; 7306,185;  193,122;24255,736;29,56064
 334,68; 7148,455;  192,968;23878,852;29,36554
 335,27; 7052,031;  204,657;23597,646;29,27105
 335,86; 6971,920;  267,198;23330,776;29,07061
 336,46; 6838,738;  219,041;23089,223;28,94466
 337,05; 6721,509;  187,814;22964,391;28,68603
 337,65; 6649,161;  177,122;22873,967;28,51515
 338,24; 6642,149;  237,351;22794,093;28,39416
 338,83; 6620,535;  212,889;22743,478;28,43976
 339,43; 6556,760;  186,584;22695,499;28,30068
 340,02; 6453,705;  195,430;22572,882;27,96688
 340,61; 6498,517;  208,274;22608,053;28,08172
 341,21; 6416,724;  233,507;22675,846;27,55157
 341,80; 6406,313;  211,583;22645,813;27,61285
 342,40; 6397,949;  204,734;22704,721;27,52542
 342,99; 6358,645;  199,350;22802,481;27,24974
 343,58; 6408,635;  202,812;22941,367;27,29207
 344,18; 6403,344;  226,119;23014,638;27,10674
 344,77; 6414,665;  189,430;23305,459;26,93038
 345,36; 6472,948;  181,275;23620,623;26,84235
 345,96; 6584,738;  224,196;23867,521;26,90206
 346,55; 6544,664;  195,964;24027,576;26,63983
 347,14; 6639,450;  186,272;24316,452;26,74318
 347,74; 6691,968;  172,346;24672,474;26,61056
 348,33; 6816,231;  205,885;25204,741;26,44260
 348,92; 6913,051;  219,115;25709,443;26,26069
 349,52; 7035,040;  180,038;26172,362;26,37318
 350,11; 7073,880;  191,277;26345,265;26,31569
 350,70; 7042,247;  208,351;26517,553;25,97531
 351,29; 7025,935;  184,895;26275,357;26,22046
 351,89; 6928,908;  230,893;26317,871;25,67570
 352,48; 6924,900;  187,120;26263,976;25,83816
 353,07; 6937,955;  237,426;26233,108;25,77555
 353,67; 6901,465;  229,191;26088,368;25,80234
 354,26; 6854,463;  210,118;25981,875;25,78150
 354,85; 6782,669;  231,350;25943,832;25,47914
 355,45; 6686,809;  189,968;25704,619;25,46318
 356,04; 6671,818;  215,964;25688,609;25,34426
 356,63; 6624,655;  253,967;25533,278;25,20119
 357,22; 6546,654;  220,894;25399,401;25,12365
 357,82; 6532,487;  214,509;25097,329;25,39093
 358,41; 6522,059;  243,967;25158,396;25,19862
 359,00; 6396,542;  210,969;24921,461;25,03218
 359,60; 6416,751;  234,197;24962,439;25,00200
 360,19; 6390,579;  245,579;24788,803;25,03746
 360,78; 6354,058;  219,045;24602,428;25,16063
 361,37; 6279,802;  223,275;24406,737;25,04409
 361,97; 6271,441;  228,813;24367,164;25,03331
 362,56; 6165,045;  222,123;24060,995;24,92954
 363,15; 6191,786;  294,737;23957,851;24,92085
 363,74; 6055,276;  237,662;23645,721;24,85304
 364,34; 6017,323;  239,738;23324,576;25,02762
 364,93; 5922,464;  217,892;22939,109;25,10681
 365,52; 5828,920;  192,891;22602,468;25,15009
 366,11; 5753,940;  226,969;22335,961;24,99875
 366,71; 5726,722;  214,430;22013,384;25,28696
 367,30; 5611,768;  222,352;21647,546;25,15457
 367,89; 5595,681;  268,658;21460,408;25,13725
 368,48; 5517,381;  251,200;21201,799;25,13618
 369,07; 5442,247;  229,505;20829,245;25,30489
 369,67; 5390,616;  260,277;20648,878;25,16278
 370,26; 5305,967;  220,736;20376,785;25,22931
 370,85; 5276,061;  234,506;20121,968;25,35042
 371,44; 5232,208;  241,813;19945,086;25,32775
 372,03; 5175,413;  208,353;19773,307;25,38754
 372,63; 5126,860;  193,660;19517,739;25,52877
 373,22; 5110,411;  224,967;19254,975;25,67232
 373,81; 5009,740;  201,121;18988,468;25,59499
 374,40; 5011,599;  219,196;18787,296;25,80987
 374,99; 4971,105;  226,122;18529,273;25,92441
 375,59; 4950,275;  208,273;18256,718;26,27374
 376,18; 4941,531;  242,660;18162,390;26,22177
 376,77; 4915,365;  245,121;18035,472;26,25156
 377,36; 4967,406;  258,506;17921,314;26,65998
 377,95; 4907,135;  244,507;17660,616;26,77193
 378,55; 4864,599;  228,119;17528,406;26,80002
 379,14; 4895,470;  253,506;17506,891;26,90466
 379,73; 4880,778;  232,507;17369,001;27,12498
 380,32; 4903,223;  233,890;17444,048;27,13126
 380,91; 4877,525;  207,662;17259,454;27,38635
 381,50; 4941,944;  234,123;17212,303;27,72865
 382,10; 4954,531;  226,198;17167,125;27,91071
 382,69; 4915,739;  213,891;17171,775;27,72662
 383,28; 5004,871;  251,969;17107,921;28,19718
 383,87; 4934,615;  207,430;16945,459;28,24218
 384,46; 4967,144;  205,663;16872,676;28,56829
 385,05; 5006,007;  237,277;16895,573;28,62676
 385,64; 5003,940;  232,353;16911,884;28,60744
 386,24; 5033,116;  203,740;16868,829;28,97900
 386,83; 5113,483;  244,125;16846,250;29,32973
 387,42; 5171,429;  249,507;16948,577;29,47423
 388,01; 5262,144;  254,819;17102,084;29,72189
 388,60; 5291,854;  235,124;17268,178;29,68775
 389,19; 5429,706;  233,129;17501,568;30,09292
 389,78; 5519,331;  226,359;17678,726;30,32811
 390,37; 5756,676;  311,433;18122,707;30,57189
 390,96; 5782,563;  241,971;18184,944;30,87890
 391,56; 5876,423;  251,129;18253,601;31,24734
 392,15; 5955,698;  231,743;18501,421;31,33035
 392,74; 6014,856;  210,901;18682,579;31,42083
 393,33; 6167,764;  246,206;18928,329;31,69638
 393,92; 6328,354;  243,826;19316,299;31,90214
 394,51; 6402,980;  231,899;19480,521;32,05986
 395,10; 6590,005;  280,138;19635,383;32,60029
 395,69; 6631,991;  263,137;19766,542;32,65509
 396,28; 6691,462;  269,678;19821,217;32,84541
 396,87; 6784,222;  276,297;19937,458;33,10041
 397,46; 6837,033;  278,069;20023,477;33,21767
 398,06; 7011,165;  290,841;20210,492;33,73716
 398,65; 7001,101;  282,310;20211,051;33,71408
 399,24; 7129,420;  309,619;20402,464;33,94144
 399,83; 7170,926;  277,169;20340,226;34,36045
 400,42; 7272,121;  328,255;20560,997;34,31995
 401,01; 7385,198;  292,190;20641,873;34,85562
 401,60; 7416,634;  321,513;20678,949;34,85272
 402,19; 7487,463;  344,602;20641,510;35,19187
 402,78; 7535,794;  338,852;20613,213;35,49775
 403,37; 7509,335;  315,485;20529,885;35,58775
 403,96; 7517,203;  326,967;20384,918;35,84731
 404,55; 7515,319;  344,144;20347,433;35,84998
 405,14; 7548,733;  310,166;20218,735;36,35906
 405,73; 7568,347;  333,421;20178,585;36,45687
 406,32; 7596,808;  339,438;20154,650;36,62524
 406,91; 7524,706;  324,611;19866,927;36,84361
 407,50; 7537,030;  338,929;19721,621;37,13674
 408,09; 7515,267;  311,397;19460,606;37,61967
 408,68; 7540,172;  306,633;19344,030;37,99647
 409,27; 7481,923;  306,165;19181,040;38,01751
 409,86; 7474,454;  319,458;19099,654;38,09863
 410,45; 7553,736;  366,060;19034,327;38,50210
 411,04; 7537,536;  355,047;18942,772;38,64103
 411,63; 7461,925;  330,800;18759,861;38,69500
 412,22; 7474,680;  337,554;18649,055;38,97620
 412,81; 7430,129;  360,625;18362,441;39,27106
 413,40; 7345,903;  356,234;18048,340;39,50728
 413,99; 7365,683;  416,236;17831,555;39,90422
 414,58; 7186,286;  342,465;17567,988;39,73070
 415,17; 7171,951;  335,548;17373,903;40,12361
 415,76; 7118,772;  324,477;17144,896;40,39314
 416,35; 7101,138;  321,628;16976,996;40,70465
 416,94; 7173,002;  356,476;16937,137;41,11131
 417,53; 7250,075;  329,855;17167,945;41,09860
 418,12; 7351,063;  331,239;17215,533;41,57606
 418,71; 7541,163;  361,772;17548,188;41,77364
 419,30; 7559,420;  323,854;17690,037;41,66469
 419,89; 7635,943;  319,775;17790,546;41,87662
 420,48; 7852,767;  343,464;18010,919;42,50359
 421,07; 7892,405;  342,386;18116,313;42,47806
 421,66; 7920,095;  314,152;18093,606;42,77939
 422,25; 7980,376;  335,838;18142,382;42,93106
 422,84; 7998,401;  341,299;18160,700;42,97059
 423,43; 7936,953;  329,609;17886,718;43,32914
 424,02; 7950,437;  356,608;17737,342;43,69107
 424,60; 7744,218;  320,601;17411,167;43,43693
 425,19; 7685,569;  332,450;17129,792;43,77549
 425,78; 7675,166;  342,989;17028,026;43,94463
 426,37; 7654,306;  351,601;16867,315;44,21671
 426,96; 7598,589;  333,755;16799,931;44,11974
 427,55; 7568,181;  320,905;16661,577;44,35115
 428,14; 7572,715;  316,057;16449,245;44,97969
 428,73; 7477,996;  318,214;16369,411;44,60591
 429,32; 7524,234;  338,217;16320,889;44,96130
 429,91; 7589,256;  341,060;16369,798;45,22001
 430,50; 7509,618;  347,981;16137,160;45,35788
 431,08; 7532,183;  349,287;16017,676;45,84324
 431,67; 7574,093;  386,208;15979,767;46,09522
 432,26; 7521,807;  400,591;15853,204;46,08422
 432,85; 7480,796;  429,130;15592,354;46,50506
 433,44; 7286,786;  439,050;15364,413;45,87986
 434,03; 7214,999;  458,200;14998,865;46,46829
 434,62; 7058,059;  409,588;14610,684;46,81660
 435,21; 7015,495;  417,745;14402,049;47,17968
 435,79; 6973,229;  420,278;14308,624;47,18309
 436,38; 6963,889;  404,967;14228,421;47,44778
 436,97; 6900,681;  412,274;14135,694;47,27981
 437,56; 6810,300;  402,346;13922,198;47,39663
 438,15; 6795,426;  382,193;13861,187;47,57947
 438,74; 6825,873;  421,269;13872,037;47,61515
 439,33; 6798,871;  387,886;13874,993;47,53418
 439,91; 6832,111;  352,037;13906,896;47,80628
 440,50; 6876,578;  396,037;13936,821;47,85942
 441,09; 6971,637;  393,495;14099,999;47,99285
 441,68; 6964,123;  365,184;14044,600;48,23991
 442,27; 7003,622;  354,801;14012,552;48,68167
 442,86; 6938,704;  337,717;14054,835;48,12226
 443,44; 7053,780;  351,872;14048,363;48,93157
 444,03; 7102,527;  435,948;14172,528;48,53158
 444,62; 7042,206;  348,332;14033,720;48,91256
 445,21; 6959,344;  369,179;13903,483;48,69231
 445,80; 6959,814;  412,406;13780,397;48,97825
 446,39; 6950,661;  453,868;13664,584;49,17820
 446,97; 6791,974;  351,710;13414,540;49,30221
 447,56; 6714,881;  367,476;13310,333;49,04176
 448,15; 6648,678;  370,634;13068,578;49,44142
 448,74; 6554,057;  382,479;12892,158;49,33443
 449,33; 6502,870;  369,015;12755,406;49,52092
 449,91; 6375,211;  367,242;12602,550;49,10354
 450,50; 6327,889;  367,243;12393,082;49,56532
 451,09; 6282,923;  383,935;12337,547;49,34900
 451,68; 6255,965;  391,857;12262,290;49,40097
 452,26; 6238,112;  397,470;12157,571;49,66490
 452,85; 6185,029;  379,010;12043,294;49,77604
 453,44; 6204,432;  381,928;12083,332;49,75902
 454,03; 6202,184;  359,239;12007,425;50,16185
 454,61; 6193,606;  367,081;12032,681;49,94620
 455,20; 6258,009;  384,387;12156,194;49,89567
 455,79; 6294,004;  396,775;12106,479;50,36189
 456,38; 6330,382;  396,462;12250,868;50,05666
 456,97; 6347,379;  396,463;12316,516;49,92357
 457,55; 6339,201;  390,845;12304,032;49,93086
 458,14; 6399,687;  412,463;12335,087;50,21733
 458,73; 6362,990;  392,691;12223,457;50,46418
 459,31; 6401,125;  426,534;12280,096;50,40334
 459,90; 6463,119;  452,151;12332,852;50,59439
 460,49; 6521,858;  509,613;12401,730;50,55655
 461,08; 6510,141;  408,686;12437,299;50,72451
 461,66; 6562,610;  402,073;12567,249;50,64076
 462,25; 6596,488;  403,454;12588,117;50,82647
 462,84; 6679,699;  421,609;12620,187;51,30180
 463,43; 6610,616;  370,220;12623,412;50,92874
 464,01; 6634,516;  405,757;12604,885;51,05905
 464,60; 6597,928;  464,529;12571,250;50,66111
 465,19; 6512,418;  388,756;12424,545;50,87877
 465,77; 6501,795;  412,678;12357,058;50,97894
 466,36; 6534,476;  434,912;12289,374;51,45374
 466,95; 6331,458;  414,297;11978,223;51,16913
 467,53; 6244,446;  422,137;11800,226;51,17124
 468,12; 6129,417;  447,752;11551,114;51,17067
 468,71; 6057,771;  416,679;11336,125;51,66097
 469,29; 5921,117;  400,367;11156,963;51,32432
 469,88; 5818,528;  411,212;10905,358;51,52697
 470,47; 5895,286;  467,978;10985,802;51,60105
 471,06; 5833,584;  424,055;10981,688;51,23809
 471,64; 5888,056;  434,748;11044,220;51,40037
 472,23; 5877,535;  408,512;11059,378;51,34816
 472,81; 5924,895;  387,130;11144,820;51,47727
 473,40; 5953,179;  404,358;11217,533;51,31537
 473,99; 6158,512;  526,358;11501,918;51,31542
 474,57; 6113,573;  409,050;11461,339;51,61395
 475,16; 6166,829;  438,360;11615,363;51,25228
 475,75; 6264,088;  463,433;11776,086;51,27581
 476,33; 6316,106;  448,354;11858,873;51,42406
 476,92; 6291,034;  454,665;11859,229;51,17573
 477,51; 6355,240;  440,201;11910,096;51,57013
 478,09; 6339,677;  442,124;11997,173;51,03875
 478,68; 6328,425;  449,738;11893,834;51,36873
 479,27; 6360,604;  494,740;11953,318;51,19190
 479,85; 6296,525;  450,508;11934,602;50,90534
 480,44; 6335,469;  427,507;11975,918;51,15822
 481,02; 6834,198;  460,120;12981,625;50,90505
 481,61; 7743,707;  469,352;14708,811;51,08590
 482,20; 8257,033;  455,043;15763,510;50,96519
 482,78; 8687,768;  489,969;16530,068;51,10816
 483,37; 8942,513;  464,886;17014,725;51,22483
 483,95; 9081,755;  508,963;17232,883;51,26066
 484,54; 9216,303;  502,968;17411,462;51,53230
 485,13; 9120,598;  467,037;17426,056;51,02630
 485,71; 9015,465;  455,115;17141,241;51,30220
 486,30; 8939,825;  486,269;16955,550;51,32924
 486,88; 8855,979;  554,653;16693,670;51,43638
 487,47; 8523,056;  499,190;16195,867;51,11824
 488,05; 8206,013;  506,497;15427,606;51,60150
 488,64; 7638,364;  474,341;14376,701;51,53099
 489,23; 6902,730;  500,573;12963,572;51,36931
 489,81; 5875,832;  502,803;11066,539;50,86296
 490,40; 5486,431;  458,649;10354,466;50,80715
 490,98; 5374,886;  436,725;10124,396;50,97366
 491,57; 5292,402;  462,496;10027,959;50,49317
 492,15; 5263,791;  447,802; 9917,861;50,85490
 492,74; 5211,132;  448,881; 9902,800;50,37330
 493,32; 5161,164;  469,802; 9814,395;50,20403
 493,91; 5101,774;  449,570; 9728,293;50,13842
 494,50; 5085,826;  446,258; 9679,862;50,24656
 495,08; 5023,873;  428,643; 9633,014;49,92444
 495,67; 5040,370;  472,185; 9578,252;50,16639
 496,25; 4973,581;  398,491; 9489,384;50,32608
 496,84; 4912,892;  416,109; 9512,673;49,43387
 497,42; 4906,019;  399,952; 9464,352;49,71170
 498,01; 4945,992;  437,108; 9453,793;50,00601
 498,59; 4852,346;  386,490; 9371,547;49,70315
 499,18; 4821,087;  393,339; 9287,218;49,78422
 499,76; 4852,492;  424,568; 9245,423;50,19836
 500,35; 4727,935;  415,949; 9113,908;49,57469
 500,93; 4666,337;  393,029; 9072,928;49,23223
 501,52; 4635,127;  386,490; 8958,662;49,56314
 502,10; 4625,992;  404,794; 8950,689;49,39445
 502,69; 4549,224;  387,254; 8864,315;49,09685
 503,27; 4440,277;  368,489; 8650,440;49,16461
 503,86; 4421,430;  392,639; 8591,426;49,13887
 504,44; 4357,149;  358,484; 8498,052;49,12625
 505,03; 4218,777;  357,792; 8276,629;48,75697
 505,61; 4194,163;  375,715; 8182,201;48,91379
 506,19; 4123,659;  381,484; 8061,205;48,72801
 506,78; 4016,153;  365,789; 7854,997;48,74166
 507,36; 3971,491;  375,869; 7714,319;48,99702
 507,95; 3879,076;  371,018; 7640,545;48,25702
 508,53; 3851,613;  369,097; 7535,150;48,59741
 509,12; 3759,721;  366,249; 7394,503;48,28327
 509,70; 3725,452;  391,172; 7298,662;48,27050
 510,29; 3650,813;  393,478; 7191,135;47,91850
 510,87; 3544,740;  349,866; 7022,534;47,88001
 511,46; 3455,945;  339,788; 6880,962;47,63910
 512,04; 3409,782;  357,094; 6728,628;47,91135
 512,62; 3332,843;  375,481; 6677,963;46,92378
 513,21; 3269,650;  341,786; 6516,175;47,41949
 513,79; 3230,750;  355,704; 6406,863;47,51231
 514,38; 3139,130;  327,167; 6279,236;47,24345
 514,96; 3119,868;  379,629; 6209,849;47,00061
 515,54; 3013,413;  333,782; 6073,357;46,68693
 516,13; 2996,329;  344,012; 5991,474;46,96476
 516,71; 2936,096;  344,472; 5877,527;46,83894
 517,30; 2887,256;  326,778; 5807,386;46,71888
 517,88; 2852,369;  352,086; 5754,270;46,28283
 518,46; 2751,309;  322,162; 5637,507;45,70064
 519,05; 2755,616;  340,238; 5601,825;45,90589
 519,63; 2745,975;  335,546; 5536,935;46,34202
 520,22; 2719,669;  356,928; 5499,494;45,94480
 520,80; 2673,995;  339,543; 5416,535;45,98101
 521,38; 2692,929;  398,699; 5437,134;45,53457
 521,97; 2621,918;  341,311; 5372,006;45,33383
 522,55; 2637,955;  346,926; 5348,352;45,80752
 523,13; 2609,232;  335,771; 5293,668;45,85534
 523,72; 2583,422;  339,777; 5276,160;45,45118
 524,30; 2651,832;  356,001; 5388,254;45,62233
 524,89; 2616,705;  317,157; 5357,816;45,61999
 525,47; 2669,138;  350,846; 5516,835;44,87605
 526,05; 2652,914;  305,692; 5526,607;44,95805
 526,64; 2711,981;  351,230; 5612,998;44,86611
 527,22; 2765,919;  350,616; 5719,181;44,98973
 527,80; 2840,747;  389,845; 5811,920;45,20228
 528,39; 2809,511;  325,460; 5872,543;44,78121
 528,97; 2868,512;  325,153; 5978,577;44,98795
 529,55; 2922,643;  335,771; 6130,053;44,64525
 530,14; 3016,820;  367,767; 6293,126;44,70705
 530,72; 3019,334;  329,306; 6366,578;44,55701
 531,30; 3044,915;  312,459; 6511,320;44,07997
 531,89; 3101,889;  330,228; 6552,628;44,54327
 532,47; 3118,774;  364,843; 6681,402;43,59859
 533,05; 3147,848;  360,153; 6677,919;44,12469
 533,63; 3142,896;  348,535; 6755,674;43,61325
 534,22; 3127,628;  324,996; 6714,482;43,86318
 534,80; 3198,461;  354,071; 6853,036;43,76681
 535,38; 3310,049;  462,151; 6950,707;43,89109
 535,97; 3168,468;  321,073; 6847,326;43,62985
 536,55; 3237,799;  397,686; 6924,884;43,51198
 537,13; 3188,758;  368,767; 6919,242;43,05017
 537,71; 3224,740;  400,767; 6942,048;43,17156
 538,30; 3264,373;  402,765; 7012,295;43,29517
 538,88; 3302,648;  439,069; 7128,972;42,80449
 539,46; 3422,729;  495,610; 7286,458;43,10388
 540,05; 3411,405;  485,762; 7347,659;42,63606
 540,63; 3488,035;  508,762; 7543,852;42,34875
 541,21; 3563,853;  526,684; 7667,785;42,53082
 541,79; 3635,057;  549,299; 7780,092;42,67524
 542,38; 3706,617;  581,916; 7875,773;42,84018
 542,96; 3737,255;  584,144; 7980,066;42,63310
 543,54; 3820,925;  604,607; 8164,629;42,54376
 544,12; 3799,090;  565,453; 8291,941;41,85132
 544,70; 3809,181;  562,605; 8385,298;41,50203
 545,29; 3870,068;  566,147; 8512,273;41,57901
 545,87; 3844,827;  578,146; 8531,707;41,07193
 546,45; 3820,038;  536,609; 8530,426;41,07461
 547,03; 3808,686;  516,762; 8591,549;40,76794
 547,62; 3791,574;  498,376; 8632,401;40,48670
 548,20; 3829,173;  516,221; 8840,064;39,80075
 548,78; 3817,135;  477,294; 8880,825;39,74330
 549,36; 3836,845;  465,448; 9026,130;39,38234
 549,94; 3832,995;  428,145; 9142,098;39,07354
 550,53; 3868,384;  439,218; 9317,086;38,62600
 551,11; 3929,162;  414,601; 9443,100;38,92741
 551,69; 4007,663;  430,756; 9739,513;38,42518
 552,27; 4046,020;  374,681; 9858,810;38,71035
 552,85; 4135,033;  388,216;10164,715;38,32473
 553,44; 4213,521;  395,525;10360,705;38,31336
 554,02; 4295,059;  403,986;10624,518;38,07114
 554,60; 4317,090;  352,755;10879,871;37,65832
 555,18; 4467,434;  388,064;11148,668;37,91024
 555,76; 4549,995;  378,832;11421,403;37,77348
 556,34; 4636,875;  380,215;11755,460;37,42039
 556,93; 4744,257;  373,217;12065,669;37,38343
 557,51; 4768,338;  341,676;12319,922;36,95585
 558,09; 4909,218;  375,679;12629,092;36,99817
 558,67; 4982,721;  361,136;12942,700;36,73299
 559,25; 5079,733;  382,599;13158,233;36,76635
 559,83; 5113,881;  356,905;13401,977;36,46570
 560,41; 5213,789;  347,907;13674,225;36,51332
 561,00; 5288,824;  369,906;13965,624;36,17991
 561,58; 5302,581;  352,985;14149,608;35,87542
 562,16; 5363,740;  341,216;14381,370;35,77257
 562,74; 5420,175;  325,448;14690,480;35,46618
 563,32; 5525,137;  324,674;15052,900;35,30950
 563,90; 5643,580;  347,444;15327,277;35,35511
 564,48; 5704,856;  363,677;15664,760;34,90720
 565,06; 5827,499;  342,675;16147,122;34,70431
 565,65; 6012,033;  355,134;16690,722;34,62930
 566,23; 6186,787;  405,059;17315,816;34,18964
 566,81; 6344,757;  340,368;17892,079;34,20971
 567,39; 6580,236;  348,058;18582,558;34,17795
 567,97; 6724,162;  385,752;19137,351;33,80197
 568,55; 6959,878;  409,597;19795,822;33,78833
 569,13; 7102,250;  357,598;20353,817;33,72964
 569,71; 7292,918;  324,832;21192,523;33,39175
 570,29; 7567,038;  404,218;22011,707;33,14971
 570,87; 7733,180;  383,448;22564,174;33,13567
 571,45; 7867,924;  367,137;23067,776;33,04219
 572,03; 7932,244;  315,211;23468,330;32,89852
 572,61; 8057,966;  319,828;24101,783;32,53786
 573,20; 8273,751;  353,368;24631,384;32,62368
 573,78; 8379,611;  330,674;25093,400;32,50425
 574,36; 8484,512;  352,674;25566,896;32,25099
 574,94; 8611,099;  417,134;25892,718;32,16399
 575,52; 8576,468;  325,209;26073,775;32,04551
 576,10; 8709,448;  389,979;26511,306;31,84934
 576,68; 8792,744;  359,288;27011,137;31,64304
 577,26; 8966,770;  381,900;27596,784;31,54476
 577,84; 9044,220;  387,059;28050,013;31,29514
 578,42; 9106,278;  442,595;28272,915;31,13038
 579,00; 9082,009;  368,751;28402,900;31,08087
 579,58; 9079,703;  418,596;28528,295;30,81181
 580,16; 8995,786;  363,825;28536,803;30,63915
 580,74; 9056,584;  365,287;28735,573;30,63521
 581,32; 8962,144;  360,441;28727,990;30,32233
 581,90; 8930,028;  396,441;28727,533;30,12093
 582,48; 8925,030;  376,287;28789,380;30,08734
 583,06; 8876,486;  358,903;28904,719;29,83829
 583,64; 8842,149;  358,288;28896,794;29,72777
 584,22; 8715,849;  383,208;28848,125;29,27337
 584,80; 8598,895;  382,672;28643,531;29,07280
 585,38; 8468,604;  389,292;28189,805;29,06174
 585,96; 8400,824;  343,289;28262,787;28,85988
 586,54; 8341,892;  374,362;28201,276;28,63246
 587,12; 8287,656;  352,056;28306,538;28,38758
 587,70; 8374,392;  385,289;28397,943;28,51962
 588,28; 8267,219;  344,825;28413,307;28,22523
 588,86; 8242,704;  364,670;28510,119;27,99043
 589,44; 8205,947;  328,591;28561,562;27,90126
 590,02; 8202,536;  341,899;28762,210;27,65852
 590,59; 8199,519;  325,209;28738,852;27,71313
 591,17; 8209,575;  348,050;28948,390;27,48752
 591,75; 8197,595;  323,282;28960,993;27,49631
 592,33; 8224,901;  352,283;29278,410;27,21629
 592,91; 8169,652;  294,281;29389,885;27,06722
 593,49; 8211,061;  314,203;29615,740;26,95032
 594,07; 8262,687;  330,742;29880,086;26,84305
 594,65; 8231,114;  350,439;29820,624;26,74118
 595,23; 8281,906;  336,669;30113,248;26,68284
 595,81; 8257,508;  331,976;30218,176;26,51904
 596,39; 8232,204;  325,975;30360,793;26,32354
 596,97; 8210,702;  311,666;30557,269;26,11631
 597,55; 8206,332;  312,515;30399,859;26,23634
 598,12; 8120,047;  294,202;30422,591;25,97499
 598,70; 8141,930;  295,281;30555,773;25,93034
 599,28; 8139,969;  332,127;30678,273;25,72927
 599,86; 8112,491;  313,050;30722,849;25,64779
 600,44; 8062,069;  272,434;30806,315;25,51145
 601,02; 8085,500;  346,123;30836,916;25,38267
 601,60; 7980,429;  319,205;30796,416;25,13755
 602,18; 7992,813;  282,664;30779,590;25,28173
 602,75; 7933,633;  288,899;30865,636;25,00180
 603,33; 7912,688;  306,819;30873,889;24,88256
 603,91; 7876,273;  283,278;30885,369;24,81201
 604,49; 7838,267;  307,665;30881,390;24,63096
 605,07; 7809,773;  317,359;30994,608;24,42336
 605,65; 7766,728;  315,588;31052,279;24,24184
 606,23; 7791,769;  345,978;31160,773;24,16304
 606,80; 7740,145;  355,514;31216,713;23,92853
 607,38; 7772,816;  363,663;31197,250;24,02949
 607,96; 7746,541;  390,130;31345,905;23,76426
 608,54; 7767,625;  435,818;31378,740;23,69462
 609,12; 7718,030;  427,668;31435,059;23,51169
 609,70; 7698,463;  435,281;31411,463;23,44764
 610,27; 7686,690;  419,745;31498,749;23,38217
 610,85; 7688,640;  459,897;31566,539;23,23859
 611,43; 7591,532;  442,050;31444,196;23,06125
 612,01; 7539,204;  406,052;31433,067;22,99013
 612,59; 7483,681;  413,435;31332,348;22,86706
 613,16; 7394,029;  400,208;31300,741;22,63333
 613,74; 7363,035;  383,358;31201,927;22,64763
 614,32; 7292,268;  381,049;31156,741;22,45675
 614,90; 7172,820;  373,743;31048,957;22,16473
 615,48; 7097,576;  347,208;30851,821;22,12901
 616,05; 6995,972;  319,901;30803,662;21,90042
 616,63; 6993,907;  341,363;30677,425;21,92949
 617,21; 6919,523;  331,515;30568,403;21,78798
 617,79; 6872,795;  319,129;30588,485;21,65116
 618,36; 6811,208;  331,975;30408,377;21,54258
 618,94; 6678,029;  265,207;30145,323;21,46184
 619,52; 6598,874;  307,055;29994,081;21,19383
 620,10; 6520,250;  275,591;29947,944;21,04538
 620,67; 6496,254;  293,517;29842,233;20,99156
 621,25; 6482,493;  309,513;29745,916;20,97057
 621,83; 6431,427;  283,515;29690,669;20,90618
 622,41; 6435,911;  350,977;29726,591;20,71424
 622,98; 6327,687;  314,671;29382,386;20,68624
 623,56; 6346,386;  318,671;29483,345;20,66786
 624,14; 6212,699;  296,281;29283,806;20,41022
 624,72; 6199,144;  303,669;29263,515;20,35741
 625,29; 6201,426;  287,056;29333,230;20,36196
 625,87; 6176,975;  335,052;29264,793;20,19348
 626,45; 6090,609;  284,056;29152,342;20,11395
 627,02; 6075,914;  293,744;29046,679;20,10984
 627,60; 5979,850;  267,511;29045,507;19,84967
 628,18; 5994,953;  262,899;29089,675;19,88448
 628,76; 6007,409;  258,055;29139,542;19,90671
 629,33; 6012,068;  307,285;29056,934;19,84297
 629,91; 5963,942;  277,514;29023,175;19,78186
 630,49; 5945,060;  304,593;29225,084;19,50336
 631,06; 5961,298;  287,055;29224,120;19,60891
 631,64; 5915,869;  289,210;29211,113;19,45467
 632,22; 5872,696;  264,826;29152,413;19,41273
 632,79; 5930,274;  292,057;29366,452;19,39238
 633,37; 5917,128;  265,667;29387,606;19,40620
 633,95; 5862,440;  284,595;29426,765;19,14012
 634,52; 5875,770;  274,054;29646,937;19,07105
 635,10; 5849,629;  286,976;29565,404;18,99915
 635,68; 5865,709;  287,134;29761,836;18,92666
 636,25; 5837,616;  263,904;29705,248;18,93158
 636,83; 5824,947;  253,901;29912,080;18,78418
 637,41; 5805,701;  273,596;29828,910;18,71780
 637,98; 5815,313;  306,673;30037,063;18,52865
 638,56; 5799,760;  279,366;30170,244;18,46849
 639,13; 5767,493;  257,902;30144,270;18,43513
 639,71; 5880,209;  341,593;30305,928;18,48403
 640,29; 5673,603;  232,439;30073,417;18,23387
 640,86; 5714,141;  261,132;30333,564;18,13292
 641,44; 5636,525;  266,747;30277,866;17,89263
 642,02; 5706,447;  290,055;30228,706;18,09164
 642,59; 5686,138;  250,901;30405,468;18,02459
 643,17; 5672,907;  257,439;30435,231;17,94521
 643,74; 5635,598;  254,670;30417,994;17,83931
 644,32; 5641,828;  278,593;30401,988;17,80422
 644,89; 5589,905;  278,208;30386,520;17,64196
 645,47; 5619,904;  288,823;30405,052;17,70169
 646,05; 5621,672;  281,823;30394,892;17,73266
 646,62; 5483,902;  263,746;30275,962;17,39344
 647,20; 5533,902;  269,823;30494,802;17,41632
 647,77; 5502,209;  241,131;30418,719;17,43373
 648,35; 5478,669;  231,438;30305,712;17,44757
 648,92; 5459,361;  264,130;30254,168;17,32319
 649,50; 5442,360;  237,207;30278,930;17,32641
 650,08; 5402,898;  230,284;30135,001;17,29698
 650,65; 5413,743;  252,284;30321,841;17,16507
 651,23; 5462,050;  218,515;30809,373;17,14086
 651,80; 5618,819;  227,207;31718,213;17,12112
 652,38; 5670,356;  250,130;32069,668;17,03427
 652,95; 5695,740;  231,515;32456,431;16,95652
 653,53; 5729,585;  245,514;32679,040;16,90865
 654,10; 5795,662;  283,899;32812,418;16,94440
 654,68; 5682,661;  231,745;32669,335;16,80432
 655,25; 5680,968;  224,822;32728,790;16,78609
 655,83; 5666,659;  231,437;32816,630;16,68004
 656,40; 5682,582;  273,360;32820,469;16,61967
 656,98; 5657,196;  241,206;32834,232;16,61702
 657,55; 5617,811;  243,052;32723,995;16,54742
 658,13; 5534,733;  241,821;32366,143;16,47634
 658,70; 5521,886;  268,129;32158,367;16,47450
 659,28; 5377,347;  240,129;31474,361;16,44740
 659,85; 5264,654;  274,667;30820,585;16,33602
 660,43; 5247,884;  259,744;30682,117;16,39629
 661,00; 5238,345;  252,590;30825,957;16,30751
 661,58; 5252,652;  236,898;31013,335;16,29738
 662,15; 5240,189;  235,744;31192,098;16,16613
 662,73; 5391,266;  308,821;31424,015;16,33429
 663,30; 5325,649;  241,975;31621,701;16,20051
 663,88; 5298,418;  249,898;31646,540;16,07981
 664,45; 5317,340;  241,667;31939,842;16,01251
 665,03; 5359,186;  231,820;32257,758;16,01004
 665,60; 5514,646;  341,743;32606,598;16,03262
 666,17; 5417,646;  246,897;32631,207;15,96683
 666,75; 5384,568;  243,282;32926,739;15,73055
 667,32; 5522,875;  266,359;33298,194;15,91348
 667,90; 5505,874;  257,589;33444,803;15,81418
 668,47; 5553,104;  274,743;33657,797;15,81150
 669,05; 5581,642;  239,435;33942,791;15,85067
 669,62; 5516,949;  224,666;33967,169;15,68432
 670,19; 5547,486;  222,974;34069,778;15,73121
 670,77; 5569,793;  253,666;34231,233;15,64599
 671,34; 5566,716;  242,281;34088,534;15,73124
 671,92; 5610,869;  229,973;34483,913;15,70884
 672,49; 5570,714;  259,281;34460,368;15,53001
 673,06; 5585,483;  209,435;34466,515;15,69325
 673,64; 5591,943;  226,281;34473,509;15,66744
 674,21; 5591,020;  212,204;34427,349;15,72057
 674,79; 5626,019;  258,742;34672,035;15,59652
 675,36; 5643,480;  255,127;34711,567;15,63816
 675,93; 5588,248;  207,204;34592,407;15,64930
 676,51; 5639,401;  247,511;34809,169;15,60078
 677,08; 5652,093;  243,280;34850,932;15,62895
 677,65; 5674,553;  246,434;34861,234;15,68150
 678,23; 5652,707;  245,665;35089,458;15,51795
 678,80; 5687,937;  230,434;35136,375;15,63488
 679,38; 5707,397;  233,588;35252,830;15,63086
 679,95; 5695,397;  249,357;35525,054;15,43850
 680,52; 5722,857;  234,203;35772,356;15,44440
 681,10; 5842,472;  258,818;36171,888;15,54769
 681,67; 5849,702;  251,357;36259,035;15,54764
 682,24; 5811,470;  206,280;36386,260;15,49252
 682,82; 5883,316;  237,741;36745,792;15,46392
 683,39; 5983,315;  283,433;37066,016;15,49614
 683,96; 5970,545;  247,895;37278,856;15,45369
 684,54; 6039,775;  213,895;37639,850;15,56642
 685,11; 6114,928;  290,356;37925,074;15,47659
 685,68; 6119,004;  238,664;38169,837;15,50266
 686,25; 6146,157;  221,356;38295,369;15,56127
 686,83; 6164,541;  231,664;38387,593;15,54903
 687,40; 6200,694;  218,971;38711,741;15,53986
 687,97; 6298,078;  273,279;39111,427;15,51258
 688,55; 6226,308;  216,971;39122,190;15,44610
 689,12; 6268,384;  213,663;39254,952;15,50851
 689,69; 6312,153;  213,509;39285,254;15,60883
 690,26; 6309,614;  227,355;39464,632;15,50122
 690,84; 6368,382;  218,586;39549,241;15,63614
 691,41; 6382,074;  244,048;39679,081;15,56491
 691,98; 6458,996;  241,124;40035,767;15,62490
 692,56; 6387,072;  221,817;39923,683;15,52888
 693,13; 6440,456;  276,047;40073,985;15,48927
 693,70; 6486,994;  250,739;40198,978;15,61084
 694,27; 6467,224;  221,970;40273,972;15,59286
 694,84; 6432,684;  227,739;40409,196;15,44231
 695,42; 6651,607;  363,047;40562,498;15,64340
 695,99; 6509,991;  238,201;40668,261;15,51269
 696,56; 6556,759;  229,278;40425,177;15,74161
 697,13; 6574,989;  250,893;40928,094;15,54703
 697,71; 6547,450;  237,354;40919,011;15,51091
 698,28; 6647,757;  233,970;41056,697;15,71131
 698,85; 6607,756;  206,970;41095,767;15,65413
 699,42; 6678,447;  210,354;41349,915;15,72232
 699,99; 6732,601;  255,816;41336,447;15,76603
 700,57; 6718,138;  249,123;41415,440;15,71434
 701,14; 6746,830;  224,969;41550,203;15,78179
 701,71; 6778,214;  251,892;41730,889;15,73404
 702,28; 6787,598;  223,277;41843,883;15,77180
 702,85; 6795,828;  231,584;41842,876;15,77515
 703,43; 6866,442;  252,430;42044,947;15,82583
 704,00; 6918,134;  264,353;42261,787;15,84330
 704,57; 6880,902;  232,969;42225,319;15,83130
 705,14; 6997,517;  260,122;42461,928;15,96471
 705,71; 6959,285;  269,507;42584,152;15,80960
 706,28; 6945,746;  240,353;42407,146;15,90207
 706,86; 7036,899;  267,199;42609,524;15,98802
 707,43; 7065,668;  291,507;42608,672;16,00807
 708,00; 7036,436;  272,430;42597,050;15,98126
 708,57; 7012,358;  234,353;42547,890;16,01853
 709,14; 7043,281;  253,045;42677,652;16,00542
 709,71; 7117,741;  234,583;42723,492;16,19989
 710,28; 7100,202;  249,891;42956,101;16,04055
 710,86; 7177,048;  242,199;43044,941;16,20188
 711,43; 7204,124;  281,122;43032,704;16,19356
 712,00; 7236,431;  244,814;43090,159;16,31826
 712,57; 7278,045;  273,968;43237,537;16,30236
 713,14; 7282,275;  250,737;43336,454;16,31988
 713,71; 7290,967;  267,814;43246,371;16,34106
 714,28; 7303,505;  249,583;43236,134;16,40960
 714,85; 7266,350;  233,813;43089,127;16,40995
 715,42; 7367,349;  242,736;43212,505;16,58052
 716,00; 7457,118;  330,044;43356,730;16,56431
 716,57; 7413,655;  245,505;43522,647;16,56336
 717,14; 7425,808;  235,352;43316,486;16,69050
 717,71; 7417,885;  216,275;43472,172;16,64885
 718,28; 7528,807;  284,967;43603,320;16,72234
 718,85; 7452,268;  212,121;43541,621;16,70951
 719,42; 7563,652;  246,736;43593,461;16,87997
 719,99; 7509,805;  228,890;43414,147;16,85972
 720,56; 7589,573;  266,813;43777,140;16,82994
 721,13; 7576,418;  221,889;43855,211;16,85530
 721,70; 7604,341;  232,889;43612,358;16,99295
 722,27; 7599,648;  257,812;43730,814;16,88826
 722,84; 7743,185;  316,120;43911,577;17,03633
 723,41; 7663,646;  223,120;43891,032;17,03889
 723,98; 7744,184;  233,427;43995,487;17,16271
 724,55; 7796,414;  260,274;44173,942;17,16126
 725,12; 7740,490;  200,504;44037,474;17,20006
 725,69; 7889,105;  243,581;44181,468;17,40075
 726,27; 7862,796;  226,658;44316,308;17,31957
 726,84; 7987,795;  245,735;44467,840;17,50722
 727,41; 7995,872;  256,889;44551,833;17,47148
 727,98; 8061,486;  257,042;44802,596;17,52014
 728,55; 8086,178;  297,196;44755,128;17,51989
 729,12; 8063,639;  226,119;44790,891;17,58680
 729,69; 8159,945;  263,811;44922,500;17,68107
 730,26; 8157,252;  254,350;45143,724;17,60529
 730,82; 8184,175;  253,888;45098,103;17,68408
 731,39; 8241,097;  245,965;45088,019;17,82954
 731,96; 8276,019;  222,888;45360,090;17,84145
 732,53; 8433,172;  252,195;45507,699;18,07731
 733,10; 8443,556;  263,426;45678,770;18,01182
 733,67; 8484,940;  250,041;45739,840;18,10274
 734,24; 8471,401;  237,195;45466,218;18,20558
 734,81; 8495,169;  282,195;45622,827;18,11394
 735,38; 8497,630;  258,041;45525,744;18,20192
 735,95; 8515,014;  263,272;45320,276;18,31401
 736,52; 8565,552;  247,426;45478,501;18,39029
 737,09; 8552,166;  268,426;45200,725;18,43605
 737,66; 8650,627;  318,887;45480,103;18,44888
 738,23; 8655,549;  257,349;45489,405;18,56692
 738,80; 8816,318;  338,964;45834,783;18,63326
 739,37; 8755,932;  289,348;45843,315;18,58583
 739,94; 8873,009;  258,810;45876,616;18,88341
 740,51; 9033,008;  420,348;46032,610;18,88233
 741,07; 8855,853;  262,348;46013,988;18,78294
 741,64; 8925,776;  285,502;46088,443;18,86401
 742,21; 9033,313;  268,117;46098,437;19,12532
 742,78; 8961,236;  239,579;45969,200;19,07223
 743,35; 8980,312;  265,886;46198,963;18,97200
 743,92; 9094,542;  326,117;46355,341;19,04969
 744,49; 9166,079;  314,348;46251,334;19,26929
 745,06; 9099,002;  260,886;46256,482;19,21513
 745,63; 9104,847;  242,655;46212,937;19,27809
 746,19; 9215,077;  266,040;46279,700;19,44865
 746,76; 9183,999;  269,270;46202,540;19,40800
 747,33; 9266,999;  272,578;46311,072;19,53674
 747,90; 9335,229;  277,501;46478,065;19,60523
 748,47; 9379,459;  275,116;46369,367;19,75158
 749,04; 9402,920;  277,501;46429,822;19,77239
 749,61; 9445,919;  314,501;46430,123;19,80114
 750,17; 9466,149;  287,885;46419,040;19,89602
 750,74; 9474,917;  287,577;46394,187;19,92630
 751,31; 9458,070;  247,424;46338,335;19,98365
 751,88; 9521,300;  245,962;46223,559;20,17360
 752,45; 9581,530;  260,500;46379,168;20,21097
 753,02; 9615,453;  281,039;46202,623;20,32685
 753,58; 9609,683;  258,192;46049,848;20,42182
 754,15; 9676,759;  261,115;46249,380;20,47401
 754,72; 9649,296;  250,346;46024,835;20,53316
 755,29; 9645,219;  258,115;45829,060;20,59888
 755,86; 9705,680;  278,192;45989,361;20,62404
 756,42; 9779,371;  281,038;45922,278;20,81086
 756,99; 9779,063;  234,115;45845,271;20,92678
 757,56; 9766,523;  241,577;45842,726;20,88751
 758,13; 9759,600;  194,653;45746,258;20,99804
 758,70; 9906,983;  244,576;45813,406;21,20398
 759,26; 9887,213;  227,269;45909,323;21,14604
 759,83; 9949,367;  244,345;45917,470;21,24887
 760,40; 9938,520;  217,115;45844,541;21,30606
 760,97; 9997,134;  213,653;45946,611;21,39263
 761,53; 9974,749;  201,191;45538,297;21,55752
 762,10;10012,210;  200,191;45633,829;21,59637
 762,67;10104,593;  229,345;45480,900;21,82300
 763,24;10002,439;  178,960;45142,740;21,84754
 763,80;10020,823;  220,576;45303,426;21,73830
 764,37;10068,976;  223,422;45338,419;21,82324
 764,94;10033,437;  217,345;44805,413;22,01506
 765,50;10044,897;  217,114;44845,868;22,02119
 766,07;10127,512;  254,191;44927,939;22,10095
 766,64;10082,280;  233,191;44698,548;22,15003
 767,21;10131,126;  241,114;44582,926;22,30403
 767,77;10158,587;  244,190;44542,304;22,38108
 768,34;10180,663;  257,498;44448,682;22,45508
 768,91;10188,970;  266,190;44302,984;22,53293
 769,47;10184,661;  256,575;44390,746;22,49524
 770,04;10231,276;  263,652;44253,663;22,65884
 770,61;10234,429;  234,959;43964,349;22,86670
 771,18;10227,428;  240,267;43998,112;22,82370
 771,74;10315,966;  255,498;44062,490;22,96544
 772,31;10317,119;  271,344;43868,561;23,04224
 772,88;10282,657;  235,882;43699,785;23,11522
 773,44;10286,810;  234,343;43574,317;23,19444
 774,01;10404,963;  275,574;43676,695;23,33900
 774,58;10341,347;  235,805;43413,381;23,40461
 775,14;10416,884;  238,420;43453,375;23,55311
 775,71;10403,191;  234,035;43417,446;23,54876
 776,27;10449,267;  313,882;43282,978;23,58762
 776,84;10615,267;  366,805;43421,894;23,80314
 777,41;10509,035;  264,958;43214,965;23,85116
 777,97;10503,111;  250,497;42939,420;24,01704
 778,54;10543,341;  260,112;42996,260;24,06213
 779,11;10627,418;  288,727;42979,946;24,21737
 779,67;10635,955;  268,419;42977,324;24,27488
 780,24;10632,570;  265,189;42792,087;24,37841
 780,80;10716,415;  269,035;42735,465;24,60150
 781,37;10703,645;  285,342;42748,228;24,53508
 781,94;10689,183;  267,881;42466,222;24,69600
 782,50;10770,105;  267,342;42478,831;24,88129
 783,07;10783,335;  286,573;42588,055;24,81417
 783,63;10807,642;  257,496;42370,895;25,05176
 784,20;10853,180;  295,803;42269,658;25,15227
 784,77;10808,025;  261,111;42054,805;25,23566
 785,33;10800,024;  240,034;42003,260;25,28538
 785,90;10856,485;  256,957;41958,408;25,41765
 786,46;10885,100;  286,957;41880,325;25,48037
 787,03;10889,099;  260,341;41802,472;25,58549
 787,59;10948,098;  259,726;41700,927;25,79166
 788,16;10983,559;  274,418;41620,844;25,90101
 788,73;10930,712;  274,034;41597,453;25,78847
 789,29;10966,942;  251,110;41260,908;26,12993
 789,86;10965,095;  295,495;41199,056;26,08477
 790,42;10987,479;  271,341;40958,818;26,33768
 790,99;10981,632;  272,341;40754,966;26,45404
 791,55;10996,324;  261,879;40746,421;26,51492
 792,12;11086,554;  306,956;40708,645;26,68106
 792,68;11048,553;  277,033;40461,408;26,80524
 793,25;11016,860;  285,494;40209,171;26,87970
 793,81;11113,475;  366,571;39938,011;27,15823
 794,38;10962,474;  244,033;39787,620;27,10538
 794,94;11014,858;  261,494;39647,383;27,30258
 795,51;11011,242;  273,648;39460,069;27,40131
 796,07;10983,933;  273,879;39260,832;27,47087
 796,64;11059,240;  291,032;39409,210;27,52738
 797,20;10980,932;  286,494;38950,588;27,65987
 797,77;10905,469;  231,878;38631,659;27,79597
 798,33;10933,699;  261,417;38575,345;27,85484
 798,90;10984,160;  280,878;38519,877;27,99049
 799,46;10963,159;  255,032;38056,409;28,32735
 800,03;10938,543;  269,340;38048,556;28,24093
 800,59;10932,542;  281,416;37944,165;28,28027
 801,15;10967,465;  289,032;37662,851;28,57196
 801,72;10841,848;  270,109;37398,383;28,47356
 802,28;10917,232;  292,570;37212,685;28,77744
 802,85;10846,385;  274,493;36984,986;28,79801
 803,41;10843,308;  276,570;36836,980;28,90213
 803,98;10844,076;  262,185;36430,973;29,25697
 804,54;10792,460;  266,954;36340,582;29,17784
 805,11;10875,613;  279,262;36156,345;29,53515
 805,67;10858,535;  303,723;36007,339;29,56231
 806,23;10693,919;  280,493;35717,871;29,38543
 806,80;10782,534;  291,108;35601,403;29,71209
 807,36;10753,456;  299,339;35624,089;29,59431
 807,93;10745,148;  308,108;35394,313;29,74685
 808,49;10632,301;  271,338;35077,230;29,76784
 809,05;10630,685;  253,800;34892,993;29,95706
 809,62;10685,915;  285,877;34816,679;30,11815
 810,18;10691,376;  269,338;34789,826;30,19087
 810,74;10615,759;  239,415;34568,589;30,22602
 811,31;10641,374;  256,953;34472,121;30,35034
 811,87;10631,758;  280,184;34216,269;30,50315
 812,44;10702,219;  294,953;34357,416;30,55347
 813,00;10636,602;  222,953;34017,641;30,81446
 813,56;10715,217;  276,107;34080,173;30,88123
 814,13;10679,678;  279,030;34023,166;30,82209
 814,69;10698,523;  251,876;33879,160;31,06599
 815,25;10585,446;  227,722;33471,154;31,15720
 815,82;10667,906;  277,645;33500,147;31,27477
 816,38;10731,367;  313,568;33346,372;31,53774
 816,94;10602,520;  237,953;33033,134;31,60393
 817,51;10606,981;  235,106;32749,128;31,89970
 818,07;10575,519;  252,568;32706,814;31,80770
 818,63;10562,749;  259,183;32416,269;32,04135
 819,20;10595,363;  265,798;32452,263;32,09288
 819,76;10563,439;  237,721;32109,564;32,39762
 820,32;10585,362;  282,183;32075,173;32,40708
 820,89;10524,130;  268,337;31837,859;32,48638
 821,45;10509,668;  251,952;31549,007;32,77534
 822,01;10531,590;  270,798;31403,616;32,95812
 822,57;10526,128;  274,106;31264,225;33,08158
 823,14;10451,435;  230,798;31097,295;33,11240
 823,70;10423,126;  243,028;30937,212;33,16621
 824,26;10378,741;  249,259;30755,975;33,20411
 824,82;10443,817;  284,721;30647,661;33,45887
 825,39;10399,278;  246,105;30400,577;33,67054
 825,95;10410,354;  263,874;30414,263;33,65290
 826,51;10380,738;  267,874;30120,488;33,87597
 827,08;10446,353;  296,874;30146,327;34,00223
 827,64;10450,429;  284,643;29959,552;34,25718
 828,20;10333,274;  245,182;29785,007;34,15082
 828,76;10394,889;  290,259;29812,385;34,22731
 829,32;10387,350;  298,335;29650,456;34,37235
 829,89;10355,118;  241,105;29518,142;34,54589
 830,45;10410,117;  276,643;29463,674;34,71910
 831,01;10366,116;  271,951;29353,052;34,71040
 831,57;10391,577;  270,489;29269,430;34,90158
 832,14;10384,423;  256,335;29244,193;34,93907
 832,70;10372,576;  244,181;28954,418;35,27799
 833,26;10352,344;  220,027;28888,565;35,34299
 833,82;10366,959;  261,565;28903,713;35,28155
 834,38;10442,420;  250,719;28807,091;35,68976
 834,95;10444,880;  243,565;28727,392;35,81441
 835,51;10386,418;  218,181;28604,463;35,82096
 836,07;10437,340;  249,104;28714,764;35,79132
 836,63;10564,493;  281,257;28682,527;36,20696
 837,19;10518,185;  269,257;28549,982;36,23998
 837,75;10415,569;  221,642;28266,437;36,34873
 838,32;10520,799;  284,719;28343,585;36,48073
 838,88;10508,952;  282,488;28406,809;36,36164
 839,44;10588,413;  273,488;28302,880;36,80039
 840,00;10569,643;  259,949;28280,642;36,79314
 840,56;10483,565;  243,103;28033,021;36,84956
 841,12;10543,795;  239,488;27914,476;37,23329
 841,68;10508,564;  231,334;27790,469;37,29155
 842,25;10570,947;  248,026;27896,155;37,33678
 842,81;10490,716;  241,718;27616,688;37,43930
 843,37;10599,254;  232,026;27647,758;37,81489
 843,93;10656,407;  255,487;27594,059;38,04485
 844,49;10745,714;  262,872;27645,822;38,28237
 845,05;10667,174;  210,025;27405,047;38,45244
 845,61;10774,943;  268,718;27456,886;38,64264
 846,17;10738,788;  238,871;27339,342;38,74441
 846,73;10724,634;  254,948;27315,028;38,69052
 847,29;10660,325;  236,102;27138,637;38,74811
 847,86;10680,247;  241,948;27111,861;38,84754
 848,42;10716,554;  242,794;26990,393;39,15776
 848,98;10736,861;  263,486;26910,387;39,30429
 849,54;10711,399;  252,563;26995,765;39,10839
 850,10;10721,321;  266,179;26909,682;39,24087
 850,66;10655,936;  235,563;26666,829;39,42442
 851,22;10702,474;  226,717;26607,592;39,70966
 851,78;10770,473;  285,178;26678,355;39,72729
 852,34;10716,703;  269,640;26529,195;39,78385
 852,90;10688,548;  248,870;26495,034;39,77601
 853,46;10652,778;  238,563;26244,028;40,04626
 854,02;10714,393;  254,409;26301,252;40,15836
 854,58;10663,238;  250,870;26099,554;40,28201
 855,14;10728,084;  239,562;26025,470;40,67540
 855,70;10677,314;  212,947;25916,464;40,71181
 856,26;10695,236;  256,947;25867,150;40,75832
 856,82;10688,697;  253,870;25749,374;40,92811
 857,38;10755,542;  302,254;25675,906;41,19741
 857,94;10711,464;  248,716;25611,362;41,25259
 858,50;10680,694;  274,254;25480,586;41,28502
 859,06;10607,309;  243,331;25218,503;41,49712
 859,62;10632,231;  271,946;25298,035;41,39794
 860,18;10601,000;  252,100;25060,721;41,71493
 860,74;10543,230;  216,562;25002,714;41,66305
 861,30;10579,306;  246,869;24816,708;42,05334
 861,86;10657,690;  319,946;24890,625;42,07350
 862,42;10559,535;  240,715;24682,695;42,21761
 862,98;10651,304;  291,869;24688,997;42,46170
 863,54;10594,611;  249,023;24474,760;42,70495
 864,10;10605,995;  253,253;24526,907;42,65011
 864,66;10562,763;  218,176;24366,362;42,83795
 865,22;10589,685;  255,022;24190,125;43,17785
 865,78;10589,531;  248,253;24193,811;43,18662
 866,34;10517,299;  238,253;24092,112;43,09175
 866,90;10523,298;  251,791;23978,798;43,29036
 867,45;10479,375;  243,253;23773,330;43,50229
 868,01;10491,528;  257,868;23686,862;43,67947
 868,57;10426,681;  239,714;23600,087;43,60789
 869,13;10462,141;  237,330;23485,080;43,98194
 869,69;10417,833;  233,406;23371,305;44,01621
 870,25;10333,909;  220,022;23242,145;43,93117
 870,81;10359,447;  241,099;23242,754;43,98965
 871,37;10355,908;  257,175;23147,440;44,11802
 871,93;10354,676;  275,175;23046,818;44,26339
 872,49;10305,522;  300,406;22873,273;44,32364
 873,04;10276,290;  226,867;22713,420;44,69081
 873,60;10219,212;  230,867;22635,029;44,58254
 874,16;10212,288;  261,790;22568,177;44,60829
 874,72;10227,135;  232,098;22491,946;44,90164
 875,28;10253,750;  246,329;22428,408;45,11489
 875,84;10242,519;  250,406;22390,869;45,13055
 876,40;10217,904;  237,252;22352,946;45,12927
 876,95;10270,750;  265,637;22299,792;45,40729
 877,51;10329,596;  283,637;22322,254;45,58344
 878,07;10331,904;  297,252;22311,331;45,58288
 878,63;10310,904;  254,483;22296,177;45,62454
 879,19;10339,827;  270,098;22358,331;45,58866
 879,75;10362,212;  247,252;22321,638;45,82216
 880,30;10388,904;  239,406;22373,638;45,85430
 880,86;10468,981;  292,637;22521,562;45,77974
 881,42;10444,365;  232,021;22510,946;45,83859
 881,98;10466,212;  264,406;22569,638;45,73728
 882,54;10500,365;  254,098;22638,485;45,77417
 883,09;10543,212;  268,483;22714,408;45,77548
 883,65;10559,519;  227,406;22761,638;45,85074
 884,21;10699,135;  280,944;22960,177;45,93714
 884,77;10645,981;  238,483;22999,715;45,72467
 885,32;10743,212;  249,329;23011,638;46,10201
 885,88;10847,827;  288,098;23216,792;46,05465
 886,44;10911,135;  257,637;23296,715;46,24099
 887,00;10962,673;  278,252;23317,638;46,37459
 887,56;10965,981;  247,867;23393,946;46,30639
 888,11;10992,058;  256,098;23412,254;46,36331
 888,67;11064,288;  274,790;23560,715;46,33485
 889,23;11056,365;  260,483;23537,869;46,37927
 889,79;11068,288;  236,560;23478,177;46,60488
 890,34;11065,981;  261,637;23438,869;46,61620
 890,90;11179,058;  335,252;23556,100;46,69858
 891,46;11159,596;  251,944;23515,331;46,88764
 892,01;11170,442;  271,637;23481,408;46,95783
 892,57;11221,673;  290,867;23462,100;47,17404
 893,13;11109,904;  254,637;23253,715;47,19870
 893,69;11060,135;  233,175;23210,254;47,12070
 894,24;11069,135;  247,098;23140,023;47,27241
 894,80;11111,058;  248,944;23016,946;47,70780
 895,36;11033,442;  252,713;22917,177;47,56666
 895,91;10999,596;  247,560;22825,408;47,62206
 896,47;11048,135;  278,790;22719,100;47,99107
 897,03;10985,673;  252,252;22567,638;48,09875
 897,58;10935,827;  259,560;22400,946;48,21860
 898,14;10939,288;  261,406;22242,792;48,57693
 898,70;10924,827;  213,406;22143,177;48,84420
 899,25;10982,365;  253,329;22181,715;48,92761
 899,81;10946,442;  251,867;22036,408;49,09250
 900,37;10865,365;  222,713;21764,946;49,40366
 900,92;10857,135;  245,252;21832,023;49,15919
 901,48;10842,673;  243,790;21694,254;49,41097
 902,03;10857,288;  242,713;21513,023;49,90325
 902,59;10764,904;  239,252;21413,408;49,70990
 903,15;10810,365;  255,637;21360,715;50,01037
 903,70;10669,904;  240,406;21169,177;49,83330
 904,26;10734,288;  245,175;21055,177;50,40419
 904,82;10731,673;  243,098;21036,638;50,44151
 905,37;10741,673;  267,406;20925,485;50,70301
 905,93;10655,212;  237,944;20862,100;50,51003
 906,48;10689,596;  261,252;20831,946;50,69515
 907,04;10725,750;  258,098;20762,331;51,05118
 907,60;10684,365;  266,713;20541,562;51,38215
 908,15;10646,442;  227,021;20455,408;51,50891
 908,71;10687,673;  258,406;20409,408;51,75558
 909,26;10616,519;  239,483;20304,177;51,71789
 909,82;10655,135;  261,483;20233,869;52,04011
 910,37;10639,288;  285,944;20174,331;52,05724
 910,93;10588,981;  236,637;19962,485;52,48111
 911,48;10468,827;  224,637;19879,562;52,12022
 912,04;10478,058;  235,329;19814,869;52,31343
 912,60;10512,212;  244,021;19806,562;52,48904
 913,15;10528,135;  252,021;19604,792;53,09893
 913,71;10444,058;  228,175;19536,331;52,90968
 914,26;10392,365;  213,021;19437,023;52,95122
 914,82;10432,365;  258,560;19373,254;53,22505
 915,37;10395,519;  236,560;19328,331;53,21120
 915,93;10439,519;  306,713;19241,254;53,51493
 916,48;10368,750;  217,098;19115,946;53,71572
 917,04;10334,365;  255,560;19033,331;53,67413
 917,59;10362,058;  268,637;18987,254;53,92183
 918,15;10204,596;  210,406;18833,715;53,66495
 918,70;10179,596;  230,713;18762,869;53,68443
 919,26;10170,827;  243,560;18633,638;53,98165
 919,81;10086,673;  220,098;18520,254;53,91525
 920,37;10157,442;  234,329;18455,946;54,45792
 920,92;10134,212;  252,560;18444,177;54,31981
 921,48;10001,673;  224,867;18301,254;54,08606
 922,03; 9998,058;  229,637;18233,100;54,25857
 922,59; 9954,673;  243,483;18105,562;54,36764
 923,14; 9957,365;  251,406;18036,638;54,57314
 923,69; 9937,981;  264,637;17984,792;54,58950
 924,25; 9952,596;  273,944;17944,254;54,77353
 924,80; 9840,288;  234,098;17753,792;54,83081
 925,36; 9826,212;  221,021;17678,946;55,01908
 925,91; 9786,442;  225,098;17594,408;55,04735
 926,47; 9767,673;  207,560;17556,638;55,10444
 927,02; 9846,058;  315,098;17558,638;55,27264
 927,57; 9682,058;  226,175;17284,023;55,43421
 928,13; 9694,827;  215,483;17281,023;55,54670
 928,68; 9663,904;  228,637;17233,023;55,48725
 929,24; 9583,596;  203,252;17075,331;55,59685
 929,79; 9582,827;  224,790;16946,638;55,96293
 930,34; 9514,288;  221,713;16873,331;55,80584
 930,90; 9492,904;  213,252;16818,638;55,88338
 931,45; 9569,827;  232,406;16841,023;56,22034
 932,01; 9501,904;  228,252;16796,408;55,97275
 932,56; 9463,519;  257,252;16666,023;56,10577
 933,11; 9468,442;  260,021;16579,485;56,42600
 933,67; 9314,212;  215,790;16498,408;55,87812
 934,22; 9367,058;  228,944;16413,638;56,46145
 934,77; 9343,058;  262,252;16297,100;56,63169
 935,33; 9282,288;  228,790;16237,715;56,55282
 935,88; 9282,365;  241,560;16149,562;56,83181
 936,43; 9245,135;  232,406;16092,562;56,82623
 936,99; 9186,442;  234,175;15959,946;56,92737
 937,54; 9159,288;  215,098;15838,638;57,24817
 938,09; 9149,981;  239,867;15850,485;57,07727
 938,65; 9123,058;  238,637;15749,177;57,27989
 939,20; 9070,904;  204,483;15622,177;57,50809
 939,75; 9081,904;  211,021;15540,100;57,86964
 940,31; 9077,288;  209,252;15446,562;58,19949
 940,86; 9103,058;  231,637;15465,331;58,23552
 941,41; 9183,519;  337,790;15419,946;58,65029
 941,96; 9066,596;  216,790;15296,562;58,68661
 942,52; 9065,442;  222,867;15159,408;59,20096
 943,07; 9028,212;  206,560;15129,792;59,11355
 943,62; 9006,519;  226,944;15026,100;59,32484
 944,18; 9012,058;  198,790;14977,254;59,63588
 944,73; 8990,596;  245,944;14924,946;59,57252
 945,28; 8970,596;  192,790;14737,562;60,35025
 945,83; 9001,827;  219,483;14770,177;60,35687
 946,39; 8994,596;  217,637;14769,177;60,31636
 946,94; 8907,365;  242,329;14655,485;60,11894
 947,49; 8872,058;  212,944;14504,869;60,58745
 948,04; 8947,750;  274,252;14543,946;60,78265
 948,59; 8871,596;  247,175;14437,946;60,77486
 949,15; 8790,596;  215,175;14429,638;60,32884
 949,70; 8792,288;  225,944;14290,792;60,90606
 950,25; 8771,904;  232,329;14228,408;61,01405
 950,80; 8716,288;  187,790;14121,100;61,20942
 951,36; 8653,288;  179,021;14015,715;61,24488
 951,91; 8728,058;  236,329;14056,254;61,44555
 952,46; 8638,519;  225,944;13898,177;61,53037
 953,01; 8660,442;  224,483;13934,254;61,53246
 953,56; 8574,673;  194,406;13775,869;61,70371
 954,11; 8618,365;  228,098;13778,638;61,91832
 954,67; 8512,212;  224,713;13705,023;61,47854
 955,22; 8529,596;  203,790;13541,100;62,42493
 955,77; 8580,058;  249,175;13578,946;62,49832
 956,32; 8509,519;  279,406;13514,023;62,18626
 956,87; 8400,365;  216,098;13390,562;62,12221
 957,42; 8444,519;  217,329;13284,100;62,96269
 957,98; 8420,673;  209,098;13328,485;62,59115
 958,53; 8424,750;  255,329;13253,485;62,85062
 959,08; 8391,212;  196,867;13110,715;63,45393
 959,63; 8390,981;  223,098;13049,023;63,68260
 960,18; 8330,365;  242,713;13036,331;63,21630
 960,73; 8363,750;  219,713;13011,715;63,66507
 961,28; 8311,904;  197,406;12875,408;64,00455
 961,83; 8304,981;  244,560;12834,869;64,02083
 962,39; 8239,827;  206,637;12727,408;64,15891
 962,94; 8244,904;  227,483;12728,254;64,13541
 963,49; 8181,596;  232,713;12643,715;64,04707
 964,04; 8214,750;  237,021;12593,100;64,56521
 964,59; 8125,288;  209,021;12445,869;64,69205
 965,14; 8172,365;  262,021;12509,331;64,58842
 965,69; 8114,135;  231,560;12355,946;65,01422
 966,24; 8052,442;  218,252;12294,177;64,87445
 966,79; 8050,058;  251,406;12194,638;65,29766
 967,34; 7925,519;  196,406;12056,023;65,17169
 967,89; 7980,135;  226,252;12113,869;65,22655
 968,44; 7933,596;  231,098;11975,792;65,58279
 968,99; 7944,750;  236,098;11943,177;65,84608
 969,55; 7846,596;  235,637;11895,023;65,27753
 970,10; 7838,981;  236,560;11827,100;65,59160
 970,65; 7815,288;  255,175;11775,715;65,62291
 971,20; 7795,596;  221,021;11661,562;66,20819
 971,75; 7699,365;  197,021;11527,485;66,21392
 972,30; 7724,519;  240,406;11490,408;66,52544
 972,85; 7618,827;  209,867;11405,331;66,17823
 973,40; 7587,827;  213,790;11288,254;66,58595
 973,95; 7642,288;  228,867;11244,254;67,30060
 974,50; 7614,058;  266,406;11252,023;66,88429
 975,05; 7504,673;  245,713;11099,331;66,88056
 975,60; 7529,519;  242,406;11083,946;67,21474
 976,15; 7489,673;  216,790;11005,869;67,40967
 976,70; 7473,596;  237,637;10919,023;67,74364
 977,25; 7528,135;  252,329;10874,408;68,49700
 977,80; 7401,827;  230,790;10771,946;68,02894
 978,35; 7339,904;  250,867;10640,023;68,23496
 978,89; 7309,519;  206,560;10613,485;68,25224
 979,44; 7372,750;  233,406;10594,408;68,90593
 979,99; 7219,519;  227,637;10429,869;68,53287
 980,54; 7289,365;  255,637;10391,023;69,39774
 981,09; 7213,212;  253,021;10319,177;69,14447
 981,64; 7145,212;  238,867;10235,177;69,08894
 982,19; 7176,596;  281,867;10170,562;69,72335
 982,74; 7078,058;  239,329;10073,023;69,54384
 983,29; 6998,519;  228,560; 9925,331;69,81664
 983,84; 6966,519;  242,560; 9856,562;69,93924
 984,39; 7035,827;  351,483; 9957,638;69,58397
 984,94; 6895,673;  207,560; 9720,715;70,30384
 985,49; 6884,442;  263,175; 9651,562;70,52615
 986,03; 6862,519;  249,790; 9573,408;70,92450
 986,58; 6847,519;  290,175; 9548,869;70,82364
 987,13; 6768,519;  247,560; 9410,638;71,16560
 987,68; 6688,288;  266,098; 9275,715;71,28150
 988,23; 6707,135;  250,790; 9286,485;71,45377
 988,78; 6649,519;  227,252; 9132,177;72,12040
 989,33; 6562,442;  264,329; 9075,100;71,48198
 989,88; 6583,519;  272,252; 9035,177;72,02238
 990,42; 6519,981;  234,560; 8880,408;72,69872
 990,97; 6417,981;  245,098; 8798,485;72,16887
 991,52; 6405,519;  253,637; 8767,100;72,26063
 992,07; 6363,288;  285,483; 8679,100;72,40985
 992,62; 6290,750;  250,098; 8561,715;72,67721
 993,17; 6278,135;  262,790; 8514,946;72,89422
 993,71; 6207,827;  265,021; 8433,177;72,75578
 994,26; 6119,827;  235,098; 8308,485;72,89046
 994,81; 6139,904;  263,329; 8294,485;73,17222
 995,36; 6052,212;  226,560; 8143,562;73,58407
 995,91; 6060,212;  244,329; 8144,638;73,61588
 996,45; 6012,212;  239,790; 8037,408;74,02801
 997,00; 5923,750;  226,790; 7917,715;74,07379
 997,55; 5872,519;  248,098; 7891,638;73,58398
 998,10; 5838,212;  273,790; 7767,792;74,25166
 998,65; 5747,365;  244,560; 7756,177;73,25727
 999,19; 5736,212;  277,252; 7628,023;74,26377
 999,74; 5685,135;  287,944; 7559,869;74,21956
1000,29; 5621,135;  265,483; 7439,177;74,65682
1000,84; 5526,058;  247,483; 7371,254;74,09804
1001,38; 5520,596;  254,637; 7303,254;74,70912
1001,93; 5452,981;  262,790; 7254,408;74,23447
1002,48; 5366,596;  227,252; 7141,023;74,33489
1003,03; 5365,058;  272,867; 7085,715;74,74393
1003,57; 5324,442;  253,021; 6971,638;75,48311
1004,12; 5289,596;  293,790; 6974,715;74,77716
1004,67; 5233,365;  248,175; 6895,715;74,99301
1005,22; 5160,135;  242,637; 6718,177;75,93958
1005,76; 5046,673;  232,867; 6636,562;75,17232
1006,31; 5044,596;  264,329; 6606,946;75,36742
1006,86; 4959,135;  239,713; 6484,485;75,57396
1007,40; 4881,288;  234,098; 6398,869;75,38302
1007,95; 4886,519;  251,329; 6333,715;76,20677
1008,50; 4865,365;  251,790; 6225,715;77,22854
1009,04; 4765,365;  248,944; 6176,638;76,19187
1009,59; 4694,442;  260,329; 6062,254;76,42487
1010,14; 4631,827;  239,329; 5975,792;76,57153
1010,68; 4593,596;  247,560; 5875,715;77,21955
1011,23; 4544,442;  238,329; 5830,408;77,00380
1011,78; 4481,827;  247,483; 5775,023;76,60449
1012,32; 4482,519;  276,560; 5679,485;77,84597
1012,87; 4429,981;  270,021; 5623,562;77,70483
1013,42; 4332,673;  226,329; 5490,638;78,00347
1013,96; 4380,135;  280,637; 5559,254;77,66235
1014,51; 4284,519;  211,098; 5476,408;77,36337
1015,06; 4296,288;  207,867; 5445,715;78,05536
1015,60; 4353,288;  287,713; 5507,100;77,89373
1016,15; 4272,519;  222,329; 5436,638;77,67453
1016,69; 4243,519;  246,790; 5461,562;76,64246
1017,24; 4243,212;  225,560; 5464,254;76,69186
1017,79; 4280,442;  289,175; 5519,869;76,30473
1018,33; 4273,365;  243,483; 5516,792;76,42037
1018,88; 4287,750;  259,175; 5560,946;75,98546
1019,42; 4276,135;  236,252; 5525,869;76,37382
1019,97; 4229,135;  224,175; 5524,638;75,55867
1020,51; 4282,673;  278,944; 5624,638;74,89633
1021,06; 4239,442;  217,560; 5582,408;74,96732
1021,61; 4224,673;  204,483; 5550,869;75,19453
1022,15; 4197,673;  187,944; 5520,869;75,18817
1022,70; 4202,058;  239,637; 5536,331;74,80932
1023,24; 4209,519;  237,483; 5489,562;75,62789
1023,79; 4168,904;  241,483; 5439,869;75,55077
1024,33; 4129,058;  226,329; 5403,023;75,39037
1024,88; 4147,212;  250,252; 5347,946;76,44553
1025,42; 4054,365;  250,944; 5235,485;76,30435
1025,97; 4014,981;  223,713; 5209,946;76,03470
1026,51; 3949,596;  208,713; 5069,946;76,95338
1027,06; 3935,750;  228,252; 5058,023;76,76343
1027,60; 3869,904;  260,867; 4993,100;76,26498
1028,15; 3828,904;  261,944; 4895,023;76,98897
1028,69; 3720,750;  201,483; 4763,869;77,13654
1029,24; 3716,519;  228,098; 4756,869;77,02798
1029,78; 3630,827;  224,790; 4650,485;76,96050
1030,33; 3554,904;  214,944; 4564,792;76,78336
1030,87; 3546,519;  217,713; 4530,869;77,17796
1031,42; 3496,904;  205,021; 4447,869;77,58663
1031,96; 3454,212;  241,713; 4411,254;77,04682
1032,51; 3413,212;  216,483; 4338,331;77,55572
1033,05; 3407,442;  231,098; 4313,485;77,80606
1033,60; 3295,519;  196,406; 4159,023;78,20875
1034,14; 3265,288;  222,790; 4158,408;77,30676
1034,69; 3251,981;  228,790; 4116,869;77,75538
1035,23; 3207,750;  228,483; 4029,331;78,38428
1035,77; 3171,058;  223,637; 3970,869;78,65594
1036,32; 3065,442;  192,944; 3925,792;76,95191
1036,86; 3072,135;  239,637; 3893,946;77,51117
1037,41; 3067,135;  231,252; 3818,408;79,05658
1037,95; 2969,596;  197,483; 3722,946;78,63118
1038,50; 2956,058;  211,944; 3698,792;78,69897
1039,04; 2928,904;  247,560; 3681,023;78,09444
1039,58; 2880,135;  206,483; 3613,638;78,47167
1040,13; 2821,135;  222,098; 3577,254;77,46396
1040,67; 2877,442;  253,329; 3554,946;79,47964
1041,21; 2791,212;  259,637; 3485,946;78,46659
1041,76; 2722,519;  220,329; 3414,715;78,33086
1042,30; 2687,519;  213,098; 3370,023;78,38074
1042,85; 2664,750;  218,944; 3296,023;79,48466
1043,39; 2612,673;  216,329; 3252,331;78,93092
1043,93; 2611,288;  238,406; 3252,638;78,72261
1044,48; 2584,519;  244,560; 3189,177;79,46566
1045,02; 2518,673;  226,329; 3149,023;78,43257
1045,56; 2541,442;  251,098; 3119,946;79,83498
1046,11; 2481,442;  228,406; 3101,792;78,41049
1046,65; 2442,058;  242,867; 3022,638;79,11408
1047,19; 2404,058;  205,713; 2951,715;80,05618
1047,74; 2380,673;  207,252; 2893,869;80,89806
1048,28; 2349,135;  233,637; 2909,254;79,06579
1048,82; 2347,596;  266,329; 2917,562;78,50187
1049,37; 2319,596;  243,560; 2852,485;79,57440
1049,91; 2290,904;  238,329; 2817,792;79,57372
1050,45; 2271,288;  238,098; 2748,715;80,98368
1050,99; 2245,442;  239,175; 2724,946;80,71006
1051,54; 2179,288;  211,713; 2658,869;80,40252
1052,08; 2194,904;  251,021; 2650,023;81,02881
1052,62; 2157,750;  246,790; 2624,869;80,35729
1053,16; 2093,673;  225,098; 2571,254;79,64412
1053,71; 2103,212;  246,175; 2554,562;80,44738
1054,25; 2049,135;  245,406; 2518,946;79,33569
1054,79; 2060,288;  247,867; 2507,792;80,19829
1055,33; 1967,827;  202,098; 2420,408;79,59794
1055,88; 1993,596;  228,790; 2414,331;80,74917
1056,42; 1979,288;  239,098; 2403,792;80,38966
1056,96; 1946,442;  253,790; 2363,638;80,22625
1057,50; 1912,904;  248,790; 2321,331;80,29342
1058,05; 1869,058;  241,637; 2280,023;79,83869
1058,59; 1872,288;  259,252; 2233,946;81,68538
1059,13; 1793,827;  211,790; 2196,715;79,70259
1059,67; 1821,519;  246,483; 2206,254;80,36839
1060,21; 1781,212;  238,867; 2142,638;81,01521
1060,76; 1764,288;  237,944; 2139,408;80,27208
1061,30; 1753,981;  265,175; 2115,562;80,45918
1061,84; 1706,212;  243,406; 2048,869;81,02107
1062,38; 1642,442;  216,175; 2001,023;79,90973
1062,92; 1702,750;  278,944; 2050,946;80,35013
1063,46; 1628,212;  246,713; 1974,946;79,93704
1064,01; 1611,750;  236,713; 1952,562;80,13743
1064,55; 1600,288;  257,867; 1931,638;80,20339
1065,09; 1541,596;  214,713; 1849,177;81,18155
1065,63; 1580,288;  268,790; 1901,946;80,30453
1066,17; 1572,750;  270,867; 1877,946;81,00926
1066,71; 1543,673;  266,098; 1856,254;80,34276
1067,25; 1501,058;  232,944; 1800,638;80,89036
1067,80; 1483,981;  258,252; 1796,792;79,66829
1068,34; 1504,365;  282,713; 1790,023;81,04851
1068,88; 1429,981;  229,329; 1720,023;80,54314
1069,42; 1440,827;  270,098; 1755,485;78,81644
1069,96; 1415,750;  251,252; 1713,023;79,66350
1070,50; 1439,365;  284,175; 1715,869;80,68695
1071,04; 1366,442;  229,406; 1649,408;80,07289
1071,58; 1360,904;  240,790; 1638,408;80,14450
1072,12; 1343,827;  250,790; 1630,562;79,21868
1072,66; 1345,365;  249,944; 1619,177;80,00256
1073,21; 1374,750;  266,790; 1612,562;82,32898
1073,75; 1325,750;  246,637; 1570,562;81,50866
1074,29; 1281,827;  243,713; 1540,869;80,02998
1074,83; 1287,365;  266,944; 1545,408;79,81622
1075,37; 1300,750;  270,483; 1536,100;81,40433
1075,91; 1285,442;  250,021; 1510,485;82,14607
1076,45; 1269,981;  260,867; 1497,331;81,61288
1076,99; 1241,673;  267,637; 1480,254;80,32514
1077,53; 1205,904;  252,483; 1423,100;81,44602
1078,07; 1211,058;  259,867; 1431,408;81,19143
1078,61; 1192,827;  250,867; 1394,023;82,39994
1079,15; 1175,058;  249,175; 1370,408;82,57721
1079,69; 1168,288;  247,944; 1388,254;80,71003
1080,23; 1176,827;  272,713; 1404,408;79,89026
1080,77; 1201,212;  318,483; 1428,946;79,49193
1081,31; 1122,519;  251,021; 1340,100;80,02158
1081,85; 1135,212;  257,560; 1348,100;80,47863
1082,39; 1110,135;  244,483; 1302,792;81,79572
1082,93; 1104,058;  267,406; 1341,485;77,89483
1083,47; 1081,442;  235,790; 1259,715;82,58924
1084,01; 1080,442;  260,560; 1298,254;79,01005
1084,55; 1031,981;  240,944; 1239,485;79,21928
1085,09; 1049,365;  255,944; 1271,254;78,14573
1085,63; 1026,058;  244,406; 1236,177;78,81374
1086,17; 1014,135;  244,021; 1198,177;80,71150
1086,71; 1001,981;  227,637; 1204,100;79,30089
1087,24; 1017,288;  272,867; 1220,485;78,55715
1087,78; 1008,827;  274,252; 1210,562;78,45428
1088,32;  957,981;  230,944; 1146,562;79,40398
1088,86;  969,827;  262,021; 1171,254;77,84649
1089,40;  972,442;  252,867; 1140,485;81,06816
1089,94;  926,596;  227,713; 1116,562;78,62791
1090,48;  925,442;  259,790; 1110,254;78,26931
1091,02;  945,750;  262,175; 1139,023;77,95820
1091,56;  909,981;  239,560; 1093,331;78,52469
1092,10;  886,904;  228,406; 1055,331;79,63214
1092,63;  915,673;  272,637; 1117,331;76,12655
1093,17;  901,904;  262,098; 1074,331;78,77124
1093,71;  872,365;  243,713; 1032,177;79,73127
1094,25;  894,288;  264,252; 1068,946;78,29515
1094,79;  856,596;  244,483; 1016,485;79,28911
1095,33;  869,135;  256,483; 1020,100;80,23023
1095,87;  834,135;  258,329; 1002,254;77,40105
1096,40;  801,904;  227,329;  955,408;78,91659
1096,94;  822,827;  257,329;  993,254;76,84181
1097,48;  836,827;  267,637;  981,023;79,78709
1098,02;  796,904;  239,944;  954,254;77,97174
1098,56;  773,058;  223,637;  921,638;78,71342
1099,10;  765,519;  227,483;  907,254;79,14966
1099,63;  760,519;  236,483;  903,177;78,60223
1100,17;  781,365;  254,944;  926,023;78,44401
1100,71;  808,058;  282,790;  936,485;80,35367

