
Integration time [ms]: 150,000
Averaging Nr. [scans]: 13
Smoothing Nr. [pixels]: 0
Data measured with spectrometer [name]: 2009305U1
Wave   ;Sample   ;Dark     ;Reference;Reflectance
[nm]   ;[counts] ;[counts] ;[counts] ;[%]

 175,72;  200,328;  192,674;  193,484; 0,00000
 176,32;  228,347;  217,749;  221,613;274,28060
 176,92;  257,942;  238,673;  238,591; 0,00000
 177,52;  252,781;  243,366;  248,001;203,13042
 178,12;  240,105;  229,134;  215,364; 0,00000
 178,72;  266,388;  250,057;  246,874; 0,00000
 179,32;  265,334;  238,288;  239,650;1985,63727
 179,92;  256,313;  237,904;  239,043;1615,15869
 180,52;  245,595;  223,213;  250,796;81,14458
 181,12;  253,342;  232,519;  235,695;655,63233
 181,73;  282,666;  262,904;  270,933;246,14007
 182,33;  354,550;  316,366;  327,421;345,41921
 182,93;  270,960;  257,827;  255,301; 0,00000
 183,53;  240,830;  237,595;  228,835; 0,00000
 184,13;  254,272;  228,749;  218,138; 0,00000
 184,73;  275,747;  254,133;  251,462; 0,00000
 185,33;  267,153;  225,970;  315,949;45,76908
 185,93;  272,711;  231,662;  337,037;38,95501
 186,53;  285,677;  239,201;  346,852;43,17250
 187,13;  299,173;  270,740;  376,947;26,77062
 187,73;  276,702;  226,893;  335,898;45,69500
 188,33;  269,839;  233,507;  330,691;37,38416
 188,93;  281,987;  234,967;  363,946;36,45512
 189,53;  284,879;  252,350;  366,168;28,57977
 190,13;  321,487;  275,732;  404,992;35,39767
 190,73;  270,600;  213,119;  348,595;42,42893
 191,34;  292,457;  240,889;  370,908;39,66190
 191,94;  271,935;  238,430;  324,660;38,85537
 192,54;  278,454;  231,510;  353,399;38,51402
 193,14;  291,977;  253,356;  363,717;34,99544
 193,74;  281,625;  235,278;  345,454;42,06597
 194,34;  284,626;  244,971;  344,192;39,96592
 194,94;  245,079;  216,202;  328,402;25,73724
 195,54;  227,283;  180,970;  304,045;37,62961
 196,14;  250,633;  220,048;  327,818;28,37992
 196,74;  243,249;  202,816;  316,800;35,47263
 197,34;  226,859;  197,895;  323,526;23,05506
 197,94;  247,097;  221,048;  331,112;23,66674
 198,54;  269,389;  227,895;  346,393;35,01735
 199,14;  250,679;  207,049;  351,854;30,12975
 199,74;  229,192;  186,280;  336,092;28,64388
 200,34;  227,402;  183,819;  333,220;29,17169
 200,94;  257,111;  222,126;  379,772;22,19196
 201,54;  252,353;  205,665;  385,595;25,94777
 202,14;  273,706;  219,588;  410,596;28,33252
 202,74;  248,588;  208,665;  409,803;19,84860
 203,34;  230,682;  184,204;  429,957;18,91226
 203,94;  205,427;  163,819;  415,248;16,54844
 204,54;  282,471;  227,740;  493,181;20,61875
 205,14;  228,281;  190,203;  497,583;12,38789
 205,74;  279,963;  226,204;  568,943;15,68493
 206,34;  244,718;  189,358;  572,933;14,43266
 206,94;  250,303;  204,511;  621,645;10,97761
 207,54;  232,575;  184,665;  621,567;10,96580
 208,14;  248,310;  195,742;  710,039;10,22127
 208,74;  252,215;  199,511;  762,832; 9,35601
 209,34;  251,245;  197,203;  825,187; 8,60558
 209,94;  276,205;  198,434;  893,056;11,19618
 210,54;  264,584;  203,512;  966,753; 8,00175
 211,14;  284,409;  210,357; 1048,964; 8,83035
 211,73;  283,670;  199,049; 1147,679; 8,92036
 212,33;  300,597;  215,126; 1211,534; 8,57795
 212,93;  279,189;  199,203; 1278,664; 7,40974
 213,53;  259,652;  170,049; 1310,378; 7,85760
 214,13;  288,244;  175,820; 1378,513; 9,34771
 214,73;  279,013;  180,896; 1380,519; 8,17901
 215,33;  261,898;  157,126; 1409,363; 8,36671
 215,93;  308,602;  189,281; 1512,002; 9,02087
 216,53;  275,226;  155,434; 1553,379; 8,56913
 217,13;  333,239;  203,743; 1758,951; 8,32661
 217,73;  320,398;  196,127; 1892,324; 7,32644
 218,33;  289,505;  147,974; 1995,560; 7,66031
 218,93;  346,154;  175,129; 2251,336; 8,23736
 219,53;  358,480;  180,666; 2452,106; 7,82823
 220,13;  358,384;  162,282; 2657,881; 7,85793
 220,73;  393,463;  183,203; 2963,993; 7,56114
 221,32;  419,369;  181,588; 3277,525; 7,68043
 221,92;  467,216;  177,436; 3533,665; 8,63409
 222,52;  473,541;  167,589; 3875,844; 8,25056
 223,12;  519,697;  172,512; 4174,712; 8,67484
 223,72;  545,672;  191,051; 4446,103; 8,33411
 224,32;  578,622;  191,897; 4732,206; 8,51761
 224,92;  587,904;  174,435; 4959,587; 8,64067
 225,52;  669,508;  188,050; 5226,036; 9,55657
 226,12;  676,558;  191,435; 5421,903; 9,27496
 226,72;  695,671;  154,819; 5656,684; 9,83034
 227,31;  712,338;  154,358; 5935,526; 9,65168
 227,91;  804,082;  186,434; 6274,421;10,14535
 228,51;  822,755;  171,357; 6479,501;10,32630
 229,11;  858,913;  166,973; 6828,087;10,38776
 229,71;  900,957;  174,203; 7000,346;10,64662
 230,31;  948,809;  158,743; 7299,439;11,06427
 230,91;  981,834;  156,972; 7478,421;11,26638
 231,51; 1021,372;  160,973; 7715,474;11,38922
 232,10; 1090,377;  161,820; 7915,179;11,97619
 232,70; 1129,857;  174,356; 8069,269;12,10274
 233,30; 1204,216;  193,666; 8210,826;12,60484
 233,90; 1225,574;  163,127; 8285,745;13,08011
 234,50; 1256,667;  168,127; 8320,203;13,35291
 235,10; 1290,212;  166,051; 8345,971;13,74294
 235,70; 1359,940;  181,127; 8326,989;14,47132
 236,29; 1381,637;  188,126; 8224,701;14,85099
 236,89; 1374,029;  150,510; 8084,564;15,42111
 237,49; 1394,853;  178,589; 7934,171;15,68244
 238,09; 1390,179;  171,896; 7713,395;16,15439
 238,69; 1445,454;  200,356; 7481,056;17,10135
 239,29; 1395,381;  169,204; 7242,589;17,33509
 239,89; 1396,593;  179,280; 6933,875;18,02201
 240,48; 1364,384;  164,588; 6614,391;18,60205
 241,08; 1342,661;  176,665; 6355,718;18,87014
 241,68; 1340,835;  189,588; 6120,373;19,41136
 242,28; 1291,919;  159,819; 5822,844;19,99107
 242,88; 1322,604;  191,435; 5597,751;20,92309
 243,48; 1305,801;  193,204; 5429,240;21,24885
 244,07; 1268,748;  184,896; 5258,110;21,36422
 244,67; 1278,029;  189,973; 5116,054;22,08766
 245,27; 1273,593;  195,203; 4979,756;22,53900
 245,87; 1292,960;  194,128; 4983,407;22,94358
 246,47; 1274,850;  182,818; 4954,914;22,88370
 247,06; 1266,368;  172,358; 4971,164;22,79756
 247,66; 1262,207;  178,204; 5041,805;22,28808
 248,26; 1334,020;  206,049; 5154,987;22,79218
 248,86; 1347,185;  193,818; 5294,928;22,61011
 249,46; 1340,090;  143,050; 5470,082;22,47103
 250,05; 1434,127;  182,742; 5757,223;22,44845
 250,65; 1455,719;  160,818; 6056,951;21,96186
 251,25; 1547,109;  169,127; 6461,282;21,90000
 251,85; 1617,401;  173,972; 6895,908;21,47341
 252,44; 1663,189;  132,434; 7424,213;20,99289
 253,04; 1805,309;  193,511; 7968,301;20,73108
 253,64; 1861,138;  133,587; 8622,567;20,35051
 254,24; 2040,228;  186,511; 9398,600;20,12266
 254,84; 2125,397;  169,666;10143,928;19,60778
 255,43; 2265,614;  171,511;10912,037;19,49721
 256,03; 2397,679;  174,280;11773,050;19,16926
 256,63; 2529,618;  192,510;12705,714;18,67714
 257,23; 2595,581;  164,741;13399,999;18,36640
 257,82; 2734,400;  182,664;14309,939;18,06248
 258,42; 2783,276;  143,663;15051,193;17,70658
 259,02; 2933,013;  191,050;15850,561;17,50989
 259,62; 2986,579;  169,740;16478,907;17,27151
 260,21; 3049,818;  172,973;17007,638;17,08882
 260,81; 3079,147;  168,973;17507,735;16,78421
 261,41; 3089,397;  162,587;17880,291;16,51913
 262,01; 3128,124;  203,278;18425,718;16,05079
 262,60; 3135,581;  164,510;18684,076;16,04288
 263,20; 3146,221;  160,203;19012,401;15,83910
 263,80; 3172,906;  187,894;19273,824;15,63986
 264,40; 3104,307;  152,509;19449,600;15,29659
 264,99; 3105,442;  185,971;19623,033;15,02013
 265,59; 3099,652;  165,585;19822,783;14,92617
 266,19; 3069,419;  166,355;19888,139;14,72009
 266,78; 3107,728;  201,124;20074,807;14,62539
 267,38; 3067,733;  176,047;20161,299;14,46910
 267,98; 3014,139;  168,893;20112,591;14,26639
 268,58; 2989,399;  184,662;20169,526;14,03431
 269,17; 2970,780;  169,739;20151,755;14,01781
 269,77; 2922,100;  190,356;20086,421;13,73007
 270,37; 2869,377;  163,663;19993,447;13,64470
 270,96; 2869,771;  204,202;19920,129;13,51988
 271,56; 2778,362;  169,895;19668,249;13,37788
 272,16; 2755,639;  166,279;19510,848;13,38546
 272,75; 2722,756;  183,664;19535,287;13,12082
 273,35; 2719,786;  182,048;19559,576;13,09629
 273,95; 2699,731;  177,125;19511,987;13,04693
 274,54; 2675,062;  153,588;19481,868;13,04551
 275,14; 2739,185;  185,510;19785,089;13,02923
 275,74; 2681,216;  153,356;19866,276;12,82337
 276,33; 2748,985;  197,895;20295,993;12,69319
 276,93; 2825,374;  174,742;20583,307;12,98784
 277,53; 2863,535;  174,434;20939,939;12,94985
 278,12; 2894,494;  157,587;21363,530;12,90632
 278,72; 3014,751;  202,895;21935,646;12,93833
 279,32; 3055,429;  166,742;22421,045;12,98035
 279,91; 3129,962;  149,895;23000,991;13,04124
 280,51; 3212,934;  179,973;23456,144;13,03033
 281,11; 3319,090;  175,126;24067,449;13,15889
 281,70; 3377,113;  157,049;24401,035;13,28191
 282,30; 3490,439;  157,203;24906,633;13,46793
 282,90; 3517,015;  167,279;25220,051;13,37072
 283,49; 3673,530;  180,664;25700,045;13,68711
 284,09; 3823,368;  205,203;26040,633;14,00467
 284,69; 3900,722;  198,434;26282,071;14,19391
 285,28; 3980,316;  179,049;26635,318;14,36812
 285,88; 4120,908;  212,664;26841,727;14,67661
 286,47; 4163,656;  189,972;26828,736;14,91692
 287,07; 4283,454;  199,895;27005,654;15,23388
 287,67; 4437,801;  190,358;27022,856;15,82947
 288,26; 4496,606;  172,357;27038,797;16,09536
 288,86; 4667,869;  169,280;26974,907;16,78226
 289,46; 4819,682;  184,280;27074,313;17,23836
 290,05; 4949,134;  167,511;27307,813;17,61816
 290,65; 5171,063;  174,279;27361,553;18,37913
 291,24; 5379,943;  189,203;27523,987;18,98950
 291,84; 5576,772;  189,203;27641,791;19,62500
 292,44; 5749,163;  172,281;27779,039;20,20115
 293,03; 6027,391;  236,126;27803,177;21,00792
 293,63; 6143,681;  181,664;27984,817;21,44367
 294,22; 6324,796;  193,280;28131,028;21,94706
 294,82; 6435,321;  176,355;28172,959;22,35616
 295,41; 6503,575;  162,280;27859,728;22,89487
 296,01; 6670,008;  213,202;27828,006;23,38168
 296,61; 6750,724;  185,742;27575,016;23,96917
 297,20; 6745,869;  181,817;27293,529;24,21113
 297,80; 6823,356;  193,588;27120,058;24,62175
 298,39; 6783,555;  154,664;26873,293;24,80999
 298,99; 6878,490;  197,279;26842,056;25,07512
 299,58; 6856,516;  190,896;26679,739;25,16388
 300,18; 6887,174;  204,511;26523,560;25,39097
 300,78; 6842,717;  172,896;26270,887;25,55684
 301,37; 6910,759;  185,740;26244,722;25,80691
 301,97; 6960,656;  190,126;26256,310;25,97438
 302,56; 6954,744;  174,510;26184,293;26,06801
 303,16; 6948,957;  160,972;26161,352;26,10725
 303,75; 6980,143;  168,819;26161,041;26,20524
 304,35; 7087,862;  171,051;26457,049;26,31367
 304,94; 7078,593;  175,357;26489,669;26,23377
 305,54; 7104,215;  192,434;26332,679;26,44115
 306,13; 7075,902;  153,820;26267,027;26,50798
 306,73; 7054,355;  158,743;26170,841;26,50925
 307,33; 7067,364;  188,665;26163,991;26,48166
 307,92; 7067,571;  168,203;26169,719;26,53448
 308,52; 7139,763;  160,433;26552,374;26,44493
 309,11; 7305,903;  173,125;27022,519;26,56588
 309,71; 7344,214;  147,971;27212,296;26,58941
 310,30; 7408,454;  164,895;27443,280;26,55421
 310,90; 7550,454;  186,203;27707,357;26,75851
 311,49; 7543,927;  172,280;27831,683;26,65150
 312,09; 7536,354;  148,973;27962,564;26,56033
 312,68; 7652,267;  212,049;28366,686;26,42626
 313,28; 7667,341;  155,972;28473,027;26,52595
 313,87; 7689,120;  148,511;28618,112;26,48653
 314,47; 7746,189;  163,125;28819,339;26,46220
 315,06; 7750,944;  149,280;28859,613;26,47710
 315,66; 7813,507;  152,665;29008,641;26,54855
 316,25; 7720,792;  146,741;28943,026;26,30218
 316,85; 7728,649;  146,204;29060,381;26,22397
 317,44; 7759,186;  155,279;29159,845;26,21624
 318,04; 7687,887;  148,356;29180,901;25,96924
 318,63; 7686,906;  145,127;29207,958;25,94991
 319,22; 7737,383;  170,587;29373,506;25,91109
 319,82; 7701,854;  167,049;29420,153;25,75728
 320,41; 7685,038;  171,279;29394,637;25,71148
 321,01; 7646,236;  174,204;29527,883;25,45518
 321,60; 7606,945;  161,357;29660,666;25,23987
 322,20; 7491,662;  158,896;29533,847;24,96265
 322,79; 7544,572;  191,280;29668,499;24,94568
 323,39; 7523,655;  166,127;29748,789;24,87108
 323,98; 7468,985;  154,742;29701,525;24,75479
 324,58; 7395,237;  166,433;29599,030;24,56054
 325,17; 7376,434;  174,202;29463,964;24,58959
 325,76; 7277,273;  190,588;29338,562;24,31279
 326,36; 7140,351;  146,896;29047,762;24,19808
 326,95; 7055,138;  181,818;28782,105;24,03235
 327,55; 6991,545;  157,049;28504,834;24,10945
 328,14; 6808,294;  153,281;28277,582;23,66286
 328,74; 6731,384;  197,972;27799,209;23,67072
 329,33; 6664,196;  180,511;27546,905;23,69214
 329,92; 6511,686;  149,971;27036,262;23,66156
 330,52; 6353,193;  169,050;26475,754;23,50786
 331,11; 6196,496;  168,664;26155,629;23,19560
 331,71; 6080,962;  167,664;25668,606;23,18855
 332,30; 5953,977;  175,126;25274,976;23,02345
 332,89; 5860,207;  204,050;24867,385;22,93347
 333,49; 5706,382;  184,434;24392,991;22,80990
 334,08; 5611,378;  166,664;24082,025;22,76660
 334,68; 5443,340;  168,587;23721,453;22,39538
 335,27; 5383,274;  186,819;23479,797;22,30910
 335,86; 5334,265;  205,203;23251,937;22,25505
 336,46; 5226,211;  183,050;23066,156;22,03879
 337,05; 5130,239;  167,203;22888,318;21,84328
 337,65; 5096,353;  147,741;22750,340;21,89400
 338,24; 5128,638;  212,819;22796,942;21,76670
 338,83; 5055,793;  197,819;22712,261;21,57715
 339,43; 4985,344;  166,587;22642,462;21,43969
 340,02; 4962,752;  173,741;22608,894;21,34601
 340,61; 4905,162;  161,049;22673,188;21,07357
 341,21; 4964,384;  210,818;22706,132;21,13136
 341,80; 4900,506;  163,357;22638,175;21,07759
 342,40; 4899,886;  174,973;22717,765;20,95975
 342,99; 4878,976;  173,896;22810,924;20,78489
 343,58; 4898,965;  167,050;22995,444;20,72820
 344,18; 4918,519;  175,819;23048,736;20,73500
 344,77; 4920,790;  167,818;23348,235;20,50426
 345,36; 4951,985;  150,818;23588,797;20,48456
 345,96; 5019,760;  194,742;23896,293;20,35740
 346,55; 5024,823;  162,589;24099,840;20,31241
 347,14; 5073,618;  153,512;24472,116;20,23186
 347,74; 5149,035;  135,282;24807,651;20,32133
 348,33; 5228,686;  164,666;25336,036;20,11817
 348,92; 5343,033;  177,898;25780,587;20,17419
 349,52; 5390,796;  153,051;26265,742;20,05823
 350,11; 5434,852;  159,895;26483,173;20,03914
 350,70; 5427,046;  164,972;26525,298;19,96210
 351,29; 5352,625;  157,278;26381,649;19,81114
 351,89; 5339,736;  179,971;26354,017;19,71329
 352,48; 5325,930;  139,742;26313,023;19,81482
 353,07; 5327,659;  167,819;26224,424;19,80243
 353,67; 5283,676;  193,052;26177,536;19,59102
 354,26; 5231,323;  169,742;26002,233;19,59385
 354,85; 5216,227;  159,127;25927,348;19,62534
 355,45; 5159,927;  153,587;25726,648;19,57662
 356,04; 5119,367;  161,819;25691,562;19,41871
 356,63; 5119,229;  205,049;25498,233;19,42887
 357,22; 5050,800;  167,740;25351,095;19,39003
 357,82; 5025,781;  183,894;25238,794;19,32511
 358,41; 5016,092;  183,588;25062,086;19,42442
 359,00; 4971,742;  156,741;24906,117;19,45504
 359,60; 4961,702;  167,511;24915,364;19,37215
 360,19; 4911,049;  179,435;24729,247;19,27352
 360,78; 4865,789;  177,741;24670,721;19,14037
 361,37; 4846,533;  163,434;24404,266;19,31905
 361,97; 4833,244;  174,972;24320,911;19,29216
 362,56; 4781,095;  154,818;24083,818;19,33335
 363,15; 4805,441;  192,280;23846,435;19,50254
 363,74; 4675,408;  175,202;23514,540;19,28164
 364,34; 4667,215;  185,741;23263,993;19,41860
 364,93; 4596,746;  159,741;22918,290;19,49599
 365,52; 4492,650;  140,126;22591,091;19,38680
 366,11; 4499,139;  162,818;22289,081;19,59807
 366,71; 4439,691;  152,895;21957,044;19,66046
 367,30; 4387,882;  164,434;21586,717;19,71521
 367,89; 4388,700;  196,973;21485,992;19,68962
 368,48; 4361,127;  169,740;21243,862;19,88878
 369,07; 4265,969;  169,434;20848,913;19,80966
 369,67; 4243,284;  185,587;20603,357;19,87336
 370,26; 4181,996;  165,357;20367,851;19,88190
 370,85; 4140,175;  172,049;20203,819;19,80917
 371,44; 4136,705;  171,434;19992,361;20,00548
 372,03; 4090,305;  150,972;19758,187;20,09124
 372,63; 4052,357;  142,664;19476,614;20,22190
 373,22; 4049,903;  160,895;19258,624;20,36372
 373,81; 3951,163;  159,741;18972,856;20,15308
 374,40; 3983,923;  160,050;18811,853;20,50136
 374,99; 3906,684;  160,433;18550,849;20,37067
 375,59; 3885,908;  152,127;18376,098;20,48829
 376,18; 3924,878;  188,510;18273,673;20,65985
 376,77; 3888,091;  177,126;18103,921;20,70066
 377,36; 3896,290;  195,818;18078,852;20,69264
 377,95; 3888,025;  172,356;17800,136;21,07849
 378,55; 3850,620;  149,204;17632,729;21,17088
 379,14; 3871,201;  175,664;17600,043;21,20900
 379,73; 3879,283;  162,049;17514,612;21,42182
 380,32; 3920,026;  185,664;17619,028;21,42078
 380,91; 3873,962;  163,664;17458,459;21,45327
 381,50; 3940,377;  176,202;17395,056;21,86078
 382,10; 3889,796;  161,126;17244,258;21,82661
 382,69; 3921,469;  146,126;17261,384;22,05835
 383,28; 3965,919;  187,125;17235,242;22,16546
 383,87; 3976,200;  164,433;17091,392;22,51891
 384,46; 3948,360;  151,663;17033,849;22,48937
 385,05; 4007,749;  193,587;17053,400;22,62280
 385,64; 4029,601;  171,049;17003,773;22,92292
 386,24; 4018,871;  146,048;17004,988;22,97193
 386,83; 4068,163;  183,509;17033,146;23,05482
 387,42; 4117,935;  180,279;17219,172;23,10981
 388,01; 4221,299;  170,893;17332,247;23,60190
 388,60; 4285,299;  178,663;17602,306;23,56933
 389,19; 4338,109;  145,200;17766,781;23,79417
 389,78; 4434,192;  163,277;17938,923;24,02678
 390,37; 4608,362;  215,201;18387,989;24,17439
 390,96; 4633,165;  164,740;18453,091;24,43318
 391,56; 4690,986;  175,277;18558,111;24,56481
 392,15; 4787,786;  165,970;18862,666;24,71996
 392,74; 4825,596;  147,199;18945,899;24,88681
 393,33; 4936,713;  155,507;19251,804;25,03735
 393,92; 5037,259;  174,891;19544,058;25,10365
 394,51; 5139,392;  155,815;19705,445;25,49192
 395,10; 5272,559;  192,966;19880,404;25,80119
 395,69; 5307,541;  170,274;20106,641;25,76832
 396,28; 5383,567;  178,581;20114,893;26,10807
 396,87; 5386,359;  186,964;20202,517;25,97677
 397,46; 5487,421;  182,117;20267,154;26,41421
 398,06; 5571,732;  189,346;20522,861;26,47051
 398,65; 5635,420;  167,651;20526,991;26,85632
 399,24; 5706,059;  173,882;20678,696;26,97989
 399,83; 5718,346;  154,493;20671,725;27,11795
 400,42; 5818,314;  197,335;20813,759;27,26457
 401,01; 5853,406;  168,485;20872,634;27,45788
 401,60; 5915,582;  177,864;20881,994;27,71292
 402,19; 6012,050;  189,782;20843,145;28,19041
 402,78; 5979,610;  197,698;20885,092;27,94896
 403,37; 5954,912;  190,307;20792,972;27,97990
 403,96; 5988,027;  187,761;20615,537;28,39402
 404,55; 5989,178;  191,752;20535,207;28,49775
 405,14; 6018,688;  168,359;20493,395;28,78385
 405,73; 6010,657;  190,196;20327,609;28,90372
 406,32; 6088,638;  193,190;20246,099;29,39947
 406,91; 6022,617;  174,644;20005,024;29,48997
 407,50; 6046,251;  173,102;19885,363;29,79440
 408,09; 5961,468;  161,946;19643,958;29,76860
 408,68; 6001,798;  173,251;19528,700;30,11321
 409,27; 6000,497;  161,715;19303,952;30,50209
 409,86; 5994,830;  167,721;19255,160;30,52850
 410,45; 6053,701;  195,418;19173,452;30,86875
 411,04; 6022,857;  193,884;19109,784;30,81520
 411,63; 6017,570;  183,814;18833,393;31,28090
 412,22; 5997,970;  187,820;18703,835;31,37906
 412,81; 5970,683;  190,898;18427,411;31,69348
 413,40; 5877,709;  199,286;18207,537;31,53234
 413,99; 5889,583;  233,285;17920,185;31,98015
 414,58; 5767,636;  165,901;17580,788;32,16636
 415,17; 5740,966;  178,668;17386,495;32,32423
 415,76; 5715,297;  177,281;17293,147;32,35604
 416,35; 5706,793;  164,667;17119,770;32,68707
 416,94; 5747,594;  191,743;17229,087;32,60984
 417,53; 5833,471;  171,976;17407,978;32,84692
 418,12; 5889,525;  165,668;17480,734;33,05709
 418,71; 6033,583;  186,824;17788,563;33,21694
 419,30; 6062,262;  177,361;17881,382;33,24048
 419,89; 6183,237;  172,054;18024,655;33,67119
 420,48; 6280,955;  201,286;18232,303;33,71784
 421,07; 6320,276;  186,979;18341,994;33,78294
 421,66; 6313,094;  157,595;18333,217;33,86678
 422,25; 6358,173;  166,982;18349,183;34,05083
 422,84; 6389,187;  196,290;18269,501;34,26561
 423,43; 6299,145;  180,828;17976,123;34,38166
 424,02; 6299,543;  209,290;17806,968;34,60828
 424,60; 6216,264;  176,292;17463,215;34,93954
 425,19; 6154,953;  191,676;17159,461;35,14470
 425,78; 6178,394;  205,830;17219,589;35,10432
 426,37; 6145,897;  195,523;17035,505;35,33480
 426,96; 6151,718;  185,831;16951,820;35,58327
 427,55; 6062,353;  174,447;16797,350;35,42044
 428,14; 6039,027;  166,525;16595,930;35,74385
 428,73; 6020,643;  185,139;16449,297;35,87953
 429,32; 6041,059;  198,369;16502,568;35,83549
 429,91; 6108,286;  215,139;16388,091;36,43829
 430,50; 6044,015;  208,140;16344,788;36,16535
 431,08; 6022,641;  214,141;16189,020;36,36021
 431,67; 6028,073;  253,449;16139,428;36,35044
 432,26; 5991,465;  257,758;15994,089;36,43611
 432,85; 5908,920;  283,527;15606,936;36,71111
 433,44; 5873,502;  275,605;15317,643;37,21502
 434,03; 5810,069;  298,298;15006,554;37,47400
 434,62; 5588,004;  254,374;14695,939;36,93249
 435,21; 5578,770;  262,373;14446,748;37,48065
 435,79; 5572,387;  254,452;14373,603;37,66470
 436,38; 5518,787;  260,684;14344,924;37,33324
 436,97; 5540,421;  250,376;14251,107;37,78406
 437,56; 5484,149;  250,071;14031,975;37,97790
 438,15; 5466,748;  231,532;14011,944;37,99027
 438,74; 5491,498;  247,070;14032,940;38,04205
 439,33; 5522,349;  225,455;14041,190;38,33957
 439,91; 5544,415;  193,148;14092,242;38,50083
 440,50; 5596,879;  241,148;14121,890;38,58390
 441,09; 5632,452;  229,688;14230,908;38,58781
 441,68; 5680,603;  211,535;14218,596;39,04508
 442,27; 5665,344;  207,996;14181,151;39,05595
 442,86; 5633,831;  176,537;14154,585;39,04189
 443,44; 5696,765;  196,306;14278,173;39,06058
 444,03; 5741,577;  251,537;14277,065;39,14319
 444,62; 5686,102;  200,229;14105,948;39,45048
 445,21; 5669,400;  200,614;14005,224;39,61566
 445,80; 5641,301;  228,692;13897,215;39,59908
 446,39; 5612,307;  250,076;13667,861;39,96361
 446,97; 5518,431;  188,770;13477,185;40,10758
 447,56; 5430,775;  190,464;13306,675;39,95293
 448,15; 5406,213;  185,155;13199,060;40,11907
 448,74; 5344,820;  210,540;12942,844;40,32483
 449,33; 5322,383;  187,618;12823,753;40,63557
 449,91; 5268,540;  193,004;12683,814;40,63417
 450,50; 5183,916;  179,080;12505,178;40,60357
 451,09; 5177,870;  201,234;12411,159;40,75894
 451,68; 5166,361;  218,004;12307,472;40,93114
 452,26; 5114,033;  215,774;12228,800;40,77457
 452,85; 5115,112;  187,235;12101,479;41,36123
 453,44; 5136,629;  209,545;12128,967;41,33660
 454,03; 5096,789;  189,390;12104,938;41,18484
 454,61; 5119,799;  180,468;12140,128;41,29993
 455,20; 5210,036;  220,776;12294,767;41,32237
 455,79; 5197,439;  210,313;12293,997;41,27156
 456,38; 5233,001;  210,854;12338,001;41,41244
 456,97; 5269,467;  196,084;12400,087;41,57146
 457,55; 5240,657;  191,316;12428,168;41,26340
 458,14; 5296,395;  227,161;12394,578;41,66237
 458,73; 5278,750;  198,778;12346,483;41,81837
 459,31; 5259,246;  228,240;12353,721;41,49118
 459,90; 5345,022;  241,163;12440,891;41,83584
 460,49; 5402,230;  249,239;12522,347;41,98603
 461,08; 5375,788;  188,395;12621,492;41,72245
 461,66; 5434,962;  203,702;12615,779;42,14653
 462,25; 5486,277;  213,241;12665,091;42,34741
 462,84; 5547,112;  227,933;12761,422;42,43973
 463,43; 5459,148;  168,627;12702,870;42,20853
 464,01; 5468,728;  207,243;12761,674;41,90938
 464,60; 5517,776;  234,935;12634,799;42,60403
 465,19; 5390,161;  180,936;12484,212;42,34015
 465,77; 5382,140;  197,167;12456,078;42,29555
 466,36; 5400,930;  221,781;12302,603;42,87083
 466,95; 5243,985;  197,551;12038,038;42,62016
 467,53; 5138,546;  209,322;11819,010;42,45785
 468,12; 5073,974;  223,322;11554,492;42,80804
 468,71; 5004,896;  201,321;11344,145;43,10913
 469,29; 4874,594;  186,784;11156,239;42,73512
 469,88; 4785,147;  199,400;10969,644;42,57793
 470,47; 4887,422;  242,324;11095,736;42,79850
 471,06; 4826,487;  207,478;11030,871;42,67617
 471,64; 4864,889;  205,400;11113,304;42,71662
 472,23; 4847,784;  180,864;11155,993;42,52269
 472,81; 4933,088;  182,402;11239,572;42,96476
 473,40; 4974,734;  191,479;11323,239;42,96944
 473,99; 5109,299;  277,172;11557,088;42,83832
 474,57; 5102,822;  203,249;11659,026;42,76945
 475,16; 5203,864;  202,556;11730,033;43,38598
 475,75; 5204,935;  211,326;11897,800;42,72982
 476,33; 5247,396;  218,866;11935,706;42,91712
 476,92; 5291,663;  221,941;12009,458;43,00924
 477,51; 5289,385;  212,788;12047,652;42,89527
 478,09; 5332,898;  216,250;12014,121;43,36925
 478,68; 5279,793;  223,250;11981,504;43,00420
 479,27; 5341,373;  239,557;12064,357;43,14505
 479,85; 5318,355;  221,327;12034,717;43,14620
 480,44; 5326,137;  191,328;12186,705;42,80657
 481,02; 5909,697;  217,482;13722,340;42,14939
 481,61; 6632,597;  236,789;15308,729;42,43520
 482,20; 7076,838;  228,790;16263,079;42,70877
 482,78; 7397,978;  256,789;16904,727;42,89534
 483,37; 7591,064;  240,945;17307,043;43,06854
 483,95; 7646,378;  276,483;17547,580;42,67184
 484,54; 7737,119;  277,482;17683,337;42,85706
 485,13; 7655,431;  249,869;17558,207;42,78609
 485,71; 7599,306;  226,869;17323,439;43,12232
 486,30; 7564,358;  271,561;17081,754;43,38318
 486,88; 7428,737;  287,946;16766,109;43,33487
 487,47; 7139,731;  274,177;16100,309;43,38113
 488,05; 6805,679;  271,023;15294,645;43,49588
 488,64; 6311,243;  270,717;14139,708;43,55419
 489,23; 5661,468;  285,101;12365,761;44,50392
 489,81; 4873,950;  273,639;10727,273;44,00681
 490,40; 4647,622;  220,640;10315,104;43,85555
 490,98; 4561,761;  212,255;10144,924;43,78990
 491,57; 4535,831;  246,024;10037,647;43,81099
 492,15; 4502,125;  228,871; 9983,205;43,80877
 492,74; 4465,490;  231,639; 9946,172;43,58265
 493,32; 4418,349;  229,717; 9828,283;43,63810
 493,91; 4412,560;  221,564; 9745,544;44,00467
 494,50; 4359,040;  224,334; 9760,371;43,35875
 495,08; 4321,628;  208,026; 9711,576;43,28490
 495,67; 4382,159;  239,717; 9661,845;43,96503
 496,25; 4274,043;  180,564; 9564,795;43,62083
 496,84; 4265,298;  196,563; 9548,860;43,50519
 497,42; 4263,244;  176,641; 9517,475;43,74987
 498,01; 4238,009;  216,564; 9472,812;43,44574
 498,59; 4182,953;  179,103; 9340,636;43,70284
 499,18; 4196,409;  188,641; 9364,500;43,67731
 499,76; 4162,108;  205,103; 9282,765;43,59058
 500,35; 4055,526;  202,335; 9164,926;42,99193
 500,93; 4040,563;  177,718; 9070,109;43,43989
 501,52; 3992,504;  187,949; 9009,127;43,12978
 502,10; 4015,878;  199,797; 8978,598;43,46927
 502,69; 3951,790;  179,336; 8798,856;43,76641
 503,27; 3877,337;  168,796; 8670,506;43,62112
 503,86; 3839,386;  186,182; 8616,278;43,33526
 504,44; 3771,940;  159,721; 8555,991;43,02171
 505,03; 3692,337;  149,567; 8325,493;43,33173
 505,61; 3616,651;  165,028; 8219,303;42,85455
 506,19; 3615,682;  196,259; 8073,977;43,40627
 506,78; 3523,151;  170,337; 7917,903;43,27571
 507,36; 3439,437;  167,874; 7791,387;42,91412
 507,95; 3410,832;  180,876; 7685,535;43,03935
 508,53; 3345,919;  171,645; 7556,969;42,98084
 509,12; 3295,327;  176,337; 7405,975;43,14172
 509,70; 3247,361;  198,338; 7322,912;42,79586
 510,29; 3221,403;  201,646; 7213,332;43,06748
 510,87; 3106,047;  175,491; 7027,350;42,77024
 511,46; 3029,016;  166,953; 6916,778;42,40203
 512,04; 3008,687;  170,876; 6776,941;42,95766
 512,62; 2972,222;  187,107; 6655,862;43,05488
 513,21; 2900,238;  157,184; 6517,544;43,12733
 513,79; 2827,685;  168,725; 6414,095;42,57491
 514,38; 2772,001;  152,339; 6290,276;42,67984
 514,96; 2787,127;  187,724; 6201,779;43,22213
 515,54; 2715,817;  172,494; 6070,023;43,12524
 516,13; 2673,577;  179,724; 5986,334;42,94852
 516,71; 2624,021;  165,725; 5898,771;42,87940
 517,30; 2570,706;  152,495; 5798,831;42,82797
 517,88; 2557,512;  197,495; 5722,315;42,71664
 518,46; 2478,906;  167,572; 5589,424;42,62998
 519,05; 2462,664;  159,419; 5577,209;42,51264
 519,63; 2451,567;  179,803; 5514,774;42,58250
 520,22; 2420,470;  186,958; 5475,599;42,23225
 520,80; 2353,409;  171,958; 5442,441;41,38996
 521,38; 2389,898;  195,880; 5408,934;42,08699
 521,97; 2349,705;  172,113; 5399,227;41,65956
 522,55; 2334,051;  182,805; 5352,414;41,61333
 523,13; 2316,088;  161,036; 5358,009;41,46745
 523,72; 2320,636;  169,111; 5347,830;41,54550
 524,30; 2363,371;  199,498; 5479,206;40,98471
 524,89; 2356,337;  166,113; 5458,146;41,38719
 525,47; 2379,134;  181,883; 5540,549;41,00369
 526,05; 2386,984;  152,037; 5628,747;40,80820
 526,64; 2425,813;  181,191; 5713,467;40,57321
 527,22; 2456,761;  181,806; 5806,194;40,44805
 527,80; 2511,657;  217,576; 5914,984;40,26536
 528,39; 2518,259;  179,268; 6015,968;40,07386
 528,97; 2575,112;  181,191; 6165,624;40,00246
 529,55; 2637,268;  194,882; 6293,782;40,04633
 530,14; 2706,870;  202,268; 6486,179;39,85736
 530,72; 2676,394;  182,960; 6560,862;39,09489
 531,30; 2709,886;  163,961; 6657,406;39,20761
 531,89; 2751,552;  177,499; 6732,787;39,26681
 532,47; 2805,431;  200,423; 6838,493;39,24346
 533,05; 2819,298;  193,499; 6874,977;39,29968
 533,63; 2837,936;  202,500; 6902,658;39,33394
 534,22; 2790,898;  188,807; 6932,163;38,58747
 534,80; 2850,714;  195,731; 7007,417;38,97689
 535,38; 2922,017;  270,807; 7078,138;38,94639
 535,97; 2837,048;  200,653; 7058,812;38,44172
 536,55; 2867,051;  242,039; 7120,069;38,16517
 537,13; 2868,268;  251,730; 7054,154;38,46479
 537,71; 2907,099;  296,884; 7116,696;38,27400
 538,30; 2926,021;  302,423; 7194,679;38,06588
 538,88; 2990,426;  334,809; 7330,338;37,96164
 539,46; 3089,752;  397,347; 7454,681;38,15046
 540,05; 3110,726;  402,501; 7618,251;37,53214
 540,63; 3207,817;  445,501; 7774,302;37,69124
 541,21; 3253,549;  483,271; 7904,996;37,32660
 541,79; 3307,292;  509,963; 7964,301;37,52619
 542,38; 3375,711;  551,578; 8138,486;37,22377
 542,96; 3395,322;  555,117; 8251,855;36,90141
 543,54; 3490,161;  574,501; 8449,887;37,02244
 544,12; 3474,245;  544,578; 8599,348;36,37182
 544,70; 3470,478;  533,964; 8651,723;36,17395
 545,29; 3535,852;  516,039; 8776,225;36,55866
 545,87; 3557,446;  498,732; 8820,070;36,75747
 546,45; 3494,209;  462,039; 8766,508;36,51251
 547,03; 3506,849;  432,655; 8799,602;36,74212
 547,62; 3518,422;  387,117; 8996,406;36,37124
 548,20; 3560,858;  403,040; 9156,823;36,07375
 548,78; 3580,556;  363,965; 9203,532;36,38856
 549,36; 3596,270;  342,426; 9421,712;35,83810
 549,94; 3593,608;  316,579; 9528,091;35,57537
 550,53; 3681,660;  303,734; 9724,050;35,85789
 551,11; 3650,731;  280,042; 9847,901;35,22930
 551,69; 3740,551;  277,657;10144,620;35,09584
 552,27; 3750,689;  232,272;10330,743;34,84108
 552,85; 3869,756;  255,427;10627,894;34,84542
 553,44; 3947,947;  244,503;10898,342;34,76159
 554,02; 4032,480;  261,888;11203,774;34,46017
 554,60; 4086,427;  204,350;11471,857;34,45373
 555,18; 4179,936;  243,734;11783,170;34,11087
 555,76; 4238,801;  215,196;12091,429;33,87947
 556,34; 4342,584;  226,504;12454,320;33,66161
 556,93; 4430,143;  215,273;12770,957;33,56942
 557,51; 4482,431;  203,889;13053,869;33,29610
 558,09; 4600,950;  218,273;13386,759;33,28156
 558,67; 4713,958;  218,889;13652,413;33,46157
 559,25; 4719,283;  220,505;13928,781;32,81797
 559,83; 4802,956;  206,736;14224,658;32,78817
 560,41; 4905,040;  211,273;14512,178;32,82147
 561,00; 4968,907;  211,428;14767,109;32,68469
 561,58; 5017,218;  206,504;15018,621;32,47823
 562,16; 5052,309;  206,658;15353,022;31,99217
 562,74; 5148,442;  177,196;15598,202;32,23685
 563,32; 5207,366;  173,890;15927,958;31,95032
 563,90; 5347,663;  207,120;16305,531;31,93199
 564,48; 5402,804;  206,581;16681,959;31,53932
 565,06; 5540,814;  198,966;17197,190;31,42592
 565,65; 5707,862;  209,506;17859,249;31,15261
 566,23; 5929,023;  251,736;18448,461;31,19950
 566,81; 6079,154;  205,120;18989,158;31,27141
 567,39; 6276,307;  212,428;19764,679;31,01371
 567,97; 6402,325;  230,735;20380,088;30,62922
 568,55; 6670,262;  243,121;21058,328;30,87714
 569,13; 6772,408;  210,582;21688,318;30,55176
 569,71; 6972,565;  205,658;22469,476;30,39419
 570,29; 7263,078;  236,965;23282,448;30,48803
 570,87; 7375,907;  244,196;23983,312;30,04202
 571,45; 7519,392;  227,120;24502,707;30,03953
 572,03; 7565,466;  188,890;24881,041;29,87417
 572,61; 7746,351;  193,813;25538,358;29,79946
 573,20; 7875,843;  223,428;26177,961;29,48393
 573,78; 8003,609;  208,428;26563,691;29,57732
 574,36; 8106,898;  220,505;27021,124;29,42616
 574,94; 8274,317;  259,198;27366,788;29,56780
 575,52; 8222,819;  217,737;27594,078;29,24088
 576,10; 8379,731;  273,045;28110,947;29,12104
 576,68; 8491,888;  258,121;28665,074;28,98504
 577,26; 8601,574;  274,122;29139,062;28,84971
 577,84; 8727,836;  283,505;29656,724;28,74840
 578,42; 8784,106;  321,891;29808,069;28,69892
 579,00; 8757,776;  277,274;29967,654;28,56313
 579,58; 8767,766;  310,121;30137,605;28,35521
 580,16; 8743,457;  287,814;30131,387;28,33321
 580,74; 8727,484;  286,198;30340,720;28,08658
 581,32; 8710,205;  287,660;30314,414;28,05014
 581,90; 8618,315;  297,506;30354,109;27,68380
 582,48; 8609,931;  299,045;30400,581;27,60951
 583,06; 8560,165;  290,583;30555,502;27,32398
 583,64; 8549,675;  296,967;30610,400;27,22459
 584,22; 8449,735;  306,507;30447,103;27,01747
 584,80; 8376,646;  310,044;30242,772;26,94910
 585,38; 8192,544;  311,427;29839,880;26,68991
 585,96; 8140,434;  299,505;29935,126;26,45779
 586,54; 8133,935;  313,199;29987,199;26,35552
 587,12; 8068,938;  276,045;30077,888;26,14903
 587,70; 8087,154;  305,736;30372,690;25,88030
 588,28; 7998,732;  294,814;30276,496;25,69542
 588,86; 8037,135;  300,968;30369,140;25,72876
 589,44; 7959,587;  270,431;30455,368;25,47349
 590,02; 7948,567;  279,892;30592,010;25,29904
 590,59; 7973,024;  267,968;30782,843;25,25016
 591,17; 7938,271;  266,662;30952,595;25,00041
 591,75; 7917,612;  256,508;31018,385;24,90454
 592,33; 7943,232;  268,431;31226,866;24,79066
 592,91; 7940,584;  225,739;31450,779;24,70724
 593,49; 7968,521;  230,739;31721,173;24,57185
 594,07; 7985,764;  249,509;31908,664;24,43608
 594,65; 7971,309;  264,276;31864,729;24,38900
 595,23; 7981,322;  256,815;32274,959;24,12541
 595,81; 7966,535;  242,892;32311,504;24,08474
 596,39; 7982,229;  224,815;32475,679;24,05335
 596,97; 7906,481;  246,201;32579,545;23,69158
 597,55; 7934,137;  229,584;32575,044;23,81958
 598,12; 7866,118;  211,509;32589,872;23,64112
 598,70; 7825,627;  218,970;32640,570;23,46170
 599,28; 7862,282;  234,047;32766,460;23,44811
 599,86; 7806,344;  229,970;32819,475;23,24790
 600,44; 7768,146;  193,739;32998,181;23,08958
 601,02; 7761,706;  250,356;32968,774;22,95756
 601,60; 7737,446;  229,200;32905,125;22,97791
 602,18; 7690,347;  197,740;32980,004;22,85567
 602,75; 7635,122;  202,892;33018,094;22,64874
 603,33; 7619,308;  215,278;33086,233;22,52454
 603,91; 7579,027;  214,048;33004,856;22,46050
 604,49; 7586,732;  228,124;33044,672;22,42347
 605,07; 7558,175;  243,046;33084,147;22,27431
 605,65; 7548,034;  252,432;33104,258;22,20760
 606,23; 7554,661;  311,583;33386,726;21,89886
 606,80; 7547,712;  359,354;33424,475;21,74000
 607,38; 7485,112;  413,278;33422,150;21,42404
 607,96; 7486,801;  461,430;33416,966;21,31772
 608,54; 7480,316;  533,509;33503,715;21,06995
 609,12; 7466,674;  508,200;33582,057;21,03920
 609,70; 7431,163;  558,585;33563,537;20,82287
 610,27; 7380,875;  566,046;33595,779;20,63241
 610,85; 7351,956;  579,124;33707,211;20,44438
 611,43; 7315,922;  585,970;33696,684;20,32560
 612,01; 7197,146;  545,815;33466,188;20,20430
 612,59; 7156,996;  545,970;33500,651;20,06096
 613,16; 7085,991;  503,968;33409,568;20,00274
 613,74; 7055,424;  471,970;33306,431;20,05044
 614,32; 7007,881;  433,970;33334,191;19,98136
 614,90; 6888,911;  417,047;33208,091;19,73668
 615,48; 6778,842;  347,276;32880,622;19,76915
 616,05; 6714,706;  320,814;32836,605;19,66396
 616,63; 6619,954;  325,506;32662,818;19,46497
 617,21; 6620,554;  322,430;32659,585;19,47643
 617,79; 6511,819;  301,123;32538,994;19,26522
 618,36; 6496,380;  300,816;32409,528;19,29559
 618,94; 6321,678;  256,046;32220,076;18,97643
 619,52; 6280,996;  275,660;32001,587;18,92879
 620,10; 6215,123;  259,277;31889,489;18,82961
 620,67; 6121,686;  276,583;31794,170;18,54553
 621,25; 6137,202;  284,739;31701,623;18,62840
 621,83; 6040,845;  271,507;31661,424;18,37959
 622,41; 6045,023;  305,430;31670,252;18,29946
 622,98; 5941,351;  275,583;31422,617;18,19039
 623,56; 5899,745;  272,737;31406,229;18,07381
 624,14; 5865,171;  262,124;31334,292;18,03237
 624,72; 5808,024;  268,353;31269,648;17,86916
 625,29; 5761,015;  255,737;31228,042;17,77484
 625,87; 5747,768;  291,815;31236,152;17,63151
 626,45; 5640,971;  243,198;31051,252;17,52065
 627,02; 5585,321;  261,969;31068,829;17,27976
 627,60; 5544,620;  247,047;30986,441;17,23382
 628,18; 5520,443;  227,277;31085,057;17,15343
 628,76; 5486,840;  228,507;31142,796;17,00940
 629,33; 5490,492;  253,968;31064,458;16,99591
 629,91; 5424,354;  254,815;31061,643;16,78050
 630,49; 5414,949;  259,045;31181,711;16,67354
 631,06; 5376,958;  258,199;31335,323;16,47115
 631,64; 5351,306;  244,968;31288,046;16,44920
 632,22; 5304,141;  217,429;31192,146;16,42214
 632,79; 5362,334;  242,275;31420,344;16,42199
 633,37; 5293,686;  225,277;31415,583;16,24995
 633,95; 5302,495;  227,506;31561,816;16,19627
 634,52; 5315,267;  208,661;31661,523;16,23574
 635,10; 5285,197;  220,046;31675,841;16,10244
 635,68; 5269,001;  217,583;31826,802;15,98084
 636,25; 5222,535;  213,198;31728,493;15,89494
 636,83; 5198,994;  198,968;31980,565;15,73246
 637,41; 5195,150;  191,967;32023,594;15,71765
 637,98; 5269,302;  228,967;32249,649;15,74087
 638,56; 5229,530;  222,890;32253,350;15,63087
 639,13; 5220,234;  217,122;32412,408;15,53989
 639,71; 5261,946;  239,430;32399,063;15,61745
 640,29; 5125,032;  182,122;32231,476;15,42281
 640,86; 5109,031;  197,122;32476,941;15,21665
 641,44; 5118,106;  216,353;32413,252;15,22430
 642,02; 5079,335;  241,507;32332,717;15,07525
 642,59; 5077,872;  203,661;32566,798;15,06100
 643,17; 5063,409;  210,199;32495,878;15,03208
 643,74; 5000,870;  198,815;32592,343;14,82412
 644,32; 4988,099;  225,507;32517,886;14,74835
 644,89; 5002,405;  221,584;32494,966;14,81351
 645,47; 4969,865;  232,815;32542,431;14,66143
 646,05; 4923,633;  224,430;32478,512;14,56933
 646,62; 4891,939;  218,968;32457,823;14,49484
 647,20; 4888,323;  216,507;32615,288;14,41973
 647,77; 4854,167;  194,738;32408,907;14,46391
 648,35; 4807,627;  195,738;32332,064;14,35102
 648,92; 4775,857;  224,507;32438,222;14,12861
 649,50; 4694,701;  183,969;32310,225;14,04064
 650,08; 4688,162;  189,276;32246,075;14,03411
 650,65; 4697,622;  190,661;32497,617;13,95043
 651,23; 4798,082;  185,892;33275,313;13,93856
 651,80; 4864,773;  184,046;34028,316;13,83019
 652,38; 4918,464;  197,200;34442,320;13,78668
 652,95; 4922,847;  175,969;34666,093;13,76301
 653,53; 4962,076;  205,969;34757,712;13,76517
 654,10; 4982,613;  230,892;34953,100;13,68496
 654,68; 4905,996;  189,969;34841,411;13,60990
 655,25; 4886,456;  182,969;35001,492;13,50858
 655,83; 4878,070;  179,354;34949,880;13,51350
 656,40; 4887,300;  211,584;34941,422;13,46311
 656,98; 4826,375;  178,738;34810,349;13,42022
 657,55; 4844,297;  199,508;34663,967;13,47704
 658,13; 4740,988;  206,738;34428,433;13,24963
 658,70; 4725,140;  195,661;34117,975;13,35251
 659,28; 4615,677;  190,123;33307,363;13,36329
 659,85; 4454,214;  203,508;32717,905;13,07331
 660,43; 4488,213;  215,815;32914,293;13,06604
 661,00; 4453,596;  200,277;32983,450;12,97409
 661,58; 4480,133;  197,662;33237,762;12,96144
 662,15; 4475,362;  176,892;33443,611;12,92123
 662,73; 4556,053;  234,892;33659,615;12,92804
 663,30; 4523,206;  191,354;33846,311;12,87136
 663,88; 4540,127;  195,431;33988,391;12,85681
 664,45; 4499,741;  192,277;34199,010;12,66650
 665,03; 4575,278;  198,354;34561,398;12,73730
 665,60; 4618,662;  248,970;34915,556;12,60491
 666,17; 4560,506;  194,662;34897,790;12,58055
 666,75; 4609,428;  184,585;35266,178;12,61300
 667,32; 4636,196;  213,508;35578,490;12,50584
 667,90; 4614,887;  185,123;35786,878;12,44254
 668,47; 4646,039;  213,662;35987,189;12,39010
 669,05; 4656,884;  185,124;36290,193;12,38541
 669,62; 4646,344;  169,739;36350,504;12,37289
 670,19; 4631,958;  173,970;36430,277;12,29576
 670,77; 4687,803;  192,201;36514,819;12,37687
 671,34; 4636,955;  204,124;36506,591;12,21083
 671,92; 4656,415;  180,124;36829,672;12,21377
 672,49; 4660,952;  205,816;36828,599;12,16493
 673,06; 4626,874;  149,201;36885,064;12,18883
 673,64; 4624,872;  167,508;36774,452;12,17628
 674,21; 4620,486;  175,970;36826,917;12,12661
 674,79; 4639,946;  195,047;36961,228;12,08964
 675,36; 4648,099;  199,970;37128,924;12,04510
 675,93; 4582,328;  181,509;36984,620;11,95774
 676,51; 4631,327;  200,509;37171,085;11,98471
 677,08; 4608,941;  195,970;37237,781;11,91348
 677,65; 4629,247;  203,893;37349,400;11,91356
 678,23; 4662,092;  195,047;37514,788;11,96966
 678,80; 4621,629;  174,816;37530,945;11,90384
 679,38; 4671,243;  188,047;37659,795;11,96420
 679,95; 4685,164;  196,970;38042,953;11,85910
 680,52; 4683,317;  183,047;38260,418;11,81875
 681,10; 4748,546;  195,970;38454,114;11,89963
 681,67; 4741,006;  197,432;38774,425;11,77794
 682,24; 4763,082;  176,124;38904,582;11,84389
 682,82; 4780,696;  190,278;39379,509;11,71347
 683,39; 4882,233;  225,970;39656,974;11,80863
 683,96; 4870,616;  184,201;39919,901;11,79397
 684,54; 4880,230;  171,509;40233,904;11,75347
 685,11; 4932,536;  213,124;40508,985;11,71190
 685,68; 4988,150;  195,817;40817,450;11,79749
 686,25; 4943,687;  177,971;40902,607;11,70229
 686,83; 4976,378;  166,740;41025,611;11,77134
 687,40; 4996,915;  176,740;41336,307;11,71095
 687,97; 5064,529;  219,509;41732,541;11,67108
 688,55; 5038,604;  167,663;41679,083;11,73398
 689,12; 5048,680;  167,125;41940,856;11,68571
 689,69; 5056,371;  172,894;42076,859;11,65397
 690,26; 5106,523;  183,894;42067,632;11,75308
 690,84; 5122,137;  183,586;42217,866;11,74887
 691,41; 5130,597;  187,894;42302,947;11,73619
 691,98; 5164,750;  185,817;42622,258;11,73268
 692,56; 5155,748;  181,432;42671,800;11,70693
 693,13; 5216,439;  236,202;42643,342;11,74387
 693,70; 5205,669;  199,586;42858,115;11,73524
 694,27; 5177,206;  178,433;42899,196;11,70104
 694,84; 5199,204;  187,356;42996,430;11,70744
 695,42; 5335,357;  255,971;43204,510;11,82668
 695,99; 5257,432;  186,510;43368,975;11,74301
 696,56; 5243,815;  176,202;43220,902;11,77291
 697,13; 5288,660;  203,663;43454,367;11,75703
 697,71; 5307,043;  159,125;43485,755;11,88165
 698,28; 5344,042;  187,433;43796,144;11,82472
 698,85; 5348,656;  150,587;43791,070;11,91112
 699,42; 5332,654;  159,894;44034,458;11,78988
 699,99; 5389,037;  199,048;44070,616;11,82996
 700,57; 5385,344;  197,202;44075,619;11,82390
 701,14; 5401,573;  177,818;44246,469;11,85368
 701,71; 5428,725;  192,048;44406,857;11,84372
 702,28; 5432,109;  188,279;44439,476;11,85014
 702,85; 5431,338;  183,433;44544,711;11,82992
 703,43; 5482,644;  200,587;44672,483;11,87729
 704,00; 5569,951;  215,741;44903,179;11,98146
 704,57; 5520,795;  204,202;44980,414;11,87370
 705,14; 5564,717;  228,279;45157,032;11,87756
 705,71; 5596,100;  230,433;45211,267;11,92878
 706,28; 5554,176;  192,049;45139,424;11,92979
 706,86; 5655,559;  231,433;45317,043;12,03072
 707,43; 5647,557;  234,818;45260,970;12,02132
 708,00; 5643,633;  220,972;45277,127;12,03534
 708,57; 5608,862;  193,895;45206,285;12,02995
 709,14; 5659,630;  216,664;45335,365;12,06366
 709,71; 5691,013;  197,818;45351,907;12,16544
 710,28; 5746,166;  193,049;45535,526;12,24705
 710,86; 5755,780;  206,280;45650,068;12,21179
 711,43; 5815,778;  227,510;45694,995;12,29069
 712,00; 5782,854;  202,741;45768,921;12,24617
 712,57; 5842,314;  211,434;45910,310;12,32170
 713,14; 5863,005;  190,741;45984,159;12,38663
 713,71; 5865,926;  203,741;45896,932;12,39175
 714,28; 5887,694;  208,049;45992,013;12,40532
 714,85; 5871,000;  185,664;45774,478;12,47090
 715,42; 5904,537;  203,895;45894,789;12,47654
 716,00; 6011,074;  246,972;46016,254;12,59382
 716,57; 5961,842;  191,895;46158,411;12,55250
 717,14; 5975,072;  170,126;46019,723;12,66084
 717,71; 5935,455;  173,203;46144,649;12,53441
 718,28; 6007,761;  201,126;46141,807;12,63942
 718,85; 6025,683;  175,665;46136,656;12,72822
 719,42; 6107,835;  201,588;46372,045;12,79227
 719,99; 6050,988;  182,972;46120,741;12,77384
 720,56; 6147,063;  191,972;46406,052;12,88588
 721,13; 6097,754;  178,588;46481,055;12,78369
 721,70; 6105,522;  169,511;46425,213;12,83304
 722,27; 6159,059;  205,434;46411,216;12,88502
 722,84; 6254,442;  232,665;46546,528;13,00210
 723,41; 6191,364;  173,588;46637,916;12,95139
 723,98; 6239,593;  182,280;46601,612;13,04912
 724,55; 6322,207;  219,973;46784,923;13,10478
 725,12; 6264,590;  157,896;46765,234;13,10243
 725,69; 6322,281;  176,127;46883,622;13,15882
 726,27; 6319,280;  189,588;46973,472;13,10214
 726,84; 6379,509;  190,588;47240,014;13,15408
 727,41; 6432,661;  212,281;47266,864;13,21950
 727,98; 6440,275;  201,973;47464,175;13,19935
 728,55; 6520,658;  227,973;47331,717;13,35920
 729,12; 6486,349;  165,434;47562,259;13,33616
 729,69; 6579,656;  203,588;47657,647;13,43629
 730,26; 6587,885;  210,665;47766,728;13,40990
 730,82; 6610,268;  184,127;47760,577;13,50698
 731,39; 6639,344;  204,742;47806,043;13,51770
 731,96; 6702,419;  179,127;48100,123;13,61260
 732,53; 6740,418;  195,358;48235,127;13,62425
 733,10; 6747,878;  202,896;48239,361;13,62503
 733,67; 6799,876;  199,281;48419,211;13,68852
 734,24; 6834,413;  186,358;48201,214;13,84583
 734,81; 6837,643;  220,358;48290,295;13,76595
 735,38; 6790,718;  201,127;48075,606;13,76431
 735,95; 6821,178;  195,896;48042,610;13,84689
 736,52; 6866,562;  206,358;48050,998;13,92048
 737,09; 6867,406;  202,819;47903,847;13,97158
 737,66; 6950,174;  244,435;48030,851;14,03273
 738,23; 6986,480;  188,743;48049,932;14,20303
 738,80; 7044,479;  243,743;48311,935;14,14810
 739,37; 7029,631;  222,973;48523,477;14,09231
 739,94; 7104,553;  200,589;48466,327;14,30407
 740,51; 7253,090;  281,589;48483,253;14,46320
 741,07; 7128,858;  195,204;48505,411;14,35236
 741,64; 7195,779;  219,435;48680,261;14,39584
 742,21; 7234,163;  197,589;48728,418;14,49918
 742,78; 7248,854;  172,666;48539,883;14,63013
 743,35; 7326,544;  202,358;48686,656;14,69380
 743,92; 7407,620;  231,128;48802,198;14,77524
 744,49; 7401,926;  203,820;48708,201;14,84012
 745,06; 7416,386;  196,897;48755,743;14,86751
 745,63; 7416,693;  185,205;48677,670;14,91260
 746,19; 7438,922;  186,743;48740,597;14,93636
 746,76; 7468,920;  203,128;48797,370;14,95196
 747,33; 7498,150;  189,589;48724,912;15,05823
 747,90; 7582,533;  218,743;48952,915;15,11012
 748,47; 7602,839;  207,512;48958,457;15,16961
 749,04; 7640,146;  205,205;48905,999;15,26657
 749,61; 7645,067;  229,512;48891,464;15,23892
 750,17; 7688,066;  210,359;48882,160;15,36353
 750,74; 7701,680;  210,666;48823,548;15,40952
 751,31; 7720,294;  190,282;48623,244;15,54729
 751,88; 7732,754;  181,897;48689,094;15,56647
 752,45; 7783,445;  189,820;48811,559;15,61776
 753,02; 7772,828;  210,128;48565,486;15,63984
 753,58; 7817,980;  190,359;48547,566;15,77349
 754,15; 7811,748;  187,128;48645,493;15,73437
 754,72; 7793,670;  199,359;48335,573;15,77671
 755,29; 7817,130;  190,205;48252,808;15,86873
 755,86; 7871,359;  215,205;48397,119;15,89010
 756,42; 7923,050;  211,359;48349,661;16,01987
 756,99; 7907,510;  180,821;48226,741;16,08188
 757,56; 7898,509;  196,359;48240,514;16,03140
 758,13; 7923,815;  154,667;48201,902;16,16981
 758,70; 8023,967;  181,359;48225,829;16,32364
 759,26; 8034,351;  193,744;48312,679;16,29422
 759,83; 8127,811;  196,667;48469,298;16,42990
 760,40; 8101,117;  178,744;48268,455;16,47415
 760,97; 8127,500;  176,667;48322,074;16,51421
 761,53; 8125,037;  166,359;47931,539;16,66209
 762,10; 8164,574;  162,744;48003,081;16,72612
 762,67; 8211,804;  195,898;47963,700;16,78098
 763,24; 8143,879;  145,590;47494,858;16,89211
 763,80; 8211,955;  181,513;47722,400;16,89165
 764,37; 8230,876;  184,436;47659,480;16,94878
 764,94; 8176,490;  167,283;47303,561;16,99160
 765,50; 8230,873;  164,744;47304,641;17,11105
 766,07; 8347,180;  212,744;47275,260;17,28432
 766,64; 8249,409;  169,436;47024,033;17,24478
 767,21; 8268,331;  179,360;46946,113;17,29641
 767,77; 8323,637;  197,975;46853,348;17,41635
 768,34; 8343,712;  189,898;46793,967;17,49593
 768,91; 8346,788;  198,437;46626,970;17,55031
 769,47; 8411,863;  190,283;46586,281;17,72045
 770,04; 8394,247;  195,283;46604,131;17,66681
 770,61; 8350,707;  183,437;46275,365;17,71952
 771,18; 8362,475;  168,514;46172,907;17,81126
 771,74; 8455,165;  182,744;46309,911;17,93395
 772,31; 8460,164;  189,975;46182,915;17,98143
 772,88; 8448,009;  167,052;45898,380;18,10784
 773,44; 8421,315;  172,283;45693,229;18,12140
 774,01; 8498,852;  199,052;45764,618;18,21507
 774,58; 8496,697;  169,206;45492,775;18,37342
 775,14; 8565,003;  172,745;45580,625;18,48194
 775,71; 8588,386;  182,129;45505,474;18,54730
 776,27; 8700,385;  223,052;45354,940;18,78347
 776,84; 8707,229;  229,899;45515,943;18,71952
 777,41; 8708,997;  191,360;45304,024;18,88081
 777,97; 8673,227;  176,437;45007,950;18,95272
 778,54; 8732,994;  195,052;45085,108;19,01967
 779,11; 8810,455;  206,283;44993,265;19,21132
 779,67; 8848,761;  170,745;45136,038;19,29936
 780,24; 8831,529;  191,976;44853,657;19,34444
 780,80; 8848,835;  207,360;44858,968;19,35311
 781,37; 8938,910;  200,591;44847,049;19,57226
 781,94; 8879,678;  189,822;44557,821;19,58586
 782,50; 8928,215;  205,360;44577,748;19,65829
 783,07; 8951,829;  223,130;44628,982;19,65664
 783,63; 8909,674;  197,745;44403,294;19,70777
 784,20; 8996,826;  219,284;44325,297;19,90101
 784,77; 9029,748;  194,207;44170,224;20,09173
 785,33; 9036,516;  180,822;44022,381;20,19931
 785,90; 9059,976;  199,207;43930,308;20,26194
 786,46; 9077,513;  214,591;43863,850;20,30486
 787,03; 9067,127;  183,361;43677,700;20,42511
 787,59; 9124,664;  190,591;43688,472;20,53910
 788,16; 9162,586;  205,515;43619,707;20,63167
 788,73; 9202,969;  214,130;43399,095;20,81474
 789,29; 9195,583;  195,438;43146,483;20,95443
 789,86; 9225,735;  207,822;43107,948;21,02071
 790,42; 9225,888;  209,053;42960,952;21,09107
 790,99; 9240,117;  216,053;42593,186;21,29465
 791,55; 9182,962;  196,438;42714,574;21,13574
 792,12; 9243,576;  213,822;42579,809;21,31369
 792,68; 9227,728;  195,669;42295,581;21,45387
 793,25; 9207,342;  215,053;42106,970;21,46545
 793,81; 9263,494;  248,899;41832,665;21,67816
 794,38; 9164,954;  182,438;41583,746;21,69621
 794,94; 9254,261;  197,515;41538,442;21,90746
 795,51; 9240,336;  213,592;41288,599;21,97625
 796,07; 9220,873;  201,746;41080,680;22,06302
 796,64; 9278,641;  220,053;41038,222;22,19254
 797,20; 9245,255;  197,207;40640,918;22,37195
 797,77; 9165,484;  184,130;40481,613;22,28763
 798,33; 9177,868;  192,977;40323,925;22,38893
 798,90; 9234,712;  224,823;40165,082;22,55842
 799,46; 9193,019;  190,977;39853,009;22,69688
 800,03; 9208,248;  212,746;39732,089;22,76228
 800,59; 9168,862;  215,361;39487,247;22,79875
 801,15; 9215,245;  227,669;39369,019;22,96184
 801,72; 9199,013;  214,361;39112,946;23,09763
 802,28; 9197,627;  233,977;38883,411;23,19219
 802,85; 9157,933;  215,823;38680,338;23,24769
 803,41; 9118,701;  203,362;38565,572;23,23990
 803,98; 9135,623;  207,669;38109,268;23,55561
 804,54; 9133,544;  217,515;37928,502;23,64305
 805,11; 9122,004;  215,900;37763,044;23,71979
 805,67; 9184,695;  234,285;37716,202;23,87928
 806,23; 9115,078;  212,285;37327,513;23,98690
 806,80; 9148,154;  228,592;37176,901;24,14065
 807,36; 9174,691;  234,285;37223,674;24,17019
 807,93; 9148,689;  236,516;37033,908;24,21958
 808,49; 9127,996;  197,439;36620,527;24,51894
 809,05; 9079,764;  183,439;36478,839;24,51089
 809,62; 9154,224;  216,670;36414,381;24,69094
 810,18; 9162,915;  220,823;36358,153;24,74475
 810,74; 9088,529;  192,593;36147,157;24,74216
 811,31; 9132,373;  196,670;35957,545;24,98737
 811,87; 9150,064;  210,670;35826,087;25,09979
 812,44; 9209,601;  247,747;35693,398;25,28337
 813,00; 9123,754;  179,285;35566,710;25,27584
 813,56; 9218,521;  226,208;35518,175;25,47977
 814,13; 9248,981;  210,824;35462,024;25,63929
 814,69; 9295,980;  221,516;35334,951;25,84328
 815,25; 9170,286;  186,593;34916,185;25,86755
 815,82; 9212,746;  228,824;34985,266;25,84822
 816,38; 9257,130;  239,516;34690,577;26,17514
 816,94; 9211,436;  197,978;34422,965;26,33590
 817,51; 9179,050;  191,132;34280,354;26,36587
 818,07; 9178,741;  194,747;34105,588;26,49298
 818,63; 9166,816;  210,132;33899,745;26,58589
 819,20; 9232,430;  211,439;33874,210;26,79812
 819,76; 9140,660;  197,055;33426,829;26,91443
 820,32; 9162,812;  230,670;33314,910;26,99818
 820,89; 9179,734;  229,593;33239,144;27,11379
 821,45; 9128,886;  204,670;32965,994;27,24010
 822,01; 9149,423;  227,055;32742,151;27,44069
 822,57; 9152,729;  227,209;32676,616;27,50596
 823,14; 9116,343;  185,286;32396,620;27,72644
 823,70; 9115,496;  206,593;32244,777;27,80714
 824,26; 9119,956;  203,824;32061,627;27,98728
 824,82; 9182,570;  211,593;31946,938;28,26809
 825,39; 9122,645;  199,670;31670,096;28,35352
 825,95; 9174,105;  225,978;31677,407;28,45062
 826,51; 9147,565;  215,670;31378,641;28,66189
 827,08; 9188,641;  256,209;31418,491;28,66424
 827,64; 9230,255;  219,594;31318,341;28,97435
 828,20; 9185,561;  204,747;31105,652;29,06327
 828,76; 9249,175;  223,517;30994,271;29,33194
 829,32; 9257,712;  233,517;30926,582;29,40141
 829,89; 9254,172;  187,517;30823,124;29,59515
 830,45; 9259,709;  213,209;30730,974;29,64339
 831,01; 9294,016;  210,132;30574,670;29,91609
 831,57; 9287,014;  212,132;30514,443;29,94782
 832,14; 9309,628;  200,902;30428,831;30,13348
 832,70; 9327,781;  196,363;30234,834;30,39908
 833,26; 9343,010;  183,209;30163,607;30,55263
 833,82; 9378,470;  207,132;30088,688;30,69230
 834,38; 9402,469;  201,594;30130,691;30,74224
 834,95; 9367,236;  194,209;29934,233;30,84405
 835,51; 9347,004;  168,286;29779,775;30,99715
 836,07; 9425,541;  215,825;29845,394;31,08286
 836,63; 9490,309;  225,517;29896,475;31,22512
 837,19; 9529,692;  207,671;29733,709;31,57220
 837,75; 9481,768;  175,363;29452,020;31,78780
 838,32; 9515,612;  233,363;29500,101;31,71604
 838,88; 9562,534;  227,440;29625,181;31,75446
 839,44; 9588,687;  207,594;29426,416;32,10633
 840,00; 9638,608;  210,671;29415,342;32,28229
 840,56; 9624,068;  196,440;29154,269;32,55640
 841,12; 9660,990;  192,364;29126,042;32,72528
 841,68; 9627,989;  183,133;29033,968;32,73685
 842,25; 9629,064;  196,441;28972,049;32,77993
 842,81; 9644,447;  185,364;28778,591;33,08155
 843,37; 9688,446;  171,671;28784,056;33,26103
 843,93; 9724,752;  199,518;28716,906;33,40150
 844,49; 9785,443;  209,210;28746,140;33,55733
 845,05; 9722,134;  176,210;28571,297;33,61822
 845,61; 9822,594;  212,748;28631,301;33,81539
 846,17; 9803,054;  191,902;28475,305;33,98160
 846,73; 9866,360;  208,749;28441,539;34,20708
 847,29; 9827,359;  184,672;28266,389;34,33795
 847,86; 9877,127;  193,287;28199,854;34,57703
 848,42; 9841,741;  188,518;28047,088;34,65082
 848,98; 9908,432;  200,210;28043,476;34,86739
 849,54; 9941,045;  186,749;28086,480;34,96197
 850,10; 9950,352;  204,441;27946,329;35,13067
 850,66; 9982,427;  187,056;27857,564;35,40004
 851,22; 9985,118;  187,595;27686,106;35,62929
 851,78;10062,347;  232,056;27694,186;35,79581
 852,34;10022,346;  207,595;27601,421;35,82833
 852,90;10018,806;  203,133;27480,424;35,98478
 853,46; 9957,805;  196,133;27263,505;36,06435
 854,02;10064,188;  192,749;27362,124;36,33296
 854,58;10020,494;  195,364;27066,589;36,56376
 855,14;10050,108;  182,057;27042,362;36,73842
 855,70;10049,184;  161,134;26945,980;36,91658
 856,26;10086,490;  206,749;26768,830;37,19491
 856,82;10120,950;  184,595;26726,680;37,43623
 857,38;10088,025;  217,903;26530,607;37,51086
 857,94;10097,793;  200,441;26552,302;37,55846
 858,50;10091,946;  206,057;26370,075;37,78429
 859,06;10080,021;  193,749;26171,540;38,05663
 859,62;10134,020;  210,211;26167,698;38,23101
 860,18;10070,018;  197,672;26070,163;38,15770
 860,74;10089,555;  172,057;25966,628;38,44801
 861,30;10044,554;  174,595;25774,093;38,55528
 861,86;10136,860;  221,134;25764,327;38,81945
 862,42;10063,013;  208,211;25631,946;38,76221
 862,98;10181,088;  223,596;25603,027;39,23450
 863,54;10086,010;  198,826;25361,261;39,29343
 864,10;10194,624;  209,134;25480,342;39,51331
 864,66;10105,084;  183,288;25276,422;39,53988
 865,22;10117,236;  197,519;25127,580;39,79019
 865,78;10107,389;  202,826;25091,275;39,79582
 866,34;10125,233;  190,211;25035,664;39,98729
 866,90;10085,617;  198,827;24905,975;40,01591
 867,45;10058,308;  202,673;24722,440;40,19465
 868,01;10117,691;  205,134;24550,597;40,71624
 868,57;10071,997;  199,057;24517,062;40,59930
 869,13;10056,611;  184,365;24297,681;40,94105
 869,69;10055,917;  193,519;24291,762;40,92580
 870,25;10046,147;  181,057;24177,458;41,11070
 870,81;10048,376;  192,827;24075,769;41,26606
 871,37;10059,605;  204,596;24026,003;41,37039
 871,93;10026,527;  213,288;23867,007;41,48709
 872,49;10042,295;  220,519;23702,087;41,82760
 873,04;10000,293;  185,519;23554,706;41,99878
 873,60;10027,984;  176,981;23479,479;42,27445
 874,16; 9978,829;  202,365;23356,098;42,22414
 874,72; 9985,137;  208,442;23300,790;42,33738
 875,28;10014,983;  204,981;23269,790;42,53233
 875,84;10022,521;  199,365;23193,483;42,72030
 876,40;10023,444;  193,212;23143,406;42,83290
 876,95;10043,829;  211,827;23156,713;42,85051
 877,51;10111,521;  226,673;23167,175;43,08907
 878,07;10148,137;  237,519;23148,406;43,25724
 878,63;10205,675;  194,288;23137,483;43,63554
 879,19;10316,367;  221,596;23059,098;44,20261
 879,75;10341,675;  199,827;23187,098;44,11941
 880,30;10352,906;  195,212;23173,483;44,20565
 880,86;10536,521;  234,673;23314,713;44,63531
 881,42;10549,983;  195,827;23328,713;44,75946
 881,98;10684,675;  221,442;23396,790;45,14811
 882,54;10775,213;  196,596;23431,252;45,52948
 883,09;10887,444;  206,288;23552,021;45,75207
 883,65;10936,444;  187,212;23574,944;45,96099
 884,21;11182,675;  225,135;23773,637;46,53179
 884,77;11206,829;  197,058;23795,175;46,65529
 885,32;11372,675;  202,750;23929,252;47,07784
 885,88;11516,213;  230,442;24069,021;47,34247
 886,44;11591,290;  206,442;24144,560;47,55950
 887,00;11661,829;  219,981;24150,867;47,81205
 887,56;11727,906;  203,827;24227,944;47,96879
 888,11;11832,675;  209,135;24284,021;48,28077
 888,67;11913,752;  233,519;24452,790;48,22702
 889,23;11974,598;  218,981;24396,329;48,62244
 889,79;11972,752;  193,442;24371,867;48,71827
 890,34;12016,137;  201,058;24235,175;49,15961
 890,90;12214,060;  262,596;24340,790;49,63605
 891,46;12061,521;  199,212;24413,944;48,98798
 892,01;12168,521;  225,365;24288,867;49,63183
 892,57;12211,290;  230,442;24216,790;49,94861
 893,13;12174,367;  203,673;24067,483;50,16254
 893,69;12162,060;  198,750;24016,560;50,22842
 894,24;12188,137;  207,288;23897,944;50,57204
 894,80;12139,213;  220,519;23760,560;50,63158
 895,36;12098,752;  209,519;23692,713;50,62869
 895,91;12014,752;  205,904;23459,560;50,78276
 896,47;12110,752;  210,212;23394,867;51,32938
 897,03;12020,060;  201,519;23263,790;51,24621
 897,58;11981,829;  215,673;23156,021;51,29022
 898,14;12006,060;  211,904;22986,483;51,78649
 898,70;11930,983;  185,827;22892,944;51,72456
 899,25;12053,829;  201,981;22925,175;52,15749
 899,81;11977,906;  223,212;22727,867;52,23228
 900,37;11853,752;  172,827;22561,021;52,17448
 900,92;11941,829;  208,596;22541,021;52,53900
 901,48;11941,213;  194,981;22426,252;52,83653
 902,03;11888,137;  193,981;22163,560;53,22886
 902,59;11910,290;  199,212;22145,329;53,36287
 903,15;11900,598;  213,288;22103,713;53,39005
 903,70;11860,213;  206,827;21814,098;53,93271
 904,26;11842,444;  197,673;21688,790;54,18411
 904,82;11823,290;  206,135;21729,867;53,97370
 905,37;11883,983;  206,904;21596,329;54,59277
 905,93;11819,752;  194,596;21468,175;54,64598
 906,48;11807,060;  219,288;21463,175;54,54638
 907,04;11864,444;  226,212;21425,713;54,89861
 907,60;11767,675;  201,365;21221,560;55,02475
 908,15;11776,060;  195,981;21170,713;55,20966
 908,71;11846,983;  222,288;21108,483;55,65731
 909,26;11776,906;  195,058;20934,790;55,84377
 909,82;11813,906;  224,058;20892,483;56,07514
 910,37;11790,137;  236,750;20749,021;56,32427
 910,93;11672,521;  197,365;20633,175;56,15220
 911,48;11642,983;  192,596;20452,252;56,51817
 912,04;11615,444;  196,365;20378,021;56,58148
 912,60;11703,906;  198,212;20365,483;57,05132
 913,15;11660,829;  213,827;20261,560;57,09874
 913,71;11590,444;  194,827;20084,098;57,29530
 914,26;11618,137;  187,442;20005,944;57,67688
 914,82;11617,444;  213,827;19936,021;57,82124
 915,37;11626,829;  197,981;19909,175;57,98151
 915,93;11616,290;  232,519;19735,637;58,36898
 916,48;11523,444;  199,365;19633,944;58,26768
 917,04;11477,521;  215,596;19596,175;58,10933
 917,59;11576,906;  226,212;19514,713;58,84695
 918,15;11420,444;  179,212;19294,944;58,80618
 918,70;11508,444;  196,365;19253,944;59,35738
 919,26;11481,598;  206,981;19240,021;59,23708
 919,81;11369,367;  191,212;19001,252;59,42654
 920,37;11433,521;  187,750;18971,252;59,87047
 920,92;11427,983;  212,673;18955,406;59,83818
 921,48;11330,675;  187,212;18764,021;59,98588
 922,03;11374,983;  204,981;18779,637;60,13571
 922,59;11355,367;  192,442;18575,329;60,72455
 923,14;11326,752;  197,981;18548,713;60,64483
 923,69;11304,213;  216,058;18498,252;60,65003
 924,25;11344,290;  219,288;18406,406;61,16968
 924,80;11211,290;  203,596;18234,790;61,04806
 925,36;11319,137;  203,673;18139,790;61,97252
 925,91;11189,675;  197,212;18047,790;61,58043
 926,47;11140,137;  186,442;18020,329;61,42068
 927,02;11225,906;  233,519;17909,713;62,18752
 927,57;11075,213;  205,596;17783,713;61,83607
 928,13;11132,060;  200,442;17742,637;62,31613
 928,68;11054,367;  195,058;17641,790;62,24265
 929,24;11035,675;  175,135;17513,637;62,63829
 929,79;11001,906;  190,596;17454,329;62,62440
 930,34;10938,444;  201,365;17284,560;62,85171
 930,90;10931,290;  193,212;17241,637;62,98575
 931,45;11008,444;  218,596;17229,637;63,42850
 932,01;10903,137;  211,673;17161,252;63,07805
 932,56;10885,752;  219,981;16974,406;63,65943
 933,11;10938,137;  222,596;17018,021;63,80035
 933,67;10845,829;  194,288;16806,944;64,11702
 934,22;10824,752;  206,750;16756,098;64,15964
 934,77;10819,137;  224,827;16617,790;64,62718
 935,33;10723,060;  209,519;16576,098;64,23786
 935,88;10725,752;  215,827;16473,098;64,64753
 936,43;10786,983;  196,058;16464,175;65,10234
 936,99;10695,213;  201,135;16404,252;64,76580
 937,54;10646,521;  186,212;16224,790;65,21968
 938,09;10636,983;  207,135;16155,867;65,39609
 938,65;10612,598;  215,750;16009,713;65,82799
 939,20;10535,137;  186,135;15984,713;65,50590
 939,75;10533,137;  187,596;15881,483;65,92083
 940,31;10533,521;  181,981;15795,406;66,29897
 940,86;10592,675;  201,827;15800,252;66,61473
 941,41;10588,060;  255,519;15740,098;66,72794
 941,96;10569,598;  195,212;15524,944;67,67493
 942,52;10508,906;  197,981;15493,867;67,40979
 943,07;10457,213;  181,904;15400,021;67,52024
 943,62;10449,367;  195,673;15361,021;67,61265
 944,18;10461,213;  184,904;15295,790;68,00600
 944,73;10447,137;  204,904;15183,560;68,37885
 945,28;10363,906;  171,058;15010,406;68,68798
 945,83;10406,906;  198,288;15033,867;68,81172
 946,39;10408,598;  187,058;15086,329;68,60430
 946,94;10389,213;  216,058;14992,406;68,84756
 947,49;10325,290;  205,827;14865,944;69,02717
 948,04;10318,290;  215,827;14786,560;69,33394
 948,59;10325,444;  220,135;14786,713;69,37325
 949,15;10265,598;  186,212;14630,790;69,77972
 949,70;10222,521;  199,288;14593,560;69,63349
 950,25;10215,906;  215,519;14546,483;69,78168
 950,80;10242,521;  166,904;14397,021;70,80488
 951,36;10165,444;  176,058;14343,021;70,51184
 951,91;10204,675;  216,135;14369,021;70,57599
 952,46;10114,367;  165,442;14128,021;71,25421
 953,01;10132,213;  217,827;14218,944;70,81140
 953,56;10074,367;  180,981;14071,560;71,22372
 954,11;10075,675;  214,904;14053,713;71,25448
 954,67;10082,444;  196,904;13999,021;71,62336
 955,22; 9991,367;  169,596;13851,175;71,78829
 955,77; 9964,752;  224,596;13886,252;71,29557
 956,32; 9992,367;  241,673;13705,329;72,42234
 956,87; 9888,752;  190,827;13579,867;72,43182
 957,42; 9931,675;  201,673;13540,483;72,94505
 957,98; 9947,137;  189,365;13546,252;73,05423
 958,53; 9965,213;  205,981;13477,713;73,53398
 959,08; 9919,829;  193,904;13357,713;73,88382
 959,63; 9853,060;  190,904;13272,098;73,86295
 960,18; 9914,829;  206,135;13271,175;74,31048
 960,73; 9889,060;  196,058;13201,560;74,53001
 961,28; 9867,598;  174,365;13142,098;74,74886
 961,83; 9836,598;  207,442;13070,560;74,85865
 962,39; 9777,137;  183,519;12959,021;75,09386
 962,94; 9789,444;  207,904;12949,790;75,19719
 963,49; 9723,444;  189,365;12787,175;75,68045
 964,04; 9705,444;  210,288;12787,175;75,49687
 964,59; 9730,367;  174,058;12647,329;76,61430
 965,14; 9724,675;  211,442;12593,944;76,82803
 965,69; 9628,675;  197,442;12512,867;76,58065
 966,24; 9629,367;  183,904;12437,406;77,08379
 966,79; 9583,521;  208,442;12360,098;77,15063
 967,34; 9514,906;  182,750;12251,790;77,32310
 967,89; 9502,367;  194,750;12180,713;77,65431
 968,44; 9475,675;  195,827;12157,406;77,58046
 968,99; 9468,829;  208,442;12092,406;77,92338
 969,55; 9430,213;  203,673;12033,329;77,99500
 970,10; 9408,983;  199,365;11980,329;78,17372
 970,65; 9320,675;  210,365;11872,329;78,11986
 971,20; 9238,213;  188,673;11767,560;78,15553
 971,75; 9223,521;  176,442;11679,713;78,64788
 972,30; 9211,060;  196,288;11650,713;78,70121
 972,85; 9120,213;  185,673;11555,560;78,58073
 973,40; 9078,598;  178,827;11380,175;79,45268
 973,95; 9042,444;  212,981;11371,867;79,12495
 974,50; 9031,829;  210,827;11328,406;79,34283
 975,05; 8991,444;  198,904;11217,560;79,79685
 975,60; 8958,598;  213,596;11175,713;79,77475
 976,15; 8918,367;  193,673;11068,175;80,23075
 976,70; 8896,213;  204,288;11034,175;80,25869
 977,25; 8949,444;  204,827;11004,021;80,97472
 977,80; 8812,521;  196,058;10851,098;80,86749
 978,35; 8765,521;  210,135;10707,483;81,50046
 978,89; 8751,521;  183,750;10631,252;82,00784
 979,44; 8742,290;  201,904;10651,252;81,73129
 979,99; 8618,906;  185,750;10490,098;81,84075
 980,54; 8632,521;  220,288;10451,329;82,22265
 981,09; 8561,829;  209,058;10355,713;82,32043
 981,64; 8491,598;  205,827;10231,713;82,64378
 982,19; 8500,137;  238,135;10220,637;82,76484
 982,74; 8372,367;  217,288;10103,021;82,49342
 983,29; 8385,137;  184,981;10002,867;83,52262
 983,84; 8295,367;  209,981; 9879,406;83,61807
 984,39; 8322,752;  240,827; 9855,944;84,05436
 984,94; 8196,367;  185,442; 9729,713;83,93438
 985,49; 8197,290;  226,365; 9680,175;84,31442
 986,03; 8149,444;  220,981; 9641,021;84,16592
 986,58; 8047,829;  240,827; 9509,790;84,22735
 987,13; 7992,598;  206,519; 9420,944;84,49880
 987,68; 7922,521;  215,673; 9312,329;84,72177
 988,23; 7885,983;  220,673; 9285,329;84,56261
 988,78; 7834,983;  193,673; 9157,406;85,24696
 989,33; 7775,213;  220,442; 9065,406;85,41325
 989,88; 7737,752;  228,519; 9057,098;85,05596
 990,42; 7659,521;  200,288; 8915,483;85,58883
 990,97; 7558,598;  210,442; 8832,483;85,22525
 991,52; 7582,444;  227,212; 8792,637;85,87119
 992,07; 7529,906;  238,365; 8680,637;86,36942
 992,62; 7381,983;  202,673; 8580,713;85,69199
 993,17; 7357,137;  210,673; 8529,560;85,90649
 993,71; 7291,213;  211,750; 8440,560;86,03266
 994,26; 7204,752;  196,750; 8310,098;86,37620
 994,81; 7214,752;  230,981; 8265,175;86,92560
 995,36; 7106,675;  204,058; 8174,867;86,59870
 995,91; 7078,367;  218,596; 8099,252;87,04569
 996,45; 7029,521;  210,135; 8006,637;87,46726
 997,00; 6903,906;  192,750; 7855,637;87,58000
 997,55; 6892,290;  212,058; 7839,867;87,57734
 998,10; 6861,367;  233,058; 7781,560;87,80960
 998,65; 6825,983;  211,058; 7703,175;88,29180
 999,19; 6721,675;  219,827; 7618,483;87,87878
 999,74; 6656,367;  241,442; 7516,867;88,17251
1000,29; 6600,213;  225,673; 7431,098;88,46862
1000,84; 6506,906;  206,519; 7340,483;88,31537
1001,38; 6488,290;  215,212; 7245,406;89,23052
1001,93; 6463,521;  215,827; 7256,560;88,73642
1002,48; 6305,521;  201,981; 7089,175;88,62158
1003,03; 6300,983;  217,827; 7075,252;88,70904
1003,57; 6266,752;  233,135; 6972,175;89,53229
1004,12; 6188,598;  242,212; 6877,329;89,61992
1004,67; 6110,213;  211,596; 6810,560;89,38703
1005,22; 5986,137;  201,904; 6647,867;89,73418
1005,76; 5925,829;  196,288; 6564,098;89,97663
1006,31; 5915,444;  224,365; 6554,637;89,90261
1006,86; 5820,906;  214,904; 6436,252;90,10912
1007,40; 5702,444;  192,904; 6317,098;89,96351
1007,95; 5655,675;  210,750; 6310,867;89,25935
1008,50; 5564,521;  220,058; 6163,637;89,91996
1009,04; 5499,290;  213,904; 6098,944;89,81054
1009,59; 5400,444;  221,442; 5957,867;90,28274
1010,14; 5363,598;  191,673; 5891,252;90,74223
1010,68; 5254,290;  207,212; 5771,252;90,70888
1011,23; 5221,906;  197,750; 5694,021;91,41026
1011,78; 5214,137;  223,750; 5675,637;91,53504
1012,32; 5126,752;  219,519; 5556,406;91,94935
1012,87; 5129,752;  237,596; 5573,252;91,68799
1013,42; 5022,752;  199,442; 5415,175;92,47617
1013,96; 5062,752;  240,596; 5468,406;92,24046
1014,51; 4953,137;  174,827; 5382,252;91,75955
1015,06; 4926,906;  178,750; 5395,560;91,01647
1015,60; 5034,367;  247,904; 5456,098;91,90255
1016,15; 5008,060;  205,135; 5349,867;93,35616
1016,69; 5030,060;  217,904; 5406,867;92,73829
1017,24; 5046,521;  192,442; 5425,252;92,76238
1017,79; 5117,444;  235,288; 5460,329;93,43767
1018,33; 5078,983;  206,135; 5405,637;93,71759
1018,88; 5136,829;  215,904; 5491,944;93,26928
1019,42; 5145,137;  205,212; 5490,713;93,46180
1019,97; 5161,829;  199,288; 5490,713;93,78457
1020,51; 5226,598;  214,981; 5532,175;94,25304
1021,06; 5180,752;  189,596; 5509,406;93,82208
1021,61; 5207,752;  176,365; 5492,867;94,63716
1022,15; 5180,213;  166,827; 5424,098;95,36100
1022,70; 5188,598;  200,981; 5411,560;95,72098
1023,24; 5156,598;  200,904; 5396,790;95,37726
1023,79; 5146,444;  212,827; 5382,098;95,44126
1024,33; 5104,675;  202,750; 5292,867;96,30279
1024,88; 5026,829;  212,596; 5239,560;95,76821
1025,42; 4987,444;  201,058; 5147,713;96,76005
1025,97; 4921,598;  188,596; 5067,098;97,01753
1026,51; 4807,290;  174,596; 4978,713;96,43175
1027,06; 4743,137;  188,827; 4955,021;95,55443
1027,60; 4717,367;  212,827; 4867,560;96,77334
1028,15; 4661,598;  212,135; 4798,560;97,01376
1028,69; 4549,213;  172,365; 4661,790;97,49240
1029,24; 4520,367;  198,981; 4672,560;96,59797
1029,78; 4441,598;  192,750; 4575,867;96,93667
1030,33; 4356,675;  181,750; 4464,021;97,49324
1030,87; 4320,521;  195,750; 4402,098;98,06062
1031,42; 4258,060;  177,596; 4300,713;98,96550
1031,96; 4218,906;  197,288; 4315,098;97,66399
1032,51; 4161,675;  179,827; 4151,944;100,24498
1033,05; 4128,598;  209,442; 4159,483;99,21812
1033,60; 4065,675;  167,058; 4070,021;99,88864
1034,14; 3968,290;  207,673; 4019,175;98,66497
1034,69; 3967,137;  192,596; 4005,252;99,00029
1035,23; 3890,906;  204,827; 3916,560;99,30884
1035,77; 3850,598;  193,827; 3850,637;99,99895
1036,32; 3775,983;  172,058; 3798,098;99,39010
1036,86; 3757,983;  197,519; 3801,713;98,78667
1037,41; 3691,675;  211,442; 3708,560;99,51718
1037,95; 3623,137;  170,288; 3644,098;99,39658
1038,50; 3598,367;  186,288; 3604,098;99,83233
1039,04; 3570,060;  207,288; 3587,483;99,48455
1039,58; 3501,521;  181,596; 3475,560;100,78816
1040,13; 3452,367;  201,058; 3436,790;100,48140
1040,67; 3454,137;  211,365; 3463,867;99,70082
1041,21; 3392,137;  223,519; 3390,867;100,04007
1041,76; 3299,752;  186,750; 3317,944;99,41900
1042,30; 3279,367;  194,596; 3261,483;100,58315
1042,85; 3218,983;  186,596; 3224,021;99,83412
1043,39; 3182,213;  194,827; 3166,406;100,53196
1043,93; 3138,752;  197,981; 3149,406;99,63903
1044,48; 3080,598;  207,135; 3092,637;99,58279
1045,02; 3059,521;  190,904; 3006,637;101,87818
1045,56; 3038,060;  209,904; 3001,713;101,30189
1046,11; 2987,598;  200,904; 2952,483;101,27619
1046,65; 2931,829;  210,058; 2913,021;100,69582
1047,19; 2860,675;  185,904; 2861,790;99,95832
1047,74; 2840,983;  166,442; 2822,098;100,71111
1048,28; 2803,367;  197,904; 2795,329;100,30948
1048,82; 2798,060;  224,365; 2775,790;100,87282
1049,37; 2761,752;  205,596; 2728,560;101,31561
1049,91; 2711,829;  187,135; 2678,329;101,34474
1050,45; 2687,367;  212,135; 2654,560;101,34324
1050,99; 2607,829;  206,904; 2609,098;99,94716
1051,54; 2603,675;  191,135; 2561,637;101,77340
1052,08; 2601,137;  213,519; 2549,790;102,19778
1052,62; 2542,598;  210,212; 2515,483;101,17623
1053,16; 2470,521;  195,288; 2436,098;101,53619
1053,71; 2473,444;  205,519; 2442,560;101,38060
1054,25; 2474,060;  212,442; 2398,560;103,45361
1054,79; 2403,829;  209,673; 2365,944;101,75695
1055,33; 2335,137;  184,673; 2299,713;101,67482
1055,88; 2338,675;  217,519; 2303,021;101,70961
1056,42; 2320,290;  226,212; 2282,637;101,83103
1056,96; 2273,829;  215,904; 2247,329;101,30450
1057,50; 2253,983;  208,212; 2189,867;103,23545
1058,05; 2221,367;  202,673; 2140,790;104,15748
1058,59; 2221,752;  228,827; 2142,252;104,15485
1059,13; 2139,906;  194,442; 2083,021;103,01203
1059,67; 2146,060;  222,288; 2069,790;104,12824
1060,21; 2073,137;  213,058; 2047,560;101,39422
1060,76; 2072,213;  217,058; 2012,021;103,35340
1061,30; 2059,444;  229,904; 1992,329;103,80813
1061,84; 2015,752;  211,519; 1959,637;103,21005
1062,38; 1959,060;  196,212; 1909,098;102,91680
1062,92; 2002,137;  243,135; 1937,021;103,84414
1063,46; 1946,521;  224,596; 1890,713;103,34957
1064,01; 1906,444;  202,904; 1842,329;103,91085
1064,55; 1894,521;  216,519; 1838,867;103,43045
1065,09; 1821,521;  192,750; 1787,406;102,13936
1065,63; 1848,829;  241,365; 1806,790;102,68543
1066,17; 1842,137;  235,135; 1780,944;103,95859
1066,71; 1807,213;  223,135; 1753,713;103,49541
1067,25; 1754,060;  206,827; 1689,175;104,37715
1067,80; 1775,444;  227,673; 1721,867;103,58567
1068,34; 1750,213;  244,519; 1708,098;102,87756
1068,88; 1700,598;  207,212; 1638,098;104,36792
1069,42; 1733,983;  229,904; 1659,483;105,21133
1069,96; 1681,906;  205,212; 1611,713;104,99056
1070,50; 1709,675;  250,596; 1644,175;104,70013
1071,04; 1644,444;  203,750; 1569,021;105,52440
1071,58; 1637,829;  204,212; 1550,252;106,50626
1072,12; 1606,521;  206,519; 1546,252;104,49860
1072,66; 1600,213;  209,212; 1529,021;105,39413
1073,21; 1593,290;  226,981; 1530,867;104,78746
1073,75; 1550,983;  219,519; 1487,021;105,04627
1074,29; 1536,906;  226,673; 1493,252;103,44660
1074,83; 1546,137;  230,596; 1469,175;106,21370
1075,37; 1520,213;  233,981; 1451,713;105,62521
1075,91; 1516,060;  228,673; 1441,406;106,15584
1076,45; 1496,137;  227,212; 1416,944;106,65631
1076,99; 1470,598;  230,904; 1405,483;105,54372
1077,53; 1431,521;  198,750; 1384,483;103,96704
1078,07; 1436,598;  229,058; 1357,790;106,98196
1078,61; 1432,521;  218,058; 1341,098;108,14068
1079,15; 1400,829;  217,904; 1332,098;106,16865
1079,69; 1378,906;  222,058; 1328,021;104,60093
1080,23; 1383,829;  239,981; 1318,867;106,02116
1080,77; 1393,213;  252,827; 1317,560;107,10543
1081,31; 1329,983;  203,442; 1253,483;107,28543
1081,85; 1337,598;  228,519; 1263,637;107,14523
1082,39; 1294,213;  203,981; 1244,560;104,77175
1082,93; 1289,137;  218,750; 1207,098;108,30056
1083,47; 1254,290;  198,981; 1203,329;105,07409
1084,01; 1286,444;  232,827; 1220,252;106,70353
1084,55; 1251,213;  199,288; 1179,406;107,32644
1085,09; 1247,521;  228,904; 1190,637;105,91481
1085,63; 1231,137;  218,981; 1170,483;106,37454
1086,17; 1190,137;  202,981; 1149,021;104,34605
1086,71; 1190,137;  211,442; 1134,944;105,97642
1087,24; 1219,290;  234,596; 1152,713;107,25146
1087,78; 1174,906;  222,596; 1117,560;106,40765
1088,32; 1135,444;  203,827; 1080,098;106,31610
1088,86; 1155,213;  228,442; 1107,483;105,42987
1089,40; 1119,060;  216,981; 1070,637;105,67244
1089,94; 1097,137;  194,750; 1035,637;107,31371
1090,48; 1094,752;  224,827; 1033,637;107,55621
1091,02; 1087,983;  229,135; 1045,329;105,22594
1091,56; 1085,906;  219,442; 1025,944;107,43477
1092,10; 1048,290;  200,827; 1002,406;105,72428
1092,63; 1088,444;  240,288; 1024,098;108,20941
1093,17; 1062,829;  233,058; 1004,252;107,59561
1093,71; 1039,829;  215,288;  978,637;108,01630
1094,25; 1026,290;  248,212;  995,483;104,12269
1094,79;  998,290;  215,288;  960,713;105,04101
1095,33; 1002,290;  221,212;  940,483;108,59310
1095,87;  973,829;  224,673;  936,021;105,31494
1096,40;  952,290;  193,904;  896,329;107,96691
1096,94;  958,675;  227,288;  933,175;103,61248
1097,48;  977,983;  226,135;  905,021;110,74724
1098,02;  932,213;  217,519;  903,175;104,23514
1098,56;  898,213;  192,673;  853,713;106,73181
1099,10;  897,752;  200,519;  861,483;105,48733
1099,63;  882,983;  192,365;  840,098;106,62073
1100,17;  892,137;  229,904;  861,483;104,85353
1100,71;  925,829;  232,596;  868,329;109,04468

