
Integration time [ms]: 150,000
Averaging Nr. [scans]: 13
Smoothing Nr. [pixels]: 0
Data measured with spectrometer [name]: 2009305U1
Wave   ;Sample   ;Dark     ;Reference;Reflectance
[nm]   ;[counts] ;[counts] ;[counts] ;[%]

 175,72;  212,971;  213,942;  232,391;-5,26642
 176,32;  243,262;  248,562;  239,245; 0,00000
 176,92;  292,213;  283,713;  284,805;778,18721
 177,52;  271,355;  263,481;  288,463;31,51638
 178,12;  272,249;  258,638;  259,823;1148,64535
 178,72;  282,082;  287,793;  280,469; 0,00000
 179,32;  273,249;  285,408;  267,745; 0,00000
 179,92;  278,212;  275,791;  268,795; 0,00000
 180,52;  266,062;  256,325;  272,061;61,87710
 181,12;  275,392;  274,252;  289,721; 7,36793
 181,73;  297,943;  302,098;  302,762; 0,00000
 182,33;  412,343;  411,173;  406,971; 0,00000
 182,93;  296,380;  293,097;  294,847;187,62636
 183,53;  253,761;  259,948;  249,810; 0,00000
 184,13;  251,966;  259,332;  248,661; 0,00000
 184,73;  315,145;  314,025;  313,345; 0,00000
 185,33;  281,946;  254,895;  344,858;30,06916
 185,93;  282,610;  268,436;  359,913;15,49478
 186,53;  302,407;  274,666;  381,617;25,93793
 187,13;  313,101;  285,970;  414,333;21,13641
 187,73;  301,521;  262,974;  373,416;34,90220
 188,33;  292,212;  249,284;  379,789;32,89401
 188,93;  301,259;  282,673;  384,519;18,24888
 189,53;  295,576;  265,370;  380,835;26,16080
 190,13;  338,635;  301,453;  437,825;27,26528
 190,73;  275,472;  245,679;  384,820;21,41200
 191,34;  311,514;  279,444;  409,815;24,59910
 191,94;  290,018;  263,439;  370,276;24,87829
 192,54;  284,975;  255,737;  399,966;20,27200
 193,14;  313,755;  288,047;  387,600;25,82320
 193,74;  306,793;  296,202;  379,404;12,72969
 194,34;  305,704;  272,354;  392,221;27,82263
 194,94;  264,473;  250,278;  345,600;14,89150
 195,54;  245,536;  229,741;  336,398;14,80923
 196,14;  259,090;  246,661;  343,765;12,79896
 196,74;  265,510;  250,434;  354,623;14,46966
 197,34;  242,681;  216,429;  347,856;19,97469
 197,94;  268,563;  241,201;  367,795;21,61409
 198,54;  279,615;  253,200;  382,880;20,36964
 199,14;  259,489;  227,043;  362,749;23,90942
 199,74;  239,464;  217,966;  353,672;15,84144
 200,34;  234,977;  216,427;  355,290;13,35832
 200,94;  276,937;  255,891;  406,391;13,98417
 201,54;  263,784;  232,120;  402,629;18,56996
 202,14;  305,811;  282,811;  452,335;13,56739
 202,74;  260,938;  229,889;  425,863;15,84333
 203,34;  245,235;  212,733;  417,845;15,84614
 203,94;  220,606;  190,041;  432,337;12,61459
 204,54;  302,704;  250,816;  504,220;20,47650
 205,14;  248,400;  224,735;  505,171; 8,43840
 205,74;  306,979;  266,041;  591,229;12,58904
 206,34;  264,285;  210,426;  593,142;14,07281
 206,94;  269,721;  235,042;  631,831; 8,73980
 207,54;  245,836;  202,119;  644,718; 9,87746
 208,14;  264,029;  222,503;  714,144; 8,44640
 208,74;  256,797;  218,889;  754,132; 7,08233
 209,34;  272,131;  212,581;  808,442; 9,99383
 209,94;  279,784;  238,274;  890,249; 6,36690
 210,54;  289,991;  222,657;  966,494; 9,05231
 211,14;  293,374;  227,582; 1025,633; 8,24414
 211,73;  300,873;  228,121; 1111,974; 8,23132
 212,33;  309,424;  248,275; 1188,775; 6,50172
 212,93;  303,387;  234,120; 1272,131; 6,67299
 213,53;  279,002;  200,889; 1281,363; 7,22950
 214,13;  304,249;  218,193; 1379,045; 7,41314
 214,73;  288,580;  199,042; 1377,951; 7,59503
 215,33;  281,784;  194,966; 1390,403; 7,26248
 215,93;  327,235;  224,887; 1496,612; 8,04797
 216,53;  285,579;  186,428; 1531,015; 7,37407
 217,13;  357,029;  232,733; 1687,840; 8,54206
 217,73;  356,953;  210,579; 1839,536; 8,98574
 218,33;  317,736;  175,808; 1944,509; 8,02442
 218,93;  373,123;  212,421; 2182,917; 8,15544
 219,53;  406,711;  216,962; 2401,433; 8,68625
 220,13;  390,686;  168,115; 2581,899; 9,22080
 220,73;  432,887;  202,504; 2851,019; 8,69856
 221,32;  486,105;  201,274; 3120,286; 9,75778
 221,92;  497,365;  213,808; 3428,167; 8,82158
 222,52;  520,786;  194,733; 3717,576; 9,25541
 223,12;  560,094;  200,502; 4022,269; 9,40906
 223,72;  600,761;  204,348; 4372,501; 9,51052
 224,32;  646,325;  220,194; 4616,964; 9,69192
 224,92;  653,300;  195,194; 4835,348; 9,87264
 225,52;  713,926;  219,427; 5110,293;10,11067
 226,12;  705,888;  199,580; 5350,032; 9,83038
 226,72;  743,004;  174,734; 5553,453;10,56515
 227,31;  769,209;  161,734; 5830,376;10,71641
 227,91;  842,503;  223,966; 6177,329;10,38971
 228,51;  875,732;  185,737; 6407,624;11,08981
 229,11;  916,862;  199,734; 6726,183;10,98804
 229,71;  970,771;  185,966; 6921,669;11,65142
 230,31;  980,813;  179,270; 7217,584;11,38828
 230,91; 1017,436;  179,353; 7438,424;11,54533
 231,51; 1093,081;  184,425; 7630,921;12,20246
 232,10; 1137,839;  185,808; 7920,663;12,30832
 232,70; 1186,935;  201,585; 8050,067;12,55466
 233,30; 1236,081;  215,349; 8212,688;12,76340
 233,90; 1255,748;  193,887; 8357,534;13,00718
 234,50; 1300,607;  191,348; 8338,267;13,61568
 235,10; 1329,992;  188,578; 8361,810;13,96526
 235,70; 1392,208;  215,581; 8439,675;14,30707
 236,29; 1397,451;  200,120; 8272,400;14,83262
 236,89; 1356,937;  174,968; 8134,388;14,84993
 237,49; 1411,568;  209,733; 8099,993;15,23187
 238,09; 1390,670;  191,119; 7834,758;15,69346
 238,69; 1450,756;  244,892; 7651,380;16,28119
 239,29; 1395,106;  194,888; 7392,371;16,67552
 239,89; 1380,347;  201,506; 7129,926;17,01456
 240,48; 1337,721;  185,042; 6781,450;17,47435
 241,08; 1311,234;  193,735; 6490,908;17,74604
 241,68; 1321,170;  218,657; 6241,874;18,30439
 242,28; 1276,017;  180,579; 5954,187;18,97319
 242,88; 1297,762;  238,732; 5729,199;19,28852
 243,48; 1279,440;  232,272; 5513,531;19,82799
 244,07; 1220,169;  213,889; 5315,560;19,72453
 244,67; 1227,901;  210,888; 5200,991;20,38061
 245,27; 1207,335;  218,351; 5068,512;20,39074
 245,87; 1205,736;  228,809; 5047,813;20,27238
 246,47; 1213,284;  209,044; 4990,205;21,00410
 247,06; 1209,631;  195,273; 4988,255;21,16341
 247,66; 1215,388;  199,734; 5045,375;20,96016
 248,26; 1273,604;  218,736; 5147,014;21,40440
 248,86; 1298,156;  217,351; 5321,282;21,17592
 249,46; 1285,261;  157,348; 5440,689;21,34847
 250,05; 1392,542;  214,503; 5738,680;21,32514
 250,65; 1411,232;  184,429; 5969,510;21,20633
 251,25; 1472,990;  197,889; 6357,869;20,69976
 251,85; 1571,462;  213,276; 6812,734;20,58027
 252,44; 1663,848;  184,659; 7249,516;20,93729
 253,04; 1774,656;  215,889; 7818,327;20,50352
 253,64; 1859,040;  169,044; 8404,469;20,52105
 254,24; 2009,952;  214,196; 9168,218;20,05530
 254,84; 2132,414;  185,887; 9921,228;19,99445
 255,43; 2302,656;  196,120;10750,633;19,95863
 256,03; 2437,655;  192,352;11606,163;19,67181
 256,63; 2591,372;  206,045;12400,234;19,56118
 257,23; 2716,873;  186,506;13216,811;19,41909
 257,82; 2900,936;  206,431;14106,224;19,38521
 258,42; 3014,743;  157,278;14919,565;19,35652
 259,02; 3184,669;  217,504;15677,903;19,19203
 259,62; 3264,973;  192,894;16358,485;19,00382
 260,21; 3390,400;  210,120;16988,555;18,95457
 260,81; 3466,093;  194,580;17427,877;18,98368
 261,41; 3529,781;  174,585;17907,684;18,92053
 262,01; 3644,139;  227,433;18314,057;18,89079
 262,60; 3637,257;  178,660;18710,427;18,66307
 263,20; 3718,117;  185,890;19121,858;18,65353
 263,80; 3762,075;  223,663;19337,865;18,51195
 264,40; 3772,704;  173,894;19593,059;18,53226
 264,99; 3826,613;  213,356;19766,863;18,47882
 265,59; 3846,996;  189,435;19883,310;18,57208
 266,19; 3864,742;  192,586;20100,326;18,44587
 266,78; 3941,600;  232,818;20275,972;18,50398
 267,38; 3909,304;  204,280;20331,852;18,40771
 267,98; 3879,241;  201,664;20347,819;18,25448
 268,58; 3893,356;  206,127;20373,698;18,28296
 269,17; 3861,829;  197,205;20470,340;18,07626
 269,77; 3861,705;  201,507;20310,845;18,20149
 270,37; 3801,318;  163,587;20130,593;18,21871
 270,96; 3869,846;  234,969;20224,724;18,18370
 271,56; 3782,347;  198,276;19928,464;18,16542
 272,16; 3751,410;  194,200;19783,490;18,15895
 272,75; 3734,448;  191,354;19749,068;18,11609
 273,35; 3730,936;  205,123;19603,610;18,17571
 273,95; 3699,192;  203,200;19589,915;18,03292
 274,54; 3673,939;  184,427;19713,410;17,86838
 275,14; 3780,872;  219,738;20045,880;17,96181
 275,74; 3728,217;  175,893;19968,529;17,94771
 276,33; 3863,282;  228,661;20344,883;18,06811
 276,93; 3891,709;  199,734;20646,721;18,05633
 277,53; 3933,887;  199,197;20999,862;17,95466
 278,12; 3985,245;  174,968;21460,082;17,90113
 278,72; 4194,104;  255,582;21988,591;18,12231
 279,32; 4235,861;  197,736;22420,475;18,17114
 279,91; 4348,014;  186,813;22956,548;18,27514
 280,51; 4488,515;  190,351;23409,978;18,51091
 281,11; 4616,527;  194,121;23992,394;18,58289
 281,70; 4675,168;  174,506;24405,547;18,57395
 282,30; 4874,193;  188,737;24945,233;18,92617
 282,90; 4942,616;  186,276;25231,041;18,99135
 283,49; 5114,602;  213,892;25761,610;19,18257
 284,09; 5264,424;  229,583;26079,930;19,47688
 284,69; 5436,925;  229,967;26439,436;19,86671
 285,28; 5509,065;  211,352;26775,853;19,94283
 285,88; 5693,140;  274,970;26939,836;20,31951
 286,47; 5742,334;  205,891;27004,886;20,65914
 287,07; 5868,502;  225,274;27049,551;21,03776
 287,67; 6050,209;  225,195;27202,685;21,59213
 288,26; 6174,502;  186,582;27102,628;22,24665
 288,86; 6314,001;  187,891;27191,277;22,68645
 289,46; 6555,040;  214,505;27293,857;23,41465
 290,05; 6764,862;  191,350;27370,022;24,18629
 290,65; 7024,744;  204,353;27556,115;24,93584
 291,24; 7265,451;  205,043;27630,937;25,74358
 291,84; 7468,065;  212,430;27732,464;26,36492
 292,44; 7698,876;  204,349;27752,918;27,20478
 293,03; 8055,438;  282,582;28043,745;27,99903
 293,63; 8167,436;  187,199;28143,117;28,54579
 294,22; 8479,155;  223,583;28296,048;29,40808
 294,82; 8567,793;  194,432;28317,253;29,77426
 295,41; 8664,168;  181,890;28083,700;30,40046
 296,01; 8815,243;  237,201;28096,142;30,79098
 296,61; 8904,156;  232,890;27923,821;31,31446
 297,20; 8843,948;  202,047;27461,720;31,70214
 297,80; 8995,003;  224,734;27448,525;32,21546
 298,39; 8934,770;  191,430;27120,118;32,46850
 298,99; 8967,179;  238,431;27050,417;32,55540
 299,58; 8959,388;  222,195;26883,144;32,77150
 300,18; 8978,362;  229,273;26738,677;33,00372
 300,78; 8901,682;  198,812;26411,633;33,20081
 301,37; 8938,934;  217,587;26374,822;33,34200
 301,97; 8956,014;  216,429;26462,857;33,29819
 302,56; 8969,808;  202,968;26361,078;33,51481
 303,16; 8964,333;  183,969;26230,113;33,71080
 303,75; 8955,797;  196,735;26281,135;33,57970
 304,35; 9092,876;  187,579;26493,154;33,85327
 304,94; 9091,027;  195,813;26507,819;33,80667
 305,54; 9087,489;  211,197;26480,593;33,78948
 306,13; 9045,915;  168,117;26435,270;33,79810
 306,73; 8973,068;  167,656;26274,725;33,72807
 307,33; 8973,619;  214,734;26205,376;33,70015
 307,92; 9028,540;  212,736;26265,361;33,83845
 308,52; 9100,449;  187,277;26595,919;33,75097
 309,11; 9225,678;  203,278;27114,294;33,52679
 309,71; 9306,460;  181,048;27312,404;33,63419
 310,30; 9369,886;  183,505;27535,013;33,58638
 310,90; 9503,502;  237,813;27768,090;33,65636
 311,49; 9492,899;  211,121;27941,666;33,47132
 312,09; 9513,695;  158,042;28080,139;33,50627
 312,68; 9692,541;  272,659;28453,748;33,42625
 313,28; 9630,694;  183,813;28570,668;33,27907
 313,87; 9566,630;  168,813;28691,474;32,94860
 314,47; 9696,038;  197,508;28880,144;33,11596
 315,06; 9660,758;  184,505;29022,169;32,86068
 315,66; 9703,695;  184,273;29287,908;32,70871
 316,25; 9614,013;  161,738;29046,383;32,72422
 316,85; 9610,298;  157,042;29132,485;32,62506
 317,44; 9599,037;  192,432;29362,911;32,24700
 318,04; 9516,488;  173,045;29264,041;32,11799
 318,63; 9450,619;  162,118;29361,379;31,81074
 319,22; 9448,680;  190,968;29467,076;31,62207
 319,82; 9392,911;  196,737;29597,083;31,27914
 320,41; 9340,488;  213,353;29530,808;31,13208
 321,01; 9358,964;  212,427;29689,791;31,02902
 321,60; 9303,770;  206,814;29706,584;30,83738
 322,20; 9137,092;  179,890;29680,092;30,36319
 322,79; 9191,925;  217,966;29699,284;30,43948
 323,39; 9105,902;  187,271;29847,921;30,06890
 323,98; 8989,643;  181,428;29806,670;29,73213
 324,58; 8925,077;  186,200;29699,958;29,60950
 325,17; 8854,654;  196,199;29622,153;29,42455
 325,76; 8721,399;  207,582;29630,781;28,93573
 326,36; 8543,618;  187,581;29222,829;28,77894
 326,95; 8446,501;  223,506;29064,392;28,51159
 327,55; 8291,988;  181,275;28815,775;28,32497
 328,14; 8127,939;  175,273;28463,180;28,11331
 328,74; 8010,064;  220,815;28041,923;27,99763
 329,33; 7874,618;  208,043;27790,675;27,79494
 329,92; 7672,768;  169,124;27269,257;27,68859
 330,52; 7463,837;  209,349;26750,874;27,33259
 331,11; 7313,860;  186,506;26357,545;27,23374
 331,71; 7140,091;  184,583;25920,241;27,02674
 332,30; 6987,873;  204,967;25450,434;26,86782
 332,89; 6863,554;  270,427;25062,635;26,59354
 333,49; 6638,360;  205,814;24569,585;26,40210
 334,08; 6461,591;  193,122;24255,736;26,05066
 334,68; 6292,321;  192,968;23878,852;25,75101
 335,27; 6213,375;  204,657;23597,646;25,68598
 335,86; 6160,398;  267,198;23330,776;25,55198
 336,46; 6030,081;  219,041;23089,223;25,40880
 337,05; 5878,219;  187,814;22964,391;24,98358
 337,65; 5806,796;  177,122;22873,967;24,80377
 338,24; 5827,143;  237,351;22794,093;24,78103
 338,83; 5768,143;  212,889;22743,478;24,65650
 339,43; 5636,334;  186,584;22695,499;24,21152
 340,02; 5595,128;  195,430;22572,882;24,13008
 340,61; 5574,207;  208,274;22608,053;23,95529
 341,21; 5525,988;  233,507;22675,846;23,58257
 341,80; 5553,488;  211,583;22645,813;23,81140
 342,40; 5460,298;  204,734;22704,721;23,35808
 342,99; 5468,169;  199,350;22802,481;23,31013
 343,58; 5454,772;  202,812;22941,367;23,09716
 344,18; 5501,400;  226,119;23014,638;23,14885
 344,77; 5489,321;  189,430;23305,459;22,92734
 345,36; 5498,732;  181,275;23620,623;22,68603
 345,96; 5552,490;  224,196;23867,521;22,53614
 346,55; 5535,145;  195,964;24027,576;22,40378
 347,14; 5589,260;  186,272;24316,452;22,39100
 347,74; 5623,493;  172,346;24672,474;22,24946
 348,33; 5744,454;  205,885;25204,741;22,15529
 348,92; 5809,481;  219,115;25709,443;21,93132
 349,52; 5902,250;  180,038;26172,362;22,01501
 350,11; 5982,538;  191,277;26345,265;22,14294
 350,70; 5908,399;  208,351;26517,553;21,66561
 351,29; 5834,497;  184,895;26275,357;21,65390
 351,89; 5850,281;  230,893;26317,871;21,54097
 352,48; 5828,284;  187,120;26263,976;21,63284
 353,07; 5826,068;  237,426;26233,108;21,49835
 353,67; 5795,353;  229,191;26088,368;21,52490
 354,26; 5703,888;  210,118;25981,875;21,31702
 354,85; 5679,259;  231,350;25943,832;21,18780
 355,45; 5600,219;  189,968;25704,619;21,20449
 356,04; 5582,312;  215,964;25688,609;21,06710
 356,63; 5570,976;  253,967;25533,278;21,03304
 357,22; 5477,588;  220,894;25399,401;20,87770
 357,82; 5435,409;  214,509;25097,329;20,98194
 358,41; 5444,373;  243,967;25158,396;20,87307
 359,00; 5395,885;  210,969;24921,461;20,98265
 359,60; 5356,746;  234,197;24962,439;20,71538
 360,19; 5390,530;  245,579;24788,803;20,96281
 360,78; 5362,462;  219,045;24602,428;21,09395
 361,37; 5287,206;  223,275;24406,737;20,93964
 361,97; 5314,373;  228,813;24367,164;21,06838
 362,56; 5235,013;  222,123;24060,995;21,02822
 363,15; 5280,501;  294,737;23957,851;21,06977
 363,74; 5156,717;  237,662;23645,721;21,01437
 364,34; 5122,590;  239,738;23324,576;21,15177
 364,93; 5041,282;  217,892;22939,109;21,22857
 365,52; 4932,245;  192,891;22602,468;21,14879
 366,11; 4936,513;  226,969;22335,961;21,30149
 366,71; 4879,218;  214,430;22013,384;21,39914
 367,30; 4880,552;  222,352;21647,546;21,74170
 367,89; 4816,964;  268,658;21460,408;21,46263
 368,48; 4782,435;  251,200;21201,799;21,62819
 369,07; 4709,399;  229,505;20829,245;21,74733
 369,67; 4725,051;  260,277;20648,878;21,89838
 370,26; 4648,271;  220,736;20376,785;21,96629
 370,85; 4631,232;  234,506;20121,968;22,10803
 371,44; 4605,835;  241,813;19945,086;22,14871
 372,03; 4553,064;  208,353;19773,307;22,20660
 372,63; 4548,565;  193,660;19517,739;22,53616
 373,22; 4497,874;  224,967;19254,975;22,45352
 373,81; 4494,296;  201,121;18988,468;22,85141
 374,40; 4463,337;  219,196;18787,296;22,85716
 374,99; 4459,052;  226,122;18529,273;23,12678
 375,59; 4433,400;  208,273;18256,718;23,40993
 376,18; 4441,706;  242,660;18162,390;23,43253
 376,77; 4464,681;  245,121;18035,472;23,71825
 377,36; 4456,347;  258,506;17921,314;23,76656
 377,95; 4451,936;  244,507;17660,616;24,15826
 378,55; 4429,349;  228,119;17528,406;24,28416
 379,14; 4475,027;  253,506;17506,891;24,46778
 379,73; 4455,962;  232,507;17369,001;24,64597
 380,32; 4530,617;  233,890;17444,048;24,96622
 380,91; 4522,115;  207,662;17259,454;25,30205
 381,50; 4535,833;  234,123;17212,303;25,33670
 382,10; 4536,078;  226,198;17167,125;25,44064
 382,69; 4576,450;  213,891;17171,775;25,72584
 383,28; 4611,680;  251,969;17107,921;25,86452
 383,87; 4649,346;  207,430;16945,459;26,53787
 384,46; 4679,601;  205,663;16872,676;26,84307
 385,05; 4732,359;  237,277;16895,573;26,98405
 385,64; 4766,282;  232,353;16911,884;27,18259
 386,24; 4755,422;  203,740;16868,829;27,31268
 386,83; 4886,870;  244,125;16846,250;27,96476
 387,42; 4948,847;  249,507;16948,577;28,14132
 388,01; 5052,330;  254,819;17102,084;28,47650
 388,60; 5164,922;  235,124;17268,178;28,94254
 389,19; 5227,854;  233,129;17501,568;28,92401
 389,78; 5370,008;  226,359;17678,726;29,47250
 390,37; 5587,690;  311,433;18122,707;29,62313
 390,96; 5669,486;  241,971;18184,944;30,24869
 391,56; 5730,892;  251,129;18253,601;30,43895
 392,15; 5832,368;  231,743;18501,421;30,65530
 392,74; 5899,685;  210,901;18682,579;30,79733
 393,33; 6049,546;  246,206;18928,329;31,06360
 393,92; 6237,209;  243,826;19316,299;31,42426
 394,51; 6334,994;  231,899;19480,521;31,70666
 395,10; 6495,475;  280,138;19635,383;32,11190
 395,69; 6571,604;  263,137;19766,542;32,34546
 396,28; 6715,730;  269,678;19821,217;32,96954
 396,87; 6748,329;  276,297;19937,458;32,91786
 397,46; 6857,879;  278,069;20023,477;33,32324
 398,06; 6973,453;  290,841;20210,492;33,54784
 398,65; 7061,139;  282,310;20211,051;34,01534
 399,24; 7171,100;  309,619;20402,464;34,14888
 399,83; 7236,116;  277,169;20340,226;34,68538
 400,42; 7390,031;  328,255;20560,997;34,90271
 401,01; 7421,932;  292,190;20641,873;35,03613
 401,60; 7546,266;  321,513;20678,949;35,48950
 402,19; 7607,474;  344,602;20641,510;35,78314
 402,78; 7702,458;  338,852;20613,213;36,31980
 403,37; 7737,174;  315,485;20529,885;36,71486
 403,96; 7687,580;  326,967;20384,918;36,69673
 404,55; 7758,894;  344,144;20347,433;37,06765
 405,14; 7752,851;  310,166;20218,735;37,38433
 405,73; 7797,998;  333,421;20178,585;37,61408
 406,32; 7898,766;  339,438;20154,650;38,14911
 406,91; 7815,942;  324,611;19866,927;38,33390
 407,50; 7872,678;  338,929;19721,621;38,86844
 408,09; 7851,352;  311,397;19460,606;39,37476
 408,68; 7824,732;  306,633;19344,030;39,49121
 409,27; 7830,673;  306,165;19181,040;39,86521
 409,86; 7862,314;  319,458;19099,654;40,16388
 410,45; 7899,901;  366,060;19034,327;40,35640
 411,04; 7965,463;  355,047;18942,772;40,94323
 411,63; 7856,464;  330,800;18759,861;40,83585
 412,22; 7916,938;  337,554;18649,055;41,39139
 412,81; 7833,750;  360,625;18362,441;41,51317
 413,40; 7832,474;  356,234;18048,340;42,25749
 413,99; 7773,293;  416,236;17831,555;42,24474
 414,58; 7630,871;  342,465;17567,988;42,31166
 415,17; 7616,263;  335,548;17373,903;42,73132
 415,76; 7570,733;  324,477;17144,896;43,08011
 416,35; 7539,889;  321,628;16976,996;43,33894
 416,94; 7625,939;  356,476;16937,137;43,84302
 417,53; 7808,148;  329,855;17167,945;44,41295
 418,12; 7839,803;  331,239;17215,533;44,47070
 418,71; 8044,730;  361,772;17548,188;44,70367
 419,30; 8126,611;  323,854;17690,037;44,93076
 419,89; 8235,266;  319,775;17790,546;45,30705
 420,48; 8400,564;  343,464;18010,919;45,60419
 421,07; 8475,565;  342,386;18116,313;45,75904
 421,66; 8532,196;  314,152;18093,606;46,22214
 422,25; 8620,136;  335,838;18142,382;46,52390
 422,84; 8587,830;  341,299;18160,700;46,27839
 423,43; 8500,430;  329,609;17886,718;46,53853
 424,02; 8483,431;  356,608;17737,342;46,75765
 424,60; 8337,078;  320,601;17411,167;46,90586
 425,19; 8303,806;  332,450;17129,792;47,45605
 425,78; 8296,396;  342,989;17028,026;47,66790
 426,37; 8284,565;  351,601;16867,315;48,03282
 426,96; 8275,847;  333,755;16799,931;48,23276
 427,55; 8254,594;  320,905;16661,577;48,55179
 428,14; 8186,711;  316,057;16449,245;48,78548
 428,73; 8144,439;  318,214;16369,411;48,75789
 429,32; 8179,500;  338,217;16320,889;49,06115
 429,91; 8237,003;  341,060;16369,798;49,26117
 430,50; 8198,864;  347,981;16137,160;49,72319
 431,08; 8168,314;  349,287;16017,676;49,90320
 431,67; 8208,649;  386,208;15979,767;50,16456
 432,26; 8160,176;  400,591;15853,204;50,21536
 432,85; 8057,868;  429,130;15592,354;50,31079
 433,44; 7940,191;  439,050;15364,413;50,25768
 434,03; 7838,335;  458,200;14998,865;50,75514
 434,62; 7608,614;  409,588;14610,684;50,69345
 435,21; 7561,330;  417,745;14402,049;51,08288
 435,79; 7510,206;  420,278;14308,624;51,04947
 436,38; 7495,798;  404,967;14228,421;51,29566
 436,97; 7435,119;  412,274;14135,694;51,17416
 437,56; 7375,252;  402,346;13922,198;51,57532
 438,15; 7352,635;  382,193;13861,187;51,71337
 438,74; 7409,149;  421,269;13872,037;51,95153
 439,33; 7420,622;  387,886;13874,993;52,14415
 439,91; 7429,048;  352,037;13906,896;52,21014
 440,50; 7536,355;  396,037;13936,821;52,73194
 441,09; 7570,204;  393,495;14099,999;52,35988
 441,68; 7532,322;  365,184;14044,600;52,39360
 442,27; 7604,308;  354,801;14012,552;53,07980
 442,86; 7571,878;  337,717;14054,835;52,73820
 443,44; 7648,749;  351,872;14048,363;53,27552
 444,03; 7745,929;  435,948;14172,528;53,21544
 444,62; 7634,917;  348,332;14033,720;53,24353
 445,21; 7586,070;  369,179;13903,483;53,32295
 445,80; 7573,009;  412,406;13780,397;53,56529
 446,39; 7481,175;  453,868;13664,584;53,19399
 446,97; 7356,102;  351,710;13414,540;53,62078
 447,56; 7306,950;  367,476;13310,333;53,61625
 448,15; 7199,191;  370,634;13068,578;53,77688
 448,74; 7109,179;  382,479;12892,158;53,77196
 449,33; 7063,181;  369,015;12755,406;54,04452
 449,91; 6952,761;  367,242;12602,550;53,82389
 450,50; 6842,068;  367,243;12393,082;53,84094
 451,09; 6857,248;  383,935;12337,547;54,15361
 451,68; 6798,262;  391,857;12262,290;53,96943
 452,26; 6761,455;  397,470;12157,571;54,11505
 452,85; 6682,929;  379,010;12043,294;54,04463
 453,44; 6740,241;  381,928;12083,332;54,33803
 454,03; 6687,507;  359,239;12007,425;54,32836
 454,61; 6659,023;  367,081;12032,681;53,93586
 455,20; 6752,088;  384,387;12156,194;54,09281
 455,79; 6813,445;  396,775;12106,479;54,79788
 456,38; 6831,950;  396,462;12250,868;54,28773
 456,97; 6873,423;  396,463;12316,516;54,33668
 457,55; 6824,822;  390,845;12304,032;54,00719
 458,14; 6860,359;  412,463;12335,087;54,08118
 458,73; 6837,989;  392,691;12223,457;54,47913
 459,31; 6836,992;  426,534;12280,096;54,08044
 459,90; 6895,785;  452,151;12332,852;54,23614
 460,49; 6999,849;  509,613;12401,730;54,57595
 461,08; 6937,442;  408,686;12437,299;54,27688
 461,66; 7002,094;  402,073;12567,249;54,25340
 462,25; 6996,840;  403,454;12588,117;54,11217
 462,84; 7022,993;  421,609;12620,187;54,11602
 463,43; 6960,138;  370,220;12623,412;53,78123
 464,01; 7015,088;  405,757;12604,885;54,17872
 464,60; 7016,778;  464,529;12571,250;54,12076
 465,19; 6865,358;  388,756;12424,545;53,81119
 465,77; 6829,244;  412,678;12357,058;53,72038
 466,36; 6839,997;  434,912;12289,374;54,03101
 466,95; 6653,972;  414,297;11978,223;53,95810
 467,53; 6540,322;  422,137;11800,226;53,77164
 468,12; 6439,361;  447,752;11551,114;53,96212
 468,71; 6292,397;  416,679;11336,125;53,80967
 469,29; 6136,823;  400,367;11156,963;53,32966
 469,88; 6028,747;  411,212;10905,358;53,53018
 470,47; 6083,762;  467,978;10985,802;53,39302
 471,06; 6037,750;  424,055;10981,688;53,17190
 471,64; 6029,082;  434,748;11044,220;52,72962
 472,23; 6048,074;  408,512;11059,378;52,94933
 472,81; 6102,944;  387,130;11144,820;53,13235
 473,40; 6122,100;  404,358;11217,533;52,87755
 473,99; 6324,202;  526,358;11501,918;52,82505
 474,57; 6287,112;  409,050;11461,339;53,18411
 475,16; 6317,406;  438,360;11615,363;52,59948
 475,75; 6388,742;  463,433;11776,086;52,37772
 476,33; 6432,719;  448,354;11858,873;52,44604
 476,92; 6442,177;  454,665;11859,229;52,50102
 477,51; 6468,256;  440,201;11910,096;52,55545
 478,09; 6470,846;  442,124;11997,173;52,17392
 478,68; 6458,578;  449,738;11893,834;52,50602
 479,27; 6456,409;  494,740;11953,318;52,02800
 479,85; 6428,065;  450,508;11934,602;52,05075
 480,44; 6438,066;  427,507;11975,918;52,04663
 481,02; 6951,144;  460,120;12981,625;51,83901
 481,61; 7851,669;  469,352;14708,811;51,84409
 482,20; 8352,054;  455,043;15763,510;51,58591
 482,78; 8788,988;  489,969;16530,068;51,73920
 483,37; 9065,018;  464,886;17014,725;51,96505
 483,95; 9151,865;  508,963;17232,883;51,67988
 484,54; 9205,887;  502,968;17411,462;51,47069
 485,13; 9153,046;  467,037;17426,056;51,21764
 485,71; 9050,007;  455,115;17141,241;51,50921
 486,30; 8937,828;  486,269;16955,550;51,31711
 486,88; 8780,200;  554,653;16693,670;50,96684
 487,47; 8482,419;  499,190;16195,867;50,85935
 488,05; 8111,894;  506,497;15427,606;50,97072
 488,64; 7540,204;  474,341;14376,701;50,82492
 489,23; 6848,292;  500,573;12963,572;50,93251
 489,81; 5813,767;  502,803;11066,539;50,27543
 490,40; 5427,203;  458,649;10354,466;50,20863
 490,98; 5292,563;  436,725;10124,396;50,12389
 491,57; 5224,497;  462,496;10027,959;49,78328
 492,15; 5171,845;  447,802; 9917,861;49,88399
 492,74; 5140,702;  448,881; 9902,800;49,62831
 493,32; 5100,768;  469,802; 9814,395;49,55770
 493,91; 5009,500;  449,570; 9728,293;49,14394
 494,50; 4981,939;  446,258; 9679,862;49,12146
 495,08; 4945,221;  428,643; 9633,014;49,06993
 495,67; 4980,487;  472,185; 9578,252;49,50877
 496,25; 4863,886;  398,491; 9489,384;49,11943
 496,84; 4856,397;  416,109; 9512,673;48,81281
 497,42; 4838,079;  399,952; 9464,352;48,96218
 498,01; 4785,256;  437,108; 9453,793;48,22336
 498,59; 4694,477;  386,490; 9371,547;47,94613
 499,18; 4650,577;  393,339; 9287,218;47,86706
 499,76; 4698,720;  424,568; 9245,423;48,45507
 500,35; 4570,568;  415,949; 9113,908;47,76545
 500,93; 4505,477;  393,029; 9072,928;47,37898
 501,52; 4473,413;  386,490; 8958,662;47,67663
 502,10; 4432,749;  404,794; 8950,689;47,13321
 502,69; 4340,109;  387,254; 8864,315;46,63002
 503,27; 4273,157;  368,489; 8650,440;47,14673
 503,86; 4251,481;  392,639; 8591,426;47,06600
 504,44; 4142,712;  358,484; 8498,052;46,49176
 505,03; 4039,187;  357,792; 8276,629;46,48909
 505,61; 3971,122;  375,715; 8182,201;46,05666
 506,19; 3961,841;  381,484; 8061,205;46,62092
 506,78; 3858,433;  365,789; 7854,997;46,63569
 507,36; 3758,828;  375,869; 7714,319;46,09909
 507,95; 3720,408;  371,018; 7640,545;46,07439
 508,53; 3654,894;  369,097; 7535,150;45,85226
 509,12; 3571,831;  366,249; 7394,503;45,60993
 509,70; 3522,242;  391,172; 7298,662;45,32862
 510,29; 3477,192;  393,478; 7191,135;45,36436
 510,87; 3359,330;  349,866; 7022,534;45,10136
 511,46; 3298,292;  339,788; 6880,962;45,22894
 512,04; 3218,486;  357,094; 6728,628;44,90899
 512,62; 3162,882;  375,481; 6677,963;44,22704
 513,21; 3066,256;  341,786; 6516,175;44,12534
 513,79; 3026,272;  355,704; 6406,863;44,13317
 514,38; 2971,835;  327,167; 6279,236;44,43275
 514,96; 2963,117;  379,629; 6209,849;44,31201
 515,54; 2849,259;  333,782; 6073,357;43,82689
 516,13; 2830,477;  344,012; 5991,474;44,02800
 516,71; 2760,748;  344,472; 5877,527;43,66983
 517,30; 2718,339;  326,778; 5807,386;43,63678
 517,88; 2676,377;  352,086; 5754,270;43,02503
 518,46; 2637,224;  322,162; 5637,507;43,55432
 519,05; 2599,046;  340,238; 5601,825;42,93017
 519,63; 2573,032;  335,546; 5536,935;43,01710
 520,22; 2575,906;  356,928; 5499,494;43,14925
 520,80; 2492,150;  339,543; 5416,535;42,39927
 521,38; 2522,738;  398,699; 5437,134;42,15673
 521,97; 2439,510;  341,311; 5372,006;41,70794
 522,55; 2448,780;  346,926; 5348,352;42,02508
 523,13; 2426,345;  335,771; 5293,668;42,16654
 523,72; 2424,878;  339,777; 5276,160;42,23944
 524,30; 2465,615;  356,001; 5388,254;41,92185
 524,89; 2456,062;  317,157; 5357,816;42,43304
 525,47; 2477,602;  350,846; 5516,835;41,16842
 526,05; 2480,987;  305,692; 5526,607;41,66502
 526,64; 2537,270;  351,230; 5612,998;41,54573
 527,22; 2558,615;  350,616; 5719,181;41,12830
 527,80; 2605,501;  389,845; 5811,920;40,86361
 528,39; 2582,937;  325,460; 5872,543;40,69666
 528,97; 2629,411;  325,153; 5978,577;40,75863
 529,55; 2687,293;  335,771; 6130,053;40,58350
 530,14; 2761,848;  367,767; 6293,126;40,40399
 530,72; 2774,078;  329,306; 6366,578;40,49464
 531,30; 2775,477;  312,459; 6511,320;39,73339
 531,89; 2844,759;  330,228; 6552,628;40,41095
 532,47; 2910,631;  364,843; 6681,402;40,30340
 533,05; 2866,911;  360,153; 6677,919;39,67791
 533,63; 2882,439;  348,535; 6755,674;39,54814
 534,22; 2883,170;  324,996; 6714,482;40,03724
 534,80; 2899,813;  354,071; 6853,036;39,17149
 535,38; 2993,221;  462,151; 6950,707;39,00821
 535,97; 2902,631;  321,073; 6847,326;39,55651
 536,55; 2939,223;  397,686; 6924,884;38,93764
 537,13; 2873,015;  368,767; 6919,242;38,23003
 537,71; 2924,694;  400,767; 6942,048;38,58461
 538,30; 2935,209;  402,765; 7012,295;38,31504
 538,88; 2966,429;  439,069; 7128,972;37,77873
 539,46; 3066,697;  495,610; 7286,458;37,86106
 540,05; 3089,121;  485,762; 7347,659;37,93935
 540,63; 3151,134;  508,762; 7543,852;37,55989
 541,21; 3221,161;  526,684; 7667,785;37,73195
 541,79; 3238,135;  549,299; 7780,092;37,18590
 542,38; 3276,262;  581,916; 7875,773;36,93993
 542,96; 3323,995;  584,144; 7980,066;37,04543
 543,54; 3393,160;  604,607; 8164,629;36,88552
 544,12; 3399,930;  565,453; 8291,941;36,68520
 544,70; 3430,765;  562,605; 8385,298;36,66460
 545,29; 3437,018;  566,147; 8512,273;36,12919
 545,87; 3436,289;  578,146; 8531,707;35,93539
 546,45; 3415,300;  536,609; 8530,426;36,01148
 547,03; 3445,083;  516,762; 8591,549;36,26500
 547,62; 3405,725;  498,376; 8632,401;35,74305
 548,20; 3469,764;  516,221; 8840,064;35,48293
 548,78; 3500,960;  477,294; 8880,825;35,98090
 549,36; 3494,601;  465,448; 9026,130;35,38448
 549,94; 3507,213;  428,145; 9142,098;35,33491
 550,53; 3554,305;  439,218; 9317,086;35,08823
 551,11; 3540,512;  414,601; 9443,100;34,62271
 551,69; 3668,190;  430,756; 9739,513;34,77837
 552,27; 3711,343;  374,681; 9858,810;35,18153
 552,85; 3768,384;  388,216;10164,715;34,57441
 553,44; 3818,049;  395,525;10360,705;34,34483
 554,02; 3931,960;  403,986;10624,518;34,51849
 554,60; 3973,512;  352,755;10879,871;34,39458
 555,18; 4078,883;  388,064;11148,668;34,29936
 555,76; 4125,280;  378,832;11421,403;33,92732
 556,34; 4262,424;  380,215;11755,460;34,12857
 556,93; 4357,472;  373,217;12065,669;34,07545
 557,51; 4391,270;  341,676;12319,922;33,80790
 558,09; 4503,896;  375,679;12629,092;33,69034
 558,67; 4596,322;  361,136;12942,700;33,66184
 559,25; 4656,501;  382,599;13158,233;33,45354
 559,83; 4710,772;  356,905;13401,977;33,37557
 560,41; 4769,654;  347,907;13674,225;33,18056
 561,00; 4874,578;  369,906;13965,624;33,13303
 561,58; 4922,372;  352,985;14149,608;33,11960
 562,16; 4970,781;  341,216;14381,370;32,97375
 562,74; 5045,768;  325,448;14690,480;32,85979
 563,32; 5102,489;  324,674;15052,900;32,43986
 563,90; 5204,796;  347,444;15327,277;32,42594
 564,48; 5320,730;  363,677;15664,760;32,39675
 565,06; 5398,489;  342,675;16147,122;31,98982
 565,65; 5583,273;  355,134;16690,722;32,00460
 566,23; 5781,463;  405,059;17315,816;31,79280
 566,81; 5897,527;  340,368;17892,079;31,66163
 567,39; 6106,272;  348,058;18582,558;31,57868
 567,97; 6262,078;  385,752;19137,351;31,33773
 568,55; 6510,771;  409,597;19795,822;31,47170
 569,13; 6622,848;  357,598;20353,817;31,33217
 569,71; 6791,576;  324,832;21192,523;30,98926
 570,29; 7078,101;  404,218;22011,707;30,88690
 570,87; 7219,922;  383,448;22564,174;30,82169
 571,45; 7340,142;  367,137;23067,776;30,71722
 572,03; 7412,734;  315,211;23468,330;30,65471
 572,61; 7528,938;  319,828;24101,783;30,31336
 573,20; 7680,219;  353,368;24631,384;30,17895
 573,78; 7820,195;  330,674;25093,400;30,24514
 574,36; 7903,720;  352,674;25566,896;29,94757
 574,94; 8037,503;  417,134;25892,718;29,91244
 575,52; 7960,672;  325,209;26073,775;29,65394
 576,10; 8139,671;  389,979;26511,306;29,66807
 576,68; 8199,465;  359,288;27011,137;29,41701
 577,26; 8330,570;  381,900;27596,784;29,20707
 577,84; 8426,810;  387,059;28050,013;29,06324
 578,42; 8487,901;  442,595;28272,915;28,90842
 579,00; 8402,438;  368,751;28402,900;28,65679
 579,58; 8503,029;  418,596;28528,295;28,76030
 580,16; 8390,248;  363,825;28536,803;28,48979
 580,74; 8462,735;  365,287;28735,573;28,54200
 581,32; 8388,465;  360,441;28727,990;28,30003
 581,90; 8344,876;  396,441;28727,533;28,05552
 582,48; 8344,953;  376,287;28789,380;28,04575
 583,06; 8363,042;  358,903;28904,719;28,03962
 583,64; 8304,247;  358,288;28896,794;27,84294
 584,22; 8228,044;  383,208;28848,125;27,55967
 584,80; 8144,748;  382,672;28643,531;27,46582
 585,38; 8020,539;  389,292;28189,805;27,45002
 585,96; 7960,169;  343,289;28262,787;27,28158
 586,54; 7903,018;  374,362;28201,276;27,05530
 587,12; 7917,261;  352,056;28306,538;27,06259
 587,70; 7931,041;  385,289;28397,943;26,93694
 588,28; 7901,979;  344,825;28413,307;26,92399
 588,86; 7872,531;  364,670;28510,119;26,67522
 589,44; 7828,341;  328,591;28561,562;26,56380
 590,02; 7831,020;  341,899;28762,210;26,35130
 590,59; 7818,262;  325,209;28738,852;26,37132
 591,17; 7852,381;  348,050;28948,390;26,23861
 591,75; 7798,354;  323,282;28960,993;26,10220
 592,33; 7850,520;  352,283;29278,410;25,92202
 592,91; 7831,624;  294,281;29389,885;25,90544
 593,49; 7820,241;  314,203;29615,740;25,61653
 594,07; 7869,715;  330,742;29880,086;25,51317
 594,65; 7830,544;  350,439;29820,624;25,38194
 595,23; 7858,545;  336,669;30113,248;25,26105
 595,81; 7843,674;  331,976;30218,176;25,13434
 596,39; 7859,982;  325,975;30360,793;25,08424
 596,97; 7879,522;  311,666;30557,269;25,02134
 597,55; 7787,442;  312,515;30399,859;24,84409
 598,12; 7763,985;  294,202;30422,591;24,79317
 598,70; 7767,509;  295,281;30555,773;24,69302
 599,28; 7724,548;  332,127;30678,273;24,36033
 599,86; 7725,535;  313,050;30722,849;24,37532
 600,44; 7694,946;  272,434;30806,315;24,30910
 601,02; 7703,089;  346,123;30836,916;24,12848
 601,60; 7614,418;  319,205;30796,416;23,93662
 602,18; 7532,985;  282,664;30779,590;23,77394
 602,75; 7546,879;  288,899;30865,636;23,73693
 603,33; 7466,881;  306,819;30873,889;23,42410
 603,91; 7452,883;  283,278;30885,369;23,42848
 604,49; 7432,920;  307,665;30881,390;23,30516
 605,07; 7429,226;  317,359;30994,608;23,18287
 605,65; 7392,061;  315,588;31052,279;23,02289
 606,23; 7389,595;  345,978;31160,773;22,85791
 606,80; 7366,315;  355,514;31216,713;22,71720
 607,38; 7343,896;  363,663;31197,250;22,63841
 607,96; 7327,404;  390,130;31345,905;22,41028
 608,54; 7307,190;  435,818;31378,740;22,20660
 609,12; 7276,661;  427,668;31435,059;22,08826
 609,70; 7283,048;  435,281;31411,463;22,10655
 610,27; 7261,250;  419,745;31498,749;22,01327
 610,85; 7257,996;  459,897;31566,539;21,85417
 611,43; 7190,804;  442,050;31444,196;21,76867
 612,01; 7091,585;  406,052;31433,067;21,54746
 612,59; 7058,342;  413,435;31332,348;21,49140
 613,16; 6992,224;  400,208;31300,741;21,33302
 613,74; 6961,997;  383,358;31201,927;21,34635
 614,32; 6877,215;  381,049;31156,741;21,10811
 614,90; 6865,419;  373,743;31048,957;21,16261
 615,48; 6736,917;  347,208;30851,821;20,94670
 616,05; 6668,480;  319,901;30803,662;20,82610
 616,63; 6592,659;  341,363;30677,425;20,60681
 617,21; 6544,314;  331,515;30568,403;20,54709
 617,79; 6501,956;  319,129;30588,485;20,42603
 618,36; 6467,816;  331,975;30408,377;20,40085
 618,94; 6298,442;  265,207;30145,323;20,19147
 619,52; 6232,775;  307,055;29994,081;19,96064
 620,10; 6175,187;  275,591;29947,944;19,88247
 620,67; 6134,851;  293,517;29842,233;19,76849
 621,25; 6097,867;  309,513;29745,916;19,66393
 621,83; 6049,455;  283,515;29690,669;19,60727
 622,41; 6049,788;  350,977;29726,591;19,39980
 622,98; 5929,979;  314,671;29382,386;19,31803
 623,56; 5870,684;  318,671;29483,345;19,03677
 624,14; 5826,829;  296,281;29283,806;19,07906
 624,72; 5783,404;  303,669;29263,515;18,92184
 625,29; 5786,107;  287,056;29333,230;18,93210
 625,87; 5785,443;  335,052;29264,793;18,84010
 626,45; 5628,607;  284,056;29152,342;18,51357
 627,02; 5561,841;  293,744;29046,679;18,32194
 627,60; 5573,266;  267,511;29045,507;18,43685
 628,18; 5503,661;  262,899;29089,675;18,18019
 628,76; 5487,774;  258,055;29139,542;18,10751
 629,33; 5466,724;  307,285;29056,934;17,94609
 629,91; 5475,033;  277,514;29023,175;18,08105
 630,49; 5442,647;  304,593;29225,084;17,76614
 631,06; 5390,582;  287,055;29224,120;17,63664
 631,64; 5361,633;  289,210;29211,113;17,53834
 632,22; 5298,017;  264,826;29152,413;17,42337
 632,79; 5347,055;  292,057;29366,452;17,38643
 633,37; 5339,046;  265,667;29387,606;17,42116
 633,95; 5319,671;  284,595;29426,765;17,27763
 634,52; 5279,263;  274,054;29646,937;17,04024
 635,10; 5293,033;  286,976;29565,404;17,09811
 635,68; 5278,414;  287,134;29761,836;16,93412
 636,25; 5232,964;  263,904;29705,248;16,87783
 636,83; 5230,005;  253,901;29912,080;16,77818
 637,41; 5221,721;  273,596;29828,910;16,74192
 637,98; 5246,952;  306,673;30037,063;16,61693
 638,56; 5239,041;  279,366;30170,244;16,59260
 639,13; 5217,325;  257,902;30144,270;16,59427
 639,71; 5233,493;  341,593;30305,928;16,32574
 640,29; 5121,963;  232,439;30073,417;16,38527
 640,86; 5093,961;  261,132;30333,564;16,07063
 641,44; 5104,882;  266,747;30277,866;16,12114
 642,02; 5092,649;  290,055;30228,706;16,04145
 642,59; 5095,877;  250,901;30405,468;16,06714
 643,17; 5057,490;  257,439;30435,231;15,90591
 643,74; 5046,334;  254,670;30417,994;15,88573
 644,32; 5031,947;  278,593;30401,988;15,77961
 644,89; 4999,560;  278,208;30386,520;15,68123
 645,47; 4997,173;  288,823;30405,052;15,63393
 646,05; 4979,864;  281,823;30394,892;15,60133
 646,62; 4877,323;  263,746;30275,962;15,37233
 647,20; 4920,013;  269,823;30494,802;15,38525
 647,77; 4865,780;  241,131;30418,719;15,32478
 648,35; 4818,547;  231,438;30305,712;15,25260
 648,92; 4822,006;  264,130;30254,168;15,19797
 649,50; 4773,004;  237,207;30278,930;15,09832
 650,08; 4690,771;  230,284;30135,001;14,91566
 650,65; 4731,384;  252,284;30321,841;14,89580
 651,23; 4746,305;  218,515;30809,373;14,80112
 651,80; 4817,072;  227,207;31718,213;14,57516
 652,38; 4902,454;  250,130;32069,668;14,62097
 652,95; 4938,990;  231,515;32456,431;14,60819
 653,53; 4934,603;  245,514;32679,040;14,45754
 654,10; 4931,909;  283,899;32812,418;14,28903
 654,68; 4866,753;  231,745;32669,335;14,28900
 655,25; 4860,673;  224,822;32728,790;14,26242
 655,83; 4831,287;  231,437;32816,630;14,11638
 656,40; 4900,438;  273,360;32820,469;14,21656
 656,98; 4808,590;  241,206;32834,232;14,01338
 657,55; 4750,203;  243,052;32723,995;13,87629
 658,13; 4723,970;  241,821;32366,143;13,95251
 658,70; 4689,583;  268,129;32158,367;13,86460
 659,28; 4546,888;  240,129;31474,361;13,78859
 659,85; 4453,578;  274,667;30820,585;13,68075
 660,43; 4431,807;  259,744;30682,117;13,71380
 661,00; 4451,651;  252,590;30825,957;13,73437
 661,58; 4432,956;  236,898;31013,335;13,63400
 662,15; 4445,339;  235,744;31192,098;13,59848
 662,73; 4520,259;  308,821;31424,015;13,53499
 663,30; 4461,334;  241,975;31621,701;13,44613
 663,88; 4478,255;  249,898;31646,540;13,46755
 664,45; 4481,176;  241,667;31939,842;13,37462
 665,03; 4482,789;  231,820;32257,758;13,27352
 665,60; 4641,094;  341,743;32606,598;13,32518
 666,17; 4569,092;  246,897;32631,207;13,34657
 666,75; 4566,782;  243,282;32926,739;13,22841
 667,32; 4609,780;  266,359;33298,194;13,14920
 667,90; 4615,393;  257,589;33444,803;13,13097
 668,47; 4645,237;  274,743;33657,797;13,09195
 669,05; 4640,081;  239,435;33942,791;13,05699
 669,62; 4657,925;  224,666;33967,169;13,13850
 670,19; 4663,153;  222,974;34069,778;13,11846
 670,77; 4700,766;  253,666;34231,233;13,08834
 671,34; 4670,149;  242,281;34088,534;13,08230
 671,92; 4680,992;  229,973;34483,913;12,99418
 672,49; 4703,067;  259,281;34460,368;12,99311
 673,06; 4690,834;  209,435;34466,515;13,08167
 673,64; 4700,524;  226,281;34473,509;13,06454
 674,21; 4663,983;  212,204;34427,349;13,01114
 674,79; 4716,212;  258,742;34672,035;12,95276
 675,36; 4726,440;  255,127;34711,567;12,97671
 675,93; 4696,284;  207,204;34592,407;13,05527
 676,51; 4716,897;  247,511;34809,169;12,93163
 677,08; 4698,049;  243,280;34850,932;12,87221
 677,65; 4707,585;  246,434;34861,234;12,88799
 678,23; 4737,198;  245,665;35089,458;12,89048
 678,80; 4713,735;  230,434;35136,375;12,84395
 679,38; 4754,348;  233,588;35252,830;12,90936
 679,95; 4797,268;  249,357;35525,054;12,89248
 680,52; 4771,882;  234,203;35772,356;12,76847
 681,10; 4845,495;  258,818;36171,888;12,77161
 681,67; 4826,339;  251,357;36259,035;12,70557
 682,24; 4834,952;  206,280;36386,260;12,79346
 682,82; 4882,103;  237,741;36745,792;12,72147
 683,39; 5003,563;  283,433;37066,016;12,83251
 683,96; 4959,945;  247,895;37278,856;12,72462
 684,54; 4964,712;  213,895;37639,850;12,69391
 685,11; 5044,017;  290,356;37925,074;12,63105
 685,68; 5057,707;  238,664;38169,837;12,70471
 686,25; 5080,936;  221,356;38295,369;12,76351
 686,83; 5099,164;  231,664;38387,593;12,75687
 687,40; 5123,085;  218,971;38711,741;12,74035
 687,97; 5200,468;  273,279;39111,427;12,68647
 688,55; 5184,619;  216,971;39122,190;12,76859
 689,12; 5174,463;  213,663;39254,952;12,70655
 689,69; 5216,230;  213,509;39285,254;12,80393
 690,26; 5274,920;  227,355;39464,632;12,86421
 690,84; 5253,533;  218,586;39549,241;12,80158
 691,41; 5249,454;  244,048;39679,081;12,69279
 691,98; 5317,836;  241,124;40035,767;12,75728
 692,56; 5326,296;  221,817;39923,683;12,85703
 693,13; 5380,293;  276,047;40073,985;12,82540
 693,70; 5403,676;  250,739;40198,978;12,89903
 694,27; 5375,520;  221,970;40273,972;12,86715
 694,84; 5443,133;  227,739;40409,196;12,97960
 695,42; 5586,284;  363,047;40562,498;12,99331
 695,99; 5507,744;  238,201;40668,261;13,03373
 696,56; 5509,434;  229,278;40425,177;13,13606
 697,13; 5583,739;  250,893;40928,094;13,11016
 697,71; 5561,198;  237,354;40919,011;13,08660
 698,28; 5596,581;  233,970;41056,697;13,13634
 698,85; 5581,578;  206,970;41095,767;13,14445
 699,42; 5641,961;  210,354;41349,915;13,20288
 699,99; 5699,035;  255,816;41336,447;13,25009
 700,57; 5733,418;  249,123;41415,440;13,32229
 701,14; 5706,185;  224,969;41550,203;13,26360
 701,71; 5800,952;  251,892;41730,889;13,37800
 702,28; 5797,719;  223,277;41843,883;13,39347
 702,85; 5810,947;  231,584;41842,876;13,40829
 703,43; 5846,099;  252,430;42044,947;13,38438
 704,00; 5921,558;  264,353;42261,787;13,47036
 704,57; 5888,863;  232,969;42225,319;13,46887
 705,14; 5949,707;  260,122;42461,928;13,48185
 705,71; 5980,167;  269,507;42584,152;13,49570
 706,28; 5936,780;  240,353;42407,146;13,50927
 706,86; 6031,162;  267,199;42609,524;13,61277
 707,43; 6054,544;  291,507;42608,672;13,61868
 708,00; 6032,081;  272,430;42597,050;13,60828
 708,57; 6058,078;  234,353;42547,890;13,76327
 709,14; 6106,076;  253,045;42677,652;13,79631
 709,71; 6110,535;  234,583;42723,492;13,82938
 710,28; 6194,764;  249,891;42956,101;13,92039
 710,86; 6165,454;  242,199;43044,941;13,83850
 711,43; 6266,990;  281,122;43032,704;14,00151
 712,00; 6242,911;  244,814;43090,159;13,99941
 712,57; 6338,986;  273,968;43237,537;14,11665
 713,14; 6332,599;  250,737;43336,454;14,11573
 713,71; 6348,135;  267,814;43246,371;14,14734
 714,28; 6337,748;  249,583;43236,134;14,16295
 714,85; 6344,977;  233,813;43089,127;14,25999
 715,42; 6405,667;  242,736;43212,505;14,34248
 716,00; 6511,972;  330,044;43356,730;14,36766
 716,57; 6477,354;  245,505;43522,647;14,39986
 717,14; 6496,737;  235,352;43316,486;14,53394
 717,71; 6566,658;  216,275;43472,172;14,68096
 718,28; 6588,194;  284,967;43603,320;14,55094
 718,85; 6588,192;  212,121;43541,621;14,71531
 719,42; 6684,728;  246,736;43593,461;14,85231
 719,99; 6647,418;  228,890;43414,147;14,86278
 720,56; 6739,954;  266,813;43777,140;14,87725
 721,13; 6757,644;  221,889;43855,211;14,97882
 721,70; 6757,719;  232,889;43612,358;15,04128
 722,27; 6821,024;  257,812;43730,814;15,09721
 722,84; 6895,483;  316,120;43911,577;15,09186
 723,41; 6887,943;  223,120;43891,032;15,26252
 723,98; 6888,633;  233,427;43995,487;15,20771
 724,55; 6941,630;  260,274;44173,942;15,21475
 725,12; 6940,320;  200,504;44037,474;15,37473
 725,69; 7044,011;  243,581;44181,468;15,47737
 726,27; 7027,701;  226,658;44316,308;15,42549
 726,84; 7094,544;  245,735;44467,840;15,48730
 727,41; 7143,773;  256,889;44551,833;15,54779
 727,98; 7171,463;  257,042;44802,596;15,52213
 728,55; 7298,076;  297,196;44755,128;15,74720
 729,12; 7291,843;  226,119;44790,891;15,85495
 729,69; 7352,149;  263,811;44922,500;15,87225
 730,26; 7401,531;  254,350;45143,724;15,92177
 730,82; 7381,298;  253,888;45098,103;15,89371
 731,39; 7462,449;  245,965;45088,019;16,09312
 731,96; 7543,139;  222,888;45360,090;16,21778
 732,53; 7591,137;  252,195;45507,699;16,21668
 733,10; 7687,750;  263,426;45678,770;16,34761
 733,67; 7709,748;  250,041;45739,840;16,39864
 734,24; 7743,977;  237,195;45466,218;16,59727
 734,81; 7851,744;  282,195;45622,827;16,69485
 735,38; 7776,126;  258,041;45525,744;16,60805
 735,95; 7827,816;  263,272;45320,276;16,78883
 736,52; 7893,429;  247,426;45478,501;16,90432
 737,09; 7875,581;  268,426;45200,725;16,93026
 737,66; 8013,117;  318,887;45480,103;17,03725
 738,23; 8010,038;  257,349;45489,405;17,13981
 738,80; 8160,958;  338,964;45834,783;17,19278
 739,37; 8181,802;  289,348;45843,315;17,32550
 739,94; 8236,800;  258,810;45876,616;17,48876
 740,51; 8362,106;  420,348;46032,610;17,41145
 741,07; 8240,719;  262,348;46013,988;17,43844
 741,64; 8385,947;  285,502;46088,443;17,68543
 742,21; 8400,945;  268,117;46098,437;17,74552
 742,78; 8419,020;  239,579;45969,200;17,88653
 743,35; 8503,710;  265,886;46198,963;17,93440
 743,92; 8592,784;  326,117;46355,341;17,95961
 744,49; 8607,859;  314,348;46251,334;18,05410
 745,06; 8618,934;  260,886;46256,482;18,17141
 745,63; 8667,393;  242,655;46212,937;18,32649
 746,19; 8705,391;  266,040;46279,700;18,34097
 746,76; 8725,388;  269,270;46202,540;18,40957
 747,33; 8762,309;  272,578;46311,072;18,44051
 747,90; 8881,384;  277,501;46478,065;18,62290
 748,47; 8892,305;  275,116;46369,367;18,69471
 749,04; 8948,841;  277,501;46429,822;18,78852
 749,61; 8983,762;  314,501;46430,123;18,79897
 750,17; 9061,221;  287,885;46419,040;19,01824
 750,74; 9055,219;  287,577;46394,187;19,01602
 751,31; 9051,293;  247,424;46338,335;19,10110
 751,88; 9125,445;  245,962;46223,559;19,31263
 752,45; 9158,981;  260,500;46379,168;19,29475
 753,02; 9181,133;  281,039;46202,623;19,38107
 753,58; 9267,130;  258,192;46049,848;19,67375
 754,15; 9301,590;  261,115;46249,380;19,65822
 754,72; 9280,434;  250,346;46024,835;19,72734
 755,29; 9282,585;  258,115;45829,060;19,80312
 755,86; 9398,583;  278,192;45989,361;19,95222
 756,42; 9472,119;  281,038;45922,278;20,13767
 756,99; 9424,578;  234,115;45845,271;20,14960
 757,56; 9519,807;  241,577;45842,726;20,34648
 758,13; 9513,266;  194,653;45746,258;20,45727
 758,70; 9655,649;  244,576;45813,406;20,65243
 759,26; 9705,415;  227,269;45909,323;20,74808
 759,83; 9733,029;  244,345;45917,470;20,77520
 760,40; 9744,642;  217,115;45844,541;20,88114
 760,97; 9807,178;  213,653;45946,611;20,97727
 761,53; 9789,637;  201,191;45538,297;21,14922
 762,10; 9811,558;  200,191;45633,829;21,15474
 762,67; 9936,633;  229,345;45480,900;21,45183
 763,24; 9832,477;  178,960;45142,740;21,46954
 763,80; 9898,474;  220,576;45303,426;21,46692
 764,37; 9959,549;  223,422;45338,419;21,58069
 764,94; 9892,239;  217,345;44805,413;21,69839
 765,50; 9921,314;  217,114;44845,868;21,74428
 766,07;10014,158;  254,191;44927,939;21,84721
 766,64; 9985,309;  233,191;44698,548;21,93195
 767,21;10048,076;  241,114;44582,926;22,11674
 767,77;10107,997;  244,190;44542,304;22,26688
 768,34;10117,302;  257,498;44448,682;22,31170
 768,91;10150,377;  266,190;44302,984;22,44529
 769,47;10170,759;  256,575;44390,746;22,46374
 770,04;10202,372;  263,652;44253,663;22,59313
 770,61;10154,216;  234,959;43964,349;22,68327
 771,18;10203,753;  240,267;43998,112;22,76960
 771,74;10339,289;  255,498;44062,490;23,01868
 772,31;10303,363;  271,344;43868,561;23,01069
 772,88;10305,746;  235,882;43699,785;23,16834
 773,44;10283,513;  234,343;43574,317;23,18684
 774,01;10342,280;  275,574;43676,695;23,19457
 774,58;10324,816;  235,805;43413,381;23,36632
 775,14;10363,275;  238,420;43453,375;23,42905
 775,71;10431,042;  234,035;43417,446;23,61325
 776,27;10523,655;  313,882;43282,978;23,76074
 776,84;10667,730;  366,805;43421,894;23,92499
 777,41;10594,958;  264,958;43214,965;24,05122
 777,97;10550,110;  250,497;42939,420;24,12713
 778,54;10656,569;  260,112;42996,260;24,32708
 779,11;10703,721;  288,727;42979,946;24,39610
 779,67;10700,103;  268,419;42977,324;24,42508
 780,24;10755,716;  265,189;42792,087;24,66798
 780,80;10753,483;  269,035;42735,465;24,68879
 781,37;10823,558;  285,342;42748,228;24,81747
 781,94;10802,402;  267,881;42466,222;24,96430
 782,50;10829,553;  267,342;42478,831;25,02212
 783,07;10877,167;  286,573;42588,055;25,03599
 783,63;10897,472;  257,496;42370,895;25,26506
 784,20;10993,162;  295,803;42269,658;25,48577
 784,77;10939,467;  261,111;42054,805;25,55016
 785,33;10921,465;  240,034;42003,260;25,57616
 785,90;10972,386;  256,957;41958,408;25,69558
 786,46;11047,461;  286,957;41880,325;25,87072
 787,03;10976,305;  260,341;41802,472;25,79541
 787,59;11073,225;  259,726;41700,927;26,09360
 788,16;11030,300;  274,418;41620,844;26,01405
 788,73;11098,913;  274,034;41597,453;26,19551
 789,29;11090,757;  251,110;41260,908;26,43185
 789,86;11220,139;  295,495;41199,056;26,70830
 790,42;11093,060;  271,341;40958,818;26,59717
 790,99;11163,520;  272,341;40754,966;26,90334
 791,55;11151,517;  261,879;40746,421;26,89826
 792,12;11206,515;  306,956;40708,645;26,97798
 792,68;11158,205;  277,033;40461,408;27,07812
 793,25;11189,664;  285,494;40209,171;27,31254
 793,81;11237,893;  366,571;39938,011;27,47265
 794,38;11068,583;  244,033;39787,620;27,37372
 794,94;11150,658;  261,494;39647,383;27,64737
 795,51;11130,732;  273,648;39460,069;27,70624
 796,07;11089,345;  273,879;39260,832;27,74125
 796,64;11160,266;  291,032;39409,210;27,78563
 797,20;11073,802;  286,494;38950,588;27,90007
 797,77;11030,031;  231,878;38631,659;28,12035
 798,33;11095,336;  261,417;38575,345;28,27671
 798,90;11141,411;  280,878;38519,877;28,40172
 799,46;11104,486;  255,032;38056,409;28,70121
 800,03;11098,714;  269,340;38048,556;28,66490
 800,59;11091,712;  281,416;37944,165;28,70288
 801,15;11119,710;  289,032;37662,851;28,97932
 801,72;11054,861;  270,109;37398,383;29,04728
 802,28;11074,782;  292,570;37212,685;29,20417
 802,85;11076,857;  274,493;36984,986;29,42582
 803,41;11026,777;  276,570;36836,980;29,40396
 803,98;11032,544;  262,185;36430,973;29,77805
 804,54;11008,081;  266,954;36340,582;29,77556
 805,11;11029,540;  279,262;36156,345;29,96419
 805,67;11050,461;  303,723;36007,339;30,09986
 806,23;11002,535;  280,493;35717,871;30,25631
 806,80;11051,148;  291,108;35601,403;30,47281
 807,36;11067,069;  299,339;35624,089;30,48211
 807,93;11009,759;  308,108;35394,313;30,50102
 808,49;11002,680;  271,338;35077,230;30,83197
 809,05;11020,216;  253,800;34892,993;31,08160
 809,62;11011,445;  285,877;34816,679;31,06087
 810,18;11024,212;  269,338;34789,826;31,15505
 810,74;10947,133;  239,415;34568,589;31,19131
 811,31;10939,746;  256,953;34472,121;31,22239
 811,87;11019,128;  280,184;34216,269;31,64462
 812,44;11035,357;  294,953;34357,416;31,53149
 813,00;10951,585;  222,953;34017,641;31,74650
 813,56;11057,506;  276,107;34080,173;31,89379
 814,13;10993,427;  279,030;34023,166;31,75188
 814,69;10993,040;  251,876;33879,160;31,94181
 815,25;10886,884;  227,722;33471,154;32,06396
 815,82;10954,651;  277,645;33500,147;32,13787
 816,38;11015,187;  313,568;33346,372;32,39694
 816,94;10873,800;  237,953;33033,134;32,43113
 817,51;10894,644;  235,106;32749,128;32,78443
 818,07;10835,872;  252,568;32706,814;32,60992
 818,63;10819,255;  259,183;32416,269;32,83902
 819,20;10857,560;  265,798;32452,263;32,90750
 819,76;10750,481;  237,721;32109,564;32,98447
 820,32;10818,248;  282,183;32075,173;33,13959
 820,89;10796,477;  268,337;31837,859;33,34906
 821,45;10718,320;  251,952;31549,007;33,44202
 822,01;10731,549;  270,798;31403,616;33,60040
 822,57;10752,700;  274,106;31264,225;33,81270
 823,14;10674,929;  230,798;31097,295;33,83646
 823,70;10651,004;  243,028;30937,212;33,90862
 824,26;10724,155;  249,259;30755,975;34,33636
 824,82;10776,461;  284,721;30647,661;34,55443
 825,39;10659,074;  246,105;30400,577;34,53209
 825,95;10707,841;  263,874;30414,263;34,63957
 826,51;10637,762;  267,874;30120,488;34,73695
 827,08;10724,759;  296,874;30146,327;34,93493
 827,64;10772,296;  284,643;29959,552;35,34182
 828,20;10716,986;  245,182;29785,007;35,44978
 828,76;10713,983;  290,259;29812,385;35,30818
 829,32;10738,519;  298,335;29650,456;35,56876
 829,89;10744,440;  241,105;29518,142;35,87568
 830,45;10740,592;  276,643;29463,674;35,85137
 831,01;10791,282;  271,951;29353,052;36,17240
 831,57;10722,972;  270,489;29269,430;36,04436
 832,14;10717,816;  256,335;29244,193;36,08918
 832,70;10689,814;  244,181;28954,418;36,38296
 833,26;10723,042;  220,027;28888,565;36,63603
 833,82;10736,348;  261,565;28903,713;36,57122
 834,38;10731,576;  250,719;28807,091;36,70234
 834,95;10679,805;  243,565;28727,392;36,63918
 835,51;10717,956;  218,181;28604,463;36,98891
 836,07;10773,492;  249,104;28714,764;36,97223
 836,63;10878,952;  281,257;28682,527;37,31416
 837,19;10787,411;  269,257;28549,982;37,19195
 837,75;10744,178;  221,642;28266,437;37,52046
 838,32;10840,791;  284,719;28343,585;37,62117
 838,88;10929,558;  282,488;28406,809;37,85716
 839,44;10909,248;  273,488;28302,880;37,94503
 840,00;10910,861;  259,949;28280,642;38,01088
 840,56;10832,320;  243,103;28033,021;38,10453
 841,12;10917,010;  239,488;27914,476;38,58185
 841,68;10853,162;  231,334;27790,469;38,54195
 842,25;10876,621;  248,026;27896,155;38,44237
 842,81;10888,465;  241,718;27616,688;38,89227
 843,37;10908,078;  232,026;27647,758;38,94134
 843,93;10906,230;  255,487;27594,059;38,95866
 844,49;10980,228;  262,872;27645,822;39,13879
 845,05;10891,610;  210,025;27405,047;39,27772
 845,61;11037,992;  268,718;27456,886;39,61015
 846,17;10933,605;  238,871;27339,342;39,46328
 846,73;10988,757;  254,948;27315,028;39,66658
 847,29;10988,909;  236,102;27138,637;39,96949
 847,86;11009,983;  241,948;27111,861;40,07469
 848,42;10945,750;  242,794;26990,393;40,01464
 848,98;11039,210;  263,486;26910,387;40,43894
 849,54;10997,592;  252,563;26995,765;40,17854
 850,10;10989,974;  266,179;26909,682;40,24920
 850,66;10940,895;  235,563;26666,829;40,50253
 851,22;10946,354;  226,717;26607,592;40,63412
 851,78;10994,429;  285,178;26678,355;40,57583
 852,34;10962,119;  269,640;26529,195;40,71843
 852,90;10982,886;  248,870;26495,034;40,89746
 853,46;10958,576;  238,563;26244,028;41,22216
 854,02;10959,651;  254,409;26301,252;41,09996
 854,58;10971,418;  250,870;26099,554;41,47425
 855,14;10920,031;  239,562;26025,470;41,41979
 855,70;10882,029;  212,947;25916,464;41,50826
 856,26;10935,257;  256,947;25867,150;41,69553
 856,82;10891,639;  253,870;25749,374;41,72410
 857,38;10921,791;  302,254;25675,906;41,85261
 857,94;10878,866;  248,716;25611,362;41,91262
 858,50;10877,940;  274,254;25480,586;42,06755
 859,06;10830,246;  243,331;25218,503;42,38976
 859,62;10847,782;  271,946;25298,035;42,25924
 860,18;10781,164;  252,100;25060,721;42,44115
 860,74;10780,777;  216,562;25002,714;42,62144
 861,30;10810,929;  246,869;24816,708;42,99605
 861,86;10908,927;  319,946;24890,625;43,09600
 862,42;10756,540;  240,715;24682,695;43,02362
 862,98;10901,614;  291,869;24688,997;43,48768
 863,54;10780,766;  249,023;24474,760;43,47337
 864,10;10906,072;  253,253;24526,907;43,88634
 864,66;10801,531;  218,176;24366,362;43,82671
 865,22;10814,452;  255,022;24190,125;44,11692
 865,78;10783,065;  248,253;24193,811;43,99485
 866,34;10730,216;  238,253;24092,112;43,98434
 866,90;10743,906;  251,791;23978,798;44,22014
 867,45;10751,212;  243,253;23773,330;44,65756
 868,01;10708,363;  257,868;23686,862;44,60497
 868,57;10696,515;  239,714;23600,087;44,76299
 869,13;10646,667;  237,330;23485,080;44,77567
 869,69;10671,972;  233,406;23371,305;45,11458
 870,25;10625,585;  220,022;23242,145;45,19811
 870,81;10619,275;  241,099;23242,754;45,11926
 871,37;10646,427;  257,175;23147,440;45,38721
 871,93;10678,963;  275,175;23046,818;45,68747
 872,49;10659,038;  300,406;22873,273;45,88975
 873,04;10571,035;  226,867;22713,420;46,00157
 873,60;10510,495;  230,867;22635,029;45,88267
 874,16;10543,492;  261,790;22568,177;46,09309
 874,72;10559,185;  232,098;22491,946;46,39334
 875,28;10583,185;  246,329;22428,408;46,60003
 875,84;10615,723;  250,406;22390,869;46,81617
 876,40;10580,800;  237,252;22352,946;46,77017
 876,95;10558,108;  265,637;22299,792;46,71144
 877,51;10629,108;  283,637;22322,254;46,94247
 878,07;10654,262;  297,252;22311,331;47,04721
 878,63;10664,108;  254,483;22296,177;47,22697
 879,19;10691,031;  270,098;22358,331;47,17866
 879,75;10747,723;  247,252;22321,638;47,56858
 880,30;10778,185;  239,406;22373,638;47,61303
 880,86;10880,954;  292,637;22521,562;47,63306
 881,42;10861,338;  232,021;22510,946;47,71019
 881,98;10896,877;  264,406;22569,638;47,66806
 882,54;10941,415;  254,098;22638,485;47,74452
 883,09;11057,108;  268,483;22714,408;48,06496
 883,65;11118,954;  227,406;22761,638;48,33334
 884,21;11240,646;  280,944;22960,177;48,32484
 884,77;11201,492;  238,483;22999,715;48,16527
 885,32;11276,031;  249,329;23011,638;48,44281
 885,88;11358,800;  288,098;23216,792;48,28318
 886,44;11390,031;  257,637;23296,715;48,31962
 887,00;11377,492;  278,252;23317,638;48,17507
 887,56;11424,877;  247,867;23393,946;48,28900
 888,11;11483,108;  256,098;23412,254;48,48391
 888,67;11558,031;  274,790;23560,715;48,45520
 889,23;11601,031;  260,483;23537,869;48,71916
 889,79;11529,185;  236,560;23478,177;48,58795
 890,34;11539,723;  261,637;23438,869;48,66019
 890,90;11686,415;  335,252;23556,100;48,88350
 891,46;11586,646;  251,944;23515,331;48,72335
 892,01;11612,031;  271,637;23481,408;48,86043
 892,57;11655,108;  290,867;23462,100;49,04461
 893,13;11603,108;  254,637;23253,715;49,34316
 893,69;11581,569;  233,175;23210,254;49,39007
 894,24;11654,492;  247,098;23140,023;49,82934
 894,80;11600,262;  248,944;23016,946;49,85645
 895,36;11587,262;  252,713;22917,177;50,01022
 895,91;11555,415;  247,560;22825,408;50,08385
 896,47;11511,800;  278,790;22719,100;50,05728
 897,03;11405,415;  252,252;22567,638;49,97970
 897,58;11436,262;  259,560;22400,946;50,47878
 898,14;11411,338;  261,406;22242,792;50,72443
 898,70;11306,646;  213,406;22143,177;50,58530
 899,25;11284,492;  253,329;22181,715;50,30540
 899,81;11290,338;  251,867;22036,408;50,67112
 900,37;11174,569;  222,713;21764,946;50,83900
 900,92;11187,415;  245,252;21832,023;50,68921
 901,48;11110,415;  243,790;21694,254;50,65916
 902,03;11106,031;  242,713;21513,023;51,07268
 902,59;11053,492;  239,252;21413,408;51,07283
 903,15;11086,262;  255,637;21360,715;51,31762
 903,70;10904,492;  240,406;21169,177;50,95419
 904,26;10937,954;  245,175;21055,177;51,38288
 904,82;10958,338;  243,098;21036,638;51,53158
 905,37;10939,185;  267,406;20925,485;51,65911
 905,93;10890,415;  237,944;20862,100;51,65046
 906,48;10855,800;  261,252;20831,946;51,50311
 907,04;10880,031;  258,098;20762,331;51,80361
 907,60;10791,338;  266,713;20541,562;51,90976
 908,15;10681,338;  227,021;20455,408;51,68142
 908,71;10698,877;  258,406;20409,408;51,81118
 909,26;10727,185;  239,483;20304,177;52,26943
 909,82;10668,338;  261,483;20233,869;52,10622
 910,37;10683,031;  285,944;20174,331;52,27717
 910,93;10542,108;  236,637;19962,485;52,24349
 911,48;10558,492;  224,637;19879,562;52,57642
 912,04;10548,031;  235,329;19814,869;52,67081
 912,60;10599,262;  244,021;19806,562;52,93403
 913,15;10528,723;  252,021;19604,792;53,10197
 913,71;10474,031;  228,175;19536,331;53,06491
 914,26;10476,646;  213,021;19437,023;53,38964
 914,82;10432,031;  258,560;19373,254;53,22330
 915,37;10396,877;  236,560;19328,331;53,21831
 915,93;10417,185;  306,713;19241,254;53,39697
 916,48;10302,877;  217,098;19115,946;53,36716
 917,04;10362,031;  255,560;19033,331;53,82146
 917,59;10320,338;  268,637;18987,254;53,69896
 918,15;10180,877;  210,406;18833,715;53,53759
 918,70;10180,338;  230,713;18762,869;53,68844
 919,26;10200,185;  243,560;18633,638;54,14129
 919,81;10116,723;  220,098;18520,254;54,07946
 920,37;10148,108;  234,329;18455,946;54,40669
 920,92;10188,646;  252,560;18444,177;54,61904
 921,48; 9995,031;  224,867;18301,254;54,04932
 922,03;10057,877;  229,637;18233,100;54,59083
 922,59;10021,031;  243,483;18105,562;54,73914
 923,14;10037,031;  251,406;18036,638;55,02107
 923,69;10027,646;  264,637;17984,792;55,09551
 924,25; 9983,877;  273,944;17944,254;54,95055
 924,80; 9891,723;  234,098;17753,792;55,12439
 925,36; 9867,723;  221,021;17678,946;55,25686
 925,91; 9856,877;  225,098;17594,408;55,45286
 926,47; 9838,877;  207,560;17556,638;55,51486
 927,02; 9886,492;  315,098;17558,638;55,50713
 927,57; 9770,954;  226,175;17284,023;55,95535
 928,13; 9772,492;  215,483;17281,023;56,00180
 928,68; 9762,185;  228,637;17233,023;56,06523
 929,24; 9646,800;  203,252;17075,331;55,97146
 929,79; 9620,031;  224,790;16946,638;56,18542
 930,34; 9592,877;  221,713;16873,331;56,27780
 930,90; 9567,646;  213,252;16818,638;56,33349
 931,45; 9606,108;  232,406;16841,023;56,43879
 932,01; 9586,415;  228,252;16796,408;56,48283
 932,56; 9588,031;  257,252;16666,023;56,86458
 933,11; 9501,800;  260,021;16579,485;56,63041
 933,67; 9393,338;  215,790;16498,408;56,36408
 934,22; 9493,108;  228,944;16413,638;57,24027
 934,77; 9429,262;  262,252;16297,100;57,16930
 935,33; 9361,646;  228,790;16237,715;57,04853
 935,88; 9364,031;  241,560;16149,562;57,34517
 936,43; 9322,800;  232,406;16092,562;57,31592
 936,99; 9353,569;  234,175;15959,946;57,99012
 937,54; 9184,031;  215,098;15838,638;57,40653
 938,09; 9214,492;  239,867;15850,485;57,49052
 938,65; 9158,646;  238,637;15749,177;57,50934
 939,20; 9098,415;  204,483;15622,177;57,68653
 939,75; 9108,338;  211,021;15540,100;58,04209
 940,31; 9107,262;  209,252;15446,562;58,39620
 940,86; 9171,954;  231,637;15465,331;58,68778
 941,41; 9188,569;  337,790;15419,946;58,68378
 941,96; 9064,262;  216,790;15296,562;58,67112
 942,52; 9016,185;  222,867;15159,408;58,87118
 943,07; 9027,108;  206,560;15129,792;59,10615
 943,62; 8996,800;  226,944;15026,100;59,25916
 944,18; 9010,415;  198,790;14977,254;59,62477
 944,73; 8970,031;  245,944;14924,946;59,43242
 945,28; 8882,108;  192,790;14737,562;59,74186
 945,83; 8887,492;  219,483;14770,177;59,57111
 946,39; 8930,108;  217,637;14769,177;59,87319
 946,94; 8933,569;  242,329;14655,485;60,30075
 947,49; 8831,492;  212,944;14504,869;60,30362
 948,04; 8917,800;  274,252;14543,946;60,57276
 948,59; 8829,646;  247,175;14437,946;60,47924
 949,15; 8767,569;  215,175;14429,638;60,16685
 949,70; 8707,492;  225,944;14290,792;60,30316
 950,25; 8684,723;  232,329;14228,408;60,39116
 950,80; 8649,338;  187,790;14121,100;60,72892
 951,36; 8604,954;  179,021;14015,715;60,89556
 951,91; 8685,185;  236,329;14056,254;61,13532
 952,46; 8559,646;  225,944;13898,177;60,95348
 953,01; 8592,723;  224,483;13934,254;61,03851
 953,56; 8554,031;  194,406;13775,869;61,55172
 954,11; 8555,569;  228,098;13778,638;61,45490
 954,67; 8500,954;  224,713;13705,023;61,39503
 955,22; 8424,031;  203,790;13541,100;61,63342
 955,77; 8423,723;  249,175;13578,946;61,32549
 956,32; 8422,185;  279,406;13514,023;61,52636
 956,87; 8309,031;  216,098;13390,562;61,42894
 957,42; 8364,031;  217,329;13284,100;62,34671
 957,98; 8308,723;  209,098;13328,485;61,73783
 958,53; 8351,723;  255,329;13253,485;62,28879
 959,08; 8240,338;  196,867;13110,715;62,28563
 959,63; 8173,185;  223,098;13049,023;61,98451
 960,18; 8173,338;  242,713;13036,331;61,98892
 960,73; 8140,338;  219,713;13011,715;61,91857
 961,28; 8131,262;  197,406;12875,408;62,57970
 961,83; 8143,492;  244,560;12834,869;62,73819
 962,39; 8025,185;  206,637;12727,408;62,44462
 962,94; 8050,646;  227,483;12728,254;62,58145
 963,49; 7976,338;  232,713;12643,715;62,39323
 964,04; 7979,031;  237,021;12593,100;62,65750
 964,59; 7888,262;  209,021;12445,869;62,75505
 965,14; 7913,723;  262,021;12509,331;62,47659
 965,69; 7890,646;  231,560;12355,946;63,17092
 966,24; 7798,185;  218,252;12294,177;62,76896
 966,79; 7785,262;  251,406;12194,638;63,08054
 967,34; 7700,569;  196,406;12056,023;63,27492
 967,89; 7691,338;  226,252;12113,869;62,79716
 968,44; 7659,646;  231,098;11975,792;63,25025
 968,99; 7651,569;  236,098;11943,177;63,34177
 969,55; 7621,492;  235,637;11895,023;63,34686
 970,10; 7650,031;  236,560;11827,100;63,96139
 970,65; 7548,031;  255,175;11775,715;63,30307
 971,20; 7475,492;  221,021;11661,562;63,41021
 971,75; 7405,338;  197,021;11527,485;63,61891
 972,30; 7381,262;  240,406;11490,408;63,47426
 972,85; 7322,262;  209,867;11405,331;63,52925
 973,40; 7291,108;  213,790;11288,254;63,90664
 973,95; 7280,262;  228,867;11244,254;64,01404
 974,50; 7268,031;  266,406;11252,023;63,73447
 975,05; 7177,338;  245,713;11099,331;63,86465
 975,60; 7141,877;  242,406;11083,946;63,63921
 976,15; 7089,800;  216,790;11005,869;63,70340
 976,70; 7087,108;  237,637;10919,023;64,12530
 977,25; 7047,800;  252,329;10874,408;63,97496
 977,80; 6945,262;  230,790;10771,946;63,69768
 978,35; 6905,108;  250,867;10640,023;64,04987
 978,89; 6843,492;  206,560;10613,485;63,77420
 979,44; 6865,108;  233,406;10594,408;64,00638
 979,99; 6747,723;  227,637;10429,869;63,90843
 980,54; 6737,108;  255,637;10391,023;63,94893
 981,09; 6679,108;  253,021;10319,177;63,83854
 981,64; 6615,031;  238,867;10235,177;63,78517
 982,19; 6639,415;  281,867;10170,562;64,29108
 982,74; 6543,646;  239,329;10073,023;64,10935
 983,29; 6468,415;  228,560; 9925,331;64,34983
 983,84; 6438,185;  242,560; 9856,562;64,44377
 984,39; 6528,415;  351,483; 9957,638;64,30182
 984,94; 6337,954;  207,560; 9720,715;64,44123
 985,49; 6345,108;  263,175; 9651,562;64,78145
 986,03; 6282,800;  249,790; 9573,408;64,70675
 986,58; 6275,569;  290,175; 9548,869;64,64620
 987,13; 6184,800;  247,560; 9410,638;64,79526
 987,68; 6140,954;  266,098; 9275,715;65,20650
 988,23; 6125,108;  250,790; 9286,485;65,01235
 988,78; 6042,954;  227,252; 9132,177;65,30883
 989,33; 5997,569;  264,329; 9075,100;65,07081
 989,88; 6004,800;  272,252; 9035,177;65,41820
 990,42; 5857,185;  234,560; 8880,408;65,03266
 990,97; 5829,031;  245,098; 8798,485;65,28330
 991,52; 5835,338;  253,637; 8767,100;65,56323
 992,07; 5792,723;  285,483; 8679,100;65,61224
 992,62; 5711,415;  250,098; 8561,715;65,70704
 993,17; 5682,723;  262,790; 8514,946;65,67899
 993,71; 5655,723;  265,021; 8433,177;65,99656
 994,26; 5551,338;  235,098; 8308,485;65,84895
 994,81; 5570,954;  263,329; 8294,485;66,08793
 995,36; 5434,262;  226,560; 8143,562;65,77871
 995,91; 5423,185;  244,329; 8144,638;65,55257
 996,45; 5357,492;  239,790; 8037,408;65,63161
 997,00; 5284,569;  226,790; 7917,715;65,76295
 997,55; 5301,646;  248,098; 7891,638;66,11528
 998,10; 5235,108;  273,790; 7767,792;66,20384
 998,65; 5210,800;  244,560; 7756,177;66,11413
 999,19; 5179,185;  277,252; 7628,023;66,68597
 999,74; 5176,415;  287,944; 7559,869;67,22389
1000,29; 5098,262;  265,483; 7439,177;67,36806
1000,84; 5008,569;  247,483; 7371,254;66,83379
1001,38; 4990,877;  254,637; 7303,254;67,19389
1001,93; 4952,262;  262,790; 7254,408;67,07277
1002,48; 4833,877;  227,252; 7141,023;66,62970
1003,03; 4864,954;  272,867; 7085,715;67,40333
1003,57; 4804,954;  253,021; 6971,638;67,75103
1004,12; 4807,185;  293,790; 6974,715;67,55643
1004,67; 4709,723;  248,175; 6895,715;67,11577
1005,22; 4594,877;  242,637; 6718,177;67,21046
1005,76; 4552,492;  232,867; 6636,562;67,45520
1006,31; 4563,877;  264,329; 6606,946;67,78823
1006,86; 4457,108;  239,713; 6484,485;67,53481
1007,40; 4424,492;  234,098; 6398,869;67,97323
1007,95; 4403,646;  251,329; 6333,715;68,26790
1008,50; 4308,031;  251,790; 6225,715;67,89908
1009,04; 4289,031;  248,944; 6176,638;68,15612
1009,59; 4180,877;  260,329; 6062,254;67,57323
1010,14; 4164,800;  239,329; 5975,792;68,43016
1010,68; 4106,031;  247,560; 5875,715;68,55658
1011,23; 4070,569;  238,329; 5830,408;68,52980
1011,78; 4020,492;  247,483; 5775,023;68,25838
1012,32; 3977,569;  276,560; 5679,485;68,50011
1012,87; 3988,723;  270,021; 5623,562;69,46248
1013,42; 3887,338;  226,329; 5490,638;69,54396
1013,96; 3921,800;  280,637; 5559,254;68,97949
1014,51; 3808,031;  211,098; 5476,408;68,31379
1015,06; 3807,723;  207,867; 5445,715;68,72776
1015,60; 3868,338;  287,713; 5507,100;68,60241
1016,15; 3811,108;  222,329; 5436,638;68,82558
1016,69; 3820,569;  246,790; 5461,562;68,53184
1017,24; 3792,800;  225,560; 5464,254;68,09408
1017,79; 3863,108;  289,175; 5519,869;68,32616
1018,33; 3784,723;  243,483; 5516,792;67,15404
1018,88; 3825,877;  259,175; 5560,946;67,27378
1019,42; 3805,185;  236,252; 5525,869;67,47053
1019,97; 3781,569;  224,175; 5524,638;67,11478
1020,51; 3846,262;  278,944; 5624,638;66,73254
1021,06; 3777,415;  217,560; 5582,408;66,35520
1021,61; 3753,492;  204,483; 5550,869;66,38146
1022,15; 3717,185;  187,944; 5520,869;66,17832
1022,70; 3736,338;  239,637; 5536,331;66,01668
1023,24; 3699,185;  237,483; 5489,562;65,91108
1023,79; 3657,031;  241,483; 5439,869;65,70400
1024,33; 3671,492;  226,329; 5403,023;66,55142
1024,88; 3617,646;  250,252; 5347,946;66,05720
1025,42; 3558,646;  250,944; 5235,485;66,35922
1025,97; 3521,415;  223,713; 5209,946;66,13614
1026,51; 3447,262;  208,713; 5069,946;66,61989
1027,06; 3413,723;  228,252; 5058,023;65,95491
1027,60; 3373,262;  260,867; 4993,100;65,77010
1028,15; 3370,262;  261,944; 4895,023;67,08967
1028,69; 3251,723;  201,483; 4763,869;66,85625
1029,24; 3219,646;  228,098; 4756,869;66,05651
1029,78; 3179,185;  224,790; 4650,485;66,75550
1030,33; 3107,800;  214,944; 4564,792;66,50475
1030,87; 3087,338;  217,713; 4530,869;66,53191
1031,42; 3037,877;  205,021; 4447,869;66,76779
1031,96; 3067,723;  241,713; 4411,254;67,77749
1032,51; 2970,492;  216,483; 4338,331;66,81492
1033,05; 2957,415;  231,098; 4313,485;66,78244
1033,60; 2877,877;  196,406; 4159,023;67,66919
1034,14; 2835,954;  222,790; 4158,408;66,39780
1034,69; 2834,415;  228,790; 4116,869;67,01574
1035,23; 2782,877;  228,483; 4029,331;67,20590
1035,77; 2781,646;  223,637; 3970,869;68,26397
1036,32; 2719,569;  192,944; 3925,792;67,68625
1036,86; 2707,492;  239,637; 3893,946;67,53275
1037,41; 2677,723;  231,252; 3818,408;68,20086
1037,95; 2601,723;  197,483; 3722,946;68,19643
1038,50; 2568,185;  211,944; 3698,792;67,57508
1039,04; 2607,338;  247,560; 3681,023;68,72882
1039,58; 2511,031;  206,483; 3613,638;67,63847
1040,13; 2479,108;  222,098; 3577,254;67,26989
1040,67; 2511,031;  253,329; 3554,946;68,38170
1041,21; 2463,415;  259,637; 3485,946;68,30649
1041,76; 2390,262;  220,329; 3414,715;67,92956
1042,30; 2372,800;  213,098; 3370,023;68,41157
1042,85; 2328,108;  218,944; 3296,023;68,54434
1043,39; 2307,415;  216,329; 3252,331;68,87632
1043,93; 2316,031;  238,406; 3252,638;68,92716
1044,48; 2268,492;  244,560; 3189,177;68,73330
1045,02; 2217,646;  226,329; 3149,023;68,13293
1045,56; 2224,877;  251,098; 3119,946;68,80040
1046,11; 2162,492;  228,406; 3101,792;67,31035
1046,65; 2143,108;  242,867; 3022,638;68,35960
1047,19; 2106,031;  205,713; 2951,715;69,20306
1047,74; 2043,185;  207,252; 2893,869;68,33622
1048,28; 2054,800;  233,637; 2909,254;68,06517
1048,82; 2056,723;  266,329; 2917,562;67,53063
1049,37; 2015,877;  243,560; 2852,485;67,93286
1049,91; 2004,877;  238,329; 2817,792;68,48510
1050,45; 1944,338;  238,098; 2748,715;67,96099
1050,99; 1944,338;  239,175; 2724,946;68,59696
1051,54; 1892,800;  211,713; 2658,869;68,69553
1052,08; 1892,262;  251,021; 2650,023;68,41347
1052,62; 1894,723;  246,790; 2624,869;69,29681
1053,16; 1831,415;  225,098; 2571,254;68,46593
1053,71; 1804,492;  246,175; 2554,562;67,50678
1054,25; 1791,569;  245,406; 2518,946;68,00686
1054,79; 1784,646;  247,867; 2507,792;68,00132
1055,33; 1714,492;  202,098; 2420,408;68,17778
1055,88; 1722,108;  228,790; 2414,331;68,32714
1056,42; 1688,646;  239,098; 2403,792;66,96318
1056,96; 1694,492;  253,790; 2363,638;68,28463
1057,50; 1652,185;  248,790; 2321,331;67,71372
1058,05; 1628,108;  241,637; 2280,023;68,01807
1058,59; 1615,108;  259,252; 2233,946;68,66156
1059,13; 1567,569;  211,790; 2196,715;68,30378
1059,67; 1556,492;  246,483; 2206,254;66,84503
1060,21; 1533,646;  238,867; 2142,638;68,01127
1060,76; 1536,185;  237,944; 2139,408;68,27585
1061,30; 1508,338;  265,175; 2115,562;67,18399
1061,84; 1493,877;  243,406; 2048,869;69,26040
1062,38; 1444,954;  216,175; 2001,023;68,84501
1062,92; 1501,800;  278,944; 2050,946;69,00984
1063,46; 1448,492;  246,713; 1974,946;69,53802
1064,01; 1403,262;  236,713; 1952,562;67,98668
1064,55; 1391,569;  257,867; 1931,638;67,73339
1065,09; 1373,185;  214,713; 1849,177;70,87776
1065,63; 1384,338;  268,790; 1901,946;68,30629
1066,17; 1380,185;  270,867; 1877,946;69,02694
1066,71; 1323,800;  266,098; 1856,254;66,51562
1067,25; 1330,877;  232,944; 1800,638;70,03487
1067,80; 1327,108;  258,252; 1796,792;69,47206
1068,34; 1316,415;  282,713; 1790,023;68,57927
1068,88; 1273,338;  229,329; 1720,023;70,03513
1069,42; 1292,185;  270,098; 1755,485;68,80947
1069,96; 1269,569;  251,252; 1713,023;69,66325
1070,50; 1272,569;  284,175; 1715,869;69,03668
1071,04; 1214,108;  229,406; 1649,408;69,34511
1071,58; 1222,031;  240,790; 1638,408;70,20809
1072,12; 1195,415;  250,790; 1630,562;68,46244
1072,66; 1192,569;  249,944; 1619,177;68,84330
1073,21; 1207,338;  266,790; 1612,562;69,88915
1073,75; 1172,492;  246,637; 1570,562;69,93264
1074,29; 1152,415;  243,713; 1540,869;70,05342
1074,83; 1172,338;  266,944; 1545,408;70,81894
1075,37; 1161,185;  270,483; 1536,100;70,37688
1075,91; 1131,800;  250,021; 1510,485;69,95672
1076,45; 1133,723;  260,867; 1497,331;70,59293
1076,99; 1133,262;  267,637; 1480,254;71,38485
1077,53; 1080,262;  252,483; 1423,100;70,71302
1078,07; 1101,954;  259,867; 1431,408;71,87858
1078,61; 1061,800;  250,867; 1394,023;70,93807
1079,15; 1043,415;  249,175; 1370,408;70,83636
1079,69; 1039,185;  247,944; 1388,254;69,38821
1080,23; 1044,877;  272,713; 1404,408;68,23075
1080,77; 1104,877;  318,483; 1428,946;70,81676
1081,31; 1006,262;  251,021; 1340,100;69,34671
1081,85; 1015,108;  257,560; 1348,100;69,46539
1082,39;  989,031;  244,483; 1302,792;70,35258
1082,93; 1014,954;  267,406; 1341,485;69,59899
1083,47;  959,800;  235,790; 1259,715;70,70924
1084,01;  979,415;  260,560; 1298,254;69,27433
1084,55;  942,262;  240,944; 1239,485;70,23425
1085,09;  943,108;  255,944; 1271,254;67,68019
1085,63;  927,031;  244,406; 1236,177;68,82888
1086,17;  919,185;  244,021; 1198,177;70,76030
1086,71;  909,877;  227,637; 1204,100;69,86850
1087,24;  921,877;  272,867; 1220,485;68,48858
1087,78;  904,262;  274,252; 1210,562;67,28646
1088,32;  884,723;  230,944; 1146,562;71,40307
1088,86;  900,185;  262,021; 1171,254;70,18703
1089,40;  882,108;  252,867; 1140,485;70,89095
1089,94;  858,338;  227,713; 1116,562;70,94857
1090,48;  854,338;  259,790; 1110,254;69,90871
1091,02;  864,031;  262,175; 1139,023;68,63855
1091,56;  829,185;  239,560; 1093,331;69,06125
1092,10;  811,492;  228,406; 1055,331;70,51263
1092,63;  850,800;  272,637; 1117,331;68,44648
1093,17;  831,338;  262,098; 1074,331;70,08341
1093,71;  794,646;  243,713; 1032,177;69,87422
1094,25;  826,569;  264,252; 1068,946;69,87962
1094,79;  774,338;  244,483; 1016,485;68,63400
1095,33;  787,262;  256,483; 1020,100;69,50849
1095,87;  777,415;  258,329; 1002,254;69,77673
1096,40;  732,031;  227,329;  955,408;69,31968
1096,94;  760,646;  257,329;  993,254;68,39247
1097,48;  764,800;  267,637;  981,023;69,69061
1098,02;  723,031;  239,944;  954,254;67,62985
1098,56;  704,415;  223,637;  921,638;68,87930
1099,10;  695,723;  227,483;  907,254;68,88206
1099,63;  702,569;  236,483;  903,177;69,91009
1100,17;  723,723;  254,944;  926,023;69,85451
1100,71;  758,877;  282,790;  936,485;72,83016

