
Integration time [ms]: 150,000
Averaging Nr. [scans]: 13
Smoothing Nr. [pixels]: 0
Data measured with spectrometer [name]: 2009305U1
Wave   ;Sample   ;Dark     ;Reference;Reflectance
[nm]   ;[counts] ;[counts] ;[counts] ;[%]

 175,72;  223,994;  211,210;  219,839;148,14586
 176,32;  247,064;  238,359;  235,111; 0,00000
 176,92;  285,541;  280,286;  286,352;86,64104
 177,52;  273,379;  274,209;  278,215;-20,73073
 178,12;  253,773;  249,436;  251,705;191,12987
 178,72;  276,175;  281,973;  260,310; 0,00000
 179,32;  266,824;  265,128;  266,225;154,70446
 179,92;  269,465;  265,515;  265,978; 0,00000
 180,52;  255,515;  258,367;  268,579;-27,92670
 181,12;  277,251;  269,207;  271,317;381,21738
 181,73;  295,542;  284,362;  283,857; 0,00000
 182,33;  390,472;  386,749;  405,616;19,73430
 182,93;  289,191;  289,440;  290,593;-21,60182
 183,53;  248,885;  265,665;  248,819; 0,00000
 184,13;  266,765;  259,589;  248,344; 0,00000
 184,73;  297,269;  299,126;  294,762; 0,00000
 185,33;  274,055;  254,019;  345,473;21,90808
 185,93;  272,680;  260,862;  362,838;11,58908
 186,53;  284,389;  260,325;  382,013;19,77486
 187,13;  307,593;  285,483;  415,827;16,96271
 187,73;  283,235;  255,016;  363,692;25,96644
 188,33;  275,800;  250,245;  375,280;20,43833
 188,93;  288,810;  269,008;  378,002;18,16828
 189,53;  279,487;  267,003;  398,671; 9,48131
 190,13;  321,198;  304,302;  434,752;12,95187
 190,73;  262,701;  237,231;  368,824;19,35520
 191,34;  302,212;  272,390;  406,065;22,30939
 191,94;  275,211;  248,550;  376,661;20,81037
 192,54;  277,455;  272,409;  385,011; 4,48165
 193,14;  294,337;  275,560;  397,986;15,33738
 193,74;  293,542;  282,328;  382,193;11,22892
 194,34;  289,533;  268,176;  385,065;18,27117
 194,94;  249,610;  246,636;  342,210; 3,11139
 195,54;  226,679;  219,250;  332,873; 6,53800
 196,14;  253,251;  239,407;  348,372;12,70427
 196,74;  251,867;  234,480;  340,255;16,43771
 197,34;  219,105;  201,564;  336,743;12,97619
 197,94;  265,952;  243,483;  374,221;17,18606
 198,54;  277,088;  249,254;  377,640;21,68038
 199,14;  249,592;  221,411;  366,592;19,41050
 199,74;  230,626;  218,873;  344,214; 9,37677
 200,34;  225,019;  211,258;  354,490; 9,60745
 200,94;  266,891;  250,102;  385,688;12,38296
 201,54;  245,968;  223,872;  405,188;12,18637
 202,14;  279,600;  258,567;  451,776;10,88620
 202,74;  242,993;  222,873;  429,928; 9,71759
 203,34;  224,086;  210,337;  438,885; 6,01582
 203,94;  202,924;  183,567;  433,807; 7,73554
 204,54;  278,174;  268,406;  530,748; 3,72319
 205,14;  233,891;  196,642;  526,552;11,29058
 205,74;  281,557;  256,491;  594,026; 7,42602
 206,34;  241,865;  226,797;  588,575; 4,16482
 206,94;  263,899;  228,489;  631,755; 8,78080
 207,54;  227,848;  193,720;  634,827; 7,73678
 208,14;  244,155;  209,336;  719,908; 6,81964
 208,74;  244,566;  209,796;  773,573; 6,16740
 209,34;  246,173;  203,950;  836,153; 6,67868
 209,94;  266,250;  225,180;  911,177; 5,98679
 210,54;  266,591;  210,414;  983,076; 7,27063
 211,14;  267,566;  219,873; 1067,857; 5,62432
 211,73;  274,976;  219,333; 1152,814; 5,96082
 212,33;  283,934;  239,025; 1232,836; 4,51891
 212,93;  281,728;  221,488; 1322,715; 5,47033
 213,53;  246,831;  193,796; 1352,349; 4,57772
 214,13;  290,402;  228,031; 1439,039; 5,15036
 214,73;  250,600;  201,413; 1433,237; 3,99302
 215,33;  241,019;  183,565; 1450,562; 4,53465
 215,93;  300,317;  218,876; 1562,395; 6,06182
 216,53;  247,805;  177,334; 1610,508; 4,91717
 217,13;  293,540;  223,567; 1772,350; 4,51789
 217,73;  291,924;  211,953; 1909,715; 4,71040
 218,33;  270,701;  170,416; 1998,465; 5,48592
 218,93;  317,393;  199,804; 2256,578; 5,71712
 219,53;  348,505;  193,878; 2457,318; 6,83151
 220,13;  315,590;  165,648; 2715,314; 5,88086
 220,73;  364,933;  196,258; 2974,344; 6,07166
 221,32;  373,874;  192,180; 3284,112; 5,87638
 221,92;  419,633;  208,186; 3589,947; 6,25257
 222,52;  407,480;  172,337; 3885,540; 6,33260
 223,12;  438,274;  193,799; 4216,790; 6,07695
 223,72;  477,386;  200,876; 4530,489; 6,38647
 224,32;  485,044;  202,800; 4842,127; 6,08373
 224,92;  501,642;  185,646; 5053,662; 6,49127
 225,52;  537,010;  214,874; 5374,992; 6,24281
 226,12;  534,189;  196,337; 5558,458; 6,30073
 226,72;  539,830;  175,952; 5803,857; 6,46561
 227,31;  560,890;  166,182; 6079,777; 6,67458
 227,91;  628,215;  214,643; 6386,690; 6,70074
 228,51;  629,908;  189,102; 6656,797; 6,81551
 229,11;  676,506;  200,798; 6967,339; 7,03030
 229,71;  683,831;  180,641; 7214,628; 7,15369
 230,31;  704,343;  180,416; 7483,812; 7,17374
 230,91;  726,045;  171,639; 7733,655; 7,33146
 231,51;  765,830;  173,491; 7951,943; 7,61513
 232,10;  806,718;  185,416; 8162,007; 7,78907
 232,70;  831,687;  194,637; 8372,758; 7,78968
 233,30;  890,369;  215,952; 8534,145; 8,10773
 233,90;  890,659;  187,491; 8662,449; 8,29701
 234,50;  907,052;  187,030; 8700,749; 8,45721
 235,10;  924,411;  176,492; 8734,354; 8,73956
 235,70;  975,788;  215,873; 8729,182; 8,92620
 236,29;  976,104;  193,718; 8613,828; 9,29187
 236,89;  967,250;  163,563; 8461,795; 9,68505
 237,49; 1013,642;  201,798; 8375,802; 9,93203
 238,09;  982,095;  193,490; 8112,345; 9,95858
 238,69; 1049,977;  233,946; 7921,225;10,61534
 239,29;  995,925;  191,182; 7634,005;10,81234
 239,89;  999,498;  193,178; 7351,182;11,26459
 240,48;  973,309;  179,413; 7022,188;11,60197
 241,08;  968,036;  192,104; 6725,598;11,87621
 241,68;  962,634;  207,720; 6503,090;11,99157
 242,28;  926,275;  173,644; 6208,935;12,47049
 242,88;  968,821;  234,416; 5978,661;12,78506
 243,48;  942,070;  233,567; 5695,796;12,97094
 244,07;  910,198;  209,873; 5548,840;13,11724
 244,67;  944,300;  207,875; 5400,152;14,18310
 245,27;  911,823;  216,641; 5286,737;13,71141
 245,87;  936,420;  218,185; 5191,014;14,44318
 246,47;  925,455;  203,026; 5187,971;14,49222
 247,06;  932,070;  184,489; 5185,657;14,94812
 247,66;  941,600;  180,336; 5215,136;15,12004
 248,26;  981,694;  215,103; 5355,809;14,91218
 248,86;  993,754;  211,410; 5496,138;14,80386
 249,46;  973,950;  159,568; 5668,629;14,78259
 250,05; 1068,164;  204,720; 5986,021;14,93511
 250,65; 1073,421;  187,871; 6167,859;14,80855
 251,25; 1116,668;  186,643; 6617,318;14,46233
 251,85; 1188,549;  197,716; 7047,216;14,46577
 252,44; 1214,549;  166,872; 7553,263;14,18388
 253,04; 1311,395;  199,027; 8118,805;14,04545
 253,64; 1332,472;  164,486; 8738,018;13,62316
 254,24; 1498,207;  207,182; 9500,630;13,89178
 254,84; 1569,027;  184,953;10343,706;13,62445
 255,43; 1632,857;  197,565;11114,700;13,14715
 256,03; 1751,036;  193,025;11984,037;13,21355
 256,63; 1845,156;  204,870;12838,099;12,98390
 257,23; 1918,310;  186,332;13650,075;12,86402
 257,82; 1989,097;  205,253;14628,421;12,36790
 258,42; 2038,430;  158,868;15329,840;12,38920
 259,02; 2166,660;  209,950;16241,836;12,20512
 259,62; 2179,251;  168,636;16840,254;12,06011
 260,21; 2212,327;  196,565;17450,764;11,68273
 260,81; 2251,736;  194,413;17992,983;11,55892
 261,41; 2269,943;  181,253;18444,469;11,43660
 262,01; 2313,901;  223,636;18940,842;11,16761
 262,60; 2278,002;  175,486;19269,383;11,01146
 263,20; 2281,011;  187,256;19666,922;10,74841
 263,80; 2323,012;  212,559;19809,334;10,76939
 264,40; 2289,995;  172,251;20067,643;10,64439
 264,99; 2272,140;  211,251;20302,700;10,25754
 265,59; 2261,808;  186,787;20477,711;10,22635
 266,19; 2256,431;  180,636;20695,956;10,11827
 266,78; 2258,311;  233,019;20808,334; 9,84331
 267,38; 2212,372;  198,403;20827,682; 9,76267
 267,98; 2192,226;  192,481;20843,731; 9,68341
 268,58; 2161,354;  203,018;20903,679; 9,46026
 269,17; 2114,671;  187,016;20957,009; 9,28096
 269,77; 2111,866;  203,100;20879,353; 9,23168
 270,37; 2063,174;  175,635;20705,884; 9,19394
 270,96; 2070,242;  226,946;20633,688; 9,03278
 271,56; 2012,293;  186,255;20455,634; 9,00885
 272,16; 1952,618;  189,714;20189,875; 8,81445
 272,75; 1950,080;  183,945;20272,543; 8,79173
 273,35; 1928,507;  202,715;20236,517; 8,61440
 273,95; 1894,114;  194,715;20101,472; 8,53680
 274,54; 1873,813;  189,797;20201,359; 8,41522
 275,14; 1919,875;  213,946;20492,182; 8,41261
 275,74; 1858,106;  177,330;20486,687; 8,27587
 276,33; 1936,533;  218,716;20803,386; 8,34513
 276,93; 1943,531;  193,798;21101,099; 8,36901
 277,53; 1956,600;  192,411;21620,065; 8,23324
 278,12; 1984,455;  171,640;21953,294; 8,32267
 278,72; 2076,720;  244,180;22466,776; 8,24629
 279,32; 2080,224;  197,257;22982,101; 8,26412
 279,91; 2116,968;  172,641;23591,053; 8,30256
 280,51; 2177,122;  189,872;23952,577; 8,36289
 281,11; 2216,335;  176,564;24617,127; 8,34585
 281,70; 2270,507;  173,948;25020,332; 8,43808
 282,30; 2312,601;  187,332;25560,327; 8,37611
 282,90; 2393,037;  182,562;25900,899; 8,59493
 283,49; 2479,695;  207,023;26268,446; 8,72045
 284,09; 2537,498;  216,948;26763,393; 8,74147
 284,69; 2574,472;  221,410;27083,359; 8,75983
 285,28; 2618,772;  204,025;27335,695; 8,90010
 285,88; 2752,670;  263,714;27558,447; 9,11881
 286,47; 2729,079;  202,562;27665,739; 9,19965
 287,07; 2836,805;  223,564;27693,556; 9,51308
 287,67; 2932,531;  208,260;27810,411; 9,86978
 288,26; 2955,139;  183,487;27831,777;10,02468
 288,86; 3056,293;  192,409;27780,514;10,38086
 289,46; 3176,575;  201,948;28017,758;10,69401
 290,05; 3252,096;  179,489;28030,312;11,03237
 290,65; 3377,020;  199,177;28193,098;11,35190
 291,24; 3517,848;  194,872;28329,040;11,81118
 291,84; 3677,079;  217,409;28469,176;12,24586
 292,44; 3819,206;  199,414;28563,052;12,76209
 293,03; 3995,532;  277,872;28746,923;13,05860
 293,63; 4065,097;  201,793;28796,357;13,51062
 294,22; 4195,575;  216,641;28972,167;13,83711
 294,82; 4288,132;  190,329;29038,924;14,20451
 295,41; 4309,353;  179,717;28741,332;14,45869
 296,01; 4438,764;  224,252;28716,960;14,79154
 296,61; 4517,575;  224,257;28459,378;15,20559
 297,20; 4482,259;  206,176;28170,096;15,29143
 297,80; 4583,343;  212,182;28132,858;15,65564
 298,39; 4571,088;  187,563;27753,524;15,90195
 298,99; 4641,644;  216,407;27623,153;16,14652
 299,58; 4627,728;  207,567;27562,992;16,15826
 300,18; 4663,942;  223,181;27299,287;16,40103
 300,78; 4638,181;  191,565;27016,165;16,57664
 301,37; 4678,021;  205,327;27044,086;16,66505
 301,97; 4733,327;  216,948;27053,448;16,82924
 302,56; 4729,370;  180,870;26910,529;17,01668
 303,16; 4752,798;  168,100;26880,826;17,16297
 303,75; 4786,976;  198,719;26905,775;17,17994
 304,35; 4872,462;  186,568;27131,436;17,39067
 304,94; 4948,156;  192,333;27120,113;17,66140
 305,54; 4920,797;  222,796;27073,881;17,49650
 306,13; 4912,770;  158,953;27079,258;17,65885
 306,73; 4932,642;  178,644;26829,317;17,83819
 307,33; 5022,753;  204,721;26837,088;18,09089
 307,92; 5033,857;  215,334;26898,695;18,05816
 308,52; 5055,105;  175,561;27253,927;18,02008
 309,11; 5186,875;  194,637;27664,861;18,17327
 309,71; 5247,832;  172,328;27967,959;18,26008
 310,30; 5338,318;  191,180;28164,104;18,40043
 310,90; 5449,087;  235,257;28445,181;18,48226
 311,49; 5471,609;  191,718;28591,433;18,59135
 312,09; 5443,805;  164,489;28799,598;18,43651
 312,68; 5634,600;  263,180;29061,811;18,65165
 313,28; 5628,011;  171,257;29195,234;18,80085
 313,87; 5617,558;  162,487;29338,553;18,69707
 314,47; 5708,883;  180,791;29582,828;18,80173
 315,06; 5745,361;  176,949;29634,434;18,90322
 315,66; 5784,959;  174,027;29838,983;18,91434
 316,25; 5741,045;  154,254;29707,112;18,90440
 316,85; 5779,540;  164,951;29844,952;18,91708
 317,44; 5816,268;  190,099;29965,107;18,89561
 318,04; 5854,823;  169,255;29952,748;19,08966
 318,63; 5847,266;  162,029;30035,972;19,03076
 319,22; 5888,131;  191,716;30189,128;18,98969
 319,82; 5912,105;  185,640;30266,455;19,03693
 320,41; 5882,977;  197,562;30140,489;18,98751
 321,01; 5918,600;  197,719;30224,613;19,05252
 321,60; 5942,011;  197,486;30290,966;19,08893
 322,20; 5905,070;  175,872;30278,437;19,03226
 322,79; 5913,831;  218,795;30386,859;18,87770
 323,39; 5947,941;  184,183;30387,488;19,08320
 323,98; 5919,335;  174,103;30420,496;18,99477
 324,58; 5907,498;  179,485;30356,813;18,98118
 325,17; 5914,729;  192,023;30287,818;19,01497
 325,76; 5877,352;  197,410;30100,390;18,99457
 326,36; 5821,267;  175,489;29826,570;19,04072
 326,95; 5781,780;  219,025;29616,480;18,92257
 327,55; 5691,900;  174,486;29302,445;18,94199
 328,14; 5650,916;  173,951;28946,224;19,03557
 328,74; 5606,644;  208,101;28545,984;19,05062
 329,33; 5555,677;  200,950;28335,099;19,03284
 329,92; 5401,319;  175,022;27842,756;18,88950
 330,52; 5316,155;  199,105;27254,317;18,91336
 331,11; 5270,096;  196,948;26905,621;18,99439
 331,71; 5126,660;  187,179;26370,284;18,86515
 332,30; 5084,694;  195,256;26084,189;18,88621
 332,89; 5053,891;  263,719;25567,427;18,93071
 333,49; 4917,173;  203,486;25049,289;18,97176
 334,08; 4834,430;  186,717;24639,713;19,00672
 334,68; 4728,840;  181,178;24338,140;18,82547
 335,27; 4687,129;  202,721;23951,048;18,88305
 335,86; 4676,096;  254,255;23773,621;18,80085
 336,46; 4592,266;  201,259;23539,405;18,81472
 337,05; 4518,772;  183,563;23364,156;18,70189
 337,65; 4474,156;  160,948;23286,565;18,65121
 338,24; 4520,079;  235,642;23232,838;18,63026
 338,83; 4500,284;  214,334;23044,540;18,77315
 339,43; 4422,567;  185,177;23179,624;18,42788
 340,02; 4418,122;  187,100;23090,444;18,47338
 340,61; 4437,275;  204,103;23105,317;18,48449
 341,21; 4486,721;  221,639;23102,830;18,64012
 341,80; 4435,336;  192,871;23027,556;18,57904
 342,40; 4429,053;  186,721;23106,096;18,50981
 342,99; 4508,275;  195,950;23249,812;18,70544
 343,58; 4486,292;  188,027;23336,406;18,56832
 344,18; 4513,249;  211,027;23501,004;18,47242
 344,77; 4562,174;  171,946;23713,863;18,64856
 345,36; 4595,011;  169,948;23982,249;18,58310
 345,96; 4689,463;  208,104;24303,794;18,59818
 346,55; 4684,232;  176,876;24492,922;18,53655
 347,14; 4747,848;  173,105;24746,293;18,61680
 347,74; 4784,411;  152,186;25075,935;18,58559
 348,33; 4947,231;  192,724;25719,170;18,62581
 348,92; 5067,709;  204,110;26157,009;18,74010
 349,52; 5096,581;  161,879;26639,250;18,63743
 350,11; 5174,216;  186,177;26847,188;18,70912
 350,70; 5217,404;  183,718;26963,736;18,79642
 351,29; 5148,217;  164,019;26696,100;18,78555
 351,89; 5174,020;  197,791;26695,513;18,77984
 352,48; 5121,224;  163,718;26809,385;18,60530
 353,07; 5147,488;  195,875;26673,903;18,70084
 353,67; 5139,137;  204,187;26612,724;18,68695
 354,26; 5123,395;  200,259;26397,179;18,79280
 354,85; 5085,566;  196,951;26325,534;18,70984
 355,45; 5035,054;  164,563;26194,801;18,71090
 356,04; 5070,676;  177,029;26137,809;18,85016
 356,63; 5069,071;  223,563;25949,606;18,83503
 357,22; 5006,995;  189,020;25757,303;18,84356
 357,82; 4986,234;  188,252;25677,760;18,82336
 358,41; 4953,976;  213,564;25592,300;18,67868
 359,00; 4872,806;  170,562;25463,741;18,59096
 359,60; 4947,301;  187,949;25318,490;18,93852
 360,19; 4945,514;  210,183;25197,413;18,95100
 360,78; 4882,754;  184,178;25028,254;18,91226
 361,37; 4843,712;  191,332;24979,030;18,76891
 361,97; 4829,874;  198,025;24760,050;18,85776
 362,56; 4823,328;  180,100;24554,526;19,04959
 363,15; 4834,447;  247,409;24384,202;19,00434
 363,74; 4731,926;  195,560;24035,490;19,02844
 364,34; 4689,609;  210,562;23692,079;19,07478
 364,93; 4608,276;  182,638;23376,310;19,08123
 365,52; 4556,789;  157,640;23014,467;19,24654
 366,11; 4528,891;  180,254;22762,319;19,25704
 366,71; 4454,515;  176,485;22404,821;19,24584
 367,30; 4437,378;  186,794;22125,708;19,37463
 367,89; 4453,984;  225,797;21940,565;19,47149
 368,48; 4392,764;  210,484;21650,964;19,50647
 369,07; 4333,173;  196,564;21260,582;19,63827
 369,67; 4280,610;  213,022;21081,993;19,49108
 370,26; 4251,472;  183,642;20727,594;19,80062
 370,85; 4217,242;  193,794;20484,043;19,82946
 371,44; 4211,977;  190,564;20344,195;19,95379
 372,03; 4148,387;  158,254;20084,965;20,02404
 372,63; 4109,438;  169,948;19851,219;20,01644
 373,22; 4069,617;  182,718;19566,064;20,05278
 373,81; 4056,848;  165,717;19257,156;20,38155
 374,40; 4021,155;  184,874;19095,341;20,28655
 374,99; 4016,558;  180,870;18818,155;20,58072
 375,59; 3946,275;  176,797;18649,898;20,40523
 376,18; 3976,096;  205,255;18485,669;20,62777
 376,77; 3936,694;  204,718;18322,983;20,59787
 377,36; 3999,831;  210,409;18254,461;21,00095
 377,95; 3902,815;  202,870;18024,449;20,76104
 378,55; 3882,446;  182,181;17939,536;20,83793
 379,14; 3927,823;  206,871;17780,036;21,17406
 379,73; 3916,883;  193,947;17711,692;21,25237
 380,32; 3958,806;  199,718;17803,167;21,35427
 380,91; 3930,165;  170,253;17635,943;21,52742
 381,50; 3957,131;  198,561;17607,379;21,59003
 382,10; 3963,652;  175,256;17520,244;21,84144
 382,69; 3940,874;  169,025;17476,839;21,79275
 383,28; 4012,977;  215,562;17412,792;22,08155
 383,87; 3988,114;  185,023;17300,327;22,22041
 384,46; 3985,619;  175,482;17238,428;22,32989
 385,05; 4044,738;  207,484;17208,185;22,57115
 385,64; 4052,891;  181,793;17237,165;22,69724
 386,24; 4048,012;  164,405;17209,954;22,78370
 386,83; 4127,311;  202,174;17219,270;23,06584
 387,42; 4165,268;  201,331;17280,640;23,20900
 388,01; 4224,799;  189,788;17463,012;23,35992
 388,60; 4288,089;  189,021;17692,420;23,41869
 389,19; 4322,047;  188,631;17776,810;23,50110
 389,78; 4442,970;  174,555;18081,791;23,83626
 390,37; 4602,935;  250,635;18425,585;23,94670
 390,96; 4603,721;  190,482;18538,289;24,05322
 391,56; 4661,612;  193,707;18650,999;24,20672
 392,15; 4722,209;  178,094;18893,374;24,28024
 392,74; 4721,963;  149,934;19049,831;24,19076
 393,33; 4873,432;  188,245;19341,004;24,46221
 393,92; 4981,160;  189,933;19701,937;24,55528
 394,51; 5019,373;  168,707;19784,570;24,72828
 395,10; 5148,315;  208,081;20078,734;24,86196
 395,69; 5176,093;  200,236;20168,346;24,91902
 396,28; 5215,589;  192,156;20289,710;24,99525
 396,87; 5253,197;  192,921;20384,471;25,06136
 397,46; 5341,822;  201,764;20462,379;25,36971
 398,06; 5410,669;  222,914;20668,445;25,37354
 398,65; 5424,903;  177,904;20697,307;25,57091
 399,24; 5502,826;  214,980;20815,419;25,66861
 399,83; 5496,154;  180,735;20785,856;25,79659
 400,42; 5621,465;  227,107;20996,048;25,97320
 401,01; 5650,922;  187,862;21115,874;26,10406
 401,60; 5662,030;  205,459;21093,710;26,12268
 402,19; 5720,359;  228,828;21076,134;26,34168
 402,78; 5725,262;  214,266;21090,613;26,39828
 403,37; 5711,294;  196,320;20908,625;26,62656
 403,96; 5701,634;  204,371;20808,678;26,68016
 404,55; 5711,325;  215,650;20680,261;26,85453
 405,14; 5645,982;  194,239;20596,325;26,72150
 405,73; 5749,178;  194,054;20538,783;27,30498
 406,32; 5732,064;  208,802;20506,156;27,21173
 406,91; 5694,532;  199,778;20219,544;27,44664
 407,50; 5673,133;  216,689;20140,040;27,38718
 408,09; 5613,717;  175,142;19900,824;27,57104
 408,68; 5601,769;  195,751;19757,492;27,63567
 409,27; 5602,366;  170,605;19620,873;27,92641
 409,86; 5586,498;  195,701;19514,918;27,90381
 410,45; 5644,673;  227,024;19420,853;28,22599
 411,04; 5653,113;  222,271;19389,900;28,33341
 411,63; 5583,407;  211,446;19122,469;28,40650
 412,22; 5547,966;  210,311;18965,820;28,45913
 412,81; 5501,913;  206,010;18723,003;28,60023
 413,40; 5458,902;  218,019;18411,480;28,80641
 413,99; 5460,603;  266,939;18222,700;28,92478
 414,58; 5264,141;  182,787;17844,281;28,77081
 415,17; 5265,024;  207,010;17610,702;29,06288
 415,76; 5229,239;  192,157;17487,526;29,12388
 416,35; 5210,623;  187,237;17364,331;29,24468
 416,94; 5259,196;  219,312;17399,599;29,33527
 417,53; 5320,921;  188,703;17494,331;29,65635
 418,12; 5348,382;  187,243;17587,065;29,66202
 418,71; 5463,868;  219,635;17889,195;29,67948
 419,30; 5501,254;  197,398;17967,627;29,84686
 419,89; 5536,997;  185,784;18141,650;29,80203
 420,48; 5700,833;  215,327;18339,088;30,26693
 421,07; 5698,859;  206,713;18370,683;30,23648
 421,66; 5711,507;  185,102;18429,547;30,29089
 422,25; 5740,616;  184,417;18541,033;30,26810
 422,84; 5777,231;  210,880;18468,791;30,48734
 423,43; 5703,019;  193,107;18235,917;30,53799
 424,02; 5681,121;  221,955;18024,512;30,66506
 424,60; 5583,469;  184,503;17727,874;30,77496
 425,19; 5498,265;  199,421;17443,027;30,72933
 425,78; 5521,427;  217,883;17302,379;31,04302
 426,37; 5491,486;  219,502;17167,176;31,10742
 426,96; 5482,213;  204,040;17092,413;31,25329
 427,55; 5413,784;  203,276;16998,108;31,02447
 428,14; 5371,040;  193,817;16782,352;31,20964
 428,73; 5362,733;  207,428;16579,619;31,48818
 429,32; 5371,931;  223,117;16622,322;31,39673
 429,91; 5358,237;  232,197;16632,026;31,25667
 430,50; 5358,758;  211,508;16431,920;31,73316
 431,08; 5297,415;  216,049;16367,272;31,46119
 431,67; 5306,688;  261,128;16265,187;31,52675
 432,26; 5214,807;  275,977;16116,511;31,17844
 432,85; 5216,987;  299,668;15847,059;31,62793
 433,44; 5143,456;  294,364;15563,953;31,75653
 434,03; 5068,216;  306,292;15247,034;31,87207
 434,62; 4933,738;  264,749;14912,630;31,87484
 435,21; 4921,115;  287,899;14675,251;32,20339
 435,79; 4842,438;  277,444;14492,952;32,11278
 436,38; 4828,753;  273,141;14413,445;32,21722
 436,97; 4797,762;  271,911;14334,081;32,18458
 437,56; 4750,435;  262,456;14204,784;32,18960
 438,15; 4753,564;  253,608;14149,776;32,38271
 438,74; 4741,905;  269,532;14124,993;32,27878
 439,33; 4750,299;  243,685;14122,486;32,47121
 439,91; 4756,196;  220,996;14191,729;32,46215
 440,50; 4821,426;  249,919;14255,296;32,64109
 441,09; 4823,630;  261,615;14281,341;32,53997
 441,68; 4802,373;  230,235;14350,824;32,37923
 442,27; 4774,544;  229,002;14346,400;32,19816
 442,86; 4782,995;  198,626;14288,724;32,53610
 443,44; 4842,679;  203,548;14348,488;32,79711
 444,03; 4945,234;  283,165;14433,586;32,94651
 444,62; 4829,226;  211,780;14270,084;32,84497
 445,21; 4789,867;  223,010;14187,912;32,70239
 445,80; 4789,644;  253,245;14069,612;32,83351
 446,39; 4722,550;  285,937;13915,268;32,55195
 446,97; 4606,164;  209,019;13679,755;32,64220
 447,56; 4550,958;  212,100;13496,117;32,66224
 448,15; 4539,967;  210,558;13334,247;32,98927
 448,74; 4501,830;  225,866;13138,562;33,11442
 449,33; 4434,983;  222,946;13006,050;32,95004
 449,91; 4385,418;  205,796;12813,667;33,15089
 450,50; 4299,726;  209,565;12613,273;32,97531
 451,09; 4310,076;  220,411;12513,170;33,26889
 451,68; 4251,854;  229,259;12469,382;32,86400
 452,26; 4259,622;  233,800;12365,222;33,18508
 452,85; 4193,246;  205,953;12247,917;33,11166
 453,44; 4227,194;  216,343;12264,864;33,28915
 454,03; 4187,810;  198,032;12204,112;33,23131
 454,61; 4171,407;  196,882;12204,865;33,09902
 455,20; 4254,039;  228,731;12345,016;33,22230
 455,79; 4257,690;  234,958;12389,756;33,09583
 456,38; 4280,303;  229,426;12419,207;33,23174
 456,97; 4288,568;  201,656;12488,537;33,26241
 457,55; 4268,704;  212,043;12503,507;33,00389
 458,14; 4277,782;  244,194;12467,731;32,99854
 458,73; 4266,764;  220,813;12383,278;33,26588
 459,31; 4286,071;  246,278;12473,698;33,03880
 459,90; 4308,755;  265,507;12498,511;33,05197
 460,49; 4391,721;  320,660;12630,366;33,07196
 461,08; 4371,908;  228,434;12708,907;33,19966
 461,66; 4371,370;  226,047;12696,836;33,24026
 462,25; 4434,890;  227,743;12804,869;33,45078
 462,84; 4449,122;  250,896;12849,446;33,32308
 463,43; 4352,471;  201,978;12809,595;32,92051
 464,01; 4407,359;  218,211;12824,298;33,23115
 464,60; 4450,616;  278,823;12787,926;33,35006
 465,19; 4284,589;  198,058;12511,745;33,18690
 465,77; 4283,897;  215,214;12549,661;32,98634
 466,36; 4306,325;  241,209;12477,865;33,22081
 466,95; 4191,103;  222,671;12214,910;33,09167
 467,53; 4126,563;  214,755;12000,333;33,19148
 468,12; 4039,537;  254,063;11768,270;32,87655
 468,71; 3998,282;  217,674;11542,980;33,38195
 469,29; 3887,793;  200,833;11284,625;33,26443
 469,88; 3820,998;  206,296;11076,470;33,25339
 470,47; 3909,159;  277,377;11198,594;33,25438
 471,06; 3822,715;  221,531;11175,804;32,87470
 471,64; 3881,450;  218,991;11180,558;33,41182
 472,23; 3827,645;  196,075;11186,541;33,04291
 472,81; 3858,022;  200,533;11318,162;32,89810
 473,40; 3871,098;  207,998;11414,477;32,68734
 473,99; 4042,115;  322,306;11605,788;32,96685
 474,57; 3956,004;  214,075;11664,498;32,67939
 475,16; 4005,688;  227,226;11839,922;32,53734
 475,75; 4049,371;  240,616;11947,777;32,53355
 476,33; 4084,045;  242,696;11995,877;32,68349
 476,92; 4087,482;  233,845;12030,688;32,66668
 477,51; 4117,122;  236,848;12123,686;32,64345
 478,09; 4100,464;  239,464;12147,384;32,42380
 478,68; 4080,079;  238,080;12061,215;32,49560
 479,27; 4105,148;  266,385;12132,331;32,35109
 479,85; 4087,302;  235,542;12072,738;32,53946
 480,44; 4120,122;  216,620;12148,708;32,71432
 481,02; 4431,916;  234,545;13208,389;32,35256
 481,61; 4963,472;  268,083;14955,253;31,96932
 482,20; 5271,882;  233,315;16086,974;31,78173
 482,78; 5522,712;  270,696;16807,891;31,75880
 483,37; 5656,624;  249,088;17312,735;31,69039
 483,95; 5738,599;  289,165;17579,725;31,51681
 484,54; 5794,027;  299,775;17751,560;31,48247
 485,13; 5782,794;  261,938;17642,236;31,76503
 485,71; 5657,102;  235,937;17468,636;31,45860
 486,30; 5634,367;  287,783;17239,488;31,54010
 486,88; 5567,461;  353,322;16980,371;31,35938
 487,47; 5336,786;  295,554;16399,176;31,30496
 488,05; 5147,614;  278,786;15653,955;31,66683
 488,64; 4797,460;  273,250;14593,521;31,59304
 489,23; 4376,520;  294,017;13069,524;31,95570
 489,81; 3763,093;  295,249;11155,948;31,93021
 490,40; 3480,383;  246,711;10496,463;31,54878
 490,98; 3428,058;  227,251;10243,882;31,95492
 491,57; 3407,862;  257,326;10124,251;31,93027
 492,15; 3379,528;  227,405;10098,388;31,93322
 492,74; 3329,589;  238,709;10020,248;31,59911
 493,32; 3354,707;  260,251; 9944,783;31,95257
 493,91; 3270,681;  236,484; 9857,094;31,53852
 494,50; 3273,432;  242,258; 9793,626;31,73550
 495,08; 3246,851;  227,027; 9764,526;31,66264
 495,67; 3253,852;  250,637; 9742,939;31,63843
 496,25; 3184,091;  197,948; 9575,083;31,84494
 496,84; 3189,434;  202,483; 9641,341;31,64525
 497,42; 3185,962;  205,718; 9589,442;31,75972
 498,01; 3176,134;  236,868; 9532,746;31,61903
 498,59; 3095,099;  202,487; 9441,521;31,30860
 499,18; 3079,297;  199,099; 9425,815;31,21585
 499,76; 3108,595;  220,025; 9400,206;31,46529
 500,35; 3061,440;  215,951; 9110,549;31,99120
 500,93; 3017,022;  209,333; 9166,617;31,34532
 501,52; 2995,672;  201,949; 9082,243;31,45980
 502,10; 2966,893;  220,030; 9058,041;31,08010
 502,69; 2907,747;  200,647; 8889,046;31,15763
 503,27; 2864,065;  182,566; 8767,989;31,23316
 503,86; 2832,457;  201,570; 8717,401;30,89407
 504,44; 2797,738;  180,725; 8556,861;31,24368
 505,03; 2723,516;  172,418; 8381,055;31,07822
 505,61; 2685,935;  196,109; 8265,644;30,85464
 506,19; 2659,901;  199,725; 8144,080;30,96759
 506,78; 2592,652;  171,729; 7943,035;31,15207
 507,36; 2548,149;  189,879; 7839,184;30,82986
 507,95; 2491,147;  184,038; 7738,646;30,53909
 508,53; 2485,062;  188,806; 7598,333;30,99059
 509,12; 2432,788;  188,038; 7512,632;30,64676
 509,70; 2422,523;  219,346; 7357,865;30,86322
 510,29; 2387,642;  228,963; 7276,338;30,63096
 510,87; 2287,968;  187,883; 7066,022;30,53275
 511,46; 2273,968;  184,807; 6983,978;30,72670
 512,04; 2206,762;  196,193; 6844,347;30,24252
 512,62; 2197,925;  197,037; 6696,754;30,78423
 513,21; 2117,121;  181,194; 6626,702;30,03528
 513,79; 2077,051;  182,123; 6481,334;30,08199
 514,38; 2043,787;  167,814; 6345,079;30,36899
 514,96; 2041,000;  223,967; 6282,739;29,99012
 515,54; 1965,453;  178,122; 6144,275;29,95784
 516,13; 1966,265;  204,199; 6045,812;30,16402
 516,71; 1923,264;  197,433; 5951,219;29,99471
 517,30; 1849,349;  172,589; 5809,329;29,74699
 517,88; 1861,888;  205,435; 5779,046;29,71957
 518,46; 1810,169;  177,051; 5651,680;29,83067
 519,05; 1822,665;  187,360; 5613,445;30,13784
 519,63; 1807,554;  188,590; 5590,174;29,97201
 520,22; 1798,185;  209,363; 5514,646;29,94793
 520,80; 1746,809;  185,902; 5473,715;29,51896
 521,38; 1781,818;  237,284; 5447,396;29,64494
 521,97; 1721,689;  184,211; 5382,787;29,57498
 522,55; 1740,817;  200,134; 5386,283;29,70766
 523,13; 1707,219;  178,520; 5359,246;29,50742
 523,72; 1692,708;  189,897; 5333,935;29,21462
 524,30; 1749,193;  223,829; 5476,038;29,04232
 524,89; 1713,775;  170,058; 5451,164;29,23094
 525,47; 1768,235;  194,445; 5541,219;29,43438
 526,05; 1736,133;  155,984; 5591,026;29,07334
 526,64; 1772,397;  202,601; 5713,657;28,48450
 527,22; 1814,654;  202,214; 5800,480;28,80248
 527,80; 1867,372;  243,293; 5864,484;28,89208
 528,39; 1829,944;  180,833; 5897,066;28,84961
 528,97; 1886,363;  186,909; 6093,194;28,77366
 529,55; 1904,082;  207,059; 6193,788;28,34642
 530,14; 1972,551;  224,064; 6380,112;28,40274
 530,72; 1960,089;  185,909; 6463,046;28,26417
 531,30; 1960,174;  174,603; 6567,181;27,93195
 531,89; 1995,234;  188,834; 6668,332;27,87871
 532,47; 2049,123;  232,450; 6760,796;27,82746
 533,05; 2067,030;  213,139; 6794,555;28,16857
 533,63; 2054,661;  208,297; 6830,877;27,87984
 534,22; 2040,610;  193,066; 6850,228;27,75273
 534,80; 2071,575;  222,607; 6992,758;27,31059
 535,38; 2182,285;  322,911; 7061,139;27,59441
 535,97; 2064,943;  199,912; 7007,113;27,39792
 536,55; 2109,054;  253,453; 7050,405;27,30048
 537,13; 2099,303;  244,526; 7025,700;27,35185
 537,71; 2128,679;  306,526; 7075,170;26,92051
 538,30; 2136,507;  306,759; 7125,732;26,83319
 538,88; 2189,882;  351,917; 7249,189;26,64771
 539,46; 2246,011;  403,068; 7401,946;26,33198
 540,05; 2276,164;  406,147; 7479,267;26,43837
 540,63; 2327,070;  449,378; 7665,393;26,02119
 541,21; 2373,497;  470,456; 7839,915;25,82335
 541,79; 2407,711;  499,994; 7931,296;25,67137
 542,38; 2435,618;  537,839; 7995,737;25,44657
 542,96; 2465,924;  536,689; 8163,133;25,29666
 543,54; 2520,190;  562,148; 8313,117;25,26190
 544,12; 2509,549;  536,226; 8372,876;25,18069
 544,70; 2534,565;  506,843; 8485,152;25,41544
 545,29; 2558,968;  535,377; 8602,091;25,08569
 545,87; 2574,634;  513,841; 8649,065;25,33174
 546,45; 2529,618;  463,685; 8638,453;25,27207
 547,03; 2533,780;  446,071; 8751,531;25,13659
 547,62; 2538,617;  403,687; 8838,706;25,31032
 548,20; 2556,155;  423,611; 8978,950;24,92647
 548,78; 2550,436;  381,693; 9065,672;24,97406
 549,36; 2577,889;  336,924; 9190,936;25,31017
 549,94; 2540,865;  319,226; 9313,536;24,70049
 550,53; 2581,872;  322,692; 9505,822;24,60141
 551,11; 2574,136;  292,156; 9627,567;24,44435
 551,69; 2651,744;  292,693; 9876,538;24,61487
 552,27; 2662,411;  263,229;10085,376;24,42624
 552,85; 2713,795;  268,540;10370,253;24,20633
 553,44; 2763,239;  256,154;10633,415;24,15941
 554,02; 2839,949;  267,770;10902,913;24,18565
 554,60; 2853,444;  215,772;11157,288;24,10701
 555,18; 2959,180;  266,077;11510,163;23,95128
 555,76; 2996,188;  248,463;11787,107;23,81324
 556,34; 3072,050;  245,620;12088,728;23,86562
 556,93; 3114,188;  238,155;12359,487;23,72704
 557,51; 3148,640;  223,927;12642,045;23,55198
 558,09; 3220,162;  240,693;13024,674;23,30627
 558,67; 3332,623;  246,006;13360,339;23,53621
 559,25; 3345,871;  250,005;13550,794;23,27580
 559,83; 3359,768;  234,469;13792,567;23,05116
 560,41; 3401,281;  217,619;14055,671;23,00658
 561,00; 3475,717;  241,083;14372,880;22,88905
 561,58; 3489,581;  229,080;14549,424;22,76831
 562,16; 3560,316;  218,694;14810,534;22,90062
 562,74; 3587,820;  197,232;15169,571;22,64568
 563,32; 3667,349;  204,315;15520,945;22,60963
 563,90; 3728,093;  233,006;15847,994;22,38290
 564,48; 3769,974;  223,849;16100,844;22,33499
 565,06; 3847,477;  215,698;16628,812;22,12730
 565,65; 3965,690;  230,779;17214,512;21,99111
 566,23; 4155,204;  277,544;17829,462;22,09251
 566,81; 4179,760;  209,543;18389,250;21,83873
 567,39; 4334,280;  224,854;19136,196;21,72996
 567,97; 4445,973;  239,236;19670,789;21,64900
 568,55; 4622,973;  265,545;20462,856;21,57430
 569,13; 4685,409;  211,621;20941,625;21,58122
 569,71; 4875,128;  219,541;21809,989;21,56318
 570,29; 5006,761;  270,770;22649,825;21,16260
 570,87; 5114,282;  270,232;23273,292;21,05828
 571,45; 5178,554;  249,467;23807,095;20,92353
 572,03; 5244,152;  209,547;24254,552;20,93826
 572,61; 5275,007;  197,238;24871,809;20,57896
 573,20; 5429,632;  243,851;25371,827;20,63748
 573,78; 5501,127;  224,546;25980,062;20,48719
 574,36; 5572,734;  236,391;26388,119;20,40532
 574,94; 5696,947;  303,932;26697,061;20,43340
 575,52; 5623,724;  228,089;26860,156;20,25992
 576,10; 5757,032;  295,626;27417,888;20,13625
 576,68; 5801,280;  277,931;27838,508;20,04076
 577,26; 5904,527;  298,706;28451,892;19,91185
 577,84; 5932,691;  296,084;28849,178;19,74079
 578,42; 6050,211;  352,933;29123,331;19,80257
 579,00; 5968,135;  295,469;29239,641;19,59865
 579,58; 6039,989;  333,317;29495,877;19,56849
 580,16; 5982,365;  286,010;29479,720;19,51227
 580,74; 5993,331;  302,241;29640,665;19,39808
 581,32; 5997,485;  291,163;29698,681;19,40430
 581,90; 5964,322;  327,779;29655,366;19,21925
 582,48; 5936,143;  312,087;29723,376;19,12210
 583,06; 5970,434;  296,240;29708,388;19,29201
 583,64; 5952,853;  310,855;29953,750;19,03322
 584,22; 5864,023;  314,474;29761,404;18,84593
 584,80; 5814,416;  323,779;29581,110;18,76671
 585,38; 5735,974;  342,927;29217,752;18,67733
 585,96; 5690,443;  299,392;29257,799;18,61653
 586,54; 5653,826;  316,627;29261,199;18,43938
 587,12; 5625,655;  282,011;29227,365;18,46115
 587,70; 5638,562;  326,469;29386,514;18,27971
 588,28; 5629,467;  301,011;29414,667;18,30226
 588,86; 5616,553;  301,473;29621,533;18,12779
 589,44; 5572,706;  293,322;29491,641;18,08112
 590,02; 5601,672;  289,475;29774,833;18,01639
 590,59; 5573,553;  271,473;29856,230;17,92166
 591,17; 5605,936;  283,249;30016,442;17,90150
 591,75; 5597,791;  268,247;30141,180;17,84071
 592,33; 5583,569;  288,707;30299,519;17,64318
 592,91; 5603,996;  227,479;30557,867;17,72650
 593,49; 5649,072;  253,634;30759,318;17,68666
 594,07; 5647,799;  259,634;30897,733;17,58648
 594,65; 5652,279;  278,320;30916,803;17,53990
 595,23; 5642,843;  272,860;31270,014;17,32412
 595,81; 5649,851;  247,476;31456,625;17,31023
 596,39; 5623,261;  247,630;31574,721;17,15969
 596,97; 5656,594;  256,940;31688,633;17,17901
 597,55; 5581,980;  252,398;31643,184;16,97817
 598,12; 5508,157;  228,943;31593,083;16,83201
 598,70; 5485,662;  228,095;31682,881;16,71468
 599,28; 5505,457;  262,787;31766,617;16,64137
 599,86; 5485,269;  243,787;31879,173;16,56842
 600,44; 5467,465;  203,942;32064,868;16,52031
 601,02; 5490,199;  269,099;31862,411;16,52597
 601,60; 5425,064;  244,016;31898,842;16,36732
 602,18; 5393,132;  222,327;31935,910;16,30470
 602,75; 5401,808;  223,476;32026,526;16,28250
 603,33; 5381,320;  238,710;32067,697;16,15700
 603,91; 5297,807;  219,559;32077,050;15,94051
 604,49; 5333,859;  253,480;32054,057;15,97574
 605,07; 5271,141;  259,324;32084,405;15,74801
 605,65; 5255,799;  257,096;32282,093;15,60875
 606,23; 5301,057;  319,012;32301,118;15,57760
 606,80; 5306,022;  348,860;32418,215;15,45763
 607,38; 5256,328;  395,559;32387,350;15,19380
 607,96; 5313,595;  453,168;32420,938;15,20415
 608,54; 5286,782;  505,788;32552,321;14,91891
 609,12; 5262,740;  506,476;32521,412;14,85639
 609,70; 5279,816;  535,094;32563,006;14,81433
 610,27; 5280,210;  532,860;32599,140;14,80480
 610,85; 5224,346;  587,710;32780,221;14,40284
 611,43; 5220,961;  552,787;32697,303;14,52246
 612,01; 5140,894;  535,862;32517,527;14,39897
 612,59; 5149,654;  540,479;32498,351;14,42266
 613,16; 5046,347;  490,705;32517,100;14,22465
 613,74; 5020,500;  473,172;32391,971;14,24655
 614,32; 4980,388;  453,404;32345,103;14,19487
 614,90; 4924,346;  399,709;32269,342;14,19733
 615,48; 4856,681;  354,321;31909,532;14,26820
 616,05; 4772,236;  338,935;32071,834;13,97068
 616,63; 4762,792;  342,396;31798,136;14,05275
 617,21; 4773,586;  328,091;31668,177;14,18469
 617,79; 4690,911;  310,707;31662,112;13,97132
 618,36; 4677,663;  318,247;31594,402;13,93847
 618,94; 4529,364;  265,475;31281,521;13,74737
 619,52; 4507,202;  287,012;31074,515;13,70748
 620,10; 4457,398;  267,630;31007,382;13,62981
 620,67; 4441,972;  277,781;30922,641;13,58855
 621,25; 4442,210;  313,170;30758,264;13,56225
 621,83; 4389,757;  273,783;30793,253;13,48639
 622,41; 4409,210;  333,398;30774,314;13,38926
 622,98; 4338,826;  301,319;30612,936;13,32000
 623,56; 4308,014;  307,319;30538,014;13,23389
 624,14; 4257,107;  282,402;30516,383;13,14648
 624,72; 4230,339;  273,398;30430,170;13,12123
 625,29; 4197,271;  274,395;30358,673;13,03962
 625,87; 4221,466;  314,476;30286,731;13,03536
 626,45; 4135,604;  270,010;30263,274;12,88821
 627,02; 4109,808;  275,169;30217,482;12,80676
 627,60; 4095,807;  261,557;30101,283;12,84948
 628,18; 4044,586;  247,861;30174,259;12,68688
 628,76; 4040,561;  239,165;30200,189;12,68780
 629,33; 4027,604;  286,166;30212,528;12,50215
 629,91; 3990,475;  266,168;30134,305;12,46916
 630,49; 4034,194;  284,320;30316,788;12,48607
 631,06; 3991,843;  262,089;30425,636;12,36511
 631,64; 3975,109;  263,780;30379,143;12,32371
 632,22; 3862,340;  221,471;30248,952;12,12512
 632,79; 3924,058;  256,086;30573,918;12,09840
 633,37; 3916,022;  231,631;30480,613;12,18021
 633,95; 3904,852;  256,241;30626,610;12,01372
 634,52; 3882,527;  229,936;30722,277;11,97871
 635,10; 3883,937;  239,706;30768,738;11,93693
 635,68; 3919,656;  243,163;30838,069;12,01668
 636,25; 3878,973;  221,315;30866,091;11,93566
 636,83; 3863,484;  202,319;31030,881;11,87589
 637,41; 3859,015;  230,778;31103,482;11,75225
 637,98; 3895,989;  257,932;31250,771;11,73838
 638,56; 3863,127;  242,161;31268,726;11,67053
 639,13; 3851,211;  230,550;31465,652;11,59164
 639,71; 3929,578;  282,396;31595,528;11,64745
 640,29; 3792,969;  197,166;31331,864;11,54918
 640,86; 3821,249;  221,781;31518,712;11,50103
 641,44; 3804,068;  220,243;31538,791;11,44314
 642,02; 3798,195;  245,935;31498,101;11,36644
 642,59; 3777,783;  220,858;31549,257;11,35368
 643,17; 3746,217;  218,935;31572,106;11,25016
 643,74; 3767,652;  222,936;31620,031;11,28995
 644,32; 3792,471;  243,705;31624,495;11,30872
 644,89; 3770,597;  239,551;31553,651;11,27622
 645,47; 3779,109;  248,551;31644,192;11,24537
 646,05; 3751,697;  250,859;31611,656;11,16310
 646,62; 3721,439;  230,244;31508,350;11,16178
 647,20; 3748,104;  242,244;31677,814;11,15253
 647,77; 3686,615;  219,552;31590,509;11,05183
 648,35; 3662,742;  205,629;31437,665;11,06912
 648,92; 3651,176;  220,706;31536,128;10,95457
 649,50; 3625,072;  199,475;31455,208;10,95990
 650,08; 3583,122;  200,321;31330,902;10,86649
 650,65; 3614,017;  205,783;31524,443;10,88244
 651,23; 3642,606;  193,937;32113,907;10,80411
 651,80; 3725,040;  196,014;32978,986;10,76481
 652,38; 3773,243;  215,014;33420,680;10,71573
 652,95; 3751,139;  191,860;33682,452;10,62770
 653,53; 3785,574;  221,322;33932,916;10,57278
 654,10; 3853,316;  252,553;34001,610;10,66922
 654,68; 3799,442;  206,399;33939,074;10,65152
 655,25; 3782,338;  195,784;34010,076;10,60662
 655,83; 3764,157;  186,938;34132,925;10,53797
 656,40; 3771,361;  233,707;34117,773;10,44046
 656,98; 3739,103;  216,630;34001,314;10,42624
 657,55; 3708,691;  211,015;33852,008;10,39706
 658,13; 3671,971;  206,323;33606,088;10,37627
 658,70; 3678,098;  233,554;33373,475;10,39394
 659,28; 3603,148;  203,707;32672,938;10,46973
 659,85; 3507,197;  238,400;31938,864;10,31151
 660,43; 3478,401;  224,169;31835,866;10,29439
 661,00; 3456,066;  207,785;31997,637;10,21798
 661,58; 3452,192;  205,631;32299,486;10,11584
 662,15; 3464,088;  201,093;32432,103;10,12378
 662,73; 3552,523;  276,170;32681,337;10,11059
 663,30; 3507,342;  218,708;32765,108;10,10445
 663,88; 3516,084;  205,478;32979,264;10,10138
 664,45; 3521,749;  204,247;33182,420;10,05969
 665,03; 3555,260;  214,555;33517,730;10,03119
 665,60; 3667,233;  291,862;33881,502;10,04884
 666,17; 3564,821;  206,786;33876,965; 9,97332
 666,75; 3612,563;  201,017;34247,122;10,02037
 667,32; 3633,766;  222,940;34514,739; 9,94648
 667,90; 3633,201;  210,863;34759,049; 9,90598
 668,47; 3661,174;  235,401;34978,205; 9,86038
 669,05; 3655,377;  203,555;35190,131; 9,86613
 669,62; 3669,965;  184,017;35287,671; 9,93044
 670,19; 3680,246;  190,786;35354,058; 9,92359
 670,77; 3682,218;  209,325;35586,753; 9,81669
 671,34; 3672,191;  204,094;35506,986; 9,82383
 671,92; 3703,087;  193,864;35773,065; 9,86313
 672,49; 3742,214;  216,171;35796,221; 9,91017
 673,06; 3660,263;  176,710;35855,762; 9,76358
 673,64; 3686,313;  185,710;35888,764; 9,80477
 674,21; 3668,440;  176,095;35786,612; 9,80706
 674,79; 3702,259;  218,556;36006,307; 9,73434
 675,36; 3741,539;  220,633;36144,309; 9,80107
 675,93; 3648,743;  184,557;35922,619; 9,69327
 676,51; 3707,331;  206,634;36172,545; 9,73338
 677,08; 3720,304;  216,172;36211,316; 9,73501
 677,65; 3713,046;  210,095;36233,703; 9,72404
 678,23; 3731,865;  217,095;36526,321; 9,68010
 678,80; 3709,376;  201,096;36591,015; 9,64080
 679,38; 3707,195;  202,250;36700,710; 9,60299
 679,95; 3754,475;  212,096;36994,635; 9,63060
 680,52; 3746,063;  200,481;37206,330; 9,58114
 681,10; 3791,729;  219,558;37515,716; 9,57785
 681,67; 3825,701;  210,558;37679,796; 9,64830
 682,24; 3787,982;  177,865;37796,490; 9,59662
 682,82; 3833,878;  191,635;38262,723; 9,56695
 683,39; 3910,312;  260,173;38554,802; 9,53172
 683,96; 3939,746;  209,558;38842,343; 9,65550
 684,54; 3929,950;  187,327;38945,192; 9,65642
 685,11; 4004,230;  250,789;39362,809; 9,59664
 685,68; 4004,818;  207,635;39788,965; 9,59337
 686,25; 4003,407;  195,020;39773,044; 9,62248
 686,83; 4048,302;  209,559;39990,124; 9,64980
 687,40; 4067,506;  189,943;40179,126; 9,69653
 687,97; 4139,248;  239,482;40649,744; 9,65044
 688,55; 4105,452;  187,943;40597,515; 9,69451
 689,12; 4111,655;  167,867;40850,287; 9,69409
 689,69; 4175,089;  178,713;40927,596; 9,80733
 690,26; 4150,062;  198,405;41028,983; 9,67818
 690,84; 4172,035;  193,328;41170,370; 9,70960
 691,41; 4216,777;  212,252;41281,603; 9,75064
 691,98; 4271,596;  200,098;41426,221; 9,87601
 692,56; 4252,723;  193,098;41576,069; 9,80989
 693,13; 4299,465;  257,329;41618,072; 9,77288
 693,70; 4277,207;  214,329;41739,535; 9,78412
 694,27; 4305,487;  192,098;41837,615; 9,87715
 694,84; 4323,614;  182,098;41999,463; 9,90382
 695,42; 4476,356;  309,714;42157,927; 9,95656
 695,99; 4350,405;  207,560;42268,467; 9,84963
 696,56; 4356,994;  205,176;42062,777; 9,91891
 697,13; 4440,120;  223,637;42465,010; 9,98188
 697,71; 4463,554;  194,714;42405,243;10,11321
 698,28; 4412,912;  200,484;42685,938; 9,91499
 698,85; 4445,039;  165,484;42749,248;10,04973
 699,42; 4478,781;  171,945;42917,404;10,07554
 699,99; 4522,830;  218,099;43094,637;10,03983
 700,57; 4532,341;  207,946;42982,024;10,10985
 701,14; 4545,391;  175,100;43243,565;10,14731
 701,71; 4568,133;  205,254;43393,259;10,10206
 702,28; 4587,414;  196,100;43389,108;10,16672
 702,85; 4596,848;  199,638;43459,879;10,16455
 703,43; 4617,590;  220,946;43677,805;10,11726
 704,00; 4687,563;  231,946;43936,884;10,19477
 704,57; 4651,612;  211,331;43860,809;10,17259
 705,14; 4676,201;  231,562;44073,811;10,13780
 705,71; 4715,635;  237,947;44170,967;10,19208
 706,28; 4664,608;  205,408;43985,585;10,18543
 706,86; 4709,965;  236,485;44296,664;10,15311
 707,43; 4781,246;  266,408;44263,667;10,26163
 708,00; 4735,526;  251,947;44272,592;10,18517
 708,57; 4737,807;  213,716;44162,671;10,29397
 709,14; 4768,472;  241,178;44266,596;10,28336
 709,71; 4779,521;  215,409;44289,522;10,35554
 710,28; 4823,263;  219,255;44550,985;10,38536
 710,86; 4850,544;  218,486;44591,911;10,43881
 711,43; 4871,440;  252,101;44707,836;10,39087
 712,00; 4882,720;  223,640;44776,146;10,45750
 712,57; 4940,078;  241,563;44921,841;10,51586
 713,14; 4934,743;  216,717;45019,997;10,53054
 713,71; 4977,638;  223,717;44877,768;10,64611
 714,28; 4951,304;  221,410;45031,232;10,55548
 714,85; 4945,738;  207,179;44795,157;10,62744
 715,42; 4966,326;  206,333;44930,006;10,64312
 716,00; 5143,453;  293,487;44958,316;10,85858
 716,57; 5034,656;  210,410;45137,164;10,73803
 717,14; 5041,783;  195,025;45000,705;10,81728
 717,71; 5024,294;  194,103;45114,015;10,75290
 718,28; 5147,344;  236,564;45249,863;10,90962
 718,85; 5108,778;  196,180;45256,481;10,90228
 719,42; 5114,366;  219,334;45374,483;10,84047
 719,99; 5108,724;  197,949;45290,408;10,89046
 720,56; 5186,696;  211,872;45504,180;10,98382
 721,13; 5192,592;  203,795;45534,798;11,00526
 721,70; 5169,257;  199,488;45353,800;11,00619
 722,27; 5205,615;  217,103;45439,571;11,03105
 722,84; 5315,280;  275,642;45645,189;11,10797
 723,41; 5227,945;  178,950;45564,268;11,12473
 723,98; 5287,995;  196,181;45692,578;11,19169
 724,55; 5352,198;  234,181;45880,273;11,21239
 725,12; 5286,479;  161,181;45785,275;11,23375
 725,69; 5347,682;  191,642;45912,508;11,27721
 726,27; 5413,809;  194,796;46100,972;11,36887
 726,84; 5443,243;  209,796;46272,051;11,36168
 727,41; 5485,524;  229,643;46219,284;11,42840
 727,98; 5510,035;  227,643;46454,286;11,42716
 728,55; 5584,161;  257,720;46409,981;11,54102
 729,12; 5542,519;  193,489;46419,598;11,57145
 729,69; 5592,030;  231,105;46690,216;11,53902
 730,26; 5618,234;  212,259;46748,988;11,61658
 730,82; 5644,283;  200,259;46789,759;11,68509
 731,39; 5651,102;  202,797;46789,223;11,69505
 731,96; 5691,921;  196,105;47146,764;11,70551
 732,53; 5774,509;  213,951;47229,997;11,82694
 733,10; 5775,251;  218,259;47406,614;11,77619
 733,67; 5835,763;  219,182;47580,232;11,85907
 734,24; 5811,966;  195,798;47363,542;11,90680
 734,81; 5897,477;  238,567;47405,467;11,99763
 735,38; 5843,450;  206,413;47182,854;11,99971
 735,95; 5865,192;  207,875;47039,626;12,08009
 736,52; 5903,396;  227,029;47306,243;12,05706
 737,09; 5916,753;  220,491;46945,322;12,19108
 737,66; 5972,418;  264,645;47125,478;12,18026
 738,23; 5971,776;  209,568;47270,019;12,24427
 738,80; 6077,595;  285,491;47433,021;12,28506
 739,37; 6024,337;  238,414;47544,562;12,23080
 739,94; 6072,848;  211,183;47537,872;12,38554
 740,51; 6245,590;  346,645;47725,567;12,45057
 741,07; 6111,101;  214,337;47657,031;12,42923
 741,64; 6163,074;  242,876;47821,033;12,44310
 742,21; 6187,970;  216,799;47846,881;12,53655
 742,78; 6173,789;  183,876;47695,114;12,60736
 743,35; 6256,300;  213,338;47841,578;12,68777
 743,92; 6368,273;  252,723;48011,734;12,80502
 744,49; 6368,322;  242,723;47954,736;12,83869
 745,06; 6318,911;  215,954;47984,508;12,77610
 745,63; 6316,114;  199,261;47951,741;12,80950
 746,19; 6398,779;  207,185;48003,282;12,95418
 746,76; 6409,675;  211,031;47986,976;12,97440
 747,33; 6431,879;  211,185;47932,363;13,03550
 747,90; 6476,928;  229,800;48207,904;13,02079
 748,47; 6463,593;  219,723;48079,752;13,04611
 749,04; 6562,028;  225,493;48062,831;13,24600
 749,61; 6579,924;  248,493;48079,987;13,23695
 750,17; 6619,435;  241,493;48101,759;13,32617
 750,74; 6586,792;  225,724;48091,607;13,28936
 751,31; 6557,611;  200,032;47929,917;13,31991
 751,88; 6598,122;  194,032;47761,381;13,46321
 752,45; 6625,326;  201,570;48047,614;13,42589
 753,02; 6671,991;  243,570;47837,155;13,50691
 753,58; 6661,579;  206,186;47801,157;13,56318
 754,15; 6725,706;  199,801;47897,006;13,68194
 754,72; 6737,140;  202,263;47735,854;13,74791
 755,29; 6732,882;  193,340;47625,779;13,78707
 755,86; 6773,778;  223,494;47612,166;13,82247
 756,42; 6816,289;  239,109;47549,784;13,90211
 756,99; 6800,724;  193,571;47528,325;13,95835
 757,56; 6838,235;  221,494;47488,788;13,99856
 758,13; 6805,669;  172,187;47382,252;14,05099
 758,70; 6859,257;  203,956;47498,870;14,07192
 759,26; 6901,768;  210,572;47622,718;14,11283
 759,83; 6937,280;  221,572;47698,797;14,14511
 760,40; 6912,329;  182,879;47539,646;14,21011
 760,97; 6957,379;  194,341;47545,879;14,28262
 761,53; 6945,044;  185,033;47250,573;14,36297
 762,10; 6998,248;  187,572;47242,729;14,47381
 762,67; 7010,221;  223,880;47363,039;14,39640
 763,24; 6965,039;  157,111;46810,965;14,59243
 763,80; 6998,781;  203,649;47057,890;14,50270
 764,37; 7043,216;  199,265;46949,508;14,63939
 764,94; 6984,650;  175,649;46512,741;14,69449
 765,50; 6995,623;  187,496;46622,820;14,66153
 766,07; 7092,903;  215,342;46601,591;14,82672
 766,64; 7075,107;  183,573;46386,824;14,91569
 767,21; 7097,926;  200,496;46244,057;14,98023
 767,77; 7099,668;  212,496;46237,752;14,96390
 768,34; 7116,179;  211,804;46083,754;15,05141
 768,91; 7168,075;  221,419;46028,295;15,16509
 769,47; 7191,278;  206,958;45959,297;15,26549
 770,04; 7167,944;  218,573;45886,838;15,21707
 770,61; 7149,378;  194,420;45673,071;15,29280
 771,18; 7182,581;  189,112;45574,766;15,40899
 771,74; 7205,170;  198,574;45760,999;15,37801
 772,31; 7252,373;  207,651;45522,309;15,54623
 772,88; 7216,500;  185,189;45194,157;15,62202
 773,44; 7176,626;  192,651;45197,544;15,51826
 774,01; 7251,291;  205,728;45247,161;15,64241
 774,58; 7246,418;  195,882;44967,779;15,74768
 775,14; 7283,545;  187,036;45002,089;15,83510
 775,71; 7273,210;  190,498;45007,245;15,80372
 776,27; 7361,952;  256,344;45031,324;15,86959
 776,84; 7435,694;  311,036;45082,865;15,91326
 777,41; 7339,744;  210,344;44851,790;15,97036
 777,97; 7352,716;  191,498;44521,023;16,15451
 778,54; 7389,458;  217,113;44589,641;16,16393
 779,11; 7454,123;  239,883;44533,566;16,28729
 779,67; 7419,096;  196,806;44509,723;16,29839
 780,24; 7456,684;  219,883;44317,648;16,41081
 780,80; 7497,657;  232,806;44183,727;16,52946
 781,37; 7474,476;  226,268;44244,345;16,46644
 781,94; 7495,680;  216,268;44098,193;16,58863
 782,50; 7545,883;  210,576;44058,118;16,72912
 783,07; 7609,779;  238,807;44164,813;16,78043
 783,63; 7586,136;  211,037;43904,354;16,87924
 784,20; 7612,263;  240,114;43756,664;16,94102
 784,77; 7596,236;  211,191;43611,204;17,01623
 785,33; 7621,516;  188,499;43542,053;17,14512
 785,90; 7629,566;  202,961;43474,670;17,16273
 786,46; 7667,846;  248,346;43350,596;17,21372
 787,03; 7606,588;  203,269;43279,290;17,18664
 787,59; 7631,484;  207,884;43225,370;17,25717
 788,16; 7686,226;  223,192;43184,372;17,37158
 788,73; 7684,353;  221,038;43086,374;17,41107
 789,29; 7705,941;  213,654;42647,992;17,65619
 789,86; 7720,683;  241,962;42764,302;17,58775
 790,42; 7668,656;  212,039;42514,458;17,62693
 790,99; 7677,398;  232,654;42188,537;17,74422
 791,55; 7692,678;  215,808;42205,155;17,80659
 792,12; 7787,036;  249,116;42234,311;17,95376
 792,68; 7693,009;  220,116;42022,621;17,87666
 793,25; 7721,520;  235,808;41749,315;18,03199
 793,81; 7799,416;  317,732;41461,548;18,18422
 794,38; 7634,312;  191,578;41261,089;18,12228
 794,94; 7672,823;  212,501;41053,014;18,26696
 795,51; 7684,719;  231,886;40950,247;18,30337
 796,07; 7630,538;  227,347;40739,096;18,27418
 796,64; 7720,203;  240,271;40835,713;18,42555
 797,20; 7662,022;  235,117;40351,177;18,51354
 797,77; 7596,225;  194,348;40175,026;18,51364
 798,33; 7624,813;  238,040;40026,182;18,56526
 798,90; 7663,940;  250,656;39942,107;18,67728
 799,46; 7599,143;  212,425;39510,802;18,79650
 800,03; 7588,347;  227,810;39487,727;18,74822
 800,59; 7591,320;  242,810;39295,960;18,81669
 801,15; 7565,370;  248,502;39119,347;18,82354
 801,72; 7528,881;  222,502;38846,041;18,91691
 802,28; 7563,392;  254,887;38628,351;19,04573
 802,85; 7527,134;  222,656;38441,969;19,11201
 803,41; 7493,414;  238,041;38174,817;19,12491
 803,98; 7491,080;  216,580;37995,973;19,25521
 804,54; 7467,822;  214,580;37805,360;19,29527
 805,11; 7489,564;  242,041;37534,440;19,43432
 805,67; 7433,767;  242,118;37478,903;19,31329
 806,23; 7420,432;  230,118;36999,906;19,55495
 806,80; 7436,482;  256,657;36971,216;19,55580
 807,36; 7463,916;  250,965;36936,064;19,66180
 807,93; 7480,581;  263,811;36716,989;19,79737
 808,49; 7395,862;  235,119;36466,376;19,76399
 809,05; 7407,835;  217,427;36270,225;19,94411
 809,62; 7403,807;  242,119;36224,842;19,90313
 810,18; 7409,165;  239,888;36103,768;19,99024
 810,74; 7358,138;  202,196;35830,539;20,08497
 811,31; 7384,110;  199,812;35807,080;20,17649
 811,87; 7397,622;  238,504;35550,159;20,27409
 812,44; 7443,517;  264,196;35585,238;20,32590
 813,00; 7359,721;  186,581;35325,010;20,41395
 813,56; 7441,694;  236,812;35426,243;20,47456
 814,13; 7437,436;  243,274;35306,245;20,51783
 814,69; 7408,562;  222,043;35126,709;20,58899
 815,25; 7322,458;  195,351;34763,634;20,61748
 815,82; 7401,123;  248,582;34740,790;20,73669
 816,38; 7413,404;  282,736;34607,408;20,77418
 816,94; 7308,453;  227,120;34295,564;20,78561
 817,51; 7347,965;  202,582;34186,182;21,02597
 818,07; 7307,937;  204,736;33943,107;21,05378
 818,63; 7314,987;  237,505;33742,648;21,12357
 819,20; 7301,652;  227,198;33680,034;21,14755
 819,76; 7226,010;  218,198;33318,191;21,17164
 820,32; 7297,752;  257,506;33216,654;21,36052
 820,89; 7262,571;  241,044;33095,272;21,37176
 821,45; 7257,466;  218,121;32781,428;21,61742
 822,01; 7224,978;  235,967;32576,738;21,61052
 822,57; 7268,643;  250,275;32504,356;21,75963
 823,14; 7218,000;  202,275;32337,050;21,83219
 823,70; 7205,588;  209,814;32111,668;21,92905
 824,26; 7141,946;  214,891;31924,516;21,84527
 824,82; 7192,457;  245,814;31755,826;22,04583
 825,39; 7146,584;  213,507;31557,905;22,11903
 825,95; 7192,326;  234,122;31663,677;22,13905
 826,51; 7163,606;  234,891;31224,987;22,35784
 827,08; 7223,810;  270,199;31294,066;22,41375
 827,64; 7184,552;  247,430;31137,838;22,45720
 828,20; 7160,294;  219,276;30844,148;22,66464
 828,76; 7166,728;  250,353;30913,304;22,55613
 829,32; 7184,393;  264,507;30782,921;22,67446
 829,89; 7074,674;  201,046;30631,693;22,58785
 830,45; 7193,339;  239,354;30549,772;22,94256
 831,01; 7170,158;  230,200;30435,236;22,97616
 831,57; 7145,207;  231,046;30356,700;22,95107
 832,14; 7180,103;  213,585;30360,163;23,10882
 832,70; 7169,307;  211,354;30087,473;23,28935
 833,26; 7158,433;  187,200;30007,552;23,37743
 833,82; 7174,252;  225,277;29996,401;23,34133
 834,38; 7181,302;  216,431;29933,019;23,43765
 834,95; 7176,967;  194,431;29881,482;23,52048
 835,51; 7157,786;  181,201;29619,485;23,69902
 836,07; 7225,297;  216,739;29849,179;23,65164
 836,63; 7218,655;  244,739;29809,104;23,58892
 837,19; 7188,320;  226,278;29616,722;23,68811
 837,75; 7132,446;  183,509;29437,186;23,75407
 838,32; 7183,111;  251,817;29434,496;23,75140
 838,88; 7190,700;  245,817;29527,190;23,71775
 839,44; 7227,903;  241,894;29466,116;23,90486
 840,00; 7221,107;  231,740;29344,195;24,00817
 840,56; 7109,772;  207,740;29087,582;23,89913
 841,12; 7128,821;  209,202;29022,969;24,01498
 841,68; 7083,025;  199,509;28915,509;23,97101
 842,25; 7134,229;  210,202;28897,435;24,13627
 842,81; 7100,971;  196,971;28658,899;24,25696
 843,37; 7102,020;  194,741;28716,824;24,21730
 843,93; 7140,378;  216,894;28621,134;24,37482
 844,49; 7191,427;  234,510;28662,136;24,47238
 845,05; 7097,554;  186,202;28451,138;24,45203
 845,61; 7208,911;  245,972;28538,602;24,61044
 846,17; 7208,346;  207,818;28423,297;24,81095
 846,73; 7208,857;  218,280;28418,684;24,78893
 847,29; 7155,907;  209,972;28240,686;24,77973
 847,86; 7191,879;  214,049;28164,688;24,96483
 848,42; 7169,160;  214,126;28038,306;24,99637
 848,98; 7192,594;  219,203;27979,846;25,11970
 849,54; 7189,798;  202,280;28005,079;25,13242
 850,10; 7202,924;  229,973;27859,466;25,23735
 850,66; 7150,436;  209,357;27766,469;25,18798
 851,22; 7172,716;  197,819;27664,702;25,39384
 851,78; 7230,612;  250,819;27777,089;25,35684
 852,34; 7202,123;  223,742;27524,091;25,56151
 852,90; 7160,173;  207,742;27507,016;25,46746
 853,46; 7140,838;  203,742;27169,557;25,72552
 854,02; 7176,349;  219,742;27278,559;25,70921
 854,58; 7112,476;  213,512;27066,561;25,69155
 855,14; 7087,449;  211,589;27005,487;25,66204
 855,70; 7060,498;  180,281;26777,412;25,86827
 856,26; 7111,548;  225,743;26742,030;25,96821
 856,82; 7068,521;  213,974;26686,570;25,89299
 857,38; 7124,724;  255,435;26626,034;26,04904
 857,94; 7025,159;  219,051;26536,806;25,86128
 858,50; 7039,593;  237,743;26454,885;25,94428
 859,06; 6988,181;  205,743;26178,733;26,11343
 859,62; 7033,615;  235,205;26182,582;26,20076
 860,18; 7015,127;  222,821;26027,815;26,32167
 860,74; 6982,407;  185,359;25935,202;26,39646
 861,30; 6949,303;  200,128;25775,742;26,38910
 861,86; 7063,814;  267,129;25813,206;26,60559
 862,42; 6981,402;  214,744;25544,824;26,71392
 862,98; 7012,452;  246,590;25605,441;26,68047
 863,54; 7002,656;  212,437;25394,982;26,96399
 864,10; 7034,552;  214,206;25447,215;27,02946
 864,66; 6960,755;  194,052;25251,910;27,00432
 865,22; 6944,574;  209,898;25159,604;26,99301
 865,78; 6931,547;  213,514;25047,222;27,05207
 866,34; 6923,750;  198,283;25047,916;27,06465
 866,90; 6948,646;  220,668;24849,534;27,31745
 867,45; 6935,619;  229,206;24756,613;27,34253
 868,01; 6946,746;  215,591;24654,539;27,54273
 868,57; 6868,488;  206,976;24441,695;27,48747
 869,13; 6859,768;  194,668;24362,312;27,57861
 869,69; 6834,664;  225,284;24253,315;27,50696
 870,25; 6827,483;  194,669;24182,471;27,65078
 870,81; 6892,071;  208,053;24100,396;27,97556
 871,37; 6870,351;  229,361;24070,091;27,85565
 871,93; 6864,940;  247,515;23878,478;28,00320
 872,49; 6870,528;  268,900;23714,172;28,15761
 873,04; 6796,654;  197,592;23557,636;28,24936
 873,60; 6840,012;  205,977;23462,254;28,52578
 874,16; 6812,908;  221,208;23347,333;28,50326
 874,72; 6821,369;  209,823;23380,025;28,53469
 875,28; 6825,062;  218,131;23348,102;28,56437
 875,84; 6835,831;  221,131;23300,025;28,66125
 876,40; 6854,754;  215,131;23155,102;28,94347
 876,95; 6840,831;  223,438;23142,256;28,87318
 877,51; 6893,369;  251,592;23168,410;28,98211
 878,07; 6922,754;  262,208;23186,410;29,05465
 878,63; 6899,831;  212,054;23134,256;29,17598
 879,19; 6982,292;  231,977;23189,102;29,40401
 879,75; 6910,908;  204,131;23175,948;29,19567
 880,30; 7016,600;  222,515;23103,794;29,69277
 880,86; 7075,446;  262,438;23294,717;29,58026
 881,42; 7057,908;  199,438;23303,487;29,68514
 881,98; 7112,754;  229,362;23390,410;29,71969
 882,54; 7135,523;  215,054;23375,487;29,88057
 883,09; 7150,985;  220,900;23574,948;29,67402
 883,65; 7170,831;  205,592;23483,948;29,92152
 884,21; 7244,908;  246,515;23818,871;29,68898
 884,77; 7243,138;  208,669;23800,794;29,81702
 885,32; 7336,215;  216,823;23943,640;30,00568
 885,88; 7432,062;  250,746;24105,717;30,10406
 886,44; 7458,908;  222,592;24123,871;30,27585
 887,00; 7476,215;  245,285;24141,794;30,25936
 887,56; 7530,600;  209,823;24294,102;30,39650
 888,11; 7576,985;  221,285;24308,102;30,53828
 888,67; 7623,446;  252,823;24400,333;30,52333
 889,23; 7661,369;  220,208;24482,179;30,67006
 889,79; 7614,985;  204,592;24303,487;30,74993
 890,34; 7637,908;  231,669;24299,333;30,77257
 890,90; 7761,985;  298,592;24418,794;30,94250
 891,46; 7632,677;  212,515;24348,410;30,74326
 892,01; 7683,600;  239,746;24326,179;30,90476
 892,57; 7651,908;  265,515;24254,487;30,79078
 893,13; 7585,831;  224,900;24073,487;30,86527
 893,69; 7618,446;  209,592;24010,179;31,12887
 894,24; 7551,754;  224,362;23982,333;30,84183
 894,80; 7547,523;  222,438;23844,640;31,00932
 895,36; 7581,446;  229,746;23747,948;31,25962
 895,91; 7470,600;  219,592;23516,640;31,12415
 896,47; 7486,523;  247,438;23529,102;31,09350
 897,03; 7423,292;  220,515;23267,563;31,25249
 897,58; 7437,754;  227,977;23177,410;31,41593
 898,14; 7384,600;  243,592;23120,563;31,21483
 898,70; 7325,062;  198,362;22922,333;31,36204
 899,25; 7360,215;  225,208;22978,948;31,35752
 899,81; 7356,446;  246,438;22819,025;31,49842
 900,37; 7241,215;  197,285;22637,487;31,38978
 900,92; 7299,138;  229,208;22644,717;31,54035
 901,48; 7254,523;  212,515;22451,794;31,66473
 902,03; 7214,985;  216,054;22301,563;31,69015
 902,59; 7232,523;  218,208;22331,640;31,71970
 903,15; 7174,523;  250,515;22087,256;31,70806
 903,70; 7051,908;  219,900;21979,563;31,39758
 904,26; 7081,908;  223,746;21877,487;31,67195
 904,82; 7094,292;  230,746;21862,640;31,72883
 905,37; 7037,062;  228,669;21730,333;31,66449
 905,93; 7006,292;  219,362;21658,179;31,65721
 906,48; 7032,215;  236,208;21601,102;31,80923
 907,04; 6966,985;  240,285;21476,102;31,67620
 907,60; 6937,985;  238,131;21357,179;31,72422
 908,15; 6895,369;  201,977;21213,410;31,85595
 908,71; 6868,446;  239,438;21286,025;31,49683
 909,26; 6847,446;  223,515;21088,256;31,74701
 909,82; 6843,985;  243,746;20958,640;31,86228
 910,37; 6879,677;  271,977;20923,948;31,99549
 910,93; 6743,985;  209,823;20717,717;31,86169
 911,48; 6737,446;  204,592;20649,102;31,95407
 912,04; 6730,215;  219,131;20462,948;32,16332
 912,60; 6758,985;  236,746;20524,871;32,14806
 913,15; 6720,831;  231,669;20291,640;32,34881
 913,71; 6653,677;  210,823;20166,025;32,28659
 914,26; 6613,831;  197,977;20162,256;32,13667
 914,82; 6629,138;  216,208;20106,948;32,24078
 915,37; 6616,985;  209,669;20033,333;32,32155
 915,93; 6637,754;  284,592;19933,563;32,33330
 916,48; 6538,062;  219,515;19801,256;32,26754
 917,04; 6552,754;  239,131;19686,640;32,46494
 917,59; 6566,446;  259,208;19677,256;32,48132
 918,15; 6454,138;  194,054;19513,640;32,40279
 918,70; 6492,446;  222,515;19423,563;32,65411
 919,26; 6476,446;  230,362;19416,717;32,55483
 919,81; 6425,138;  201,054;19181,948;32,79131
 920,37; 6432,754;  213,900;19112,640;32,90618
 920,92; 6434,138;  243,746;19137,640;32,76398
 921,48; 6365,677;  207,977;18901,410;32,94045
 922,03; 6391,292;  212,977;18846,333;33,15729
 922,59; 6324,369;  226,823;18791,794;32,84436
 923,14; 6332,446;  236,438;18596,871;33,20187
 923,69; 6338,292;  245,592;18562,179;33,26329
 924,25; 6333,831;  257,285;18562,563;33,19559
 924,80; 6243,523;  226,438;18369,025;33,16553
 925,36; 6262,831;  207,362;18322,102;33,42841
 925,91; 6241,215;  215,977;18221,717;33,46288
 926,47; 6226,138;  190,592;18161,871;33,58440
 927,02; 6257,292;  295,746;18083,333;33,51521
 927,57; 6202,446;  212,362;17960,256;33,75096
 928,13; 6153,831;  211,208;17831,179;33,72663
 928,68; 6130,677;  225,592;17891,563;33,42632
 929,24; 6062,292;  202,362;17668,102;33,55100
 929,79; 6065,831;  204,285;17577,563;33,73886
 930,34; 6046,292;  206,823;17422,256;33,91997
 930,90; 6042,985;  206,900;17422,179;33,90061
 931,45; 6013,446;  233,131;17462,256;33,54967
 932,01; 6012,908;  236,515;17360,487;33,73278
 932,56; 5974,985;  247,208;17165,563;33,85540
 933,11; 6001,908;  256,131;17126,794;34,05780
 933,67; 5915,831;  229,054;17004,563;33,89928
 934,22; 5924,908;  227,362;16960,025;34,05044
 934,77; 5872,446;  251,977;16781,410;34,00280
 935,33; 5847,908;  230,285;16716,871;34,07390
 935,88; 5824,292;  242,900;16752,025;33,80792
 936,43; 5801,523;  227,362;16605,102;34,03499
 936,99; 5798,215;  227,208;16544,640;34,14145
 937,54; 5710,446;  198,054;16446,871;33,92488
 938,09; 5722,523;  217,131;16372,717;34,07733
 938,65; 5730,523;  228,131;16261,640;34,31808
 939,20; 5680,369;  202,515;16177,563;34,29006
 939,75; 5691,600;  215,285;16124,563;34,42215
 940,31; 5627,600;  207,977;15971,333;34,38115
 940,86; 5659,600;  235,515;15983,179;34,44374
 941,41; 5718,831;  323,823;15937,871;34,55227
 941,96; 5586,062;  207,977;15792,563;34,50900
 942,52; 5619,677;  219,823;15760,256;34,74713
 943,07; 5554,138;  197,746;15593,640;34,79104
 943,62; 5558,138;  209,592;15560,102;34,84279
 944,18; 5520,677;  199,362;15509,487;34,75684
 944,73; 5523,908;  224,746;15427,102;34,85750
 945,28; 5452,985;  193,746;15267,794;34,88936
 945,83; 5515,908;  211,746;15246,871;35,27847
 946,39; 5500,600;  211,977;15224,179;35,22883
 946,94; 5486,138;  234,131;15147,563;35,21663
 947,49; 5474,908;  207,823;15083,256;35,40794
 948,04; 5477,138;  265,515;15046,333;35,25937
 948,59; 5470,062;  250,592;14994,487;35,40089
 949,15; 5431,292;  205,208;14878,102;35,61727
 949,70; 5334,985;  219,438;14792,102;35,10371
 950,25; 5340,138;  235,131;14693,487;35,30836
 950,80; 5309,292;  182,592;14674,102;35,37727
 951,36; 5301,831;  173,977;14514,563;35,75763
 951,91; 5361,138;  241,977;14557,102;35,76051
 952,46; 5288,062;  211,515;14430,333;35,70301
 953,01; 5319,446;  229,285;14444,256;35,80845
 953,56; 5243,600;  196,669;14223,487;35,98058
 954,11; 5277,292;  228,285;14239,102;36,03650
 954,67; 5253,831;  216,131;14136,179;36,19025
 955,22; 5189,831;  194,362;14011,794;36,15338
 955,77; 5231,523;  231,900;14036,179;36,21792
 956,32; 5221,369;  276,285;13908,179;36,27584
 956,87; 5193,831;  206,054;13860,563;36,52842
 957,42; 5172,754;  211,515;13823,410;36,44782
 957,98; 5149,292;  207,746;13717,102;36,57870
 958,53; 5162,908;  247,362;13722,179;36,47950
 959,08; 5129,369;  213,900;13561,487;36,82665
 959,63; 5109,677;  208,515;13540,563;36,76226
 960,18; 5117,523;  221,054;13492,025;36,89609
 960,73; 5125,215;  218,900;13412,794;37,18626
 961,28; 5043,215;  199,977;13368,256;36,77959
 961,83; 5062,831;  236,515;13331,487;36,85625
 962,39; 5015,831;  204,977;13205,179;37,00599
 962,94; 5027,138;  222,900;13198,640;37,02477
 963,49; 4977,831;  224,977;13043,256;37,07872
 964,04; 5005,831;  229,592;13004,717;37,38702
 964,59; 4915,292;  191,208;12920,256;37,11263
 965,14; 4986,908;  234,054;12819,102;37,76588
 965,69; 4909,138;  215,592;12784,256;37,34324
 966,24; 4891,138;  202,285;12659,563;37,63947
 966,79; 4868,446;  240,054;12654,871;37,28120
 967,34; 4810,138;  187,515;12482,640;37,59720
 967,89; 4839,985;  211,438;12511,256;37,63102
 968,44; 4800,215;  216,592;12428,333;37,53456
 968,99; 4818,985;  227,823;12349,563;37,87543
 969,55; 4834,677;  219,592;12292,179;38,22780
 970,10; 4765,369;  231,438;12193,256;37,90336
 970,65; 4758,677;  245,131;12086,871;38,11556
 971,20; 4710,831;  210,208;12017,179;38,11835
 971,75; 4662,600;  194,592;11844,102;38,35361
 972,30; 4685,754;  221,669;11904,948;38,20918
 972,85; 4606,677;  208,515;11747,794;38,11470
 973,40; 4622,677;  208,054;11706,948;38,39172
 973,95; 4620,754;  228,977;11657,794;38,42722
 974,50; 4658,062;  251,592;11607,640;38,80284
 975,05; 4573,369;  222,285;11516,410;38,52520
 975,60; 4545,215;  234,438;11411,640;38,56759
 976,15; 4537,754;  201,362;11380,794;38,78902
 976,70; 4505,754;  223,977;11312,563;38,61427
 977,25; 4507,446;  230,438;11288,025;38,67940
 977,80; 4424,600;  217,669;11137,871;38,52429
 978,35; 4410,831;  246,438;11028,563;38,62311
 978,89; 4356,215;  203,977;10951,025;38,63608
 979,44; 4376,600;  226,823;10961,333;38,65828
 979,99; 4317,831;  216,515;10728,948;39,01395
 980,54; 4337,215;  235,900;10703,640;39,18052
 981,09; 4260,600;  248,131;10667,256;38,51062
 981,64; 4270,446;  228,438;10536,025;39,21391
 982,19; 4270,292;  250,515;10493,410;39,24454
 982,74; 4200,985;  223,746;10385,948;39,13757
 983,29; 4146,062;  213,054;10241,179;39,21977
 983,84; 4139,754;  222,823;10224,563;39,16249
 984,39; 4189,754;  309,746;10177,333;39,32074
 984,94; 4056,215;  193,054;10055,871;39,16895
 985,49; 4095,062;  254,515; 9997,948;39,41677
 986,03; 4051,215;  233,592; 9924,563;39,39361
 986,58; 4027,754;  273,823; 9831,563;39,27634
 987,13; 3971,831;  225,285; 9711,179;39,49597
 987,68; 3946,677;  237,900; 9625,410;39,50757
 988,23; 3907,908;  246,669; 9541,333;39,39076
 988,78; 3857,369;  215,054; 9450,179;39,43981
 989,33; 3861,215;  247,208; 9348,410;39,70913
 989,88; 3853,062;  266,592; 9341,563;39,52045
 990,42; 3785,600;  227,515; 9220,640;39,56450
 990,97; 3746,062;  214,438; 9067,794;39,89022
 991,52; 3757,138;  245,285; 9052,871;39,87306
 992,07; 3738,292;  269,900; 8989,487;39,77703
 992,62; 3672,446;  237,285; 8861,410;39,83200
 993,17; 3665,908;  250,669; 8761,025;40,13038
 993,71; 3622,677;  256,054; 8735,256;39,70448
 994,26; 3553,292;  225,977; 8609,025;39,69100
 994,81; 3577,062;  255,746; 8560,717;39,99190
 995,36; 3499,831;  227,362; 8417,794;39,95478
 995,91; 3512,908;  235,823; 8371,640;40,27972
 996,45; 3453,754;  225,515; 8249,563;40,23204
 997,00; 3430,677;  211,208; 8114,871;40,73389
 997,55; 3406,908;  240,746; 8144,640;40,05825
 998,10; 3380,446;  267,054; 8010,179;40,20847
 998,65; 3321,908;  232,285; 7979,256;39,88169
 999,19; 3298,523;  260,746; 7907,871;39,72443
 999,74; 3283,369;  275,669; 7788,256;40,03548
1000,29; 3263,138;  237,131; 7731,179;40,37881
1000,84; 3194,985;  229,592; 7572,256;40,38579
1001,38; 3145,369;  239,438; 7539,640;39,80617
1001,93; 3150,138;  248,362; 7480,871;40,12130
1002,48; 3078,292;  218,285; 7299,256;40,39005
1003,03; 3113,677;  256,438; 7323,102;40,43264
1003,57; 3047,062;  235,285; 7216,102;40,27862
1004,12; 3030,908;  275,746; 7162,717;40,00542
1004,67; 2977,062;  237,746; 7084,256;40,01039
1005,22; 2950,369;  218,900; 6931,563;40,69129
1005,76; 2910,292;  202,900; 6815,025;40,94587
1006,31; 2888,446;  251,592; 6788,563;40,33755
1006,86; 2851,831;  230,746; 6727,256;40,34604
1007,40; 2808,600;  216,977; 6614,410;40,51036
1007,95; 2796,908;  247,054; 6506,025;40,73919
1008,50; 2741,523;  237,131; 6437,794;40,38910
1009,04; 2716,754;  236,285; 6353,102;40,55163
1009,59; 2676,523;  237,669; 6198,410;40,91528
1010,14; 2655,062;  212,592; 6121,717;41,33386
1010,68; 2627,754;  240,592; 6066,102;40,97773
1011,23; 2563,062;  237,362; 5991,563;40,41742
1011,78; 2578,831;  248,438; 5919,948;41,08945
1012,32; 2554,985;  264,977; 5834,256;41,11857
1012,87; 2557,600;  263,746; 5799,794;41,43486
1013,42; 2500,985;  219,285; 5676,640;41,80963
1013,96; 2517,677;  266,285; 5702,948;41,41129
1014,51; 2446,446;  194,515; 5638,717;41,36384
1015,06; 2471,600;  198,977; 5622,871;41,90021
1015,60; 2503,446;  270,131; 5678,948;41,29027
1016,15; 2474,677;  222,208; 5631,025;41,64439
1016,69; 2508,369;  243,131; 5662,717;41,79726
1017,24; 2493,523;  214,208; 5628,410;42,09882
1017,79; 2537,600;  259,592; 5696,948;41,89551
1018,33; 2514,369;  231,515; 5689,410;41,82664
1018,88; 2562,292;  257,208; 5746,333;41,99366
1019,42; 2557,600;  223,285; 5714,640;42,50891
1019,97; 2555,754;  220,977; 5688,102;42,70575
1020,51; 2606,062;  259,746; 5828,410;42,13426
1021,06; 2558,215;  215,438; 5724,717;42,52420
1021,61; 2553,677;  197,208; 5715,640;42,70178
1022,15; 2534,985;  175,746; 5684,256;42,82898
1022,70; 2585,677;  233,823; 5684,717;43,14620
1023,24; 2536,292;  207,669; 5655,179;42,74656
1023,79; 2537,369;  210,592; 5595,487;43,20933
1024,33; 2520,369;  222,977; 5567,102;42,98912
1024,88; 2483,215;  237,285; 5434,410;43,21487
1025,42; 2469,754;  242,208; 5380,256;43,35394
1025,97; 2431,369;  223,746; 5349,487;43,06935
1026,51; 2351,215;  193,362; 5236,640;42,78672
1027,06; 2356,677;  207,669; 5202,410;43,02541
1027,60; 2343,831;  237,977; 5131,717;43,03158
1028,15; 2312,446;  240,438; 5051,871;43,06426
1028,69; 2222,062;  182,592; 4920,794;43,04311
1029,24; 2227,985;  205,131; 4923,025;42,87620
1029,78; 2194,831;  205,515; 4815,640;43,15101
1030,33; 2162,369;  193,592; 4682,102;43,86260
1030,87; 2151,292;  204,362; 4647,487;43,81895
1031,42; 2098,369;  196,438; 4556,487;43,62178
1031,96; 2119,138;  236,823; 4548,102;43,66026
1032,51; 2064,446;  203,438; 4440,717;43,91988
1033,05; 2066,062;  218,438; 4427,487;43,89646
1033,60; 1987,523;  192,669; 4295,871;43,74276
1034,14; 1994,523;  213,823; 4250,487;44,11316
1034,69; 1980,908;  216,515; 4207,410;44,21045
1035,23; 1938,677;  216,131; 4128,179;44,03182
1035,77; 1933,985;  222,208; 4076,333;44,41415
1036,32; 1878,908;  196,054; 3986,717;44,39470
1036,86; 1885,754;  222,669; 3999,102;44,03851
1037,41; 1874,138;  229,592; 3900,025;44,80524
1037,95; 1808,908;  180,746; 3846,102;44,42029
1038,50; 1796,215;  202,208; 3803,487;44,26227
1039,04; 1790,985;  241,131; 3772,948;43,88262
1039,58; 1744,985;  210,054; 3700,256;43,97828
1040,13; 1730,677;  215,669; 3657,871;44,01275
1040,67; 1740,369;  252,285; 3627,640;44,08675
1041,21; 1712,985;  244,208; 3596,717;43,81127
1041,76; 1659,985;  204,285; 3487,179;44,34197
1042,30; 1660,677;  211,592; 3481,948;44,30969
1042,85; 1622,754;  221,823; 3406,487;43,98992
1043,39; 1616,369;  198,131; 3354,563;44,93169
1043,93; 1610,677;  243,515; 3342,794;44,11225
1044,48; 1575,369;  230,592; 3280,640;44,09035
1045,02; 1555,446;  214,746; 3214,563;44,69272
1045,56; 1561,523;  242,592; 3238,410;44,02574
1046,11; 1522,138;  227,438; 3181,794;43,82343
1046,65; 1508,138;  238,208; 3089,025;44,54620
1047,19; 1484,292;  208,823; 3051,563;44,86759
1047,74; 1426,292;  191,900; 2994,487;44,04475
1048,28; 1456,369;  226,131; 3001,333;44,32969
1048,82; 1463,138;  243,592; 2956,025;44,96134
1049,37; 1436,062;  232,746; 2932,487;44,57152
1049,91; 1421,292;  224,362; 2855,256;45,49521
1050,45; 1387,138;  227,362; 2829,794;44,56511
1050,99; 1372,446;  229,362; 2806,487;44,35503
1051,54; 1330,908;  209,131; 2730,794;44,48559
1052,08; 1361,138;  251,746; 2717,333;44,99507
1052,62; 1348,369;  238,977; 2689,333;45,27474
1053,16; 1302,985;  216,592; 2629,871;45,01727
1053,71; 1305,523;  225,823; 2601,333;45,45130
1054,25; 1279,754;  254,054; 2566,948;44,34703
1054,79; 1264,908;  235,438; 2547,179;44,53222
1055,33; 1234,138;  200,131; 2450,640;45,94549
1055,88; 1223,292;  230,054; 2484,256;44,06165
1056,42; 1232,985;  241,823; 2468,640;44,51023
1056,96; 1229,908;  241,515; 2394,948;45,89845
1057,50; 1196,446;  234,131; 2408,871;44,24967
1058,05; 1191,446;  222,977; 2317,948;46,22828
1058,59; 1177,523;  256,977; 2302,794;44,99650
1059,13; 1123,446;  215,285; 2243,179;44,78348
1059,67; 1144,215;  236,900; 2229,640;45,53104
1060,21; 1108,292;  245,592; 2211,256;43,88849
1060,76; 1127,677;  235,208; 2190,179;45,65127
1061,30; 1107,062;  254,669; 2150,179;44,96903
1061,84; 1093,600;  238,977; 2104,410;45,81366
1062,38; 1056,523;  220,515; 2055,025;45,57118
1062,92; 1113,062;  267,208; 2092,333;46,34498
1063,46; 1050,908;  242,900; 2023,256;45,38462
1064,01; 1022,831;  230,669; 1992,794;44,95490
1064,55; 1030,292;  236,208; 1976,563;45,62772
1065,09;  977,062;  202,208; 1910,025;45,37100
1065,63; 1029,523;  265,438; 1932,640;45,83036
1066,17; 1032,523;  271,823; 1910,563;46,41980
1066,71;  994,600;  245,900; 1891,487;45,49746
1067,25;  962,062;  232,900; 1824,102;45,82458
1067,80;  964,523;  247,515; 1830,717;45,28846
1068,34;  979,985;  257,746; 1846,410;45,46202
1068,88;  929,677;  220,592; 1753,102;46,26951
1069,42;  957,677;  255,438; 1791,717;45,71035
1069,96;  914,062;  229,900; 1733,640;45,49732
1070,50;  954,292;  271,131; 1754,948;46,04081
1071,04;  881,062;  216,823; 1685,717;45,22031
1071,58;  904,677;  238,362; 1667,871;46,61147
1072,12;  894,677;  239,823; 1649,717;46,44702
1072,66;  878,292;  240,362; 1640,871;45,54990
1073,21;  886,600;  255,438; 1643,333;45,47620
1073,75;  858,292;  247,823; 1602,256;45,07195
1074,29;  841,831;  237,438; 1575,025;45,18529
1074,83;  859,600;  261,746; 1580,025;45,35109
1075,37;  876,138;  258,669; 1574,102;46,94039
1075,91;  836,831;  243,208; 1527,179;46,23337
1076,45;  826,985;  251,131; 1527,948;45,10072
1076,99;  845,292;  262,669; 1491,410;47,41629
1077,53;  811,523;  229,977; 1465,871;47,05469
1078,07;  800,292;  259,131; 1478,333;44,38654
1078,61;  793,292;  247,208; 1439,025;45,81949
1079,15;  784,446;  240,823; 1419,333;46,12801
1079,69;  786,985;  238,285; 1411,410;46,77251
1080,23;  785,908;  272,438; 1414,333;44,96644
1080,77;  824,292;  314,900; 1445,640;45,04945
1081,31;  754,292;  232,823; 1355,948;46,43020
1081,85;  771,215;  265,054; 1380,794;45,36553
1082,39;  749,600;  240,669; 1324,794;46,94392
1082,93;  765,600;  260,900; 1341,563;46,70279
1083,47;  708,523;  227,823; 1288,102;45,33713
1084,01;  748,754;  254,669; 1299,410;47,29257
1084,55;  715,908;  245,362; 1275,025;45,69902
1085,09;  735,985;  257,669; 1277,025;46,92330
1085,63;  720,908;  252,746; 1253,333;46,78871
1086,17;  689,292;  229,515; 1243,102;45,36139
1086,71;  683,985;  237,054; 1222,717;45,34314
1087,24;  718,369;  263,131; 1234,025;46,88857
1087,78;  710,446;  267,438; 1210,333;46,98382
1088,32;  661,600;  229,054; 1147,640;47,08823
1088,86;  686,754;  258,285; 1194,102;45,78556
1089,40;  690,446;  238,438; 1152,871;49,43040
1089,94;  641,831;  221,515; 1128,717;46,33096
1090,48;  658,523;  247,746; 1130,256;46,54645
1091,02;  663,908;  266,515; 1135,333;45,73946
1091,56;  643,369;  249,285; 1090,487;46,84780
1092,10;  617,138;  221,669; 1072,256;46,49371
1092,63;  661,292;  265,131; 1099,256;47,49427
1093,17;  645,369;  264,669; 1091,179;46,06117
1093,71;  603,985;  227,669; 1046,948;45,93252
1094,25;  633,985;  268,362; 1067,640;45,74412
1094,79;  625,062;  244,054; 1043,025;47,68729
1095,33;  612,600;  256,438; 1041,025;45,39481
1095,87;  607,215;  251,977; 1015,563;46,52236
1096,40;  586,062;  223,515;  985,640;47,57043
1096,94;  587,062;  244,900;  997,563;45,46010
1097,48;  603,908;  267,285;  998,871;46,01275
1098,02;  573,600;  235,208;  964,256;46,41564
1098,56;  537,138;  212,746;  929,871;45,23511
1099,10;  550,908;  228,208;  923,487;46,41303
1099,63;  552,908;  215,438;  921,871;47,77090
1100,17;  574,138;  249,823;  929,102;47,74407
1100,71;  605,985;  268,515;  954,410;49,20135

