
Integration time [ms]: 150,000
Averaging Nr. [scans]: 13
Smoothing Nr. [pixels]: 0
Data measured with spectrometer [name]: 2009305U1
Wave   ;Sample   ;Dark     ;Reference;Reflectance
[nm]   ;[counts] ;[counts] ;[counts] ;[%]

 175,72;  228,961;  220,059;  219,839; 0,00000
 176,32;  241,590;  244,133;  235,111; 0,00000
 176,92;  293,135;  296,904;  286,352; 0,00000
 177,52;  281,449;  278,135;  278,215; 0,00000
 178,12;  256,113;  261,210;  251,705; 0,00000
 178,72;  282,322;  289,210;  260,310; 0,00000
 179,32;  289,948;  273,595;  266,225; 0,00000
 179,92;  270,051;  279,519;  265,978; 0,00000
 180,52;  262,434;  255,753;  268,579;52,09200
 181,12;  266,813;  283,134;  271,317; 0,00000
 181,73;  299,324;  296,827;  283,857; 0,00000
 182,33;  418,270;  403,290;  405,616;643,94271
 182,93;  298,112;  305,905;  290,593; 0,00000
 183,53;  248,180;  261,055;  248,819; 0,00000
 184,13;  252,242;  266,133;  248,344; 0,00000
 184,73;  312,839;  312,440;  294,762; 0,00000
 185,33;  278,381;  268,194;  345,473;13,18176
 185,93;  282,600;  266,500;  362,838;16,71203
 186,53;  308,523;  277,270;  382,013;29,83735
 187,13;  322,113;  292,657;  415,827;23,91513
 187,73;  285,755;  256,193;  363,692;27,50031
 188,33;  292,649;  266,730;  375,280;23,87788
 188,93;  307,949;  274,112;  378,002;32,57034
 189,53;  292,330;  274,109;  398,671;14,62760
 190,13;  346,111;  302,567;  434,752;32,94160
 190,73;  277,835;  237,185;  368,824;30,88022
 191,34;  315,902;  278,495;  406,065;29,32275
 191,94;  291,766;  261,883;  376,661;26,03565
 192,54;  305,394;  267,504;  385,011;32,24426
 193,14;  322,555;  292,041;  397,986;28,80177
 193,74;  305,288;  293,503;  382,193;13,28865
 194,34;  307,653;  289,119;  385,065;19,31721
 194,94;  277,372;  249,195;  342,210;30,29281
 195,54;  231,493;  222,040;  332,873; 8,52841
 196,14;  279,544;  247,427;  348,372;31,81592
 196,74;  263,318;  246,732;  340,255;17,73448
 197,34;  255,618;  210,890;  336,743;35,54063
 197,94;  270,734;  252,118;  374,221;15,24591
 198,54;  283,209;  265,658;  377,640;15,67367
 199,14;  263,534;  233,044;  366,592;22,83078
 199,74;  253,871;  215,352;  344,214;29,89192
 200,34;  256,077;  215,275;  354,490;29,30846
 200,94;  290,484;  252,197;  385,688;28,68155
 201,54;  260,243;  227,198;  405,188;18,56616
 202,14;  313,952;  273,660;  451,776;22,62113
 202,74;  273,656;  238,582;  429,928;18,32996
 203,34;  250,115;  207,738;  438,885;18,33343
 203,94;  223,637;  188,353;  433,807;14,37514
 204,54;  286,724;  266,888;  530,748; 7,51777
 205,14;  249,123;  213,967;  526,552;11,24682
 205,74;  307,133;  263,738;  594,026;13,13867
 206,34;  269,434;  223,891;  588,575;12,48848
 206,94;  271,200;  231,352;  631,755; 9,95184
 207,54;  243,604;  212,891;  634,827; 7,27904
 208,14;  274,167;  227,968;  719,908; 9,39123
 208,74;  276,985;  224,736;  773,573; 9,51983
 209,34;  283,368;  224,352;  836,153; 9,64624
 209,94;  276,359;  233,736;  911,177; 6,29176
 210,54;  289,198;  224,276;  983,076; 8,55586
 211,14;  298,301;  230,121; 1067,857; 8,13857
 211,73;  305,638;  234,659; 1152,814; 7,73061
 212,33;  312,378;  247,582; 1232,836; 6,57663
 212,93;  311,695;  226,505; 1322,715; 7,77130
 213,53;  272,091;  192,890; 1352,349; 6,83084
 214,13;  351,362;  225,662; 1439,039;10,35956
 214,73;  306,567;  200,506; 1433,237; 8,60374
 215,33;  290,975;  185,967; 1450,562; 8,30365
 215,93;  339,252;  218,738; 1562,395; 8,96914
 216,53;  298,533;  178,890; 1610,508; 8,35719
 217,13;  366,278;  232,584; 1772,350; 8,68274
 217,73;  349,080;  212,046; 1909,715; 8,07193
 218,33;  334,130;  181,662; 1998,465; 8,39211
 218,93;  396,484;  205,895; 2256,578; 9,29396
 219,53;  398,621;  212,585; 2457,318; 8,28766
 220,13;  385,535;  171,124; 2715,314; 8,42750
 220,73;  419,726;  204,429; 2974,344; 7,77269
 221,32;  462,215;  200,121; 3284,112; 8,49855
 221,92;  509,344;  207,124; 3589,947; 8,93396
 222,52;  517,142;  189,661; 3885,540; 8,86070
 223,12;  529,307;  205,200; 4216,790; 8,07927
 223,72;  560,951;  212,661; 4530,489; 8,06633
 224,32;  610,246;  218,431; 4842,127; 8,47408
 224,92;  602,424;  190,661; 5053,662; 8,46726
 225,52;  655,998;  220,275; 5374,992; 8,45290
 226,12;  652,837;  198,584; 5558,458; 8,47508
 226,72;  663,208;  175,507; 5803,857; 8,66508
 227,31;  680,616;  171,507; 6079,777; 8,61690
 227,91;  741,133;  220,044; 6386,690; 8,45011
 228,51;  734,554;  197,120; 6656,797; 8,31983
 229,11;  787,069;  199,891; 6967,339; 8,67651
 229,71;  801,459;  193,813; 7214,628; 8,65492
 230,31;  823,492;  184,969; 7483,812; 8,74828
 230,91;  827,135;  174,273; 7733,655; 8,63644
 231,51;  891,335;  179,276; 7951,943; 9,16106
 232,10;  915,491;  188,739; 8162,007; 9,11486
 232,70;  951,730;  209,042; 8372,758; 9,09743
 233,30;  989,780;  232,122; 8534,145; 9,12618
 233,90;  987,803;  188,430; 8662,449; 9,43323
 234,50;  993,539;  191,122; 8700,749; 9,42952
 235,10; 1014,039;  180,815; 8734,354; 9,74128
 235,70; 1044,231;  213,890; 8729,182; 9,75116
 236,29; 1058,438;  206,505; 8613,828;10,13322
 236,89; 1030,841;  176,658; 8461,795;10,30982
 237,49; 1077,580;  208,661; 8375,802;10,63921
 238,09; 1056,896;  194,122; 8112,345;10,89606
 238,69; 1085,419;  253,042; 7921,225;10,85494
 239,29; 1059,211;  195,891; 7634,005;11,60671
 239,89; 1037,587;  197,351; 7351,182;11,74526
 240,48; 1033,535;  194,814; 7022,188;12,28468
 241,08; 1009,223;  193,814; 6725,598;12,48372
 241,68; 1056,674;  210,429; 6503,090;13,44811
 242,28; 1023,795;  186,276; 6208,935;13,90613
 242,88; 1069,161;  243,354; 5978,661;14,39865
 243,48; 1079,627;  239,430; 5695,796;15,39848
 244,07; 1034,310;  207,506; 5548,840;15,47936
 244,67; 1064,072;  223,968; 5400,152;16,23018
 245,27; 1078,253;  223,197; 5286,737;16,88652
 245,87; 1124,476;  226,508; 5191,014;18,08776
 246,47; 1132,537;  206,582; 5187,971;18,58829
 247,06; 1143,184;  188,814; 5185,657;19,09947
 247,66; 1204,806;  193,506; 5215,136;20,13888
 248,26; 1273,734;  217,198; 5355,809;20,56074
 248,86; 1333,596;  214,736; 5496,138;21,18490
 249,46; 1355,613;  161,430; 5668,629;21,68404
 250,05; 1488,092;  212,968; 5986,021;22,08752
 250,65; 1593,414;  174,966; 6167,859;23,66883
 251,25; 1679,037;  191,506; 6617,318;23,14932
 251,85; 1820,738;  197,966; 7047,216;23,69269
 252,44; 1952,931;  183,429; 7553,263;24,01008
 253,04; 2166,418;  206,506; 8118,805;24,77045
 253,64; 2321,626;  159,659; 8738,018;25,20257
 254,24; 2582,832;  215,199; 9500,630;25,49837
 254,84; 2782,536;  181,584;10343,706;25,59458
 255,43; 3006,632;  200,429;11114,700;25,71132
 256,03; 3220,714;  197,428;11984,037;25,65017
 256,63; 3482,096;  199,812;12838,099;25,97095
 257,23; 3712,412;  197,120;13650,075;26,13026
 257,82; 3957,373;  207,427;14628,421;26,00338
 258,42; 4125,633;  176,580;15329,840;26,06075
 259,02; 4445,901;  226,429;16241,836;26,34633
 259,62; 4545,836;  182,195;16840,254;26,19538
 260,21; 4706,573;  211,044;17450,764;26,07658
 260,81; 4838,701;  201,814;17992,983;26,06286
 261,41; 4947,279;  176,965;18444,469;26,11366
 262,01; 5080,978;  228,426;18940,842;25,93226
 262,60; 5105,719;  188,120;19269,383;25,77188
 263,20; 5234,120;  186,890;19666,922;25,90977
 263,80; 5266,768;  221,964;19809,334;25,75539
 264,40; 5253,663;  181,195;20067,643;25,50716
 264,99; 5298,526;  209,810;20302,700;25,32595
 265,59; 5287,475;  188,347;20477,711;25,13202
 266,19; 5286,644;  187,656;20695,956;24,86304
 266,78; 5303,136;  232,809;20808,334;24,64252
 267,38; 5230,580;  207,963;20827,682;24,35832
 267,98; 5191,656;  209,117;20843,731;24,14651
 268,58; 5138,911;  207,117;20903,679;23,82905
 269,17; 5127,761;  186,577;20957,009;23,78951
 269,77; 5037,962;  212,581;20879,353;23,34850
 270,37; 4936,239;  187,656;20705,884;23,14324
 270,96; 4899,423;  231,119;20633,688;22,88096
 271,56; 4759,812;  191,120;20455,634;22,54528
 272,16; 4641,141;  192,580;20189,875;22,24581
 272,75; 4568,072;  202,196;20272,543;21,75287
 273,35; 4493,692;  202,196;20236,517;21,42072
 273,95; 4429,871;  197,426;20101,472;21,26424
 274,54; 4384,190;  175,275;20201,359;21,01716
 275,14; 4415,262;  225,888;20492,182;20,67163
 275,74; 4313,144;  170,657;20486,687;20,39024
 276,33; 4368,882;  229,350;20803,386;20,12017
 276,93; 4368,064;  218,660;21101,099;19,87030
 277,53; 4429,621;  197,121;21620,065;19,75686
 278,12; 4475,171;  181,274;21953,294;19,72209
 278,72; 4602,122;  256,582;22466,776;19,56552
 279,32; 4576,007;  193,736;22982,101;19,23030
 279,91; 4659,133;  176,890;23591,053;19,14330
 280,51; 4754,268;  200,890;23952,577;19,17076
 281,11; 4836,311;  201,197;24617,127;18,98397
 281,70; 4853,040;  171,889;25020,332;18,83881
 282,30; 4994,658;  202,812;25560,327;18,89714
 282,90; 5067,194;  194,120;25900,899;18,95638
 283,49; 5199,106;  205,350;26268,446;19,16026
 284,09; 5294,389;  226,735;26763,393;19,09680
 284,69; 5353,590;  235,197;27083,359;19,06422
 285,28; 5424,206;  219,274;27335,695;19,19476
 285,88; 5536,907;  284,349;27558,447;19,25841
 286,47; 5515,780;  199,889;27665,739;19,35455
 287,07; 5624,285;  234,736;27693,556;19,62775
 287,67; 5717,397;  216,661;27810,411;19,93472
 288,26; 5799,588;  194,659;27831,777;20,28044
 288,86; 5902,700;  190,351;27780,514;20,70430
 289,46; 6017,038;  207,505;28017,758;20,88990
 290,05; 6153,085;  198,198;28030,312;21,39574
 290,65; 6314,124;  190,966;28193,098;21,86676
 291,24; 6482,119;  205,198;28329,040;22,31886
 291,84; 6676,173;  216,581;28469,176;22,86371
 292,44; 6798,975;  222,815;28563,052;23,20433
 293,03; 7022,477;  286,121;28746,923;23,66889
 293,63; 7108,064;  209,120;28796,357;24,13295
 294,22; 7266,799;  224,274;28972,167;24,49753
 294,82; 7327,080;  195,041;29038,924;24,72635
 295,41; 7330,347;  179,812;28741,332;25,03555
 296,01; 7417,175;  232,042;28716,960;25,22434
 296,61; 7432,063;  225,967;28459,378;25,52329
 297,20; 7380,905;  202,580;28170,096;25,66665
 297,80; 7390,702;  216,968;28132,858;25,69767
 298,39; 7250,430;  188,427;27753,524;25,61936
 298,99; 7313,707;  227,657;27623,153;25,86575
 299,58; 7209,274;  220,122;27562,992;25,56115
 300,18; 7185,016;  223,814;27299,287;25,71036
 300,78; 7065,685;  199,736;27016,165;25,60352
 301,37; 7025,377;  223,425;27044,086;25,36086
 301,97; 7056,677;  229,197;27053,448;25,45264
 302,56; 6987,949;  198,427;26910,529;25,41740
 303,16; 6926,741;  177,119;26880,826;25,27597
 303,75; 6870,859;  191,121;26905,775;25,00402
 304,35; 6954,789;  191,892;27131,436;25,10398
 304,94; 6886,863;  194,736;27120,113;24,85435
 305,54; 6845,292;  229,275;27073,881;24,64561
 306,13; 6757,182;  163,277;27079,258;24,49811
 306,73; 6678,203;  182,276;26829,317;24,37767
 307,33; 6688,515;  215,199;26837,088;24,31577
 307,92; 6659,222;  208,967;26898,695;24,16756
 308,52; 6693,040;  181,196;27253,927;24,05315
 309,11; 6740,880;  195,349;27664,861;23,82835
 309,71; 6798,927;  173,887;27967,959;23,83616
 310,30; 6801,676;  200,044;28164,104;23,60756
 310,90; 6866,983;  246,967;28445,181;23,47672
 311,49; 6833,460;  211,582;28591,433;23,33303
 312,09; 6833,454;  170,968;28799,598;23,27211
 312,68; 6969,014;  272,582;29061,811;23,26020
 313,28; 6889,376;  186,044;29195,234;23,10762
 313,87; 6856,925;  164,274;29338,553;22,94024
 314,47; 6893,777;  196,272;29582,828;22,79105
 315,06; 6910,586;  182,813;29634,434;22,84347
 315,66; 6904,839;  180,429;29838,983;22,67275
 316,25; 6823,341;  168,966;29707,112;22,52807
 316,85; 6805,818;  166,429;29844,952;22,37102
 317,44; 6837,299;  183,965;29965,107;22,34076
 318,04; 6783,170;  177,658;29952,748;22,18469
 318,63; 6748,307;  169,276;30035,972;22,02798
 319,22; 6784,606;  190,966;30189,128;21,98015
 319,82; 6736,354;  193,735;30266,455;21,75599
 320,41; 6689,076;  218,120;30140,489;21,62582
 321,01; 6704,825;  216,044;30224,613;21,62309
 321,60; 6693,079;  206,351;30290,966;21,56161
 322,20; 6627,408;  188,505;30278,437;21,39886
 322,79; 6644,305;  215,736;30386,859;21,30703
 323,39; 6634,518;  182,584;30387,488;21,36055
 323,98; 6640,138;  175,505;30420,496;21,37423
 324,58; 6553,374;  183,273;30356,813;21,11155
 325,17; 6572,630;  191,889;30287,818;21,20134
 325,76; 6528,842;  208,274;30100,390;21,14460
 326,36; 6390,822;  188,044;29826,570;20,92809
 326,95; 6403,087;  215,197;29616,480;21,04633
 327,55; 6274,041;  179,581;29302,445;20,92672
 328,14; 6205,970;  180,968;28946,224;20,94541
 328,74; 6159,227;  216,812;28545,984;20,97631
 329,33; 6096,970;  206,275;28335,099;20,94185
 329,92; 5964,296;  175,042;27842,756;20,92422
 330,52; 5864,928;  212,660;27254,317;20,90208
 331,11; 5781,105;  194,274;26905,621;20,91557
 331,71; 5696,056;  194,274;26370,284;21,01841
 332,30; 5641,171;  217,351;26084,189;20,96824
 332,89; 5585,755;  283,967;25567,427;20,96939
 333,49; 5439,498;  209,812;25049,289;21,05393
 334,08; 5350,245;  196,812;24639,713;21,08356
 334,68; 5302,017;  196,043;24338,140;21,14967
 335,27; 5228,335;  219,507;23951,048;21,10621
 335,86; 5249,567;  267,582;23773,621;21,19449
 336,46; 5168,136;  217,968;23539,405;21,22583
 337,05; 5120,283;  193,043;23364,156;21,26458
 337,65; 5086,736;  186,966;23286,565;21,21149
 338,24; 5147,366;  257,198;23232,838;21,28415
 338,83; 5133,680;  227,429;23044,540;21,50251
 339,43; 5085,757;  202,043;23179,624;21,25426
 340,02; 5097,717;  206,581;23090,444;21,37373
 340,61; 5168,790;  199,967;23105,317;21,69285
 341,21; 5175,381;  228,812;23102,830;21,62527
 341,80; 5219,807;  206,889;23027,556;21,96657
 342,40; 5259,011;  215,968;23106,096;22,03152
 342,99; 5296,447;  217,660;23249,812;22,05086
 343,58; 5357,817;  203,429;23336,406;22,28156
 344,18; 5382,931;  229,429;23501,004;22,14505
 344,77; 5502,330;  192,504;23713,863;22,57449
 345,36; 5553,856;  200,120;23982,249;22,51159
 345,96; 5671,254;  226,352;24303,794;22,61412
 346,55; 5773,704;  191,123;24492,922;22,97188
 347,14; 5885,552;  191,045;24746,293;23,19059
 347,74; 6028,131;  184,124;25075,935;23,47763
 348,33; 6205,343;  202,970;25719,170;23,52377
 348,92; 6399,172;  216,201;26157,009;23,83492
 349,52; 6506,286;  197,047;26639,250;23,86049
 350,11; 6646,292;  214,350;26847,188;24,15042
 350,70; 6708,403;  210,813;26963,736;24,28740
 351,29; 6665,237;  202,348;26696,100;24,39401
 351,89; 6680,853;  231,657;26695,513;24,36983
 352,48; 6770,862;  202,198;26809,385;24,68756
 353,07; 6850,802;  243,276;26673,903;24,99951
 353,67; 6869,313;  236,432;26612,724;25,14713
 354,26; 6874,040;  218,506;26397,179;25,42349
 354,85; 6897,436;  226,968;26325,534;25,55875
 355,45; 6894,717;  203,120;26194,801;25,74515
 356,04; 6909,763;  209,507;26137,809;25,84148
 356,63; 6947,196;  256,582;25949,606;26,04059
 357,22; 6955,852;  222,118;25757,303;26,37042
 357,82; 6979,382;  217,657;25677,760;26,55812
 358,41; 7026,014;  245,967;25592,300;26,74962
 359,00; 6990,553;  200,504;25463,741;26,87719
 359,60; 7056,724;  225,429;25318,490;27,22384
 360,19; 7057,676;  247,892;25197,413;27,29425
 360,78; 7121,298;  226,581;25028,254;27,79940
 361,37; 7086,020;  213,120;24979,030;27,75145
 361,97; 7140,542;  236,736;24760,050;28,15201
 362,56; 7090,928;  226,196;24554,526;28,21703
 363,15; 7167,828;  296,504;24384,202;28,52628
 363,74; 7117,295;  240,811;24035,490;28,89925
 364,34; 7108,190;  254,119;23692,079;29,24346
 364,93; 7017,684;  225,504;23376,310;29,33885
 365,52; 6967,259;  203,582;23014,467;29,65110
 366,11; 6930,964;  218,658;22762,319;29,77470
 366,71; 6855,068;  223,581;22404,821;29,89683
 367,30; 6859,034;  240,505;22125,708;30,24203
 367,89; 6859,995;  259,121;21940,565;30,44481
 368,48; 6836,507;  245,965;21650,964;30,78973
 369,07; 6771,634;  238,428;21260,582;31,07772
 369,67; 6777,140;  260,734;21081,993;31,29688
 370,26; 6711,462;  221,198;20727,594;31,64995
 370,85; 6673,156;  234,043;20484,043;31,79809
 371,44; 6669,613;  237,428;20344,195;31,99015
 372,03; 6629,755;  208,119;20084,965;32,30711
 372,63; 6627,912;  198,889;19851,219;32,71380
 373,22; 6542,726;  225,659;19566,064;32,66254
 373,81; 6532,514;  214,735;19257,156;33,17739
 374,40; 6525,997;  217,122;19095,341;33,41880
 374,99; 6474,619;  214,581;18818,155;33,64965
 375,59; 6499,190;  222,122;18649,898;34,06308
 376,18; 6484,550;  241,889;18485,669;34,21802
 376,77; 6483,239;  247,505;18322,983;34,49831
 377,36; 6492,230;  266,428;18254,461;34,61080
 377,95; 6486,127;  252,735;18024,449;35,07479
 378,55; 6458,748;  215,891;17939,536;35,22333
 379,14; 6480,742;  249,197;17780,036;35,54619
 379,73; 6477,416;  237,812;17711,692;35,70818
 380,32; 6553,722;  233,890;17803,167;35,97093
 380,91; 6523,954;  204,350;17635,943;36,25374
 381,50; 6593,650;  233,658;17607,379;36,60697
 382,10; 6601,722;  227,813;17520,244;36,85953
 382,69; 6601,124;  198,428;17476,839;37,05604
 383,28; 6662,590;  244,965;17412,792;37,38169
 383,87; 6655,844;  218,273;17300,327;37,68616
 384,46; 6635,544;  221,503;17238,428;37,69213
 385,05; 6765,854;  242,811;17208,185;38,44915
 385,64; 6738,657;  220,273;17237,165;38,30537
 386,24; 6794,332;  213,503;17209,954;38,71884
 386,83; 6857,673;  240,964;17219,270;38,97155
 387,42; 6943,177;  243,043;17280,640;39,32558
 388,01; 7065,721;  251,732;17463,012;39,59025
 388,60; 7197,280;  242,811;17692,420;39,85458
 389,19; 7266,248;  222,039;17776,810;40,12703
 389,78; 7447,743;  212,039;18081,791;40,49135
 390,37; 7706,042;  290,348;18425,585;40,89108
 390,96; 7740,453;  247,195;18538,289;40,96670
 391,56; 7797,585;  245,038;18650,999;41,03316
 392,15; 7931,256;  226,039;18893,374;41,27647
 392,74; 8024,910;  197,729;19049,831;41,51888
 393,33; 8235,181;  234,500;19341,004;41,87412
 393,92; 8409,328;  245,651;19701,937;41,95907
 394,51; 8479,303;  228,038;19784,570;42,19186
 395,10; 8688,283;  260,725;20078,734;42,52474
 395,69; 8719,582;  259,803;20168,346;42,49321
 396,28; 8807,461;  247,186;20289,710;42,71057
 396,87; 8913,646;  265,568;20384,471;42,98484
 397,46; 9009,505;  282,182;20462,379;43,24697
 398,06; 9164,681;  294,795;20668,445;43,53607
 398,65; 9182,889;  269,560;20697,307;43,63344
 399,24; 9346,336;  300,482;20815,419;44,09399
 399,83; 9388,347;  245,398;20785,856;44,51190
 400,42; 9474,619;  311,238;20996,048;44,30005
 401,01; 9615,071;  293,462;21115,874;44,76719
 401,60; 9613,133;  298,299;21093,710;44,79274
 402,19; 9659,838;  326,829;21076,134;44,97986
 402,78; 9657,899;  332,587;21090,613;44,92389
 403,37; 9681,639;  298,883;20908,625;45,52583
 403,96; 9651,718;  310,947;20808,678;45,56978
 404,55; 9648,762;  327,086;20680,261;45,79962
 405,14; 9526,081;  297,612;20596,325;45,46332
 405,73; 9620,850;  316,596;20538,783;46,01013
 406,32; 9648,000;  329,355;20506,156;46,18495
 406,91; 9507,723;  310,727;20219,544;46,19559
 407,50; 9502,173;  319,260;20140,040;46,32972
 408,09; 9409,530;  296,102;19900,824;46,48588
 408,68; 9354,971;  292,175;19757,492;46,55869
 409,27; 9337,344;  303,487;19620,873;46,76542
 409,86; 9352,592;  295,804;19514,918;47,12386
 410,45; 9371,275;  351,658;19420,853;47,29941
 411,04; 9403,390;  335,359;19389,900;47,58987
 411,63; 9236,097;  315,292;19122,469;47,43298
 412,22; 9234,110;  327,763;18965,820;47,78581
 412,81; 9127,002;  346,228;18723,003;47,78191
 413,40; 9038,358;  357,309;18411,480;48,08334
 413,99; 8944,396;  394,616;18222,700;47,95681
 414,58; 8712,873;  301,001;17844,281;47,94925
 415,17; 8656,339;  332,613;17610,702;48,17504
 415,76; 8650,817;  320,301;17487,526;48,52570
 416,35; 8552,863;  305,149;17364,331;48,34765
 416,94; 8589,006;  339,610;17399,599;48,35523
 417,53; 8700,831;  311,536;17494,331;48,82381
 418,12; 8760,769;  323,306;17587,065;48,87385
 418,71; 8929,807;  332,233;17889,195;48,96960
 419,30; 8981,882;  318,999;17967,627;49,08531
 419,89; 9062,809;  301,692;18141,650;49,10952
 420,48; 9203,939;  335,387;18339,088;49,25961
 421,07; 9264,864;  318,695;18370,683;49,55780
 421,66; 9223,179;  307,235;18429,547;49,19871
 422,25; 9289,446;  313,547;18541,033;49,24376
 422,84; 9334,376;  318,086;18468,791;49,67460
 423,43; 9198,485;  310,469;18235,917;49,58323
 424,02; 9110,639;  344,547;18024,512;49,58207
 424,60; 8961,017;  307,859;17727,874;49,67366
 425,19; 8819,462;  316,164;17443,027;49,64889
 425,78; 8838,206;  333,088;17302,379;50,12065
 426,37; 8726,097;  331,012;17167,176;49,86341
 426,96; 8694,357;  311,705;17092,413;49,95410
 427,55; 8602,269;  307,630;16998,108;49,69683
 428,14; 8497,927;  296,632;16782,352;49,74788
 428,73; 8491,010;  303,014;16579,619;50,30530
 429,32; 8471,558;  335,012;16622,322;49,95635
 429,91; 8509,074;  348,629;16632,026;50,11512
 430,50; 8467,009;  336,246;16431,920;50,51521
 431,08; 8342,429;  342,709;16367,272;49,92161
 431,67; 8368,380;  383,326;16265,187;50,27782
 432,26; 8338,014;  396,173;16116,511;50,51953
 432,85; 8246,667;  417,865;15847,059;50,74019
 433,44; 8089,570;  435,097;15563,953;50,59519
 434,03; 7934,332;  443,484;15247,034;50,60170
 434,62; 7710,122;  407,790;14912,630;50,34411
 435,21; 7661,690;  422,404;14675,251;50,79186
 435,79; 7567,445;  432,253;14492,952;50,74564
 436,38; 7512,175;  402,255;14413,445;50,74458
 436,97; 7473,235;  396,178;14334,081;50,77562
 437,56; 7374,087;  401,413;14204,784;50,51429
 438,15; 7305,223;  389,643;14149,776;50,25810
 438,74; 7338,055;  414,181;14124,993;50,49937
 439,33; 7293,878;  364,181;14122,486;50,36738
 439,91; 7292,427;  341,336;14191,729;50,18696
 440,50; 7353,982;  387,260;14255,296;50,23583
 441,09; 7403,496;  390,492;14281,341;50,48650
 441,68; 7362,248;  356,802;14350,824;50,06028
 442,27; 7357,825;  344,109;14346,400;50,08978
 442,86; 7352,719;  323,344;14288,724;50,33429
 443,44; 7356,755;  338,728;14348,488;50,09384
 444,03; 7467,754;  430,421;14433,586;50,25530
 444,62; 7327,343;  355,267;14270,084;50,10541
 445,21; 7309,980;  364,343;14187,912;50,24488
 445,80; 7305,026;  397,730;14069,612;50,52191
 446,39; 7193,008;  440,653;13915,268;50,11167
 446,97; 7058,138;  343,579;13679,755;50,34846
 447,56; 6990,965;  345,889;13496,117;50,53202
 448,15; 6862,082;  356,810;13334,247;50,12756
 448,74; 6796,314;  366,733;13138,562;50,34190
 449,33; 6766,157;  355,504;13006,050;50,67491
 449,91; 6627,481;  357,121;12813,667;50,33787
 450,50; 6538,893;  360,659;12613,273;50,42380
 451,09; 6492,589;  366,429;12513,170;50,43460
 451,68; 6417,331;  389,045;12469,382;49,90164
 452,26; 6383,593;  402,892;12365,222;49,99612
 452,85; 6357,399;  371,507;12247,917;50,40153
 453,44; 6350,112;  393,356;12264,864;50,17691
 454,03; 6313,767;  362,585;12204,112;50,25688
 454,61; 6321,930;  332,049;12204,865;50,45038
 455,20; 6386,169;  387,127;12345,016;50,16807
 455,79; 6363,767;  390,356;12389,756;49,78092
 456,38; 6414,758;  405,898;12419,207;50,01836
 456,97; 6444,652;  378,590;12488,537;50,09157
 457,55; 6410,356;  370,822;12503,507;49,77904
 458,14; 6434,173;  415,281;12467,731;49,93915
 458,73; 6356,636;  393,437;12383,278;49,73543
 459,31; 6422,606;  422,439;12473,698;49,78871
 459,90; 6444,855;  445,515;12498,511;49,77468
 460,49; 6521,690;  511,822;12630,366;49,59233
 461,08; 6490,756;  395,055;12708,907;49,50280
 461,66; 6488,725;  392,670;12696,836;49,54464
 462,25; 6542,564;  400,826;12804,869;49,51401
 462,84; 6582,190;  424,286;12849,446;49,55995
 463,43; 6525,683;  368,828;12809,595;49,48936
 464,01; 6527,600;  399,059;12824,298;49,32332
 464,60; 6550,735;  469,904;12787,926;49,36532
 465,19; 6401,351;  376,214;12511,745;49,64873
 465,77; 6390,844;  410,599;12549,661;49,26447
 466,36; 6371,248;  431,674;12477,865;49,30666
 466,95; 6196,454;  409,982;12214,910;49,01743
 467,53; 6073,197;  418,677;12000,333;48,82307
 468,12; 5966,151;  446,370;11768,270;48,75313
 468,71; 5817,914;  414,829;11542,980;48,55331
 469,29; 5707,717;  393,370;11284,625;48,79463
 469,88; 5591,883;  416,833;11076,470;48,54809
 470,47; 5634,247;  474,296;11198,594;48,11458
 471,06; 5566,770;  434,911;11175,804;47,77870
 471,64; 5628,768;  424,680;11180,558;48,38366
 472,23; 5604,883;  400,530;11186,541;48,25096
 472,81; 5631,066;  411,605;11318,162;47,85617
 473,40; 5648,558;  409,145;11414,477;47,60794
 473,99; 5843,380;  536,145;11605,788;47,94405
 474,57; 5749,650;  421,453;11664,498;47,39105
 475,16; 5793,490;  425,144;11839,922;47,02979
 475,75; 5867,277;  455,993;11947,777;47,08829
 476,33; 5871,374;  451,994;11995,877;46,94590
 476,92; 5868,437;  456,992;12030,688;46,75641
 477,51; 5908,846;  443,917;12123,686;46,78970
 478,09; 5852,183;  445,840;12147,384;46,20196
 478,68; 5844,934;  451,686;12061,215;46,45535
 479,27; 5874,927;  472,377;12132,331;46,33423
 479,85; 5810,822;  442,994;12072,738;46,15603
 480,44; 5805,587;  423,456;12148,708;45,90204
 481,02; 6264,638;  452,227;13208,389;45,56551
 481,61; 6967,709;  475,457;14955,253;44,83663
 482,20; 7389,386;  452,534;16086,974;44,36905
 482,78; 7765,251;  481,225;16807,891;44,61429
 483,37; 7878,506;  477,459;17312,735;43,96154
 483,95; 8050,699;  515,075;17579,725;44,15927
 484,54; 8083,737;  500,918;17751,560;43,95674
 485,13; 7979,991;  481,000;17642,236;43,69727
 485,71; 7913,778;  443,614;17468,636;43,87756
 486,30; 7830,885;  504,615;17239,488;43,77846
 486,88; 7756,364;  567,923;16980,371;43,79872
 487,47; 7442,844;  514,308;16399,176;43,61721
 488,05; 7088,250;  506,462;15653,955;43,45134
 488,64; 6641,401;  498,310;14593,521;43,58282
 489,23; 6024,085;  510,386;13069,524;43,90189
 489,81; 5151,618;  510,771;11155,948;43,59577
 490,40; 4812,675;  457,617;10496,463;43,38205
 490,98; 4695,458;  448,464;10243,882;43,35694
 491,57; 4669,285;  473,001;10124,251;43,47917
 492,15; 4610,817;  450,310;10098,388;43,12265
 492,74; 4529,880;  463,462;10020,248;42,55005
 493,32; 4492,547;  461,156; 9944,783;42,50896
 493,91; 4423,969;  452,619; 9857,094;42,22830
 494,50; 4380,414;  454,621; 9793,626;42,03652
 495,08; 4361,580;  430,160; 9764,526;42,11770
 495,67; 4356,613;  470,080; 9742,939;41,91299
 496,25; 4238,482;  403,697; 9575,083;41,81249
 496,84; 4227,267;  408,080; 9641,341;41,36336
 497,42; 4190,304;  407,236; 9589,442;41,19999
 498,01; 4168,943;  431,388; 9532,746;41,06590
 498,59; 4099,507;  391,005; 9441,521;40,97558
 499,18; 4060,294;  384,003; 9425,815;40,65878
 499,76; 4060,845;  423,081; 9400,206;40,52260
 500,35; 3967,430;  414,237; 9110,549;40,85862
 500,93; 3959,704;  399,390; 9166,617;40,60935
 501,52; 3876,374;  394,236; 9082,243;40,07982
 502,10; 3883,897;  407,777; 9058,041;40,18513
 502,69; 3808,554;  385,085; 8889,046;40,25734
 503,27; 3695,552;  364,237; 8767,989;39,64081
 503,86; 3674,565;  396,085; 8717,401;39,39858
 504,44; 3622,962;  357,470; 8556,861;39,82603
 505,03; 3489,988;  357,624; 8381,055;39,04021
 505,61; 3476,284;  365,470; 8265,644;39,37652
 506,19; 3444,365;  378,163; 8144,080;39,48281
 506,78; 3347,820;  363,241; 7943,035;39,37546
 507,36; 3286,486;  360,239; 7839,184;39,12647
 507,95; 3249,702;  358,704; 7738,646;39,17372
 508,53; 3159,353;  352,241; 7598,333;38,73966
 509,12; 3119,517;  359,703; 7512,632;38,58299
 509,70; 3102,461;  389,319; 7357,865;38,93412
 510,29; 3055,917;  396,243; 7276,338;38,65751
 510,87; 2933,222;  357,087; 7066,022;38,39857
 511,46; 2872,418;  340,780; 6983,978;38,10872
 512,04; 2844,983;  369,243; 6844,347;38,23475
 512,62; 2769,063;  362,780; 6696,754;37,99009
 513,21; 2681,055;  337,551; 6626,702;37,26264
 513,79; 2659,536;  353,400; 6481,334;37,63317
 514,38; 2589,022;  319,630; 6345,079;37,66345
 514,96; 2586,875;  383,707; 6282,739;37,34796
 515,54; 2476,300;  332,015; 6144,275;36,89244
 516,13; 2464,988;  359,092; 6045,812;37,03182
 516,71; 2410,421;  335,862; 5951,219;36,94437
 517,30; 2342,171;  327,787; 5809,329;36,74850
 517,88; 2347,471;  351,248; 5779,046;36,77776
 518,46; 2274,757;  331,249; 5651,680;36,52915
 519,05; 2285,562;  335,172; 5613,445;36,95129
 519,63; 2233,799;  343,634; 5590,174;36,02688
 520,22; 2233,651;  355,405; 5514,646;36,40547
 520,80; 2176,694;  334,405; 5473,715;35,84702
 521,38; 2228,579;  395,480; 5447,396;36,28521
 521,97; 2142,345;  335,329; 5382,787;35,80053
 522,55; 2152,573;  356,021; 5386,283;35,71489
 523,13; 2097,386;  331,406; 5359,246;35,12402
 523,72; 2104,287;  335,402; 5333,935;35,38808
 524,30; 2170,159;  373,330; 5476,038;35,21324
 524,89; 2120,466;  317,329; 5451,164;35,12261
 525,47; 2140,479;  344,177; 5541,219;34,56393
 526,05; 2138,963;  307,561; 5591,026;34,66288
 526,64; 2189,196;  344,177; 5713,657;34,36122
 527,22; 2224,269;  342,253; 5800,480;34,48035
 527,80; 2244,954;  386,331; 5864,484;33,92791
 528,39; 2222,665;  325,255; 5897,066;34,05375
 528,97; 2266,422;  325,947; 6093,194;33,64648
 529,55; 2299,131;  351,560; 6193,788;33,33610
 530,14; 2374,689;  360,409; 6380,112;33,46145
 530,72; 2352,221;  329,408; 6463,046;32,97900
 531,30; 2376,655;  309,102; 6567,181;33,03815
 531,89; 2412,756;  339,101; 6668,332;32,76314
 532,47; 2440,700;  367,179; 6760,796;32,43111
 533,05; 2438,078;  354,946; 6794,555;32,34874
 533,63; 2439,263;  349,256; 6830,877;32,24513
 534,22; 2414,805;  332,179; 6850,228;31,95167
 534,80; 2455,370;  360,565; 6992,758;31,58541
 535,38; 2545,163;  465,332; 7061,139;31,53262
 535,97; 2420,629;  334,717; 7007,113;31,26180
 536,55; 2492,671;  393,334; 7050,405;31,53544
 537,13; 2430,106;  387,024; 7025,700;30,77543
 537,71; 2481,216;  424,563; 7075,170;30,92430
 538,30; 2493,852;  437,103; 7125,732;30,74994
 538,88; 2518,257;  470,566; 7249,189;30,20806
 539,46; 2564,752;  532,103; 7401,946;29,58800
 540,05; 2580,750;  523,643; 7479,267;29,57474
 540,63; 2637,167;  564,335; 7665,393;29,19047
 541,21; 2687,375;  602,182; 7839,915;28,81004
 541,79; 2725,860;  626,951; 7931,296;28,73508
 542,38; 2770,630;  649,258; 7995,737;28,87604
 542,96; 2755,377;  657,183; 8163,133;27,95375
 543,54; 2810,974;  693,951; 8313,117;27,78550
 544,12; 2815,244;  662,951; 8372,876;27,91587
 544,70; 2844,542;  644,721; 8485,152;28,05740
 545,29; 2856,763;  649,489; 8602,091;27,75537
 545,87; 2877,168;  644,951; 8649,065;27,88837
 546,45; 2824,083;  587,565; 8638,453;27,77977
 547,03; 2830,254;  580,258; 8751,531;27,53544
 547,62; 2827,439;  553,490; 8838,706;27,44587
 548,20; 2854,207;  561,337; 8978,950;27,23896
 548,78; 2843,856;  522,877; 9065,672;27,16884
 549,36; 2872,804;  496,646; 9190,936;27,33010
 549,94; 2846,526;  462,952; 9313,536;26,93127
 550,53; 2913,325;  465,261; 9505,822;27,07867
 551,11; 2891,702;  416,263; 9627,567;26,87393
 551,69; 2933,592;  443,569; 9876,538;26,39702
 552,27; 2973,805;  386,645;10085,376;26,67524
 552,85; 3038,903;  404,263;10370,253;26,43631
 553,44; 3063,536;  407,800;10633,415;25,97140
 554,02; 3137,861;  407,031;10902,913;26,01811
 554,60; 3128,949;  353,032;11157,288;25,69281
 555,18; 3272,290;  403,570;11510,163;25,82898
 555,76; 3322,734;  380,262;11787,107;25,79567
 556,34; 3369,254;  379,033;12088,728;25,53628
 556,93; 3417,401;  378,493;12359,487;25,36441
 557,51; 3438,259;  341,571;12642,045;25,17535
 558,09; 3514,014;  380,800;13024,674;24,78049
 558,67; 3555,597;  369,880;13360,339;24,52352
 559,25; 3612,754;  382,110;13550,794;24,53278
 559,83; 3671,407;  363,880;13792,567;24,63030
 560,41; 3668,759;  355,033;14055,671;24,18666
 561,00; 3782,650;  372,880;14372,880;24,35550
 561,58; 3774,108;  356,956;14549,424;24,07723
 562,16; 3800,089;  352,724;14810,534;23,84431
 562,74; 3833,403;  342,724;15169,571;23,54296
 563,32; 3903,762;  337,188;15520,945;23,48940
 563,90; 4004,162;  347,495;15847,994;23,59064
 564,48; 4024,648;  365,878;16100,844;23,25248
 565,06; 4113,453;  351,418;16628,812;23,11202
 565,65; 4229,763;  356,343;17214,512;22,97651
 566,23; 4376,268;  407,803;17829,462;22,77892
 566,81; 4433,109;  344,879;18389,250;22,65654
 567,39; 4562,899;  347,265;19136,196;22,43679
 567,97; 4696,774;  380,418;19670,789;22,37570
 568,55; 4858,165;  401,880;20462,856;22,21370
 569,13; 4906,582;  342,495;20941,625;22,15669
 569,71; 5035,214;  350,955;21809,989;21,82884
 570,29; 5247,807;  386,108;22649,825;21,83687
 570,87; 5358,419;  395,032;23273,292;21,69478
 571,45; 5427,615;  372,034;23807,095;21,57273
 572,03; 5492,542;  324,420;24254,552;21,59672
 572,61; 5554,186;  326,496;24871,809;21,29812
 573,20; 5676,702;  365,648;25371,827;21,23897
 573,78; 5779,250;  338,034;25980,062;21,21991
 574,36; 5831,652;  367,880;26388,119;20,99816
 574,94; 5974,339;  435,574;26697,061;21,09083
 575,52; 5891,840;  346,806;26860,156;20,91412
 576,10; 5987,312;  413,036;27417,888;20,64176
 576,68; 6062,616;  386,035;27838,508;20,67785
 577,26; 6163,552;  402,730;28451,892;20,53830
 577,84; 6266,689;  410,419;28849,178;20,59257
 578,42; 6335,410;  451,959;29123,331;20,52030
 579,00; 6275,277;  392,880;29239,641;20,39188
 579,58; 6301,857;  446,574;29495,877;20,15636
 580,16; 6219,820;  392,036;29479,720;20,03523
 580,74; 6231,807;  408,036;29640,665;19,92216
 581,32; 6188,979;  401,805;29698,681;19,75356
 581,90; 6216,456;  426,651;29655,366;19,80862
 582,48; 6178,385;  403,959;29723,376;19,69489
 583,06; 6169,427;  406,266;29708,388;19,66807
 583,64; 6161,671;  398,420;29953,750;19,49987
 584,22; 6121,847;  411,883;29761,404;19,45505
 584,80; 6056,954;  410,343;29581,110;19,35709
 585,38; 5945,553;  424,264;29217,752;19,17548
 585,96; 5897,917;  384,265;29257,799;19,09587
 586,54; 5921,458;  410,883;29261,199;19,10057
 587,12; 5876,578;  377,882;29227,365;19,05994
 587,70; 5881,520;  402,727;29386,514;18,90296
 588,28; 5848,241;  377,421;29414,667;18,84070
 588,86; 5854,454;  376,267;29621,533;18,73188
 589,44; 5812,014;  372,500;29491,641;18,68020
 590,02; 5853,866;  364,884;29774,833;18,66369
 590,59; 5796,018;  359,114;29856,230;18,43199
 591,17; 5880,190;  374,271;30016,442;18,57461
 591,75; 5829,415;  340,808;30141,180;18,41792
 592,33; 5868,776;  375,731;30299,519;18,35679
 592,91; 5874,479;  318,424;30557,867;18,37354
 593,49; 5872,640;  331,809;30759,318;18,20994
 594,07; 5922,661;  349,886;30897,733;18,24277
 594,65; 5904,372;  367,883;30916,803;18,12335
 595,23; 5956,296;  358,576;31270,014;18,10889
 595,81; 5895,133;  348,192;31456,625;17,83099
 596,39; 5936,683;  333,961;31574,721;17,93401
 596,97; 5981,734;  338,270;31688,633;18,00127
 597,55; 5916,902;  347,037;31643,184;17,79728
 598,12; 5934,554;  312,502;31593,083;17,97298
 598,70; 5953,587;  319,194;31682,881;17,96470
 599,28; 5982,513;  344,886;31766,617;17,94181
 599,86; 5934,167;  338,117;31879,173;17,74212
 600,44; 5931,650;  298,809;32064,868;17,73226
 601,02; 5953,675;  356,273;31862,411;17,76607
 601,60; 5904,702;  331,654;31898,842;17,65456
 602,18; 5926,851;  301,348;31935,910;17,78277
 602,75; 5874,992;  307,038;32026,526;17,55373
 603,33; 5872,951;  322,270;32067,697;17,48498
 603,91; 5876,497;  306,118;32077,050;17,53294
 604,49; 5901,574;  339,194;32054,057;17,53872
 605,07; 5853,694;  333,577;32084,405;17,38574
 605,65; 5873,900;  334,656;32282,093;17,33862
 606,23; 5921,587;  374,267;32301,118;17,37509
 606,80; 5915,170;  406,038;32418,215;17,20949
 607,38; 5874,418;  401,503;32387,350;17,11043
 607,96; 5905,345;  435,730;32420,938;17,10045
 608,54; 6001,385;  501,579;32552,321;17,15969
 609,12; 5974,480;  483,653;32521,412;17,13861
 609,70; 5963,263;  509,424;32563,006;17,01475
 610,27; 6017,097;  500,422;32599,140;17,18659
 610,85; 6002,997;  526,424;32780,221;16,97962
 611,43; 5997,945;  513,886;32697,303;17,04002
 612,01; 5909,470;  473,885;32517,527;16,96307
 612,59; 5925,467;  485,655;32498,351;16,99267
 613,16; 5847,362;  460,883;32517,100;16,80323
 613,74; 5843,261;  448,347;32391,971;16,88886
 614,32; 5859,829;  424,809;32345,103;17,02685
 614,90; 5825,570;  409,808;32269,342;16,99887
 615,48; 5750,390;  369,422;31909,532;17,06071
 616,05; 5712,854;  348,652;32071,834;16,90941
 616,63; 5690,011;  367,883;31798,136;16,93314
 617,21; 5696,147;  370,807;31668,177;17,01530
 617,79; 5663,481;  352,269;31662,112;16,96340
 618,36; 5649,794;  360,577;31594,402;16,93426
 618,94; 5569,841;  296,807;31281,521;17,01818
 619,52; 5530,338;  335,267;31074,515;16,90045
 620,10; 5529,921;  298,269;31007,382;17,03615
 620,67; 5528,475;  313,190;30922,641;17,03815
 621,25; 5563,599;  339,116;30758,264;17,17498
 621,83; 5490,637;  312,499;30793,253;16,98822
 622,41; 5508,910;  368,345;30774,314;16,90643
 622,98; 5475,801;  329,344;30612,936;16,99421
 623,56; 5468,575;  344,036;30538,014;16,97206
 624,14; 5462,954;  322,347;30516,383;17,02524
 624,72; 5401,300;  319,037;30430,170;16,87835
 625,29; 5421,808;  298,190;30358,673;17,04436
 625,87; 5466,842;  348,884;30286,731;17,09528
 626,45; 5407,239;  293,728;30263,274;17,06236
 627,02; 5383,803;  315,346;30217,482;16,95015
 627,60; 5396,517;  285,271;30101,283;17,14262
 628,18; 5403,326;  268,807;30174,259;17,16917
 628,76; 5397,635;  273,267;30200,189;17,12294
 629,33; 5441,595;  309,652;30212,528;17,16204
 629,91; 5447,921;  290,346;30134,305;17,28181
 630,49; 5467,029;  323,345;30316,788;17,14936
 631,06; 5477,187;  309,960;30425,636;17,15793
 631,64; 5504,381;  303,267;30379,143;17,29331
 632,22; 5511,160;  263,958;30248,952;17,49943
 632,79; 5526,701;  307,112;30573,918;17,24526
 633,37; 5571,629;  277,346;30480,613;17,52884
 633,95; 5589,053;  296,190;30626,610;17,45068
 634,52; 5582,398;  282,730;30722,277;17,41047
 635,10; 5644,058;  295,346;30768,738;17,55207
 635,68; 5649,725;  285,343;30838,069;17,55778
 636,25; 5648,113;  266,496;30866,091;17,58722
 636,83; 5689,789;  263,421;31030,881;17,63671
 637,41; 5738,005;  275,574;31103,482;17,71911
 637,98; 5767,840;  311,420;31250,771;17,63586
 638,56; 5804,156;  280,265;31268,726;17,82564
 639,13; 5791,716;  261,959;31465,652;17,72148
 639,71; 5911,012;  333,498;31595,528;17,84118
 640,29; 5790,723;  235,037;31331,864;17,86577
 640,86; 5874,801;  264,191;31518,712;17,95136
 641,44; 5920,109;  262,114;31538,791;18,09014
 642,02; 5931,956;  294,729;31498,101;18,06608
 642,59; 5969,495;  259,422;31549,257;18,24897
 643,17; 5950,342;  262,268;31572,106;18,16705
 643,74; 6003,728;  262,652;31620,031;18,30853
 644,32; 6022,344;  296,037;31624,495;18,27829
 644,89; 6013,344;  278,499;31553,651;18,33675
 645,47; 6063,268;  294,883;31644,192;18,40036
 646,05; 6039,808;  288,422;31611,656;18,36140
 646,62; 6089,577;  273,499;31508,350;18,62048
 647,20; 6150,271;  281,037;31677,814;18,69374
 647,77; 6072,348;  243,422;31590,509;18,59479
 648,35; 6111,503;  244,268;31437,665;18,80922
 648,92; 6117,811;  264,884;31536,128;18,71664
 649,50; 6133,120;  231,961;31455,208;18,89989
 650,08; 6194,890;  236,422;31330,902;19,16246
 650,65; 6214,275;  242,807;31524,443;19,08937
 651,23; 6317,891;  215,499;32113,907;19,13071
 651,80; 6544,199;  233,192;32978,986;19,27273
 652,38; 6641,123;  235,345;33420,680;19,30304
 652,95; 6715,509;  229,884;33682,452;19,38752
 653,53; 6775,125;  247,499;33932,916;19,37819
 654,10; 6939,510;  290,961;34001,610;19,72240
 654,68; 6868,742;  234,346;33939,074;19,68387
 655,25; 6865,281;  227,269;34010,076;19,64908
 655,83; 6878,359;  239,423;34132,925;19,58764
 656,40; 6985,282;  277,038;34117,773;19,82299
 656,98; 6957,437;  247,269;34001,314;19,87960
 657,55; 6990,822;  232,269;33852,008;20,10293
 658,13; 6900,900;  237,192;33606,088;19,96982
 658,70; 6911,285;  251,192;33373,475;20,10759
 659,28; 6755,440;  243,961;32672,938;20,07920
 659,85; 6684,518;  274,038;31938,864;20,24480
 660,43; 6680,211;  273,500;31835,866;20,29858
 661,00; 6719,904;  231,731;31997,637;20,42496
 661,58; 6770,904;  246,192;32299,486;20,35582
 662,15; 6840,597;  237,654;32432,103;20,50957
 662,73; 7037,829;  310,962;32681,337;20,78094
 663,30; 7039,983;  255,654;32765,108;20,86879
 663,88; 7094,138;  253,577;32979,264;20,90273
 664,45; 7142,831;  237,270;33182,420;20,96078
 665,03; 7289,447;  243,193;33517,730;21,17612
 665,60; 7475,909;  346,116;33881,502;21,26051
 666,17; 7455,679;  226,654;33876,965;21,48279
 666,75; 7560,065;  232,577;34247,122;21,54222
 667,32; 7639,989;  262,347;34514,739;21,53906
 667,90; 7763,374;  254,116;34759,049;21,76285
 668,47; 7872,990;  246,962;34978,205;21,95726
 669,05; 7921,299;  234,578;35190,131;21,98999
 669,62; 7982,607;  205,270;35287,671;22,16877
 670,19; 8055,838;  221,809;35354,058;22,29869
 670,77; 8140,378;  238,193;35586,753;22,35504
 671,34; 8134,763;  228,270;35506,986;22,41151
 671,92; 8270,148;  217,424;35773,065;22,64823
 672,49; 8307,764;  244,886;35796,221;22,67954
 673,06; 8325,381;  200,963;35855,762;22,78632
 673,64; 8382,458;  218,424;35888,764;22,88746
 674,21; 8394,382;  216,809;35786,612;22,99021
 674,79; 8566,383;  248,347;36006,307;23,26205
 675,36; 8632,537;  258,194;36144,309;23,33589
 675,93; 8612,307;  225,963;35922,619;23,49336
 676,51; 8687,693;  240,578;36172,545;23,50863
 677,08; 8730,386;  241,886;36211,316;23,59921
 677,65; 8836,540;  228,809;36233,703;23,90711
 678,23; 8878,080;  235,809;36526,321;23,81413
 678,80; 8948,234;  231,732;36591,015;23,97325
 679,38; 9061,850;  228,809;36700,710;24,21876
 679,95; 9191,159;  240,886;36994,635;24,35200
 680,52; 9247,236;  240,271;37206,330;24,36550
 681,10; 9395,545;  257,040;37515,716;24,52719
 681,67; 9496,546;  240,733;37679,796;24,72234
 682,24; 9530,315;  205,040;37796,490;24,80690
 682,82; 9693,624;  233,040;38262,723;24,87684
 683,39; 9858,779;  283,964;38554,802;25,01857
 683,96; 9960,318;  232,271;38842,343;25,19562
 684,54;10033,395;  213,810;38945,192;25,35305
 685,11;10162,473;  284,425;39362,809;25,27752
 685,68;10392,474;  224,887;39788,965;25,69904
 686,25;10408,782;  212,425;39773,044;25,77401
 686,83;10541,706;  213,964;39990,124;25,96465
 687,40;10652,553;  206,964;40179,126;26,13216
 687,97;10861,477;  270,426;40649,744;26,22890
 688,55;10842,708;  201,041;40597,515;26,34306
 689,12;10938,401;  201,964;40850,287;26,41299
 689,69;11060,633;  200,503;40927,596;26,66562
 690,26;11132,557;  215,041;41028,983;26,74948
 690,84;11203,327;  217,887;41170,370;26,82484
 691,41;11301,404;  233,272;41281,603;26,96366
 691,98;11482,559;  234,657;41426,221;27,30632
 692,56;11502,636;  224,811;41576,069;27,27323
 693,13;11585,637;  264,272;41618,072;27,37684
 693,70;11713,715;  241,195;41739,535;27,64573
 694,27;11726,485;  214,041;41837,615;27,65847
 694,84;11817,870;  204,349;41999,463;27,78679
 695,42;12096,102;  347,734;42157,927;28,09929
 695,99;12081,795;  231,426;42268,467;28,19030
 696,56;12157,565;  221,272;42062,777;28,52740
 697,13;12272,565;  249,734;42465,010;28,47981
 697,71;12338,951;  236,042;42405,243;28,70083
 698,28;12474,028;  218,503;42685,938;28,85864
 698,85;12522,952;  184,965;42749,248;28,98671
 699,42;12639,568;  187,119;42917,404;29,14198
 699,99;12760,569;  237,350;43094,637;29,22075
 700,57;12821,493;  226,504;42982,024;29,45816
 701,14;12880,263;  218,504;43243,565;29,42880
 701,71;13024,494;  244,273;43393,259;29,61882
 702,28;13174,880;  206,734;43389,108;30,03111
 702,85;13170,342;  213,119;43459,879;29,96114
 703,43;13356,958;  234,581;43677,805;30,20581
 704,00;13495,113;  266,042;43936,884;30,29268
 704,57;13561,575;  223,965;43860,809;30,56502
 705,14;13673,037;  243,735;44073,811;30,63947
 705,71;13686,115;  245,350;44170,967;30,59892
 706,28;13734,270;  219,350;43985,585;30,87979
 706,86;13920,501;  249,427;44296,664;31,03730
 707,43;14019,502;  274,120;44263,667;31,24693
 708,00;14027,964;  247,812;44272,592;31,30090
 708,57;14080,119;  222,504;44162,671;31,53746
 709,14;14214,042;  235,581;44266,596;31,74685
 709,71;14341,274;  220,351;44289,522;32,04263
 710,28;14469,044;  232,197;44550,985;32,12373
 710,86;14502,352;  231,120;44591,911;32,17083
 711,43;14657,199;  269,274;44707,836;32,37712
 712,00;14636,662;  239,735;44776,146;32,32619
 712,57;14831,047;  249,505;44921,841;32,64110
 713,14;14962,125;  226,351;45019,997;32,89702
 713,71;15005,510;  236,351;44877,768;33,08398
 714,28;15053,818;  228,812;45031,232;33,08974
 714,85;15102,050;  221,659;44795,157;33,38394
 715,42;15212,127;  227,428;44930,006;33,52088
 716,00;15385,128;  319,120;44958,316;33,75063
 716,57;15428,283;  226,428;45137,164;33,84904
 717,14;15531,130;  214,890;45000,705;34,19886
 717,71;15602,900;  213,351;45114,015;34,27466
 718,28;15768,131;  266,274;45249,863;34,46114
 718,85;15793,363;  214,351;45256,481;34,58764
 719,42;15970,133;  230,044;45374,483;34,86606
 719,99;15948,672;  221,275;45290,408;34,89616
 720,56;16098,826;  253,736;45504,180;35,01643
 721,13;16157,981;  220,505;45534,798;35,17097
 721,70;16220,443;  205,198;45353,800;35,47230
 722,27;16293,367;  243,044;45439,571;35,51229
 722,84;16498,368;  307,890;45645,189;35,71117
 723,41;16482,369;  201,736;45564,268;35,89004
 723,98;16640,600;  224,044;45692,578;36,10531
 724,55;16783,062;  257,121;45880,273;36,22271
 725,12;16777,217;  179,660;45785,275;36,39367
 725,69;16938,987;  210,660;45912,508;36,60317
 726,27;17025,065;  219,429;46100,972;36,62831
 726,84;17238,373;  234,121;46272,051;36,93531
 727,41;17397,066;  246,891;46219,284;37,30538
 727,98;17545,913;  238,198;46454,286;37,44954
 728,55;17677,221;  265,891;46409,981;37,73253
 729,12;17705,684;  224,968;46419,598;37,84145
 729,69;17904,146;  246,122;46690,216;38,01996
 730,26;18041,224;  245,199;46748,988;38,26790
 730,82;18143,917;  226,814;46789,759;38,47932
 731,39;18325,379;  237,352;46789,223;38,85564
 731,96;18512,841;  222,122;47146,764;38,97892
 732,53;18624,457;  227,968;47229,997;39,13978
 733,10;18798,304;  248,506;47406,614;39,33533
 733,67;18886,382;  241,430;47580,232;39,38619
 734,24;18865,536;  225,814;47363,542;39,54311
 734,81;18957,845;  260,737;47405,467;39,65896
 735,38;18924,307;  241,891;47182,854;39,79981
 735,95;19037,846;  236,122;47039,626;40,17162
 736,52;19111,309;  249,814;47306,243;40,08271
 737,09;19053,386;  245,276;46945,322;40,27429
 737,66;19306,772;  303,045;47125,478;40,58680
 738,23;19407,849;  239,430;47270,019;40,75734
 738,80;19575,158;  333,430;47433,021;40,85328
 739,37;19649,389;  265,430;47544,562;40,99897
 739,94;19737,236;  242,276;47537,872;41,21940
 740,51;19941,237;  386,199;47725,567;41,30819
 741,07;19879,238;  242,123;47657,031;41,41549
 741,64;20065,008;  277,661;47821,033;41,61957
 742,21;20118,931;  250,584;47846,881;41,74347
 742,78;20173,778;  210,584;47695,114;42,04147
 743,35;20272,933;  243,738;47841,578;42,08005
 743,92;20492,395;  303,431;48011,734;42,31751
 744,49;20574,934;  291,892;47954,736;42,55525
 745,06;20638,781;  245,969;47984,508;42,71771
 745,63;20664,090;  232,738;47951,741;42,81596
 746,19;20764,244;  235,046;48003,282;42,97667
 746,76;20820,091;  251,892;47986,976;43,08822
 747,33;20897,169;  246,585;47932,363;43,30554
 747,90;21054,016;  260,969;48207,904;43,36679
 748,47;21139,170;  251,585;48079,752;43,67214
 749,04;21255,863;  258,662;48062,831;43,92337
 749,61;21277,633;  296,508;48079,987;43,90874
 750,17;21474,711;  272,200;48101,759;44,32930
 750,74;21451,404;  260,431;48091,607;44,30368
 751,31;21492,328;  233,277;47929,917;44,57138
 751,88;21542,867;  226,893;47761,381;44,84318
 752,45;21726,714;  235,816;48047,614;44,94894
 753,02;21703,253;  271,124;47837,155;45,05764
 753,58;21820,408;  243,201;47801,157;45,37034
 754,15;21926,639;  236,970;47897,006;45,50913
 754,72;21897,640;  233,047;47735,854;45,60697
 755,29;21924,487;  234,662;47625,779;45,76770
 755,86;21979,872;  255,662;47612,166;45,87376
 756,42;22054,642;  270,893;47549,784;46,07500
 756,99;22111,874;  221,355;47528,325;46,27335
 757,56;22160,259;  237,970;47488,788;46,39557
 758,13;22280,414;  183,970;47382,252;46,81620
 758,70;22431,260;  234,740;47498,870;46,96272
 759,26;22540,492;  216,124;47622,718;47,09127
 759,83;22706,877;  218,509;47698,797;47,36359
 760,40;22670,032;  210,432;47539,646;47,45399
 760,97;22815,494;  194,971;47545,879;47,77210
 761,53;22724,341;  200,432;47250,573;47,87214
 762,10;22854,034;  196,971;47242,729;48,15963
 762,67;22938,881;  231,125;47363,039;48,17915
 763,24;22783,036;  183,971;46810,965;48,46777
 763,80;22973,113;  222,817;47057,890;48,57534
 764,37;23046,729;  218,586;46949,508;48,85019
 764,94;22952,807;  205,740;46512,741;49,12231
 765,50;23126,269;  197,740;46622,820;49,38824
 766,07;23256,578;  240,663;46601,591;49,64507
 766,64;23155,117;  216,740;46386,824;49,68234
 767,21;23219,425;  221,663;46244,057;49,97081
 767,77;23271,118;  236,279;46237,752;50,07413
 768,34;23244,273;  238,587;46083,754;50,18127
 768,91;23297,889;  257,125;46028,295;50,33903
 769,47;23428,274;  253,971;45959,297;50,70373
 770,04;23425,737;  236,202;45886,838;50,79783
 770,61;23358,353;  224,664;45673,071;50,90099
 771,18;23386,277;  223,741;45574,766;51,07390
 771,74;23567,739;  233,279;45760,999;51,25330
 772,31;23608,586;  251,510;45522,309;51,59413
 772,88;23574,125;  208,972;45194,157;51,93966
 773,44;23561,280;  212,279;45197,544;51,90366
 774,01;23658,511;  242,126;45247,161;52,03059
 774,58;23570,896;  226,279;44967,779;52,17665
 775,14;23748,589;  216,972;45002,089;52,54339
 775,71;23646,359;  229,126;45007,245;52,29615
 776,27;23703,514;  284,972;45031,324;52,33620
 776,84;23885,361;  344,433;45082,865;52,61903
 777,41;23788,054;  246,895;44851,790;52,77707
 777,97;23630,516;  222,511;44521,023;52,84152
 778,54;23768,286;  246,126;44589,641;53,04532
 779,11;23766,748;  275,511;44533,566;53,07788
 779,67;23864,980;  224,126;44509,723;53,38272
 780,24;23863,442;  246,895;44317,648;53,58780
 780,80;23912,212;  264,818;44183,727;53,84331
 781,37;23984,290;  267,511;44244,345;53,93017
 781,94;23999,444;  254,049;44098,193;54,15865
 782,50;24099,291;  243,203;44058,118;54,44741
 783,07;24212,908;  280,973;44164,813;54,53473
 783,63;24173,370;  243,973;43904,354;54,80804
 784,20;24177,986;  275,434;43756,664;54,97212
 784,77;24117,140;  246,588;43611,204;55,04615
 785,33;24146,449;  216,973;43542,053;55,23239
 785,90;24295,680;  226,127;43474,670;55,65402
 786,46;24339,297;  257,127;43350,596;55,88357
 787,03;24309,682;  242,127;43279,290;55,92273
 787,59;24302,221;  251,050;43225,370;55,96638
 788,16;24305,837;  261,819;43184,372;56,01721
 788,73;24303,223;  252,896;43086,374;56,14843
 789,29;24276,146;  237,512;42647,992;56,68088
 789,86;24331,993;  272,435;42764,302;56,62156
 790,42;24235,763;  240,819;42514,458;56,76101
 790,99;24137,995;  258,666;42188,537;56,95064
 791,55;24186,072;  234,050;42205,155;57,06789
 792,12;24219,227;  277,973;42234,311;57,06231
 792,68;24088,228;  255,743;42022,621;57,06073
 793,25;24051,152;  266,589;41749,315;57,33606
 793,81;24014,075;  356,973;41461,548;57,55345
 794,38;23857,999;  228,435;41261,089;57,58722
 794,94;23802,461;  236,589;41053,014;57,73625
 795,51;23788,924;  264,281;40950,247;57,82004
 796,07;23695,617;  255,358;40739,096;57,90043
 796,64;23844,233;  258,589;40835,713;58,12547
 797,20;23635,157;  275,051;40351,177;58,28933
 797,77;23575,234;  218,282;40175,026;58,45560
 798,33;23556,466;  261,512;40026,182;58,58204
 798,90;23600,467;  263,051;39942,107;58,81545
 799,46;23423,237;  250,436;39510,802;59,02340
 800,03;23411,622;  249,436;39487,727;59,02955
 800,59;23446,392;  271,051;39295,960;59,38602
 801,15;23406,623;  278,205;39119,347;59,54619
 801,72;23370,701;  261,436;38846,041;59,89245
 802,28;23261,394;  288,974;38628,351;59,91860
 802,85;23227,779;  266,282;38441,969;60,14691
 803,41;23253,242;  260,436;38174,817;60,64402
 803,98;23110,396;  245,821;37995,973;60,56817
 804,54;23077,474;  245,205;37805,360;60,78854
 805,11;23087,936;  267,744;37534,440;61,23482
 805,67;23045,860;  285,975;37478,903;61,19412
 806,23;22889,168;  259,359;36999,906;61,59356
 806,80;22906,708;  277,052;36971,216;61,67100
 807,36;23018,247;  274,821;36936,064;62,03670
 807,93;22972,094;  296,898;36716,989;62,26013
 808,49;22753,018;  252,975;36466,376;62,13181
 809,05;22725,480;  237,744;36270,225;62,40962
 809,62;22760,096;  273,590;36224,842;62,54721
 810,18;22681,789;  261,129;36103,768;62,55304
 810,74;22562,405;  231,129;35830,539;62,72934
 811,31;22567,329;  232,821;35807,080;62,78278
 811,87;22462,791;  268,206;35550,159;62,90634
 812,44;22507,946;  278,744;35585,238;62,96066
 813,00;22347,331;  202,206;35325,010;63,05056
 813,56;22534,486;  258,591;35426,243;63,34200
 814,13;22489,410;  259,745;35306,245;63,42906
 814,69;22507,026;  254,437;35126,709;63,81170
 815,25;22213,950;  222,129;34763,634;63,66781
 815,82;22394,104;  267,668;34740,790;64,18460
 816,38;22359,028;  304,745;34607,408;64,29321
 816,94;22232,183;  239,745;34295,564;64,57762
 817,51;22126,568;  224,591;34186,182;64,49043
 818,07;22083,030;  234,053;33943,107;64,81635
 818,63;22050,185;  247,283;33742,648;65,09230
 819,20;22098,185;  245,053;33680,034;65,36009
 819,76;21916,109;  230,130;33318,191;65,54019
 820,32;21994,495;  277,899;33216,654;65,93023
 820,89;21911,265;  256,591;33095,272;65,94258
 821,45;21876,035;  235,284;32781,428;66,49252
 822,01;21833,574;  259,207;32576,738;66,75747
 822,57;21834,651;  263,438;32504,356;66,90633
 823,14;21771,575;  224,361;32337,050;67,09875
 823,70;21752,653;  243,899;32111,668;67,49375
 824,26;21643,500;  233,284;31924,516;67,55880
 824,82;21746,501;  281,669;31755,826;68,19827
 825,39;21590,809;  253,284;31557,905;68,16094
 825,95;21740,964;  259,976;31663,677;68,40273
 826,51;21549,657;  260,900;31224,987;68,75306
 827,08;21742,503;  294,284;31294,066;69,18829
 827,64;21695,504;  261,592;31137,838;69,41878
 828,20;21535,197;  233,669;30844,148;69,58901
 828,76;21669,583;  277,900;30913,304;69,82667
 829,32;21671,660;  283,669;30782,921;70,12628
 829,89;21590,507;  220,515;30631,693;70,27019
 830,45;21674,816;  248,746;30549,772;70,71071
 831,01;21675,739;  256,669;30435,236;70,97445
 831,57;21585,817;  253,131;30356,700;70,86431
 832,14;21617,587;  245,823;30360,163;70,96873
 832,70;21575,895;  231,439;30087,473;71,49127
 833,26;21521,435;  217,592;30007,552;71,51350
 833,82;21618,128;  252,592;29996,401;71,83187
 834,38;21659,436;  234,900;29933,019;72,14106
 834,95;21622,206;  227,054;29881,482;72,14825
 835,51;21599,899;  194,823;29619,485;72,74536
 836,07;21727,438;  245,823;29849,179;72,56480
 836,63;21818,285;  264,208;29809,104;72,95364
 837,19;21717,594;  266,131;29616,722;73,08699
 837,75;21576,210;  217,747;29437,186;73,09676
 838,32;21676,441;  263,824;29434,496;73,40461
 838,88;21763,057;  270,978;29527,190;73,46159
 839,44;21709,904;  267,362;29466,116;73,43650
 840,00;21683,059;  260,747;29344,195;73,65809
 840,56;21601,752;  239,747;29087,582;74,05064
 841,12;21596,983;  251,362;29022,969;74,18988
 841,68;21479,600;  219,362;28915,509;74,08743
 842,25;21575,831;  230,901;28897,435;74,45940
 842,81;21462,832;  225,516;28658,899;74,69149
 843,37;21436,140;  216,747;28716,824;74,45381
 843,93;21465,679;  239,593;28621,134;74,78835
 844,49;21490,372;  269,132;28662,136;74,74109
 845,05;21422,681;  208,055;28451,138;75,11441
 845,61;21531,374;  266,209;28538,602;75,21530
 846,17;21455,221;  227,594;28423,297;75,28675
 846,73;21508,683;  244,901;28418,684;75,47365
 847,29;21458,684;  234,901;28240,686;75,78357
 847,86;21429,685;  231,209;28164,688;75,88913
 848,42;21312,531;  237,594;28038,306;75,80719
 848,98;21390,455;  250,132;27979,846;76,23708
 849,54;21428,533;  231,055;28005,079;76,32123
 850,10;21471,457;  265,363;27859,466;76,85009
 850,66;21449,611;  229,979;27766,469;77,06005
 851,22;21373,227;  221,209;27664,702;77,07480
 851,78;21500,844;  271,825;27777,089;77,18166
 852,34;21425,614;  258,210;27524,091;77,63330
 852,90;21420,307;  236,671;27507,016;77,68012
 853,46;21398,538;  228,979;27169,557;78,57871
 854,02;21446,308;  257,902;27278,559;78,41558
 854,58;21317,386;  245,210;27066,561;78,56493
 855,14;21361,925;  233,133;27005,487;78,92019
 855,70;21301,387;  198,979;26777,412;79,39674
 856,26;21336,388;  248,595;26742,030;79,59630
 856,82;21268,850;  241,210;26686,570;79,51353
 857,38;21263,851;  284,287;26626,034;79,64378
 857,94;21238,698;  240,979;26536,806;79,85191
 858,50;21225,545;  263,133;26454,885;80,03440
 859,06;21161,315;  239,056;26178,733;80,65736
 859,62;21103,239;  267,364;26182,582;80,40015
 860,18;21068,393;  244,287;26027,815;80,76515
 860,74;20960,394;  211,518;25935,202;80,66059
 861,30;20971,087;  214,057;25775,742;81,20368
 861,86;21058,934;  302,210;25813,206;81,36383
 862,42;20938,550;  236,441;25544,824;81,79941
 862,98;21080,781;  274,518;25605,441;82,13780
 863,54;20830,474;  239,595;25394,982;81,85475
 864,10;21118,244;  241,595;25447,215;82,82537
 864,66;20920,399;  218,134;25251,910;82,69733
 865,22;20929,169;  247,211;25159,604;83,01875
 865,78;20845,016;  238,595;25047,222;83,06151
 866,34;20870,632;  230,826;25047,916;83,16771
 866,90;20868,402;  247,519;24849,534;83,81786
 867,45;20831,941;  242,365;24756,613;83,99024
 868,01;20771,634;  252,057;24654,539;84,08808
 868,57;20635,404;  236,826;24441,695;84,27469
 869,13;20707,636;  217,673;24362,312;84,86340
 869,69;20644,867;  232,596;24253,315;84,97777
 870,25;20643,945;  214,750;24182,471;85,23629
 870,81;20608,484;  228,596;24100,396;85,37223
 871,37;20557,869;  255,288;24070,091;85,25194
 871,93;20562,024;  252,750;23878,478;85,96253
 872,49;20493,563;  295,058;23714,172;86,24795
 873,04;20402,256;  223,904;23557,636;86,47718
 873,60;20318,872;  232,442;23462,254;86,46833
 874,16;20309,104;  256,750;23347,333;86,84213
 874,72;20277,950;  241,442;23380,025;86,59350
 875,28;20301,950;  240,365;23348,102;86,81761
 875,84;20219,335;  248,519;23300,025;86,63562
 876,40;20260,412;  232,135;23155,102;87,37210
 876,95;20248,181;  244,750;23142,256;87,36074
 877,51;20334,335;  274,750;23168,410;87,62070
 878,07;20381,488;  286,135;23186,410;87,75158
 878,63;20371,258;  240,904;23134,256;87,93100
 879,19;20370,104;  262,981;23189,102;87,70399
 879,75;20463,950;  232,288;23175,948;88,17975
 880,30;20502,027;  237,288;23103,794;88,62193
 880,86;20724,950;  288,596;23294,717;88,83007
 881,42;20723,488;  226,596;23303,487;88,81999
 881,98;20767,950;  246,442;23390,410;88,66893
 882,54;20896,796;  235,212;23375,487;89,28841
 883,09;21033,565;  259,288;23574,948;89,10010
 883,65;21132,335;  233,519;23483,948;89,88572
 884,21;21327,104;  271,750;23818,871;89,41795
 884,77;21437,950;  231,135;23800,794;89,97506
 885,32;21671,258;  239,442;23943,640;90,41359
 885,88;21792,181;  281,288;24105,717;90,28923
 886,44;21871,027;  244,673;24123,871;90,56566
 887,00;21877,181;  269,750;24141,794;90,51353
 887,56;22106,565;  241,365;24294,102;90,90525
 888,11;22161,258;  253,981;24308,102;91,07494
 888,67;22295,027;  271,827;24400,333;91,27461
 889,23;22280,027;  244,750;24482,179;90,91425
 889,79;22258,950;  231,058;24303,487;91,50673
 890,34;22347,950;  253,596;24299,333;91,88470
 890,90;22527,796;  316,827;24418,794;92,15418
 891,46;22487,104;  237,058;24348,410;92,28038
 892,01;22524,719;  245,904;24326,179;92,51894
 892,57;22597,950;  278,750;24254,487;93,09078
 893,13;22456,181;  256,596;24073,487;93,20942
 893,69;22498,565;  230,365;24010,179;93,64329
 894,24;22451,258;  241,365;23982,333;93,55092
 894,80;22447,335;  238,519;23844,640;94,08075
 895,36;22416,950;  249,981;23747,948;94,33569
 895,91;22230,950;  243,904;23516,640;94,47555
 896,47;22266,565;  259,212;23529,102;94,57438
 897,03;22097,104;  238,673;23267,563;94,91743
 897,58;22097,642;  258,596;23177,410;95,28873
 898,14;22081,027;  258,212;23120,563;95,45306
 898,70;21894,565;  215,750;22922,333;95,47370
 899,25;21918,642;  240,365;22978,948;95,33698
 899,81;21860,796;  256,135;22819,025;95,75308
 900,37;21759,258;  209,058;22637,487;96,08431
 900,92;21779,796;  237,981;22644,717;96,13991
 901,48;21646,796;  236,365;22451,794;96,37640
 902,03;21584,412;  234,519;22301,563;96,75012
 902,59;21581,950;  239,673;22331,640;96,60650
 903,15;21454,796;  256,596;22087,256;97,10288
 903,70;21257,488;  240,212;21979,563;96,67849
 904,26;21187,488;  242,058;21877,487;96,81080
 904,82;21268,565;  236,750;21862,640;97,25295
 905,37;21143,181;  251,596;21730,333;97,26636
 905,93;21136,258;  237,750;21658,179;97,56344
 906,48;21082,181;  252,365;21601,102;97,56931
 907,04;21081,104;  255,519;21476,102;98,13861
 907,60;20887,104;  247,212;21357,179;97,77321
 908,15;20854,873;  229,827;21213,410;98,29135
 908,71;20893,488;  253,673;21286,025;98,13365
 909,26;20721,796;  251,673;21088,256;98,24127
 909,82;20816,796;  249,827;20958,640;99,31505
 910,37;20743,796;  284,442;20923,948;99,12715
 910,93;20599,412;  228,365;20717,717;99,42260
 911,48;20535,258;  231,365;20649,102;99,44242
 912,04;20417,565;  226,288;20462,948;99,77574
 912,60;20544,796;  251,212;20524,871;100,09828
 913,15;20369,258;  237,827;20291,640;100,38705
 913,71;20273,027;  231,519;20166,025;100,53677
 914,26;20232,488;  220,135;20162,256;100,35218
 914,82;20220,873;  259,596;20106,948;100,57401
 915,37;20144,719;  232,750;20033,333;100,56254
 915,93;20100,412;  307,904;19933,563;100,85015
 916,48;20055,488;  229,827;19801,256;101,29900
 917,04;20015,104;  254,365;19686,640;101,69030
 917,59;19966,258;  268,673;19677,256;101,48904
 918,15;19825,796;  213,135;19513,640;101,61735
 918,70;19815,412;  240,596;19423,563;102,04269
 919,26;19730,642;  246,442;19416,717;101,63756
 919,81;19625,565;  209,827;19181,948;102,33826
 920,37;19575,719;  238,904;19112,640;102,45356
 920,92;19519,719;  253,135;19137,640;102,02324
 921,48;19351,873;  223,135;18901,410;102,41170
 922,03;19381,258;  222,212;18846,333;102,87222
 922,59;19259,796;  228,212;18791,794;102,52108
 923,14;19111,104;  248,135;18596,871;102,80255
 923,69;19067,642;  253,596;18562,179;102,76080
 924,25;19096,950;  268,827;18562,563;102,92114
 924,80;18866,412;  234,750;18369,025;102,74280
 925,36;18846,565;  223,596;18322,102;102,89783
 925,91;18740,642;  224,981;18221,717;102,88344
 926,47;18661,027;  217,288;18161,871;102,78165
 927,02;18714,796;  314,288;18083,333;103,55373
 927,57;18525,181;  212,519;17960,256;103,18308
 928,13;18414,027;  223,212;17831,179;103,31014
 928,68;18431,027;  229,673;17891,563;103,05439
 929,24;18230,027;  203,212;17668,102;103,21746
 929,79;18221,335;  217,750;17577,563;103,70840
 930,34;18159,335;  225,673;17422,256;104,28619
 930,90;18133,335;  218,288;17422,179;104,13369
 931,45;18139,565;  234,442;17462,256;103,93149
 932,01;18100,488;  235,673;17360,487;104,32123
 932,56;17954,565;  255,596;17165,563;104,66590
 933,11;17995,335;  263,981;17126,794;105,15063
 933,67;17881,950;  221,981;17004,563;105,22796
 934,22;17883,488;  238,288;16960,025;105,52253
 934,77;17791,412;  256,827;16781,410;106,11212
 935,33;17723,642;  237,212;16716,871;106,10917
 935,88;17683,873;  242,981;16752,025;105,64447
 936,43;17624,950;  235,135;16605,102;106,22999
 936,99;17539,104;  234,058;16544,640;106,09704
 937,54;17418,258;  204,058;16446,871;105,98041
 938,09;17430,258;  240,827;16372,717;106,55559
 938,65;17383,181;  232,135;16261,640;106,99672
 939,20;17311,258;  204,750;16177,563;107,09765
 939,75;17279,258;  220,365;16124,563;107,26031
 940,31;17227,104;  217,519;15971,333;107,97122
 940,86;17273,412;  236,365;15983,179;108,19361
 941,41;17249,258;  334,750;15937,871;108,40464
 941,96;17162,950;  214,288;15792,563;108,79678
 942,52;17038,412;  224,519;15760,256;108,22720
 943,07;16887,104;  206,673;15593,640;108,40623
 943,62;16869,719;  228,596;15560,102;108,54200
 944,18;16839,258;  206,058;15509,487;108,68937
 944,73;16789,335;  238,288;15427,102;108,96866
 945,28;16672,488;  203,904;15267,794;109,32491
 945,83;16683,565;  225,135;15246,871;109,56410
 946,39;16623,181;  222,288;15224,179;109,32550
 946,94;16598,642;  245,827;15147,563;109,73765
 947,49;16486,873;  222,673;15083,256;109,44524
 948,04;16502,181;  274,442;15046,333;109,85553
 948,59;16437,642;  251,442;14994,487;109,78872
 949,15;16384,642;  221,827;14878,102;110,27915
 949,70;16353,873;  224,827;14792,102;110,72109
 950,25;16279,104;  233,596;14693,487;110,96562
 950,80;16212,796;  199,212;14674,102;110,63009
 951,36;16103,873;  199,212;14514,563;111,10213
 951,91;16178,488;  246,365;14557,102;111,32986
 952,46;15999,565;  219,596;14430,333;111,04259
 953,01;16060,565;  232,442;14444,256;111,37300
 953,56;15893,181;  212,442;14223,487;111,91699
 954,11;15933,335;  238,827;14239,102;112,10142
 954,67;15830,488;  222,673;14136,179;112,17745
 955,22;15688,565;  202,288;14011,794;112,14215
 955,77;15700,104;  245,288;14036,179;112,06539
 956,32;15673,258;  278,058;13908,179;112,94984
 956,87;15551,565;  213,212;13860,563;112,39070
 957,42;15507,642;  219,673;13823,410;112,38066
 957,98;15404,565;  214,212;13717,102;112,49705
 958,53;15403,027;  258,519;13722,179;112,48433
 959,08;15296,565;  216,288;13561,487;113,00152
 959,63;15235,258;  227,135;13540,563;112,72921
 960,18;15194,796;  244,058;13492,025;112,85307
 960,73;15172,642;  228,750;13412,794;113,34832
 961,28;15069,873;  201,673;13368,256;112,92376
 961,83;15108,104;  248,904;13331,487;113,58002
 962,39;14976,950;  211,596;13205,179;113,63574
 962,94;14873,027;  239,596;13198,640;112,92060
 963,49;14761,796;  237,365;13043,256;113,41992
 964,04;14814,719;  244,827;13004,717;114,18509
 964,59;14642,104;  207,673;12920,256;113,54444
 965,14;14651,412;  251,596;12819,102;114,57974
 965,69;14522,181;  238,596;12784,256;113,85280
 966,24;14488,796;  219,596;12659,563;114,70448
 966,79;14397,565;  237,981;12654,871;114,03487
 967,34;14334,412;  209,135;12482,640;115,08755
 967,89;14292,719;  225,288;12511,256;114,49999
 968,44;14275,027;  221,288;12428,333;115,12810
 968,99;14194,488;  235,596;12349,563;115,22973
 969,55;14124,104;  227,981;12292,179;115,18481
 970,10;14033,412;  240,058;12193,256;115,39467
 970,65;13875,565;  254,904;12086,871;115,11747
 971,20;13877,181;  220,212;12017,179;115,76678
 971,75;13745,258;  203,288;11844,102;116,33181
 972,30;13747,104;  240,981;11904,948;115,79356
 972,85;13683,719;  216,365;11747,794;116,78825
 973,40;13566,412;  208,288;11706,948;116,17113
 973,95;13560,488;  240,288;11657,794;116,66471
 974,50;13527,796;  259,519;11607,640;116,92047
 975,05;13428,950;  231,058;11516,410;116,94710
 975,60;13378,104;  239,904;11411,640;117,60213
 976,15;13322,950;  222,058;11380,794;117,40480
 976,70;13311,950;  229,058;11312,563;118,03930
 977,25;13169,873;  248,135;11288,025;117,04589
 977,80;13052,796;  223,519;11137,871;117,54502
 978,35;12912,796;  243,519;11028,563;117,47079
 978,89;12863,027;  212,750;10951,025;117,80548
 979,44;12908,950;  233,827;10961,333;118,15536
 979,99;12732,950;  215,904;10728,948;119,06205
 980,54;12655,258;  249,981;10703,640;118,66923
 981,09;12596,027;  250,827;10667,256;118,51663
 981,64;12470,873;  247,212;10536,025;118,80536
 982,19;12401,412;  276,365;10493,410;118,67470
 982,74;12328,565;  247,058;10385,948;119,16006
 983,29;12127,181;  220,596;10241,179;118,82128
 983,84;12160,104;  242,519;10224,563;119,39022
 984,39;12192,719;  348,596;10177,333;120,50504
 984,94;12005,719;  211,442;10055,871;119,80661
 985,49;11906,027;  253,519; 9997,948;119,58123
 986,03;11887,950;  262,750; 9924,563;120,32110
 986,58;11777,873;  287,827; 9831,563;120,39358
 987,13;11627,104;  243,596; 9711,179;120,23669
 987,68;11588,488;  248,288; 9625,410;120,93477
 988,23;11527,412;  244,288; 9541,333;121,36248
 988,78;11376,950;  227,135; 9450,179;120,89084
 989,33;11338,027;  242,288; 9348,410;121,84923
 989,88;11355,488;  291,212; 9341,563;122,25245
 990,42;11167,565;  244,365; 9220,640;121,68968
 990,97;11035,104;  230,365; 9067,794;122,26111
 991,52;11007,950;  257,288; 9052,871;122,22796
 992,07;10940,258;  290,288; 8989,487;122,42472
 992,62;10808,181;  245,750; 8861,410;122,59573
 993,17;10682,565;  259,212; 8761,025;122,60154
 993,71;10584,335;  253,827; 8735,256;121,80150
 994,26;10468,873;  228,442; 8609,025;122,19235
 994,81;10400,027;  264,904; 8560,717;122,17154
 995,36;10267,027;  234,673; 8417,794;122,59813
 995,91;10210,796;  234,981; 8371,640;122,60333
 996,45;10123,642;  242,365; 8249,563;123,40493
 997,00;10034,027;  232,596; 8114,871;124,34774
 997,55; 9953,412;  244,596; 8144,640;122,89571
 998,10; 9841,796;  262,981; 8010,179;123,64232
 998,65; 9743,950;  238,288; 7979,256;122,79682
 999,19; 9671,796;  267,519; 7907,871;123,08696
 999,74; 9540,642;  278,827; 7788,256;123,33582
1000,29; 9484,104;  255,904; 7731,179;123,44964
1000,84; 9317,181;  250,673; 7572,256;123,83262
1001,38; 9234,873;  244,365; 7539,640;123,23741
1001,93; 9172,796;  250,058; 7480,871;123,39882
1002,48; 8980,565;  230,519; 7299,256;123,78515
1003,03; 8993,488;  257,058; 7323,102;123,63963
1003,57; 8852,565;  255,673; 7216,102;123,51096
1004,12; 8817,565;  292,288; 7162,717;124,08653
1004,67; 8688,412;  238,519; 7084,256;123,43292
1005,22; 8475,488;  242,135; 6931,563;123,08007
1005,76; 8384,796;  232,981; 6815,025;123,84930
1006,31; 8378,796;  269,981; 6788,563;124,39537
1006,86; 8168,181;  229,750; 6727,256;122,17659
1007,40; 8101,719;  230,135; 6614,410;123,29645
1007,95; 8013,565;  245,673; 6506,025;124,08076
1008,50; 7930,335;  259,212; 6437,794;124,15668
1009,04; 7839,412;  238,904; 6353,102;124,30915
1009,59; 7683,181;  255,673; 6198,410;124,98464
1010,14; 7596,719;  235,904; 6121,717;125,06029
1010,68; 7464,027;  240,212; 6066,102;123,99504
1011,23; 7343,565;  239,596; 5991,563;123,50503
1011,78; 7291,873;  255,750; 5919,948;124,22099
1012,32; 7204,565;  283,519; 5834,256;124,68699
1012,87; 7148,258;  276,904; 5799,794;124,41590
1013,42; 6975,412;  231,135; 5676,640;123,85033
1013,96; 6995,258;  276,673; 5702,948;123,81578
1014,51; 6900,412;  206,981; 5638,717;123,22819
1015,06; 6876,104;  206,135; 5622,871;123,13631
1015,60; 6940,488;  288,596; 5678,948;123,40367
1016,15; 6885,412;  232,442; 5631,025;123,23548
1016,69; 6954,258;  246,904; 5662,717;123,84758
1017,24; 6917,488;  224,981; 5628,410;123,85668
1017,79; 7014,873;  285,827; 5696,948;124,35586
1018,33; 6993,719;  236,904; 5689,410;123,92129
1018,88; 7041,412;  264,288; 5746,333;123,62401
1019,42; 7021,488;  225,519; 5714,640;123,80797
1019,97; 7058,412;  228,827; 5688,102;125,10058
1020,51; 7112,104;  268,288; 5828,410;123,08752
1021,06; 7073,488;  218,827; 5724,717;124,49688
1021,61; 7016,950;  207,288; 5715,640;123,62430
1022,15; 7037,258;  196,442; 5684,256;124,65466
1022,70; 7011,642;  249,519; 5684,717;124,41355
1023,24; 6991,873;  214,750; 5655,179;124,56965
1023,79; 6967,565;  233,596; 5595,487;125,58946
1024,33; 6833,719;  231,827; 5567,102;123,74043
1024,88; 6823,719;  254,750; 5434,410;126,82241
1025,42; 6688,258;  250,058; 5380,256;125,49613
1025,97; 6641,412;  227,365; 5349,487;125,22246
1026,51; 6479,335;  207,519; 5236,640;124,70997
1027,06; 6429,719;  227,827; 5202,410;124,67161
1027,60; 6331,335;  259,981; 5131,717;124,62402
1028,15; 6308,335;  253,827; 5051,871;126,18699
1028,69; 6094,873;  197,750; 4920,794;124,85852
1029,24; 6050,950;  227,519; 4923,025;124,02137
1029,78; 5988,181;  213,135; 4815,640;125,47613
1030,33; 5852,488;  207,904; 4682,102;126,15858
1030,87; 5784,335;  223,058; 4647,487;125,69480
1031,42; 5675,950;  213,288; 4556,487;125,77510
1031,96; 5657,258;  244,750; 4548,102;125,77423
1032,51; 5542,950;  222,673; 4440,717;126,13137
1033,05; 5458,258;  233,365; 4427,487;124,57657
1033,60; 5330,642;  200,058; 4295,871;125,26412
1034,14; 5270,488;  212,058; 4250,487;125,25739
1034,69; 5237,642;  231,365; 4207,410;125,91100
1035,23; 5139,796;  221,673; 4128,179;125,89571
1035,77; 5091,642;  223,365; 4076,333;126,35137
1036,32; 4963,104;  203,442; 3986,717;125,80797
1036,86; 4932,258;  242,981; 3999,102;124,84360
1037,41; 4846,796;  235,904; 3900,025;125,83897
1037,95; 4780,873;  198,058; 3846,102;125,62390
1038,50; 4755,565;  218,212; 3803,487;126,55525
1039,04; 4701,873;  244,442; 3772,948;126,32630
1039,58; 4589,104;  201,442; 3700,256;125,40427
1040,13; 4530,642;  216,058; 3657,871;125,35789
1040,67; 4528,642;  253,981; 3627,640;126,70696
1041,21; 4427,258;  254,365; 3596,717;124,84898
1041,76; 4317,642;  210,135; 3487,179;125,34184
1042,30; 4288,027;  231,596; 3481,948;124,79974
1042,85; 4223,488;  222,673; 3406,487;125,66111
1043,39; 4183,873;  220,365; 3354,563;126,46003
1043,93; 4136,565;  246,596; 3342,794;125,63696
1044,48; 4082,258;  242,288; 3280,640;126,38329
1045,02; 4024,258;  225,827; 3214,563;127,09152
1045,56; 3995,181;  255,058; 3238,410;125,36647
1046,11; 3911,642;  235,135; 3181,794;124,76866
1046,65; 3850,565;  234,673; 3089,025;126,67998
1047,19; 3785,719;  223,058; 3051,563;125,95560
1047,74; 3729,565;  211,365; 2994,487;126,41203
1048,28; 3691,258;  232,442; 3001,333;124,91702
1048,82; 3658,412;  275,365; 2956,025;126,20200
1049,37; 3572,335;  245,058; 2932,487;123,80893
1049,91; 3548,335;  243,904; 2855,256;126,54100
1050,45; 3480,335;  249,904; 2829,794;125,21581
1050,99; 3476,565;  247,058; 2806,487;126,18080
1051,54; 3369,873;  226,058; 2730,794;125,51481
1052,08; 3372,412;  258,673; 2717,333;126,64374
1052,62; 3304,565;  254,212; 2689,333;125,26497
1053,16; 3249,950;  222,827; 2629,871;125,76101
1053,71; 3216,950;  248,750; 2601,333;126,16772
1054,25; 3166,258;  246,442; 2566,948;125,82668
1054,79; 3100,181;  251,904; 2547,179;124,09306
1055,33; 3025,873;  207,058; 2450,640;125,63902
1055,88; 3033,412;  243,212; 2484,256;124,50446
1056,42; 2996,258;  253,827; 2468,640;123,82220
1056,96; 2945,258;  248,442; 2394,948;125,63746
1057,50; 2928,104;  249,904; 2408,871;124,05005
1058,05; 2861,488;  234,135; 2317,948;126,08393
1058,59; 2833,796;  271,058; 2302,794;126,13537
1059,13; 2738,642;  216,519; 2243,179;124,44730
1059,67; 2743,258;  244,442; 2229,640;125,87235
1060,21; 2714,796;  240,750; 2211,256;125,55387
1060,76; 2662,027;  250,827; 2190,179;124,33019
1061,30; 2624,412;  267,442; 2150,179;125,18848
1061,84; 2607,488;  256,135; 2104,410;127,21883
1062,38; 2542,950;  224,596; 2055,025;126,65632
1062,92; 2566,950;  280,981; 2092,333;126,20238
1063,46; 2499,181;  260,212; 2023,256;126,99450
1064,01; 2427,719;  240,058; 1992,794;124,81405
1064,55; 2422,565;  257,673; 1976,563;125,94708
1065,09; 2360,181;  214,827; 1910,025;126,55476
1065,63; 2374,950;  273,981; 1932,640;126,66669
1066,17; 2362,719;  280,135; 1910,563;127,73232
1066,71; 2296,181;  271,288; 1891,487;124,97807
1067,25; 2235,335;  243,750; 1824,102;126,02159
1067,80; 2254,027;  252,981; 1830,717;126,83018
1068,34; 2215,412;  269,827; 1846,410;123,40517
1068,88; 2157,181;  242,827; 1753,102;126,75532
1069,42; 2165,873;  263,981; 1791,717;124,49086
1069,96; 2107,488;  238,058; 1733,640;124,99682
1070,50; 2120,027;  281,442; 1754,948;124,77621
1071,04; 2034,181;  227,442; 1685,717;123,89559
1071,58; 2016,642;  233,442; 1667,871;124,31429
1072,12; 1992,181;  247,750; 1649,717;124,42735
1072,66; 1991,796;  238,058; 1640,871;125,01580
1073,21; 1977,565;  263,212; 1643,333;124,21763
1073,75; 1932,796;  255,750; 1602,256;124,54801
1074,29; 1898,873;  249,365; 1575,025;124,42920
1074,83; 1877,873;  263,135; 1580,025;122,61753
1075,37; 1869,488;  269,673; 1574,102;122,64489
1075,91; 1855,027;  253,981; 1527,179;125,74997
1076,45; 1815,873;  262,442; 1527,948;122,75177
1076,99; 1783,412;  260,519; 1491,410;123,72282
1077,53; 1757,335;  245,519; 1465,871;123,88356
1078,07; 1727,796;  262,058; 1478,333;120,51045
1078,61; 1724,412;  246,365; 1439,025;123,92858
1079,15; 1684,488;  250,135; 1419,333;122,67843
1079,69; 1680,642;  241,519; 1411,410;123,01350
1080,23; 1666,258;  277,058; 1414,333;122,15163
1080,77; 1697,488;  317,596; 1445,640;122,32608
1081,31; 1625,642;  240,750; 1355,948;124,18353
1081,85; 1605,412;  268,596; 1380,794;120,19580
1082,39; 1572,642;  254,212; 1324,794;123,15076
1082,93; 1575,027;  271,058; 1341,563;121,80871
1083,47; 1540,335;  233,442; 1288,102;123,91603
1084,01; 1526,412;  257,750; 1299,410;121,79233
1084,55; 1489,412;  254,827; 1275,025;121,01421
1085,09; 1505,642;  263,827; 1277,025;122,56393
1085,63; 1473,488;  260,981; 1253,333;122,18525
1086,17; 1450,719;  245,058; 1243,102;120,80242
1086,71; 1406,873;  230,442; 1222,717;118,55894
1087,24; 1429,565;  282,596; 1234,025;120,55229
1087,78; 1440,412;  273,442; 1210,333;124,55771
1088,32; 1360,104;  234,904; 1147,640;123,27763
1088,86; 1392,488;  273,673; 1194,102;121,55371
1089,40; 1362,412;  254,058; 1152,871;123,31300
1089,94; 1310,027;  231,365; 1128,717;120,20496
1090,48; 1314,642;  253,135; 1130,256;121,02179
1091,02; 1302,488;  280,058; 1135,333;119,54410
1091,56; 1279,873;  253,212; 1090,487;122,61939
1092,10; 1239,950;  230,442; 1072,256;119,92059
1092,63; 1286,642;  270,135; 1099,256;122,60062
1093,17; 1260,796;  257,750; 1091,179;120,35174
1093,71; 1208,181;  244,673; 1046,948;120,09694
1094,25; 1234,950;  278,212; 1067,640;121,19375
1094,79; 1213,335;  247,135; 1043,025;121,39863
1095,33; 1185,335;  255,058; 1041,025;118,36077
1095,87; 1178,642;  256,519; 1015,563;121,48476
1096,40; 1136,642;  229,673;  985,640;119,97466
1096,94; 1153,104;  259,519;  997,563;121,07467
1097,48; 1153,181;  263,288;  998,871;120,97787
1098,02; 1103,565;  236,288;  964,256;119,13680
1098,56; 1094,258;  223,442;  929,871;123,27008
1099,10; 1073,719;  226,596;  923,487;121,55758
1099,63; 1048,104;  226,596;  921,871;118,15579
1100,17; 1062,719;  261,442;  929,102;120,01279
1100,71; 1092,873;  283,442;  954,410;120,63639

