
Integration time [ms]: 150,000
Averaging Nr. [scans]: 13
Smoothing Nr. [pixels]: 0
Data measured with spectrometer [name]: 2009305U1
Wave   ;Sample   ;Dark     ;Reference;Reflectance
[nm]   ;[counts] ;[counts] ;[counts] ;[%]

 175,72;  231,168;  213,942;  232,391;93,36795
 176,32;  241,053;  248,562;  239,245; 0,00000
 176,92;  285,983;  283,713;  284,805;207,86237
 177,52;  284,323;  263,481;  288,463;83,42882
 178,12;  251,564;  258,638;  259,823;-596,97850
 178,72;  279,949;  287,793;  280,469; 0,00000
 179,32;  285,650;  285,408;  267,745; 0,00000
 179,92;  272,549;  275,791;  268,795; 0,00000
 180,52;  260,115;  256,325;  272,061;24,08329
 181,12;  273,919;  274,252;  289,721;-2,15162
 181,73;  298,689;  302,098;  302,762; 0,00000
 182,33;  411,166;  411,173;  406,971; 0,00000
 182,93;  293,634;  293,097;  294,847;30,66926
 183,53;  247,154;  259,948;  249,810; 0,00000
 184,13;  250,586;  259,332;  248,661; 0,00000
 184,73;  310,565;  314,025;  313,345; 0,00000
 185,33;  298,916;  254,895;  344,858;48,93262
 185,93;  293,799;  268,436;  359,913;27,72522
 186,53;  323,602;  274,666;  381,617;45,75591
 187,13;  316,862;  285,970;  414,333;24,06621
 187,73;  298,489;  262,974;  373,416;32,15658
 188,33;  300,073;  249,284;  379,789;38,91710
 188,93;  312,958;  282,673;  384,519;29,73607
 189,53;  308,453;  265,370;  380,835;37,31290
 190,13;  345,616;  301,453;  437,825;32,38415
 190,73;  287,753;  245,679;  384,820;30,23811
 191,34;  313,536;  279,444;  409,815;26,14996
 191,94;  293,721;  263,439;  370,276;28,34362
 192,54;  308,434;  255,737;  399,966;36,53704
 193,14;  318,012;  288,047;  387,600;30,09954
 193,74;  312,906;  296,202;  379,404;20,07717
 194,34;  311,937;  272,354;  392,221;33,02235
 194,94;  273,784;  250,278;  345,600;24,66000
 195,54;  247,640;  229,741;  336,398;16,78169
 196,14;  272,825;  246,661;  343,765;26,94409
 196,74;  265,715;  250,434;  354,623;14,66659
 197,34;  240,725;  216,429;  347,856;18,48652
 197,94;  285,896;  241,201;  367,795;35,30601
 198,54;  300,345;  253,200;  382,880;36,35492
 199,14;  261,497;  227,043;  362,749;25,38865
 199,74;  245,802;  217,966;  353,672;20,51164
 200,34;  239,089;  216,427;  355,290;16,31930
 200,94;  284,558;  255,891;  406,391;19,04782
 201,54;  258,274;  232,120;  402,629;15,33854
 202,14;  309,641;  282,811;  452,335;15,82696
 202,74;  261,906;  229,889;  425,863;16,33714
 203,34;  255,362;  212,733;  417,845;20,78319
 203,94;  238,704;  190,041;  432,337;20,08382
 204,54;  289,057;  250,816;  504,220;15,09088
 205,14;  256,478;  224,735;  505,171;11,31915
 205,74;  306,444;  266,041;  591,229;12,42476
 206,34;  269,011;  210,426;  593,142;15,30747
 206,94;  282,649;  235,042;  631,831;11,99811
 207,54;  249,961;  202,119;  644,718;10,80934
 208,14;  266,306;  222,503;  714,144; 8,90963
 208,74;  267,813;  218,889;  754,132; 9,14053
 209,34;  274,371;  212,581;  808,442;10,36984
 209,94;  295,051;  238,274;  890,249; 8,70848
 210,54;  293,148;  222,657;  966,494; 9,47669
 211,14;  306,903;  227,582; 1025,633; 9,93938
 211,73;  309,883;  228,121; 1111,974; 9,25063
 212,33;  323,253;  248,275; 1188,775; 7,97210
 212,93;  311,281;  234,120; 1272,131; 7,43350
 213,53;  284,657;  200,889; 1281,363; 7,75283
 214,13;  321,173;  218,193; 1379,045; 8,87108
 214,73;  307,488;  199,042; 1377,951; 9,19884
 215,33;  301,666;  194,966; 1390,403; 8,92562
 215,93;  330,798;  224,887; 1496,612; 8,32814
 216,53;  290,114;  186,428; 1531,015; 7,71138
 217,13;  366,434;  232,733; 1687,840; 9,18836
 217,73;  365,869;  210,579; 1839,536; 9,53309
 218,33;  337,116;  175,808; 1944,509; 9,12011
 218,93;  408,188;  212,421; 2182,917; 9,93492
 219,53;  422,267;  216,962; 2401,433; 9,39837
 220,13;  420,194;  168,115; 2581,899;10,44332
 220,73;  451,583;  202,504; 2851,019; 9,40448
 221,32;  496,890;  201,274; 3120,286;10,12727
 221,92;  530,723;  213,808; 3428,167; 9,85937
 222,52;  545,380;  194,733; 3717,576; 9,95353
 223,12;  586,141;  200,502; 4022,269;10,09059
 223,72;  623,830;  204,348; 4372,501;10,06398
 224,32;  670,320;  220,194; 4616,964;10,23765
 224,92;  688,129;  195,194; 4835,348;10,62324
 225,52;  730,493;  219,427; 5110,293;10,44939
 226,12;  759,880;  199,580; 5350,032;10,87866
 226,72;  742,833;  174,734; 5553,453;10,56198
 227,31;  766,412;  161,734; 5830,376;10,66707
 227,91;  870,181;  223,966; 6177,329;10,85463
 228,51;  868,158;  185,737; 6407,624;10,96808
 229,11;  928,630;  199,734; 6726,183;11,16834
 229,71;  946,939;  185,966; 6921,669;11,29760
 230,31;  975,826;  179,270; 7217,584;11,31742
 230,91; 1014,648;  179,353; 7438,424;11,50692
 231,51; 1048,986;  184,425; 7630,921;11,61030
 232,10; 1079,999;  185,808; 7920,663;11,56054
 232,70; 1133,629;  201,585; 8050,067;11,87547
 233,30; 1214,961;  215,349; 8212,688;12,49931
 233,90; 1186,231;  193,887; 8357,534;12,15565
 234,50; 1214,967;  191,348; 8338,267;12,56449
 235,10; 1219,590;  188,578; 8361,810;12,61449
 235,70; 1281,319;  215,581; 8439,675;12,95873
 236,29; 1265,262;  200,120; 8272,400;13,19506
 236,89; 1240,849;  174,968; 8134,388;13,39144
 237,49; 1308,784;  209,733; 8099,993;13,92921
 238,09; 1300,164;  191,119; 7834,758;14,50939
 238,69; 1321,130;  244,892; 7651,380;14,53101
 239,29; 1268,102;  194,888; 7392,371;14,91096
 239,89; 1242,040;  201,506; 7129,926;15,01834
 240,48; 1219,127;  185,042; 6781,450;15,67650
 241,08; 1192,689;  193,735; 6490,908;15,86354
 241,68; 1189,485;  218,657; 6241,874;16,11809
 242,28; 1131,449;  180,579; 5954,187;16,46925
 242,88; 1145,786;  238,732; 5729,199;16,52053
 243,48; 1165,095;  232,272; 5513,531;17,66289
 244,07; 1110,221;  213,889; 5315,560;17,56939
 244,67; 1112,993;  210,888; 5200,991;18,07789
 245,27; 1116,652;  218,351; 5068,512;18,52104
 245,87; 1110,724;  228,809; 5047,813;18,30077
 246,47; 1107,458;  209,044; 4990,205;18,79072
 247,06; 1113,545;  195,273; 4988,255;19,15868
 247,66; 1130,269;  199,734; 5045,375;19,20356
 248,26; 1162,271;  218,736; 5147,014;19,14533
 248,86; 1205,375;  217,351; 5321,282;19,35810
 249,46; 1197,989;  157,348; 5440,689;19,69663
 250,05; 1290,826;  214,503; 5738,680;19,48385
 250,65; 1336,820;  184,429; 5969,510;19,92006
 251,25; 1418,945;  197,889; 6357,869;19,82240
 251,85; 1479,523;  213,276; 6812,734;19,18714
 252,44; 1580,546;  184,659; 7249,516;19,75818
 253,04; 1701,122;  215,889; 7818,327;19,53627
 253,64; 1770,970;  169,044; 8404,469;19,45165
 254,24; 1957,213;  214,196; 9168,218;19,46631
 254,84; 2070,989;  185,887; 9921,228;19,36349
 255,43; 2223,866;  196,120;10750,633;19,21212
 256,03; 2394,731;  192,352;11606,163;19,29574
 256,63; 2550,350;  206,045;12400,234;19,22478
 257,23; 2711,517;  186,506;13216,811;19,37798
 257,82; 2844,800;  206,431;14106,224;18,98135
 258,42; 3017,395;  157,278;14919,565;19,37449
 259,02; 3199,876;  217,504;15677,903;19,29039
 259,62; 3263,225;  192,894;16358,485;18,99300
 260,21; 3411,487;  210,120;16988,555;19,08025
 260,81; 3488,117;  194,580;17427,877;19,11147
 261,41; 3548,313;  174,585;17907,684;19,02503
 262,01; 3666,697;  227,433;18314,057;19,01551
 262,60; 3675,517;  178,660;18710,427;18,86953
 263,20; 3790,790;  185,890;19121,858;19,03732
 263,80; 3862,605;  223,663;19337,865;19,03789
 264,40; 3844,452;  173,894;19593,059;18,90173
 264,99; 3914,613;  213,356;19766,863;18,92887
 265,59; 3905,215;  189,435;19883,310;18,86769
 266,19; 3928,986;  192,586;20100,326;18,76858
 266,78; 3996,331;  232,818;20275,972;18,77705
 267,38; 3981,770;  204,280;20331,852;18,76773
 267,98; 3962,402;  201,664;20347,819;18,66727
 268,58; 3974,502;  206,127;20373,698;18,68532
 269,17; 3974,446;  197,205;20470,340;18,63175
 269,77; 4001,029;  201,507;20310,845;18,89432
 270,37; 3906,906;  163,587;20130,593;18,74752
 270,96; 3964,012;  234,969;20224,724;18,65477
 271,56; 3865,852;  198,276;19928,464;18,58865
 272,16; 3836,802;  194,200;19783,490;18,59486
 272,75; 3777,122;  191,354;19749,068;18,33429
 273,35; 3785,252;  205,123;19603,610;18,45571
 273,95; 3758,581;  203,200;19589,915;18,33926
 274,54; 3754,887;  184,427;19713,410;18,28288
 275,14; 3846,305;  219,738;20045,880;18,29184
 275,74; 3811,703;  175,893;19968,529;18,36951
 276,33; 3885,051;  228,661;20344,883;18,17632
 276,93; 3933,519;  199,734;20646,721;18,26081
 277,53; 4009,952;  199,197;20999,862;18,32035
 278,12; 4095,831;  174,968;21460,082;18,42068
 278,72; 4278,173;  255,582;21988,591;18,50913
 279,32; 4301,317;  197,736;22420,475;18,46569
 279,91; 4423,147;  186,813;22956,548;18,60511
 280,51; 4513,466;  190,351;23409,978;18,61836
 281,11; 4680,187;  194,121;23992,394;18,85038
 281,70; 4751,968;  174,506;24405,547;18,89090
 282,30; 4918,313;  188,737;24945,233;19,10438
 282,90; 4972,104;  186,276;25231,041;19,10910
 283,49; 5168,942;  213,892;25761,610;19,39527
 284,09; 5332,475;  229,583;26079,930;19,74013
 284,69; 5421,110;  229,967;26439,436;19,80637
 285,28; 5598,555;  211,352;26775,853;20,27971
 285,88; 5773,669;  274,970;26939,836;20,62152
 286,47; 5859,338;  205,891;27004,886;21,09574
 287,07; 5988,781;  225,274;27049,551;21,48616
 287,67; 6168,787;  225,195;27202,685;22,03167
 288,26; 6262,978;  186,582;27102,628;22,57537
 288,86; 6458,377;  187,891;27191,277;23,22111
 289,46; 6710,602;  214,505;27293,857;23,98912
 290,05; 6904,332;  191,350;27370,022;24,69945
 290,65; 7173,811;  204,353;27556,115;25,48084
 291,24; 7419,886;  205,043;27630,937;26,30668
 291,84; 7673,504;  212,430;27732,464;27,11143
 292,44; 7950,622;  204,349;27752,918;28,11860
 293,03; 8325,868;  282,582;28043,745;28,97316
 293,63; 8490,298;  187,199;28143,117;29,70068
 294,22; 8797,128;  223,583;28296,048;30,54076
 294,82; 8931,427;  194,432;28317,253;31,06728
 295,41; 9103,429;  181,890;28083,700;31,97477
 296,01; 9254,835;  237,201;28096,142;32,36890
 296,61; 9311,563;  232,890;27923,821;32,78573
 297,20; 9334,460;  202,047;27461,720;33,50155
 297,80; 9463,868;  224,734;27448,525;33,93772
 298,39; 9345,292;  191,430;27120,118;33,99297
 298,99; 9441,895;  238,431;27050,417;34,32593
 299,58; 9481,688;  222,195;26883,144;34,73054
 300,18; 9478,191;  229,273;26738,677;34,88920
 300,78; 9381,211;  198,812;26411,633;35,03018
 301,37; 9479,649;  217,587;26374,822;35,40918
 301,97; 9451,565;  216,429;26462,857;35,18626
 302,56; 9423,750;  202,968;26361,078;35,25018
 303,16; 9463,869;  183,969;26230,113;35,62869
 303,75; 9442,368;  196,735;26281,135;35,44507
 304,35; 9550,510;  187,579;26493,154;35,59295
 304,94; 9587,233;  195,813;26507,819;35,69253
 305,54; 9559,121;  211,197;26480,593;35,58485
 306,13; 9504,753;  168,117;26435,270;35,54491
 306,73; 9454,874;  167,656;26274,725;35,57357
 307,33; 9454,987;  214,734;26205,376;35,55223
 307,92; 9443,982;  212,736;26265,361;35,43308
 308,52; 9535,702;  187,277;26595,919;35,39911
 309,11; 9690,038;  203,278;27114,294;35,25233
 309,71; 9771,562;  181,048;27312,404;35,34845
 310,30; 9863,585;  183,505;27535,013;35,39139
 310,90; 9972,123;  237,813;27768,090;35,35856
 311,49; 9934,304;  211,121;27941,666;35,06308
 312,09; 9945,074;  158,042;28080,139;35,05121
 312,68;10129,426;  272,659;28453,748;34,97653
 313,28;10019,213;  183,813;28570,668;34,64773
 313,87; 9992,821;  168,813;28691,474;34,44282
 314,47;10043,171;  197,508;28880,144;34,32621
 315,06;10044,997;  184,505;29022,169;34,19310
 315,66;10087,459;  184,273;29287,908;34,02732
 316,25; 9975,611;  161,738;29046,383;33,97609
 316,85; 9964,705;  157,042;29132,485;33,84819
 317,44;10001,607;  192,432;29362,911;33,62706
 318,04; 9860,372;  173,045;29264,041;33,30009
 318,63; 9855,739;  162,118;29361,379;33,19817
 319,22; 9857,488;  190,968;29467,076;33,01846
 319,82; 9789,521;  196,737;29597,083;32,62813
 320,41; 9709,962;  213,353;29530,808;32,39234
 321,01; 9715,104;  212,427;29689,791;32,23720
 321,60; 9638,266;  206,814;29706,584;31,97127
 322,20; 9516,727;  179,890;29680,092;31,65008
 322,79; 9522,170;  217,966;29699,284;31,55966
 323,39; 9455,675;  187,271;29847,921;31,24815
 323,98; 9378,121;  181,428;29806,670;31,04344
 324,58; 9313,644;  186,200;29699,958;30,92607
 325,17; 9249,605;  196,199;29622,153;30,76674
 325,76; 9176,864;  207,582;29630,781;30,48371
 326,36; 9018,203;  187,581;29222,829;30,41345
 326,95; 8896,586;  223,506;29064,392;30,07217
 327,55; 8727,179;  181,275;28815,775;29,84478
 328,14; 8581,647;  175,273;28463,180;29,71720
 328,74; 8469,522;  220,815;28041,923;29,64910
 329,33; 8357,553;  208,043;27790,675;29,54580
 329,92; 8129,321;  169,124;27269,257;29,37328
 330,52; 7946,448;  209,349;26750,874;29,15092
 331,11; 7775,669;  186,506;26357,545;28,99832
 331,71; 7577,300;  184,583;25920,241;28,72558
 332,30; 7442,387;  204,967;25450,434;28,66820
 332,89; 7353,580;  270,427;25062,635;28,57008
 333,49; 7121,143;  205,814;24569,585;28,38366
 334,08; 6982,468;  193,122;24255,736;28,21533
 334,68; 6842,908;  192,968;23878,852;28,07554
 335,27; 6718,969;  204,657;23597,646;27,84728
 335,86; 6679,515;  267,198;23330,776;27,80278
 336,46; 6521,098;  219,041;23089,223;27,55578
 337,05; 6471,478;  187,814;22964,391;27,58827
 337,65; 6403,773;  177,122;22873,967;27,43399
 338,24; 6401,912;  237,351;22794,093;27,32913
 338,83; 6345,946;  212,889;22743,478;27,22102
 339,43; 6292,355;  186,584;22695,499;27,12601
 340,02; 6233,521;  195,430;22572,882;26,98292
 340,61; 6278,594;  208,274;22608,053;27,09991
 341,21; 6232,060;  233,507;22675,846;26,72874
 341,80; 6229,816;  211,583;22645,813;26,82612
 342,40; 6196,251;  204,734;22704,721;26,62898
 342,99; 6250,734;  199,350;22802,481;26,77233
 343,58; 6286,169;  202,812;22941,367;26,75349
 344,18; 6358,486;  226,119;23014,638;26,90990
 344,77; 6397,850;  189,430;23305,459;26,85764
 345,36; 6426,970;  181,275;23620,623;26,64620
 345,96; 6554,052;  224,196;23867,521;26,77227
 346,55; 6589,266;  195,964;24027,576;26,82698
 347,14; 6641,768;  186,272;24316,452;26,75279
 347,74; 6750,421;  172,346;24672,474;26,84915
 348,33; 6910,648;  205,885;25204,741;26,82028
 348,92; 7089,350;  219,115;25709,443;26,95232
 349,52; 7204,650;  180,038;26172,362;27,02572
 350,11; 7307,687;  191,277;26345,265;27,20965
 350,70; 7307,385;  208,351;26517,553;26,98308
 351,29; 7316,294;  184,895;26275,357;27,33336
 351,89; 7367,558;  230,893;26317,871;27,35719
 352,48; 7368,406;  187,120;26263,976;27,53893
 353,07; 7416,310;  237,426;26233,108;27,61568
 353,67; 7397,686;  229,191;26088,368;27,72128
 354,26; 7344,479;  210,118;25981,875;27,68286
 354,85; 7346,837;  231,350;25943,832;27,67328
 355,45; 7319,692;  189,968;25704,619;27,94365
 356,04; 7369,782;  215,964;25688,609;28,08431
 356,63; 7423,023;  253,967;25533,278;28,35938
 357,22; 7379,696;  220,894;25399,401;28,43219
 357,82; 7373,009;  214,509;25097,329;28,76884
 358,41; 7445,408;  243,967;25158,396;28,90470
 359,00; 7387,451;  210,969;24921,461;29,04225
 359,60; 7466,432;  234,197;24962,439;29,24686
 360,19; 7489,788;  245,579;24788,803;29,51613
 360,78; 7480,659;  219,045;24602,428;29,78100
 361,37; 7453,271;  223,275;24406,737;29,89645
 361,97; 7520,033;  228,813;24367,164;30,20596
 362,56; 7477,440;  222,123;24060,995;30,43482
 363,15; 7587,877;  294,737;23957,851;30,82071
 363,74; 7501,802;  237,662;23645,721;31,03264
 364,34; 7500,435;  239,738;23324,576;31,45224
 364,93; 7428,778;  217,892;22939,109;31,73635
 365,52; 7335,284;  192,891;22602,468;31,87206
 366,11; 7376,700;  226,969;22335,961;32,33857
 366,71; 7336,488;  214,430;22013,384;32,67156
 367,30; 7264,780;  222,352;21647,546;32,86984
 367,89; 7336,976;  268,658;21460,408;33,35410
 368,48; 7263,488;  251,200;21201,799;33,47058
 369,07; 7206,231;  229,505;20829,245;33,86803
 369,67; 7216,590;  260,277;20648,878;34,11864
 370,26; 7149,841;  220,736;20376,785;34,37730
 370,85; 7145,266;  234,506;20121,968;34,74933
 371,44; 7156,845;  241,813;19945,086;35,09585
 372,03; 7172,377;  208,353;19773,307;35,59438
 372,63; 7091,601;  193,660;19517,739;35,69610
 373,22; 7093,720;  224,967;19254,975;36,09433
 373,81; 7089,709;  201,121;18988,468;36,66610
 374,40; 7062,281;  219,196;18787,296;36,85399
 374,99; 7057,400;  226,122;18529,273;37,32296
 375,59; 6999,502;  208,273;18256,718;37,62778
 376,18; 7060,105;  242,660;18162,390;38,04435
 376,77; 7037,221;  245,121;18035,472;38,17856
 377,36; 7104,056;  258,506;17921,314;38,75686
 377,95; 7055,559;  244,507;17660,616;39,10777
 378,55; 7070,335;  228,119;17528,406;39,54972
 379,14; 7159,345;  253,506;17506,891;40,02600
 379,73; 7162,553;  232,507;17369,001;40,44028
 380,32; 7299,974;  233,890;17444,048;41,05764
 380,91; 7267,922;  207,662;17259,454;41,40480
 381,50; 7288,591;  234,123;17212,303;41,55020
 382,10; 7292,667;  226,198;17167,125;41,71241
 382,69; 7368,828;  213,891;17171,775;42,19240
 383,28; 7419,847;  251,969;17107,921;42,52432
 383,87; 7398,349;  207,430;16945,459;42,96156
 384,46; 7463,944;  205,663;16872,676;43,54878
 385,05; 7561,034;  237,277;16895,573;43,96463
 385,64; 7615,008;  232,353;16911,884;44,26176
 386,24; 7642,181;  203,740;16868,829;44,63487
 386,83; 7767,676;  244,125;16846,250;45,31679
 387,42; 7859,310;  249,507;16948,577;45,57022
 388,01; 7985,490;  254,819;17102,084;45,88680
 388,60; 8133,834;  235,124;17268,178;46,37284
 389,19; 8281,159;  233,129;17501,568;46,60543
 389,78; 8450,902;  226,359;17678,726;47,12566
 390,37; 8787,477;  311,433;18122,707;47,58808
 390,96; 8839,974;  241,971;18184,944;47,91850
 391,56; 8940,062;  251,129;18253,601;48,26522
 392,15; 9114,958;  231,743;18501,421;48,62272
 392,74; 9210,479;  210,901;18682,579;48,72095
 393,33; 9400,673;  246,206;18928,329;49,00121
 393,92; 9713,651;  243,826;19316,299;49,65179
 394,51; 9816,005;  231,899;19480,521;49,79113
 395,10;10013,081;  280,138;19635,383;50,28582
 395,69;10116,855;  263,137;19766,542;50,52306
 396,28;10238,471;  269,678;19821,217;50,98725
 396,87;10364,843;  276,297;19937,458;51,31206
 397,46;10436,840;  278,069;20023,477;51,44878
 398,06;10593,217;  290,841;20210,492;51,71966
 398,65;10707,562;  282,310;20211,051;52,31265
 399,24;10835,192;  309,619;20402,464;52,38468
 399,83;10848,196;  277,169;20340,226;52,68901
 400,42;11014,135;  328,255;20560,997;52,81479
 401,01;11111,211;  292,190;20641,873;53,16555
 401,60;11208,651;  321,513;20678,949;53,47991
 402,19;11258,002;  344,602;20641,510;53,76878
 402,78;11295,297;  338,852;20613,213;54,04089
 403,37;11231,484;  315,485;20529,885;54,00111
 403,96;11226,753;  326,967;20384,918;54,34147
 404,55;11242,708;  344,144;20347,433;54,48386
 405,14;11253,354;  310,166;20218,735;54,96723
 405,73;11229,327;  333,421;20178,585;54,90459
 406,32;11314,569;  339,438;20154,650;55,38740
 406,91;11175,023;  324,611;19866,927;55,52265
 407,50;11116,925;  338,929;19721,621;55,60629
 408,09;11040,388;  311,397;19460,606;56,02837
 408,68;11057,763;  306,633;19344,030;56,47374
 409,27;11019,370;  306,165;19181,040;56,75908
 409,86;10999,911;  319,458;19099,654;56,87083
 410,45;11003,305;  366,060;19034,327;56,98036
 411,04;10961,030;  355,047;18942,772;57,05907
 411,63;10904,702;  330,800;18759,861;57,37624
 412,22;10838,130;  337,554;18649,055;57,34416
 412,81;10744,254;  360,625;18362,441;57,68101
 413,40;10606,622;  356,234;18048,340;57,93764
 413,99;10565,195;  416,236;17831,555;58,27605
 414,58;10267,873;  342,465;17567,988;57,62035
 415,17;10172,174;  335,548;17373,903;57,73225
 415,76;10132,852;  324,477;17144,896;58,31231
 416,35;10062,001;  321,628;16976,996;58,48188
 416,94;10120,206;  356,476;16937,137;58,88625
 417,53;10313,400;  329,855;17167,945;59,29143
 418,12;10339,693;  331,239;17215,533;59,27671
 418,71;10500,266;  361,772;17548,188;58,99132
 419,30;10562,183;  323,854;17690,037;58,95556
 419,89;10670,408;  319,775;17790,546;59,24543
 420,48;10907,589;  343,464;18010,919;59,79426
 421,07;10982,219;  342,386;18116,313;59,86203
 421,66;10923,532;  314,152;18093,606;59,67214
 422,25;11028,737;  335,838;18142,382;60,05039
 422,84;11065,402;  341,299;18160,700;60,18218
 423,43;10886,251;  329,609;17886,718;60,12745
 424,02;10840,189;  356,608;17737,342;60,31725
 424,60;10676,232;  320,601;17411,167;60,59267
 425,19;10493,524;  332,450;17129,792;60,49215
 425,78;10490,657;  342,989;17028,026;60,81898
 426,37;10428,732;  351,601;16867,315;61,01541
 426,96;10374,190;  333,755;16799,931;60,97612
 427,55;10269,053;  320,905;16661,577;60,87967
 428,14;10178,438;  316,057;16449,245;61,13101
 428,73;10158,329;  318,214;16369,411;61,30455
 429,32;10112,272;  338,217;16320,889;61,15407
 429,91;10117,280;  341,060;16369,798;60,99183
 430,50;10106,457;  347,981;16137,160;61,80484
 431,08;10028,675;  349,287;16017,676;61,77654
 431,67; 9992,495;  386,208;15979,767;61,60420
 432,26; 9976,226;  400,591;15853,204;61,96774
 432,85; 9754,987;  429,130;15592,354;61,50313
 433,44; 9665,668;  439,050;15364,413;61,81838
 434,03; 9476,105;  458,200;14998,865;62,01852
 434,62; 9257,561;  409,588;14610,684;62,30486
 435,21; 9155,124;  417,745;14402,049;62,47990
 435,79; 9070,025;  420,278;14308,624;62,28061
 436,38; 9018,871;  404,967;14228,421;62,31369
 436,97; 8951,401;  412,274;14135,694;62,22302
 437,56; 8848,304;  402,346;13922,198;62,47079
 438,15; 8810,186;  382,193;13861,187;62,52687
 438,74; 8799,003;  421,269;13872,037;62,28443
 439,33; 8784,946;  387,886;13874,993;62,25991
 439,91; 8801,374;  352,037;13906,896;62,33437
 440,50; 8824,553;  396,037;13936,821;62,24540
 441,09; 8882,428;  393,495;14099,999;61,93361
 441,68; 8860,931;  365,184;14044,600;62,10607
 442,27; 8851,368;  354,801;14012,552;62,21059
 442,86; 8844,967;  337,717;14054,835;62,01922
 443,44; 8893,425;  351,872;14048,363;62,36307
 444,03; 8982,305;  435,948;14172,528;62,21605
 444,62; 8859,749;  348,332;14033,720;62,19346
 445,21; 8771,100;  369,179;13903,483;62,07871
 445,80; 8721,420;  412,406;13780,397;62,15604
 446,39; 8661,397;  453,868;13664,584;62,12781
 446,97; 8470,749;  351,710;13414,540;62,15375
 447,56; 8346,659;  367,476;13310,333;61,64931
 448,15; 8251,811;  370,634;13068,578;62,06656
 448,74; 8140,193;  382,479;12892,158;62,01370
 449,33; 8063,651;  369,015;12755,406;62,12170
 449,91; 7972,590;  367,242;12602,550;62,15902
 450,50; 7841,283;  367,243;12393,082;62,14984
 451,09; 7809,644;  383,935;12337,547;62,12105
 451,68; 7736,353;  391,857;12262,290;61,87218
 452,26; 7651,670;  397,470;12157,571;61,68485
 452,85; 7622,203;  379,010;12043,294;62,09719
 453,44; 7603,674;  381,928;12083,332;61,71692
 454,03; 7599,768;  359,239;12007,425;62,16015
 454,61; 7568,521;  367,081;12032,681;61,73227
 455,20; 7662,568;  384,387;12156,194;61,82722
 455,79; 7670,878;  396,775;12106,479;62,12030
 456,38; 7703,215;  396,462;12250,868;61,63745
 456,97; 7768,124;  396,463;12316,516;61,84252
 457,55; 7766,224;  390,845;12304,032;61,90937
 458,14; 7780,408;  412,463;12335,087;61,79801
 458,73; 7632,533;  392,691;12223,457;61,19504
 459,31; 7707,143;  426,534;12280,096;61,42128
 459,90; 7798,192;  452,151;12332,852;61,83171
 460,49; 7850,722;  509,613;12401,730;61,73088
 461,08; 7838,122;  408,686;12437,299;61,76469
 461,66; 7858,266;  402,073;12567,249;61,29129
 462,25; 7911,916;  403,454;12588,117;61,62224
 462,84; 7961,892;  421,609;12620,187;61,81281
 463,43; 7873,952;  370,220;12623,412;61,23900
 464,01; 7941,953;  405,757;12604,885;61,77651
 464,60; 7934,743;  464,529;12571,250;61,70304
 465,19; 7757,734;  388,756;12424,545;61,22554
 465,77; 7779,513;  412,678;12357,058;61,67616
 466,36; 7776,509;  434,912;12289,374;61,93109
 466,95; 7571,027;  414,297;11978,223;61,88841
 467,53; 7420,801;  422,137;11800,226;61,51001
 468,12; 7284,796;  447,752;11551,114;61,57634
 468,71; 7165,618;  416,679;11336,125;61,80660
 469,29; 7021,889;  400,367;11156,963;61,55778
 469,88; 6826,280;  411,212;10905,358;61,12997
 470,47; 6884,114;  467,978;10985,802;61,00251
 471,06; 6865,626;  424,055;10981,688;61,01340
 471,64; 6897,937;  434,748;11044,220;60,91905
 472,23; 6907,277;  408,512;11059,378;61,01631
 472,81; 6933,917;  387,130;11144,820;60,85681
 473,40; 7018,579;  404,358;11217,533;61,16817
 473,99; 7186,309;  526,358;11501,918;60,67983
 474,57; 7163,453;  409,050;11461,339;61,11315
 475,16; 7214,232;  438,360;11615,363;60,62334
 475,75; 7336,553;  463,433;11776,086;60,75604
 476,33; 7368,128;  448,354;11858,873;60,64382
 476,92; 7397,937;  454,665;11859,229;60,88152
 477,51; 7444,566;  440,201;11910,096;61,06738
 478,09; 7424,716;  442,124;11997,173;60,42893
 478,68; 7428,036;  449,738;11893,834;60,97727
 479,27; 7429,661;  494,740;11953,318;60,52165
 479,85; 7387,774;  450,508;11934,602;60,40760
 480,44; 7423,601;  427,507;11975,918;60,58058
 481,02; 7959,615;  460,120;12981,625;59,89292
 481,61; 9044,641;  469,352;14708,811;60,22201
 482,20; 9694,707;  455,043;15763,510;60,35656
 482,78;10125,661;  489,969;16530,068;60,07252
 483,37;10359,416;  464,886;17014,725;59,78626
 483,95;10565,424;  508,963;17232,883;60,13220
 484,54;10645,486;  502,968;17411,462;59,98475
 485,13;10552,602;  467,037;17426,056;59,47022
 485,71;10487,360;  455,115;17141,241;60,12327
 486,30;10346,126;  486,269;16955,550;59,86817
 486,88;10229,534;  554,653;16693,670;59,94715
 487,47; 9864,250;  499,190;16195,867;59,66269
 488,05; 9413,249;  506,497;15427,606;59,69229
 488,64; 8747,092;  474,341;14376,701;59,50609
 489,23; 7948,275;  500,573;12963,572;59,75851
 489,81; 6790,720;  502,803;11066,539;59,52361
 490,40; 6367,580;  458,649;10354,466;59,71140
 490,98; 6220,951;  436,725;10124,396;59,70709
 491,57; 6173,375;  462,496;10027,959;59,70310
 492,15; 6110,469;  447,802; 9917,861;59,79548
 492,74; 6055,681;  448,881; 9902,800;59,30661
 493,32; 6024,077;  469,802; 9814,395;59,43838
 493,91; 5949,198;  449,570; 9728,293;59,27140
 494,50; 5929,488;  446,258; 9679,862;59,38343
 495,08; 5861,229;  428,643; 9633,014;59,02181
 495,67; 5847,813;  472,185; 9578,252;59,03348
 496,25; 5761,443;  398,491; 9489,384;58,99258
 496,84; 5702,111;  416,109; 9512,673;58,10987
 497,42; 5689,190;  399,952; 9464,352;58,35177
 498,01; 5673,795;  437,108; 9453,793;58,07775
 498,59; 5619,652;  386,490; 9371,547;58,24295
 499,18; 5560,608;  393,339; 9287,218;58,09917
 499,76; 5525,689;  424,568; 9245,423;57,83024
 500,35; 5427,761;  415,949; 9113,908;57,62056
 500,93; 5414,294;  393,029; 9072,928;57,84935
 501,52; 5354,098;  386,490; 8958,662;57,95040
 502,10; 5330,907;  404,794; 8950,689;57,64303
 502,69; 5259,680;  387,254; 8864,315;57,47777
 503,27; 5163,461;  368,489; 8650,440;57,89665
 503,86; 5089,115;  392,639; 8591,426;57,28257
 504,44; 5051,583;  358,484; 8498,052;57,65784
 505,03; 4917,371;  357,792; 8276,629;57,57890
 505,61; 4878,843;  375,715; 8182,201;57,68444
 506,19; 4814,512;  381,484; 8061,205;57,72382
 506,78; 4694,393;  365,789; 7854,997;57,79789
 507,36; 4632,382;  375,869; 7714,319;58,00289
 507,95; 4553,824;  371,018; 7640,545;57,53890
 508,53; 4491,821;  369,097; 7535,150;57,53131
 509,12; 4431,906;  366,249; 7394,503;57,84732
 509,70; 4343,215;  391,172; 7298,662;57,21388
 510,29; 4273,524;  393,478; 7191,135;57,07916
 510,87; 4166,399;  349,866; 7022,534;57,19651
 511,46; 4072,924;  339,788; 6880,962;57,07134
 512,04; 4001,515;  357,094; 6728,628;57,19849
 512,62; 3921,152;  375,481; 6677,963;56,25833
 513,21; 3825,958;  341,786; 6516,175;56,42943
 513,79; 3775,046;  355,704; 6406,863;56,50722
 514,38; 3677,590;  327,167; 6279,236;56,29005
 514,96; 3623,605;  379,629; 6209,849;55,64070
 515,54; 3544,533;  333,782; 6073,357;55,94058
 516,13; 3528,805;  344,012; 5991,474;56,39334
 516,71; 3431,532;  344,472; 5877,527;55,79305
 517,30; 3368,869;  326,778; 5807,386;55,50645
 517,88; 3338,010;  352,086; 5754,270;55,27254
 518,46; 3267,889;  322,162; 5637,507;55,41930
 519,05; 3224,628;  340,238; 5601,825;54,81977
 519,63; 3197,721;  335,546; 5536,935;55,02714
 520,22; 3199,267;  356,928; 5499,494;55,27082
 520,80; 3123,695;  339,543; 5416,535;54,83862
 521,38; 3141,114;  398,699; 5437,134;54,42991
 521,97; 3076,895;  341,311; 5372,006;54,37786
 522,55; 3059,301;  346,926; 5348,352;54,23203
 523,13; 3035,516;  335,771; 5293,668;54,45343
 523,72; 3048,492;  339,777; 5276,160;54,87246
 524,30; 3117,510;  356,001; 5388,254;54,87619
 524,89; 3063,400;  317,157; 5357,816;54,48184
 525,47; 3119,807;  350,846; 5516,835;53,59981
 526,05; 3116,251;  305,692; 5526,607;53,83268
 526,64; 3194,631;  351,230; 5612,998;54,03889
 527,22; 3213,868;  350,616; 5719,181;53,33366
 527,80; 3286,563;  389,845; 5811,920;53,42453
 528,39; 3278,046;  325,460; 5872,543;53,22772
 528,97; 3354,210;  325,153; 5978,577;53,57916
 529,55; 3421,630;  335,771; 6130,053;53,25697
 530,14; 3499,949;  367,767; 6293,126;52,86063
 530,72; 3540,054;  329,306; 6366,578;53,18209
 531,30; 3569,531;  312,459; 6511,320;52,54308
 531,89; 3644,571;  330,228; 6552,628;53,26471
 532,47; 3682,188;  364,843; 6681,402;52,51823
 533,05; 3634,797;  360,153; 6677,919;51,83230
 533,63; 3698,226;  348,535; 6755,674;52,28061
 534,22; 3655,281;  324,996; 6714,482;52,12133
 534,80; 3700,794;  354,071; 6853,036;51,49625
 535,38; 3850,476;  462,151; 6950,707;52,22003
 535,97; 3679,376;  321,073; 6847,326;51,45836
 536,55; 3752,625;  397,686; 6924,884;51,39938
 537,13; 3719,771;  368,767; 6919,242;51,15666
 537,71; 3749,958;  400,767; 6942,048;51,20084
 538,30; 3778,148;  402,765; 7012,295;51,06842
 538,88; 3832,048;  439,069; 7128,972;50,71790
 539,46; 3918,046;  495,610; 7286,458;50,39777
 540,05; 3937,160;  485,762; 7347,659;50,29801
 540,63; 4024,135;  508,762; 7543,852;49,96913
 541,21; 4131,572;  526,684; 7667,785;50,48085
 541,79; 4165,151;  549,299; 7780,092;50,00629
 542,38; 4203,655;  581,916; 7875,773;49,65464
 542,96; 4282,355;  584,144; 7980,066;50,00338
 543,54; 4345,393;  604,607; 8164,629;49,48115
 544,12; 4367,785;  565,453; 8291,941;49,21165
 544,70; 4397,807;  562,605; 8385,298;49,02662
 545,29; 4417,362;  566,147; 8512,273;48,46658
 545,87; 4427,689;  578,146; 8531,707;48,40025
 546,45; 4395,488;  536,609; 8530,426;48,27330
 547,03; 4424,992;  516,762; 8591,549;48,40042
 547,62; 4406,600;  498,376; 8632,401;48,04785
 548,20; 4488,791;  516,221; 8840,064;47,72519
 548,78; 4485,370;  477,294; 8880,825;47,69514
 549,36; 4533,775;  465,448; 9026,130;47,52340
 549,94; 4538,072;  428,145; 9142,098;47,16490
 550,53; 4621,752;  439,218; 9317,086;47,11192
 551,11; 4647,695;  414,601; 9443,100;46,88591
 551,69; 4755,550;  430,756; 9739,513;46,45941
 552,27; 4804,125;  374,681; 9858,810;46,70375
 552,85; 4924,159;  388,216;10164,715;46,39640
 553,44; 5011,535;  395,525;10360,705;46,32138
 554,02; 5103,866;  403,986;10624,518;45,98468
 554,60; 5216,489;  352,755;10879,871;46,20197
 555,18; 5324,277;  388,064;11148,668;45,87301
 555,76; 5428,115;  378,832;11421,403;45,72561
 556,34; 5569,315;  380,215;11755,460;45,61748
 556,93; 5653,154;  373,217;12065,669;45,15679
 557,51; 5747,810;  341,676;12319,922;45,13294
 558,09; 5884,021;  375,679;12629,092;44,95354
 558,67; 5993,053;  361,136;12942,700;44,76325
 559,25; 6073,938;  382,599;13158,233;44,54839
 559,83; 6110,520;  356,905;13401,977;44,10566
 560,41; 6226,726;  347,907;13674,225;44,11435
 561,00; 6324,167;  369,906;13965,624;43,79512
 561,58; 6343,002;  352,985;14149,608;43,41655
 562,16; 6451,597;  341,216;14381,370;43,52075
 562,74; 6545,383;  325,448;14690,480;43,29914
 563,32; 6679,062;  324,674;15052,900;43,14429
 563,90; 6764,149;  347,444;15327,277;42,83562
 564,48; 6891,367;  363,677;15664,760;42,66162
 565,06; 7036,200;  342,675;16147,122;42,35216
 565,65; 7256,863;  355,134;16690,722;42,24965
 566,23; 7517,915;  405,059;17315,816;42,06113
 566,81; 7650,248;  340,368;17892,079;41,64768
 567,39; 7906,669;  348,058;18582,558;41,45225
 567,97; 8076,634;  385,752;19137,351;41,01454
 568,55; 8364,914;  409,597;19795,822;41,03592
 569,13; 8527,257;  357,598;20353,817;40,85602
 569,71; 8738,369;  324,832;21192,523;40,31848
 570,29; 9141,831;  404,218;22011,707;40,43789
 570,87; 9297,946;  383,448;22564,174;40,19029
 571,45; 9472,674;  367,137;23067,776;40,11137
 572,03; 9511,532;  315,211;23468,330;39,71957
 572,61; 9748,437;  319,828;24101,783;39,64606
 573,20; 9906,035;  353,368;24631,384;39,34698
 573,78;10025,465;  330,674;25093,400;39,15074
 574,36;10155,319;  352,674;25566,896;38,87744
 574,94;10297,087;  417,134;25892,718;38,78205
 575,52;10191,819;  325,209;26073,775;38,31907
 576,10;10404,410;  389,979;26511,306;38,33814
 576,68;10441,476;  359,288;27011,137;37,82922
 577,26;10666,455;  381,900;27596,784;37,79019
 577,84;10785,713;  387,059;28050,013;37,59054
 578,42;10838,916;  442,595;28272,915;37,35610
 579,00;10789,483;  368,751;28402,900;37,17157
 579,58;10820,871;  418,596;28528,295;37,00600
 580,16;10737,569;  363,825;28536,803;36,82161
 580,74;10773,059;  365,287;28735,573;36,68547
 581,32;10752,586;  360,441;28727,990;36,63392
 581,90;10670,707;  396,441;28727,533;36,26499
 582,48;10566,357;  376,287;28789,380;35,86399
 583,06;10598,847;  358,903;28904,719;35,87196
 583,64;10588,819;  358,288;28896,794;35,84816
 584,22;10492,236;  383,208;28848,125;35,51399
 584,80;10370,719;  382,672;28643,531;35,34233
 585,38;10184,917;  389,292;28189,805;35,23541
 585,96;10088,367;  343,289;28262,787;34,90420
 586,54;10026,874;  374,362;28201,276;34,68769
 587,12; 9936,749;  352,056;28306,538;34,28679
 587,70; 9935,242;  385,289;28397,943;34,09157
 588,28; 9867,367;  344,825;28413,307;33,92610
 588,86; 9854,359;  364,670;28510,119;33,71660
 589,44; 9754,240;  328,591;28561,562;33,38525
 590,02; 9777,564;  341,899;28762,210;33,20043
 590,59; 9764,551;  325,209;28738,852;33,22116
 591,17; 9757,889;  348,050;28948,390;32,90115
 591,75; 9707,513;  323,282;28960,993;32,76879
 592,33; 9766,148;  352,283;29278,410;32,54451
 592,91; 9763,712;  294,281;29389,885;32,54592
 593,49; 9734,762;  314,203;29615,740;32,15039
 594,07; 9829,362;  330,742;29880,086;32,14494
 594,65; 9772,189;  350,439;29820,624;31,97045
 595,23; 9817,589;  336,669;30113,248;31,84019
 595,81; 9723,747;  331,976;30218,176;31,42511
 596,39; 9773,969;  325,975;30360,793;31,45680
 596,97; 9784,522;  311,666;30557,269;31,31978
 597,55; 9693,809;  312,515;30399,859;31,18020
 598,12; 9620,151;  294,202;30422,591;30,95402
 598,70; 9632,630;  295,281;30555,773;30,85657
 599,28; 9579,224;  332,127;30678,273;30,47207
 599,86; 9577,907;  313,050;30722,849;30,46668
 600,44; 9501,832;  272,434;30806,315;30,22674
 601,02; 9565,996;  346,123;30836,916;30,23822
 601,60; 9442,452;  319,205;30796,416;29,93465
 602,18; 9344,160;  282,664;30779,590;29,71282
 602,75; 9284,027;  288,899;30865,636;29,41821
 603,33; 9252,723;  306,819;30873,889;29,26648
 603,91; 9221,018;  283,278;30885,369;29,20631
 604,49; 9159,351;  307,665;30881,390;28,95194
 605,07; 9076,285;  317,359;30994,608;28,55186
 605,65; 9057,990;  315,588;31052,279;28,44289
 606,23; 9042,606;  345,978;31160,773;28,22225
 606,80; 8992,297;  355,514;31216,713;27,98590
 607,38; 8960,020;  363,663;31197,250;27,87985
 607,96; 8966,513;  390,130;31345,905;27,70528
 608,54; 8960,183;  435,818;31378,740;27,54867
 609,12; 8887,814;  427,668;31435,059;27,28429
 609,70; 8901,298;  435,281;31411,463;27,33073
 610,27; 8838,564;  419,745;31498,749;27,08845
 610,85; 8739,343;  459,897;31566,539;26,61633
 611,43; 8690,843;  442,050;31444,196;26,60717
 612,01; 8597,762;  406,052;31433,067;26,40186
 612,59; 8557,048;  413,435;31332,348;26,33862
 613,16; 8460,042;  400,208;31300,741;26,08315
 613,74; 8420,932;  383,358;31201,927;26,08030
 614,32; 8340,331;  381,049;31156,741;25,86224
 614,90; 8210,511;  373,743;31048,957;25,54756
 615,48; 8066,674;  347,208;30851,821;25,30590
 616,05; 8020,943;  319,901;30803,662;25,26277
 616,63; 7926,058;  341,363;30677,425;25,00224
 617,21; 7876,469;  331,515;30568,403;24,95281
 617,79; 7793,428;  319,129;30588,485;24,69262
 618,36; 7731,787;  331,975;30408,377;24,60338
 618,94; 7547,988;  265,207;30145,323;24,37333
 619,52; 7493,446;  307,055;29994,081;24,20718
 620,10; 7461,753;  275,591;29947,944;24,21838
 620,67; 7433,036;  293,517;29842,233;24,16186
 621,25; 7401,279;  309,513;29745,916;24,09182
 621,83; 7261,006;  283,515;29690,669;23,72719
 622,41; 7245,745;  350,977;29726,591;23,47106
 622,98; 7125,581;  314,671;29382,386;23,43118
 623,56; 7111,771;  318,671;29483,345;23,29222
 624,14; 7055,300;  296,281;29283,806;23,31699
 624,72; 6982,394;  303,669;29263,515;23,06202
 625,29; 6893,903;  287,056;29333,230;22,74602
 625,87; 6927,003;  335,052;29264,793;22,78607
 626,45; 6823,370;  284,056;29152,342;22,65224
 627,02; 6780,397;  293,744;29046,679;22,55997
 627,60; 6738,201;  267,511;29045,507;22,48485
 628,18; 6701,045;  262,899;29089,675;22,33391
 628,76; 6634,609;  258,055;29139,542;22,07834
 629,33; 6641,943;  307,285;29056,934;22,03386
 629,91; 6558,522;  277,514;29023,175;21,85028
 630,49; 6599,696;  304,593;29225,084;21,76693
 631,06; 6592,886;  287,055;29224,120;21,79154
 631,64; 6528,475;  289,210;29211,113;21,57280
 632,22; 6481,604;  264,826;29152,413;21,52059
 632,79; 6501,814;  292,057;29366,452;21,35816
 633,37; 6468,411;  265,667;29387,606;21,29921
 633,95; 6439,086;  284,595;29426,765;21,11885
 634,52; 6471,840;  274,054;29646,937;21,10037
 635,10; 6417,574;  286,976;29565,404;20,93896
 635,68; 6406,315;  287,134;29761,836;20,76079
 636,25; 6382,105;  263,904;29705,248;20,78098
 636,83; 6386,301;  253,901;29912,080;20,67693
 637,41; 6364,376;  273,596;29828,910;20,60807
 637,98; 6387,385;  306,673;30037,063;20,45285
 638,56; 6370,901;  279,366;30170,244;20,37924
 639,13; 6320,799;  257,902;30144,270;20,28650
 639,71; 6402,286;  341,593;30305,928;20,22636
 640,29; 6243,761;  232,439;30073,417;20,14452
 640,86; 6273,022;  261,132;30333,564;19,99137
 641,44; 6259,515;  266,747;30277,866;19,96849
 642,02; 6228,161;  290,055;30228,706;19,83425
 642,59; 6272,114;  250,901;30405,468;19,96783
 643,17; 6221,991;  257,439;30435,231;19,76471
 643,74; 6201,022;  254,670;30417,994;19,71385
 644,32; 6183,591;  278,593;30401,988;19,60270
 644,89; 6158,237;  278,208;30386,520;19,52959
 645,47; 6169,191;  288,823;30405,052;19,52558
 646,05; 6140,760;  281,823;30394,892;19,45646
 646,62; 6071,098;  263,746;30275,962;19,34996
 647,20; 6076,668;  269,823;30494,802;19,21207
 647,77; 6038,544;  241,131;30418,719;19,21099
 648,35; 6024,267;  231,438;30305,712;19,26174
 648,92; 5975,913;  264,130;30254,168;19,04560
 649,50; 5929,098;  237,207;30278,930;18,94662
 650,08; 5891,513;  230,284;30135,001;18,93089
 650,65; 5872,313;  252,284;30321,841;18,69010
 651,23; 5944,652;  218,515;30809,373;18,71846
 651,80; 6057,067;  227,207;31718,213;18,51278
 652,38; 6178,944;  250,130;32069,668;18,63262
 652,95; 6181,590;  231,515;32456,431;18,46421
 653,53; 6215,005;  245,514;32679,040;18,40531
 654,10; 6283,420;  283,899;32812,418;18,44388
 654,68; 6148,297;  231,745;32669,335;18,23980
 655,25; 6179,097;  224,822;32728,790;18,31861
 655,83; 6136,743;  231,437;32816,630;18,12267
 656,40; 6188,928;  273,360;32820,469;18,17540
 656,98; 6133,343;  241,206;32834,232;18,07791
 657,55; 6109,143;  243,052;32723,995;18,06010
 658,13; 6057,174;  241,821;32366,143;18,10265
 658,70; 5950,281;  268,129;32158,367;17,81784
 659,28; 5845,774;  240,129;31474,361;17,94712
 659,85; 5712,650;  274,667;30820,585;17,80265
 660,43; 5696,450;  259,744;30682,117;17,87075
 661,00; 5659,020;  252,590;30825,957;17,68346
 661,58; 5667,819;  236,898;31013,335;17,64636
 662,15; 5737,542;  235,744;31192,098;17,77276
 662,73; 5776,650;  308,821;31424,015;17,57286
 663,30; 5778,988;  241,975;31621,701;17,64520
 663,88; 5761,942;  249,898;31646,540;17,55616
 664,45; 5779,434;  241,667;31939,842;17,47030
 665,03; 5821,081;  231,820;32257,758;17,45229
 665,60; 5985,650;  341,743;32606,598;17,49243
 666,17; 5902,450;  246,897;32631,207;17,46387
 666,75; 5940,788;  243,282;32926,739;17,43239
 667,32; 5996,511;  266,359;33298,194;17,34736
 667,90; 5984,003;  257,589;33444,803;17,25488
 668,47; 6022,726;  274,743;33657,797;17,21827
 669,05; 6073,526;  239,435;33942,791;17,31012
 669,62; 6079,249;  224,666;33967,169;17,35077
 670,19; 6092,434;  222,974;34069,778;17,34125
 670,77; 6151,618;  253,666;34231,233;17,35837
 671,34; 6144,880;  242,281;34088,534;17,43944
 671,92; 6184,218;  229,973;34483,913;17,38266
 672,49; 6235,941;  259,281;34460,368;17,47506
 673,06; 6213,818;  209,435;34466,515;17,52742
 673,64; 6189,310;  226,281;34473,509;17,41171
 674,21; 6195,341;  212,204;34427,349;17,48681
 674,79; 6277,064;  258,742;34672,035;17,48836
 675,36; 6260,633;  255,127;34711,567;17,42927
 675,93; 6240,587;  207,204;34592,407;17,54645
 676,51; 6270,848;  247,511;34809,169;17,42780
 677,08; 6268,571;  243,280;34850,932;17,41029
 677,65; 6330,140;  246,434;34861,234;17,57545
 678,23; 6330,017;  245,665;35089,458;17,46180
 678,80; 6347,894;  230,434;35136,375;17,52556
 679,38; 6330,848;  233,588;35252,830;17,41117
 679,95; 6370,109;  249,357;35525,054;17,35119
 680,52; 6405,678;  234,203;35772,356;17,36577
 681,10; 6482,786;  258,818;36171,888;17,33065
 681,67; 6471,817;  251,357;36259,035;17,27537
 682,24; 6441,386;  206,280;36386,260;17,23358
 682,82; 6536,109;  237,741;36745,792;17,25200
 683,39; 6640,293;  283,433;37066,016;17,28226
 683,96; 6631,478;  247,895;37278,856;17,23850
 684,54; 6659,278;  213,895;37639,850;17,22169
 685,11; 6761,616;  290,356;37925,074;17,19492
 685,68; 6791,570;  238,664;38169,837;17,27578
 686,25; 6763,678;  221,356;38295,369;17,18317
 686,83; 6845,478;  231,664;38387,593;17,33365
 687,40; 6867,278;  218,971;38711,741;17,27157
 687,97; 6968,539;  273,279;39111,427;17,23888
 688,55; 6935,339;  216,971;39122,190;17,26855
 689,12; 6985,216;  213,663;39254,952;17,34459
 689,69; 7058,554;  213,509;39285,254;17,51917
 690,26; 7066,739;  227,355;39464,632;17,43083
 690,84; 7112,616;  218,586;39549,241;17,52839
 691,41; 7190,723;  244,048;39679,081;17,61549
 691,98; 7210,523;  241,124;40035,767;17,51341
 692,56; 7252,477;  221,817;39923,683;17,70864
 693,13; 7295,969;  276,047;40073,985;17,63891
 693,70; 7309,923;  250,739;40198,978;17,67082
 694,27; 7349,492;  221,970;40273,972;17,79567
 694,84; 7315,753;  227,739;40409,196;17,64001
 695,42; 7534,861;  363,047;40562,498;17,84058
 695,99; 7399,661;  238,201;40668,261;17,71321
 696,56; 7480,615;  229,278;40425,177;18,03999
 697,13; 7553,799;  250,893;40928,094;17,95332
 697,71; 7578,368;  237,354;40919,011;18,04502
 698,28; 7606,015;  233,970;41056,697;18,05868
 698,85; 7632,122;  206,970;41095,767;18,15938
 699,42; 7673,076;  210,354;41349,915;18,14001
 699,99; 7742,414;  255,816;41336,447;18,22416
 700,57; 7790,137;  249,123;41415,440;18,31841
 701,14; 7826,014;  224,969;41550,203;18,39323
 701,71; 7863,276;  251,892;41730,889;18,34997
 702,28; 7865,922;  223,277;41843,883;18,36265
 702,85; 7931,106;  231,584;41842,876;18,50344
 703,43; 7998,445;  252,430;42044,947;18,53445
 704,00; 8076,860;  264,353;42261,787;18,60234
 704,57; 8036,891;  232,969;42225,319;18,58415
 705,14; 8130,921;  260,122;42461,928;18,65038
 705,71; 8166,721;  269,507;42584,152;18,66308
 706,28; 8164,983;  240,353;42407,146;18,79353
 706,86; 8227,013;  267,199;42609,524;18,79872
 707,43; 8315,429;  291,507;42608,672;18,96139
 708,00; 8315,459;  272,430;42597,050;19,00319
 708,57; 8322,490;  234,353;42547,890;19,11477
 709,14; 8377,752;  253,045;42677,652;19,15093
 709,71; 8413,167;  234,583;42723,492;19,24875
 710,28; 8493,044;  249,891;42956,101;19,30200
 710,86; 8556,305;  242,199;43044,941;19,42424
 711,43; 8627,644;  281,122;43032,704;19,52331
 712,00; 8641,059;  244,814;43090,159;19,59663
 712,57; 8720,243;  273,968;43237,537;19,65916
 713,14; 8744,736;  250,737;43336,454;19,71419
 713,71; 8771,766;  267,814;43246,371;19,78650
 714,28; 8835,335;  249,583;43236,134;19,97311
 714,85; 8843,289;  233,813;43089,127;20,08963
 715,42; 8890,397;  242,736;43212,505;20,12499
 716,00; 9013,966;  330,044;43356,730;20,18264
 716,57; 8974,766;  245,505;43522,647;20,17060
 717,14; 9026,950;  235,352;43316,486;20,40707
 717,71; 9039,750;  216,275;43472,172;20,39832
 718,28; 9176,166;  284,967;43603,320;20,52525
 718,85; 9152,504;  212,121;43541,621;20,63348
 719,42; 9234,458;  246,736;43593,461;20,73449
 719,99; 9207,335;  228,890;43414,147;20,79053
 720,56; 9329,827;  266,813;43777,140;20,82957
 721,13; 9320,627;  221,889;43855,211;20,85273
 721,70; 9367,581;  232,889;43612,358;21,05764
 722,27; 9395,073;  257,812;43730,814;21,01824
 722,84; 9560,180;  316,120;43911,577;21,20418
 723,41; 9493,519;  223,120;43891,032;21,22932
 723,98; 9597,242;  233,427;43995,487;21,39711
 724,55; 9665,965;  260,274;44173,942;21,41860
 725,12; 9621,380;  200,504;44037,474;21,49071
 725,69; 9717,103;  243,581;44181,468;21,56117
 726,27; 9820,057;  226,658;44316,308;21,75885
 726,84; 9905,318;  245,735;44467,840;21,84334
 727,41;10021,657;  256,889;44551,833;22,04488
 727,98;10052,918;  257,042;44802,596;21,99069
 728,55;10131,487;  297,196;44755,128;22,12044
 729,12;10167,056;  226,119;44790,891;22,30672
 729,69;10249,779;  263,811;44922,500;22,36064
 730,26;10273,272;  254,350;45143,724;22,31914
 730,82;10305,302;  253,888;45098,103;22,41407
 731,39;10423,256;  245,965;45088,019;22,69586
 731,96;10472,825;  222,888;45360,090;22,70840
 732,53;10576,933;  252,195;45507,699;22,81432
 733,10;10710,117;  263,426;45678,770;23,00256
 733,67;10770,302;  250,041;45739,840;23,12664
 734,24;10737,563;  237,195;45466,218;23,21600
 734,81;10872,979;  282,195;45622,827;23,35826
 735,38;10847,240;  258,041;45525,744;23,39239
 735,95;10851,886;  263,272;45320,276;23,50048
 736,52;10938,379;  247,426;45478,501;23,63630
 737,09;10955,332;  268,426;45200,725;23,78446
 737,66;11077,055;  318,887;45480,103;23,82170
 738,23;11141,317;  257,349;45489,405;24,06251
 738,80;11332,117;  338,964;45834,783;24,16300
 739,37;11344,070;  289,348;45843,315;24,26731
 739,94;11405,870;  258,810;45876,616;24,43577
 740,51;11601,363;  420,348;46032,610;24,51318
 741,07;11525,393;  262,348;46013,988;24,61780
 741,64;11651,962;  285,502;46088,443;24,81601
 742,21;11741,685;  268,117;46098,437;25,03489
 742,78;11771,793;  239,579;45969,200;25,21826
 743,35;11895,285;  265,886;46198,963;25,31814
 743,92;11991,393;  326,117;46355,341;25,34320
 744,49;12098,962;  314,348;46251,334;25,65387
 745,06;12129,916;  260,886;46256,482;25,80471
 745,63;12179,254;  242,655;46212,937;25,96590
 746,19;12255,208;  266,040;46279,700;26,05567
 746,76;12297,546;  269,270;46202,540;26,18641
 747,33;12406,346;  272,578;46311,072;26,35570
 747,90;12522,377;  277,501;46478,065;26,50374
 748,47;12573,100;  275,116;46369,367;26,68008
 749,04;12677,515;  277,501;46429,822;26,86759
 749,61;12745,546;  314,501;46430,123;26,95626
 750,17;12780,577;  287,885;46419,040;27,08081
 750,74;12825,838;  287,577;46394,187;27,19406
 751,31;12851,023;  247,424;46338,335;27,34509
 751,88;12879,207;  245,962;46223,559;27,47696
 752,45;12944,546;  260,500;46379,168;27,50306
 753,02;13001,653;  281,039;46202,623;27,70073
 753,58;13076,915;  258,192;46049,848;27,99358
 754,15;13162,407;  261,115;46249,380;28,05344
 754,72;13185,207;  250,346;46024,835;28,25779
 755,29;13278,468;  258,115;45829,060;28,57161
 755,86;13353,037;  278,192;45989,361;28,60317
 756,42;13417,991;  281,038;45922,278;28,78308
 756,99;13429,868;  234,115;45845,271;28,93098
 757,56;13496,668;  241,577;45842,726;29,06745
 758,13;13482,006;  194,653;45746,258;29,16989
 758,70;13705,729;  244,576;45813,406;29,54027
 759,26;13750,299;  227,269;45909,323;29,60250
 759,83;13858,483;  244,345;45917,470;29,80776
 760,40;13915,745;  217,115;45844,541;30,02280
 760,97;13971,775;  213,653;45946,611;30,08360
 761,53;13922,114;  201,191;45538,297;30,26422
 762,10;13948,683;  200,191;45633,829;30,26060
 762,67;14065,098;  229,345;45480,900;30,57520
 763,24;13943,283;  178,960;45142,740;30,61202
 763,80;14142,083;  220,576;45303,426;30,87983
 764,37;14167,959;  223,422;45338,419;30,90887
 764,94;14096,605;  217,345;44805,413;31,12775
 765,50;14190,175;  217,114;44845,868;31,30955
 766,07;14312,898;  254,191;44927,939;31,46973
 766,64;14244,082;  233,191;44698,548;31,50968
 767,21;14303,421;  241,114;44582,926;31,71342
 767,77;14385,067;  244,190;44542,304;31,92207
 768,34;14461,174;  257,498;44448,682;32,14142
 768,91;14481,590;  266,190;44302,984;32,28073
 769,47;14629,082;  256,575;44390,746;32,56548
 770,04;14682,189;  263,652;44253,663;32,77684
 770,61;14594,066;  234,959;43964,349;32,83628
 771,18;14680,482;  240,267;43998,112;33,00029
 771,74;14794,666;  255,498;44062,490;33,18915
 772,31;14784,697;  271,344;43868,561;33,28963
 772,88;14806,035;  235,882;43699,785;33,52242
 773,44;14806,835;  234,343;43574,317;33,62367
 774,01;14908,327;  275,574;43676,695;33,71515
 774,58;14939,281;  235,805;43413,381;34,05350
 775,14;14973,312;  238,420;43453,375;34,09674
 775,71;15071,266;  234,035;43417,446;34,35863
 776,27;15232,835;  313,882;43282,978;34,72019
 776,84;15345,788;  366,805;43421,894;34,79027
 777,41;15323,896;  264,958;43214,965;35,06155
 777,97;15312,927;  250,497;42939,420;35,28416
 778,54;15347,419;  260,112;42996,260;35,30339
 779,11;15459,757;  288,727;42979,946;35,53665
 779,67;15550,403;  268,419;42977,324;35,78173
 780,24;15549,742;  265,189;42792,087;35,94091
 780,80;15692,465;  269,035;42735,465;36,31911
 781,37;15719,342;  285,342;42748,228;36,34703
 781,94;15732,834;  267,881;42466,222;36,64825
 782,50;15827,480;  267,342;42478,831;36,86233
 783,07;15906,895;  286,573;42588,055;36,92618
 783,63;15872,849;  257,496;42370,895;37,07930
 784,20;15973,264;  295,803;42269,658;37,35054
 784,77;15974,141;  261,111;42054,805;37,59665
 785,33;15953,787;  240,034;42003,260;37,62581
 785,90;16043,433;  256,957;41958,408;37,85594
 786,46;16128,233;  286,957;41880,325;38,08606
 787,03;16099,187;  260,341;41802,472;38,12719
 787,59;16160,833;  259,726;41700,927;38,37029
 788,16;16266,479;  274,418;41620,844;38,67822
 788,73;16254,587;  274,034;41597,453;38,67190
 789,29;16244,079;  251,110;41260,908;38,99792
 789,86;16439,110;  295,495;41199,056;39,46750
 790,42;16422,063;  271,341;40958,818;39,69458
 790,99;16336,786;  272,341;40754,966;39,68232
 791,55;16389,433;  261,879;40746,421;39,83632
 792,12;16514,848;  306,956;40708,645;40,11687
 792,68;16484,879;  277,033;40461,408;40,33370
 793,25;16495,063;  285,494;40209,171;40,60139
 793,81;16545,248;  366,571;39938,011;40,88473
 794,38;16391,201;  244,033;39787,620;40,83385
 794,94;16485,540;  261,494;39647,383;41,19253
 795,51;16474,340;  273,648;39460,069;41,34262
 796,07;16454,293;  273,879;39260,832;41,50213
 796,64;16629,709;  291,032;39409,210;41,76748
 797,20;16522,201;  286,494;38950,588;41,99169
 797,77;16451,232;  231,878;38631,659;42,23814
 798,33;16503,185;  261,417;38575,345;42,39129
 798,90;16576,908;  280,878;38519,877;42,61626
 799,46;16496,939;  255,032;38056,409;42,96644
 800,03;16489,662;  269,340;38048,556;42,93451
 800,59;16404,770;  281,416;37944,165;42,80982
 801,15;16485,877;  289,032;37662,851;43,33741
 801,72;16378,139;  270,109;37398,383;43,38481
 802,28;16437,170;  292,570;37212,685;43,72847
 802,85;16295,508;  274,493;36984,986;43,64151
 803,41;16398,077;  276,570;36836,980;44,09553
 803,98;16260,108;  262,185;36430,973;44,23129
 804,54;16231,292;  266,954;36340,582;44,25487
 805,11;16301,477;  279,262;36156,345;44,65863
 805,67;16247,277;  303,723;36007,339;44,65529
 806,23;16193,692;  280,493;35717,871;44,90513
 806,80;16185,569;  291,108;35601,403;45,01367
 807,36;16236,907;  299,339;35624,089;45,11729
 807,93;16224,246;  308,108;35394,313;45,36295
 808,49;16158,507;  271,338;35077,230;45,64506
 809,05;16150,769;  253,800;34892,993;45,89301
 809,62;16190,415;  285,877;34816,679;46,05899
 810,18;16173,907;  269,338;34789,826;46,07284
 810,74;16132,553;  239,415;34568,589;46,29630
 811,31;16120,353;  256,953;34472,121;46,36365
 811,87;16175,461;  280,184;34216,269;46,83886
 812,44;16258,184;  294,953;34357,416;46,86458
 813,00;16133,522;  222,953;34017,641;47,08009
 813,56;16253,630;  276,107;34080,173;47,26509
 814,13;16296,814;  279,030;34023,166;47,46835
 814,69;16254,076;  251,876;33879,160;47,58695
 815,25;16190,337;  227,722;33471,154;48,01735
 815,82;16144,137;  277,645;33500,147;47,75827
 816,38;16207,860;  313,568;33346,372;48,11669
 816,94;16149,891;  237,953;33033,134;48,51913
 817,51;16115,614;  235,106;32749,128;48,84203
 818,07;16100,721;  252,568;32706,814;48,83230
 818,63;16030,213;  259,183;32416,269;49,04372
 819,20;16090,936;  265,798;32452,263;49,16706
 819,76;15977,198;  237,721;32109,564;49,38364
 820,32;16062,998;  282,183;32075,173;49,63615
 820,89;16027,952;  268,337;31837,859;49,92035
 821,45;15920,828;  251,952;31549,007;50,06502
 822,01;15907,705;  270,798;31403,616;50,22644
 822,57;15949,813;  274,106;31264,225;50,58292
 823,14;15899,382;  230,798;31097,295;50,76243
 823,70;15875,951;  243,028;30937,212;50,93122
 824,26;15889,059;  249,259;30755,975;51,26674
 824,82;15912,013;  284,721;30647,661;51,46831
 825,39;15794,736;  246,105;30400,577;51,56327
 825,95;15847,997;  263,874;30414,263;51,68797
 826,51;15774,874;  267,874;30120,488;51,94520
 827,08;15966,443;  296,874;30146,327;52,49533
 827,64;15886,397;  284,643;29959,552;52,57557
 828,20;15789,889;  245,182;29785,007;52,62288
 828,76;15935,535;  290,259;29812,385;52,99509
 829,32;15949,258;  298,335;29650,456;53,32127
 829,89;15878,366;  241,105;29518,142;53,41135
 830,45;15946,320;  276,643;29463,674;53,68712
 831,01;15995,427;  271,951;29353,052;54,06768
 831,57;15996,996;  270,489;29269,430;54,23132
 832,14;16003,181;  256,335;29244,193;54,32221
 832,70;16002,212;  244,181;28954,418;54,88645
 833,26;15978,550;  220,027;28888,565;54,96800
 833,82;16050,042;  261,565;28903,713;55,12323
 834,38;16038,304;  250,719;28807,091;55,28568
 834,95;16072,796;  243,565;28727,392;55,57270
 835,51;16048,211;  218,181;28604,463;55,76648
 836,07;16166,934;  249,104;28714,764;55,91941
 836,63;16250,657;  281,257;28682,527;56,22777
 837,19;16206,765;  269,257;28549,982;56,35466
 837,75;16040,719;  221,642;28266,437;56,40646
 838,32;16222,672;  284,719;28343,585;56,80185
 838,88;16315,780;  282,488;28406,809;57,00864
 839,44;16294,734;  273,488;28302,880;57,15874
 840,00;16349,687;  259,949;28280,642;57,42091
 840,56;16279,641;  243,103;28033,021;57,70632
 841,12;16339,672;  239,488;27914,476;58,17594
 841,68;16257,395;  231,334;27790,469;58,15154
 842,25;16333,887;  248,026;27896,155;58,18065
 842,81;16309,379;  241,718;27616,688;58,69472
 843,37;16392,410;  232,026;27647,758;58,94566
 843,93;16393,133;  255,487;27594,059;59,02885
 844,49;16497,933;  262,872;27645,822;59,28894
 845,05;16411,502;  210,025;27405,047;59,57516
 845,61;16535,764;  268,718;27456,886;59,83134
 846,17;16457,179;  238,871;27339,342;59,84511
 846,73;16496,979;  254,948;27315,028;60,02211
 847,29;16365,548;  236,102;27138,637;59,95512
 847,86;16425,117;  241,948;27111,861;60,22784
 848,42;16404,302;  242,794;26990,393;60,42227
 848,98;16431,948;  263,486;26910,387;60,67671
 849,54;16451,363;  252,563;26995,765;60,57165
 850,10;16530,394;  266,179;26909,682;61,04383
 850,66;16391,194;  235,563;26666,829;61,12318
 851,22;16330,763;  226,717;26607,592;61,04440
 851,78;16457,101;  285,178;26678,355;61,27312
 852,34;16373,747;  269,640;26529,195;61,32666
 852,90;16319,163;  248,870;26495,034;61,22911
 853,46;16267,578;  238,563;26244,028;61,63710
 854,02;16350,301;  254,409;26301,252;61,79594
 854,58;16218,332;  250,870;26099,554;61,77282
 855,14;16281,285;  239,562;26025,470;62,21120
 855,70;16146,854;  212,947;25916,464;61,99116
 856,26;16179,039;  256,947;25867,150;62,17089
 856,82;16190,454;  253,870;25749,374;62,50743
 857,38;16199,562;  302,254;25675,906;62,65282
 857,94;16096,439;  248,716;25611,362;62,48450
 858,50;16135,623;  274,254;25480,586;62,92613
 859,06;16016,269;  243,331;25218,503;63,15447
 859,62;16029,915;  271,946;25298,035;62,96617
 860,18;16002,792;  252,100;25060,721;63,48879
 860,74;15896,746;  216,562;25002,714;63,26187
 861,30;15893,931;  246,869;24816,708;63,68402
 861,86;16026,500;  319,946;24890,625;63,92397
 862,42;15911,069;  240,715;24682,695;64,11246
 862,98;15992,177;  291,869;24688,997;64,35310
 863,54;15856,438;  249,023;24474,760;64,42494
 864,10;15930,161;  253,253;24526,907;64,58405
 864,66;15809,961;  218,176;24366,362;64,56711
 865,22;15862,992;  255,022;24190,125;65,20954
 865,78;15825,330;  248,253;24193,811;65,05205
 866,34;15894,591;  238,253;24092,112;65,63440
 866,90;15805,314;  251,791;23978,798;65,55198
 867,45;15806,268;  243,253;23773,330;66,14094
 868,01;15749,530;  257,868;23686,862;66,12175
 868,57;15756,407;  239,714;23600,087;66,42314
 869,13;15734,668;  237,330;23485,080;66,66167
 869,69;15695,237;  233,406;23371,305;66,82470
 870,25;15701,729;  220,022;23242,145;67,24709
 870,81;15756,222;  241,099;23242,754;67,45220
 871,37;15669,714;  257,175;23147,440;67,33229
 871,93;15676,129;  275,175;23046,818;67,63216
 872,49;15618,852;  300,406;22873,273;67,86221
 873,04;15513,191;  226,867;22713,420;67,97984
 873,60;15488,221;  230,867;22635,029;68,10053
 874,16;15468,483;  261,790;22568,177;68,17192
 874,72;15475,713;  232,098;22491,946;68,48032
 875,28;15465,944;  246,329;22428,408;68,61221
 875,84;15433,021;  250,406;22390,869;68,57406
 876,40;15446,790;  237,252;22352,946;68,77260
 876,95;15442,560;  265,637;22299,792;68,87908
 877,51;15519,021;  283,637;22322,254;69,13040
 878,07;15485,329;  297,252;22311,331;68,99256
 878,63;15441,867;  254,483;22296,177;68,90298
 879,19;15515,098;  270,098;22358,331;69,01865
 879,75;15619,560;  247,252;22321,638;69,63866
 880,30;15608,944;  239,406;22373,638;69,43786
 880,86;15751,098;  292,637;22521,562;69,54210
 881,42;15719,329;  232,021;22510,946;69,51551
 881,98;15883,252;  264,406;22569,638;70,02324
 882,54;16041,021;  254,098;22638,485;70,52649
 883,09;16071,098;  268,483;22714,408;70,40305
 883,65;16105,252;  227,406;22761,638;70,46100
 884,21;16311,790;  280,944;22960,177;70,68513
 884,77;16337,252;  238,483;22999,715;70,72890
 885,32;16408,252;  249,329;23011,638;70,98982
 885,88;16553,021;  288,098;23216,792;70,93698
 886,44;16620,713;  257,637;23296,715;71,02314
 887,00;16748,483;  278,252;23317,638;71,48728
 887,56;16766,867;  247,867;23393,946;71,36846
 888,11;16820,867;  256,098;23412,254;71,53506
 888,67;16959,867;  274,790;23560,715;71,65306
 889,23;16995,560;  260,483;23537,869;71,89414
 889,79;16887,252;  236,560;23478,177;71,64171
 890,34;16889,790;  261,637;23438,869;71,74348
 890,90;17106,252;  335,252;23556,100;72,22389
 891,46;16981,637;  251,944;23515,331;71,91426
 892,01;17103,329;  271,637;23481,408;72,51985
 892,57;17014,790;  290,867;23462,100;72,17537
 893,13;16987,252;  254,637;23253,715;72,75342
 893,69;16924,713;  233,175;23210,254;72,64430
 894,24;16938,329;  247,098;23140,023;72,91000
 894,80;16871,175;  248,944;23016,946;73,00698
 895,36;16947,944;  252,713;22917,177;73,66259
 895,91;16788,021;  247,560;22825,408;73,25969
 896,47;16834,329;  278,790;22719,100;73,77589
 897,03;16767,406;  252,252;22567,638;74,00792
 897,58;16668,560;  259,560;22400,946;74,11008
 898,14;16649,560;  261,406;22242,792;74,55469
 898,70;16551,483;  213,406;22143,177;74,50181
 899,25;16591,175;  253,329;22181,715;74,50546
 899,81;16524,790;  251,867;22036,408;74,69941
 900,37;16483,406;  222,713;21764,946;75,48286
 900,92;16422,021;  245,252;21832,023;74,93835
 901,48;16472,406;  243,790;21694,254;75,65625
 902,03;16392,560;  242,713;21513,023;75,92671
 902,59;16382,406;  239,252;21413,408;76,23989
 903,15;16322,252;  255,637;21360,715;76,12677
 903,70;16206,098;  240,406;21169,177;76,28586
 904,26;16176,944;  245,175;21055,177;76,55823
 904,82;16184,406;  243,098;21036,638;76,66471
 905,37;16128,252;  267,406;20925,485;76,77793
 905,93;16036,175;  237,944;20862,100;76,60062
 906,48;16006,329;  261,252;20831,946;76,54130
 907,04;15961,637;  258,098;20762,331;76,58681
 907,60;15960,329;  266,713;20541,562;77,40436
 908,15;15912,483;  227,021;20455,408;77,54183
 908,71;15871,944;  258,406;20409,408;77,48269
 909,26;15825,637;  239,483;20304,177;77,67950
 909,82;15816,406;  261,483;20233,869;77,88215
 910,37;15912,175;  285,944;20174,331;78,56963
 910,93;15699,175;  236,637;19962,485;78,38719
 911,48;15669,560;  224,637;19879,562;78,58042
 912,04;15628,790;  235,329;19814,869;78,62014
 912,60;15685,483;  244,021;19806,562;78,93383
 913,15;15538,560;  252,021;19604,792;78,98889
 913,71;15535,021;  228,175;19536,331;79,27658
 914,26;15509,329;  213,021;19437,023;79,56880
 914,82;15519,637;  258,560;19373,254;79,83950
 915,37;15511,406;  236,560;19328,331;80,00749
 915,93;15506,021;  306,713;19241,254;80,27292
 916,48;15355,483;  217,098;19115,946;80,10216
 917,04;15289,252;  255,560;19033,331;80,06111
 917,59;15420,944;  268,637;18987,254;80,94779
 918,15;15246,790;  210,406;18833,715;80,73959
 918,70;15185,483;  230,713;18762,869;80,69633
 919,26;15251,867;  243,560;18633,638;81,61089
 919,81;15086,944;  220,098;18520,254;81,23890
 920,37;15135,867;  234,329;18455,946;81,77945
 920,92;15051,098;  252,560;18444,177;81,34812
 921,48;14961,329;  224,867;18301,254;81,52327
 922,03;14910,252;  229,637;18233,100;81,54328
 922,59;14880,560;  243,483;18105,562;81,94498
 923,14;14825,560;  251,406;18036,638;81,94525
 923,69;14820,098;  264,637;17984,792;82,14071
 924,25;14817,560;  273,944;17944,254;82,30538
 924,80;14649,560;  234,098;17753,792;82,28147
 925,36;14636,098;  221,021;17678,946;82,57039
 925,91;14568,713;  225,098;17594,408;82,58023
 926,47;14436,329;  207,560;17556,638;82,01455
 927,02;14511,252;  315,098;17558,638;82,32737
 927,57;14379,175;  226,175;17284,023;82,97061
 928,13;14313,483;  215,483;17281,023;82,61092
 928,68;14318,329;  228,637;17233,023;82,85916
 929,24;14105,867;  203,252;17075,331;82,40013
 929,79;14137,252;  224,790;16946,638;83,19931
 930,34;14055,175;  221,713;16873,331;83,07578
 930,90;14032,098;  213,252;16818,638;83,21906
 931,45;14023,713;  232,406;16841,023;83,03706
 932,01;13963,252;  228,252;16796,408;82,89999
 932,56;13867,944;  257,252;16666,023;82,94766
 933,11;13925,560;  260,021;16579,485;83,73767
 933,67;13798,560;  215,790;16498,408;83,41883
 934,22;13721,329;  228,944;16413,638;83,36509
 934,77;13626,560;  262,252;16297,100;83,34540
 935,33;13567,790;  228,790;16237,715;83,32227
 935,88;13537,252;  241,560;16149,562;83,57864
 936,43;13472,713;  232,406;16092,562;83,48157
 936,99;13454,483;  234,175;15959,946;84,06779
 937,54;13297,867;  215,098;15838,638;83,73755
 938,09;13336,252;  239,867;15850,485;83,89409
 938,65;13271,098;  238,637;15749,177;84,02326
 939,20;13224,713;  204,483;15622,177;84,44992
 939,75;13193,560;  211,021;15540,100;84,69223
 940,31;13121,637;  209,252;15446,562;84,74189
 940,86;13106,175;  231,637;15465,331;84,51357
 941,41;13167,175;  337,790;15419,946;85,06333
 941,96;13008,406;  216,790;15296,562;84,82632
 942,52;12893,944;  222,867;15159,408;84,83274
 943,07;12845,483;  206,560;15129,792;84,69293
 943,62;12755,867;  226,944;15026,100;84,65971
 944,18;12703,021;  198,790;14977,254;84,61117
 944,73;12664,329;  245,944;14924,946;84,59965
 945,28;12515,252;  192,790;14737,562;84,72090
 945,83;12574,713;  219,483;14770,177;84,91162
 946,39;12526,329;  217,637;14769,177;84,58687
 946,94;12461,637;  242,329;14655,485;84,77885
 947,49;12409,560;  212,944;14504,869;85,33921
 948,04;12304,406;  274,252;14543,946;84,30562
 948,59;12261,252;  247,175;14437,946;84,66120
 949,15;12241,329;  215,175;14429,638;84,60505
 949,70;12157,252;  225,944;14290,792;84,83069
 950,25;12098,790;  232,329;14228,408;84,78419
 950,80;11964,175;  187,790;14121,100;84,51965
 951,36;11945,483;  179,021;14015,715;85,03810
 951,91;11981,329;  236,329;14056,254;84,98599
 952,46;11820,098;  225,944;13898,177;84,80074
 953,01;11895,790;  224,483;13934,254;85,13131
 953,56;11722,098;  194,406;13775,869;84,87813
 954,11;11727,098;  228,098;13778,638;84,86008
 954,67;11619,329;  224,713;13705,023;84,52785
 955,22;11566,637;  203,790;13541,100;85,19594
 955,77;11634,098;  249,175;13578,946;85,40974
 956,32;11581,098;  279,406;13514,023;85,39493
 956,87;11428,098;  216,098;13390,562;85,10404
 957,42;11395,560;  217,329;13284,100;85,54700
 957,98;11244,637;  209,098;13328,485;84,11627
 958,53;11302,790;  255,329;13253,485;84,99253
 959,08;11181,483;  196,867;13110,715;85,06075
 959,63;11161,483;  223,098;13049,023;85,28340
 960,18;11169,329;  242,713;13036,331;85,40677
 960,73;11099,790;  219,713;13011,715;85,05375
 961,28;11063,021;  197,406;12875,408;85,70448
 961,83;11046,560;  244,560;12834,869;85,79614
 962,39;10942,637;  206,637;12727,408;85,74552
 962,94;10926,252;  227,483;12728,254;85,58487
 963,49;10819,175;  232,713;12643,715;85,29901
 964,04;10813,637;  237,021;12593,100;85,59848
 964,59;10702,867;  209,021;12445,869;85,75612
 965,14;10746,175;  262,021;12509,331;85,60373
 965,69;10678,329;  231,560;12355,946;86,16328
 966,24;10594,252;  218,252;12294,177;85,92302
 966,79;10547,713;  251,406;12194,638;86,21039
 967,34;10474,252;  196,406;12056,023;86,66254
 967,89;10448,867;  226,252;12113,869;85,99381
 968,44;10462,098;  231,098;11975,792;87,11168
 968,99;10386,098;  236,098;11943,177;86,69968
 969,55;10296,713;  235,637;11895,023;86,29165
 970,10;10250,175;  236,560;11827,100;86,39472
 970,65;10177,021;  255,175;11775,715;86,12310
 971,20;10104,406;  221,021;11661,562;86,38914
 971,75;10091,175;  197,021;11527,485;87,32347
 972,30; 9995,790;  240,406;11490,408;86,71452
 972,85; 9900,483;  209,867;11405,331;86,55841
 973,40; 9865,560;  213,790;11288,254;87,15338
 973,95; 9843,713;  228,867;11244,254;87,28560
 974,50; 9795,021;  266,406;11252,023;86,73719
 975,05; 9708,637;  245,713;11099,331;87,18681
 975,60; 9642,021;  242,406;11083,946;86,70000
 976,15; 9553,944;  216,790;11005,869;86,54264
 976,70; 9529,713;  237,637;10919,023;86,99317
 977,25; 9523,944;  252,329;10874,408;87,28626
 977,80; 9336,252;  230,790;10771,946;86,38011
 978,35; 9198,175;  250,867;10640,023;86,12160
 978,89; 9137,560;  206,560;10613,485;85,81786
 979,44; 9134,098;  233,406;10594,408;85,90571
 979,99; 9028,175;  227,637;10429,869;86,26091
 980,54; 8994,560;  255,637;10391,023;86,22190
 981,09; 8922,637;  253,021;10319,177;86,12638
 981,64; 8886,483;  238,867;10235,177;86,50808
 982,19; 8857,637;  281,867;10170,562;86,72297
 982,74; 8708,483;  239,329;10073,023;86,12383
 983,29; 8605,867;  228,560; 9925,331;86,39275
 983,84; 8570,406;  242,560; 9856,562;86,62206
 984,39; 8588,944;  351,483; 9957,638;85,75190
 984,94; 8445,483;  207,560; 9720,715;86,59506
 985,49; 8416,252;  263,175; 9651,562;86,84215
 986,03; 8309,944;  249,790; 9573,408;86,44878
 986,58; 8261,790;  290,175; 9548,869;86,09870
 987,13; 8176,483;  247,560; 9410,638;86,53121
 987,68; 8122,637;  266,098; 9275,715;87,20169
 988,23; 8082,021;  250,790; 9286,485;86,66994
 988,78; 7979,560;  227,252; 9132,177;87,05641
 989,33; 7923,175;  264,329; 9075,100;86,92595
 989,88; 7878,329;  272,252; 9035,177;86,79838
 990,42; 7774,637;  234,560; 8880,408;87,21038
 990,97; 7693,790;  245,098; 8798,485;87,08472
 991,52; 7659,560;  253,637; 8767,100;86,99072
 992,07; 7597,098;  285,483; 8679,100;87,10923
 992,62; 7482,867;  250,098; 8561,715;87,02000
 993,17; 7441,021;  262,790; 8514,946;86,98613
 993,71; 7434,637;  265,021; 8433,177;87,77520
 994,26; 7261,867;  235,098; 8308,485;87,03620
 994,81; 7238,790;  263,329; 8294,485;86,85501
 995,36; 7136,790;  226,560; 8143,562;87,28343
 995,91; 7078,944;  244,329; 8144,638;86,51073
 996,45; 7046,021;  239,790; 8037,408;87,28603
 997,00; 6921,483;  226,790; 7917,715;87,04665
 997,55; 6921,098;  248,098; 7891,638;87,30248
 998,10; 6866,867;  273,790; 7767,792;87,97805
 998,65; 6786,483;  244,560; 7756,177;87,09074
 999,19; 6718,098;  277,252; 7628,023;87,62137
 999,74; 6705,790;  287,944; 7559,869;88,25512
1000,29; 6566,098;  265,483; 7439,177;87,82944
1000,84; 6499,867;  247,483; 7371,254;87,76790
1001,38; 6450,560;  254,637; 7303,254;87,90267
1001,93; 6437,098;  262,790; 7254,408;88,31015
1002,48; 6298,790;  227,252; 7141,023;87,81804
1003,03; 6315,406;  272,867; 7085,715;88,69328
1003,57; 6248,790;  253,021; 6971,638;89,24112
1004,12; 6254,175;  293,790; 6974,715;89,21496
1004,67; 6112,637;  248,175; 6895,715;88,22002
1005,22; 6032,560;  242,637; 6718,177;89,41220
1005,76; 5913,252;  232,867; 6636,562;88,70481
1006,31; 5902,406;  264,329; 6606,946;88,89196
1006,86; 5815,944;  239,713; 6484,485;89,29440
1007,40; 5741,406;  234,098; 6398,869;89,33515
1007,95; 5694,483;  251,329; 6333,715;89,49043
1008,50; 5651,252;  251,790; 6225,715;90,38382
1009,04; 5557,790;  248,944; 6176,638;89,56005
1009,59; 5479,713;  260,329; 6062,254;89,95953
1010,14; 5415,944;  239,329; 5975,792;90,24054
1010,68; 5312,098;  247,560; 5875,715;89,98576
1011,23; 5259,483;  238,329; 5830,408;89,79047
1011,78; 5199,713;  247,483; 5775,023;89,59194
1012,32; 5144,867;  276,560; 5679,485;90,10504
1012,87; 5137,329;  270,021; 5623,562;90,91755
1013,42; 5004,944;  226,329; 5490,638;90,77383
1013,96; 5014,098;  280,637; 5559,254;89,67238
1014,51; 4958,175;  211,098; 5476,408;90,15760
1015,06; 4901,021;  207,867; 5445,715;89,60080
1015,60; 4986,637;  287,713; 5507,100;90,02826
1016,15; 4888,944;  222,329; 5436,638;89,49632
1016,69; 4921,867;  246,790; 5461,562;89,65066
1017,24; 4904,406;  225,560; 5464,254;89,31321
1017,79; 4991,252;  289,175; 5519,869;89,89394
1018,33; 4915,483;  243,483; 5516,792;88,59711
1018,88; 4958,021;  259,175; 5560,946;88,62786
1019,42; 4959,560;  236,252; 5525,869;89,29394
1019,97; 4938,252;  224,175; 5524,638;88,93707
1020,51; 4980,713;  278,944; 5624,638;87,95432
1021,06; 4929,175;  217,560; 5582,408;87,82384
1021,61; 4877,406;  204,483; 5550,869;87,40339
1022,15; 4835,329;  187,944; 5520,869;87,14513
1022,70; 4883,252;  239,637; 5536,331;87,67007
1023,24; 4825,790;  237,483; 5489,562;87,36174
1023,79; 4764,560;  241,483; 5439,869;87,00925
1024,33; 4760,175;  226,329; 5403,023;87,58188
1024,88; 4717,560;  250,252; 5347,946;87,63389
1025,42; 4605,252;  250,944; 5235,485;87,35625
1025,97; 4578,175;  223,713; 5209,946;87,32969
1026,51; 4431,021;  208,713; 5069,946;86,85673
1027,06; 4420,560;  228,252; 5058,023;86,80137
1027,60; 4365,790;  260,867; 4993,100;86,74390
1028,15; 4333,406;  261,944; 4895,023;87,87810
1028,69; 4205,021;  201,483; 4763,869;87,75097
1029,24; 4162,560;  228,098; 4756,869;86,87702
1029,78; 4100,944;  224,790; 4650,485;87,58296
1030,33; 4029,944;  214,944; 4564,792;87,70421
1030,87; 3993,944;  217,713; 4530,869;87,55146
1031,42; 3912,637;  205,021; 4447,869;87,38506
1031,96; 3904,175;  241,713; 4411,254;87,83850
1032,51; 3819,790;  216,483; 4338,331;87,41971
1033,05; 3767,175;  231,098; 4313,485;86,61789
1033,60; 3675,637;  196,406; 4159,023;87,80133
1034,14; 3662,790;  222,790; 4158,408;87,40687
1034,69; 3643,944;  228,790; 4116,869;87,83654
1035,23; 3564,867;  228,483; 4029,331;87,78000
1035,77; 3537,406;  223,637; 3970,869;88,43244
1036,32; 3465,560;  192,944; 3925,792;87,67074
1036,86; 3444,713;  239,637; 3893,946;87,70677
1037,41; 3411,637;  231,252; 3818,408;88,66034
1037,95; 3317,406;  197,483; 3722,946;88,49682
1038,50; 3306,098;  211,944; 3698,792;88,73785
1039,04; 3261,021;  247,560; 3681,023;87,76740
1039,58; 3170,098;  206,483; 3613,638;86,98209
1040,13; 3175,175;  222,098; 3577,254;88,01609
1040,67; 3130,175;  253,329; 3554,946;87,13445
1041,21; 3086,175;  259,637; 3485,946;87,60903
1041,76; 3031,867;  220,329; 3414,715;88,01497
1042,30; 3002,790;  213,098; 3370,023;88,36739
1042,85; 2965,713;  218,944; 3296,023;89,26548
1043,39; 2903,560;  216,329; 3252,331;88,51216
1043,93; 2895,175;  238,406; 3252,638;88,14081
1044,48; 2854,637;  244,560; 3189,177;88,63892
1045,02; 2807,944;  226,329; 3149,023;88,32999
1045,56; 2803,483;  251,098; 3119,946;88,96897
1046,11; 2745,021;  228,406; 3101,792;87,58360
1046,65; 2709,252;  242,867; 3022,638;88,72617
1047,19; 2653,713;  205,713; 2951,715;89,14779
1047,74; 2610,329;  207,252; 2893,869;89,44619
1048,28; 2561,175;  233,637; 2909,254;86,99071
1048,82; 2597,560;  266,329; 2917,562;87,93007
1049,37; 2526,560;  243,560; 2852,485;87,50731
1049,91; 2501,713;  238,329; 2817,792;87,74633
1050,45; 2465,252;  238,098; 2748,715;88,70941
1050,99; 2436,483;  239,175; 2724,946;88,39541
1051,54; 2362,713;  211,713; 2658,869;87,89796
1052,08; 2379,867;  251,021; 2650,023;88,73883
1052,62; 2324,406;  246,790; 2624,869;87,36529
1053,16; 2300,867;  225,098; 2571,254;88,47534
1053,71; 2292,406;  246,175; 2554,562;88,64333
1054,25; 2244,944;  245,406; 2518,946;87,94823
1054,79; 2204,944;  247,867; 2507,792;86,59920
1055,33; 2156,329;  202,098; 2420,408;88,09549
1055,88; 2147,944;  228,790; 2414,331;87,81141
1056,42; 2144,637;  239,098; 2403,792;88,02807
1056,96; 2087,329;  253,790; 2363,638;86,90381
1057,50; 2059,713;  248,790; 2321,331;87,37697
1058,05; 2020,252;  241,637; 2280,023;87,25604
1058,59; 2020,713;  259,252; 2233,946;89,20174
1059,13; 1927,944;  211,790; 2196,715;86,45938
1059,67; 1917,483;  246,483; 2206,254;85,26506
1060,21; 1888,560;  238,867; 2142,638;86,65392
1060,76; 1874,021;  237,944; 2139,408;86,04304
1061,30; 1887,483;  265,175; 2115,562;87,67399
1061,84; 1811,021;  243,406; 2048,869;86,82620
1062,38; 1777,406;  216,175; 2001,023;87,47135
1062,92; 1832,252;  278,944; 2050,946;87,65835
1063,46; 1744,867;  246,713; 1974,946;86,68704
1064,01; 1699,252;  236,713; 1952,562;85,23706
1064,55; 1695,021;  257,867; 1931,638;85,86322
1065,09; 1626,021;  214,713; 1849,177;86,34685
1065,63; 1679,021;  268,790; 1901,946;86,35005
1066,17; 1679,021;  270,867; 1877,946;87,62195
1066,71; 1628,713;  266,098; 1856,254;85,69069
1067,25; 1574,406;  232,944; 1800,638;85,56908
1067,80; 1573,483;  258,252; 1796,792;85,48562
1068,34; 1560,483;  282,713; 1790,023;84,77152
1068,88; 1492,098;  229,329; 1720,023;84,71014
1069,42; 1519,637;  270,098; 1755,485;84,12211
1069,96; 1495,021;  251,252; 1713,023;85,08645
1070,50; 1515,406;  284,175; 1715,869;85,99817
1071,04; 1454,560;  229,406; 1649,408;86,27832
1071,58; 1429,098;  240,790; 1638,408;85,02382
1072,12; 1425,098;  250,790; 1630,562;85,10887
1072,66; 1422,406;  249,944; 1619,177;85,62909
1073,21; 1396,483;  266,790; 1612,562;83,94386
1073,75; 1381,098;  246,637; 1570,562;85,68926
1074,29; 1355,406;  243,713; 1540,869;85,70230
1074,83; 1363,252;  266,944; 1545,408;85,75198
1075,37; 1358,021;  270,483; 1536,100;85,92949
1075,91; 1338,637;  250,021; 1510,485;86,36628
1076,45; 1304,329;  260,867; 1497,331;84,39081
1076,99; 1318,713;  267,637; 1480,254;86,67837
1077,53; 1265,329;  252,483; 1423,100;86,52240
1078,07; 1262,021;  259,867; 1431,408;85,54155
1078,61; 1246,406;  250,867; 1394,023;87,08686
1079,15; 1245,713;  249,175; 1370,408;88,87883
1079,69; 1214,483;  247,944; 1388,254;84,76106
1080,23; 1238,406;  272,713; 1404,408;85,33156
1080,77; 1244,944;  318,483; 1428,946;83,43017
1081,31; 1180,175;  251,021; 1340,100;85,31557
1081,85; 1179,483;  257,560; 1348,100;84,53819
1082,39; 1144,713;  244,483; 1302,792;85,06308
1082,93; 1162,329;  267,406; 1341,485;83,32005
1083,47; 1121,944;  235,790; 1259,715;86,54480
1084,01; 1122,944;  260,560; 1298,254;83,10585
1084,55; 1092,021;  240,944; 1239,485;85,23210
1085,09; 1100,175;  255,944; 1271,254;83,15008
1085,63; 1077,713;  244,406; 1236,177;84,02217
1086,17; 1059,021;  244,021; 1198,177;85,41582
1086,71; 1032,329;  227,637; 1204,100;82,40885
1087,24; 1050,944;  272,867; 1220,485;82,10877
1087,78; 1062,021;  274,252; 1210,562;84,13555
1088,32;  975,867;  230,944; 1146,562;81,35747
1088,86; 1015,329;  262,021; 1171,254;82,85092
1089,40;  997,021;  252,867; 1140,485;83,83724
1089,94;  952,329;  227,713; 1116,562;81,52297
1090,48;  972,329;  259,790; 1110,254;83,78237
1091,02;  979,483;  262,175; 1139,023;81,80524
1091,56;  956,637;  239,560; 1093,331;83,98936
1092,10;  923,406;  228,406; 1055,331;84,04632
1092,63;  957,098;  272,637; 1117,331;81,03069
1093,17;  930,790;  262,098; 1074,331;82,32768
1093,71;  886,175;  243,713; 1032,177;81,48273
1094,25;  918,867;  264,252; 1068,946;81,34958
1094,79;  884,329;  244,483; 1016,485;82,88142
1095,33;  878,483;  256,483; 1020,100;81,45441
1095,87;  890,560;  258,329; 1002,254;84,98582
1096,40;  852,175;  227,329;  955,408;85,82122
1096,94;  861,790;  257,329;  993,254;82,13630
1097,48;  860,483;  267,637;  981,023;83,10308
1098,02;  837,790;  239,944;  954,254;83,69566
1098,56;  798,329;  223,637;  921,638;82,33391
1099,10;  798,175;  227,483;  907,254;83,95359
1099,63;  793,175;  236,483;  903,177;83,50039
1100,17;  800,944;  254,944;  926,023;81,36153
1100,71;  838,713;  282,790;  936,485;85,04329

