
Integration time [ms]: 140,000
Averaging Nr. [scans]: 13
Smoothing Nr. [pixels]: 0
Data measured with spectrometer [name]: 2009305U1
Wave   ;Sample   ;Dark     ;Reference;Reflectance
[nm]   ;[counts] ;[counts] ;[counts] ;[%]

 175,72;  223,902;  211,117;  215,673;280,63553
 176,32;  241,331;  252,041;  241,025; 0,00000
 176,92;  278,755;  291,656;  266,109; 0,00000
 177,52;  273,591;  273,732;  267,675; 0,00000
 178,12;  250,088;  258,425;  238,311; 0,00000
 178,72;  281,454;  288,810;  258,525; 0,00000
 179,32;  271,626;  270,810;  258,748; 0,00000
 179,92;  272,595;  275,579;  262,806; 0,00000
 180,52;  255,925;  257,347;  261,455;-34,60553
 181,12;  283,160;  270,502;  266,130; 0,00000
 181,73;  300,713;  299,271;  277,919; 0,00000
 182,33;  406,507;  414,655;  397,957; 0,00000
 182,93;  290,693;  297,963;  286,949; 0,00000
 183,53;  257,746;  259,734;  247,813; 0,00000
 184,13;  259,185;  261,503;  237,845; 0,00000
 184,73;  302,667;  313,426;  296,892; 0,00000
 185,33;  288,755;  256,201;  361,143;31,02108
 185,93;  282,484;  265,279;  381,547;14,79829
 186,53;  310,902;  269,125;  410,327;29,58710
 187,13;  339,072;  288,431;  420,213;38,42732
 187,73;  288,704;  261,433;  382,447;22,53607
 188,33;  292,850;  248,971;  381,863;33,01858
 188,93;  312,338;  275,357;  387,891;32,86159
 189,53;  307,639;  267,128;  380,542;35,71943
 190,13;  353,363;  306,437;  423,007;40,25622
 190,73;  288,680;  242,897;  387,302;31,70429
 191,34;  317,202;  282,358;  406,760;28,00952
 191,94;  291,726;  260,203;  387,164;24,82939
 192,54;  296,647;  263,662;  415,221;21,76394
 193,14;  322,262;  284,047;  415,304;29,11504
 193,74;  316,144;  288,970;  398,242;24,86848
 194,34;  311,676;  277,662;  415,805;24,62226
 194,94;  274,672;  241,662;  367,347;26,26425
 195,54;  241,807;  213,278;  345,997;21,49589
 196,14;  277,141;  250,047;  381,829;20,56004
 196,74;  265,163;  250,124;  371,341;12,40607
 197,34;  246,817;  219,738;  367,061;18,38058
 197,94;  277,764;  246,355;  398,110;20,69760
 198,54;  292,667;  260,124;  414,320;21,10492
 199,14;  268,245;  233,738;  389,582;22,14212
 199,74;  255,451;  212,584;  394,616;23,54886
 200,34;  254,119;  213,277;  412,777;20,47254
 200,94;  289,610;  252,892;  440,849;19,53497
 201,54;  265,922;  230,738;  443,845;16,51004
 202,14;  313,418;  280,122;  509,855;14,49331
 202,74;  274,771;  236,123;  483,408;15,62884
 203,34;  247,386;  206,045;  505,069;13,82539
 203,94;  228,907;  189,199;  503,718;12,62490
 204,54;  299,676;  251,970;  595,985;13,86737
 205,14;  260,386;  226,969;  614,536; 8,62237
 205,74;  317,052;  262,276;  713,847;12,13021
 206,34;  263,969;  218,892;  712,928; 9,12434
 206,94;  284,249;  232,738;  764,426; 9,68824
 207,54;  268,135;  198,584;  808,104;11,41081
 208,14;  281,560;  210,661;  894,372;10,36977
 208,74;  296,475;  226,123;  969,173; 9,46807
 209,34;  284,195;  220,507; 1054,701; 7,63464
 209,94;  319,233;  234,584; 1142,048; 9,32805
 210,54;  316,293;  222,584; 1275,922; 8,89642
 211,14;  318,976;  224,892; 1378,519; 8,15549
 211,73;  327,472;  225,046; 1485,662; 8,12510
 212,33;  345,404;  245,662; 1585,815; 7,44263
 212,93;  356,449;  225,431; 1695,643; 8,91154
 213,53;  332,450;  196,354; 1731,515; 8,86529
 214,13;  390,173;  228,506; 1852,881; 9,95257
 214,73;  346,265;  204,584; 1865,086; 8,53239
 215,33;  335,925;  187,892; 1889,894; 8,69759
 215,93;  383,924;  223,045; 2025,839; 8,92383
 216,53;  359,564;  192,046; 2077,759; 8,88353
 217,13;  431,717;  237,199; 2288,601; 9,48217
 217,73;  432,719;  215,814; 2523,291; 9,40007
 218,33;  419,739;  163,814; 2679,717;10,17230
 218,93;  478,293;  209,659; 3016,014; 9,57233
 219,53;  531,099;  197,506; 3295,597;10,76767
 220,13;  515,692;  169,737; 3615,373;10,04037
 220,73;  600,951;  209,046; 3981,424;10,38882
 221,32;  637,475;  210,046; 4393,481;10,21719
 221,92;  708,986;  205,045; 4824,839;10,90830
 222,52;  721,938;  186,968; 5274,577;10,51514
 223,12;  791,400;  208,968; 5727,756;10,55362
 223,72;  845,221;  208,276; 6131,713;10,75296
 224,32;  899,863;  207,122; 6567,755;10,89107
 224,92;  936,452;  195,660; 6890,969;11,06434
 225,52;  979,301;  233,199; 7257,152;10,62224
 226,12; 1017,806;  207,892; 7552,443;11,02742
 226,72; 1029,536;  167,430; 7885,662;11,16973
 227,31; 1088,971;  177,892; 8271,414;11,25690
 227,91; 1178,799;  218,969; 8671,474;11,35557
 228,51; 1211,637;  191,200; 9080,788;11,47901
 229,11; 1268,394;  203,584; 9437,453;11,53157
 229,71; 1305,526;  196,354; 9761,515;11,59596
 230,31; 1356,892;  188,968;10198,283;11,66837
 230,91; 1384,183;  177,662;10495,044;11,69407
 231,51; 1454,770;  186,353;10729,351;12,03090
 232,10; 1529,227;  189,660;11125,042;12,24984
 232,70; 1562,138;  200,585;11327,421;12,23665
 233,30; 1636,923;  234,199;11566,044;12,37860
 233,90; 1638,820;  197,815;11672,874;12,55772
 234,50; 1684,373;  187,584;11762,227;12,93162
 235,10; 1706,760;  184,507;11763,892;13,14624
 235,70; 1788,504;  223,277;11795,777;13,52540
 236,29; 1749,975;  201,507;11790,212;13,36187
 236,89; 1758,377;  186,892;11668,517;13,68695
 237,49; 1818,562;  198,892;11531,473;14,29216
 238,09; 1766,200;  194,815;11258,005;14,20373
 238,69; 1829,500;  235,200;10981,786;14,83541
 239,29; 1768,250;  206,123;10668,835;14,93042
 239,89; 1761,864;  202,662;10293,457;15,45173
 240,48; 1732,251;  189,584; 9905,604;15,87756
 241,08; 1714,685;  205,815; 9504,563;16,22659
 241,68; 1700,547;  216,199; 9188,966;16,54281
 242,28; 1664,396;  182,738; 8793,143;17,20777
 242,88; 1701,302;  247,199; 8481,530;17,65903
 243,48; 1690,665;  236,507; 8141,747;18,39486
 244,07; 1654,620;  206,815; 7914,995;18,78270
 244,67; 1669,125;  215,199; 7750,440;19,29501
 245,27; 1640,626;  217,277; 7569,124;19,36043
 245,87; 1694,352;  219,814; 7508,591;20,23025
 246,47; 1696,114;  201,354; 7502,141;20,47396
 247,06; 1719,006;  194,276; 7436,481;21,05340
 247,66; 1756,227;  194,353; 7536,970;21,27135
 248,26; 1838,435;  222,431; 7659,802;21,72817
 248,86; 1908,601;  219,584; 7773,824;22,35853
 249,46; 1941,411;  165,738; 8056,240;22,50393
 250,05; 2090,148;  216,661; 8430,382;22,80924
 250,65; 2160,215;  186,354; 8749,185;23,05150
 251,25; 2322,749;  199,430; 9257,926;23,44007
 251,85; 2439,672;  203,662; 9838,778;23,20688
 252,44; 2608,603;  173,507;10487,925;23,60866
 253,04; 2834,798;  202,892;11180,039;23,97623
 253,64; 2968,636;  160,200;11919,352;23,88298
 254,24; 3301,635;  223,507;12914,502;24,25443
 254,84; 3482,872;  193,968;13814,933;24,14590
 255,43; 3743,104;  191,892;14851,732;24,22408
 256,03; 4021,714;  187,200;15905,993;24,39446
 256,63; 4297,197;  195,662;17012,116;24,39001
 257,23; 4531,390;  183,585;17967,154;24,44844
 257,82; 4768,601;  209,662;18985,983;24,28026
 258,42; 4941,405;  165,970;19935,819;24,15514
 259,02; 5286,964;  227,738;20864,266;24,51588
 259,62; 5446,557;  184,124;21654,872;24,50978
 260,21; 5577,539;  201,892;22196,203;24,44108
 260,81; 5749,549;  194,815;22801,606;24,57109
 261,41; 5819,754;  185,816;23313,600;24,36004
 262,01; 5965,644;  221,432;23821,639;24,33967
 262,60; 6012,082;  181,354;24241,692;24,23378
 263,20; 6084,562;  194,508;24635,120;24,09945
 263,80; 6110,580;  210,432;24852,328;23,94356
 264,40; 6113,517;  177,970;25095,732;23,82055
 264,99; 6125,810;  207,278;25238,610;23,64449
 265,59; 6127,646;  190,971;25477,207;23,47789
 266,19; 6154,631;  184,201;25585,669;23,50427
 266,78; 6181,100;  231,586;25736,284;23,32713
 267,38; 6085,571;  211,971;25781,847;22,97078
 267,98; 6067,203;  202,278;25840,891;22,87536
 268,58; 6006,776;  206,740;25858,599;22,61059
 269,17; 5987,397;  189,971;25860,805;22,58371
 269,77; 5893,067;  210,431;25655,750;22,33273
 270,37; 5798,899;  165,663;25618,299;22,13223
 270,96; 5734,358;  228,893;25438,167;21,83905
 271,56; 5607,941;  196,123;25228,560;21,61922
 272,16; 5498,381;  197,201;25020,391;21,35576
 272,75; 5442,959;  194,277;25016,044;21,14548
 273,35; 5394,756;  218,662;24855,008;21,00999
 273,95; 5329,857;  208,893;24737,232;20,87774
 274,54; 5238,314;  186,738;24928,455;20,41724
 275,14; 5331,231;  228,431;25139,722;20,48388
 275,74; 5226,497;  171,124;25213,532;20,18725
 276,33; 5311,413;  235,739;25691,686;19,93905
 276,93; 5323,778;  203,892;26054,556;19,80563
 277,53; 5394,180;  193,354;26511,015;19,76174
 278,12; 5429,225;  172,277;27017,644;19,58233
 278,72; 5610,243;  258,661;27762,943;19,45727
 279,32; 5647,999;  190,815;28294,102;19,41831
 279,91; 5791,689;  177,508;28957,693;19,50711
 280,51; 5879,963;  189,277;29510,574;19,40803
 281,11; 6022,433;  207,431;30262,599;19,34776
 281,70; 6121,380;  178,200;30711,540;19,46456
 282,30; 6235,479;  188,277;31444,406;19,34725
 282,90; 6337,825;  188,585;31805,496;19,44921
 283,49; 6481,346;  212,739;32334,427;19,51519
 284,09; 6652,405;  236,123;32725,455;19,74889
 284,69; 6731,139;  227,969;33260,773;19,68701
 285,28; 6844,277;  214,892;33621,729;19,84439
 285,88; 6979,266;  267,816;33732,635;20,05524
 286,47; 7025,312;  202,046;33898,539;20,24919
 287,07; 7156,024;  231,046;33912,914;20,55996
 287,67; 7264,049;  215,507;34022,901;20,84911
 288,26; 7331,639;  197,123;34016,478;21,09596
 288,86; 7475,751;  190,046;34056,750;21,51289
 289,46; 7672,484;  214,815;34230,300;21,92434
 290,05; 7834,697;  189,430;34225,200;22,46245
 290,65; 8046,721;  193,431;34400,326;22,95821
 291,24; 8230,974;  202,661;34523,264;23,39211
 291,84; 8463,659;  214,892;34720,346;23,90569
 292,44; 8610,717;  211,891;34843,036;24,25223
 293,03; 8932,038;  293,508;34928,448;24,94166
 293,63; 9017,338;  205,354;35113,556;25,24330
 294,22; 9214,599;  229,661;35285,108;25,63065
 294,82; 9353,531;  200,047;35265,138;26,10426
 295,41; 9285,688;  181,431;34979,002;26,16348
 296,01; 9456,367;  240,047;34862,268;26,61967
 296,61; 9481,140;  231,431;34641,414;26,88089
 297,20; 9384,458;  216,739;34275,725;26,91718
 297,80; 9397,071;  218,738;34039,254;27,13836
 298,39; 9367,210;  184,585;33651,009;27,43832
 298,99; 9368,845;  233,970;33553,030;27,41636
 299,58; 9315,689;  209,892;33451,560;27,39272
 300,18; 9233,736;  221,661;33178,930;27,34473
 300,78; 9180,284;  198,892;32763,057;27,58060
 301,37; 9179,821;  222,278;32759,607;27,53005
 301,97; 9178,074;  222,815;32712,436;27,56344
 302,56; 9077,247;  207,739;32605,176;27,37719
 303,16; 9068,078;  187,200;32422,182;27,55044
 303,75; 9042,939;  197,661;32489,889;27,39135
 304,35; 9106,336;  183,814;32689,675;27,44896
 304,94; 9125,087;  200,200;32786,534;27,38844
 305,54; 9146,398;  219,661;32726,019;27,46151
 306,13; 9012,067;  186,814;32615,867;27,21403
 306,73; 8950,140;  181,199;32401,511;27,21557
 307,33; 8981,074;  201,892;32387,508;27,27673
 307,92; 8997,218;  226,046;32372,003;27,28546
 308,52; 9101,731;  177,277;32855,760;27,30988
 309,11; 9212,264;  193,278;33394,380;27,16472
 309,71; 9300,119;  183,201;33672,532;27,22335
 310,30; 9333,332;  190,046;33821,965;27,18634
 310,90; 9545,794;  238,969;34177,350;27,42271
 311,49; 9505,267;  208,046;34320,218;27,25485
 312,09; 9583,916;  172,584;34482,793;27,43012
 312,68; 9759,065;  274,815;34917,591;27,37728
 313,28; 9716,064;  172,277;35101,003;27,32360
 313,87; 9827,229;  160,892;35171,589;27,60967
 314,47; 9863,240;  198,816;35477,156;27,39478
 315,06; 9940,205;  186,046;35522,007;27,60406
 315,66;10000,223;  186,507;35733,947;27,60738
 316,25; 9983,143;  176,431;35683,007;27,61943
 316,85;10035,826;  170,969;35742,567;27,73240
 317,44;10110,854;  188,662;35869,926;27,80785
 318,04;10131,543;  183,277;35916,590;27,84031
 318,63;10141,153;  168,892;35908,327;27,90268
 319,22;10234,887;  195,123;36093,245;27,96738
 319,82;10249,584;  191,123;35976,755;28,10754
 320,41;10250,542;  215,277;35992,053;28,04966
 321,01;10369,799;  210,738;36146,166;28,27032
 321,60;10390,905;  202,508;36070,930;28,40492
 322,20;10357,615;  187,815;36028,101;28,37533
 322,79;10460,449;  216,507;36180,362;28,48399
 323,39;10500,360;  192,430;36242,924;28,59304
 323,98;10434,706;  169,354;36090,019;28,57785
 324,58;10526,821;  182,200;36020,884;28,86440
 325,17;10522,015;  192,200;35870,151;28,95294
 325,76;10560,536;  211,354;35657,923;29,19657
 326,36;10489,991;  186,200;35334,794;29,31495
 326,95;10453,021;  221,662;35040,737;29,38435
 327,55;10427,583;  185,662;34519,396;29,83049
 328,14;10336,623;  188,199;34236,326;29,80611
 328,74;10319,657;  219,431;33788,296;30,08808
 329,33;10247,299;  202,969;33387,282;30,26831
 329,92;10157,431;  183,662;32810,785;30,56895
 330,52;10029,906;  203,353;32188,411;30,72232
 331,11; 9931,918;  196,046;31720,361;30,88369
 331,71; 9799,535;  186,969;31220,770;30,97450
 332,30; 9767,010;  213,969;30698,073;31,33778
 332,89; 9700,695;  266,584;30113,996;31,60780
 333,49; 9545,726;  211,123;29589,246;31,77399
 334,08; 9460,186;  194,969;29096,811;32,05753
 334,68; 9402,609;  203,815;28649,029;32,33864
 335,27; 9342,907;  206,353;28405,999;32,39953
 335,86; 9366,072;  268,815;28031,208;32,76827
 336,46; 9284,767;  210,199;27752,328;32,94795
 337,05; 9287,200;  188,123;27515,575;33,29647
 337,65; 9328,314;  190,123;27432,691;33,54380
 338,24; 9427,129;  238,046;27393,801;33,83844
 338,83; 9489,283;  226,123;27260,698;34,26412
 339,43; 9512,310;  186,123;27263,797;34,44235
 340,02; 9582,873;  196,816;27114,892;34,86898
 340,61; 9686,192;  205,507;27199,191;35,12186
 341,21; 9759,195;  226,585;27164,989;35,38669
 341,80; 9856,545;  199,277;27122,563;35,86957
 342,40; 9944,906;  206,199;27247,077;36,01476
 342,99;10111,849;  200,353;27356,765;36,49781
 343,58;10226,299;  201,430;27478,513;36,75198
 344,18;10427,235;  218,738;27601,431;37,28084
 344,77;10621,604;  192,970;27959,751;37,55795
 345,36;10834,867;  182,431;28209,737;38,00735
 345,96;11086,786;  231,277;28494,299;38,40888
 346,55;11246,143;  189,045;28716,329;38,75973
 347,14;11467,637;  189,738;29085,295;39,02987
 347,74;11789,113;  183,352;29550,925;39,51896
 348,33;12118,458;  192,583;30209,862;39,73003
 348,92;12515,490;  220,275;30725,797;40,30488
 349,52;12813,256;  179,891;31257,287;40,65130
 350,11;13095,359;  198,047;31541,063;41,14892
 350,70;13241,769;  194,200;31685,435;41,43238
 351,29;13292,074;  181,047;31461,114;41,91496
 351,89;13367,789;  224,585;31392,717;42,16872
 352,48;13538,423;  173,815;31412,140;42,78273
 353,07;13621,523;  208,276;31342,589;43,08188
 353,67;13650,055;  215,660;31275,378;43,25344
 354,26;13706,650;  209,353;31048,188;43,76721
 354,85;13758,403;  208,430;31019,938;43,97699
 355,45;13787,428;  173,739;30726,474;44,55801
 356,04;13842,614;  205,584;30690,353;44,73391
 356,63;13934,957;  237,354;30434,989;45,35985
 357,22;13912,937;  210,663;30226,312;45,65044
 357,82;13979,223;  213,355;30104,087;46,05397
 358,41;14084,664;  234,508;29983,240;46,55713
 359,00;14059,092;  187,893;29761,074;46,90466
 359,60;14196,347;  205,738;29763,524;47,33307
 360,19;14230,448;  230,507;29572,844;47,71243
 360,78;14235,442;  202,969;29434,366;48,00480
 361,37;14198,956;  192,123;29202,554;48,28206
 361,97;14250,740;  205,892;29156,830;48,51258
 362,56;14181,295;  200,662;28846,136;48,80573
 363,15;14226,865;  277,431;28535,867;49,36379
 363,74;14152,689;  214,816;28197,699;49,80857
 364,34;14034,413;  221,123;27826,455;50,03848
 364,93;13923,486;  199,277;27426,893;50,40547
 365,52;13796,841;  184,508;27035,361;50,69609
 366,11;13804,028;  203,508;26767,506;51,19907
 366,71;13644,195;  198,431;26287,784;51,53736
 367,30;13516,687;  206,892;25978,720;51,64475
 367,89;13484,954;  247,046;25806,704;51,79220
 368,48;13374,331;  227,431;25384,459;52,25935
 369,07;13241,692;  207,584;24999,127;52,57481
 369,67;13144,640;  228,431;24635,535;52,91987
 370,26;13075,487;  199,969;24350,656;53,31326
 370,85;12997,674;  204,046;24181,776;53,35629
 371,44;13001,663;  221,585;23928,164;53,90942
 372,03;12835,195;  181,970;23678,733;53,85093
 372,63;12714,470;  177,431;23427,203;53,92328
 373,22;12686,704;  184,431;23100,841;54,55598
 373,81;12528,507;  187,815;22741,652;54,71660
 374,40;12448,097;  206,046;22536,065;54,82329
 374,99;12374,262;  201,046;22255,171;55,19700
 375,59;12238,545;  169,969;21927,532;55,46842
 376,18;12269,378;  222,508;21828,824;55,75624
 376,77;12168,125;  217,661;21650,650;55,75734
 377,36;12197,251;  243,815;21528,174;56,16066
 377,95;12082,991;  219,354;21280,852;56,32855
 378,55;11924,568;  194,584;21060,243;56,21670
 379,14;11951,007;  231,739;21020,434;56,37327
 379,73;11914,247;  217,739;20886,074;56,59144
 380,32;12005,676;  223,277;20967,569;56,79827
 380,91;11905,165;  200,739;20786,052;56,85814
 381,50;11958,270;  211,123;20788,016;57,08902
 382,10;11919,599;  202,661;20650,569;57,30140
 382,69;11912,815;  186,123;20617,678;57,39500
 383,28;11935,117;  233,123;20536,939;57,63446
 383,87;11866,091;  200,739;20358,768;57,86951
 384,46;11866,723;  198,201;20349,510;57,90454
 385,05;11917,103;  221,508;20343,508;58,12342
 385,64;11898,490;  211,200;20334,968;58,07705
 386,24;11859,005;  187,124;20228,134;58,23998
 386,83;11932,144;  230,586;20334,857;58,20434
 387,42;12008,439;  232,431;20459,728;58,21840
 388,01;12099,752;  216,740;20576,120;58,36628
 388,60;12333,353;  204,893;20827,863;58,81044
 389,19;12430,113;  200,279;21101,875;58,51148
 389,78;12578,808;  202,586;21319,797;58,60728
 390,37;12863,885;  274,740;21778,099;58,54502
 390,96;12986,222;  219,585;21931,882;58,79911
 391,56;13095,840;  213,356;22109,404;58,83475
 392,15;13237,092;  200,355;22334,496;58,89877
 392,74;13319,621;  178,818;22547,688;58,74594
 393,33;13570,877;  222,048;22808,033;59,10227
 393,92;13745,909;  218,203;23277,774;58,66417
 394,51;13877,249;  202,894;23463,397;58,78787
 395,10;14037,235;  243,358;23664,751;58,89435
 395,69;14102,366;  226,896;23849,834;58,73727
 396,28;14123,714;  225,820;23985,185;58,49438
 396,87;14198,836;  230,975;24001,921;58,76022
 397,46;14297,452;  249,898;24097,362;58,90586
 398,06;14482,321;  263,130;24304,566;59,14452
 398,65;14425,054;  228,132;24408,209;58,71330
 399,24;14535,393;  262,286;24575,099;58,70611
 399,83;14500,903;  226,596;24616,465;58,52556
 400,42;14590,238;  273,676;24717,963;58,56813
 401,01;14708,862;  240,371;24823,113;58,85629
 401,60;14757,517;  251,836;24869,234;58,92451
 402,19;14597,136;  283,993;24838,259;58,29188
 402,78;14609,812;  275,229;24874,996;58,27121
 403,37;14476,531;  260,926;24657,434;58,26901
 403,96;14396,312;  257,315;24584,423;58,12034
 404,55;14338,299;  273,860;24486,578;58,08699
 405,14;14238,707;  245,942;24325,384;58,11084
 405,73;14139,520;  267,410;24215,857;57,92489
 406,32;14067,989;  265,798;24158,146;57,76825
 406,91;13922,240;  256,034;23903,949;57,79032
 407,50;13858,934;  261,960;23743,123;57,90588
 408,09;13671,733;  236,423;23438,307;57,90612
 408,68;13557,478;  256,116;23348,146;57,60152
 409,27;13413,445;  224,653;23096,682;57,66341
 409,86;13323,840;  247,342;22907,263;57,70761
 410,45;13266,172;  286,877;22908,280;57,37617
 411,04;13116,172;  277,335;22826,099;56,93810
 411,63;12962,089;  261,331;22601,988;56,85042
 412,22;12844,088;  263,174;22399,880;56,83282
 412,81;12628,768;  281,634;22137,078;56,49455
 413,40;12387,136;  281,555;21770,582;56,33378
 413,99;12260,330;  332,094;21514,368;56,31235
 414,58;11950,529;  252,478;21002,093;56,37720
 415,17;11825,204;  261,711;20794,881;56,31616
 415,76;11682,034;  249,789;20690,617;55,92848
 416,35;11556,587;  240,788;20435,067;56,03468
 416,94;11501,322;  266,712;20468,723;55,61135
 417,53;11584,860;  251,711;20661,892;55,52694
 418,12;11629,752;  242,710;20730,002;55,58100
 418,71;11835,778;  279,786;21138,316;55,40175
 419,30;11841,562;  256,864;21254,449;55,17157
 419,89;11855,761;  241,017;21375,380;54,95667
 420,48;12071,611;  275,324;21641,859;55,20917
 421,07;11965,925;  274,016;21753,803;54,43214
 421,66;11995,800;  225,477;21830,402;54,47981
 422,25;11993,765;  245,322;21813,606;54,47092
 422,84;12023,387;  273,398;21774,986;54,64707
 423,43;11775,976;  246,476;21522,667;54,18968
 424,02;11676,598;  281,629;21273,919;54,28168
 424,60;11390,736;  244,012;20895,165;53,97628
 425,19;11210,371;  260,321;20576,013;53,89947
 425,78;11110,117;  270,321;20533,943;53,49387
 426,37;11044,604;  275,012;20311,570;53,74971
 426,96;10947,425;  262,935;20209,604;53,56529
 427,55;10817,727;  255,165;20098,007;53,23110
 428,14;10606,929;  245,395;19836,295;52,88952
 428,73;10528,950;  258,473;19605,346;53,08598
 429,32;10516,461;  272,320;19611,131;52,97193
 429,91;10527,054;  289,935;19588,850;53,04505
 430,50;10394,000;  273,934;19440,017;52,80195
 431,08;10287,921;  274,703;19350,167;52,49265
 431,67;10174,033;  322,472;19182,511;52,23511
 432,26;10130,183;  330,240;19155,739;52,05675
 432,85; 9907,411;  359,856;18684,997;52,10085
 433,44; 9694,745;  361,086;18412,188;51,70687
 434,03; 9463,828;  377,624;18036,127;51,45512
 434,62; 9217,477;  334,624;17571,200;51,53490
 435,21; 9090,874;  364,625;17407,817;51,20079
 435,79; 8985,770;  344,009;17202,200;51,26150
 436,38; 8893,378;  331,008;17105,118;51,04515
 436,97; 8790,778;  327,546;17034,240;50,65773
 437,56; 8665,472;  330,929;16753,433;50,75074
 438,15; 8562,542;  301,699;16653,567;50,51926
 438,74; 8566,903;  321,468;16701,368;50,33874
 439,33; 8528,528;  295,776;16706,956;50,16551
 439,91; 8487,579;  268,160;16797,114;49,72740
 440,50; 8485,426;  306,390;16821,882;49,52342
 441,09; 8611,595;  301,620;16962,768;49,87637
 441,68; 8514,034;  282,312;16895,307;49,54990
 442,27; 8501,399;  274,697;16926,060;49,40558
 442,86; 8424,844;  247,311;16917,102;49,05600
 443,44; 8436,786;  270,080;16958,484;48,93641
 444,03; 8476,896;  344,849;17011,572;48,79212
 444,62; 8359,037;  265,310;16877,679;48,72109
 445,21; 8281,879;  272,311;16743,861;48,62668
 445,80; 8247,757;  326,694;16620,048;48,61530
 446,39; 8117,459;  352,771;16340,226;48,56738
 446,97; 7898,403;  262,617;16108,364;48,18824
 447,56; 7778,803;  270,308;15926,377;47,95901
 448,15; 7663,646;  273,693;15814,667;47,55141
 448,74; 7543,328;  288,386;15502,029;47,68708
 449,33; 7465,646;  267,000;15334,790;47,77506
 449,91; 7301,242;  270,000;15119,481;47,35009
 450,50; 7175,854;  266,923;15001,407;46,88953
 451,09; 7097,189;  287,153;14839,679;46,79625
 451,68; 7031,363;  302,999;14679,951;46,79966
 452,26; 6963,564;  304,076;14621,445;46,51335
 452,85; 6843,649;  283,999;14589,803;45,85306
 453,44; 6855,673;  285,998;14524,425;46,14046
 454,03; 6788,313;  263,999;14532,629;45,72488
 454,61; 6753,688;  269,536;14408,138;45,86134
 455,20; 6860,991;  286,613;14606,802;45,90985
 455,79; 6794,643;  288,460;14599,771;45,46182
 456,38; 6756,555;  312,535;14697,326;44,79745
 456,97; 6817,103;  285,535;14764,556;45,11056
 457,55; 6791,818;  273,996;14841,339;44,74270
 458,14; 6781,651;  298,074;14834,503;44,60227
 458,73; 6622,217;  294,304;14726,820;43,84484
 459,31; 6701,925;  314,996;14761,347;44,21136
 459,90; 6732,865;  332,611;14809,037;44,21156
 460,49; 6765,848;  382,842;14942,507;43,84033
 461,08; 6704,842;  285,687;14982,141;43,67826
 461,66; 6703,642;  288,996;15006,878;43,58403
 462,25; 6726,093;  293,918;15146,311;43,30733
 462,84; 6735,934;  309,072;15159,238;43,27805
 463,43; 6673,789;  259,302;15173,534;43,00917
 464,01; 6639,052;  293,686;15166,802;42,66333
 464,60; 6623,886;  339,148;15137,837;42,46820
 465,19; 6462,941;  261,147;14904,298;42,35287
 465,77; 6445,142;  283,147;14883,177;42,20536
 466,36; 6405,725;  313,609;14725,196;42,27234
 466,95; 6240,086;  287,763;14453,511;42,01912
 467,53; 6082,613;  295,992;14207,375;41,59630
 468,12; 5965,038;  314,300;13891,232;41,62014
 468,71; 5824,213;  283,993;13630,874;41,50947
 469,29; 5667,425;  267,915;13356,641;41,25313
 469,88; 5495,431;  275,530;13135,149;40,59141
 470,47; 5601,150;  357,222;13265,570;40,62432
 471,06; 5503,907;  291,530;13220,317;40,31606
 471,64; 5532,006;  290,145;13284,517;40,33947
 472,23; 5482,098;  265,452;13267,731;40,12101
 472,81; 5518,956;  264,529;13414,963;39,95630
 473,40; 5524,124;  277,759;13581,645;39,43483
 473,99; 5656,457;  386,221;13753,277;39,42705
 474,57; 5598,290;  283,144;13879,513;39,09239
 475,16; 5629,036;  293,837;14023,474;38,85900
 475,75; 5708,852;  309,989;14136,680;39,04667
 476,33; 5678,760;  314,143;14221,809;38,57310
 476,92; 5692,357;  314,221;14265,335;38,54987
 477,51; 5698,063;  295,451;14364,120;38,40173
 478,09; 5714,884;  313,374;14420,616;38,28892
 478,68; 5611,234;  311,758;14328,112;37,80923
 479,27; 5631,288;  329,836;14399,919;37,67890
 479,85; 5580,721;  300,604;14334,797;37,62323
 480,44; 5568,880;  277,296;14525,536;37,13851
 481,02; 5924,274;  300,373;15641,632;36,65867
 481,61; 6718,411;  327,450;17838,460;36,49682
 482,20; 7151,723;  309,604;19086,866;36,43832
 482,78; 7470,878;  333,220;19995,974;36,30040
 483,37; 7641,623;  318,141;20514,022;36,26225
 483,95; 7782,626;  358,064;20894,302;36,15346
 484,54; 7794,089;  372,604;21020,824;35,94249
 485,13; 7750,740;  323,294;21004,797;35,91347
 485,71; 7655,236;  306,064;20789,146;35,87923
 486,30; 7520,595;  353,295;20504,103;35,56830
 486,88; 7459,201;  406,141;20102,079;35,80972
 487,47; 7152,345;  378,910;19352,517;35,69925
 488,05; 6836,440;  359,602;18537,919;35,62947
 488,64; 6334,683;  346,524;17242,064;35,44224
 489,23; 5735,456;  352,986;15413,400;35,73919
 489,81; 4884,165;  354,217;13197,316;35,27146
 490,40; 4503,680;  307,755;12419,682;34,64292
 490,98; 4422,121;  293,370;12201,969;34,67033
 491,57; 4379,278;  318,294;12017,048;34,71297
 492,15; 4288,020;  303,293;11982,283;34,11876
 492,74; 4258,249;  312,602;11912,700;34,01391
 493,32; 4236,171;  340,601;11860,619;33,81566
 493,91; 4124,064;  299,447;11670,779;33,63386
 494,50; 4137,905;  299,753;11641,362;33,84133
 495,08; 4081,801;  280,138;11616,013;33,53656
 495,67; 4098,050;  312,216;11611,836;33,50408
 496,25; 3968,535;  259,292;11469,259;33,08880
 496,84; 3935,036;  265,524;11434,149;32,85554
 497,42; 3931,809;  263,369;11368,782;33,03290
 498,01; 3918,359;  279,293;11358,501;32,84590
 498,59; 3835,746;  251,831;11226,340;32,65673
 499,18; 3814,835;  252,370;11196,086;32,55261
 499,76; 3796,677;  284,369;11118,571;32,41870
 500,35; 3676,076;  269,292;10916,098;31,99818
 500,93; 3643,744;  278,446;10882,188;31,73689
 501,52; 3585,836;  253,138;10789,798;31,62954
 502,10; 3619,572;  283,907;10811,006;31,68646
 502,69; 3538,322;  250,752;10642,086;31,63761
 503,27; 3438,585;  240,446;10388,494;31,51482
 503,86; 3388,999;  262,830;10347,452;30,99937
 504,44; 3327,928;  233,291;10188,037;31,08706
 505,03; 3237,864;  209,829;10037,699;30,81070
 505,61; 3193,490;  235,522; 9844,697;30,78275
 506,19; 3108,210;  261,060; 9739,815;30,03717
 506,78; 3036,430;  233,367; 9486,017;30,29470
 507,36; 2958,350;  236,829; 9362,102;29,82400
 507,95; 2920,872;  237,674; 9190,431;29,97063
 508,53; 2874,583;  229,521; 9055,889;29,96773
 509,12; 2801,678;  244,136; 8923,036;29,46850
 509,70; 2767,630;  266,905; 8747,999;29,48588
 510,29; 2718,663;  275,751; 8644,959;29,18928
 510,87; 2624,634;  216,290; 8452,257;29,24179
 511,46; 2578,214;  221,521; 8258,370;29,32360
 512,04; 2528,645;  226,828; 8129,275;29,12791
 512,62; 2483,804;  244,444; 7965,173;29,00452
 513,21; 2447,651;  226,828; 7825,629;29,22596
 513,79; 2363,609;  225,442; 7658,275;28,76652
 514,38; 2311,011;  206,288; 7517,323;28,78831
 514,96; 2297,292;  261,212; 7468,307;28,25105
 515,54; 2215,746;  213,673; 7323,410;28,15959
 516,13; 2218,350;  241,750; 7239,029;28,24813
 516,71; 2139,859;  231,672; 7048,137;27,99379
 517,30; 2094,842;  221,749; 6947,063;27,85138
 517,88; 2082,957;  233,518; 6878,640;27,83152
 518,46; 2001,268;  222,210; 6730,611;27,33480
 519,05; 1998,634;  226,210; 6703,333;27,36437
 519,63; 1975,079;  228,595; 6616,340;27,34118
 520,22; 1939,811;  246,209; 6593,731;26,68131
 520,80; 1892,210;  223,825; 6508,854;26,54539
 521,38; 1946,404;  280,133; 6486,640;26,84717
 521,97; 1874,729;  222,209; 6443,422;26,56267
 522,55; 1875,075;  238,747; 6389,435;26,60398
 523,13; 1860,875;  215,286; 6387,909;26,65948
 523,72; 1847,537;  217,672; 6378,496;26,45531
 524,30; 1894,920;  246,593; 6516,379;26,29000
 524,89; 1827,974;  204,132; 6523,006;25,69828
 525,47; 1879,371;  241,362; 6618,150;25,68706
 526,05; 1829,834;  198,670; 6671,354;25,20074
 526,64; 1914,890;  237,054; 6804,078;25,54941
 527,22; 1883,922;  237,362; 6914,608;24,65927
 527,80; 1932,274;  274,670; 7003,360;24,63487
 528,39; 1907,484;  219,438; 7098,852;24,53763
 528,97; 1925,340;  220,208; 7247,004;24,26614
 529,55; 1973,593;  234,132; 7432,849;24,16349
 530,14; 2040,475;  242,977; 7651,572;24,26233
 530,72; 2008,007;  217,592; 7691,269;23,95628
 531,30; 2003,950;  196,669; 7850,156;23,61383
 531,89; 2045,386;  227,515; 7970,985;23,47618
 532,47; 2092,877;  258,900; 8056,487;23,51980
 533,05; 2079,530;  242,439; 8120,403;23,31936
 533,63; 2061,840;  245,746; 8132,062;23,02843
 534,22; 2044,340;  222,438; 8165,049;22,93833
 534,80; 2082,991;  255,361; 8286,546;22,75667
 535,38; 2177,311;  342,130; 8387,112;22,81149
 535,97; 2059,800;  238,515; 8292,999;22,61207
 536,55; 2141,326;  289,591; 8392,947;22,85145
 537,13; 2092,796;  278,746; 8402,746;22,32951
 537,71; 2133,628;  327,438; 8388,624;22,40600
 538,30; 2146,767;  338,899; 8503,060;22,14395
 538,88; 2200,923;  366,822; 8579,232;22,33329
 539,46; 2272,260;  431,514; 8757,867;22,10747
 540,05; 2271,304;  435,206; 8896,209;21,70071
 540,63; 2350,471;  469,053; 9121,692;21,74387
 541,21; 2398,426;  493,898; 9215,345;21,83729
 541,79; 2431,554;  511,898; 9361,944;21,69092
 542,38; 2464,136;  567,283; 9493,009;21,25153
 542,96; 2475,806;  557,206; 9675,574;21,04105
 543,54; 2547,348;  587,668; 9843,577;21,17221
 544,12; 2542,582;  549,744; 9988,780;21,11272
 544,70; 2544,191;  531,129;10076,676;21,08902
 545,29; 2584,124;  543,745;10209,475;21,10941
 545,87; 2567,093;  516,975;10317,020;20,91947
 546,45; 2516,559;  492,668;10274,433;20,69045
 547,03; 2492,500;  473,668;10355,245;20,43026
 547,62; 2493,376;  430,745;10495,003;20,49462
 548,20; 2544,497;  428,667;10633,114;20,73439
 548,78; 2506,863;  401,436;10763,419;20,31877
 549,36; 2505,886;  371,436;10946,028;20,18471
 549,94; 2499,250;  331,052;11069,248;20,19146
 550,53; 2526,281;  343,205;11307,205;19,91131
 551,11; 2508,033;  308,974;11423,540;19,78538
 551,69; 2568,783;  326,513;11763,498;19,60544
 552,27; 2550,315;  275,436;12006,016;19,39272
 552,85; 2605,828;  279,820;12368,352;19,24144
 553,44; 2620,027;  292,974;12606,340;18,89859
 554,02; 2702,940;  296,974;12948,701;19,01690
 554,60; 2692,496;  231,897;13286,616;18,84835
 555,18; 2790,861;  272,513;13666,087;18,80266
 555,76; 2813,876;  258,820;13938,209;18,67814
 556,34; 2870,798;  275,127;14286,410;18,52558
 556,93; 2891,374;  245,974;14742,172;18,24892
 557,51; 2935,260;  232,358;15086,384;18,19643
 558,09; 2994,412;  269,743;15381,647;18,02995
 558,67; 3018,241;  256,435;15790,824;17,77866
 559,25; 3092,878;  271,819;15994,843;17,94221
 559,83; 3096,387;  246,973;16349,542;17,69540
 560,41; 3129,642;  231,743;16741,412;17,55274
 561,00; 3203,343;  251,512;17058,456;17,56317
 561,58; 3226,128;  233,589;17295,942;17,53884
 562,16; 3245,533;  233,128;17563,758;17,38197
 562,74; 3267,440;  216,666;18019,534;17,13642
 563,32; 3338,797;  214,665;18463,047;17,12005
 563,90; 3408,331;  237,358;18751,178;17,12760
 564,48; 3450,870;  237,743;19141,490;16,99730
 565,06; 3529,560;  231,896;19742,025;16,90232
 565,65; 3649,742;  251,280;20392,804;16,87291
 566,23; 3803,382;  292,588;21174,520;16,81259
 566,81; 3878,057;  236,589;21803,886;16,88421
 567,39; 4032,966;  242,973;22719,322;16,86214
 567,97; 4079,995;  261,358;23375,137;16,52104
 568,55; 4284,924;  290,742;24221,748;16,69041
 569,13; 4366,459;  236,127;24876,340;16,76257
 569,71; 4480,328;  228,051;25867,724;16,58476
 570,29; 4697,079;  275,820;26786,630;16,67719
 570,87; 4767,211;  276,897;27584,995;16,44316
 571,45; 4870,830;  256,742;28290,910;16,45880
 572,03; 4905,814;  231,588;28672,731;16,43473
 572,61; 4983,475;  221,357;29338,205;16,35520
 573,20; 5128,671;  250,204;30011,990;16,39171
 573,78; 5208,963;  226,434;30679,324;16,36143
 574,36; 5250,102;  245,358;31202,664;16,16660
 574,94; 5397,893;  314,280;31659,909;16,21793
 575,52; 5327,226;  236,203;31794,562;16,13209
 576,10; 5470,606;  287,972;32346,027;16,16640
 576,68; 5505,699;  267,896;32898,129;16,05199
 577,26; 5606,667;  306,895;33577,054;15,92951
 577,84; 5665,962;  289,204;34085,120;15,90949
 578,42; 5767,986;  332,357;34419,056;15,94648
 579,00; 5690,130;  278,204;34499,448;15,81452
 579,58; 5711,342;  326,665;34762,836;15,63669
 580,16; 5666,719;  281,357;34720,555;15,63730
 580,74; 5679,130;  290,434;34999,443;15,52535
 581,32; 5642,626;  287,357;34998,792;15,42797
 581,90; 5606,501;  306,049;34962,551;15,29425
 582,48; 5585,424;  288,357;35030,909;15,24663
 583,06; 5538,125;  291,511;35274,242;14,99773
 583,64; 5589,406;  284,742;35241,277;15,17503
 584,22; 5505,908;  288,049;35129,513;14,97601
 584,80; 5396,141;  311,742;34846,492;14,72256
 585,38; 5322,298;  313,358;34446,987;14,67450
 585,96; 5241,863;  282,973;34460,178;14,50935
 586,54; 5256,034;  297,587;34444,318;14,52100
 587,12; 5208,581;  274,434;34628,958;14,36244
 587,70; 5197,812;  308,050;34745,450;14,19899
 588,28; 5168,145;  279,895;34788,386;14,16535
 588,86; 5156,391;  289,203;34790,816;14,10713
 589,44; 5118,289;  254,202;34892,229;14,04262
 590,02; 5081,580;  268,971;35066,005;13,83051
 590,59; 5089,662;  260,433;35229,930;13,80983
 591,17; 5089,417;  277,817;35454,411;13,67841
 591,75; 5024,230;  257,740;35548,657;13,50628
 592,33; 5060,085;  280,356;35684,014;13,50066
 592,91; 5009,811;  227,894;35979,050;13,37556
 593,49; 5054,125;  246,355;36252,507;13,35264
 594,07; 5095,368;  258,509;36510,042;13,34250
 594,65; 5074,561;  273,433;36473,655;13,26270
 595,23; 5078,874;  259,587;36899,907;13,15296
 595,81; 5023,775;  252,587;36986,144;12,98864
 596,39; 5087,161;  234,971;37078,246;13,16981
 596,97; 5045,324;  242,125;37280,341;12,96823
 597,55; 5047,385;  244,049;37309,661;12,95901
 598,12; 4995,641;  221,355;37275,975;12,88446
 598,70; 4993,929;  217,817;37385,292;12,85025
 599,28; 4991,660;  246,432;37516,125;12,73214
 599,86; 5027,339;  235,509;37574,361;12,83336
 600,44; 4933,368;  198,894;37647,632;12,64255
 601,02; 4993,447;  253,508;37762,855;12,63669
 601,60; 4925,525;  234,433;37705,661;12,51918
 602,18; 4925,794;  219,970;37747,488;12,53966
 602,75; 4943,210;  216,125;37756,486;12,59201
 603,33; 4941,455;  223,509;37790,142;12,55887
 603,91; 4887,467;  210,355;37721,005;12,46876
 604,49; 4900,032;  227,971;37758,719;12,44862
 605,07; 4893,024;  243,125;37840,623;12,36758
 605,65; 4874,869;  254,663;37978,541;12,24743
 606,23; 4929,225;  287,049;38103,897;12,27542
 606,80; 4920,184;  296,741;38058,931;12,24358
 607,38; 4903,709;  317,509;38170,951;12,11567
 607,96; 4939,658;  348,279;38194,081;12,13181
 608,54; 4951,766;  398,047;38186,986;12,05040
 609,12; 4966,223;  386,279;38354,841;12,06246
 609,70; 4963,697;  402,509;38368,755;12,01380
 610,27; 4962,888;  403,587;38434,389;11,98844
 610,85; 5001,491;  438,202;38529,208;11,97997
 611,43; 4988,147;  426,432;38461,630;11,99340
 612,01; 4874,997;  391,894;38276,607;11,83354
 612,59; 4892,761;  393,663;38270,554;11,87821
 613,16; 4833,549;  372,895;38193,761;11,79416
 613,74; 4844,109;  358,124;38003,668;11,91638
 614,32; 4835,254;  351,355;38082,592;11,88378
 614,90; 4760,373;  334,586;37936,711;11,77004
 615,48; 4719,167;  296,741;37630,400;11,84568
 616,05; 4652,035;  270,587;37543,036;11,75519
 616,63; 4621,442;  290,203;37447,978;11,65635
 617,21; 4575,183;  267,818;37336,804;11,61986
 617,79; 4561,289;  271,433;37268,587;11,59510
 618,36; 4570,306;  281,048;37275,913;11,59420
 618,94; 4499,694;  231,356;36803,429;11,67103
 619,52; 4460,943;  248,972;36682,811;11,56060
 620,10; 4415,672;  226,356;36564,307;11,52876
 620,67; 4425,557;  245,818;36475,273;11,53685
 621,25; 4423,435;  266,971;36341,460;11,52189
 621,83; 4367,937;  242,587;36286,399;11,44538
 622,41; 4409,654;  285,433;36333,853;11,44078
 622,98; 4347,916;  254,434;36021,051;11,44498
 623,56; 4374,081;  264,357;35995,510;11,50180
 624,14; 4317,939;  263,125;35918,701;11,37217
 624,72; 4308,809;  240,587;35827,288;11,43186
 625,29; 4296,812;  243,434;35931,420;11,35782
 625,87; 4320,007;  278,740;35809,835;11,37389
 626,45; 4246,002;  223,895;35661,101;11,34995
 627,02; 4248,790;  248,125;35708,369;11,28211
 627,60; 4218,226;  231,509;35519,474;11,29767
 628,18; 4209,146;  212,741;35613,072;11,28918
 628,76; 4213,404;  213,203;35574,709;11,31230
 629,33; 4256,357;  254,202;35594,440;11,32464
 629,91; 4218,518;  242,741;35549,845;11,26056
 630,49; 4232,817;  258,356;35731,416;11,20417
 631,06; 4244,520;  236,357;35821,413;11,26361
 631,64; 4209,182;  243,511;35757,143;11,16662
 632,22; 4202,177;  215,972;35640,993;11,25251
 632,79; 4249,754;  235,742;35986,595;11,22774
 633,37; 4242,305;  217,663;35965,811;11,25832
 633,95; 4235,758;  237,511;36011,080;11,17654
 634,52; 4229,821;  218,202;36189,746;11,15220
 635,10; 4230,132;  232,664;36134,077;11,13457
 635,68; 4240,113;  229,280;36399,578;11,08875
 636,25; 4239,811;  214,665;36258,939;11,16723
 636,83; 4282,096;  205,049;36618,786;11,19645
 637,41; 4250,957;  223,357;36545,939;11,08842
 637,98; 4329,572;  248,280;36757,760;11,17872
 638,56; 4300,424;  223,127;36902,018;11,11619
 639,13; 4310,030;  203,280;36975,552;11,16806
 639,71; 4373,046;  283,126;37153,186;11,09280
 640,29; 4260,594;  177,510;36922,296;11,11201
 640,86; 4313,822;  201,433;37025,954;11,16753
 641,44; 4309,205;  203,664;37082,535;11,13250
 642,02; 4338,511;  239,587;37072,039;11,12857
 642,59; 4351,047;  204,126;37344,697;11,16548
 643,17; 4371,046;  206,203;37240,431;11,24593
 643,74; 4325,044;  199,510;37332,781;11,11007
 644,32; 4393,042;  233,818;37176,285;11,25865
 644,89; 4388,271;  232,356;37273,866;11,21961
 645,47; 4374,961;  245,972;37273,601;11,15110
 646,05; 4397,651;  242,895;37166,720;11,25224
 646,62; 4341,496;  214,741;37172,070;11,16627
 647,20; 4347,647;  228,433;37345,959;11,09776
 647,77; 4342,338;  201,895;37107,617;11,21897
 648,35; 4374,721;  203,125;37019,429;11,33084
 648,92; 4386,719;  213,202;37109,163;11,31158
 649,50; 4350,871;  177,895;37018,975;11,32696
 650,08; 4347,946;  182,818;37002,864;11,31212
 650,65; 4360,790;  200,971;37153,906;11,25707
 651,23; 4478,019;  173,895;37858,641;11,42140
 651,80; 4586,940;  182,971;38886,914;11,37860
 652,38; 4671,784;  201,587;39315,956;11,42853
 652,95; 4766,782;  184,510;39767,691;11,57631
 653,53; 4793,242;  208,279;39916,195;11,54672
 654,10; 4872,317;  252,818;40112,391;11,58943
 654,68; 4831,622;  192,971;40043,126;11,64023
 655,25; 4853,313;  189,279;40190,399;11,65976
 655,83; 4843,542;  187,587;40149,673;11,65093
 656,40; 4890,155;  235,125;40164,484;11,65816
 656,98; 4847,384;  197,202;40117,296;11,64872
 657,55; 4872,228;  202,587;39966,800;11,74333
 658,13; 4850,072;  205,202;39564,150;11,80131
 658,70; 4822,994;  225,356;39353,577;11,75018
 659,28; 4703,684;  204,510;38518,389;11,74294
 659,85; 4604,759;  225,663;37644,816;11,70282
 660,43; 4618,372;  229,433;37703,627;11,71190
 661,00; 4583,601;  189,125;37690,824;11,71807
 661,58; 4652,599;  193,510;38098,943;11,76372
 662,15; 4654,751;  181,202;38278,293;11,74250
 662,73; 4776,749;  268,433;38514,951;11,78752
 663,30; 4752,747;  201,740;38722,532;11,81442
 663,88; 4780,822;  200,894;38917,882;11,82925
 664,45; 4775,667;  188,279;39128,386;11,78062
 665,03; 4825,588;  192,586;39535,275;11,77602
 665,60; 5003,893;  292,279;39975,317;11,87312
 666,17; 4949,815;  200,971;40085,206;11,90657
 666,75; 4994,120;  201,663;40366,325;11,93202
 667,32; 5052,965;  215,663;40701,444;11,94815
 667,90; 5069,963;  192,971;40865,410;11,99090
 668,47; 5125,499;  219,355;41122,145;11,99464
 669,05; 5176,882;  186,279;41525,418;12,07234
 669,62; 5156,495;  167,279;41570,152;12,05041
 670,19; 5166,417;  180,817;41644,041;12,02415
 670,77; 5270,030;  199,278;41806,699;12,18713
 671,34; 5263,490;  189,048;41733,895;12,21437
 671,92; 5312,026;  177,894;42058,707;12,25891
 672,49; 5322,717;  213,048;42205,442;12,16808
 673,06; 5331,022;  161,278;42138,792;12,31551
 673,64; 5330,867;  174,894;42104,065;12,29686
 674,21; 5338,865;  171,971;42078,646;12,32952
 674,79; 5430,401;  208,817;42393,304;12,37797
 675,36; 5459,861;  206,817;42591,808;12,39364
 675,93; 5430,474;  164,201;42368,773;12,47797
 676,51; 5455,242;  198,124;42560,431;12,40989
 677,08; 5519,547;  197,047;42653,935;12,53625
 677,65; 5549,699;  190,663;42768,747;12,58637
 678,23; 5624,313;  190,894;42960,481;12,70393
 678,80; 5574,080;  183,278;43157,062;12,54440
 679,38; 5645,616;  193,509;43234,797;12,66716
 679,95; 5681,307;  200,894;43585,839;12,63206
 680,52; 5722,305;  187,201;43712,189;12,71707
 681,10; 5817,457;  208,586;44094,693;12,78052
 681,67; 5853,763;  205,817;44358,197;12,79194
 682,24; 5866,915;  170,124;44439,086;12,86859
 682,82; 5952,451;  179,278;44980,975;12,88606
 683,39; 6101,372;  242,047;45322,786;12,99740
 683,96; 6086,524;  196,816;45596,752;12,97294
 684,54; 6143,368;  177,047;45884,717;13,05322
 685,11; 6261,136;  245,432;46233,990;13,08087
 685,68; 6332,826;  196,047;46585,648;13,22878
 686,25; 6323,440;  177,124;46650,383;13,22549
 686,83; 6407,899;  187,201;46974,502;13,29570
 687,40; 6451,666;  169,509;47295,314;13,33061
 687,97; 6549,818;  232,201;47525,126;13,35848
 688,55; 6528,970;  175,124;47628,091;13,38978
 689,12; 6605,815;  162,509;47867,057;13,50669
 689,69; 6656,428;  171,585;47921,253;13,58092
 690,26; 6679,426;  184,739;48096,295;13,55557
 690,84; 6724,270;  177,509;48252,646;13,61777
 691,41; 6785,499;  198,201;48323,073;13,68793
 691,98; 6860,343;  206,508;48542,730;13,76573
 692,56; 6852,572;  190,432;48735,388;13,72365
 693,13; 6932,032;  237,278;48732,354;13,80502
 693,70; 6915,261;  195,355;48950,165;13,78306
 694,27; 6932,720;  180,431;48987,362;13,83469
 694,84; 6955,718;  171,662;49159,404;13,84848
 695,42; 7084,639;  225,585;49321,370;13,97076
 695,99; 7074,099;  194,047;49499,028;13,95407
 696,56; 7084,482;  185,124;49347,147;14,03392
 697,13; 7140,018;  206,354;49731,497;14,00029
 697,71; 7175,863;  176,124;49833,078;14,09619
 698,28; 7230,784;  180,124;50208,428;14,09334
 698,85; 7281,243;  143,431;50168,855;14,26837
 699,42; 7307,703;  156,816;50374,128;14,23988
 699,99; 7400,624;  204,047;50482,632;14,31340
 700,57; 7453,007;  191,354;50544,444;14,42146
 701,14; 7508,389;  161,124;50638,332;14,55561
 701,71; 7550,003;  202,354;50861,529;14,50408
 702,28; 7611,463;  172,893;50900,033;14,66389
 702,85; 7629,691;  175,739;50990,537;14,66886
 703,43; 7747,459;  199,431;51200,810;14,79965
 704,00; 7756,611;  204,893;51443,006;14,73848
 704,57; 7772,993;  180,816;51548,356;14,78011
 705,14; 7879,684;  205,046;51643,245;14,92011
 705,71; 7919,066;  205,816;51681,441;14,98428
 706,28; 7947,064;  179,123;51600,484;15,10645
 706,86; 8024,524;  200,585;51881,295;15,13899
 707,43; 8110,137;  240,200;51784,184;15,26839
 708,00; 8090,520;  201,893;51829,688;15,27981
 708,57; 8095,364;  169,277;51758,115;15,36396
 709,14; 8147,286;  198,816;51864,465;15,38444
 709,71; 8180,591;  175,969;51958,661;15,45810
 710,28; 8258,589;  183,739;52143,011;15,54073
 710,86; 8315,049;  186,969;52296,977;15,59792
 711,43; 8399,893;  217,508;52232,712;15,73076
 712,00; 8403,968;  192,969;52462,831;15,70886
 712,57; 8489,889;  204,200;52613,181;15,80967
 713,14; 8514,811;  184,508;52694,839;15,86412
 713,71; 8533,501;  206,892;52622,189;15,88584
 714,28; 8584,422;  188,892;52587,155;16,02253
 714,85; 8550,036;  184,585;52370,428;16,03012
 715,42; 8638,649;  189,815;52488,239;16,15504
 716,00; 8720,416;  289,200;52650,513;16,10200
 716,57; 8718,184;  197,354;52897,863;16,16840
 717,14; 8770,720;  188,738;52773,751;16,32020
 717,71; 8808,795;  176,508;52697,409;16,43591
 718,28; 8875,870;  222,123;52941,529;16,41473
 718,85; 8890,945;  179,508;52799,648;16,55533
 719,42; 8997,482;  201,661;53093,690;16,62977
 719,99; 8907,018;  165,738;52844,041;16,59370
 720,56; 9057,016;  220,738;53152,468;16,69373
 721,13; 9054,168;  182,354;53200,664;16,73349
 721,70; 9085,628;  181,815;53172,091;16,80273
 722,27; 9150,626;  212,661;53200,287;16,86802
 722,84; 9273,547;  268,430;53456,945;16,93057
 723,41; 9183,699;  174,430;53359,757;16,93939
 723,98; 9272,235;  196,430;53547,107;17,01160
 724,55; 9358,387;  215,969;53651,611;17,10921
 725,12; 9350,693;  144,892;53561,499;17,23397
 725,69; 9418,845;  188,353;53752,773;17,23251
 726,27; 9505,843;  186,507;53853,507;17,36511
 726,84; 9533,841;  201,584;54174,550;17,29061
 727,41; 9642,609;  220,200;54087,361;17,49194
 727,98; 9717,991;  206,430;54389,173;17,55459
 728,55; 9716,297;  243,507;54299,215;17,52412
 729,12; 9720,372;  183,661;54383,412;17,59549
 729,69; 9842,524;  204,276;54596,223;17,71999
 730,26; 9906,445;  212,969;54893,881;17,72735
 730,82; 9896,751;  193,815;54664,001;17,81330
 731,39; 9913,057;  200,430;54859,889;17,76934
 731,96; 9995,747;  178,661;55130,547;17,86488
 732,53;10101,668;  200,046;55288,743;17,97396
 733,10;10125,743;  216,892;55336,401;17,97703
 733,67;10195,664;  202,353;55680,674;18,01300
 734,24;10083,201;  174,815;55314,486;17,96961
 734,81;10207,353;  219,892;55457,451;18,08092
 735,38;10201,966;  195,892;55160,648;18,20453
 735,95;10256,118;  194,738;54940,152;18,37849
 736,52;10266,501;  206,353;55244,348;18,27855
 737,09;10268,268;  203,661;54918,775;18,39457
 737,66;10408,958;  241,507;55065,510;18,54562
 738,23;10453,880;  185,276;55071,091;18,70903
 738,80;10599,262;  274,968;55413,749;18,72420
 739,37;10599,183;  226,507;55577,329;18,73988
 739,94;10622,643;  196,891;55636,987;18,80544
 740,51;10743,872;  338,814;55690,645;18,79804
 741,07;10682,870;  201,276;55597,764;18,92104
 741,64;10811,176;  230,507;55863,268;19,01877
 742,21;10828,328;  208,891;55899,157;19,06875
 742,78;10814,787;  173,276;55685,815;19,16956
 743,35;10873,708;  196,891;55994,011;19,13507
 743,92;11010,399;  241,199;55992,746;19,31641
 744,49;11011,551;  240,122;55892,942;19,35469
 745,06;10977,703;  190,199;55982,831;19,33500
 745,63;10971,393;  172,276;55944,873;19,36277
 746,19;11032,545;  197,660;55946,608;19,43514
 746,76;11076,543;  183,353;56009,573;19,51268
 747,33;11092,541;  203,276;55937,000;19,53802
 747,90;11197,924;  220,737;56211,274;19,60543
 748,47;11104,153;  205,737;56132,470;19,48695
 749,04;11235,997;  206,737;56220,743;19,69018
 749,61;11254,456;  246,968;56133,016;19,69631
 750,17;11301,224;  221,045;56134,674;19,81660
 750,74;11311,837;  201,814;56069,563;19,88629
 751,31;11363,835;  194,353;56056,836;19,99460
 751,88;11366,372;  185,122;55958,725;20,04757
 752,45;11425,755;  191,429;56058,613;20,10899
 753,02;11410,753;  225,045;55964,963;20,06768
 753,58;11481,905;  189,814;55822,313;20,29765
 754,15;11544,056;  192,814;55941,202;20,36156
 754,72;11547,747;  191,891;55777,860;20,42936
 755,29;11545,437;  187,814;55631,364;20,48502
 755,86;11610,743;  201,737;55711,868;20,55302
 756,42;11670,356;  226,275;55701,141;20,62931
 756,99;11634,355;  175,891;55721,106;20,62907
 757,56;11690,583;  195,429;55504,764;20,78339
 758,13;11659,043;  149,814;55387,884;20,83568
 758,70;11805,272;  196,583;55463,849;21,00464
 759,26;11848,270;  194,660;55611,968;21,02883
 759,83;11938,960;  214,198;55725,934;21,12123
 760,40;11907,266;  188,121;55604,130;21,14758
 760,97;11937,572;  191,275;55511,250;21,23337
 761,53;11873,185;  175,429;55224,369;21,24974
 762,10;11945,568;  171,429;55091,411;21,43872
 762,67;11983,874;  202,968;55061,685;21,47499
 763,24;11901,641;  155,967;54714,881;21,52842
 763,80;12025,870;  199,967;54863,231;21,63410
 764,37;12054,945;  184,967;54886,350;21,69959
 764,94;11916,558;  171,429;54448,085;21,63938
 765,50;12006,249;  162,352;54363,897;21,85159
 766,07;12063,862;  209,275;54565,170;21,80920
 766,64;12053,629;  179,506;54260,905;21,95602
 767,21;12038,243;  180,198;54071,639;22,00358
 767,77;12029,626;  207,506;54050,067;21,95683
 768,34;12010,854;  191,506;54016,263;21,95894
 768,91;12090,391;  215,275;53876,228;22,12990
 769,47;12034,466;  195,121;53913,732;22,03956
 770,04;12097,003;  188,429;53773,775;22,22356
 770,61;12022,847;  184,890;53592,663;22,16523
 771,18;12046,845;  173,890;53376,936;22,31631
 771,74;12070,458;  183,659;53561,671;22,26909
 772,31;12069,379;  198,813;53366,021;22,32686
 772,88;12011,070;  177,813;53131,910;22,34625
 773,44;12036,299;  171,198;53045,491;22,44021
 774,01;12089,143;  200,582;53152,764;22,45150
 774,58;12064,987;  173,121;52650,345;22,66100
 775,14;12158,447;  171,198;52948,387;22,71294
 775,71;12204,829;  178,967;52857,353;22,82884
 776,27;12271,212;  240,044;52715,395;22,92728
 776,84;12384,979;  292,582;52833,438;23,01523
 777,41;12303,054;  184,659;52554,249;23,14014
 777,97;12258,283;  185,275;52285,215;23,17279
 778,54;12272,743;  197,352;52279,488;23,18528
 779,11;12328,972;  233,121;52323,607;23,22084
 779,67;12340,585;  177,352;52191,727;23,38437
 780,24;12336,891;  198,813;52040,077;23,41393
 780,80;12362,274;  198,890;52063,427;23,45222
 781,37;12438,810;  221,967;51949,700;23,61759
 781,94;12284,193;  210,351;51784,743;23,41054
 782,50;12366,806;  205,813;51658,554;23,63527
 783,07;12426,727;  223,121;51743,289;23,68705
 783,63;12393,956;  197,044;51456,332;23,79454
 784,20;12482,954;  218,274;51300,528;24,00967
 784,77;12424,568;  200,505;51225,186;23,95716
 785,33;12369,412;  175,121;50983,074;24,00075
 785,90;12451,718;  206,736;51032,809;24,09193
 786,46;12426,947;  229,890;50900,159;24,07143
 787,03;12408,714;  190,813;50652,278;24,21234
 787,59;12388,097;  204,736;50513,936;24,21696
 788,16;12441,556;  215,890;50510,517;24,30810
 788,73;12469,400;  222,890;50512,483;24,35198
 789,29;12388,860;  197,967;50073,679;24,44255
 789,86;12442,166;  237,043;49922,875;24,56459
 790,42;12436,164;  207,813;49712,533;24,70138
 790,99;12340,931;  216,274;49431,806;24,63583
 791,55;12379,929;  218,890;49395,233;24,72945
 792,12;12373,004;  241,736;49436,045;24,65990
 792,68;12303,079;  222,351;49136,549;24,69779
 793,25;12266,308;  228,351;48929,591;24,71797
 793,81;12288,075;  308,274;48567,865;24,82367
 794,38;12154,304;  190,736;48364,061;24,83443
 794,94;12184,995;  194,889;48267,103;24,94186
 795,51;12186,300;  213,428;47920,300;25,09675
 796,07;12050,991;  213,889;47741,650;24,90566
 796,64;12171,143;  236,428;47878,769;25,05065
 797,20;12100,756;  220,428;47325,427;25,22095
 797,77;11912,754;  188,197;47092,700;24,99666
 798,33;11935,060;  222,428;46897,743;25,09385
 798,90;11932,443;  236,735;46832,554;25,10034
 799,46;11887,133;  203,043;46419,674;25,28114
 800,03;11860,593;  218,274;46231,408;25,30216
 800,59;11839,514;  237,812;46110,143;25,29128
 801,15;11836,743;  248,197;45870,109;25,40127
 801,72;11758,895;  206,581;45530,997;25,48806
 802,28;11764,354;  246,812;45259,578;25,58728
 802,85;11714,583;  216,889;45098,005;25,61811
 803,41;11679,504;  218,428;44987,740;25,60030
 803,98;11579,272;  211,966;44489,628;25,67278
 804,54;11625,347;  215,120;44177,363;25,95461
 805,11;11565,652;  232,966;44040,252;25,86941
 805,67;11551,343;  241,735;43948,294;25,87622
 806,23;11467,341;  217,120;43562,798;25,95465
 806,80;11420,647;  239,889;43519,687;25,83366
 807,36;11448,491;  242,043;43446,575;25,93813
 807,93;11414,104;  262,812;43091,618;26,03690
 808,49;11340,487;  219,735;42657,968;26,20456
 809,05;11294,793;  193,966;42565,241;26,19894
 809,62;11328,252;  237,427;42518,053;26,23146
 810,18;11287,173;  229,043;42428,711;26,20431
 810,74;11202,633;  197,350;42170,753;26,21966
 811,31;11205,400;  211,658;41899,949;26,37130
 811,87;11198,322;  235,427;41779,299;26,38872
 812,44;11234,320;  246,427;41752,265;26,47313
 813,00;11136,856;  171,658;41412,769;26,58803
 813,56;11262,547;  243,120;41490,811;26,71526
 814,13;11220,698;  236,889;41363,315;26,70743
 814,69;11196,389;  216,043;41238,973;26,76636
 815,25;11148,848;  194,966;40772,477;26,99496
 815,82;11105,693;  246,581;40720,673;26,82978
 816,38;11172,537;  282,658;40600,100;27,01034
 816,94;11081,381;  222,966;40284,912;27,10406
 817,51;11059,764;  199,273;40110,185;27,21183
 818,07;11055,608;  209,581;39827,074;27,37686
 818,63;10997,298;  233,504;39544,732;27,38097
 819,20;11051,604;  229,196;39453,005;27,59143
 819,76;10915,218;  216,119;39198,432;27,44603
 820,32;10978,908;  251,504;38981,551;27,69789
 820,89;10940,675;  233,196;38803,901;27,76065
 821,45;10852,750;  226,812;38485,944;27,77360
 822,01;10828,210;  232,119;38235,371;27,88206
 822,57;10815,285;  238,196;38185,336;27,87322
 823,14;10735,591;  187,658;37953,917;27,92951
 823,70;10713,435;  209,735;37624,267;28,07385
 824,26;10729,356;  211,427;37509,541;28,19963
 824,82;10729,508;  247,196;37435,352;28,18723
 825,39;10667,968;  210,734;37111,241;28,33900
 825,95;10667,735;  237,504;37266,206;28,16796
 826,51;10554,579;  231,504;36743,710;28,27294
 827,08;10620,116;  273,119;36809,907;28,31939
 827,64;10550,498;  250,427;36649,180;28,29787
 828,20;10520,189;  214,273;36443,299;28,44657
 828,76;10554,341;  260,427;36381,188;28,49861
 829,32;10570,646;  274,580;36132,615;28,71341
 829,89;10455,798;  202,504;36017,657;28,62837
 830,45;10495,489;  241,965;36062,315;28,62486
 831,01;10464,564;  237,119;35843,896;28,72331
 831,57;10527,331;  226,811;35652,708;29,07624
 832,14;10520,252;  226,042;35711,366;29,00977
 832,70;10428,481;  204,888;35426,331;29,02662
 833,26;10393,864;  193,811;35366,373;29,00003
 833,82;10453,477;  230,965;35296,031;29,15298
 834,38;10439,937;  211,811;35233,689;29,20496
 834,95;10402,550;  203,119;35182,193;29,15867
 835,51;10410,856;  176,196;35039,466;29,35657
 836,07;10464,393;  222,503;35112,201;29,35505
 836,63;10523,314;  236,426;35036,859;29,55965
 837,19;10458,004;  231,042;34829,286;29,55919
 837,75;10337,002;  188,811;34607,559;29,48449
 838,32;10444,769;  243,272;34752,602;29,56156
 838,88;10434,460;  244,272;34674,259;29,59684
 839,44;10462,535;  244,349;34681,456;29,67202
 840,00;10381,994;  235,811;34592,652;29,53177
 840,56;10315,531;  212,272;34297,540;29,64113
 841,12;10347,298;  215,272;34213,660;29,80149
 841,68;10303,142;  190,118;34080,395;29,84049
 842,25;10303,756;  208,965;34154,052;29,73859
 842,81;10262,139;  205,811;33854,479;29,88626
 843,37;10243,598;  182,657;33824,753;29,90581
 843,93;10316,519;  221,965;33801,257;30,06185
 844,49;10366,441;  229,272;33788,914;30,20643
 845,05;10212,285;  180,041;33613,957;30,00619
 845,61;10348,514;  229,734;33598,845;30,32379
 846,17;10304,204;  206,580;33423,196;30,39932
 846,73;10308,510;  227,195;33429,700;30,36311
 847,29;10249,046;  207,734;33178,127;30,45554
 847,86;10253,814;  197,349;33157,861;30,51064
 848,42;10216,350;  210,811;33008,442;30,50690
 848,98;10215,810;  225,887;32922,562;30,55333
 849,54;10195,346;  201,887;32905,066;30,55807
 850,10;10213,806;  232,272;32723,185;30,72100
 850,66;10147,650;  203,887;32620,150;30,67523
 851,22;10114,725;  194,734;32551,501;30,65817
 851,78;10212,954;  256,580;32665,620;30,72098
 852,34;10073,644;  221,887;32323,124;30,68965
 852,90;10105,873;  209,964;32188,320;30,94565
 853,46;10034,717;  201,810;31997,670;30,92512
 854,02;10089,485;  224,887;32021,020;31,02452
 854,58; 9993,406;  211,580;31732,217;31,03309
 855,14; 9989,481;  202,656;31675,105;31,09648
 855,70; 9945,940;  174,964;31478,609;31,21354
 856,26; 9989,092;  217,426;31426,959;31,30988
 856,82; 9998,552;  210,041;31362,002;31,42181
 857,38; 9958,242;  265,656;31168,583;31,36462
 857,94; 9893,779;  224,349;31128,625;31,28832
 858,50; 9935,315;  251,118;30932,668;31,56359
 859,06; 9884,621;  208,964;30843,633;31,58401
 859,62; 9918,542;  237,349;30800,368;31,67617
 860,18; 9852,617;  212,118;30540,795;31,78675
 860,74; 9769,077;  192,656;30480,376;31,61816
 861,30; 9810,537;  187,195;30208,034;32,05554
 861,86; 9879,381;  277,579;30398,922;31,87707
 862,42; 9787,687;  224,656;30109,349;31,99976
 862,98; 9831,377;  254,272;30098,776;32,09001
 863,54; 9731,914;  210,810;29904,203;32,06472
 864,10; 9809,142;  206,272;29954,015;32,28101
 864,66; 9750,217;  203,195;29743,904;32,31819
 865,22; 9792,985;  218,271;29580,946;32,60845
 865,78; 9713,675;  217,964;29447,373;32,48684
 866,34; 9709,981;  199,887;29419,031;32,54748
 866,90; 9702,671;  224,964;29261,150;32,64102
 867,45; 9652,592;  224,656;29022,039;32,73887
 868,01; 9614,667;  213,733;28907,543;32,76294
 868,57; 9587,512;  212,271;28737,278;32,86674
 869,13; 9554,048;  201,964;28576,012;32,95999
 869,69; 9527,046;  213,117;28538,901;32,88145
 870,25; 9536,121;  205,656;28389,482;33,10574
 870,81; 9520,888;  210,425;28317,832;33,12459
 871,37; 9519,963;  236,502;28271,259;33,11411
 871,93; 9503,962;  239,733;28096,686;33,25643
 872,49; 9440,267;  266,348;27928,728;33,16388
 873,04; 9341,188;  207,502;27787,309;33,11730
 873,60; 9320,340;  207,963;27667,890;33,18427
 874,16; 9364,569;  233,579;27518,163;33,46575
 874,72; 9334,262;  210,887;27458,856;33,48277
 875,28; 9382,492;  215,502;27358,933;33,77241
 875,84; 9394,646;  228,579;27373,779;33,76681
 876,40; 9353,723;  215,887;27305,779;33,73154
 876,95; 9380,954;  227,656;27243,010;33,88184
 877,51; 9390,108;  245,579;27220,471;33,90015
 878,07; 9456,492;  270,887;27186,010;34,12805
 878,63; 9385,723;  221,117;27179,163;33,99581
 879,19; 9429,646;  239,887;27231,625;34,04656
 879,75; 9427,954;  215,579;27203,010;34,13580
 880,30; 9475,262;  218,117;27291,010;34,19341
 880,86; 9587,108;  266,040;27390,625;34,36391
 881,42; 9558,800;  208,194;27328,933;34,47770
 881,98; 9611,108;  229,040;27395,548;34,53542
 882,54; 9658,108;  211,348;27527,625;34,58290
 883,09; 9737,415;  234,887;27595,548;34,73063
 883,65; 9709,954;  203,502;27656,548;34,62804
 884,21; 9816,569;  251,271;27779,240;34,74756
 884,77; 9859,031;  204,963;27917,548;34,83640
 885,32; 9859,031;  224,810;28054,702;34,61825
 885,88; 9958,954;  246,963;28194,779;34,75045
 886,44;10023,954;  222,117;28265,779;34,95206
 887,00;10112,800;  251,656;28209,394;35,27161
 887,56;10155,800;  214,117;28435,010;35,22809
 888,11;10186,877;  218,810;28349,702;35,43459
 888,67;10247,800;  256,348;28548,394;35,31541
 889,23;10291,877;  229,040;28482,010;35,61692
 889,79;10221,646;  213,117;28431,856;35,46767
 890,34;10283,415;  222,348;28384,163;35,72592
 890,90;10448,800;  301,579;28557,779;35,91149
 891,46;10310,646;  217,963;28416,471;35,79155
 892,01;10297,800;  242,810;28408,933;35,69888
 892,57;10280,031;  254,963;28336,240;35,70018
 893,13;10238,108;  245,963;28152,471;35,80579
 893,69;10237,646;  219,656;28070,625;35,96999
 894,24;10256,185;  230,887;27938,933;36,18190
 894,80;10215,646;  228,502;27894,010;36,09962
 895,36;10211,877;  227,887;27727,471;36,30597
 895,91;10127,338;  227,194;27520,779;36,27279
 896,47;10121,877;  251,733;27423,548;36,32493
 897,03;10095,646;  226,194;27244,394;36,52890
 897,58;10060,031;  236,040;27167,779;36,47737
 898,14; 9992,108;  243,040;27009,779;36,42232
 898,70; 9958,492;  198,810;26779,856;36,71670
 899,25;10052,877;  242,502;26867,240;36,84684
 899,81; 9986,723;  240,348;26652,471;36,90114
 900,37; 9890,185;  192,502;26454,163;36,92715
 900,92; 9900,569;  223,117;26442,163;36,91001
 901,48; 9853,646;  214,425;26289,856;36,96668
 902,03; 9832,338;  223,963;26127,163;37,09339
 902,59; 9779,646;  225,040;26029,856;37,02644
 903,15; 9747,569;  240,810;25902,163;37,04699
 903,70; 9655,800;  227,887;25715,010;36,99089
 904,26; 9649,954;  217,656;25565,471;37,21148
 904,82; 9631,262;  220,117;25528,702;37,18558
 905,37; 9630,415;  232,887;25409,625;37,32624
 905,93; 9543,415;  224,040;25257,163;37,22818
 906,48; 9577,723;  240,656;25269,240;37,30561
 907,04; 9592,646;  247,887;25191,933;37,46289
 907,60; 9546,877;  235,425;24960,010;37,66070
 908,15; 9510,569;  209,348;24885,010;37,69391
 908,71; 9497,031;  237,656;24848,548;37,62308
 909,26; 9448,569;  234,887;24733,163;37,60951
 909,82; 9390,877;  243,425;24547,548;37,63745
 910,37; 9418,262;  271,425;24504,317;37,74554
 910,93; 9339,646;  214,733;24324,625;37,84718
 911,48; 9256,262;  221,810;24223,548;37,64082
 912,04; 9245,877;  219,887;24064,779;37,85293
 912,60; 9272,338;  229,348;24029,163;37,99605
 913,15; 9185,262;  224,425;23886,394;37,87021
 913,71; 9091,262;  217,117;23652,856;37,86586
 914,26; 9098,800;  198,348;23636,010;37,97500
 914,82; 9144,800;  228,194;23560,856;38,21512
 915,37; 9097,185;  211,579;23486,856;38,17615
 915,93; 9138,877;  282,810;23381,471;38,34018
 916,48; 8990,646;  221,040;23217,548;38,13451
 917,04; 8965,569;  245,887;23063,394;38,21488
 917,59; 9026,338;  262,656;23124,548;38,33315
 918,15; 8851,800;  201,271;22832,394;38,22404
 918,70; 8878,031;  224,194;22744,933;38,42608
 919,26; 8908,877;  227,271;22600,702;38,80319
 919,81; 8775,031;  216,425;22460,471;38,47594
 920,37; 8794,723;  223,887;22430,317;38,59619
 920,92; 8747,338;  244,502;22403,625;38,37172
 921,48; 8652,954;  212,656;22091,394;38,57763
 922,03; 8654,492;  222,194;22110,163;38,52481
 922,59; 8659,569;  222,348;22055,702;38,64372
 923,14; 8639,877;  228,733;21812,163;38,97038
 923,69; 8648,338;  247,887;21781,163;39,01149
 924,25; 8608,877;  260,733;21795,010;38,76677
 924,80; 8516,723;  227,502;21542,471;38,88920
 925,36; 8493,492;  215,194;21428,625;39,02385
 925,91; 8481,108;  224,117;21370,010;39,04773
 926,47; 8455,108;  196,810;21331,394;39,07481
 927,02; 8541,415;  308,810;21219,317;39,37066
 927,57; 8472,569;  210,579;21006,087;39,72969
 928,13; 8465,031;  205,963;20948,010;39,81800
 928,68; 8442,800;  222,656;20900,933;39,75256
 929,24; 8357,646;  191,963;20710,625;39,79637
 929,79; 8344,108;  215,348;20580,240;39,91555
 930,34; 8305,492;  229,117;20442,317;39,95594
 930,90; 8277,262;  218,579;20414,856;39,90182
 931,45; 8281,031;  230,271;20431,779;39,85227
 932,01; 8248,492;  234,656;20330,317;39,87844
 932,56; 8236,877;  251,348;20097,779;40,23660
 933,11; 8270,492;  267,040;20132,548;40,28818
 933,67; 8094,108;  216,656;19943,317;39,93302
 934,22; 8175,338;  236,425;19903,317;40,36689
 934,77; 8140,569;  258,271;19720,779;40,49991
 935,33; 8059,569;  232,810;19621,779;40,36707
 935,88; 8048,800;  242,271;19570,317;40,38964
 936,43; 8033,954;  231,425;19440,933;40,61806
 936,99; 8061,646;  231,502;19387,779;40,87508
 937,54; 7978,569;  200,348;19253,394;40,82403
 938,09; 7928,723;  233,810;19226,317;40,51552
 938,65; 7911,492;  247,425;19047,317;40,76655
 939,20; 7836,415;  219,117;19020,779;40,51396
 939,75; 7845,800;  212,887;18954,471;40,72715
 940,31; 7781,338;  210,348;18819,933;40,68329
 940,86; 7847,569;  227,194;18780,163;41,07361
 941,41; 7833,108;  322,887;18720,317;40,82212
 941,96; 7764,338;  221,502;18550,471;41,15254
 942,52; 7677,954;  221,040;18442,856;40,92300
 943,07; 7652,262;  210,117;18381,087;40,95623
 943,62; 7606,646;  212,271;18287,010;40,91000
 944,18; 7592,415;  203,502;18255,317;40,93169
 944,73; 7579,646;  230,733;18020,240;41,31038
 945,28; 7486,108;  188,425;17911,933;41,17516
 945,83; 7510,877;  217,810;17909,087;41,22409
 946,39; 7461,569;  213,963;17914,702;40,94522
 946,94; 7456,415;  258,425;17736,010;41,18413
 947,49; 7438,262;  219,656;17631,625;41,45772
 948,04; 7452,877;  273,502;17690,317;41,22094
 948,59; 7401,877;  237,579;17645,163;41,15619
 949,15; 7386,415;  209,579;17503,625;41,49889
 949,70; 7346,877;  223,887;17385,471;41,50544
 950,25; 7301,108;  228,348;17277,010;41,48572
 950,80; 7258,492;  190,810;17122,702;41,74184
 951,36; 7254,800;  187,194;17124,548;41,72792
 951,91; 7336,954;  237,502;17139,933;42,00255
 952,46; 7245,415;  225,963;16908,394;42,07691
 953,01; 7279,185;  236,348;16897,010;42,27225
 953,56; 7194,723;  199,194;16755,471;42,25303
 954,11; 7191,185;  232,656;16748,317;42,13291
 954,67; 7194,569;  209,963;16653,087;42,47737
 955,22; 7124,569;  207,040;16463,625;42,55217
 955,77; 7169,415;  239,656;16551,240;42,48367
 956,32; 7121,262;  283,502;16403,163;42,41875
 956,87; 7073,262;  217,040;16257,240;42,74399
 957,42; 7089,954;  219,656;16189,933;43,01928
 957,98; 7045,569;  214,579;16138,933;42,89650
 958,53; 7040,569;  246,733;16123,010;42,79238
 959,08; 6992,338;  210,887;15932,779;43,13381
 959,63; 6971,262;  212,425;15836,471;43,25919
 960,18; 6977,185;  230,887;15843,548;43,21043
 960,73; 6965,954;  224,502;15819,087;43,22944
 961,28; 6881,723;  206,502;15655,010;43,20949
 961,83; 6941,723;  238,348;15641,548;43,51937
 962,39; 6854,800;  204,117;15504,702;43,46685
 962,94; 6815,954;  228,733;15445,163;43,29019
 963,49; 6763,031;  229,733;15295,779;43,36438
 964,04; 6777,415;  245,733;15216,548;43,62944
 964,59; 6659,569;  196,040;15139,317;43,25376
 965,14; 6713,185;  252,348;15098,856;43,51755
 965,69; 6688,108;  219,502;14957,163;43,89167
 966,24; 6622,877;  206,348;14840,317;43,84681
 966,79; 6633,415;  245,579;14789,394;43,92133
 967,34; 6512,492;  189,194;14734,856;43,47206
 967,89; 6566,877;  223,579;14617,625;44,06890
 968,44; 6491,492;  225,656;14560,933;43,70921
 968,99; 6502,415;  231,810;14552,625;43,78665
 969,55; 6464,108;  227,963;14408,625;43,97640
 970,10; 6464,338;  239,810;14297,702;44,27782
 970,65; 6400,877;  241,348;14166,471;44,23321
 971,20; 6346,723;  218,425;14077,240;44,21949
 971,75; 6290,338;  198,887;13935,163;44,34573
 972,30; 6286,338;  216,271;13902,010;44,35323
 972,85; 6267,338;  210,040;13824,240;44,49250
 973,40; 6217,108;  209,271;13728,163;44,44030
 973,95; 6243,492;  239,733;13695,010;44,62011
 974,50; 6220,262;  248,348;13630,317;44,62657
 975,05; 6179,800;  224,810;13502,240;44,85047
 975,60; 6137,800;  234,117;13442,010;44,69814
 976,15; 6088,031;  211,425;13283,010;44,95710
 976,70; 6053,031;  222,810;13184,856;44,97917
 977,25; 6047,723;  242,887;13159,010;44,94256
 977,80; 5997,954;  219,887;13054,240;45,02032
 978,35; 5955,800;  237,656;12839,394;45,37584
 978,89; 5904,108;  202,733;12779,702;45,33187
 979,44; 5911,338;  224,425;12821,779;45,14371
 979,99; 5828,492;  213,040;12606,625;45,30934
 980,54; 5798,262;  253,733;12527,010;45,17562
 981,09; 5782,108;  247,194;12521,856;45,09219
 981,64; 5722,800;  236,502;12382,933;45,16799
 982,19; 5724,108;  269,040;12315,933;45,28195
 982,74; 5655,877;  231,502;12229,010;45,21252
 983,29; 5600,954;  211,348;12037,625;45,57314
 983,84; 5568,800;  224,425;11923,702;45,68124
 984,39; 5607,800;  336,733;11991,625;45,22622
 984,94; 5439,415;  196,963;11736,779;45,42925
 985,49; 5500,646;  261,579;11708,163;45,76970
 986,03; 5449,185;  248,810;11659,548;45,57439
 986,58; 5362,338;  277,963;11489,240;45,35054
 987,13; 5326,723;  230,271;11355,394;45,81030
 987,68; 5281,723;  249,271;11278,625;45,62780
 988,23; 5261,031;  237,040;11222,317;45,73385
 988,78; 5171,108;  227,194;11108,548;45,43473
 989,33; 5163,185;  247,040;11009,548;45,67843
 989,88; 5176,569;  268,733;10959,625;45,90671
 990,42; 5088,185;  222,502;10761,856;46,16680
 990,97; 5065,954;  224,425;10640,163;46,48282
 991,52; 5034,492;  258,810;10569,779;46,31653
 992,07; 4997,185;  285,194;10517,317;46,05095
 992,62; 4897,877;  239,425;10391,856;45,88509
 993,17; 4869,262;  249,656;10232,933;46,27344
 993,71; 4832,338;  255,271;10219,010;45,93725
 994,26; 4743,569;  226,502; 9997,471;46,22947
 994,81; 4760,877;  263,040;10026,471;46,06820
 995,36; 4661,262;  222,502; 9858,779;46,06301
 995,91; 4696,877;  245,040; 9744,163;46,86576
 996,45; 4625,800;  237,810; 9689,625;46,42484
 997,00; 4535,723;  216,963; 9582,010;46,11573
 997,55; 4541,723;  245,579; 9489,933;46,47317
 998,10; 4530,954;  261,425; 9388,933;46,77650
 998,65; 4476,954;  235,887; 9351,163;46,52703
 999,19; 4433,492;  260,348; 9219,625;46,57903
 999,74; 4400,415;  274,117; 9113,163;46,68262
1000,29; 4372,108;  245,348; 9071,317;46,75701
1000,84; 4291,646;  236,579; 8884,625;46,88998
1001,38; 4266,262;  247,425; 8792,087;47,03330
1001,93; 4244,031;  250,887; 8761,702;46,91847
1002,48; 4146,338;  216,348; 8619,087;46,77035
1003,03; 4166,800;  253,040; 8565,471;47,08321
1003,57; 4129,185;  250,194; 8497,317;47,03447
1004,12; 4127,492;  283,887; 8389,702;47,41788
1004,67; 4059,031;  230,963; 8254,087;47,71293
1005,22; 3958,800;  227,425; 8159,702;47,04040
1005,76; 3905,954;  220,502; 8040,548;47,12826
1006,31; 3922,185;  258,117; 7979,240;47,45511
1006,86; 3865,031;  227,348; 7830,087;47,84701
1007,40; 3818,338;  237,040; 7735,856;47,75818
1007,95; 3788,569;  238,810; 7658,625;47,84162
1008,50; 3716,031;  237,810; 7545,702;47,59541
1009,04; 3719,877;  237,963; 7434,240;48,38493
1009,59; 3653,954;  251,887; 7270,317;48,47333
1010,14; 3577,031;  226,040; 7237,087;47,79587
1010,68; 3544,800;  247,656; 7149,548;47,77160
1011,23; 3494,415;  242,579; 6996,548;48,14704
1011,78; 3500,108;  255,117; 6943,856;48,51424
1012,32; 3485,492;  276,656; 6822,394;49,02177
1012,87; 3453,569;  268,963; 6837,548;48,48237
1013,42; 3390,646;  219,733; 6690,702;49,00214
1013,96; 3405,954;  283,348; 6717,240;48,53370
1014,51; 3343,800;  212,656; 6585,163;49,13520
1015,06; 3352,723;  227,271; 6554,240;49,39888
1015,60; 3429,185;  281,117; 6607,087;49,76419
1016,15; 3364,877;  224,733; 6560,856;49,55939
1016,69; 3399,031;  236,040; 6614,856;49,58586
1017,24; 3395,954;  220,117; 6589,394;49,86181
1017,79; 3464,646;  273,040; 6636,317;50,15664
1018,33; 3425,185;  238,348; 6634,779;49,82211
1018,88; 3454,262;  251,579; 6665,548;49,93293
1019,42; 3458,108;  227,887; 6630,163;50,45426
1019,97; 3444,108;  221,425; 6621,625;50,35284
1020,51; 3523,954;  273,963; 6689,548;50,65774
1021,06; 3489,415;  213,810; 6628,625;51,06313
1021,61; 3486,954;  202,579; 6623,933;51,14770
1022,15; 3455,338;  184,810; 6586,702;51,08691
1022,70; 3492,800;  227,194; 6589,856;51,32452
1023,24; 3491,262;  216,502; 6503,702;52,08614
1023,79; 3415,108;  231,194; 6506,702;50,73555
1024,33; 3414,262;  225,733; 6428,010;51,40900
1024,88; 3411,492;  248,656; 6364,010;51,71960
1025,42; 3347,954;  241,502; 6247,702;51,72075
1025,97; 3275,723;  221,271; 6179,240;51,26666
1026,51; 3243,185;  203,963; 6035,548;52,11656
1027,06; 3197,338;  219,810; 5981,933;51,67416
1027,60; 3166,800;  242,040; 5897,933;51,71173
1028,15; 3173,415;  250,963; 5856,087;52,13894
1028,69; 3036,492;  191,348; 5682,548;51,81280
1029,24; 3033,415;  220,348; 5602,548;52,26612
1029,78; 2991,646;  214,733; 5551,394;52,03466
1030,33; 2947,262;  208,117; 5448,317;52,27175
1030,87; 2925,262;  214,348; 5380,548;52,47403
1031,42; 2870,415;  208,194; 5271,625;52,57742
1031,96; 2858,954;  235,348; 5232,625;52,50071
1032,51; 2823,723;  210,656; 5156,702;52,83144
1033,05; 2783,492;  232,963; 5132,702;52,05439
1033,60; 2684,262;  195,271; 4966,702;52,16445
1034,14; 2700,492;  216,502; 4919,394;52,81836
1034,69; 2683,723;  224,733; 4855,933;53,09618
1035,23; 2642,954;  218,348; 4821,702;52,67042
1035,77; 2617,800;  230,194; 4729,010;53,07188
1036,32; 2550,415;  202,194; 4662,702;52,64471
1036,86; 2548,262;  241,502; 4599,163;52,93572
1037,41; 2501,800;  238,733; 4541,240;52,59880
1037,95; 2441,800;  196,733; 4430,548;53,02705
1038,50; 2422,338;  209,271; 4401,317;52,79205
1039,04; 2424,185;  247,040; 4344,933;53,12839
1039,58; 2358,031;  211,502; 4289,856;52,63224
1040,13; 2357,338;  221,579; 4213,856;53,49728
1040,67; 2373,338;  252,887; 4231,010;53,30282
1041,21; 2326,185;  257,348; 4144,856;53,21755
1041,76; 2240,723;  214,194; 4034,163;53,05092
1042,30; 2266,492;  217,810; 4012,471;53,98855
1042,85; 2186,185;  213,502; 3952,856;52,75464
1043,39; 2187,723;  207,425; 3862,625;54,17756
1043,93; 2196,338;  247,656; 3872,087;53,76521
1044,48; 2129,108;  250,887; 3825,471;52,54376
1045,02; 2122,646;  217,194; 3715,933;54,46111
1045,56; 2104,877;  257,733; 3728,471;53,22050
1046,11; 2058,031;  241,502; 3609,087;53,94159
1046,65; 2035,338;  242,502; 3572,087;53,84565
1047,19; 2013,185;  220,117; 3512,625;54,45902
1047,74; 1944,108;  212,425; 3469,856;53,16100
1048,28; 1971,338;  230,502; 3423,317;54,52356
1048,82; 1959,185;  259,733; 3420,317;53,77018
1049,37; 1913,877;  243,579; 3322,471;54,24997
1049,91; 1889,569;  246,656; 3308,856;53,65141
1050,45; 1847,338;  236,810; 3246,240;53,51606
1050,99; 1833,031;  246,117; 3231,163;53,16211
1051,54; 1802,108;  219,810; 3142,625;54,13609
1052,08; 1824,262;  261,656; 3127,702;54,52131
1052,62; 1772,723;  241,963; 3097,240;53,61160
1053,16; 1757,569;  235,040; 3032,317;54,42896
1053,71; 1738,646;  238,579; 3025,163;53,83175
1054,25; 1724,569;  254,425; 2963,394;54,26951
1054,79; 1701,262;  251,040; 2893,010;54,89167
1055,33; 1638,723;  203,963; 2849,010;54,24327
1055,88; 1653,569;  239,348; 2846,779;54,23811
1056,42; 1637,108;  261,963; 2797,471;54,23546
1056,96; 1617,569;  248,348; 2790,317;53,86458
1057,50; 1613,954;  241,425; 2715,702;55,47192
1058,05; 1582,954;  242,733; 2651,240;55,64529
1058,59; 1568,108;  267,425; 2637,933;54,86937
1059,13; 1509,108;  216,040; 2573,163;54,85786
1059,67; 1516,877;  249,963; 2560,548;54,83086
1060,21; 1495,415;  241,040; 2497,933;55,57975
1060,76; 1469,262;  247,117; 2515,625;53,87437
1061,30; 1499,185;  263,271; 2489,779;55,50906
1061,84; 1455,800;  249,963; 2418,856;55,59688
1062,38; 1393,415;  225,348; 2340,163;55,23259
1062,92; 1446,108;  282,194; 2379,702;55,49031
1063,46; 1401,800;  258,502; 2320,471;55,44690
1064,01; 1363,877;  244,963; 2289,856;54,71748
1064,55; 1363,262;  251,502; 2254,625;55,50131
1065,09; 1293,646;  221,194; 2167,625;55,09839
1065,63; 1330,723;  271,194; 2212,163;54,58762
1066,17; 1358,954;  279,810; 2185,317;56,63290
1066,71; 1305,723;  271,194; 2159,702;54,78023
1067,25; 1288,877;  246,579; 2102,087;56,17320
1067,80; 1265,646;  255,194; 2086,240;55,18440
1068,34; 1289,262;  272,271; 2096,702;55,74289
1068,88; 1216,877;  231,117; 2011,702;55,36157
1069,42; 1271,646;  268,348; 2022,240;57,20409
1069,96; 1206,646;  239,502; 1975,548;55,70959
1070,50; 1227,492;  290,425; 1998,163;54,87183
1071,04; 1183,031;  227,656; 1931,394;56,07521
1071,58; 1176,415;  245,963; 1905,856;56,05496
1072,12; 1177,646;  245,579; 1914,548;55,84688
1072,66; 1167,723;  248,887; 1872,702;56,58504
1073,21; 1169,262;  257,425; 1855,779;57,04848
1073,75; 1139,646;  243,502; 1843,163;56,02086
1074,29; 1128,800;  247,117; 1820,010;56,05487
1074,83; 1152,954;  268,579; 1805,240;57,55171
1075,37; 1139,262;  262,656; 1800,010;57,02043
1075,91; 1094,492;  256,810; 1753,010;55,98735
1076,45; 1089,185;  259,579; 1728,548;56,47537
1076,99; 1092,185;  270,963; 1729,087;56,32043
1077,53; 1042,415;  242,810; 1662,548;56,32064
1078,07; 1056,954;  257,040; 1679,240;56,24479
1078,61; 1025,646;  251,656; 1643,087;55,62550
1079,15; 1023,262;  247,194; 1623,240;56,39835
1079,69; 1022,723;  252,117; 1606,240;56,90810
1080,23; 1016,800;  276,733; 1587,702;56,45192
1080,77; 1065,262;  332,810; 1626,625;56,61178
1081,31;  994,031;  241,271; 1546,548;57,67049
1081,85; 1001,108;  268,887; 1558,625;56,77284
1082,39;  955,877;  245,733; 1515,163;55,94194
1082,93;  970,954;  270,040; 1515,087;56,29618
1083,47;  938,415;  231,194; 1445,471;58,24216
1084,01;  953,723;  260,963; 1488,317;56,44335
1084,55;  919,646;  250,117; 1434,779;56,51647
1085,09;  942,569;  267,579; 1444,933;57,33114
1085,63;  917,723;  257,425; 1423,317;56,63457
1086,17;  919,108;  242,810; 1396,317;58,62970
1086,71;  872,031;  247,579; 1372,010;55,53494
1087,24;  929,185;  273,425; 1402,163;58,09668
1087,78;  900,338;  277,040; 1373,702;56,83596
1088,32;  867,338;  236,040; 1326,625;57,88621
1088,86;  875,262;  269,348; 1332,394;56,99785
1089,40;  877,185;  268,887; 1322,548;57,73183
1089,94;  823,338;  239,425; 1272,010;56,54873
1090,48;  831,185;  257,425; 1279,933;56,11299
1091,02;  836,108;  266,040; 1280,625;56,18726
1091,56;  820,415;  249,656; 1249,548;57,08211
1092,10;  790,877;  227,348; 1219,933;56,77388
1092,63;  836,185;  276,040; 1259,625;56,94927
1093,17;  811,800;  266,963; 1227,779;56,70564
1093,71;  784,338;  241,502; 1181,625;57,74101
1094,25;  809,569;  273,656; 1208,779;57,30940
1094,79;  769,415;  244,425; 1163,548;57,11862
1095,33;  781,338;  264,117; 1162,163;57,59405
1095,87;  761,877;  250,887; 1143,087;57,27308
1096,40;  727,800;  234,348; 1108,856;56,42625
1096,94;  758,492;  250,040; 1113,240;58,90314
1097,48;  750,800;  267,963; 1126,625;56,23130
1098,02;  713,646;  239,271; 1066,856;57,32042
1098,56;  703,185;  224,425; 1053,010;57,78041
1099,10;  695,492;  238,425; 1052,317;56,15820
1099,63;  678,646;  223,887; 1027,779;56,56972
1100,17;  715,492;  246,271; 1050,856;58,31843
1100,71;  732,723;  288,656; 1058,779;57,66186

