
Integration time [ms]: 140,000
Averaging Nr. [scans]: 13
Smoothing Nr. [pixels]: 0
Data measured with spectrometer [name]: 2009305U1
Wave   ;Sample   ;Dark     ;Reference;Reflectance
[nm]   ;[counts] ;[counts] ;[counts] ;[%]

 175,72;  222,111;  229,340;  215,673; 0,00000
 176,32;  241,085;  252,129;  241,025; 0,00000
 176,92;  285,161;  283,961;  266,109; 0,00000
 177,52;  265,873;  271,036;  267,675; 0,00000
 178,12;  251,289;  251,052;  238,311; 0,00000
 178,72;  287,609;  282,519;  258,525; 0,00000
 179,32;  273,612;  278,899;  258,748; 0,00000
 179,92;  268,585;  273,199;  262,806; 0,00000
 180,52;  252,622;  252,175;  261,455; 4,80806
 181,12;  279,277;  274,659;  266,130; 0,00000
 181,73;  301,950;  287,426;  277,919; 0,00000
 182,33;  405,984;  394,184;  397,957;312,70373
 182,93;  295,519;  281,652;  286,949;261,76582
 183,53;  259,575;  255,983;  247,813; 0,00000
 184,13;  254,728;  259,673;  237,845; 0,00000
 184,73;  308,929;  309,293;  296,892; 0,00000
 185,33;  288,607;  258,488;  361,143;29,33982
 185,93;  295,000;  262,503;  381,547;27,29883
 186,53;  313,038;  269,803;  410,327;30,76722
 187,13;  327,599;  300,864;  420,213;22,40025
 187,73;  290,258;  263,116;  382,447;22,74499
 188,33;  304,174;  254,432;  381,863;39,03444
 188,93;  301,314;  277,688;  387,891;21,43867
 189,53;  306,074;  253,477;  380,542;41,39315
 190,13;  359,572;  299,356;  423,007;48,69889
 190,73;  285,236;  234,103;  387,302;33,37676
 191,34;  322,323;  277,927;  406,760;34,46010
 191,94;  303,217;  256,287;  387,164;35,85809
 192,54;  318,875;  264,468;  415,221;36,08978
 193,14;  330,741;  282,173;  415,304;36,48126
 193,74;  315,137;  288,330;  398,242;24,38997
 194,34;  314,241;  276,401;  415,805;27,14406
 194,94;  285,079;  242,712;  367,347;33,99328
 195,54;  248,876;  214,795;  345,997;25,97591
 196,14;  281,871;  244,551;  381,829;27,18593
 196,74;  271,607;  246,260;  371,341;20,26429
 197,34;  249,901;  219,465;  367,061;20,62159
 197,94;  289,129;  249,633;  398,110;26,60097
 198,54;  301,937;  259,936;  414,320;27,20540
 199,14;  250,612;  228,075;  389,582;13,95455
 199,74;  252,043;  215,459;  394,616;20,42009
 200,34;  255,905;  211,457;  412,777;22,07798
 200,94;  292,894;  260,621;  440,849;17,90672
 201,54;  273,109;  229,385;  443,845;20,38783
 202,14;  316,277;  269,991;  509,855;19,29671
 202,74;  272,224;  233,229;  483,408;15,58684
 203,34;  245,965;  224,677;  505,069; 7,59226
 203,94;  221,816;  188,990;  503,718;10,42985
 204,54;  295,787;  267,401;  595,985; 8,63886
 205,14;  267,216;  205,767;  614,536;15,03276
 205,74;  308,104;  258,447;  713,847;10,90399
 206,34;  283,835;  214,299;  712,928;13,94535
 206,94;  286,851;  222,225;  764,426;11,91916
 207,54;  264,093;  203,454;  808,104;10,02872
 208,14;  279,250;  223,606;  894,372; 8,29563
 208,74;  282,859;  224,768;  969,173; 7,80365
 209,34;  289,389;  215,381; 1054,701; 8,81759
 209,94;  303,901;  244,920; 1142,048; 6,57435
 210,54;  301,400;  220,834; 1275,922; 7,63592
 211,14;  324,039;  224,152; 1378,519; 8,65301
 211,73;  331,682;  219,540; 1485,662; 8,85711
 212,33;  344,540;  237,852; 1585,815; 7,91476
 212,93;  337,536;  227,691; 1695,643; 7,48281
 213,53;  314,751;  198,152; 1731,515; 7,60412
 214,13;  352,038;  228,980; 1852,881; 7,57793
 214,73;  329,816;  202,684; 1865,086; 7,64749
 215,33;  323,901;  189,920; 1889,894; 7,88132
 215,93;  363,911;  228,448; 2025,839; 7,53669
 216,53;  327,355;  188,077; 2077,759; 7,37045
 217,13;  403,665;  236,680; 2288,601; 8,13799
 217,73;  396,696;  213,832; 2523,291; 7,91806
 218,33;  383,569;  171,516; 2679,717; 8,45435
 218,93;  455,906;  203,732; 3016,014; 8,96688
 219,53;  476,538;  208,747; 3295,597; 8,67521
 220,13;  475,299;  173,359; 3615,373; 8,77219
 220,73;  526,993;  200,689; 3981,424; 8,63070
 221,32;  579,397;  213,306; 4393,481; 8,75779
 221,92;  630,611;  216,975; 4824,839; 8,97673
 222,52;  653,361;  195,600; 5274,577; 9,01286
 223,12;  712,961;  195,292; 5727,756; 9,35695
 223,72;  757,623;  216,368; 6131,713; 9,15001
 224,32;  805,938;  217,367; 6567,755; 9,26827
 224,92;  826,607;  194,444; 6890,969; 9,44017
 225,52;  896,051;  226,071; 7257,152; 9,52883
 226,12;  908,454;  201,065; 7552,443; 9,62253
 226,72;  936,358;  182,605; 7885,662; 9,78512
 227,31;  963,335;  174,836; 8271,414; 9,73867
 227,91; 1079,885;  217,764; 8671,474;10,19814
 228,51; 1095,355;  197,312; 9080,788;10,10914
 229,11; 1154,616;  204,221; 9437,453;10,29320
 229,71; 1211,389;  190,769; 9761,515;10,66396
 230,31; 1266,753;  179,980;10198,283;10,84788
 230,91; 1333,067;  171,239;10495,044;11,25387
 231,51; 1385,058;  182,832;10729,351;11,39927
 232,10; 1450,592;  197,978;11125,042;11,46341
 232,70; 1534,779;  199,247;11327,421;12,00136
 233,30; 1628,004;  225,987;11566,044;12,36340
 233,90; 1620,288;  185,526;11672,874;12,48994
 234,50; 1668,738;  193,140;11762,227;12,75467
 235,10; 1757,454;  177,752;11763,892;13,63441
 235,70; 1833,520;  226,149;11795,777;13,89302
 236,29; 1841,062;  207,538;11790,212;14,10317
 236,89; 1854,163;  159,546;11668,517;14,72431
 237,49; 1918,981;  202,681;11531,473;15,14989
 238,09; 1901,527;  196,530;11258,005;15,41383
 238,69; 1954,148;  233,705;10981,786;16,00698
 239,29; 1913,758;  193,378;10668,835;16,42296
 239,89; 1916,802;  204,469;10293,457;16,97229
 240,48; 1890,966;  183,376; 9905,604;17,56377
 241,08; 1864,981;  186,686; 9504,563;18,01156
 241,68; 1895,862;  206,530; 9188,966;18,80706
 242,28; 1825,646;  175,065; 8793,143;19,15255
 242,88; 1880,315;  244,210; 8481,530;19,86210
 243,48; 1847,473;  231,296; 8141,747;20,43091
 244,07; 1819,093;  196,226; 7914,995;21,02494
 244,67; 1826,496;  215,452; 7750,440;21,38085
 245,27; 1823,220;  219,232; 7569,124;21,82329
 245,87; 1864,776;  229,058; 7508,591;22,47010
 246,47; 1898,397;  205,617; 7502,141;23,19982
 247,06; 1873,824;  199,686; 7436,481;23,13369
 247,66; 1932,304;  197,298; 7536,970;23,63874
 248,26; 2011,155;  225,154; 7659,802;24,02267
 248,86; 2053,028;  217,693; 7773,824;24,28935
 249,46; 2069,858;  166,063; 8056,240;24,12867
 250,05; 2208,412;  218,992; 8430,382;24,22756
 250,65; 2292,528;  182,849; 8749,185;24,62756
 251,25; 2408,824;  190,533; 9257,926;24,46448
 251,85; 2544,075;  192,623; 9838,778;24,37709
 252,44; 2702,759;  162,999;10487,925;24,59833
 253,04; 2877,839;  211,458;11180,039;24,30926
 253,64; 3021,440;  166,312;11919,352;24,29267
 254,24; 3307,135;  212,223;12914,502;24,36501
 254,84; 3508,319;  189,448;13814,933;24,35782
 255,43; 3743,478;  194,152;14851,732;24,21495
 256,03; 3955,194;  204,157;15905,993;23,88916
 256,63; 4233,755;  196,623;17012,116;24,00841
 257,23; 4407,782;  186,392;17967,154;23,74134
 257,82; 4633,587;  210,937;18985,983;23,55600
 258,42; 4797,691;  163,017;19935,819;23,43964
 259,02; 5064,782;  220,536;20864,266;23,46594
 259,62; 5152,653;  186,635;21654,872;23,13193
 260,21; 5309,847;  193,229;22196,203;23,25421
 260,81; 5424,592;  201,451;22801,606;23,11109
 261,41; 5494,456;  181,246;23313,600;22,96874
 262,01; 5580,257;  221,407;23821,639;22,70677
 262,60; 5608,936;  170,622;24241,692;22,59274
 263,20; 5675,317;  186,463;24635,120;22,45053
 263,80; 5662,045;  217,023;24852,328;22,10252
 264,40; 5638,103;  184,329;25095,732;21,89268
 264,99; 5685,907;  205,947;25238,610;21,89124
 265,59; 5657,238;  186,341;25477,207;21,63191
 266,19; 5606,091;  202,638;25585,669;21,28766
 266,78; 5646,203;  237,412;25736,284;21,21188
 267,38; 5576,353;  216,647;25781,847;20,96485
 267,98; 5517,988;  198,335;25840,891;20,74541
 268,58; 5504,715;  208,031;25858,599;20,64938
 269,17; 5420,019;  186,731;25860,805;20,38355
 269,77; 5376,209;  198,241;25655,750;20,33965
 270,37; 5269,926;  176,409;25618,299;20,02020
 270,96; 5215,114;  231,245;25438,167;19,77183
 271,56; 5072,809;  198,546;25228,560;19,47367
 272,16; 4948,560;  183,093;25020,391;19,18674
 272,75; 4853,741;  196,323;25016,044;18,76499
 273,35; 4843,494;  199,167;24855,008;18,83662
 273,95; 4761,171;  206,169;24737,232;18,56830
 274,54; 4697,893;  186,454;24928,455;18,23393
 275,14; 4759,575;  219,705;25139,722;18,21777
 275,74; 4675,133;  163,323;25213,532;18,01107
 276,33; 4764,021;  223,241;25691,686;17,82904
 276,93; 4727,470;  219,606;26054,556;17,44870
 277,53; 4776,339;  193,845;26511,015;17,41256
 278,12; 4844,055;  176,698;27017,644;17,38894
 278,72; 5015,959;  249,769;27762,943;17,32330
 279,32; 5031,424;  204,770;28294,102;17,18323
 279,91; 5121,232;  175,926;28957,693;17,18208
 280,51; 5237,882;  186,768;29510,574;17,22530
 281,11; 5368,132;  189,388;30262,599;17,22046
 281,70; 5408,024;  180,927;30711,540;17,12084
 282,30; 5546,348;  185,315;31444,406;17,15031
 282,90; 5608,929;  181,777;31805,496;17,16165
 283,49; 5742,925;  213,013;32334,427;17,21566
 284,09; 5907,063;  222,082;32725,455;17,49043
 284,69; 6010,728;  231,386;33260,773;17,49758
 285,28; 6079,632;  219,005;33621,729;17,54536
 285,88; 6317,679;  276,324;33732,635;18,05745
 286,47; 6294,113;  211,854;33898,539;18,05538
 287,07; 6435,609;  226,924;33912,914;18,43106
 287,67; 6597,473;  214,143;34022,901;18,88070
 288,26; 6663,693;  187,463;34016,478;19,14401
 288,86; 6845,867;  187,466;34056,750;19,65911
 289,46; 7065,632;  200,002;34230,300;20,17505
 290,05; 7251,701;  192,841;34225,200;20,74161
 290,65; 7529,929;  199,009;34400,326;21,43461
 291,24; 7753,386;  202,692;34523,264;22,00049
 291,84; 7993,140;  211,854;34720,346;22,54890
 292,44; 8234,581;  214,757;34843,036;23,15975
 293,03; 8615,528;  289,385;34928,448;24,03686
 293,63; 8761,829;  195,931;35113,556;24,53173
 294,22; 9073,605;  228,157;35285,108;25,23165
 294,82; 9213,876;  200,713;35265,138;25,70458
 295,41; 9315,409;  194,235;34979,002;26,22175
 296,01; 9521,648;  245,479;34862,268;26,79674
 296,61; 9639,866;  231,770;34641,414;27,34145
 297,20; 9621,798;  209,247;34275,725;27,62995
 297,80; 9712,574;  216,839;34039,254;28,07527
 298,39; 9733,844;  194,777;33651,009;28,51208
 298,99; 9835,060;  227,014;33553,030;28,83047
 299,58; 9847,604;  231,529;33451,560;28,94662
 300,18; 9891,112;  225,763;33178,930;29,33056
 300,78; 9896,501;  200,152;32763,057;29,77728
 301,37; 9976,411;  221,025;32759,607;29,98098
 301,97;10077,455;  219,772;32712,436;30,33818
 302,56;10097,756;  210,932;32605,176;30,52031
 303,16;10169,013;  178,780;32422,182;30,98381
 303,75;10213,358;  193,535;32489,889;31,02463
 304,35;10383,442;  187,907;32689,675;31,36917
 304,94;10471,767;  206,233;32786,534;31,50841
 305,54;10600,474;  229,460;32726,019;31,91419
 306,13;10567,238;  159,445;32615,867;32,06698
 306,73;10593,162;  183,757;32401,511;32,30953
 307,33;10688,127;  214,451;32387,508;32,55418
 307,92;10756,859;  216,692;32372,003;32,77893
 308,52;11080,294;  185,550;32855,760;33,34764
 309,11;11328,564;  195,326;33394,380;33,53481
 309,71;11467,730;  177,099;33672,532;33,70797
 310,30;11678,678;  186,231;33821,965;34,16737
 310,90;11993,986;  243,847;34177,350;34,62696
 311,49;12077,320;  216,232;34320,218;34,77918
 312,09;12192,674;  172,225;34482,793;35,03425
 312,68;12551,905;  273,306;34917,591;35,44192
 313,28;12648,705;  179,923;35101,003;35,70560
 313,87;12843,047;  171,001;35171,589;36,20524
 314,47;13053,041;  202,247;35477,156;36,43041
 315,06;13245,686;  176,615;35522,007;36,97532
 315,66;13445,520;  189,225;35733,947;37,29469
 316,25;13484,986;  169,472;35683,007;37,49420
 316,85;13598,808;  161,148;35742,567;37,76595
 317,44;13720,372;  198,556;35869,926;37,90663
 318,04;13852,029;  178,085;35916,590;38,26110
 318,63;13917,404;  181,449;35908,327;38,44712
 319,22;14187,717;  193,856;36093,245;38,98078
 319,82;14281,178;  193,852;35976,755;39,36888
 320,41;14297,513;  204,394;35992,053;39,37983
 321,01;14535,501;  206,457;36146,166;39,86967
 321,60;14585,259;  205,005;36070,930;40,09447
 322,20;14608,555;  177,615;36028,101;40,25312
 322,79;14844,082;  222,230;36180,362;40,66355
 323,39;14946,719;  181,139;36242,924;40,94523
 323,98;15003,166;  178,691;36090,019;41,28078
 324,58;15106,921;  195,012;36020,884;41,62330
 325,17;15150,925;  187,856;35870,151;41,93415
 325,76;15181,978;  203,463;35657,923;42,24720
 326,36;15193,851;  180,149;35334,794;42,70759
 326,95;15092,901;  222,928;35040,737;42,70795
 327,55;15046,725;  174,621;34519,396;43,30237
 328,14;14929,108;  186,223;34236,326;43,29762
 328,74;14974,325;  215,009;33788,296;43,96148
 329,33;14852,551;  209,073;33387,282;44,13583
 329,92;14699,029;  177,633;32810,785;44,49891
 330,52;14587,608;  213,914;32188,411;44,95362
 331,11;14423,117;  198,467;31720,361;45,12625
 331,71;14231,847;  189,695;31220,770;45,25190
 332,30;14124,613;  207,617;30698,073;45,64378
 332,89;14016,039;  281,458;30113,996;46,03893
 333,49;13767,759;  218,466;29589,246;46,13188
 334,08;13662,482;  193,083;29096,811;46,60091
 334,68;13506,978;  208,698;28649,029;46,75853
 335,27;13452,962;  214,913;28405,999;46,95828
 335,86;13466,886;  257,928;28031,208;47,55995
 336,46;13379,966;  205,681;27752,328;47,82536
 337,05;13355,709;  197,697;27515,575;48,16630
 337,65;13338,298;  190,160;27432,691;48,26328
 338,24;13421,593;  238,076;27393,801;48,54784
 338,83;13466,893;  222,460;27260,698;48,98408
 339,43;13557,452;  192,395;27263,797;49,36965
 340,02;13599,960;  198,165;27114,892;49,78984
 340,61;13716,213;  204,692;27199,191;50,05287
 341,21;13788,479;  236,394;27164,989;50,32600
 341,80;13876,998;  212,545;27122,563;50,77831
 342,40;14027,446;  203,068;27247,077;51,11808
 342,99;14087,424;  202,150;27356,765;51,13412
 343,58;14297,243;  198,457;27478,513;51,68166
 344,18;14485,162;  213,687;27601,431;52,10898
 344,77;14724,310;  193,011;27959,751;52,33347
 345,36;14955,363;  182,928;28209,737;52,70823
 345,96;15248,343;  230,688;28494,299;53,13424
 346,55;15508,415;  189,985;28716,329;53,69924
 347,14;15776,020;  196,991;29085,295;53,92850
 347,74;16098,826;  177,668;29550,925;54,20290
 348,33;16516,584;  194,900;30209,862;54,37849
 348,92;16975,722;  210,971;30725,797;54,93969
 349,52;17289,084;  182,512;31257,287;55,04970
 350,11;17553,237;  202,628;31541,063;55,36527
 350,70;17653,178;  187,308;31685,435;55,45050
 351,29;17672,103;  185,490;31461,114;55,91132
 351,89;17781,783;  209,095;31392,717;56,35230
 352,48;17819,759;  182,077;31412,140;56,47661
 353,07;17964,262;  218,066;31342,589;57,01676
 353,67;17972,883;  217,278;31275,378;57,16900
 354,26;17892,108;  217,683;31048,188;57,32772
 354,85;17876,304;  216,840;31019,938;57,33016
 355,45;17831,902;  185,161;30726,474;57,77990
 356,04;17897,181;  200,065;30690,353;58,04181
 356,63;17833,828;  244,850;30434,989;58,26067
 357,22;17862,045;  214,486;30226,312;58,80202
 357,82;17869,806;  212,252;30104,087;59,07150
 358,41;17743,424;  228,156;29983,240;58,86479
 359,00;17745,925;  200,702;29761,074;59,35386
 359,60;17750,812;  206,845;29763,524;59,35703
 360,19;17738,608;  230,064;29572,844;59,66900
 360,78;17776,351;  206,852;29434,366;60,11288
 361,37;17702,244;  214,775;29202,554;60,32704
 361,97;17648,670;  207,541;29156,830;60,24718
 362,56;17573,487;  208,243;28846,136;60,63729
 363,15;17492,632;  278,930;28535,867;60,91850
 363,74;17315,406;  214,477;28197,699;61,11137
 364,34;17122,790;  237,395;27826,455;61,20323
 364,93;16870,006;  205,398;27426,893;61,21856
 365,52;16728,655;  190,005;27035,361;61,60712
 366,11;16547,936;  220,933;26767,506;61,50324
 366,71;16340,102;  205,779;26287,784;61,85998
 367,30;16169,801;  211,774;25978,720;61,93216
 367,89;16008,170;  262,302;25806,704;61,64117
 368,48;15930,114;  229,400;25384,459;62,41573
 369,07;15636,178;  222,077;24999,127;62,21120
 369,67;15507,629;  234,014;24635,535;62,59288
 370,26;15245,578;  213,922;24350,656;62,27709
 370,85;15139,721;  227,236;24181,776;62,25327
 371,44;15023,447;  221,619;23928,164;62,43773
 372,03;14843,494;  194,395;23678,733;62,37817
 372,63;14655,728;  195,081;23427,203;62,24420
 373,22;14531,897;  205,770;23100,841;62,57298
 373,81;14359,786;  192,928;22741,652;62,82776
 374,40;14180,581;  208,069;22536,065;62,57844
 374,99;14035,652;  214,084;22255,171;62,70820
 375,59;13757,354;  205,685;21927,532;62,38728
 376,18;13778,371;  229,545;21828,824;62,72814
 376,77;13690,509;  225,695;21650,650;62,84640
 377,36;13711,224;  257,775;21528,174;63,24964
 377,95;13437,271;  238,009;21280,852;62,72566
 378,55;13302,501;  212,764;21060,243;62,78810
 379,14;13288,136;  232,621;21020,434;62,80370
 379,73;13212,594;  220,855;20886,074;62,86766
 380,32;13186,682;  218,849;20967,569;62,49944
 380,91;13164,548;  188,168;20786,052;62,99861
 381,50;13091,456;  222,243;20788,016;62,57588
 382,10;12996,297;  211,541;20650,569;62,55070
 382,69;12990,717;  182,006;20617,678;62,67820
 383,28;12946,510;  239,626;20536,939;62,60377
 383,87;12828,025;  206,242;20358,768;62,63127
 384,46;12802,833;  204,405;20349,510;62,53841
 385,05;12831,752;  228,166;20343,508;62,65658
 385,64;12807,706;  216,010;20334,968;62,58622
 386,24;12750,203;  191,098;20228,134;62,67945
 386,83;12738,676;  243,176;20334,857;62,19241
 387,42;12733,875;  233,932;20459,728;61,80198
 388,01;12827,130;  236,030;20576,120;61,90288
 388,60;12996,668;  218,019;20827,863;62,00265
 389,19;13128,158;  216,887;21101,875;61,82082
 389,78;13267,496;  222,269;21319,797;61,83297
 390,37;13527,091;  286,410;21778,099;61,60838
 390,96;13571,814;  230,021;21931,882;61,47764
 391,56;13671,570;  240,660;22109,404;61,41601
 392,15;13851,050;  218,113;22334,496;61,64180
 392,74;13855,548;  207,366;22547,688;61,09215
 393,33;13992,328;  225,046;22808,033;60,96307
 393,92;14239,975;  237,604;23277,774;60,77373
 394,51;14364,708;  214,969;23463,397;60,86321
 395,10;14471,781;  251,087;23664,751;60,73673
 395,69;14587,850;  246,545;23849,834;60,75977
 396,28;14572,797;  250,864;23985,185;60,34271
 396,87;14618,825;  241,267;24001,921;60,50994
 397,46;14710,222;  261,741;24097,362;60,61718
 398,06;14818,704;  270,988;24304,566;60,53080
 398,65;14790,069;  253,794;24408,209;60,18061
 399,24;14875,081;  271,185;24575,099;60,08866
 399,83;14826,585;  244,933;24616,465;59,83067
 400,42;14882,181;  290,828;24717,963;59,73420
 401,01;14960,135;  273,424;24823,113;59,82443
 401,60;14975,891;  287,885;24869,234;59,75265
 402,19;14839,692;  302,023;24838,259;59,24979
 402,78;14867,346;  302,040;24874,996;59,27372
 403,37;14667,949;  290,899;24657,434;59,00326
 403,96;14644,984;  292,080;24584,423;59,08406
 404,55;14532,385;  300,043;24486,578;58,84407
 405,14;14373,839;  281,765;24325,384;58,61046
 405,73;14372,437;  292,273;24215,857;58,85474
 406,32;14308,909;  307,280;24158,146;58,70491
 406,91;14089,644;  295,684;23903,949;58,42852
 407,50;14034,755;  300,503;23743,123;58,58668
 408,09;13796,154;  272,769;23438,307;58,37717
 408,68;13709,764;  287,255;23348,146;58,20464
 409,27;13541,342;  284,454;23096,682;58,11308
 409,86;13420,055;  290,840;22907,263;58,05169
 410,45;13375,008;  319,469;22908,280;57,79649
 411,04;13285,369;  318,327;22826,099;57,61140
 411,63;13087,189;  306,781;22601,988;57,32357
 412,22;12885,706;  304,243;22399,880;56,94094
 412,81;12737,793;  323,447;22137,078;56,91095
 413,40;12472,874;  318,951;21770,582;56,65734
 413,99;12334,275;  373,500;21514,368;56,57656
 414,58;12051,186;  281,724;21002,093;56,80141
 415,17;11818,916;  291,370;20794,881;56,22230
 415,76;11725,245;  290,323;20690,617;56,05273
 416,35;11560,967;  283,616;20435,067;55,96297
 416,94;11541,944;  314,778;20468,723;55,70704
 417,53;11658,835;  284,522;20661,892;55,81835
 418,12;11649,669;  287,669;20730,002;55,58074
 418,71;11781,036;  318,489;21138,316;55,05592
 419,30;11822,503;  289,127;21254,449;55,01168
 419,89;11914,353;  274,275;21375,380;55,16335
 420,48;12019,786;  316,334;21641,859;54,88002
 421,07;12104,139;  295,021;21753,803;55,03163
 421,66;11964,626;  264,236;21830,402;54,25346
 422,25;11988,782;  296,667;21813,606;54,33912
 422,84;11994,435;  309,661;21774,986;54,43558
 423,43;11810,817;  279,289;21522,667;54,28293
 424,02;11611,632;  317,899;21273,919;53,89255
 424,60;11363,298;  280,247;20895,165;53,76229
 425,19;11164,373;  303,727;20576,013;53,57386
 425,78;11103,465;  299,879;20533,943;53,39306
 426,37;10952,314;  300,559;20311,570;53,22947
 426,96;10847,437;  291,097;20209,604;52,99765
 427,55;10772,574;  290,538;20098,007;52,91961
 428,14;10596,523;  269,529;19836,295;52,77824
 428,73;10530,259;  281,161;19605,346;53,03767
 429,32;10487,749;  305,330;19611,131;52,74279
 429,91;10451,036;  314,083;19588,850;52,59183
 430,50;10321,624;  302,457;19440,017;52,35342
 431,08;10256,573;  309,062;19350,167;52,24230
 431,67;10153,803;  356,437;19182,511;52,04147
 432,26;10058,083;  369,582;19155,739;51,57256
 432,85; 9856,599;  389,277;18684,997;51,74610
 433,44; 9665,740;  399,263;18412,188;51,44349
 434,03; 9403,073;  415,629;18036,127;51,00562
 434,62; 9158,528;  379,723;17571,200;51,06487
 435,21; 9033,798;  391,044;17407,817;50,78962
 435,79; 8923,458;  387,482;17202,200;50,76491
 436,38; 8821,634;  372,464;17105,118;50,49510
 436,97; 8720,522;  358,769;17034,240;50,14403
 437,56; 8587,374;  370,126;16753,433;50,15622
 438,15; 8516,120;  339,517;16653,567;50,12001
 438,74; 8525,812;  368,745;16701,368;49,94340
 439,33; 8479,124;  335,057;16706,956;49,74418
 439,91; 8447,166;  297,814;16797,114;49,39211
 440,50; 8470,835;  350,043;16821,882;49,30106
 441,09; 8541,164;  350,489;16962,768;49,30495
 441,68; 8447,751;  332,934;16895,307;48,99550
 442,27; 8417,248;  305,941;16926,060;48,80415
 442,86; 8331,792;  288,599;16917,102;48,36991
 443,44; 8377,408;  297,221;16958,484;48,49684
 444,03; 8434,753;  383,829;17011,572;48,41862
 444,62; 8303,972;  301,060;16877,679;48,27832
 445,21; 8234,127;  313,833;16743,861;48,20621
 445,80; 8163,329;  354,583;16620,048;48,00813
 446,39; 8055,402;  387,817;16340,226;48,06537
 446,97; 7854,547;  304,411;16108,364;47,77372
 447,56; 7738,253;  307,088;15926,377;47,57685
 448,15; 7574,797;  308,412;15814,667;46,86099
 448,74; 7484,439;  332,179;15502,029;47,14786
 449,33; 7385,384;  304,168;15334,790;47,11193
 449,91; 7237,310;  318,687;15119,481;46,74494
 450,50; 7102,687;  307,768;15001,407;46,24395
 451,09; 7049,056;  327,073;14839,679;46,31823
 451,68; 6978,313;  321,220;14679,951;46,36269
 452,26; 6897,278;  327,981;14621,445;45,96015
 452,85; 6828,690;  312,140;14589,803;45,64157
 453,44; 6783,003;  323,115;14524,425;45,48797
 454,03; 6796,924;  287,745;14532,629;45,69485
 454,61; 6700,138;  312,344;14408,138;45,31702
 455,20; 6830,818;  343,412;14606,802;45,48291
 455,79; 6796,680;  327,812;14599,771;45,32572
 456,38; 6785,582;  339,168;14697,326;44,89722
 456,97; 6791,748;  321,711;14764,556;44,79752
 457,55; 6779,105;  321,931;14841,339;44,47271
 458,14; 6780,129;  364,406;14834,503;44,33780
 458,73; 6685,316;  334,083;14726,820;44,12804
 459,31; 6700,269;  345,914;14761,347;44,08022
 459,90; 6733,523;  374,845;14809,037;44,05288
 460,49; 6805,135;  439,850;14942,507;43,89048
 461,08; 6745,426;  331,906;14982,141;43,77759
 461,66; 6726,846;  330,607;15006,878;43,58218
 462,25; 6784,852;  324,669;15146,311;43,58615
 462,84; 6770,868;  355,289;15159,238;43,33694
 463,43; 6696,839;  298,575;15173,534;43,01366
 464,01; 6723,424;  333,568;15166,802;43,07797
 464,60; 6725,509;  401,350;15137,837;42,91497
 465,19; 6555,842;  311,794;14904,298;42,78942
 465,77; 6545,576;  332,171;14883,177;42,70087
 466,36; 6499,466;  365,652;14725,196;42,71594
 466,95; 6344,482;  339,804;14453,511;42,54501
 467,53; 6192,330;  344,546;14207,375;42,18319
 468,12; 6064,402;  357,390;13891,232;42,16846
 468,71; 5969,615;  332,254;13630,874;42,39057
 469,29; 5777,979;  319,618;13356,641;41,86815
 469,88; 5669,394;  327,073;13135,149;41,71057
 470,47; 5720,843;  397,213;13265,570;41,36993
 471,06; 5647,124;  337,366;13220,317;41,21538
 471,64; 5668,532;  348,524;13284,517;41,12562
 472,23; 5636,156;  316,727;13267,731;41,07349
 472,81; 5636,196;  315,202;13414,963;40,61902
 473,40; 5713,941;  322,342;13581,645;40,66276
 473,99; 5844,579;  447,957;13753,277;40,55988
 474,57; 5769,506;  334,035;13879,513;40,12757
 475,16; 5834,680;  341,122;14023,474;40,15069
 475,75; 5913,094;  370,563;14136,680;40,26212
 476,33; 5924,555;  365,782;14221,809;40,11809
 476,92; 5910,125;  347,493;14265,335;39,96763
 477,51; 5951,263;  345,864;14364,120;39,98642
 478,09; 5938,694;  362,556;14420,616;39,66506
 478,68; 5903,805;  358,552;14328,112;39,69526
 479,27; 5891,056;  382,254;14399,919;39,29899
 479,85; 5824,766;  344,552;14334,797;39,17168
 480,44; 5887,281;  333,855;14525,536;39,13156
 481,02; 6294,950;  361,076;15641,632;38,83284
 481,61; 7122,631;  386,388;17838,460;38,59853
 482,20; 7554,315;  374,998;19086,866;38,36772
 482,78; 7926,166;  397,780;19995,974;38,41367
 483,37; 8143,003;  383,214;20514,022;38,54683
 483,95; 8268,872;  414,134;20894,302;38,35290
 484,54; 8311,420;  418,005;21020,824;38,31230
 485,13; 8242,055;  395,122;21004,797;38,07403
 485,71; 8212,021;  365,127;20789,146;38,41993
 486,30; 8087,452;  418,665;20504,103;38,18083
 486,88; 8008,532;  467,431;20102,079;38,40711
 487,47; 7676,843;  420,427;19352,517;38,32866
 488,05; 7346,831;  420,806;18537,919;38,22919
 488,64; 6871,238;  411,103;17242,064;38,38245
 489,23; 6163,174;  407,650;15413,400;38,35546
 489,81; 5258,585;  427,031;13197,316;37,83435
 490,40; 4906,746;  364,874;12419,682;37,67685
 490,98; 4798,246;  348,639;12201,969;37,53888
 491,57; 4760,197;  380,802;12017,048;37,63580
 492,15; 4708,030;  350,868;11982,283;37,46030
 492,74; 4628,081;  367,728;11912,700;36,90224
 493,32; 4613,084;  382,871;11860,619;36,85578
 493,91; 4560,734;  347,631;11670,779;37,20787
 494,50; 4554,263;  362,303;11641,362;37,16586
 495,08; 4474,178;  350,381;11616,013;36,60511
 495,67; 4480,522;  364,094;11611,836;36,59782
 496,25; 4390,556;  315,775;11469,259;36,53370
 496,84; 4382,065;  318,711;11434,149;36,55595
 497,42; 4351,752;  308,387;11368,782;36,55715
 498,01; 4308,491;  336,554;11358,501;36,03662
 498,59; 4247,886;  299,923;11226,340;36,13227
 499,18; 4251,787;  285,015;11196,086;36,35549
 499,76; 4247,614;  331,698;11118,571;36,30260
 500,35; 4135,643;  312,529;10916,098;36,05498
 500,93; 4078,856;  315,849;10882,188;35,61315
 501,52; 4016,752;  294,155;10789,798;35,46802
 502,10; 4062,981;  320,136;10811,006;35,67716
 502,69; 3958,519;  298,514;10642,086;35,38434
 503,27; 3861,467;  279,303;10388,494;35,43472
 503,86; 3854,177;  302,209;10347,452;35,35970
 504,44; 3786,669;  276,818;10188,037;35,41291
 505,03; 3689,373;  249,356;10037,699;35,14401
 505,61; 3628,207;  285,975; 9844,697;34,96527
 506,19; 3547,576;  297,434; 9739,815;34,42080
 506,78; 3493,814;  256,880; 9486,017;35,07298
 507,36; 3413,034;  270,280; 9362,102;34,56682
 507,95; 3353,667;  273,797; 9190,431;34,54073
 508,53; 3296,975;  275,342; 9055,889;34,41281
 509,12; 3241,363;  275,107; 8923,036;34,30020
 509,70; 3197,248;  305,796; 8747,999;34,24997
 510,29; 3178,293;  312,711; 8644,959;34,39146
 510,87; 3067,183;  266,727; 8452,257;34,21227
 511,46; 3012,087;  262,262; 8258,370;34,38953
 512,04; 2968,598;  266,870; 8129,275;34,36261
 512,62; 2918,594;  276,801; 7965,173;34,36090
 513,21; 2829,882;  256,557; 7825,629;33,99789
 513,79; 2794,168;  258,149; 7658,275;34,26995
 514,38; 2732,800;  249,773; 7517,323;34,16594
 514,96; 2728,569;  291,543; 7468,307;33,95717
 515,54; 2644,696;  245,846; 7323,410;33,89372
 516,13; 2621,115;  278,767; 7239,029;33,65315
 516,71; 2565,133;  257,527; 7048,137;33,98231
 517,30; 2498,725;  243,750; 6947,063;33,63971
 517,88; 2475,775;  276,289; 6878,640;33,31368
 518,46; 2421,159;  246,131; 6730,611;33,54206
 519,05; 2393,705;  258,201; 6703,333;33,13360
 519,63; 2373,909;  265,128; 6616,340;33,20282
 520,22; 2363,908;  276,806; 6593,731;33,03984
 520,80; 2309,204;  257,805; 6508,854;32,81688
 521,38; 2350,143;  302,200; 6486,640;33,11445
 521,97; 2283,288;  259,336; 6443,422;32,72839
 522,55; 2271,869;  256,029; 6389,435;32,86657
 523,13; 2241,030;  248,793; 6387,909;32,45153
 523,72; 2225,056;  254,285; 6378,496;32,17999
 524,30; 2282,187;  280,479; 6516,379;32,09975
 524,89; 2257,353;  235,874; 6523,006;32,15265
 525,47; 2289,506;  256,707; 6618,150;31,95500
 526,05; 2279,322;  233,552; 6671,354;31,77746
 526,64; 2347,452;  276,701; 6804,078;31,72409
 527,22; 2344,372;  278,707; 6914,608;31,12862
 527,80; 2412,391;  307,010; 7003,360;31,44072
 528,39; 2379,113;  258,620; 7098,852;31,00031
 528,97; 2423,794;  240,238; 7247,004;31,16354
 529,55; 2486,669;  256,639; 7432,849;31,07531
 530,14; 2563,801;  263,770; 7651,572;31,13283
 530,72; 2550,840;  250,315; 7691,269;30,91708
 531,30; 2582,174;  234,461; 7850,156;30,82730
 531,89; 2588,921;  250,307; 7970,985;30,29026
 532,47; 2676,190;  277,150; 8056,487;30,83861
 533,05; 2666,114;  281,318; 8120,403;30,42186
 533,63; 2655,424;  292,071; 8132,062;30,14484
 534,22; 2648,305;  256,763; 8165,049;30,24096
 534,80; 2694,689;  275,600; 8286,546;30,19729
 535,38; 2828,736;  395,152; 8387,112;30,45040
 535,97; 2689,182;  261,073; 8292,999;30,23072
 536,55; 2756,535;  319,060; 8392,947;30,18961
 537,13; 2715,651;  312,462; 8402,746;29,70463
 537,71; 2745,740;  357,540; 8388,624;29,73696
 538,30; 2793,201;  366,760; 8503,060;29,82241
 538,88; 2842,142;  426,437; 8579,232;29,63039
 539,46; 2916,116;  452,061; 8757,867;29,66665
 540,05; 2923,665;  460,748; 8896,209;29,19718
 540,63; 3014,284;  522,671; 9121,692;28,97555
 541,21; 3041,815;  538,203; 9215,345;28,85295
 541,79; 3085,484;  563,819; 9361,944;28,66139
 542,38; 3149,831;  606,057; 9493,009;28,62369
 542,96; 3196,887;  601,118; 9675,574;28,60523
 543,54; 3264,915;  622,974; 9843,577;28,65258
 544,12; 3261,938;  587,971; 9988,780;28,44401
 544,70; 3241,410;  590,040;10076,676;27,94847
 545,29; 3328,273;  590,057;10209,475;28,46551
 545,87; 3310,868;  581,895;10317,020;28,03223
 546,45; 3267,881;  537,442;10274,433;28,04191
 547,03; 3299,338;  510,668;10355,245;28,32697
 547,62; 3283,515;  468,894;10495,003;28,07291
 548,20; 3325,756;  476,735;10633,114;28,05155
 548,78; 3317,351;  424,869;10763,419;27,97764
 549,36; 3320,413;  405,409;10946,028;27,65496
 549,94; 3344,953;  362,815;11069,248;27,85370
 550,53; 3389,486;  382,105;11307,205;27,52726
 551,11; 3416,908;  344,403;11423,540;27,73235
 551,69; 3458,936;  351,487;11763,498;27,22964
 552,27; 3496,298;  309,417;12006,016;27,24622
 552,85; 3581,785;  328,865;12368,352;27,01876
 553,44; 3638,494;  319,102;12606,340;27,01495
 554,02; 3723,189;  328,714;12948,701;26,89761
 554,60; 3715,654;  273,171;13286,616;26,45328
 555,18; 3881,082;  306,102;13666,087;26,75886
 555,76; 3940,201;  291,330;13938,209;26,73777
 556,34; 3999,888;  298,318;14286,410;26,46230
 556,93; 4083,736;  286,639;14742,172;26,26743
 557,51; 4138,573;  263,779;15086,384;26,14112
 558,09; 4237,240;  294,101;15381,647;26,13506
 558,67; 4323,665;  273,234;15790,824;26,10219
 559,25; 4384,681;  290,238;15994,843;26,07161
 559,83; 4433,791;  276,844;16349,542;25,86341
 560,41; 4485,550;  258,320;16741,412;25,64586
 561,00; 4570,457;  282,311;17058,456;25,56098
 561,58; 4612,666;  264,782;17295,942;25,52899
 562,16; 4644,481;  250,480;17563,758;25,37937
 562,74; 4755,839;  235,407;18019,534;25,41836
 563,32; 4811,591;  241,614;18463,047;25,08023
 563,90; 4896,138;  269,388;18751,178;25,03410
 564,48; 4985,904;  275,707;19141,490;24,96688
 565,06; 5114,700;  257,697;19742,025;24,92774
 565,65; 5292,195;  264,681;20392,804;24,97756
 566,23; 5472,569;  318,464;21174,520;24,71275
 566,81; 5583,942;  255,853;21803,886;24,72657
 567,39; 5829,864;  262,996;22719,322;24,78976
 567,97; 5917,154;  284,005;23375,137;24,39529
 568,55; 6138,884;  310,230;24221,748;24,37593
 569,13; 6268,023;  256,618;24876,340;24,41703
 569,71; 6483,205;  251,250;25867,724;24,32792
 570,29; 6712,986;  312,409;26786,630;24,17664
 570,87; 6901,893;  295,251;27584,995;24,20925
 571,45; 7073,803;  284,081;28290,910;24,24310
 572,03; 7059,672;  242,840;28672,731;23,97769
 572,61; 7208,134;  236,384;29338,205;23,95640
 573,20; 7386,281;  268,240;30011,990;23,93122
 573,78; 7552,065;  251,383;30679,324;23,99335
 574,36; 7668,561;  270,001;31202,664;23,91828
 574,94; 7780,864;  346,992;31659,909;23,74059
 575,52; 7685,182;  248,364;31794,562;23,57437
 576,10; 7851,506;  316,907;32346,027;23,52421
 576,68; 7974,483;  287,763;32898,129;23,57140
 577,26; 8124,982;  314,666;33577,054;23,48092
 577,84; 8214,249;  319,693;34085,120;23,38059
 578,42; 8283,198;  374,450;34419,056;23,23055
 579,00; 8219,922;  302,845;34499,448;23,15165
 579,58; 8271,614;  351,299;34762,836;23,01645
 580,16; 8206,664;  298,371;34720,555;22,97441
 580,74; 8209,287;  312,062;34999,443;22,76685
 581,32; 8214,560;  302,144;34998,792;22,80455
 581,90; 8186,375;  337,833;34962,551;22,66745
 582,48; 8172,214;  310,063;35030,909;22,64389
 583,06; 8123,772;  304,529;35274,242;22,36004
 583,64; 8110,379;  309,915;35241,277;22,33083
 584,22; 8022,971;  326,438;35129,513;22,11452
 584,80; 7943,729;  323,757;34846,492;22,07233
 585,38; 7792,323;  337,549;34446,987;21,85546
 585,96; 7683,772;  303,920;34460,178;21,60615
 586,54; 7699,601;  333,517;34444,318;21,59458
 587,12; 7634,390;  293,676;34628,958;21,37951
 587,70; 7652,857;  328,842;34745,450;21,28047
 588,28; 7573,729;  310,138;34788,386;21,06717
 588,86; 7543,002;  301,750;34790,816;20,99579
 589,44; 7493,181;  292,660;34892,229;20,81101
 590,02; 7525,539;  284,356;35066,005;20,81898
 590,59; 7496,390;  274,056;35229,930;20,66129
 591,17; 7520,977;  289,032;35454,411;20,56553
 591,75; 7468,408;  268,501;35548,657;20,40781
 592,33; 7455,489;  293,813;35684,014;20,23633
 592,91; 7493,050;  244,266;35979,050;20,28495
 593,49; 7505,703;  260,182;36252,507;20,13074
 594,07; 7532,646;  268,567;36510,042;20,04355
 594,65; 7529,951;  278,901;36473,655;20,03343
 595,23; 7522,382;  278,203;36899,907;19,78111
 595,81; 7487,220;  260,584;36986,144;19,67740
 596,39; 7449,281;  263,045;37078,246;19,51975
 596,97; 7480,258;  262,881;37280,341;19,49722
 597,55; 7463,559;  268,513;37309,661;19,42447
 598,12; 7352,157;  228,871;37275,975;19,22764
 598,70; 7371,430;  252,571;37385,292;19,17139
 599,28; 7405,927;  255,802;37516,125;19,18965
 599,86; 7350,084;  256,341;37574,361;19,00890
 600,44; 7313,046;  214,799;37647,632;18,96262
 601,02; 7324,825;  277,707;37762,855;18,79976
 601,60; 7273,235;  247,193;37705,661;18,75688
 602,18; 7254,172;  215,565;37747,488;18,75366
 602,75; 7222,058;  225,200;37756,486;18,64273
 603,33; 7192,334;  231,263;37790,142;18,53376
 603,91; 7171,033;  232,097;37721,005;18,50931
 604,49; 7156,977;  246,647;37758,719;18,42162
 605,07; 7148,516;  254,271;37840,623;18,34242
 605,65; 7098,672;  253,105;37978,541;18,14576
 606,23; 7096,213;  300,827;38103,897;17,97575
 606,80; 7089,497;  314,970;38058,931;17,94864
 607,38; 7110,468;  330,945;38170,951;17,91628
 607,96; 7065,285;  357,124;38194,081;17,72913
 608,54; 7076,111;  407,567;38186,986;17,65126
 609,12; 7017,839;  401,585;38354,841;17,43264
 609,70; 7029,069;  423,957;38368,755;17,40716
 610,27; 7018,232;  408,433;38434,389;17,38233
 610,85; 7005,954;  439,419;38529,208;17,23962
 611,43; 6940,727;  432,802;38461,630;17,11314
 612,01; 6876,670;  397,349;38276,607;17,10519
 612,59; 6844,981;  402,880;38270,554;17,01214
 613,16; 6801,840;  391,515;38193,761;16,95752
 613,74; 6738,446;  353,955;38003,668;16,95761
 614,32; 6680,895;  348,874;38082,592;16,78080
 614,90; 6674,896;  334,345;37936,711;16,86211
 615,48; 6531,263;  308,436;37630,400;16,67336
 616,05; 6489,278;  276,747;37543,036;16,67065
 616,63; 6442,602;  289,212;37447,978;16,55972
 617,21; 6327,220;  294,741;37336,804;16,28548
 617,79; 6303,020;  278,429;37268,587;16,28701
 618,36; 6285,262;  279,040;37275,913;16,23440
 618,94; 6127,536;  235,435;36803,429;16,11273
 619,52; 6096,921;  252,288;36682,811;16,04323
 620,10; 6069,743;  227,123;36564,307;16,07890
 620,67; 6040,713;  248,366;36475,273;15,98907
 621,25; 5997,685;  269,270;36341,460;15,88042
 621,83; 5949,239;  250,512;36286,399;15,81403
 622,41; 5936,740;  303,051;36333,853;15,63576
 622,98; 5887,159;  273,213;36021,051;15,70430
 623,56; 5832,279;  271,138;35995,510;15,56680
 624,14; 5785,196;  249,959;35918,701;15,51845
 624,72; 5717,578;  252,512;35827,288;15,36219
 625,29; 5675,236;  250,445;35931,420;15,20360
 625,87; 5727,812;  285,352;35809,835;15,32031
 626,45; 5621,394;  238,063;35661,101;15,19726
 627,02; 5597,577;  247,274;35708,369;15,08781
 627,60; 5520,526;  226,876;35519,474;14,99932
 628,18; 5491,839;  221,277;35613,072;14,89205
 628,76; 5463,090;  228,981;35574,709;14,80832
 629,33; 5475,413;  248,592;35594,440;14,78765
 629,91; 5411,051;  229,585;35549,845;14,66995
 630,49; 5470,836;  267,132;35731,416;14,67308
 631,06; 5440,802;  232,057;35821,413;14,63568
 631,64; 5405,325;  253,369;35757,143;14,51101
 632,22; 5339,418;  205,144;35640,993;14,48893
 632,79; 5395,375;  251,682;35986,595;14,39403
 633,37; 5383,431;  213,733;35965,811;14,45985
 633,95; 5355,852;  234,755;36011,080;14,31421
 634,52; 5318,366;  223,128;36189,746;14,16658
 635,10; 5341,689;  237,355;36134,077;14,21950
 635,68; 5323,506;  236,451;36399,578;14,06697
 636,25; 5279,734;  213,305;36258,939;14,05560
 636,83; 5254,705;  211,289;36618,786;13,85269
 637,41; 5253,622;  219,376;36545,939;13,85830
 637,98; 5257,868;  254,762;36757,760;13,70601
 638,56; 5267,626;  231,461;36902,018;13,73354
 639,13; 5214,594;  214,521;36975,552;13,60156
 639,71; 5272,013;  291,980;37153,186;13,51023
 640,29; 5144,867;  182,364;36922,296;13,50711
 640,86; 5175,242;  209,133;37025,954;13,48870
 641,44; 5153,309;  208,210;37082,535;13,41069
 642,02; 5125,992;  245,594;37072,039;13,25243
 642,59; 5109,905;  208,824;37344,697;13,19770
 643,17; 5125,049;  215,131;37240,431;13,26098
 643,74; 5069,655;  208,439;37332,781;13,09442
 644,32; 5066,106;  237,208;37176,285;13,07260
 644,89; 5021,327;  242,823;37273,866;12,90405
 645,47; 5004,779;  243,053;37273,601;12,85891
 646,05; 4985,538;  245,360;37166,720;12,83858
 646,62; 4927,375;  223,514;37172,070;12,73084
 647,20; 4923,673;  234,282;37345,959;12,63589
 647,77; 4866,970;  199,820;37107,617;12,64543
 648,35; 4879,191;  201,128;37019,429;12,70581
 648,92; 4883,951;  222,050;37109,163;12,63829
 649,50; 4771,402;  187,050;37018,975;12,44668
 650,08; 4791,162;  196,665;37002,864;12,48294
 650,65; 4789,998;  201,203;37153,906;12,41802
 651,23; 4849,450;  183,587;37858,641;12,38449
 651,80; 4985,902;  196,587;38886,914;12,37858
 652,38; 5041,276;  211,586;39315,956;12,35077
 652,95; 5079,267;  180,817;39767,691;12,37392
 653,53; 5110,103;  209,432;39916,195;12,34216
 654,10; 5134,170;  251,970;40112,391;12,24824
 654,68; 5073,853;  188,200;40043,126;12,25859
 655,25; 5099,612;  184,661;40190,399;12,28561
 655,83; 5034,602;  181,584;40149,673;12,14223
 656,40; 5103,208;  225,199;40164,484;12,21356
 656,98; 4987,659;  198,583;40117,296;11,99707
 657,55; 4972,111;  196,198;39966,800;12,00865
 658,13; 4906,871;  209,890;39564,150;11,93513
 658,70; 4873,091;  215,890;39353,577;11,89953
 659,28; 4692,543;  208,582;38518,389;11,70447
 659,85; 4580,380;  223,889;37644,816;11,64186
 660,43; 4566,216;  226,042;37703,627;11,58072
 661,00; 4554,360;  200,273;37690,824;11,61383
 661,58; 4575,658;  183,657;38098,943;11,58372
 662,15; 4608,186;  189,426;38278,293;11,60119
 662,73; 4651,792;  266,194;38514,951;11,46599
 663,30; 4635,474;  201,348;38722,532;11,51088
 663,88; 4633,695;  199,194;38917,882;11,45313
 664,45; 4634,147;  191,962;39128,386;11,40882
 665,03; 4625,983;  180,116;39535,275;11,29678
 665,60; 4776,281;  294,654;39975,317;11,29424
 666,17; 4686,425;  196,577;40085,206;11,25596
 666,75; 4756,723;  193,192;40366,325;11,35966
 667,32; 4788,636;  222,960;40701,444;11,27927
 667,90; 4755,781;  199,729;40865,410;11,20368
 668,47; 4814,463;  213,037;41122,145;11,24793
 669,05; 4807,145;  195,498;41525,418;11,15813
 669,62; 4819,443;  161,651;41570,152;11,24840
 670,19; 4838,664;  170,805;41644,041;11,25511
 670,77; 4838,116;  186,727;41806,699;11,17586
 671,34; 4803,799;  183,804;41733,895;11,11910
 671,92; 4827,481;  174,573;42058,707;11,10900
 672,49; 4853,087;  217,572;42205,442;11,04013
 673,06; 4812,923;  152,187;42138,792;11,10053
 673,64; 4814,298;  171,725;42104,065;11,07158
 674,21; 4799,672;  159,032;42078,646;11,07033
 674,79; 4899,663;  198,801;42393,304;11,14093
 675,36; 4881,345;  200,724;42591,808;11,04152
 675,93; 4791,335;  178,493;42368,773;10,93342
 676,51; 4831,402;  197,800;42560,431;10,93795
 677,08; 4849,239;  203,492;42653,935;10,94393
 677,65; 4889,460;  194,645;42768,747;11,02739
 678,23; 4856,373;  199,491;42960,481;10,89049
 678,80; 4847,209;  182,798;43157,062;10,85396
 679,38; 4869,123;  179,567;43234,797;10,89195
 679,95; 4935,882;  192,490;43585,839;10,93115
 680,52; 4949,564;  184,874;43712,189;10,94644
 681,10; 5000,170;  206,181;44094,693;10,92311
 681,67; 5032,545;  205,796;44358,197;10,93202
 682,24; 5008,381;  165,642;44439,086;10,93825
 682,82; 5050,371;  190,719;44980,975;10,84980
 683,39; 5156,746;  248,949;45322,786;10,88835
 683,96; 5155,121;  207,102;45596,752;10,90120
 684,54; 5187,650;  170,102;45884,717;10,97581
 685,11; 5250,947;  227,179;46233,990;10,91962
 685,68; 5224,091;  184,870;46585,648;10,86021
 686,25; 5261,851;  176,409;46650,383;10,94256
 686,83; 5267,379;  182,254;46974,502;10,86745
 687,40; 5332,985;  168,946;47295,314;10,95785
 687,97; 5392,129;  234,253;47525,126;10,90670
 688,55; 5354,042;  171,638;47628,091;10,92034
 689,12; 5402,186;  158,560;47867,057;10,99097
 689,69; 5378,253;  169,098;47921,253;10,90873
 690,26; 5423,013;  191,406;48096,295;10,92082
 690,84; 5441,157;  178,021;48252,646;10,94785
 691,41; 5475,609;  202,866;48323,073;10,95744
 691,98; 5519,522;  197,097;48542,730;11,00911
 692,56; 5540,358;  183,942;48735,388;11,03245
 693,13; 5568,348;  227,019;48732,354;11,01184
 693,70; 5543,108;  208,480;48950,165;10,94469
 694,27; 5534,329;  171,480;48987,362;10,98587
 694,84; 5571,165;  168,787;49159,404;11,02737
 695,42; 5638,001;  233,479;49321,370;11,00989
 695,99; 5620,069;  192,555;49499,028;11,00771
 696,56; 5618,982;  193,170;49347,147;11,03840
 697,13; 5687,587;  209,401;49731,497;11,06211
 697,71; 5651,654;  185,170;49833,078;11,01050
 698,28; 5718,491;  178,554;50208,428;11,07326
 698,85; 5701,789;  141,400;50168,855;11,11468
 699,42; 5742,240;  149,399;50374,128;11,13563
 699,99; 5746,154;  185,014;50482,632;11,05647
 700,57; 5807,759;  194,937;50544,444;11,14772
 701,14; 5806,826;  169,398;50638,332;11,17010
 701,71; 5845,432;  201,167;50861,529;11,14138
 702,28; 5851,499;  180,089;50900,033;11,18181
 702,85; 5841,643;  178,243;50990,537;11,14573
 703,43; 5925,249;  200,396;51200,810;11,22511
 704,00; 5980,469;  219,165;51443,006;11,24731
 704,57; 5928,921;  175,857;51548,356;11,19872
 705,14; 6001,527;  203,780;51643,245;11,27101
 705,71; 6017,286;  205,702;51681,441;11,28995
 706,28; 6022,969;  183,240;51600,484;11,35753
 706,86; 6066,959;  202,471;51881,295;11,34795
 707,43; 6120,795;  218,855;51784,184;11,44556
 708,00; 6042,016;  213,316;51829,688;11,29235
 708,57; 6041,391;  176,008;51758,115;11,37096
 709,14; 6096,458;  192,700;51864,465;11,42550
 709,71; 6114,910;  180,238;51958,661;11,46167
 710,28; 6103,131;  180,930;52143,011;11,39716
 710,86; 6157,429;  193,083;52296,977;11,44702
 711,43; 6225,419;  216,775;52232,712;11,55154
 712,00; 6223,255;  195,313;52462,831;11,53286
 712,57; 6278,707;  211,851;52613,181;11,57767
 713,14; 6259,389;  189,082;52694,839;11,56122
 713,71; 6277,918;  201,697;52622,189;11,59131
 714,28; 6285,600;  194,465;52587,155;11,62593
 714,85; 6296,898;  183,773;52370,428;11,71396
 715,42; 6347,888;  187,465;52488,239;11,77884
 716,00; 6465,571;  285,080;52650,513;11,80262
 716,57; 6411,253;  200,772;52897,863;11,78525
 717,14; 6428,397;  192,848;52773,751;11,85896
 717,71; 6450,849;  173,540;52697,409;11,95135
 718,28; 6556,532;  230,078;52941,529;12,00205
 718,85; 6508,291;  182,770;52799,648;12,02185
 719,42; 6562,666;  210,231;53093,690;12,01214
 719,99; 6541,733;  184,077;52844,041;12,07304
 720,56; 6621,954;  227,769;53152,468;12,08167
 721,13; 6620,483;  175,845;53200,664;12,15400
 721,70; 6643,165;  185,383;53172,091;12,18755
 722,27; 6672,155;  205,844;53200,287;12,20187
 722,84; 6780,915;  276,613;53456,945;12,23065
 723,41; 6698,213;  180,844;53359,757;12,25555
 723,98; 6785,049;  187,920;53547,107;12,36362
 724,55; 6823,039;  227,766;53651,611;12,34519
 725,12; 6754,260;  147,535;53561,499;12,36891
 725,69; 6875,942;  191,227;53752,773;12,48044
 726,27; 6901,933;  200,995;53853,507;12,48951
 726,84; 6977,154;  207,072;54174,550;12,54474
 727,41; 7044,144;  217,148;54087,361;12,67304
 727,98; 7079,595;  214,994;54389,173;12,67135
 728,55; 7118,124;  245,840;54299,215;12,71389
 729,12; 7099,653;  182,532;54383,412;12,76201
 729,69; 7181,258;  215,993;54596,223;12,80845
 730,26; 7209,787;  214,454;54893,881;12,79335
 730,82; 7242,008;  202,377;54664,001;12,92586
 731,39; 7298,075;  194,838;54859,889;12,99411
 731,96; 7362,373;  178,684;55130,547;13,07269
 732,53; 7443,363;  201,375;55288,743;13,14637
 733,10; 7457,738;  208,529;55336,401;13,14981
 733,67; 7500,267;  199,605;55680,674;13,15883
 734,24; 7541,641;  182,990;55314,486;13,34745
 734,81; 7563,093;  221,451;55457,451;13,29141
 735,38; 7494,160;  195,681;55160,648;13,27842
 735,95; 7506,843;  197,296;54940,152;13,35251
 736,52; 7561,833;  211,296;55244,348;13,35659
 737,09; 7584,515;  214,218;54918,775;13,47291
 737,66; 7667,275;  253,295;55065,510;13,52615
 738,23; 7687,726;  182,064;55071,091;13,67425
 738,80; 7844,255;  282,602;55413,749;13,71576
 739,37; 7808,938;  223,524;55577,329;13,70351
 739,94; 7816,158;  219,139;55636,987;13,70861
 740,51; 7967,533;  338,754;55690,645;13,78233
 741,07; 7838,600;  198,446;55597,764;13,79106
 741,64; 7950,437;  222,446;55863,268;13,88907
 742,21; 7972,658;  203,292;55899,157;13,94963
 742,78; 7961,648;  183,368;55685,815;14,01430
 743,35; 8047,792;  210,598;55994,011;14,04933
 743,92; 8110,167;  243,598;55992,746;14,11065
 744,49; 8137,849;  242,675;55892,942;14,18713
 745,06; 8125,609;  196,059;55982,831;14,21403
 745,63; 8135,830;  179,828;55944,873;14,26701
 746,19; 8160,281;  198,750;55946,608;14,28132
 746,76; 8182,425;  210,673;56009,573;14,28658
 747,33; 8227,877;  206,749;55937,000;14,39277
 747,90; 8331,867;  219,903;56211,274;14,48788
 748,47; 8320,780;  203,364;56132,470;14,51376
 749,04; 8331,155;  215,825;56220,743;14,49039
 749,61; 8462,222;  244,825;56133,016;14,70328
 750,17; 8470,982;  228,747;56134,674;14,74304
 750,74; 8480,203;  207,516;56069,563;14,80914
 751,31; 8473,654;  195,747;56056,836;14,81874
 751,88; 8489,337;  185,439;55958,725;14,88867
 752,45; 8550,019;  196,438;56058,613;14,95391
 753,02; 8581,086;  229,053;55964,963;14,98501
 753,58; 8522,923;  199,053;55822,313;14,96473
 754,15; 8620,682;  203,129;55941,202;15,10198
 754,72; 8644,980;  200,052;55777,860;15,19478
 755,29; 8618,970;  183,205;55631,364;15,21379
 755,86; 8648,884;  220,436;55711,868;15,18874
 756,42; 8732,489;  230,897;55701,141;15,32640
 756,99; 8688,018;  182,666;55721,106;15,31435
 757,56; 8750,316;  190,511;55504,764;15,47486
 758,13; 8725,460;  165,434;55387,884;15,50099
 758,70; 8821,219;  198,664;55463,849;15,60215
 759,26; 8900,594;  197,202;55611,968;15,70591
 759,83; 8970,507;  209,971;55725,934;15,78021
 760,40; 8964,266;  191,894;55604,130;15,83111
 760,97; 8988,487;  185,432;55511,250;15,91130
 761,53; 8962,247;  181,509;55224,369;15,95255
 762,10; 8978,160;  172,277;55091,411;16,03427
 762,67; 9019,919;  212,431;55061,685;16,05763
 763,24; 8968,679;  171,815;54714,881;16,12829
 763,80; 9011,131;  198,276;54863,231;16,12158
 764,37; 9058,582;  192,045;54886,350;16,21108
 764,94; 8993,188;  175,045;54448,085;16,24774
 765,50; 9076,255;  183,890;54363,897;16,41263
 766,07; 9115,399;  215,274;54565,170;16,37561
 766,64; 9090,235;  182,351;54260,905;16,47212
 767,21; 9101,841;  175,581;54071,639;16,56199
 767,77; 9109,139;  195,042;54050,067;16,55202
 768,34; 9149,052;  197,734;54016,263;16,63241
 768,91; 9148,735;  215,119;53876,228;16,64821
 769,47; 9221,263;  200,349;53913,732;16,79454
 770,04; 9200,946;  200,502;53773,775;16,80025
 770,61; 9215,013;  184,040;53592,663;16,90920
 771,18; 9222,080;  183,040;53376,936;16,99263
 771,74; 9317,685;  197,270;53561,671;17,09082
 772,31; 9311,753;  192,962;53366,021;17,14927
 772,88; 9248,127;  165,654;53131,910;17,14766
 773,44; 9297,810;  177,423;53045,491;17,25122
 774,01; 9412,031;  204,884;53152,764;17,38908
 774,58; 9363,021;  181,576;52650,345;17,49888
 775,14; 9405,396;  171,268;52948,387;17,49646
 775,71; 9389,232;  169,806;52857,353;17,49830
 776,27; 9474,299;  251,959;52715,395;17,57860
 776,84; 9554,059;  300,498;52833,438;17,61478
 777,41; 9477,972;  208,112;52554,249;17,70877
 777,97; 9497,885;  180,497;52285,215;17,88204
 778,54; 9531,337;  209,496;52279,488;17,90252
 779,11; 9594,404;  233,880;52323,607;17,97000
 779,67; 9581,317;  201,649;52191,727;18,04127
 780,24; 9535,384;  208,803;52040,077;17,99412
 780,80; 9607,298;  226,725;52063,427;18,09639
 781,37; 9634,057;  218,263;51949,700;18,20130
 781,94; 9569,355;  211,263;51784,743;18,14516
 782,50; 9635,345;  206,878;51658,554;18,32490
 783,07; 9726,104;  232,724;51743,289;18,42997
 783,63; 9659,479;  216,646;51456,332;18,42875
 784,20; 9703,162;  237,031;51300,528;18,53796
 784,77; 9665,844;  215,799;51225,186;18,52609
 785,33; 9651,834;  189,184;50983,074;18,62951
 785,90; 9743,671;  208,568;51032,809;18,76093
 786,46; 9743,892;  232,952;50900,159;18,77139
 787,03; 9706,574;  198,490;50652,278;18,84513
 787,59; 9788,410;  205,490;50513,936;19,04833
 788,16; 9811,631;  223,335;50510,517;19,06708
 788,73; 9808,083;  227,258;50512,483;19,05296
 789,29; 9785,381;  202,104;50073,679;19,21591
 789,86; 9852,140;  240,411;49922,875;19,34632
 790,42; 9811,515;  217,103;49712,533;19,38444
 790,99; 9808,813;  223,564;49431,806;19,47895
 791,55; 9859,726;  210,025;49395,233;19,61911
 792,12; 9883,870;  242,486;49436,045;19,59887
 792,68; 9838,553;  222,178;49136,549;19,65961
 793,25; 9867,928;  237,870;48929,591;19,77761
 793,81; 9869,533;  315,178;48567,865;19,80067
 794,38; 9796,370;  200,716;48364,061;19,92315
 794,94; 9834,206;  215,484;48267,103;20,01748
 795,51; 9875,965;  220,407;47920,300;20,24231
 796,07; 9804,725;  219,945;47741,650;20,16927
 796,64; 9833,869;  236,868;47878,769;20,14403
 797,20; 9763,705;  236,867;47325,427;20,23175
 797,77; 9699,772;  203,867;47092,700;20,25195
 798,33; 9718,916;  227,020;46897,743;20,33801
 798,90; 9735,445;  246,635;46832,554;20,36841
 799,46; 9747,127;  214,327;46419,674;20,63138
 800,03; 9739,810;  225,788;46231,408;20,68013
 800,59; 9680,723;  238,019;46110,143;20,58484
 801,15; 9650,098;  256,249;45870,109;20,59429
 801,72; 9663,473;  224,249;45530,997;20,83404
 802,28; 9647,847;  245,941;45259,578;20,88680
 802,85; 9572,222;  221,325;45098,005;20,83687
 803,41; 9577,059;  213,863;44987,740;20,91218
 803,98; 9523,895;  212,478;44489,628;21,02985
 804,54; 9546,270;  226,401;44177,363;21,20515
 805,11; 9498,029;  229,939;44040,252;21,15504
 805,67; 9533,019;  256,400;43948,294;21,23190
 806,23; 9447,933;  228,938;43562,798;21,27434
 806,80; 9483,692;  250,937;43519,687;21,33816
 807,36; 9494,990;  250,783;43446,575;21,40071
 807,93; 9512,903;  271,321;43091,618;21,58225
 808,49; 9435,355;  215,629;42657,968;21,72295
 809,05; 9398,268;  209,320;42565,241;21,69460
 809,62; 9456,258;  243,782;42518,053;21,79216
 810,18; 9497,018;  238,320;42428,711;21,94504
 810,74; 9420,316;  207,627;42170,753;21,95425
 811,31; 9420,306;  208,165;41899,949;22,09582
 811,87; 9417,680;  242,395;41779,299;22,08948
 812,44; 9473,594;  268,549;41752,265;22,18954
 813,00; 9413,276;  188,702;41412,769;22,37667
 813,56; 9518,728;  238,163;41490,811;22,49689
 814,13; 9517,334;  237,471;41363,315;22,56455
 814,69; 9513,016;  232,624;41238,973;22,63160
 815,25; 9457,314;  201,008;40772,477;22,81482
 815,82; 9479,304;  251,854;40720,673;22,80138
 816,38; 9494,294;  279,854;40600,100;22,85314
 816,94; 9403,592;  219,622;40284,912;22,92251
 817,51; 9387,352;  205,084;40110,185;23,01026
 818,07; 9311,572;  218,160;39827,074;22,95799
 818,63; 9322,640;  227,237;39544,732;23,13322
 819,20; 9356,245;  226,775;39453,005;23,27389
 819,76; 9298,466;  215,543;39198,432;23,29977
 820,32; 9333,995;  262,312;38981,551;23,42939
 820,89; 9251,831;  244,773;38803,901;23,35908
 821,45; 9213,975;  223,081;38485,944;23,49770
 822,01; 9196,119;  252,080;38235,371;23,54730
 822,57; 9199,417;  253,080;38185,336;23,58504
 823,14; 9157,561;  211,618;37953,917;23,70270
 823,70; 9142,705;  219,233;37624,267;23,85634
 824,26; 9155,541;  212,771;37509,541;23,97733
 824,82; 9163,455;  257,001;37435,352;23,95602
 825,39; 9075,214;  223,539;37111,241;23,99628
 825,95; 9071,358;  237,693;37266,206;23,85639
 826,51; 9012,425;  241,308;36743,710;24,02888
 827,08; 9142,031;  287,077;36809,907;24,24498
 827,64; 9009,252;  243,384;36649,180;24,07822
 828,20; 8992,703;  217,845;36443,299;24,22291
 828,76; 9050,540;  259,306;36381,188;24,33770
 829,32; 8979,145;  260,075;36132,615;24,30570
 829,89; 8934,982;  219,459;36017,657;24,34626
 830,45; 8952,433;  239,305;36062,315;24,32271
 831,01; 8970,731;  232,766;35843,896;24,53717
 831,57; 8978,491;  229,304;35652,708;24,69889
 832,14; 8984,865;  220,996;35711,366;24,69366
 832,70; 8941,086;  201,765;35426,331;24,81030
 833,26; 8950,153;  190,072;35366,373;24,90336
 833,82; 8937,221;  224,226;35296,031;24,84330
 834,38; 8955,595;  220,610;35233,689;24,94778
 834,95; 8930,047;  216,379;35182,193;24,92054
 835,51; 8920,730;  175,840;35039,466;25,08313
 836,07; 8976,104;  231,532;35112,201;25,06997
 836,63; 9012,018;  246,223;35036,859;25,19584
 837,19; 9027,700;  239,915;34829,286;25,40603
 837,75; 8942,383;  186,223;34607,559;25,43818
 838,32; 9007,604;  249,607;34752,602;25,38329
 838,88; 8986,671;  251,760;34674,259;25,37558
 839,44; 9058,584;  243,606;34681,456;25,59677
 840,00; 9050,189;  237,144;34592,652;25,65250
 840,56; 8970,180;  220,451;34297,540;25,67628
 841,12; 8984,939;  205,989;34213,660;25,81462
 841,68; 8928,698;  199,528;34080,395;25,76431
 842,25; 8960,381;  221,219;34154,052;25,75429
 842,81; 8923,602;  217,604;33854,479;25,88230
 843,37; 8990,438;  193,680;33824,753;26,15664
 843,93; 8993,351;  216,680;33801,257;26,13304
 844,49; 9016,803;  234,064;33788,914;26,17428
 845,05; 8913,101;  184,756;33613,957;26,10994
 845,61; 9060,322;  244,986;33598,845;26,42973
 846,17; 9001,543;  218,832;33423,196;26,45047
 846,73; 9020,995;  223,062;33429,700;26,49450
 847,29; 8958,446;  209,293;33178,127;26,53765
 847,86; 8991,667;  212,138;33157,861;26,64846
 848,42; 8980,273;  210,984;33008,442;26,73771
 848,98; 9002,878;  226,215;32922,562;26,84295
 849,54; 9003,484;  208,753;32905,066;26,89824
 850,10; 9017,474;  239,521;32723,185;27,02267
 850,66; 9018,695;  197,906;32620,150;27,20598
 851,22; 8994,608;  190,674;32551,501;27,20553
 851,78; 9082,983;  251,597;32665,620;27,24557
 852,34; 8990,973;  232,058;32323,124;27,29394
 852,90; 9032,425;  219,673;32188,320;27,56686
 853,46; 8939,492;  207,211;31997,670;27,46824
 854,02; 8982,175;  221,057;32021,020;27,55072
 854,58; 8908,549;  211,903;31732,217;27,59061
 855,14; 8962,463;  210,441;31675,105;27,81540
 855,70; 8868,684;  181,133;31478,609;27,75799
 856,26; 8886,751;  220,902;31426,959;27,76977
 856,82; 8874,126;  217,440;31362,002;27,79518
 857,38; 8922,731;  257,285;31168,583;28,03326
 857,94; 8873,260;  214,208;31128,625;28,00975
 858,50; 8919,712;  245,131;30932,668;28,26744
 859,06; 8861,240;  199,284;30843,633;28,26608
 859,62; 8879,230;  240,976;30800,368;28,26710
 860,18; 8851,913;  219,976;30540,795;28,46868
 860,74; 8799,441;  195,821;30480,376;28,40927
 861,30; 8826,970;  199,590;30208,034;28,74984
 861,86; 8898,576;  285,897;30398,922;28,60117
 862,42; 8800,027;  214,128;30109,349;28,71997
 862,98; 8888,248;  259,435;30098,776;28,91757
 863,54; 8797,931;  215,973;29904,203;28,90694
 864,10; 8819,152;  217,665;29954,015;28,92583
 864,66; 8775,527;  200,357;29743,904;29,02553
 865,22; 8782,824;  217,510;29580,946;29,17000
 865,78; 8768,815;  221,048;29447,373;29,24681
 866,34; 8741,574;  210,740;29419,031;29,20689
 866,90; 8723,949;  227,201;29261,150;29,26487
 867,45; 8715,170;  229,432;29022,039;29,47193
 868,01; 8679,237;  226,739;28907,543;29,47092
 868,57; 8639,304;  217,200;28737,278;29,53044
 869,13; 8579,756;  196,892;28576,012;29,53884
 869,69; 8582,361;  210,815;28538,901;29,55211
 870,25; 8597,198;  193,968;28389,482;29,80343
 870,81; 8617,726;  210,814;28317,832;29,91037
 871,37; 8562,563;  234,198;28271,259;29,70484
 871,93; 8582,553;  250,505;28096,686;29,92169
 872,49; 8544,081;  271,197;27928,728;29,91187
 873,04; 8506,764;  201,966;27787,309;30,10583
 873,60; 8457,293;  196,812;27667,890;30,06974
 874,16; 8440,898;  226,888;27518,163;30,09757
 874,72; 8421,898;  220,965;27458,856;30,10855
 875,28; 8481,052;  213,581;27358,933;30,45630
 875,84; 8434,667;  231,658;27373,779;30,22243
 876,40; 8454,590;  210,196;27305,779;30,42708
 876,95; 8510,283;  226,812;27243,010;30,66113
 877,51; 8528,206;  252,196;27220,471;30,68795
 878,07; 8633,744;  263,427;27186,010;31,09032
 878,63; 8613,821;  231,042;27179,163;31,10710
 879,19; 8666,437;  232,965;27231,625;31,23663
 879,75; 8699,975;  212,581;27203,010;31,44594
 880,30; 8736,821;  217,273;27291,010;31,46794
 880,86; 8819,590;  266,965;27390,625;31,53197
 881,42; 8821,744;  207,350;27328,933;31,76214
 881,98; 8893,360;  236,119;27395,548;31,87563
 882,54; 8945,206;  219,888;27527,625;31,95181
 883,09; 8940,975;  242,581;27595,548;31,80055
 883,65; 9003,821;  210,965;27656,548;32,03742
 884,21; 9178,667;  256,888;27779,240;32,41648
 884,77; 9128,744;  211,196;27917,548;32,18593
 885,32; 9238,898;  226,427;28054,702;32,38602
 885,88; 9345,744;  248,658;28194,779;32,55223
 886,44; 9413,206;  230,042;28265,779;32,75521
 887,00; 9468,206;  251,350;28209,394;32,96674
 887,56; 9478,590;  215,119;28435,010;32,82604
 888,11; 9543,898;  229,427;28349,702;33,12368
 888,67; 9666,360;  245,581;28548,394;33,28566
 889,23; 9643,975;  235,888;28482,010;33,30753
 889,79; 9651,360;  210,581;28431,856;33,45270
 890,34; 9670,052;  240,196;28384,163;33,50578
 890,90; 9851,052;  305,042;28557,779;33,78791
 891,46; 9757,283;  216,350;28416,471;33,83295
 892,01; 9822,975;  245,196;28408,933;34,00749
 892,57; 9823,898;  261,196;28336,240;34,06122
 893,13; 9754,360;  229,581;28152,471;34,11101
 893,69; 9803,590;  210,658;28070,625;34,43268
 894,24; 9752,821;  218,427;27938,933;34,39473
 894,80; 9754,513;  230,504;27894,010;34,42806
 895,36; 9765,052;  222,812;27727,471;34,69318
 895,91; 9697,975;  229,812;27520,779;34,69340
 896,47; 9680,513;  250,119;27423,548;34,70447
 897,03; 9630,513;  233,888;27244,394;34,78878
 897,58; 9577,975;  234,581;27167,779;34,69099
 898,14; 9602,129;  243,812;27009,779;34,96349
 898,70; 9534,898;  208,581;26779,856;35,09925
 899,25; 9538,052;  233,273;26867,240;34,93576
 899,81; 9518,052;  239,888;26652,471;35,12782
 900,37; 9452,206;  203,735;26454,163;35,23170
 900,92; 9468,590;  233,658;26442,163;35,23640
 901,48; 9409,975;  217,888;26289,856;35,25659
 902,03; 9359,898;  215,504;26127,163;35,29065
 902,59; 9407,821;  206,196;26029,856;35,63254
 903,15; 9365,667;  239,504;25902,163;35,56203
 903,70; 9269,437;  234,427;25715,010;35,45841
 904,26; 9281,052;  218,119;25565,471;35,75495
 904,82; 9306,821;  230,196;25528,702;35,87811
 905,37; 9270,898;  238,658;25409,625;35,88356
 905,93; 9242,898;  222,888;25257,163;36,03064
 906,48; 9228,283;  245,119;25269,240;35,89802
 907,04; 9218,437;  244,350;25191,933;35,97177
 907,60; 9184,206;  243,735;24960,010;36,17241
 908,15; 9139,898;  217,273;24885,010;36,17124
 908,71; 9156,437;  236,735;24848,548;36,24155
 909,26; 9123,129;  239,427;24733,163;36,26928
 909,82; 9092,437;  238,812;24547,548;36,42158
 910,37; 9151,129;  279,735;24504,317;36,62145
 910,93; 9070,052;  208,119;24324,625;36,74634
 911,48; 9071,898;  229,658;24223,548;36,85205
 912,04; 9066,513;  221,658;24064,779;37,09605
 912,60; 9075,437;  233,196;24029,163;37,15857
 913,15; 8989,283;  226,735;23886,394;37,03582
 913,71; 8950,360;  219,735;23652,856;37,25763
 914,26; 8954,898;  207,196;23636,010;37,33737
 914,82; 8948,744;  237,350;23560,856;37,35028
 915,37; 8928,129;  214,735;23486,856;37,44134
 915,93; 8990,744;  299,273;23381,471;37,65443
 916,48; 8885,667;  209,504;23217,548;37,70926
 917,04; 8899,129;  244,735;23063,394;37,92683
 917,59; 8933,590;  266,427;23124,548;37,91722
 918,15; 8749,667;  195,119;22832,394;37,78965
 918,70; 8760,667;  229,735;22744,933;37,88966
 919,26; 8804,129;  238,196;22600,702;38,30489
 919,81; 8687,744;  220,581;22460,471;38,07197
 920,37; 8732,975;  224,196;22430,317;38,31727
 920,92; 8681,513;  243,042;22403,625;38,07874
 921,48; 8680,744;  217,273;22091,394;38,69171
 922,03; 8646,206;  211,735;22110,163;38,51633
 922,59; 8639,283;  229,196;22055,702;38,53153
 923,14; 8661,360;  230,427;21812,163;39,06513
 923,69; 8629,898;  254,119;21781,163;38,90817
 924,25; 8657,206;  261,504;21795,010;38,98902
 924,80; 8589,206;  226,042;21542,471;39,23342
 925,36; 8546,744;  220,042;21428,625;39,26100
 925,91; 8511,360;  219,042;21370,010;39,20538
 926,47; 8506,052;  199,427;21331,394;39,30834
 927,02; 8554,052;  303,888;21219,317;39,44535
 927,57; 8464,360;  208,581;21006,087;39,69600
 928,13; 8470,129;  219,812;20948,010;39,80239
 928,68; 8435,821;  224,350;20900,933;39,71387
 929,24; 8395,437;  203,581;20710,625;39,94655
 929,79; 8350,975;  216,273;20580,240;39,94655
 930,34; 8315,206;  222,735;20442,317;40,02294
 930,90; 8321,206;  209,504;20414,856;40,14630
 931,45; 8327,283;  233,812;20431,779;40,07072
 932,01; 8307,129;  225,196;20330,317;40,19838
 932,56; 8313,052;  250,350;20097,779;40,62341
 933,11; 8346,590;  256,735;20132,548;40,70201
 933,67; 8251,283;  219,965;19943,317;40,71984
 934,22; 8206,590;  229,888;19903,317;40,54556
 934,77; 8213,898;  254,504;19720,779;40,88812
 935,33; 8148,437;  227,196;19621,779;40,84254
 935,88; 8174,744;  237,658;19570,317;41,05533
 936,43; 8141,590;  233,427;19440,933;41,17226
 936,99; 8165,975;  223,658;19387,779;41,44368
 937,54; 8078,975;  202,581;19253,394;41,34414
 938,09; 8100,590;  237,888;19226,317;41,40786
 938,65; 8058,667;  238,350;19047,317;41,57760
 939,20; 8048,206;  218,042;19020,779;41,64374
 939,75; 8073,744;  209,427;18954,471;41,95411
 940,31; 8000,975;  201,196;18819,933;41,89210
 940,86; 8076,821;  230,504;18780,163;42,29898
 941,41; 8131,513;  328,273;18720,317;42,42726
 941,96; 7985,744;  217,888;18550,471;42,37186
 942,52; 7952,129;  211,350;18442,856;42,45825
 943,07; 7944,360;  207,965;18381,087;42,57053
 943,62; 7947,975;  210,042;18287,010;42,80548
 944,18; 7936,821;  194,965;18255,317;42,86658
 944,73; 7937,206;  243,196;18020,240;43,28059
 945,28; 7831,898;  187,735;17911,933;43,12840
 945,83; 7921,360;  218,658;17909,087;43,54163
 946,39; 7928,898;  223,581;17914,702;43,55471
 946,94; 7925,283;  246,888;17736,010;43,90383
 947,49; 7873,590;  212,812;17631,625;43,97991
 948,04; 7933,821;  278,273;17690,317;43,96697
 948,59; 7852,283;  244,042;17645,163;43,72270
 949,15; 7855,821;  217,888;17503,625;44,18633
 949,70; 7893,590;  226,042;17385,471;44,68417
 950,25; 7883,283;  232,965;17277,010;44,88558
 950,80; 7813,283;  189,812;17122,702;45,02168
 951,36; 7845,052;  190,273;17124,548;45,20287
 951,91; 7891,898;  235,273;17139,933;45,29299
 952,46; 7774,283;  221,965;16908,394;45,26024
 953,01; 7787,206;  230,658;16897,010;45,34014
 953,56; 7713,129;  206,888;16755,471;45,35881
 954,11; 7751,667;  234,888;16748,317;45,51919
 954,67; 7711,898;  211,350;16653,087;45,61895
 955,22; 7625,898;  196,658;16463,625;45,67072
 955,77; 7680,667;  240,812;16551,240;45,61410
 956,32; 7708,667;  277,504;16403,163;46,08285
 956,87; 7596,360;  210,042;16257,240;46,02870
 957,42; 7595,283;  217,735;16189,933;46,18994
 957,98; 7572,975;  214,658;16138,933;46,20818
 958,53; 7575,360;  259,350;16123,010;46,11804
 959,08; 7521,975;  205,196;15932,779;46,52195
 959,63; 7444,513;  215,427;15836,471;46,27787
 960,18; 7456,744;  232,119;15843,548;46,27779
 960,73; 7470,667;  237,350;15819,087;46,42177
 961,28; 7425,590;  202,350;15655,010;46,74432
 961,83; 7402,821;  245,965;15641,548;46,48642
 962,39; 7328,975;  208,504;15504,702;46,55059
 962,94; 7312,206;  231,812;15445,163;46,54066
 963,49; 7298,513;  235,658;15295,779;46,89774
 964,04; 7313,821;  241,119;15216,548;47,22871
 964,59; 7265,283;  200,504;15139,317;47,29143
 965,14; 7269,975;  248,888;15098,856;47,28015
 965,69; 7217,206;  222,119;14957,163;47,47245
 966,24; 7209,513;  221,581;14840,317;47,80121
 966,79; 7182,360;  243,504;14789,394;47,70320
 967,34; 7126,898;  203,196;14734,856;47,64564
 967,89; 7129,590;  224,273;14617,625;47,97574
 968,44; 7090,744;  220,812;14560,933;47,90708
 968,99; 7093,360;  236,504;14552,625;47,89604
 969,55; 7044,283;  234,504;14408,625;48,04375
 970,10; 7076,898;  235,196;14297,702;48,65208
 970,65; 7067,129;  247,658;14166,471;48,99463
 971,20; 6970,206;  213,196;14077,240;48,73765
 971,75; 6895,360;  195,581;13935,163;48,76261
 972,30; 6995,975;  232,196;13902,010;49,47967
 972,85; 6902,667;  217,273;13824,240;49,13214
 973,40; 6872,437;  216,042;13728,163;49,26239
 973,95; 6904,667;  235,119;13695,010;49,55128
 974,50; 6881,360;  252,581;13630,317;49,55083
 975,05; 6819,360;  226,273;13502,240;49,66182
 975,60; 6810,437;  241,581;13442,010;49,76244
 976,15; 6768,360;  224,042;13283,010;50,11359
 976,70; 6748,283;  231,196;13184,856;50,31077
 977,25; 6723,283;  231,427;13159,010;50,21709
 977,80; 6698,744;  224,735;13054,240;50,46188
 978,35; 6595,744;  244,042;12839,394;50,42894
 978,89; 6561,744;  209,581;12779,702;50,53383
 979,44; 6599,052;  234,350;12821,779;50,56396
 979,99; 6534,206;  213,658;12606,625;51,00109
 980,54; 6498,975;  251,965;12527,010;50,89195
 981,09; 6443,821;  245,042;12521,856;50,49176
 981,64; 6440,206;  235,042;12382,933;51,08017
 982,19; 6422,437;  277,350;12315,933;51,04493
 982,74; 6368,360;  242,888;12229,010;51,10470
 983,29; 6332,667;  222,581;12037,625;51,71446
 983,84; 6292,129;  242,119;11923,702;51,79101
 984,39; 6349,129;  322,427;11991,625;51,64624
 984,94; 6187,052;  197,196;11736,779;51,90704
 985,49; 6200,744;  265,119;11708,163;51,87103
 986,03; 6157,283;  251,119;11659,548;51,77017
 986,58; 6138,360;  285,658;11489,240;52,23956
 987,13; 6053,206;  237,350;11355,394;52,31006
 987,68; 5990,667;  253,581;11278,625;52,03686
 988,23; 6002,667;  258,119;11222,317;52,39369
 988,78; 5892,283;  226,812;11108,548;52,06404
 989,33; 5912,360;  256,350;11009,548;52,59840
 989,88; 5846,052;  269,196;10959,625;52,16681
 990,42; 5757,898;  223,812;10761,856;52,51531
 990,97; 5738,129;  224,504;10640,163;52,93592
 991,52; 5723,360;  251,350;10569,779;53,03142
 992,07; 5704,129;  280,273;10517,317;52,98263
 992,62; 5656,437;  233,812;10391,856;53,38257
 993,17; 5602,590;  256,581;10232,933;53,58682
 993,71; 5562,437;  267,427;10219,010;53,20771
 994,26; 5505,129;  231,119; 9997,471;54,00184
 994,81; 5485,437;  263,119;10026,471;53,48898
 995,36; 5371,360;  242,965; 9858,779;53,33292
 995,91; 5373,667;  238,042; 9744,163;54,02440
 996,45; 5307,821;  245,581; 9689,625;53,60246
 997,00; 5223,283;  213,735; 9582,010;53,47354
 997,55; 5269,513;  242,581; 9489,933;54,36078
 998,10; 5189,206;  275,965; 9388,933;53,91483
 998,65; 5152,206;  241,735; 9351,163;53,90537
 999,19; 5158,437;  257,042; 9219,625;54,68730
 999,74; 5086,898;  279,735; 9113,163;54,42013
1000,29; 5088,744;  248,042; 9071,317;54,86287
1000,84; 4990,590;  242,427; 8884,625;54,94162
1001,38; 4962,437;  243,119; 8792,087;55,20336
1001,93; 4933,360;  253,581; 8761,702;55,00367
1002,48; 4839,283;  232,273; 8619,087;54,93159
1003,03; 4850,513;  255,273; 8565,471;55,29640
1003,57; 4763,744;  241,735; 8497,317;54,77517
1004,12; 4775,437;  278,658; 8389,702;55,44020
1004,67; 4700,437;  240,427; 8254,087;55,65509
1005,22; 4632,437;  232,196; 8159,702;55,50599
1005,76; 4542,590;  224,888; 8040,548;55,24424
1006,31; 4551,898;  247,504; 7979,240;55,67177
1006,86; 4484,360;  225,196; 7830,087;56,00559
1007,40; 4417,052;  225,735; 7735,856;55,80892
1007,95; 4347,898;  248,504; 7658,625;55,32155
1008,50; 4352,052;  247,735; 7545,702;56,23918
1009,04; 4260,513;  234,504; 7434,240;55,91885
1009,59; 4229,360;  253,965; 7270,317;56,65899
1010,14; 4155,360;  234,427; 7237,087;55,99205
1010,68; 4150,129;  232,965; 7149,548;56,63438
1011,23; 4077,821;  233,119; 6996,548;56,84546
1011,78; 4050,898;  259,042; 6943,856;56,72343
1012,32; 4004,513;  280,504; 6822,394;56,92559
1012,87; 4001,513;  269,735; 6837,548;56,81920
1013,42; 3936,898;  220,196; 6690,702;57,44067
1013,96; 3957,052;  272,658; 6717,240;57,17041
1014,51; 3895,437;  209,119; 6585,163;57,81512
1015,06; 3918,052;  215,427; 6554,240;58,41196
1015,60; 3962,052;  279,888; 6607,087;58,19580
1016,15; 3957,360;  231,812; 6560,856;58,86431
1016,69; 3982,667;  248,273; 6614,856;58,65618
1017,24; 3987,283;  214,504; 6589,394;59,18186
1017,79; 4041,898;  271,658; 6636,317;59,23711
1018,33; 4057,744;  238,196; 6634,779;59,71232
1018,88; 4073,129;  252,427; 6665,548;59,57633
1019,42; 4079,821;  238,427; 6630,163;60,09938
1019,97; 4054,283;  221,504; 6621,625;59,88604
1020,51; 4132,283;  277,965; 6689,548;60,11491
1021,06; 4141,898;  219,427; 6628,625;61,20065
1021,61; 4076,513;  191,350; 6623,933;60,39819
1022,15; 4058,360;  195,504; 6586,702;60,44024
1022,70; 4108,206;  228,658; 6589,856;60,98769
1023,24; 4075,513;  214,273; 6503,702;61,39254
1023,79; 4062,437;  226,196; 6506,702;61,08171
1024,33; 4006,821;  219,735; 6428,010;61,00062
1024,88; 3999,667;  258,965; 6364,010;61,27231
1025,42; 3916,437;  259,965; 6247,702;61,06600
1025,97; 3895,744;  230,812; 6179,240;61,61178
1026,51; 3799,898;  192,965; 6035,548;61,73524
1027,06; 3777,898;  229,888; 5981,933;61,68259
1027,60; 3711,437;  250,042; 5897,933;61,28650
1028,15; 3655,898;  256,888; 5856,087;60,70529
1028,69; 3591,206;  184,427; 5682,548;61,96260
1029,24; 3561,206;  224,042; 5602,548;62,04629
1029,78; 3510,206;  208,965; 5551,394;61,79288
1030,33; 3432,129;  207,812; 5448,317;61,52683
1030,87; 3413,360;  227,042; 5380,548;61,82815
1031,42; 3373,283;  211,581; 5271,625;62,48368
1031,96; 3358,360;  245,042; 5232,625;62,42137
1032,51; 3273,129;  219,888; 5156,702;61,84638
1033,05; 3245,283;  231,965; 5132,702;61,48703
1033,60; 3161,744;  196,042; 4966,702;62,16545
1034,14; 3143,437;  212,658; 4919,394;62,26775
1034,69; 3126,590;  220,196; 4855,933;62,69541
1035,23; 3100,513;  229,735; 4821,702;62,51741
1035,77; 3055,744;  218,581; 4729,010;62,90230
1036,32; 2996,744;  204,504; 4662,702;62,63159
1036,86; 2979,667;  240,888; 4599,163;62,84089
1037,41; 2955,052;  243,196; 4541,240;63,09511
1037,95; 2860,744;  198,196; 4430,548;62,90942
1038,50; 2865,898;  215,427; 4401,317;63,31917
1039,04; 2856,360;  248,273; 4344,933;63,66374
1039,58; 2793,667;  197,119; 4289,856;63,44283
1040,13; 2767,975;  225,504; 4213,856;63,74741
1040,67; 2800,052;  259,042; 4231,010;63,97358
1041,21; 2742,513;  261,581; 4144,856;63,88764
1041,76; 2657,360;  210,581; 4034,163;63,99179
1042,30; 2661,052;  220,350; 4012,471;64,36245
1042,85; 2583,975;  221,350; 3952,856;63,31559
1043,39; 2562,283;  209,888; 3862,625;64,40087
1043,93; 2551,129;  248,965; 3872,087;63,54089
1044,48; 2520,513;  236,735; 3825,471;63,63741
1045,02; 2469,360;  229,350; 3715,933;64,24656
1045,56; 2481,975;  253,965; 3728,471;64,12450
1046,11; 2448,590;  229,888; 3609,087;65,65765
1046,65; 2391,283;  242,427; 3572,087;64,53680
1047,19; 2352,898;  203,735; 3512,625;64,95118
1047,74; 2325,513;  205,812; 3469,856;64,94097
1048,28; 2322,590;  240,812; 3423,317;65,41320
1048,82; 2326,975;  256,735; 3420,317;65,43974
1049,37; 2271,437;  250,196; 3322,471;65,78970
1049,91; 2254,590;  247,581; 3308,856;65,56123
1050,45; 2245,437;  242,119; 3246,240;66,68564
1050,99; 2199,437;  242,965; 3231,163;65,47328
1051,54; 2158,744;  226,965; 3142,625;66,25529
1052,08; 2159,744;  255,042; 3127,702;66,30448
1052,62; 2121,360;  244,350; 3097,240;65,79326
1053,16; 2086,513;  228,658; 3032,317;66,26538
1053,71; 2068,129;  236,042; 3025,163;65,68688
1054,25; 2032,513;  252,119; 2963,394;65,66631
1054,79; 2009,744;  251,196; 2893,010;66,56594
1055,33; 1950,744;  203,812; 2849,010;66,04166
1055,88; 1948,052;  244,196; 2846,779;65,46788
1056,42; 1933,437;  255,888; 2797,471;66,00407
1056,96; 1917,975;  249,812; 2790,317;65,66265
1057,50; 1873,437;  253,196; 2715,702;65,79641
1058,05; 1858,821;  238,273; 2651,240;67,15997
1058,59; 1854,975;  261,581; 2637,933;67,05212
1059,13; 1783,667;  213,042; 2573,163;66,54849
1059,67; 1797,360;  246,735; 2560,548;67,01599
1060,21; 1765,744;  245,350; 2497,933;67,49560
1060,76; 1749,129;  241,196; 2515,625;66,29940
1061,30; 1756,052;  261,504; 2489,779;67,07198
1061,84; 1732,590;  246,658; 2418,856;68,40687
1062,38; 1651,052;  219,581; 2340,163;67,50367
1062,92; 1707,052;  287,427; 2379,702;67,85078
1063,46; 1670,590;  246,812; 2320,471;68,66020
1064,01; 1618,898;  227,581; 2289,856;67,46517
1064,55; 1623,898;  257,273; 2254,625;68,42184
1065,09; 1543,898;  215,735; 2167,625;68,04498
1065,63; 1599,590;  280,119; 2212,163;68,29404
1066,17; 1584,360;  283,350; 2185,317;68,40336
1066,71; 1570,744;  264,581; 2159,702;68,92243
1067,25; 1519,513;  245,812; 2102,087;68,61601
1067,80; 1512,590;  254,273; 2086,240;68,68667
1068,34; 1507,360;  269,965; 2096,702;67,73797
1068,88; 1440,283;  241,581; 2011,702;67,71864
1069,42; 1483,206;  265,350; 2022,240;69,31882
1069,96; 1433,667;  242,119; 1975,548;68,73937
1070,50; 1457,437;  280,888; 1998,163;68,51250
1071,04; 1372,206;  235,273; 1931,394;67,03134
1071,58; 1405,744;  240,350; 1905,856;69,97239
1072,12; 1392,437;  247,042; 1914,548;68,68907
1072,66; 1368,667;  247,888; 1872,702;68,97892
1073,21; 1380,206;  260,965; 1855,779;70,18002
1073,75; 1352,975;  243,812; 1843,163;69,35081
1074,29; 1304,206;  250,735; 1820,010;67,13107
1074,83; 1310,667;  267,196; 1805,240;67,84403
1075,37; 1319,513;  271,273; 1800,010;68,56907
1075,91; 1294,129;  259,735; 1753,010;69,27018
1076,45; 1275,129;  252,196; 1728,548;69,28786
1076,99; 1269,437;  269,273; 1729,087;68,51310
1077,53; 1226,975;  242,119; 1662,548;69,33510
1078,07; 1233,052;  266,273; 1679,240;68,42188
1078,61; 1220,052;  261,042; 1643,087;69,39066
1079,15; 1211,129;  252,350; 1623,240;69,93840
1079,69; 1200,360;  257,273; 1606,240;69,91174
1080,23; 1215,513;  273,735; 1587,702;71,67445
1080,77; 1235,052;  321,812; 1626,625;69,99011
1081,31; 1166,898;  250,196; 1546,548;70,71397
1081,85; 1183,206;  270,350; 1558,625;70,85877
1082,39; 1151,898;  244,119; 1515,163;71,41993
1082,93; 1127,590;  266,119; 1515,087;68,97468
1083,47; 1104,360;  229,196; 1445,471;71,95441
1084,01; 1119,590;  259,888; 1488,317;69,98386
1084,55; 1076,437;  259,735; 1434,779;69,50393
1085,09; 1101,206;  273,581; 1444,933;70,65554
1085,63; 1083,129;  250,350; 1423,317;70,99762
1086,17; 1051,667;  255,812; 1396,317;69,78095
1086,71; 1044,129;  234,273; 1372,010;71,18131
1087,24; 1072,821;  275,196; 1402,163;70,77623
1087,78; 1055,590;  259,658; 1373,702;71,44534
1088,32; 1010,590;  245,658; 1326,625;70,76372
1088,86; 1030,975;  263,581; 1332,394;71,79871
1089,40; 1005,898;  264,427; 1322,548;70,07432
1089,94;  957,744;  233,965; 1272,010;69,72524
1090,48;  970,283;  251,042; 1279,933;69,90447
1091,02;  991,513;  269,504; 1280,625;71,40684
1091,56;  976,052;  249,658; 1249,548;72,64739
1092,10;  930,206;  229,504; 1219,933;70,74733
1092,63;  971,744;  281,350; 1259,625;70,57261
1093,17;  941,898;  261,581; 1227,779;70,41178
1093,71;  921,513;  239,427; 1181,625;72,39312
1094,25;  939,437;  275,735; 1208,779;71,13295
1094,79;  906,513;  253,504; 1163,548;71,75581
1095,33;  907,898;  257,042; 1162,163;71,90814
1095,87;  891,052;  249,812; 1143,087;71,78533
1096,40;  862,821;  231,350; 1108,856;71,96205
1096,94;  887,129;  257,042; 1113,240;73,59121
1097,48;  885,667;  268,812; 1126,625;71,91025
1098,02;  866,129;  235,350; 1066,856;75,85983
1098,56;  804,283;  219,812; 1053,010;70,14792
1099,10;  825,975;  232,273; 1052,317;72,39877
1099,63;  808,360;  228,042; 1027,779;72,56356
1100,17;  826,437;  262,658; 1050,856;71,52756
1100,71;  857,821;  289,812; 1058,779;73,86655

