
Integration time [ms]: 140,000
Averaging Nr. [scans]: 13
Smoothing Nr. [pixels]: 0
Data measured with spectrometer [name]: 2009305U1
Wave   ;Sample   ;Dark     ;Reference;Reflectance
[nm]   ;[counts] ;[counts] ;[counts] ;[%]

 175,72;  225,682;  207,672;  215,673;225,11530
 176,32;  232,525;  238,424;  241,025;-226,74325
 176,92;  282,420;  272,128;  266,109; 0,00000
 177,52;  267,930;  265,361;  267,675;110,99545
 178,12;  261,864;  258,117;  238,311; 0,00000
 178,72;  283,999;  276,958;  258,525; 0,00000
 179,32;  269,201;  279,578;  258,748; 0,00000
 179,92;  267,909;  269,431;  262,806; 0,00000
 180,52;  266,908;  254,297;  261,455;176,17632
 181,12;  270,476;  273,355;  266,130; 0,00000
 181,73;  296,588;  284,895;  277,919; 0,00000
 182,33;  399,092;  381,443;  397,957;106,86947
 182,93;  294,094;  280,130;  286,949;204,77446
 183,53;  251,970;  255,340;  247,813; 0,00000
 184,13;  249,026;  242,804;  237,845; 0,00000
 184,73;  305,443;  293,338;  296,892;340,59327
 185,33;  291,373;  261,312;  361,143;30,11254
 185,93;  295,994;  243,376;  381,547;38,08163
 186,53;  300,686;  260,229;  410,327;26,95345
 187,13;  334,334;  280,704;  420,213;38,44177
 187,73;  303,557;  257,224;  382,447;37,00061
 188,33;  307,644;  249,678;  381,863;43,85216
 188,93;  326,700;  263,040;  387,891;50,98867
 189,53;  303,293;  261,946;  380,542;34,86313
 190,13;  357,086;  304,841;  423,007;44,21305
 190,73;  303,227;  226,937;  387,302;47,57279
 191,34;  328,768;  266,803;  406,760;44,27400
 191,94;  304,350;  249,363;  387,164;39,90268
 192,54;  311,009;  271,253;  415,221;27,61440
 193,14;  316,751;  271,395;  415,304;31,51687
 193,74;  322,865;  275,854;  398,242;38,41175
 194,34;  318,590;  265,090;  415,805;35,49689
 194,94;  285,453;  230,318;  367,347;40,23591
 195,54;  255,156;  226,774;  345,997;23,80638
 196,14;  275,472;  238,863;  381,829;25,60702
 196,74;  282,241;  237,002;  371,341;33,67510
 197,34;  246,908;  212,871;  367,061;22,07467
 197,94;  283,281;  246,858;  398,110;24,08058
 198,54;  290,071;  250,016;  414,320;24,37812
 199,14;  271,166;  227,106;  389,582;27,11783
 199,74;  254,387;  216,953;  394,616;21,07046
 200,34;  246,165;  205,647;  412,777;19,56160
 200,94;  295,722;  245,177;  440,849;25,83165
 201,54;  274,392;  228,181;  443,845;21,42714
 202,14;  316,616;  260,035;  509,855;22,64881
 202,74;  280,126;  231,337;  483,408;19,35532
 203,34;  265,408;  198,887;  505,069;21,72593
 203,94;  251,413;  174,805;  503,718;23,29134
 204,54;  315,027;  257,705;  595,985;16,94512
 205,14;  268,765;  217,029;  614,536;13,01504
 205,74;  336,889;  257,732;  713,847;17,35449
 206,34;  293,609;  215,112;  712,928;15,76841
 206,94;  291,688;  225,648;  764,426;12,25732
 207,54;  273,425;  199,803;  808,104;12,10282
 208,14;  297,878;  211,343;  894,372;12,66924
 208,74;  305,657;  218,875;  969,173;11,56640
 209,34;  308,478;  202,492; 1054,701;12,43666
 209,94;  333,404;  229,414; 1142,048;11,39447
 210,54;  329,124;  221,730; 1275,922;10,18733
 211,14;  354,039;  229,798; 1378,519;10,81557
 211,73;  368,414;  228,180; 1485,662;11,15198
 212,33;  374,039;  231,561; 1585,815;10,52081
 212,93;  384,908;  215,259; 1695,643;11,45977
 213,53;  358,494;  183,413; 1731,515;11,30935
 214,13;  398,709;  207,122; 1852,881;11,64128
 214,73;  373,924;  193,189; 1865,086;10,81019
 215,33;  383,250;  177,568; 1889,894;12,01185
 215,93;  426,721;  214,578; 2025,839;11,71245
 216,53;  401,910;  165,412; 2077,759;12,36691
 217,13;  465,559;  230,730; 2288,601;11,41125
 217,73;  474,009;  207,271; 2523,291;11,51709
 218,33;  456,300;  175,201; 2679,717;11,22368
 218,93;  531,693;  191,675; 3016,014;12,03885
 219,53;  575,828;  193,509; 3295,597;12,32459
 220,13;  568,369;  162,127; 3615,373;11,76408
 220,73;  637,384;  197,261; 3981,424;11,63067
 221,32;  692,273;  199,413; 4393,481;11,75135
 221,92;  749,382;  207,818; 4824,839;11,72972
 222,52;  750,271;  188,348; 5274,577;11,04791
 223,12;  837,395;  188,657; 5727,756;11,71198
 223,72;  878,077;  208,042; 6131,713;11,31116
 224,32;  920,389;  210,196; 6567,755;11,17084
 224,92;  959,433;  184,735; 6890,969;11,55191
 225,52; 1015,293;  217,033; 7257,152;11,33873
 226,12; 1022,013;  196,345; 7552,443;11,22427
 226,72; 1050,377;  162,729; 7885,662;11,49367
 227,31; 1101,651;  161,190; 8271,414;11,59599
 227,91; 1163,941;  204,032; 8671,474;11,33647
 228,51; 1188,596;  197,485; 9080,788;11,15701
 229,11; 1251,808;  190,959; 9437,453;11,47299
 229,71; 1263,115;  182,182; 9761,515;11,28401
 230,31; 1330,435;  178,045;10198,283;11,50063
 230,91; 1365,659;  174,328;10495,044;11,54311
 231,51; 1404,822;  179,117;10729,351;11,61780
 232,10; 1446,872;  181,970;11125,042;11,55893
 232,70; 1500,051;  197,706;11327,421;11,70152
 233,30; 1568,750;  217,962;11566,044;11,90323
 233,90; 1585,948;  184,193;11672,874;12,20118
 234,50; 1613,728;  184,348;11762,227;12,34579
 235,10; 1668,663;  181,042;11763,892;12,84331
 235,70; 1742,242;  199,801;11795,777;13,30152
 236,29; 1728,968;  199,490;11790,212;13,19571
 236,89; 1698,680;  173,867;11668,517;13,26542
 237,49; 1778,612;  194,422;11531,473;13,97356
 238,09; 1748,302;  184,188;11258,005;14,12443
 238,69; 1823,077;  225,709;10981,786;14,85085
 239,29; 1765,812;  177,187;10668,835;15,14181
 239,89; 1782,406;  207,482;10293,457;15,61498
 240,48; 1747,114;  187,496; 9905,604;16,04858
 241,08; 1782,731;  193,033; 9504,563;17,07237
 241,68; 1802,222;  210,727; 9188,966;17,72613
 242,28; 1747,797;  184,346; 8793,143;18,16108
 242,88; 1812,777;  230,430; 8481,530;19,17740
 243,48; 1806,776;  238,191; 8141,747;19,84657
 244,07; 1819,754;  198,262; 7914,995;21,01267
 244,67; 1840,858;  216,267; 7750,440;21,56297
 245,27; 1873,414;  214,795; 7569,124;22,55296
 245,87; 1898,826;  207,352; 7508,591;23,16694
 246,47; 1930,294;  205,257; 7502,141;23,64073
 247,06; 1983,180;  196,187; 7436,481;24,68122
 247,66; 2069,383;  190,882; 7536,970;25,57145
 248,26; 2121,920;  215,797; 7659,802;25,60616
 248,86; 2213,120;  208,027; 7773,824;26,50208
 249,46; 2299,755;  157,732; 8056,240;27,11933
 250,05; 2479,518;  203,419; 8430,382;27,66634
 250,65; 2599,309;  170,717; 8749,185;28,31033
 251,25; 2747,229;  192,186; 9257,926;28,18350
 251,85; 2949,509;  189,328; 9838,778;28,60454
 252,44; 3166,393;  157,644;10487,925;29,12553
 253,04; 3440,077;  212,953;11180,039;29,42553
 253,64; 3655,265;  159,100;11919,352;29,72865
 254,24; 3994,990;  214,265;12914,502;29,76893
 254,84; 4241,678;  185,194;13814,933;29,76201
 255,43; 4576,852;  184,183;14851,732;29,94821
 256,03; 4882,543;  190,255;15905,993;29,85725
 256,63; 5252,877;  194,944;17012,116;30,07601
 257,23; 5523,721;  170,483;17967,154;30,08000
 257,82; 5875,708;  202,554;18985,983;30,20298
 258,42; 6111,314;  145,935;19935,819;30,14358
 259,02; 6436,531;  201,184;20864,266;30,17627
 259,62; 6653,272;  183,087;21654,872;30,13343
 260,21; 6821,410;  197,029;22196,203;30,11195
 260,81; 6942,725;  190,268;22801,606;29,86315
 261,41; 7085,176;  177,399;23313,600;29,85701
 262,01; 7205,430;  211,316;23821,639;29,62312
 262,60; 7241,951;  172,944;24241,692;29,37007
 263,20; 7382,484;  176,487;24635,120;29,46198
 263,80; 7407,347;  207,546;24852,328;29,21430
 264,40; 7398,458;  167,317;25095,732;29,00763
 264,99; 7434,068;  195,545;25238,610;28,90430
 265,59; 7419,753;  171,614;25477,207;28,64244
 266,19; 7357,644;  182,546;25585,669;28,24495
 266,78; 7383,352;  226,003;25736,284;28,05672
 267,38; 7319,948;  201,923;25781,847;27,82661
 267,98; 7245,333;  189,696;25840,891;27,50607
 268,58; 7159,607;  194,077;25858,599;27,14070
 269,17; 7183,581;  178,070;25860,805;27,27712
 269,77; 7057,768;  207,403;25655,750;26,91870
 270,37; 6919,831;  166,545;25618,299;26,53367
 270,96; 6816,076;  223,169;25438,167;26,14677
 271,56; 6688,690;  190,174;25228,560;25,95421
 272,16; 6507,991;  182,321;25020,391;25,46764
 272,75; 6515,373;  195,860;25016,044;25,46118
 273,35; 6425,371;  200,708;24855,008;25,24778
 273,95; 6335,209;  192,860;24737,232;25,02549
 274,54; 6311,896;  179,495;24928,455;24,77842
 275,14; 6348,950;  220,401;25139,722;24,59356
 275,74; 6264,041;  169,091;25213,532;24,33654
 276,33; 6398,872;  217,942;25691,686;24,26393
 276,93; 6442,169;  204,036;26054,556;24,13156
 277,53; 6460,189;  193,567;26511,015;23,81166
 278,12; 6614,390;  174,715;27017,644;23,99021
 278,72; 6817,048;  233,104;27762,943;23,91566
 279,32; 6873,599;  192,411;28294,102;23,77504
 279,91; 7052,326;  182,563;28957,693;23,87396
 280,51; 7207,691;  189,798;29510,574;23,93488
 281,11; 7421,292;  200,640;30262,599;24,01923
 281,70; 7565,870;  174,024;30711,540;24,20579
 282,30; 7731,228;  187,021;31444,406;24,13576
 282,90; 7930,947;  185,020;31805,496;24,49655
 283,49; 8077,054;  195,170;32334,427;24,52416
 284,09; 8306,548;  215,177;32725,455;24,88866
 284,69; 8430,020;  221,180;33260,773;24,84546
 285,28; 8621,251;  210,331;33621,729;25,17380
 285,88; 8844,479;  261,859;33732,635;25,64213
 286,47; 8940,495;  203,405;33898,539;25,92983
 287,07; 9083,301;  221,719;33912,914;26,30237
 287,67; 9305,160;  206,806;34022,901;26,90540
 288,26; 9441,662;  188,565;34016,478;27,35344
 288,86; 9675,214;  175,562;34056,750;28,03813
 289,46; 9876,229;  200,718;34230,300;28,43265
 290,05;10185,008;  191,570;34225,200;29,36342
 290,65;10467,996;  193,942;34400,326;30,03549
 291,24;10758,382;  196,104;34523,264;30,76945
 291,84;11055,339;  214,867;34720,346;31,41667
 292,44;11372,890;  196,346;34843,036;32,25862
 293,03;11709,442;  274,566;34928,448;32,99739
 293,63;11916,144;  187,251;35113,556;33,58183
 294,22;12213,002;  215,871;35285,108;34,20984
 294,82;12453,960;  187,394;35265,138;34,96966
 295,41;12474,101;  173,331;34979,002;35,34128
 296,01;12713,288;  225,089;34862,268;36,05432
 296,61;12819,836;  225,258;34641,414;36,59496
 297,20;12729,429;  200,859;34275,725;36,76777
 297,80;12869,725;  211,803;34039,254;37,41908
 298,39;12779,740;  175,713;33651,009;37,65173
 298,99;12873,725;  223,400;33553,030;37,95519
 299,58;12878,099;  223,420;33451,560;38,08422
 300,18;12942,698;  218,725;33178,930;38,60405
 300,78;12875,962;  196,414;32763,057;38,93416
 301,37;13003,452;  207,236;32759,607;39,30963
 301,97;13094,427;  207,333;32712,436;39,64637
 302,56;13114,388;  200,327;32605,176;39,85225
 303,16;13155,021;  173,556;32422,182;40,25432
 303,75;13224,545;  197,877;32489,889;40,34022
 304,35;13410,696;  179,041;32689,675;40,69947
 304,94;13505,467;  184,026;32786,534;40,86017
 305,54;13572,426;  203,259;32726,019;41,10711
 306,13;13539,077;  170,119;32615,867;41,20404
 306,73;13540,378;  176,500;32401,511;41,47052
 307,33;13650,531;  194,575;32387,508;41,79786
 307,92;13784,706;  217,258;32372,003;42,19423
 308,52;14071,024;  173,555;32855,760;42,52305
 309,11;14361,899;  192,858;33394,380;42,67588
 309,71;14550,293;  167,777;33672,532;42,92679
 310,30;14757,401;  186,411;33821,965;43,32020
 310,90;15035,786;  234,796;34177,350;43,60600
 311,49;15209,678;  207,949;34320,218;43,97752
 312,09;15319,654;  160,802;34482,793;44,16659
 312,68;15711,340;  252,952;34917,591;44,59411
 313,28;15810,168;  174,950;35101,003;44,76663
 313,87;15921,652;  159,411;35171,589;45,01931
 314,47;16217,599;  183,013;35477,156;45,43129
 315,06;16332,175;  179,951;35522,007;45,70256
 315,66;16406,116;  176,186;35733,947;45,64385
 316,25;16600,283;  157,480;35683,007;46,28447
 316,85;16635,046;  165,879;35742,567;46,29202
 317,44;16835,528;  179,551;35869,926;46,66798
 318,04;16926,442;  176,097;35916,590;46,86658
 318,63;16954,011;  165,500;35908,327;46,97029
 319,22;17139,528;  193,788;36093,245;47,20333
 319,82;17264,304;  202,099;35976,755;47,69355
 320,41;17255,217;  202,942;35992,053;47,64655
 321,01;17352,941;  207,724;36146,166;47,70718
 321,60;17454,652;  207,946;36070,930;48,09055
 322,20;17561,054;  173,797;36028,101;48,49420
 322,79;17660,807;  215,566;36180,362;48,50644
 323,39;17727,427;  183,271;36242,924;48,65315
 323,98;17723,657;  172,029;36090,019;48,86584
 324,58;17739,195;  180,863;36020,884;48,99085
 325,17;17897,340;  185,865;35870,151;49,63382
 325,76;17805,936;  209,949;35657,923;49,63891
 326,36;17649,198;  180,493;35334,794;49,69152
 326,95;17556,726;  213,331;35040,737;49,79812
 327,55;17493,972;  179,561;34519,396;50,42078
 328,14;17335,790;  176,804;34236,326;50,37941
 328,74;17253,551;  210,865;33788,296;50,75637
 329,33;17129,790;  208,723;33387,282;51,00001
 329,92;16881,324;  181,704;32810,785;51,18017
 330,52;16647,035;  198,112;32188,411;51,41847
 331,11;16469,669;  186,100;31720,361;51,63770
 331,71;16219,557;  188,179;31220,770;51,65981
 332,30;16079,160;  207,410;30698,073;52,05446
 332,89;15856,221;  253,492;30113,996;52,25206
 333,49;15575,051;  218,331;29589,246;52,28547
 334,08;15418,109;  189,253;29096,811;52,68123
 334,68;15219,237;  199,945;28649,029;52,79359
 335,27;15085,822;  207,729;28405,999;52,76243
 335,86;14983,823;  253,023;28031,208;53,03010
 336,46;14870,632;  202,499;27752,328;53,24219
 337,05;14881,866;  196,484;27515,575;53,75502
 337,65;14812,023;  179,253;27432,691;53,69146
 338,24;14881,838;  232,259;27393,801;53,93500
 338,83;14920,246;  210,952;27260,698;54,37868
 339,43;14955,170;  187,403;27263,797;54,54111
 340,02;14971,670;  186,941;27114,892;54,90477
 340,61;15116,312;  191,105;27199,191;55,26200
 341,21;15126,244;  223,173;27164,989;55,31576
 341,80;15146,614;  185,330;27122,563;55,54128
 342,40;15247,366;  188,189;27247,077;55,65335
 342,99;15375,990;  194,723;27356,765;55,89148
 343,58;15503,482;  183,493;27478,513;56,12742
 344,18;15638,316;  208,416;27601,431;56,32786
 344,77;15791,466;  183,325;27959,751;56,19204
 345,36;16108,034;  163,562;28209,737;56,85079
 345,96;16331,054;  204,108;28494,299;57,00543
 346,55;16553,083;  177,656;28716,329;57,37978
 347,14;16800,570;  175,959;29085,295;57,50603
 347,74;17092,940;  153,510;29550,925;57,62218
 348,33;17587,818;  182,740;30209,862;57,96452
 348,92;17919,439;  207,437;30725,797;58,03720
 349,52;18260,042;  168,666;31257,287;58,19292
 350,11;18504,633;  193,632;31541,063;58,41308
 350,70;18586,954;  186,027;31685,435;58,41674
 351,29;18491,242;  168,003;31461,114;58,55359
 351,89;18569,113;  207,165;31392,717;58,87966
 352,48;18637,903;  162,412;31412,140;59,12209
 353,07;18690,230;  194,498;31342,589;59,37999
 353,67;18617,674;  202,438;31275,378;59,26454
 354,26;18541,433;  189,728;31048,188;59,47058
 354,85;18549,558;  191,110;31019,938;59,54961
 355,45;18430,363;  171,329;30726,474;59,75764
 356,04;18451,910;  184,422;30690,353;59,88176
 356,63;18346,767;  235,332;30434,989;59,97232
 357,22;18307,319;  199,237;30226,312;60,30585
 357,82;18268,860;  196,086;30104,087;60,42789
 358,41;18253,725;  211,718;29983,240;60,60156
 359,00;18033,263;  170,096;29761,074;60,36694
 359,60;18155,359;  193,951;29763,524;60,74287
 360,19;18084,426;  208,193;29572,844;60,87671
 360,78;18000,451;  199,484;29434,366;60,88948
 361,37;17943,825;  192,407;29202,554;61,19038
 361,97;17911,369;  193,871;29156,830;61,17296
 362,56;17715,703;  181,247;28846,136;61,17050
 363,15;17688,453;  249,329;28535,867;61,65167
 363,74;17441,837;  200,090;28197,699;61,58293
 364,34;17238,256;  213,480;27826,455;61,65499
 364,93;16951,682;  196,246;27426,893;61,53154
 365,52;16746,361;  161,715;27035,361;61,71342
 366,11;16537,896;  185,326;26767,506;61,51704
 366,71;16298,297;  171,788;26287,784;61,74955
 367,30;16086,693;  198,023;25978,720;61,63010
 367,89;15962,705;  228,725;25806,704;61,51377
 368,48;15774,664;  196,399;25384,459;61,84782
 369,07;15466,185;  191,104;24999,127;61,57315
 369,67;15337,350;  213,554;24635,535;61,92699
 370,26;15088,011;  174,951;24350,656;61,68614
 370,85;14921,806;  190,408;24181,776;61,40291
 371,44;14776,115;  196,794;23928,164;61,43481
 372,03;14628,658;  175,557;23678,733;61,49425
 372,63;14400,195;  171,485;23427,203;61,18370
 373,22;14221,154;  180,411;23100,841;61,25864
 373,81;14001,558;  169,023;22741,652;61,28012
 374,40;13832,730;  188,573;22536,065;61,05453
 374,99;13721,985;  175,175;22255,171;61,35332
 375,59;13461,742;  178,803;21927,532;61,07455
 376,18;13383,444;  209,330;21828,824;60,93627
 376,77;13221,162;  211,564;21650,650;60,68168
 377,36;13196,525;  216,177;21528,174;60,90630
 377,95;12950,047;  202,712;21280,852;60,47656
 378,55;12809,326;  185,262;21060,243;60,47461
 379,14;12795,431;  203,484;21020,434;60,48891
 379,73;12656,181;  198,866;20886,074;60,21748
 380,32;12737,309;  201,025;20967,569;60,36770
 380,91;12595,310;  183,630;20786,052;60,24379
 381,50;12553,616;  196,094;20788,016;60,01150
 382,10;12459,463;  173,179;20650,569;59,99927
 382,69;12425,611;  171,561;20617,678;59,93339
 383,28;12383,764;  209,710;20536,939;59,89038
 383,87;12259,808;  186,171;20358,768;59,85167
 384,46;12221,165;  168,702;20349,510;59,72240
 385,05;12123,138;  203,632;20343,508;59,18361
 385,64;12157,126;  191,480;20334,968;59,40206
 386,24;12112,261;  175,240;20228,134;59,52767
 386,83;12093,865;  204,931;20334,857;59,06099
 387,42;12111,799;  199,635;20459,728;58,79620
 388,01;12137,029;  193,463;20576,120;58,59671
 388,60;12353,714;  203,242;20827,863;58,91246
 389,19;12441,880;  184,069;21101,875;58,59989
 389,78;12523,869;  180,917;21319,797;58,38981
 390,37;12841,973;  257,005;21778,099;58,47736
 390,96;12841,836;  201,009;21931,882;58,16990
 391,56;12857,717;  197,604;22109,404;57,77760
 392,15;12992,185;  181,688;22334,496;57,82787
 392,74;13061,327;  165,592;22547,688;57,61630
 393,33;13202,211;  191,680;22808,033;57,52709
 393,92;13404,599;  186,355;23277,774;57,24310
 394,51;13503,478;  180,372;23463,397;57,22240
 395,10;13593,231;  214,182;23664,751;57,05213
 395,69;13661,695;  191,185;23849,834;56,93693
 396,28;13679,198;  208,560;23985,185;56,65496
 396,87;13672,958;  201,005;24001,921;56,60267
 397,46;13716,108;  225,763;24097,362;56,51211
 398,06;13733,871;  233,596;24304,566;56,08530
 398,65;13787,651;  204,487;24408,209;56,12014
 399,24;13811,143;  221,865;24575,099;55,80071
 399,83;13748,656;  188,740;24616,465;55,51035
 400,42;13804,800;  230,158;24717,963;55,43429
 401,01;13788,422;  213,724;24823,113;55,16065
 401,60;13791,972;  221,426;24869,234;55,05782
 402,19;13700,049;  246,757;24838,259;54,70708
 402,78;13605,112;  241,521;24874,996;54,24972
 403,37;13480,564;  229,904;24657,434;54,24478
 403,96;13399,084;  230,813;24584,423;54,07113
 404,55;13288,821;  232,018;24486,578;53,83236
 405,14;13172,440;  225,003;24325,384;53,72296
 405,73;13042,295;  236,356;24215,857;53,40369
 406,32;12968,738;  248,205;24158,146;53,20186
 406,91;12798,402;  232,429;23903,949;53,08477
 407,50;12651,589;  240,770;23743,123;52,80671
 408,09;12432,292;  217,586;23438,307;52,60262
 408,68;12342,891;  223,564;23348,146;52,40885
 409,27;12200,944;  216,669;23096,682;52,37879
 409,86;12037,651;  234,427;22907,263;52,05888
 410,45;11999,572;  264,098;22908,280;51,82556
 411,04;11909,401;  257,693;22826,099;51,62841
 411,63;11678,928;  254,536;22601,988;51,12168
 412,22;11539,021;  258,757;22399,880;50,94712
 412,81;11364,184;  262,165;22137,078;50,75229
 413,40;11151,396;  270,118;21770,582;50,60950
 413,99;10975,538;  320,032;21514,368;50,27525
 414,58;10724,507;  245,500;21002,093;50,48520
 415,17;10501,174;  252,165;20794,881;49,89121
 415,76;10403,042;  245,677;20690,617;49,68156
 416,35;10190,205;  241,306;20435,067;49,26719
 416,94;10192,389;  273,837;20468,723;49,11418
 417,53;10276,728;  247,090;20661,892;49,12924
 418,12;10217,696;  250,789;20730,002;48,66841
 418,71;10362,708;  284,196;21138,316;48,32864
 419,30;10350,812;  243,406;21254,449;48,10521
 419,89;10397,195;  238,489;21375,380;48,06150
 420,48;10473,792;  277,427;21641,859;47,72589
 421,07;10582,586;  271,278;21753,803;47,99858
 421,66;10470,351;  232,062;21830,402;47,40313
 422,25;10423,209;  256,011;21813,606;47,16295
 422,84;10431,950;  271,170;21774,986;47,25105
 423,43;10261,504;  243,543;21522,667;47,07882
 424,02;10117,452;  295,856;21273,919;46,81841
 424,60; 9891,452;  252,196;20895,165;46,69510
 425,19; 9665,356;  272,872;20576,013;46,26124
 425,78; 9583,826;  272,566;20533,943;45,95571
 426,37; 9475,964;  265,731;20311,570;45,94586
 426,96; 9435,569;  261,347;20209,604;45,99010
 427,55; 9277,623;  245,441;20098,007;45,49629
 428,14; 9107,326;  251,296;19836,295;45,21844
 428,73; 9029,864;  261,358;19605,346;45,32936
 429,32; 8941,631;  282,422;19611,131;44,79973
 429,91; 8949,176;  284,281;19588,850;44,88520
 430,50; 8833,556;  273,829;19440,017;44,66056
 431,08; 8726,748;  283,454;19350,167;44,28290
 431,67; 8658,559;  318,462;19182,511;44,21159
 432,26; 8590,372;  331,086;19155,739;43,87484
 432,85; 8398,360;  370,314;18684,997;43,83393
 433,44; 8217,930;  372,634;18412,188;43,48941
 434,03; 8049,521;  376,958;18036,127;43,44804
 434,62; 7761,335;  339,404;17571,200;43,07114
 435,21; 7695,763;  349,008;17407,817;43,06722
 435,79; 7603,535;  357,875;17202,200;43,01544
 436,38; 7495,470;  346,583;17105,118;42,65818
 436,97; 7431,860;  341,278;17034,240;42,47647
 437,56; 7309,163;  340,148;16753,433;42,45960
 438,15; 7218,836;  318,296;16653,567;42,24320
 438,74; 7266,661;  334,914;16701,368;42,35339
 439,33; 7244,080;  313,603;16706,956;42,27614
 439,91; 7159,127;  270,537;16797,114;41,68189
 440,50; 7220,583;  317,538;16821,882;41,82562
 441,09; 7247,308;  331,321;16962,768;41,58380
 441,68; 7204,261;  300,719;16895,307;41,60116
 442,27; 7185,095;  287,252;16926,060;41,45635
 442,86; 7151,615;  266,821;16917,102;41,34941
 443,44; 7174,398;  283,353;16958,484;41,32528
 444,03; 7207,167;  362,206;17011,572;41,11244
 444,62; 7094,843;  295,206;16877,679;41,00496
 445,21; 7032,220;  284,125;16743,861;40,99759
 445,80; 6982,460;  330,527;16620,048;40,83566
 446,39; 6855,979;  355,677;16340,226;40,66616
 446,97; 6732,729;  289,850;16108,364;40,72999
 447,56; 6608,555;  294,172;15926,377;40,39342
 448,15; 6535,876;  283,311;15814,667;40,25769
 448,74; 6438,363;  303,698;15502,029;40,36407
 449,33; 6352,235;  296,246;15334,790;40,26978
 449,91; 6241,946;  289,955;15119,481;40,13608
 450,50; 6148,963;  290,105;15001,407;39,82555
 451,09; 6134,423;  306,338;14839,679;40,10148
 451,68; 6070,252;  320,114;14679,951;40,04320
 452,26; 5990,907;  321,967;14621,445;39,64439
 452,85; 5950,254;  292,425;14589,803;39,57250
 453,44; 5886,348;  301,292;14524,425;39,26741
 454,03; 5881,106;  292,818;14532,629;39,24411
 454,61; 5803,999;  288,063;14408,138;39,06449
 455,20; 5930,688;  318,378;14606,802;39,27872
 455,79; 5899,592;  313,981;14599,771;39,09907
 456,38; 5941,003;  323,467;14697,326;39,08161
 456,97; 5940,321;  298,233;14764,556;39,00153
 457,55; 5909,701;  300,165;14841,339;38,57691
 458,14; 5936,301;  335,922;14834,503;38,62709
 458,73; 5882,043;  312,859;14726,820;38,63743
 459,31; 5885,360;  343,949;14761,347;38,43558
 459,90; 5914,918;  360,711;14809,037;38,44187
 460,49; 6042,102;  408,784;14942,507;38,76032
 461,08; 5920,232;  308,955;14982,141;38,24171
 461,66; 5989,731;  318,718;15006,878;38,60942
 462,25; 6007,245;  326,808;15146,311;38,33082
 462,84; 6026,652;  339,803;15159,238;38,37426
 463,43; 5919,486;  285,899;15173,534;37,84071
 464,01; 5989,000;  321,136;15166,802;38,17858
 464,60; 5984,802;  369,663;15137,837;38,02189
 465,19; 5865,134;  298,140;14904,298;38,11402
 465,77; 5830,867;  325,609;14883,177;37,81715
 466,36; 5798,272;  348,053;14725,196;37,90891
 466,95; 5675,357;  323,593;14453,511;37,87541
 467,53; 5569,851;  317,463;14207,375;37,81441
 468,12; 5465,712;  360,004;13891,232;37,73278
 468,71; 5378,279;  332,526;13630,874;37,94271
 469,29; 5207,754;  314,621;13356,641;37,51822
 469,88; 5098,519;  331,242;13135,149;37,23298
 470,47; 5202,396;  392,485;13265,570;37,36409
 471,06; 5113,427;  344,178;13220,317;37,03943
 471,64; 5151,069;  337,867;13284,517;37,17720
 472,23; 5156,336;  316,122;13267,731;37,37153
 472,81; 5167,225;  309,418;13414,963;37,06681
 473,40; 5228,240;  312,738;13581,645;37,04527
 473,99; 5367,043;  429,815;13753,277;37,05664
 474,57; 5322,901;  339,891;13879,513;36,80317
 475,16; 5341,468;  340,190;14023,474;36,55028
 475,75; 5403,666;  369,054;14136,680;36,56848
 476,33; 5440,197;  362,295;14221,809;36,63838
 476,92; 5440,998;  357,279;14265,335;36,55233
 477,51; 5487,143;  359,752;14364,120;36,61279
 478,09; 5453,748;  341,522;14420,616;36,31076
 478,68; 5427,882;  348,525;14328,112;36,33410
 479,27; 5480,834;  385,670;14399,919;36,35702
 479,85; 5414,945;  353,063;14334,797;36,20354
 480,44; 5414,177;  340,991;14525,536;35,76559
 481,02; 5805,800;  354,461;15641,632;35,65957
 481,61; 6567,777;  381,919;17838,460;35,43576
 482,20; 7049,115;  365,846;19086,866;35,69928
 482,78; 7284,674;  391,912;19995,974;35,15986
 483,37; 7506,382;  379,244;20514,022;35,39715
 483,95; 7586,317;  421,785;20894,302;34,99585
 484,54; 7651,665;  428,687;21020,824;35,07639
 485,13; 7593,963;  392,334;21004,797;34,93822
 485,71; 7481,829;  377,484;20789,146;34,80532
 486,30; 7445,588;  421,407;20504,103;34,97628
 486,88; 7342,300;  465,487;20102,079;35,02040
 487,47; 7080,781;  419,182;19352,517;35,18450
 488,05; 6755,568;  405,572;18537,919;35,02026
 488,64; 6293,363;  418,428;17242,064;34,92072
 489,23; 5718,828;  419,113;15413,400;35,34489
 489,81; 4878,958;  421,501;13197,316;34,88981
 490,40; 4577,990;  374,656;12419,682;34,89684
 490,98; 4461,395;  374,122;12201,969;34,55636
 491,57; 4431,966;  402,268;12017,048;34,69457
 492,15; 4370,942;  374,047;11982,283;34,43154
 492,74; 4325,050;  384,111;11912,700;34,18405
 493,32; 4299,006;  393,968;11860,619;34,05562
 493,91; 4235,147;  363,821;11670,779;34,23844
 494,50; 4221,715;  372,223;11641,362;34,15959
 495,08; 4177,634;  362,223;11616,013;33,90335
 495,67; 4156,728;  385,281;11611,836;33,59398
 496,25; 4122,001;  329,291;11469,259;34,04597
 496,84; 4099,433;  340,665;11434,149;33,88266
 497,42; 4039,419;  336,602;11368,782;33,56378
 498,01; 4045,361;  362,590;11358,501;33,49218
 498,59; 3935,223;  329,835;11226,340;33,08757
 499,18; 3962,988;  321,284;11196,086;33,48754
 499,76; 3938,393;  355,599;11118,571;33,28815
 500,35; 3843,248;  331,689;10916,098;33,17671
 500,93; 3849,004;  333,525;10882,188;33,32630
 501,52; 3775,139;  331,834;10789,798;32,92520
 502,10; 3781,579;  339,774;10811,006;32,86915
 502,69; 3714,949;  322,395;10642,086;32,87457
 503,27; 3603,515;  301,916;10388,494;32,73260
 503,86; 3562,536;  325,008;10347,452;32,30278
 504,44; 3530,685;  301,706;10188,037;32,66104
 505,03; 3424,240;  292,629;10037,699;32,13534
 505,61; 3414,475;  309,088; 9844,697;32,56622
 506,19; 3329,243;  330,321; 9739,815;31,87124
 506,78; 3237,526;  307,949; 9486,017;31,91932
 507,36; 3201,664;  307,167; 9362,102;31,96597
 507,95; 3147,027;  305,647; 9190,431;31,98028
 508,53; 3075,195;  295,641; 9055,889;31,72916
 509,12; 3026,627;  320,030; 8923,036;31,46106
 509,70; 2995,389;  342,648; 8747,999;31,56014
 510,29; 2921,288;  346,886; 8644,959;31,02409
 510,87; 2840,084;  297,949; 8452,257;31,17536
 511,46; 2780,301;  301,182; 8258,370;31,15571
 512,04; 2765,240;  318,112; 8129,275;31,32860
 512,62; 2697,983;  313,798; 7965,173;31,16022
 513,21; 2633,395;  290,502; 7825,629;31,09295
 513,79; 2591,618;  296,137; 7658,275;31,17954
 514,38; 2505,739;  277,822; 7517,323;30,77444
 514,96; 2486,403;  324,283; 7468,307;30,26474
 515,54; 2431,364;  289,518; 7323,410;30,45036
 516,13; 2389,980;  319,981; 7239,029;29,91740
 516,71; 2321,246;  295,912; 7048,137;29,99505
 517,30; 2290,841;  297,381; 6947,063;29,97828
 517,88; 2275,921;  317,227; 6878,640;29,85171
 518,46; 2231,543;  285,076; 6730,611;30,19868
 519,05; 2204,351;  294,698; 6703,333;29,79813
 519,63; 2171,913;  302,310; 6616,340;29,61030
 520,22; 2157,731;  314,938; 6593,731;29,34948
 520,80; 2096,973;  297,708; 6508,854;28,96832
 521,38; 2140,038;  346,545; 6486,640;29,20953
 521,97; 2048,935;  294,483; 6443,422;28,53259
 522,55; 2055,500;  305,560; 6389,435;28,76358
 523,13; 2031,511;  297,334; 6387,909;28,47312
 523,72; 2013,930;  291,384; 6378,496;28,29826
 524,30; 2089,047;  326,954; 6516,379;28,46942
 524,89; 2051,792;  291,176; 6523,006;28,25198
 525,47; 2066,351;  309,803; 6618,150;27,84482
 526,05; 2084,984;  286,035; 6671,354;28,17321
 526,64; 2101,034;  315,193; 6804,078;27,52155
 527,22; 2137,344;  312,264; 6914,608;27,64291
 527,80; 2157,295;  358,961; 7003,360;27,06540
 528,39; 2115,108;  295,504; 7098,852;26,74572
 528,97; 2175,882;  307,809; 7247,004;26,92060
 529,55; 2181,698;  317,718; 7432,849;26,19741
 530,14; 2253,613;  339,200; 7651,572;26,18047
 530,72; 2241,257;  303,963; 7691,269;26,22463
 531,30; 2259,163;  288,355; 7850,156;26,06268
 531,89; 2291,821;  322,970; 7970,985;25,74330
 532,47; 2343,045;  334,281; 8056,487;26,01283
 533,05; 2327,228;  336,884; 8120,403;25,57126
 533,63; 2329,652;  339,898; 8132,062;25,53532
 534,22; 2306,164;  316,975; 8165,049;25,34620
 534,80; 2353,590;  324,599; 8286,546;25,48360
 535,38; 2448,609;  428,279; 8387,112;25,38475
 535,97; 2307,992;  323,050; 8292,999;24,90532
 536,55; 2358,541;  377,985; 8392,947;24,71074
 537,13; 2320,346;  378,431; 8402,746;24,20038
 537,71; 2340,181;  414,891; 8388,624;24,14540
 538,30; 2349,250;  438,209; 8503,060;23,69593
 538,88; 2387,704;  486,299; 8579,232;23,49464
 539,46; 2424,616;  526,599; 8757,867;23,05863
 540,05; 2434,822;  563,988; 8896,209;22,45300
 540,63; 2509,401;  590,912; 9121,692;22,48902
 541,21; 2529,998;  627,994; 9215,345;22,14890
 541,79; 2539,964;  675,378; 9361,944;21,46517
 542,38; 2596,811;  708,756; 9493,009;21,49362
 542,96; 2624,663;  708,462; 9675,574;21,36921
 543,54; 2660,465;  729,685; 9843,577;21,18502
 544,12; 2628,477;  708,919; 9988,780;20,68521
 544,70; 2643,634;  689,463;10076,676;20,81737
 545,29; 2702,664;  693,987;10209,475;21,10955
 545,87; 2686,964;  679,455;10317,020;20,83004
 546,45; 2648,890;  622,910;10274,433;20,99131
 547,03; 2627,423;  624,530;10355,245;20,58321
 547,62; 2624,310;  580,918;10495,003;20,61100
 548,20; 2671,053;  582,077;10633,114;20,78369
 548,78; 2652,989;  539,787;10763,419;20,66978
 549,36; 2668,750;  506,785;10946,028;20,70998
 549,94; 2645,716;  466,613;11069,248;20,55247
 550,53; 2705,269;  482,628;11307,205;20,53329
 551,11; 2699,912;  436,405;11423,540;20,60143
 551,69; 2770,155;  452,323;11763,498;20,49152
 552,27; 2733,212;  414,624;12006,016;20,00267
 552,85; 2820,230;  410,405;12368,352;20,15250
 553,44; 2869,994;  417,553;12606,340;20,12046
 554,02; 2913,782;  416,172;12948,701;19,92902
 554,60; 2909,753;  360,176;13286,616;19,72374
 555,18; 3010,101;  406,785;13666,087;19,63389
 555,76; 3041,953;  381,095;13938,209;19,62703
 556,34; 3126,856;  392,798;14286,410;19,67853
 556,93; 3116,115;  369,862;14742,172;19,10795
 557,51; 3184,649;  364,106;15086,384;19,15833
 558,09; 3233,142;  384,324;15381,647;18,99551
 558,67; 3292,126;  370,726;15790,824;18,94540
 559,25; 3323,099;  391,185;15994,843;18,78992
 559,83; 3354,932;  368,423;16349,542;18,68774
 560,41; 3401,021;  358,718;16741,412;18,57022
 561,00; 3451,005;  380,573;17058,456;18,41021
 561,58; 3430,930;  365,256;17295,942;18,10720
 562,16; 3500,501;  352,636;17563,758;18,28971
 562,74; 3537,064;  343,172;18019,534;18,06872
 563,32; 3594,788;  340,884;18463,047;17,95538
 563,90; 3638,373;  374,111;18751,178;17,76269
 564,48; 3665,032;  383,409;19141,490;17,49445
 565,06; 3776,994;  369,418;19742,025;17,58966
 565,65; 3862,582;  380,354;20392,804;17,40031
 566,23; 4006,748;  417,727;21174,520;17,29083
 566,81; 4044,724;  365,877;21803,886;17,16040
 567,39; 4163,024;  377,348;22719,322;16,94423
 567,97; 4275,990;  395,417;23375,137;16,88695
 568,55; 4445,116;  408,653;24221,748;16,95060
 569,13; 4452,233;  367,112;24876,340;16,66769
 569,71; 4607,819;  372,944;25867,724;16,61075
 570,29; 4798,031;  416,862;26786,630;16,61437
 570,87; 4888,596;  405,557;27584,995;16,49423
 571,45; 4949,530;  400,111;28290,910;16,31154
 572,03; 4954,528;  355,581;28672,731;16,24085
 572,61; 5035,262;  353,499;29338,205;16,15253
 573,20; 5156,783;  376,952;30011,990;16,12899
 573,78; 5207,497;  371,423;30679,324;15,95648
 574,36; 5295,107;  390,267;31202,664;15,91840
 574,94; 5342,570;  455,967;31659,909;15,66021
 575,52; 5326,453;  394,055;31794,562;15,70802
 576,10; 5386,168;  433,666;32346,027;15,51907
 576,68; 5472,247;  422,273;32898,129;15,54993
 577,26; 5494,267;  451,214;33577,054;15,22392
 577,84; 5559,556;  455,498;34085,120;15,17727
 578,42; 5641,392;  499,201;34419,056;15,15983
 579,00; 5561,976;  453,885;34499,448;15,00369
 579,58; 5570,884;  494,352;34762,836;14,81400
 580,16; 5484,922;  463,510;34720,555;14,65804
 580,74; 5500,849;  469,742;34999,443;14,57038
 581,32; 5458,869;  468,507;34998,792;14,45213
 581,90; 5420,377;  496,279;34962,551;14,28671
 582,48; 5381,785;  474,357;35030,909;14,20115
 583,06; 5369,233;  478,276;35274,242;14,05610
 583,64; 5379,075;  484,198;35241,277;14,08311
 584,22; 5284,656;  489,519;35129,513;13,84278
 584,80; 5242,416;  498,124;34846,492;13,81228
 585,38; 5138,013;  517,797;34446,987;13,61723
 585,96; 5034,967;  479,655;34460,178;13,40566
 586,54; 5083,119;  502,209;34444,318;13,49624
 587,12; 4995,413;  464,205;34628,958;13,26281
 587,70; 5032,741;  502,733;34745,450;13,22911
 588,28; 4981,730;  466,205;34788,386;13,15629
 588,86; 4942,120;  472,361;34790,816;13,02436
 589,44; 4914,369;  440,680;34892,229;12,98545
 590,02; 4932,931;  455,062;35066,005;12,93773
 590,59; 4891,573;  438,209;35229,930;12,80007
 591,17; 4899,848;  442,077;35454,411;12,73200
 591,75; 4890,363;  434,300;35548,657;12,69014
 592,33; 4878,627;  449,682;35684,014;12,56997
 592,91; 4838,828;  402,997;35979,050;12,46859
 593,49; 4861,185;  407,618;36252,507;12,42455
 594,07; 4905,870;  431,464;36510,042;12,40184
 594,65; 4887,635;  445,903;36473,655;12,32864
 595,23; 4877,275;  443,908;36899,907;12,16087
 595,81; 4894,124;  413,218;36986,144;12,25197
 596,39; 4915,325;  424,296;37078,246;12,25251
 596,97; 4848,564;  424,304;37280,341;12,00416
 597,55; 4813,022;  421,905;37309,661;11,90399
 598,12; 4806,956;  395,390;37275,975;11,96176
 598,70; 4781,997;  410,845;37385,292;11,82209
 599,28; 4793,202;  414,614;37516,125;11,80164
 599,86; 4791,522;  407,844;37574,361;11,79470
 600,44; 4732,053;  370,694;37647,632;11,69989
 601,02; 4785,069;  425,938;37762,855;11,67512
 601,60; 4728,524;  408,685;37705,661;11,58228
 602,18; 4679,755;  383,851;37747,488;11,49755
 602,75; 4680,427;  386,294;37756,486;11,49080
 603,33; 4688,312;  407,153;37790,142;11,45216
 603,91; 4622,386;  384,395;37721,005;11,35077
 604,49; 4668,540;  415,461;37758,719;11,38915
 605,07; 4647,757;  428,300;37840,623;11,27825
 605,65; 4635,713;  427,926;37978,541;11,20564
 606,23; 4631,820;  487,977;38103,897;11,01619
 606,80; 4649,163;  542,448;38058,931;10,94643
 607,38; 4625,591;  578,085;38170,951;10,76669
 607,96; 4669,771;  634,371;38194,081;10,74396
 608,54; 4665,064;  700,003;38186,986;10,57717
 609,12; 4660,906;  714,294;38354,841;10,48500
 609,70; 4626,772;  747,998;38368,755;10,31020
 610,27; 4652,085;  742,601;38434,389;10,37224
 610,85; 4630,374;  773,305;38529,208;10,21580
 611,43; 4601,442;  762,614;38461,630;10,18283
 612,01; 4536,729;  743,222;38276,607;10,10702
 612,59; 4564,755;  732,690;38270,554;10,20853
 613,16; 4491,920;  684,981;38193,761;10,14946
 613,74; 4477,978;  655,692;38003,668;10,23425
 614,32; 4494,352;  636,003;38082,592;10,30361
 614,90; 4461,465;  578,456;37936,711;10,39398
 615,48; 4369,347;  525,059;37630,400;10,36047
 616,05; 4342,859;  498,672;37543,036;10,37725
 616,63; 4314,294;  507,207;37447,978;10,30592
 617,21; 4328,299;  496,601;37336,804;10,40086
 617,79; 4266,008;  484,296;37268,587;10,28078
 618,36; 4249,031;  482,069;37275,913;10,23802
 618,94; 4166,709;  427,522;36803,429;10,27929
 619,52; 4172,031;  442,670;36682,811;10,29069
 620,10; 4173,143;  427,602;36564,307;10,36492
 620,67; 4134,267;  430,438;36475,273;10,27562
 621,25; 4165,276;  464,993;36341,460;10,31396
 621,83; 4071,879;  440,137;36286,399;10,13144
 622,41; 4156,096;  503,983;36333,853;10,19293
 622,98; 4076,364;  451,899;36021,051;10,18991
 623,56; 4099,593;  446,282;35995,510;10,27677
 624,14; 4085,132;  423,765;35918,701;10,31518
 624,72; 4074,428;  419,137;35827,288;10,32330
 625,29; 4060,028;  412,513;35931,420;10,26922
 625,87; 4091,887;  457,989;35809,835;10,27923
 626,45; 3994,090;  406,049;35661,101;10,17738
 627,02; 4014,029;  414,913;35708,369;10,19769
 627,60; 4008,969;  395,847;35519,474;10,28687
 628,18; 3995,136;  376,064;35613,072;10,27066
 628,76; 4019,368;  377,823;35574,709;10,34621
 629,33; 4020,124;  420,212;35594,440;10,23452
 629,91; 4045,451;  392,064;35549,845;10,39140
 630,49; 4060,082;  423,056;35731,416;10,30075
 631,06; 4060,158;  400,439;35821,413;10,33207
 631,64; 4073,248;  399,281;35757,143;10,39081
 632,22; 3994,424;  366,123;35640,993;10,28580
 632,79; 4062,013;  408,661;35986,595;10,26859
 633,37; 4083,522;  370,838;35965,811;10,43036
 633,95; 4128,895;  384,664;36011,080;10,50970
 634,52; 4119,805;  365,521;36189,746;10,47973
 635,10; 4098,303;  377,294;36134,077;10,40644
 635,68; 4149,749;  365,277;36399,578;10,50242
 636,25; 4129,646;  358,962;36258,939;10,50330
 636,83; 4129,060;  344,746;36618,786;10,43257
 637,41; 4160,553;  355,736;36545,939;10,51339
 637,98; 4199,967;  391,505;36757,760;10,47252
 638,56; 4235,580;  373,653;36902,018;10,57241
 639,13; 4207,828;  348,360;36975,552;10,53717
 639,71; 4287,396;  421,670;37153,186;10,52427
 640,29; 4181,946;  342,516;36922,296;10,49604
 640,86; 4223,813;  351,440;37025,954;10,55876
 641,44; 4185,757;  347,132;37082,535;10,44939
 642,02; 4263,700;  391,825;37072,039;10,55576
 642,59; 4246,260;  341,441;37344,697;10,55264
 643,17; 4282,049;  344,826;37240,431;10,67125
 643,74; 4280,532;  345,519;37332,781;10,63883
 644,32; 4271,860;  368,673;37176,285;10,60429
 644,89; 4312,727;  367,288;37273,866;10,69034
 645,47; 4319,901;  365,520;37273,601;10,71414
 646,05; 4312,999;  362,828;37166,720;10,73303
 646,62; 4282,481;  350,443;37172,070;10,67861
 647,20; 4324,656;  350,598;37345,959;10,74204
 647,77; 4293,523;  330,367;37107,617;10,77611
 648,35; 4300,236;  326,675;37019,429;10,82928
 648,92; 4324,718;  364,906;37109,163;10,77668
 649,50; 4319,893;  326,137;37018,975;10,88429
 650,08; 4317,836;  311,599;37002,864;10,91878
 650,65; 4349,549;  343,523;37153,906;10,88287
 651,23; 4432,955;  310,523;37858,641;10,97906
 651,80; 4576,668;  313,754;38886,914;11,05150
 652,38; 4636,304;  328,678;39315,956;11,04880
 652,95; 4688,709;  313,678;39767,691;11,08894
 653,53; 4761,807;  340,371;39916,195;11,17206
 654,10; 4855,827;  368,910;40112,391;11,28970
 654,68; 4741,387;  313,987;40043,126;11,14396
 655,25; 4785,254;  309,756;40190,399;11,22223
 655,83; 4817,659;  317,141;40149,673;11,29860
 656,40; 4827,833;  352,373;40164,484;11,24146
 656,98; 4824,393;  319,450;40117,296;11,31956
 657,55; 4782,952;  326,989;39966,800;11,24113
 658,13; 4791,895;  326,989;39564,150;11,37928
 658,70; 4756,378;  341,143;39353,577;11,31751
 659,28; 4650,014;  329,682;38518,389;11,31311
 659,85; 4557,265;  352,836;37644,816;11,27435
 660,43; 4606,824;  348,837;37703,627;11,39877
 661,00; 4603,999;  338,760;37690,824;11,41902
 661,58; 4679,174;  332,991;38098,943;11,50820
 662,15; 4686,040;  307,376;38278,293;11,53163
 662,73; 4805,984;  397,915;38514,951;11,56456
 663,30; 4777,620;  341,146;38722,532;11,55892
 663,88; 4814,718;  336,762;38917,882;11,60660
 664,45; 4856,585;  319,608;39128,386;11,69059
 665,03; 4916,606;  335,686;39535,275;11,68614
 665,60; 5078,472;  427,071;39975,317;11,76134
 666,17; 5014,416;  334,225;40085,206;11,77378
 666,75; 5053,668;  328,764;40366,325;11,80118
 667,32; 5152,150;  358,995;40701,444;11,88117
 667,90; 5210,709;  344,841;40865,410;12,00839
 668,47; 5254,422;  363,380;41122,145;11,99998
 669,05; 5268,981;  330,303;41525,418;11,98850
 669,62; 5274,540;  308,227;41570,152;12,03607
 670,19; 5306,946;  318,535;41644,041;12,07102
 670,77; 5350,274;  332,535;41806,699;12,09847
 671,34; 5393,526;  327,151;41733,895;12,23563
 671,92; 5437,623;  330,921;42058,707;12,23813
 672,49; 5482,490;  357,152;42205,442;12,24743
 673,06; 5481,203;  296,229;42138,792;12,39163
 673,64; 5506,839;  315,306;42104,065;12,42328
 674,21; 5500,860;  306,537;42078,646;12,43491
 674,79; 5599,188;  353,538;42393,304;12,47783
 675,36; 5632,055;  348,307;42591,808;12,50784
 675,93; 5613,999;  309,923;42368,773;12,61108
 676,51; 5665,712;  344,539;42560,431;12,60467
 677,08; 5683,271;  347,155;42653,935;12,61291
 677,65; 5755,446;  333,232;42768,747;12,77754
 678,23; 5821,543;  320,694;42960,481;12,90074
 678,80; 5832,641;  318,079;43157,062;12,87277
 679,38; 5895,969;  325,156;43234,797;12,98266
 679,95; 5972,836;  332,310;43585,839;13,04061
 680,52; 6002,934;  327,464;43712,189;13,08172
 681,10; 6113,955;  344,696;44094,693;13,18688
 681,67; 6152,591;  339,234;44358,197;13,20648
 682,24; 6166,765;  308,389;44439,086;13,27506
 682,82; 6259,401;  321,081;44980,975;13,29676
 683,39; 6393,807;  365,697;45322,786;13,40859
 683,96; 6406,981;  332,544;45596,752;13,41996
 684,54; 6458,156;  306,467;45884,717;13,49698
 685,11; 6579,946;  360,237;46233,990;13,55832
 685,68; 6623,043;  311,468;46585,648;13,63952
 686,25; 6681,602;  303,391;46650,383;13,76187
 686,83; 6689,008;  317,161;46974,502;13,65669
 687,40; 6735,952;  294,315;47295,314;13,70532
 687,97; 6904,511;  337,854;47525,126;13,91616
 688,55; 6846,224;  292,085;47628,091;13,84599
 689,12; 6946,014;  286,470;47867,057;13,99635
 689,69; 6974,188;  283,701;47921,253;14,04457
 690,26; 7048,978;  308,778;48096,295;14,10452
 690,84; 7090,076;  301,009;48252,646;14,15815
 691,41; 7153,404;  325,164;48323,073;14,22612
 691,98; 7234,809;  328,779;48542,730;14,32372
 692,56; 7278,907;  320,780;48735,388;14,37196
 693,13; 7290,928;  365,318;48732,354;14,31886
 693,70; 7377,949;  332,857;48950,165;14,49091
 694,27; 7402,431;  310,396;48987,362;14,56959
 694,84; 7422,759;  308,243;49159,404;14,56366
 695,42; 7537,549;  360,935;49321,370;14,65799
 695,99; 7574,647;  320,705;49499,028;14,75028
 696,56; 7640,360;  322,090;49347,147;14,92761
 697,13; 7695,765;  333,321;49731,497;14,90428
 697,71; 7726,324;  305,706;49833,078;14,98286
 698,28; 7747,883;  316,245;50208,428;14,89540
 698,85; 7826,750;  285,476;50168,855;15,11781
 699,42; 7902,156;  293,322;50374,128;15,19311
 699,99; 7981,484;  337,861;50482,632;15,24311
 700,57; 7957,889;  320,092;50544,444;15,20736
 701,14; 8026,910;  311,170;50638,332;15,33117
 701,71; 8128,469;  342,401;50861,529;15,41212
 702,28; 8171,875;  318,093;50900,033;15,52685
 702,85; 8248,895;  325,709;50990,537;15,63843
 703,43; 8292,608;  348,171;51200,810;15,62247
 704,00; 8374,014;  360,941;51443,006;15,68667
 704,57; 8391,342;  338,095;51548,356;15,72585
 705,14; 8514,747;  360,634;51643,245;15,90035
 705,71; 8542,614;  377,788;51681,441;15,91471
 706,28; 8570,789;  341,711;51600,484;16,05399
 706,86; 8674,348;  367,404;51881,295;16,12564
 707,43; 8737,369;  392,558;51784,184;16,23769
 708,00; 8739,697;  374,020;51829,688;16,25803
 708,57; 8734,872;  357,174;51758,115;16,29872
 709,14; 8815,585;  380,252;51864,465;16,38431
 709,71; 8864,451;  356,175;51958,661;16,48811
 710,28; 8934,164;  350,945;52143,011;16,57246
 710,86; 9002,262;  353,637;52296,977;16,65011
 711,43; 9086,437;  388,561;52232,712;16,77697
 712,00; 9105,842;  347,099;52462,831;16,80633
 712,57; 9143,401;  368,792;52613,181;16,79531
 713,14; 9209,960;  345,485;52694,839;16,93330
 713,71; 9237,981;  342,716;52622,189;17,01483
 714,28; 9321,694;  329,562;52587,155;17,20732
 714,85; 9300,176;  311,486;52370,428;17,26637
 715,42; 9388,428;  318,179;52488,239;17,38593
 716,00; 9498,833;  389,717;52650,513;17,43011
 716,57; 9532,161;  323,410;52897,863;17,51564
 717,14; 9542,259;  300,487;52773,751;17,61234
 717,71; 9606,049;  280,872;52697,409;17,79052
 718,28; 9701,685;  345,411;52941,529;17,78891
 718,85; 9743,244;  294,796;52799,648;17,99538
 719,42; 9820,419;  314,719;53093,690;18,01039
 719,99; 9824,747;  280,874;52844,041;18,15696
 720,56; 9921,152;  327,489;53152,468;18,16122
 721,13; 9966,712;  295,413;53200,664;18,28041
 721,70; 9989,886;  291,336;53172,091;18,34042
 722,27;10027,753;  327,029;53200,287;18,34713
 722,84;10175,620;  385,875;53456,945;18,44648
 723,41;10032,025;  290,107;53359,757;18,35685
 723,98;10196,354;  312,953;53547,107;18,56590
 724,55;10249,221;  333,030;53651,611;18,59800
 725,12;10250,164;  271,877;53561,499;18,72464
 725,69;10356,339;  289,493;53752,773;18,82946
 726,27;10397,052;  312,031;53853,507;18,83590
 726,84;10501,919;  315,186;54174,550;18,91358
 727,41;10506,247;  314,878;54087,361;18,95276
 727,98;10591,806;  324,648;54389,173;18,99056
 728,55;10728,904;  351,648;54299,215;19,23582
 729,12;10752,463;  298,341;54383,412;19,32903
 729,69;10823,945;  338,572;54596,223;19,32515
 730,26;10940,658;  326,342;54893,881;19,45170
 730,82;10915,833;  321,342;54664,001;19,49572
 731,39;11003,854;  331,650;54859,889;19,57188
 731,96;11117,797;  306,574;55130,547;19,71988
 732,53;11210,895;  335,882;55288,743;19,78971
 733,10;11317,993;  344,343;55336,401;19,95497
 733,67;11389,090;  339,575;55680,674;19,96620
 734,24;11392,496;  329,498;55314,486;20,12003
 734,81;11504,824;  351,960;55457,451;20,23912
 735,38;11518,614;  326,114;55160,648;20,41141
 735,95;11549,942;  331,499;54940,152;20,54334
 736,52;11651,732;  340,961;55244,348;20,60123
 737,09;11640,676;  354,654;54918,775;20,68396
 737,66;11742,851;  403,577;55065,510;20,74437
 738,23;11783,871;  345,424;55071,091;20,90143
 738,80;11938,430;  414,809;55413,749;20,95244
 739,37;11981,374;  371,270;55577,329;21,03049
 739,94;12054,857;  340,578;55636,987;21,18452
 740,51;12189,493;  472,733;55690,645;21,21913
 741,07;12161,975;  353,502;55597,764;21,37502
 741,64;12274,996;  374,503;55863,268;21,44667
 742,21;12263,939;  347,118;55899,157;21,45164
 742,78;12293,037;  317,580;55685,815;21,62875
 743,35;12447,365;  338,196;55994,011;21,75724
 743,92;12554,463;  375,658;55992,746;21,89760
 744,49;12583,484;  375,428;55892,942;21,98956
 745,06;12543,351;  345,274;55982,831;21,92418
 745,63;12659,756;  332,351;55944,873;22,16660
 746,19;12657,777;  334,659;55946,608;22,15912
 746,76;12731,413;  338,660;56009,573;22,26073
 747,33;12750,741;  355,122;55937,000;22,30155
 747,90;12820,762;  359,583;56211,274;22,31119
 748,47;12854,629;  355,968;56132,470;22,40847
 749,04;12958,188;  348,507;56220,743;22,56878
 749,61;13035,593;  373,738;56133,016;22,70807
 750,17;13090,998;  359,277;56134,674;22,82677
 750,74;13145,711;  354,431;56069,563;22,95836
 751,31;13198,655;  331,663;56056,836;23,09009
 751,88;13203,830;  326,278;55958,725;23,14756
 752,45;13294,697;  338,356;56058,613;23,25248
 753,02;13299,640;  358,048;55964,963;23,27335
 753,58;13372,661;  332,049;55822,313;23,50072
 754,15;13485,528;  326,818;55941,202;23,66062
 754,72;13445,010;  323,895;55777,860;23,66127
 755,29;13553,723;  310,204;55631,364;23,93934
 755,86;13643,898;  316,896;55711,868;24,05814
 756,42;13693,380;  330,512;55701,141;24,13350
 756,99;13691,093;  291,974;55721,106;24,17342
 757,56;13742,883;  300,436;55504,764;24,35035
 758,13;13760,134;  254,205;55387,884;24,49670
 758,70;13914,924;  277,360;55463,849;24,71178
 759,26;13975,407;  266,283;55611,968;24,77000
 759,83;14035,197;  282,283;55725,934;24,80521
 760,40;14160,217;  254,284;55604,130;25,12371
 760,97;14130,238;  253,130;55511,250;25,11325
 761,53;14043,182;  238,746;55224,369;25,10554
 762,10;14060,049;  226,439;55091,411;25,21392
 762,67;14129,839;  267,747;55061,685;25,29859
 763,24;14061,705;  220,209;54714,881;25,39973
 763,80;14196,265;  260,055;54863,231;25,52271
 764,37;14204,131;  264,517;54886,350;25,52022
 764,94;14181,152;  256,979;54448,085;25,69457
 765,50;14217,250;  261,595;54363,897;25,79494
 766,07;14262,886;  305,441;54565,170;25,72340
 766,64;14256,522;  285,672;54260,905;25,88382
 767,21;14242,389;  280,442;54071,639;25,95582
 767,77;14293,256;  308,134;54050,067;26,02274
 768,34;14326,969;  314,673;54016,263;26,09289
 768,91;14320,297;  327,058;53876,228;26,13157
 769,47;14297,856;  327,905;53913,732;26,07024
 770,04;14354,339;  320,905;53773,775;26,25384
 770,61;14303,590;  300,752;53592,663;26,27573
 771,18;14303,380;  295,829;53376,936;26,38896
 771,74;14442,324;  313,829;53561,671;26,53346
 772,31;14355,575;  311,291;53366,021;26,47131
 772,88;14336,365;  290,753;53131,910;26,58082
 773,44;14278,309;  296,830;53045,491;26,50585
 774,01;14298,176;  317,831;53152,764;26,46042
 774,58;14312,581;  305,062;52650,345;26,75985
 775,14;14359,833;  286,447;52948,387;26,72402
 775,71;14409,776;  302,832;52857,353;26,84249
 776,27;14555,412;  368,371;52715,395;27,10191
 776,84;14639,125;  397,525;52833,438;27,16001
 777,41;14601,454;  311,987;52554,249;27,35231
 777,97;14523,859;  308,295;52285,215;27,34976
 778,54;14581,418;  303,526;52279,488;27,47018
 779,11;14706,747;  326,988;52323,607;27,65518
 779,67;14814,460;  288,527;52191,727;27,98658
 780,24;14759,481;  307,450;52040,077;27,93601
 780,80;14814,886;  324,835;52063,427;28,00627
 781,37;14852,291;  324,758;51949,700;28,14053
 781,94;14835,081;  313,451;51784,743;28,21307
 782,50;14942,717;  317,144;51658,554;28,48689
 783,07;14943,507;  337,529;51743,289;28,41312
 783,63;14972,605;  304,683;51456,332;28,67536
 784,20;14980,395;  339,376;51300,528;28,72976
 784,77;14959,723;  311,453;51225,186;28,77076
 785,33;14882,667;  294,915;50983,074;28,77941
 785,90;14956,688;  303,915;51032,809;28,88447
 786,46;15002,324;  322,839;50900,159;29,02385
 787,03;14915,267;  301,993;50652,278;29,02322
 787,59;14984,211;  298,224;50513,936;29,24580
 788,16;15015,309;  313,301;50510,517;29,28849
 788,73;14964,022;  312,071;50512,483;29,18691
 789,29;14980,889;  285,840;50073,679;29,51534
 789,86;15030,448;  328,687;49922,875;29,64412
 790,42;14993,161;  301,918;49712,533;29,73297
 790,99;14986,951;  311,688;49431,806;29,87628
 791,55;15007,741;  296,380;49395,233;29,96274
 792,12;15128,069;  334,996;49436,045;30,12782
 792,68;15140,090;  312,842;49136,549;30,36895
 793,25;15067,957;  306,612;48929,591;30,35878
 793,81;15071,901;  383,305;48567,865;30,48403
 794,38;14928,998;  277,074;48364,061;30,46962
 794,94;14911,019;  281,075;48267,103;30,48792
 795,51;14985,732;  315,075;47920,300;30,81733
 796,07;15003,676;  294,614;47741,650;31,00101
 796,64;15145,312;  325,768;47878,769;31,16427
 797,20;15066,102;  303,307;47325,427;31,39543
 797,77;14922,969;  274,692;47092,700;31,28770
 798,33;14969,451;  310,384;46897,743;31,46576
 798,90;15015,087;  318,769;46832,554;31,59562
 799,46;14909,646;  290,924;46419,674;31,69113
 800,03;14899,590;  307,539;46231,408;31,77444
 800,59;14875,764;  311,078;46110,143;31,80127
 801,15;14824,862;  320,694;45870,109;31,84271
 801,72;14743,806;  300,694;45530,997;31,93238
 802,28;14666,057;  328,310;45259,578;31,91040
 802,85;14589,232;  302,618;45098,005;31,89305
 803,41;14610,099;  289,849;44987,740;32,03786
 803,98;14536,196;  294,003;44489,628;32,22535
 804,54;14537,294;  290,465;44177,363;32,46260
 805,11;14463,930;  311,004;44040,252;32,36490
 805,67;14494,335;  322,389;43948,294;32,48516
 806,23;14415,279;  307,543;43562,798;32,61508
 806,80;14388,146;  320,698;43519,687;32,56430
 807,36;14386,244;  333,698;43446,575;32,59478
 807,93;14367,418;  345,314;43091,618;32,80308
 808,49;14325,747;  296,468;42657,968;33,11799
 809,05;14363,306;  279,314;42565,241;33,30657
 809,62;14343,634;  306,238;42518,053;33,25466
 810,18;14367,116;  305,930;42428,711;33,38143
 810,74;14300,368;  271,239;42170,753;33,48280
 811,31;14327,158;  273,470;41899,949;33,76141
 811,87;14339,563;  306,393;41779,299;33,83696
 812,44;14403,892;  319,778;41752,265;33,99292
 813,00;14333,605;  250,009;41412,769;34,21441
 813,56;14437,471;  299,471;41490,811;34,32275
 814,13;14399,954;  287,933;41363,315;34,35640
 814,69;14325,359;  281,549;41238,973;34,28880
 815,25;14211,072;  254,241;40772,477;34,44580
 815,82;14359,247;  299,165;40720,673;34,78366
 816,38;14318,729;  331,242;40600,100;34,73525
 816,94;14249,365;  264,781;40284,912;34,94387
 817,51;14245,232;  257,012;40110,185;35,09939
 818,07;14214,868;  256,397;39827,074;35,27478
 818,63;14233,889;  291,090;39544,732;35,51976
 819,20;14287,755;  277,552;39453,005;35,76271
 819,76;14149,699;  256,552;39198,432;35,67662
 820,32;14180,335;  303,937;38981,551;35,87708
 820,89;14102,048;  282,091;38803,901;35,87567
 821,45;14064,684;  267,630;38485,944;36,10064
 822,01;14001,474;  288,784;38235,371;36,13682
 822,57;14018,572;  286,400;38185,336;36,23366
 823,14;13963,131;  245,323;37953,917;36,37847
 823,70;13794,921;  258,785;37624,267;36,22631
 824,26;13783,942;  259,862;37509,541;36,30657
 824,82;13797,270;  300,094;37435,352;36,34599
 825,39;13742,445;  263,940;37111,241;36,57935
 825,95;13753,081;  290,171;37266,206;36,40982
 826,51;13675,640;  274,018;36743,710;36,74729
 827,08;13712,815;  315,249;36809,907;36,71103
 827,64;13632,143;  297,249;36649,180;36,68277
 828,20;13653,164;  257,403;36443,299;37,01929
 828,76;13594,877;  296,173;36381,188;36,85381
 829,32;13628,051;  313,635;36132,615;37,17140
 829,89;13549,533;  249,866;36017,657;37,18336
 830,45;13595,170;  271,174;36062,315;37,22708
 831,01;13613,959;  279,405;35843,896;37,49401
 831,57;13573,596;  283,175;35652,708;37,57590
 832,14;13523,232;  258,637;35711,366;37,41488
 832,70;13450,637;  260,099;35426,331;37,50910
 833,26;13477,042;  233,945;35366,373;37,69480
 833,82;13470,140;  268,484;35296,031;37,68935
 834,38;13486,853;  257,330;35233,689;37,82418
 834,95;13525,566;  255,715;35182,193;37,99367
 835,51;13476,817;  243,254;35039,466;38,03162
 836,07;13615,761;  271,255;35112,201;38,30122
 836,63;13670,705;  304,870;35036,859;38,48278
 837,19;13632,187;  277,717;34829,286;38,65084
 837,75;13451,823;  245,948;34607,559;38,43206
 838,32;13582,459;  290,487;34752,602;38,56981
 838,88;13626,249;  290,718;34674,259;38,78464
 839,44;13631,578;  294,411;34681,456;38,78544
 840,00;13624,368;  276,488;34592,652;38,89677
 840,56;13540,158;  262,181;34297,540;39,01230
 841,12;13498,178;  260,489;34213,660;38,98808
 841,68;13458,584;  238,412;34080,395;39,06441
 842,25;13465,604;  253,566;34154,052;38,97300
 842,81;13430,394;  258,567;33854,479;39,20664
 843,37;13545,646;  243,028;33824,753;39,61267
 843,93;13559,436;  264,260;33801,257;39,64331
 844,49;13624,764;  281,491;33788,914;39,82184
 845,05;13568,246;  226,414;33613,957;39,96051
 845,61;13676,806;  278,184;33598,845;40,21115
 846,17;13582,980;  262,338;33423,196;40,16978
 846,73;13623,155;  272,031;33429,700;40,26557
 847,29;13545,252;  249,492;33178,127;40,37750
 847,86;13574,734;  250,647;33157,861;40,48987
 848,42;13579,371;  244,416;33008,442;40,69999
 848,98;13557,237;  267,186;32922,562;40,69790
 849,54;13647,258;  250,340;32905,066;41,02597
 850,10;13593,894;  262,725;32723,185;41,06895
 850,66;13591,223;  241,033;32620,150;41,23086
 851,22;13579,628;  240,418;32551,501;41,28370
 851,78;13671,110;  284,034;32665,620;41,34163
 852,34;13582,592;  269,419;32323,124;41,53396
 852,90;13624,998;  252,573;32188,320;41,87290
 853,46;13501,326;  242,727;31997,670;41,75287
 854,02;13679,655;  266,881;32021,020;42,23945
 854,58;13518,829;  252,036;31732,217;42,14332
 855,14;13543,388;  242,728;31675,105;42,31516
 855,70;13528,794;  230,498;31478,609;42,55712
 856,26;13610,584;  261,652;31426,959;42,83266
 856,82;13596,604;  249,575;31362,002;42,89935
 857,38;13621,702;  301,730;31168,583;43,15300
 857,94;13583,030;  260,730;31128,625;43,15908
 858,50;13541,974;  272,577;30932,668;43,27905
 859,06;13476,302;  258,731;30843,633;43,21600
 859,62;13524,400;  280,577;30800,368;43,39421
 860,18;13413,036;  266,347;30540,795;43,42503
 860,74;13468,672;  236,116;30480,376;43,75229
 861,30;13385,001;  239,271;30208,034;43,86477
 861,86;13570,560;  311,117;30398,922;44,06916
 862,42;13349,888;  251,579;30109,349;43,86901
 862,98;13454,678;  286,810;30098,776;44,16974
 863,54;13322,545;  251,503;29904,203;44,08044
 864,10;13480,720;  268,119;29954,015;44,50801
 864,66;13357,125;  228,888;29743,904;44,47986
 865,22;13293,069;  247,273;29580,946;44,47379
 865,78;13234,474;  260,889;29447,373;44,45066
 866,34;13295,572;  246,428;29419,031;44,73082
 866,90;13284,131;  258,274;29261,150;44,91229
 867,45;13230,613;  250,813;29022,039;45,11382
 868,01;13130,557;  244,583;28907,543;44,95689
 868,57;12986,654;  249,045;28737,278;44,71183
 869,13;12961,752;  237,506;28576,012;44,90091
 869,69;12891,081;  240,199;28538,901;44,70481
 870,25;12927,947;  236,969;28389,482;45,07938
 870,81;12939,122;  245,046;28317,832;45,21844
 871,37;12876,758;  269,662;28271,259;45,02278
 871,93;12856,240;  283,739;28096,686;45,20377
 872,49;12749,261;  296,893;27928,728;45,06529
 873,04;12657,897;  240,817;27787,309;45,07681
 873,60;12682,072;  240,894;27667,890;45,36107
 874,16;12684,015;  271,433;27518,163;45,55623
 874,72;12660,938;  254,433;27458,856;45,60474
 875,28;12637,708;  251,433;27358,933;45,69317
 875,84;12702,785;  261,817;27373,779;45,88737
 876,40;12703,169;  243,510;27305,779;46,04071
 876,95;12684,015;  247,356;27243,010;46,06912
 877,51;12763,938;  283,202;27220,471;46,33260
 878,07;12799,785;  290,971;27186,010;46,50974
 878,63;12828,169;  258,048;27179,163;46,69242
 879,19;12801,246;  264,740;27231,625;46,48852
 879,75;12929,092;  254,279;27203,010;47,03306
 880,30;12943,938;  246,048;27291,010;46,95104
 880,86;13061,323;  299,433;27390,625;47,10716
 881,42;13120,092;  233,510;27328,933;47,56000
 881,98;13150,554;  264,894;27395,548;47,49484
 882,54;13325,631;  241,356;27527,625;47,95187
 883,09;13453,246;  265,433;27595,548;48,25378
 883,65;13469,554;  250,433;27656,548;48,23420
 884,21;13657,708;  294,202;27779,240;48,62102
 884,77;13596,323;  235,587;27917,548;48,26514
 885,32;13756,554;  258,279;28054,702;48,56119
 885,88;13884,785;  280,894;28194,779;48,73521
 886,44;13957,400;  255,971;28265,779;48,91654
 887,00;13957,477;  273,971;28209,394;48,98263
 887,56;13992,323;  256,894;28435,010;48,74502
 888,11;14075,092;  269,663;28349,702;49,16457
 888,67;14221,015;  277,740;28548,394;49,32067
 889,23;14262,631;  254,125;28482,010;49,62648
 889,79;14270,092;  244,356;28431,856;49,75871
 890,34;14336,631;  268,125;28384,163;50,03730
 890,90;14475,400;  333,202;28557,779;50,10597
 891,46;14470,246;  244,202;28416,471;50,49662
 892,01;14504,092;  267,048;28408,933;50,59023
 892,57;14546,708;  296,048;28336,240;50,82226
 893,13;14489,631;  243,663;28152,471;51,04470
 893,69;14507,631;  236,048;28070,625;51,27286
 894,24;14460,477;  248,125;27938,933;51,32516
 894,80;14496,169;  255,202;27894,010;51,52526
 895,36;14405,631;  243,356;27727,471;51,52895
 895,91;14302,092;  249,433;27520,779;51,52903
 896,47;14285,938;  272,125;27423,548;51,61355
 897,03;14167,554;  246,663;27244,394;51,56319
 897,58;14130,246;  255,433;27167,779;51,55557
 898,14;14040,938;  262,433;27009,779;51,51354
 898,70;13980,323;  214,125;26779,856;51,81938
 899,25;14027,092;  254,971;26867,240;51,75102
 899,81;14003,246;  259,740;26652,471;52,07307
 900,37;13861,862;  211,279;26454,163;52,01632
 900,92;13877,092;  248,433;26442,163;52,03023
 901,48;13819,708;  236,510;26289,856;52,13610
 902,03;13732,246;  237,048;26127,163;52,12491
 902,59;13796,708;  239,048;26029,856;52,56780
 903,15;13734,938;  262,356;25902,163;52,54557
 903,70;13582,785;  241,279;25715,010;52,37358
 904,26;13590,554;  237,587;25565,471;52,72042
 904,82;13526,554;  241,510;25528,702;52,53665
 905,37;13447,708;  252,587;25409,625;52,45101
 905,93;13395,862;  231,510;25257,163;52,60343
 906,48;13381,938;  249,202;25269,240;52,48887
 907,04;13310,708;  254,817;25191,933;52,35526
 907,60;13249,400;  250,587;24960,010;52,60671
 908,15;13138,554;  236,279;24885,010;52,34458
 908,71;13222,554;  260,971;24848,548;52,71598
 909,26;13148,246;  230,740;24733,163;52,71930
 909,82;13077,246;  255,279;24547,548;52,78209
 910,37;13140,246;  279,894;24504,317;53,08837
 910,93;13030,169;  235,817;24324,625;53,11326
 911,48;12973,631;  211,279;24223,548;53,14930
 912,04;12924,785;  229,510;24064,779;53,26256
 912,60;12936,477;  243,356;24029,163;53,36426
 913,15;12838,323;  245,048;23886,394;53,26801
 913,71;12812,323;  225,587;23652,856;53,72686
 914,26;12822,400;  218,740;23636,010;53,82207
 914,82;12795,015;  247,740;23560,856;53,82067
 915,37;12839,400;  230,663;23486,856;54,21669
 915,93;12841,631;  303,202;23381,471;54,33002
 916,48;12768,938;  221,817;23217,548;54,56283
 917,04;12745,169;  259,663;23063,394;54,75203
 917,59;12715,554;  270,740;23124,548;54,45400
 918,15;12610,862;  205,202;22832,394;54,82633
 918,70;12594,169;  230,817;22744,933;54,91378
 919,26;12582,862;  240,740;22600,702;55,19742
 919,81;12525,092;  219,433;22460,471;55,32862
 920,37;12542,938;  245,433;22430,317;55,43191
 920,92;12514,015;  263,125;22403,625;55,33249
 921,48;12389,785;  223,894;22091,394;55,63457
 922,03;12396,246;  233,048;22110,163;55,59781
 922,59;12371,092;  232,817;22055,702;55,62177
 923,14;12342,246;  244,510;21812,163;56,09204
 923,69;12279,477;  254,510;21781,163;55,86083
 924,25;12285,323;  265,048;21795,010;55,83045
 924,80;12188,169;  239,587;21542,471;56,08904
 925,36;12197,015;  225,202;21428,625;56,46170
 925,91;12164,323;  219,048;21370,010;56,47627
 926,47;12163,323;  217,279;21331,394;56,57847
 927,02;12212,862;  291,971;21219,317;56,96322
 927,57;12072,477;  225,279;21006,087;57,01029
 928,13;11972,169;  225,279;20948,010;56,68602
 928,68;11999,631;  233,817;20900,933;56,93012
 929,24;11817,323;  201,971;20710,625;56,63634
 929,79;11837,631;  219,587;20580,240;57,06125
 930,34;11859,631;  226,356;20442,317;57,54500
 930,90;11801,938;  225,663;20414,856;57,33897
 931,45;11776,554;  231,894;20431,779;57,15211
 932,01;11778,246;  235,048;20330,317;57,44237
 932,56;11764,938;  250,663;20097,779;58,01485
 933,11;11830,400;  258,587;20132,548;58,22600
 933,67;11625,785;  220,202;19943,317;57,82850
 934,22;11635,169;  230,125;19903,317;57,97251
 934,77;11587,554;  252,202;19720,779;58,22383
 935,33;11528,169;  232,971;19621,779;58,25628
 935,88;11549,092;  239,202;19570,317;58,50614
 936,43;11428,092;  228,740;19440,933;58,29294
 936,99;11441,323;  232,202;19387,779;58,51623
 937,54;11298,323;  204,894;19253,394;58,23781
 938,09;11304,862;  237,587;19226,317;58,28338
 938,65;11259,631;  237,433;19047,317;58,59790
 939,20;11235,092;  210,356;19020,779;58,60972
 939,75;11212,169;  214,740;18954,471;58,68510
 940,31;11115,938;  213,125;18819,933;58,59583
 940,86;11177,092;  225,740;18780,163;59,02286
 941,41;11184,708;  315,510;18720,317;59,05630
 941,96;11076,708;  220,048;18550,471;59,22755
 942,52;11076,785;  222,125;18442,856;59,57313
 943,07;10948,169;  199,740;18381,087;59,11789
 943,62;10903,708;  217,587;18287,010;59,13925
 944,18;10889,092;  209,971;18255,317;59,17936
 944,73;10863,323;  234,433;18020,240;59,76052
 945,28;10704,631;  196,894;17911,933;59,31535
 945,83;10728,631;  221,663;17909,087;59,40361
 946,39;10742,246;  218,279;17914,702;59,46946
 946,94;10747,477;  243,817;17736,010;60,04770
 947,49;10630,554;  216,510;17631,625;59,79888
 948,04;10719,169;  262,356;17690,317;60,00021
 948,59;10682,400;  241,971;17645,163;59,99146
 949,15;10637,015;  207,740;17503,625;60,29917
 949,70;10589,554;  229,433;17385,471;60,38761
 950,25;10527,862;  231,663;17277,010;60,40475
 950,80;10416,938;  186,663;17122,702;60,40536
 951,36;10374,938;  192,587;17124,548;60,13687
 951,91;10410,092;  243,356;17139,933;60,17039
 952,46;10308,015;  202,663;16908,394;60,49033
 953,01;10330,323;  236,202;16897,010;60,58603
 953,56;10218,092;  201,125;16755,471;60,50959
 954,11;10263,092;  234,663;16748,317;60,72810
 954,67;10172,015;  218,894;16653,087;60,56349
 955,22;10129,477;  196,279;16463,625;61,06219
 955,77;10178,862;  243,894;16551,240;60,92326
 956,32;10135,400;  281,894;16403,163;61,12115
 956,87;10069,015;  216,433;16257,240;61,42199
 957,42; 9982,631;  230,125;16189,933;61,10666
 957,98; 9996,785;  217,587;16138,933;61,42193
 958,53;10040,015;  248,356;16123,010;61,68109
 959,08; 9952,400;  204,356;15932,779;61,97725
 959,63; 9929,015;  209,817;15836,471;62,19628
 960,18; 9934,169;  240,433;15843,548;62,12693
 960,73; 9892,477;  224,048;15819,087;61,99683
 961,28; 9840,477;  206,663;15655,010;62,36146
 961,83; 9858,708;  247,894;15641,548;62,43361
 962,39; 9746,862;  203,894;15504,702;62,36904
 962,94; 9792,246;  224,663;15445,163;62,85984
 963,49; 9658,169;  227,202;15295,779;62,58698
 964,04; 9664,862;  228,971;15216,548;62,95808
 964,59; 9594,015;  203,125;15139,317;62,87339
 965,14; 9572,477;  244,894;15098,856;62,79525
 965,69; 9518,323;  237,202;14957,163;63,05126
 966,24; 9409,246;  217,279;14840,317;62,85949
 966,79; 9443,554;  237,048;14789,394;63,26475
 967,34; 9354,785;  205,510;14734,856;62,97100
 967,89; 9309,477;  216,663;14617,625;63,14032
 968,44; 9329,708;  222,740;14560,933;63,51545
 968,99; 9288,169;  229,433;14552,625;63,24523
 969,55; 9266,554;  227,356;14408,625;63,74040
 970,10; 9201,862;  236,048;14297,702;63,76073
 970,65; 9245,323;  253,971;14166,471;64,62787
 971,20; 9207,938;  207,817;14077,240;64,89182
 971,75; 9155,785;  196,433;13935,163;65,21237
 972,30; 9186,785;  232,587;13902,010;65,50531
 972,85; 9115,785;  212,817;13824,240;65,40806
 973,40; 9033,015;  217,971;13728,163;65,24736
 973,95; 9002,708;  234,740;13695,010;65,13961
 974,50; 9019,477;  256,202;13630,317;65,52415
 975,05; 8923,169;  232,356;13502,240;65,49276
 975,60; 8858,708;  246,587;13442,010;65,26597
 976,15; 8867,708;  220,356;13283,010;66,19904
 976,70; 8787,477;  228,663;13184,856;66,05964
 977,25; 8768,631;  245,740;13159,010;66,00103
 977,80; 8667,477;  227,356;13054,240;65,80024
 978,35; 8573,862;  239,279;12839,394;66,14688
 978,89; 8529,554;  204,817;12779,702;66,20130
 979,44; 8514,477;  226,048;12821,779;65,80348
 979,99; 8411,631;  212,817;12606,625;66,15250
 980,54; 8391,092;  247,125;12527,010;66,31958
 981,09; 8339,400;  256,279;12521,856;65,90086
 981,64; 8274,015;  241,663;12382,933;66,15743
 982,19; 8272,323;  276,894;12315,933;66,41252
 982,74; 8205,169;  241,048;12229,010;66,43432
 983,29; 8106,169;  219,587;12037,625;66,73343
 983,84; 8119,015;  226,740;11923,702;67,47286
 984,39; 8155,169;  318,202;11991,625;67,13513
 984,94; 7968,169;  204,894;11736,779;67,32009
 985,49; 7913,862;  263,587;11708,163;66,84629
 986,03; 7894,862;  262,971;11659,548;66,96651
 986,58; 7848,477;  288,356;11489,240;67,49575
 987,13; 7754,323;  237,202;11355,394;67,61100
 987,68; 7671,862;  258,510;11278,625;67,27109
 988,23; 7655,477;  254,356;11222,317;67,47946
 988,78; 7559,092;  236,356;11108,548;67,35290
 989,33; 7531,631;  249,202;11009,548;67,67839
 989,88; 7528,708;  273,510;10959,625;67,89369
 990,42; 7405,169;  236,971;10761,856;68,10714
 990,97; 7342,169;  240,202;10640,163;68,28840
 991,52; 7298,862;  255,356;10569,779;68,28793
 992,07; 7284,862;  270,817;10517,317;68,45307
 992,62; 7195,862;  241,279;10391,856;68,51416
 993,17; 7108,631;  255,356;10232,933;68,68677
 993,71; 7072,092;  258,587;10219,010;68,40579
 994,26; 6977,092;  227,817; 9997,471;69,08408
 994,81; 6949,015;  257,587;10026,471;68,49737
 995,36; 6885,092;  233,663; 9858,779;69,10493
 995,91; 6917,323;  246,356; 9744,163;70,23692
 996,45; 6854,785;  243,048; 9689,625;69,99082
 997,00; 6722,631;  218,125; 9582,010;69,46375
 997,55; 6736,092;  251,356; 9489,933;70,19194
 998,10; 6660,631;  269,433; 9388,933;70,08277
 998,65; 6639,862;  237,356; 9351,163;70,25061
 999,19; 6602,477;  263,510; 9219,625;70,77809
 999,74; 6523,169;  283,587; 9113,163;70,66684
1000,29; 6469,938;  254,356; 9071,317;70,49574
1000,84; 6362,169;  247,356; 8884,625;70,79568
1001,38; 6305,015;  251,510; 8792,087;70,87935
1001,93; 6293,092;  246,125; 8761,702;71,01066
1002,48; 6173,169;  226,971; 8619,087;70,85458
1003,03; 6174,092;  254,433; 8565,471;71,22647
1003,57; 6096,477;  255,279; 8497,317;70,87079
1004,12; 6076,015;  288,048; 8389,702;71,44180
1004,67; 6014,938;  238,202; 8254,087;72,06611
1005,22; 5895,785;  229,279; 8159,702;71,45275
1005,76; 5846,785;  218,279; 8040,548;71,95490
1006,31; 5816,477;  257,202; 7979,240;71,99232
1006,86; 5725,631;  234,740; 7830,087;72,29283
1007,40; 5619,477;  216,663; 7735,856;71,85364
1007,95; 5538,554;  239,663; 7658,625;71,42361
1008,50; 5516,400;  248,587; 7545,702;72,19035
1009,04; 5428,785;  236,048; 7434,240;72,13945
1009,59; 5351,554;  247,971; 7270,317;72,67632
1010,14; 5297,554;  228,279; 7237,087;72,32721
1010,68; 5244,323;  243,433; 7149,548;72,41249
1011,23; 5151,323;  227,587; 6996,548;72,73991
1011,78; 5059,169;  253,894; 6943,856;71,82814
1012,32; 5031,169;  272,125; 6822,394;72,65418
1012,87; 4994,015;  269,894; 6837,548;71,93012
1013,42; 4884,631;  225,048; 6690,702;72,06669
1013,96; 4907,938;  270,125; 6717,240;71,93626
1014,51; 4805,631;  207,817; 6585,163;72,09603
1015,06; 4828,477;  216,202; 6554,240;72,77133
1015,60; 4895,554;  275,817; 6607,087;72,96699
1016,15; 4878,708;  230,663; 6560,856;73,42659
1016,69; 4886,554;  237,202; 6614,856;72,90066
1017,24; 4903,015;  223,433; 6589,394;73,50944
1017,79; 4960,631;  277,510; 6636,317;73,64779
1018,33; 4951,246;  231,510; 6634,779;73,70823
1018,88; 5014,938;  251,971; 6665,548;74,26382
1019,42; 5036,554;  231,971; 6630,163;75,09281
1019,97; 5014,554;  227,894; 6621,625;74,86489
1020,51; 5135,708;  268,356; 6689,548;75,80137
1021,06; 5068,246;  227,125; 6628,625;75,62479
1021,61; 5033,015;  201,740; 6623,933;75,22782
1022,15; 5016,554;  188,510; 6586,702;75,45950
1022,70; 5054,785;  241,740; 6589,856;75,81847
1023,24; 5035,938;  217,971; 6503,702;76,64928
1023,79; 5018,554;  225,356; 6506,702;76,30845
1024,33; 4969,938;  217,817; 6428,010;76,52132
1024,88; 4889,169;  244,817; 6364,010;75,89812
1025,42; 4837,477;  249,971; 6247,702;76,48736
1025,97; 4739,092;  220,048; 6179,240;75,83317
1026,51; 4658,092;  200,894; 6035,548;76,39182
1027,06; 4672,938;  215,202; 5981,933;77,30093
1027,60; 4597,785;  244,817; 5897,933;77,00121
1028,15; 4541,400;  251,048; 5856,087;76,54456
1028,69; 4411,169;  192,587; 5682,548;76,84175
1029,24; 4385,631;  232,587; 5602,548;77,33844
1029,78; 4290,554;  219,510; 5551,394;76,35282
1030,33; 4200,708;  202,663; 5448,317;76,21632
1030,87; 4160,862;  224,894; 5380,548;76,34274
1031,42; 4050,554;  212,356; 5271,625;75,86467
1031,96; 4029,938;  241,971; 5232,625;75,90122
1032,51; 3988,323;  211,817; 5156,702;76,37197
1033,05; 3973,862;  237,048; 5132,702;76,32920
1033,60; 3855,862;  197,587; 4966,702;76,70762
1034,14; 3818,554;  215,894; 4919,394;76,59529
1034,69; 3808,862;  223,740; 4855,933;77,39578
1035,23; 3773,092;  216,894; 4821,702;77,22794
1035,77; 3714,785;  215,817; 4729,010;77,52755
1036,32; 3657,938;  192,433; 4662,702;77,52342
1036,86; 3634,323;  230,279; 4599,163;77,91564
1037,41; 3584,169;  239,740; 4541,240;77,75029
1037,95; 3515,938;  188,279; 4430,548;78,44056
1038,50; 3441,862;  213,202; 4401,317;77,09099
1039,04; 3474,708;  235,740; 4344,933;78,82248
1039,58; 3384,554;  199,433; 4289,856;77,86777
1040,13; 3345,015;  221,740; 4213,856;78,23609
1040,67; 3395,323;  252,817; 4231,010;78,99331
1041,21; 3334,477;  258,279; 4144,856;79,14929
1041,76; 3245,938;  204,202; 4034,163;79,41951
1042,30; 3219,400;  221,510; 4012,471;79,07995
1042,85; 3142,785;  215,894; 3952,856;78,32273
1043,39; 3116,015;  212,433; 3862,625;79,54602
1043,93; 3104,785;  241,817; 3872,087;78,86377
1044,48; 3037,785;  230,510; 3825,471;78,08915
1045,02; 2991,015;  219,202; 3715,933;79,26871
1045,56; 3017,477;  252,894; 3728,471;79,54313
1046,11; 2901,323;  228,433; 3609,087;79,06430
1046,65; 2869,323;  230,433; 3572,087;78,96959
1047,19; 2847,246;  218,279; 3512,625;79,80240
1047,74; 2809,785;  197,356; 3469,856;79,82976
1048,28; 2777,246;  223,048; 3423,317;79,81197
1048,82; 2781,246;  256,971; 3420,317;79,79762
1049,37; 2726,169;  241,048; 3322,471;80,64849
1049,91; 2704,785;  231,587; 3308,856;80,36990
1050,45; 2644,015;  233,740; 3246,240;80,00913
1050,99; 2604,246;  227,433; 3231,163;79,12871
1051,54; 2539,400;  214,125; 3142,625;79,40157
1052,08; 2561,015;  246,894; 3127,702;80,32890
1052,62; 2548,631;  247,433; 3097,240;80,74924
1053,16; 2498,708;  226,125; 3032,317;80,98457
1053,71; 2445,708;  234,663; 3025,163;79,23470
1054,25; 2415,169;  245,510; 2963,394;79,82898
1054,79; 2406,477;  242,894; 2893,010;81,64108
1055,33; 2321,785;  199,356; 2849,010;80,10212
1055,88; 2314,631;  246,202; 2846,779;79,53731
1056,42; 2307,631;  247,433; 2797,471;80,79086
1056,96; 2281,169;  244,817; 2790,317;79,99811
1057,50; 2257,631;  239,125; 2715,702;81,50386
1058,05; 2219,092;  236,587; 2651,240;82,10310
1058,59; 2214,477;  253,587; 2637,933;82,24017
1059,13; 2134,708;  218,510; 2573,163;81,37918
1059,67; 2143,862;  242,817; 2560,548;82,02179
1060,21; 2089,785;  237,125; 2497,933;81,94680
1060,76; 2070,323;  243,356; 2515,625;80,40277
1061,30; 2071,323;  256,202; 2489,779;81,26522
1061,84; 1999,092;  240,433; 2418,856;80,73086
1062,38; 1976,785;  219,587; 2340,163;82,86415
1062,92; 2011,938;  274,587; 2379,702;82,53001
1063,46; 1950,323;  249,663; 2320,471;82,12542
1064,01; 1911,323;  232,894; 2289,856;81,59748
1064,55; 1867,938;  235,279; 2254,625;80,85090
1065,09; 1833,015;  208,048; 2167,625;82,92439
1065,63; 1862,246;  259,971; 2212,163;82,07567
1066,17; 1852,092;  282,740; 2185,317;82,48560
1066,71; 1808,862;  260,048; 2159,702;81,53135
1067,25; 1771,631;  238,433; 2102,087;82,26839
1067,80; 1757,785;  252,587; 2086,240;82,08736
1068,34; 1771,631;  269,817; 2096,702;82,20626
1068,88; 1720,477;  242,279; 2011,702;83,54125
1069,42; 1710,554;  259,740; 2022,240;82,31566
1069,96; 1677,169;  246,587; 1975,548;82,74231
1070,50; 1694,554;  274,202; 1998,163;82,38884
1071,04; 1631,862;  228,817; 1931,394;82,40710
1071,58; 1641,092;  236,740; 1905,856;84,13750
1072,12; 1608,246;  235,894; 1914,548;81,75312
1072,66; 1581,015;  240,587; 1872,702;82,12831
1073,21; 1598,246;  250,356; 1855,779;83,95858
1073,75; 1541,631;  239,817; 1843,163;81,19354
1074,29; 1510,477;  238,740; 1820,010;80,42505
1074,83; 1543,554;  269,510; 1805,240;82,96013
1075,37; 1511,708;  263,433; 1800,010;81,23739
1075,91; 1490,092;  256,125; 1753,010;82,43570
1076,45; 1480,323;  244,894; 1728,548;83,26935
1076,99; 1474,862;  257,202; 1729,087;82,72793
1077,53; 1412,169;  235,433; 1662,548;82,45560
1078,07; 1424,323;  244,740; 1679,240;82,22954
1078,61; 1395,708;  249,587; 1643,087;82,24766
1079,15; 1378,015;  242,202; 1623,240;82,24343
1079,69; 1355,092;  239,279; 1606,240;81,62728
1080,23; 1384,631;  262,587; 1587,702;84,67521
1080,77; 1384,400;  302,971; 1626,625;81,70028
1081,31; 1311,246;  236,740; 1546,548;82,03538
1081,85; 1340,477;  268,510; 1558,625;83,09081
1082,39; 1300,400;  238,433; 1515,163;83,17864
1082,93; 1290,862;  249,125; 1515,087;82,28817
1083,47; 1255,015;  235,125; 1445,471;84,26436
1084,01; 1274,785;  253,740; 1488,317;82,70398
1084,55; 1241,477;  241,510; 1434,779;83,80064
1085,09; 1240,554;  256,587; 1444,933;82,80140
1085,63; 1233,400;  249,663; 1423,317;83,81829
1086,17; 1207,323;  228,663; 1396,317;83,81419
1086,71; 1189,477;  224,279; 1372,010;84,09621
1087,24; 1202,246;  261,663; 1402,163;82,47108
1087,78; 1193,631;  259,279; 1373,702;83,84176
1088,32; 1124,938;  230,971; 1326,625;81,59213
1088,86; 1162,092;  257,356; 1332,394;84,15853
1089,40; 1149,323;  250,587; 1322,548;83,84037
1089,94; 1104,323;  222,356; 1272,010;84,02459
1090,48; 1094,246;  262,125; 1279,933;81,75623
1091,02; 1117,554;  266,048; 1280,625;83,92718
1091,56; 1081,708;  250,894; 1249,548;83,19334
1092,10; 1068,477;  229,510; 1219,933;84,70797
1092,63; 1091,169;  268,048; 1259,625;83,01133
1093,17; 1060,323;  251,510; 1227,779;82,84738
1093,71; 1031,862;  231,356; 1181,625;84,23989
1094,25; 1040,323;  269,663; 1208,779;82,06229
1094,79; 1006,554;  239,663; 1163,548;83,00716
1095,33; 1005,323;  256,048; 1162,163;82,69090
1095,87; 1012,708;  246,433; 1143,087;85,45940
1096,40;  953,862;  235,048; 1108,856;82,26220
1096,94;  974,015;  242,279; 1113,240;84,01479
1097,48;  976,938;  260,433; 1126,625;82,71902
1098,02;  950,938;  237,663; 1066,856;86,02046
1098,56;  904,477;  216,202; 1053,010;82,25008
1099,10;  911,477;  216,971; 1052,317;83,13988
1099,63;  914,169;  223,433; 1027,779;85,87553
1100,17;  918,708;  251,510; 1050,856;83,46798
1100,71;  941,092;  265,740; 1058,779;85,16005

