
Integration time [ms]: 140,000
Averaging Nr. [scans]: 13
Smoothing Nr. [pixels]: 0
Data measured with spectrometer [name]: 2009305U1
Wave   ;Sample   ;Dark     ;Reference;Reflectance
[nm]   ;[counts] ;[counts] ;[counts] ;[%]

 175,72;  222,934;  207,672;  215,673;190,75836
 176,32;  230,929;  238,424;  241,025;-288,08506
 176,92;  278,736;  272,128;  266,109; 0,00000
 177,52;  271,883;  265,361;  267,675;281,80944
 178,12;  249,942;  258,117;  238,311; 0,00000
 178,72;  270,743;  276,958;  258,525; 0,00000
 179,32;  264,376;  279,578;  258,748; 0,00000
 179,92;  260,984;  269,431;  262,806; 0,00000
 180,52;  254,304;  254,297;  261,455; 0,09164
 181,12;  263,827;  273,355;  266,130; 0,00000
 181,73;  296,745;  284,895;  277,919; 0,00000
 182,33;  379,835;  381,443;  397,957;-9,73666
 182,93;  289,360;  280,130;  286,949;135,36152
 183,53;  251,090;  255,340;  247,813; 0,00000
 184,13;  254,928;  242,804;  237,845; 0,00000
 184,73;  292,543;  293,338;  296,892;-22,36467
 185,33;  291,846;  261,312;  361,143;30,58586
 185,93;  291,102;  243,376;  381,547;34,54142
 186,53;  306,080;  260,229;  410,327;30,54757
 187,13;  335,759;  280,704;  420,213;39,46362
 187,73;  303,389;  257,224;  382,447;36,86604
 188,33;  291,888;  249,678;  381,863;31,93240
 188,93;  319,223;  263,040;  387,891;44,99960
 189,53;  310,648;  261,946;  380,542;41,06485
 190,13;  354,092;  304,841;  423,007;41,67957
 190,73;  295,353;  226,937;  387,302;42,66281
 191,34;  313,767;  266,803;  406,760;33,55583
 191,94;  289,097;  249,363;  387,164;28,83427
 192,54;  304,404;  271,253;  415,221;23,02662
 193,14;  314,594;  271,395;  415,304;30,01846
 193,74;  300,771;  275,854;  398,242;20,35911
 194,34;  296,507;  265,090;  415,805;20,84529
 194,94;  272,841;  230,318;  367,347;31,03237
 195,54;  247,921;  226,774;  345,997;17,73731
 196,14;  275,929;  238,863;  381,829;25,92649
 196,74;  273,546;  237,002;  371,341;27,20307
 197,34;  248,071;  212,871;  367,061;22,82899
 197,94;  278,389;  246,858;  398,110;20,84646
 198,54;  289,221;  250,016;  414,320;23,86117
 199,14;  267,594;  227,106;  389,582;24,91947
 199,74;  263,886;  216,953;  394,616;26,41694
 200,34;  249,465;  205,647;  412,777;21,15494
 200,94;  283,170;  245,177;  440,849;19,41686
 201,54;  269,956;  228,181;  443,845;19,37027
 202,14;  300,823;  260,035;  509,855;16,32678
 202,74;  266,950;  231,337;  483,408;14,12820
 203,34;  246,158;  198,887;  505,069;15,43893
 203,94;  232,049;  174,805;  503,718;17,40403
 204,54;  292,955;  257,705;  595,985;10,42017
 205,14;  267,810;  217,029;  614,536;12,77484
 205,74;  307,652;  257,732;  713,847;10,94450
 206,34;  274,670;  215,112;  712,928;11,96388
 206,94;  284,799;  225,648;  764,426;10,97876
 207,54;  248,272;  199,803;  808,104; 7,96789
 208,14;  273,605;  211,343;  894,372; 9,11554
 208,74;  289,566;  218,875;  969,173; 9,42177
 209,34;  291,884;  202,492; 1054,701;10,48947
 209,94;  290,363;  229,414; 1142,048; 6,67830
 210,54;  310,029;  221,730; 1275,922; 8,37602
 211,14;  321,703;  229,798; 1378,519; 8,00059
 211,73;  325,390;  228,180; 1485,662; 7,73052
 212,33;  354,878;  231,561; 1585,815; 9,10594
 212,93;  355,060;  215,259; 1695,643; 9,44357
 213,53;  320,781;  183,413; 1731,515; 8,87327
 214,13;  352,267;  207,122; 1852,881; 8,81931
 214,73;  329,053;  193,189; 1865,086; 8,12637
 215,33;  326,747;  177,568; 1889,894; 8,71208
 215,93;  360,962;  214,578; 2025,839; 8,08186
 216,53;  348,154;  165,412; 2077,759; 9,55590
 217,13;  427,229;  230,730; 2288,601; 9,54863
 217,73;  438,160;  207,271; 2523,291; 9,96922
 218,33;  416,200;  175,201; 2679,717; 9,62259
 218,93;  504,711;  191,675; 3016,014;11,08350
 219,53;  545,107;  193,509; 3295,597;11,33424
 220,13;  527,421;  162,127; 3615,373;10,57828
 220,73;  614,715;  197,261; 3981,424;11,03161
 221,32;  657,181;  199,413; 4393,481;10,91466
 221,92;  704,839;  207,818; 4824,839;10,76496
 222,52;  744,635;  188,348; 5274,577;10,93711
 223,12;  818,202;  188,657; 5727,756;11,36547
 223,72;  869,493;  208,042; 6131,713;11,16624
 224,32;  914,629;  210,196; 6567,755;11,08023
 224,92;  956,906;  184,735; 6890,969;11,51423
 225,52; 1027,860;  217,033; 7257,152;11,51723
 226,12; 1054,153;  196,345; 7552,443;11,66118
 226,72; 1091,156;  162,729; 7885,662;12,02169
 227,31; 1138,971;  161,190; 8271,414;12,05616
 227,91; 1255,233;  204,032; 8671,474;12,41463
 228,51; 1287,089;  197,485; 9080,788;12,26575
 229,11; 1371,143;  190,959; 9437,453;12,76358
 229,71; 1382,892;  182,182; 9761,515;12,53438
 230,31; 1461,220;  178,045;10198,283;12,80583
 230,91; 1519,410;  174,328;10495,044;13,03284
 231,51; 1574,283;  179,117;10729,351;13,22403
 232,10; 1666,846;  181,970;11125,042;13,56909
 232,70; 1724,584;  197,706;11327,421;13,71894
 233,30; 1798,087;  217,962;11566,044;13,92416
 233,90; 1828,364;  184,193;11672,874;14,31123
 234,50; 1856,499;  184,348;11762,227;14,44264
 235,10; 1893,368;  181,042;11763,892;14,78328
 235,70; 1975,542;  199,801;11795,777;15,31343
 236,29; 1984,506;  199,490;11790,212;15,40039
 236,89; 1995,791;  173,867;11668,517;15,85019
 237,49; 2037,599;  194,422;11531,473;16,25799
 238,09; 2028,285;  184,188;11258,005;16,65276
 238,69; 2089,912;  225,709;10981,786;17,33163
 239,29; 2029,828;  177,187;10668,835;17,65824
 239,89; 2011,976;  207,482;10293,457;17,89111
 240,48; 1980,639;  187,496; 9905,604;18,45157
 241,08; 1943,076;  193,033; 9504,563;18,79438
 241,68; 1964,268;  210,727; 9188,966;19,53101
 242,28; 1939,458;  184,346; 8793,143;20,38743
 242,88; 1919,558;  230,430; 8481,530;20,47155
 243,48; 1939,461;  238,191; 8141,747;21,52538
 244,07; 1903,434;  198,262; 7914,995;22,09706
 244,67; 1930,419;  216,267; 7750,440;22,75169
 245,27; 1922,621;  214,795; 7569,124;23,22204
 245,87; 1955,716;  207,352; 7508,591;23,94613
 246,47; 1964,882;  205,257; 7502,141;24,11474
 247,06; 2003,043;  196,187; 7436,481;24,95556
 247,66; 2084,498;  190,882; 7536,970;25,77720
 248,26; 2153,632;  215,797; 7659,802;26,03216
 248,86; 2215,772;  208,027; 7773,824;26,53713
 249,46; 2277,377;  157,732; 8056,240;26,83601
 250,05; 2422,826;  203,419; 8430,382;26,97723
 250,65; 2523,163;  170,717; 8749,185;27,42268
 251,25; 2657,201;  192,186; 9257,926;27,19044
 251,85; 2826,622;  189,328; 9838,778;27,33103
 252,44; 3004,305;  157,644;10487,925;27,55647
 253,04; 3265,023;  212,953;11180,039;27,82936
 253,64; 3416,613;  159,100;11919,352;27,69935
 254,24; 3715,842;  214,265;12914,502;27,57096
 254,84; 3971,684;  185,194;13814,933;27,78109
 255,43; 4245,134;  184,183;14851,732;27,68664
 256,03; 4569,949;  190,255;15905,993;27,86821
 256,63; 4810,607;  194,944;17012,116;27,44613
 257,23; 5061,667;  170,483;17967,154;27,48370
 257,82; 5315,886;  202,554;18985,983;27,22257
 258,42; 5555,419;  145,935;19935,819;27,33459
 259,02; 5830,408;  201,184;20864,266;27,24291
 259,62; 5971,502;  183,087;21654,872;26,95824
 260,21; 6101,859;  197,029;22196,203;26,84114
 260,81; 6201,954;  190,268;22801,606;26,58704
 261,41; 6284,767;  177,399;23313,600;26,39745
 262,01; 6406,495;  211,316;23821,639;26,23928
 262,60; 6441,436;  172,944;24241,692;26,04411
 263,20; 6500,237;  176,487;24635,120;25,85488
 263,80; 6477,573;  207,546;24852,328;25,44160
 264,40; 6454,722;  167,317;25095,732;25,22184
 264,99; 6498,314;  195,545;25238,610;25,16772
 265,59; 6457,833;  171,614;25477,207;24,84123
 266,19; 6404,249;  182,546;25585,669;24,49188
 266,78; 6432,080;  226,003;25736,284;24,32775
 267,38; 6349,212;  201,923;25781,847;24,03169
 267,98; 6257,663;  189,696;25840,891;23,65569
 268,58; 6202,720;  194,077;25858,599;23,41225
 269,17; 6106,249;  178,070;25860,805;23,08235
 269,77; 6055,937;  207,403;25655,750;22,98198
 270,37; 5896,238;  166,545;25618,299;22,51198
 270,96; 5804,102;  223,169;25438,167;22,13338
 271,56; 5649,884;  190,174;25228,560;21,80536
 272,16; 5544,599;  182,321;25020,391;21,58895
 272,75; 5430,352;  195,860;25016,044;21,08966
 273,35; 5413,914;  200,708;24855,008;21,14522
 273,95; 5317,182;  192,860;24737,232;20,87778
 274,54; 5284,519;  179,495;24928,455;20,62723
 275,14; 5252,021;  220,401;25139,722;20,19164
 275,74; 5174,799;  169,091;25213,532;19,98730
 276,33; 5230,122;  217,942;25691,686;19,67587
 276,93; 5264,128;  204,036;26054,556;19,57443
 277,53; 5252,875;  193,567;26511,015;19,22416
 278,12; 5332,463;  174,715;27017,644;19,21455
 278,72; 5463,370;  233,104;27762,943;18,99853
 279,32; 5484,172;  192,411;28294,102;18,83076
 279,91; 5591,794;  182,563;28957,693;18,79828
 280,51; 5654,673;  189,798;29510,574;18,63824
 281,11; 5786,609;  200,640;30262,599;18,58152
 281,70; 5856,982;  174,024;30711,540;18,60976
 282,30; 5947,346;  187,021;31444,406;18,42869
 282,90; 6052,839;  185,020;31805,496;18,55702
 283,49; 6176,283;  195,170;32334,427;18,60999
 284,09; 6263,599;  215,177;32725,455;18,60465
 284,69; 6353,220;  221,180;33260,773;18,55967
 285,28; 6452,000;  210,331;33621,729;18,68126
 285,88; 6570,785;  261,859;33732,635;18,84906
 286,47; 6613,855;  203,405;33898,539;19,02485
 287,07; 6696,804;  221,719;33912,914;19,21892
 287,67; 6799,615;  206,806;34022,901;19,49607
 288,26; 6921,097;  188,565;34016,478;19,90230
 288,86; 6955,568;  175,562;34056,750;20,01112
 289,46; 7141,223;  200,718;34230,300;20,39551
 290,05; 7309,294;  191,570;34225,200;20,91380
 290,65; 7482,150;  193,942;34400,326;21,30657
 291,24; 7660,324;  196,104;34523,264;21,74436
 291,84; 7904,530;  214,867;34720,346;22,28534
 292,44; 8055,320;  196,346;34843,036;22,68319
 293,03; 8324,232;  274,566;34928,448;23,22876
 293,63; 8449,578;  187,251;35113,556;23,65646
 294,22; 8620,778;  215,871;35285,108;23,96661
 294,82; 8689,059;  187,394;35265,138;24,23663
 295,41; 8652,289;  173,331;34979,002;24,36085
 296,01; 8878,388;  225,089;34862,268;24,98269
 296,61; 8783,402;  225,258;34641,414;24,86665
 297,20; 8813,201;  200,859;34275,725;25,27476
 297,80; 8766,811;  211,803;34039,254;25,29014
 298,39; 8663,699;  175,713;33651,009;25,35597
 298,99; 8673,286;  223,400;33553,030;25,35247
 299,58; 8610,897;  223,420;33451,560;25,24209
 300,18; 8555,508;  218,725;33178,930;25,29348
 300,78; 8437,241;  196,414;32763,057;25,30450
 301,37; 8419,734;  207,236;32759,607;25,22857
 301,97; 8455,654;  207,333;32712,436;25,37546
 302,56; 8345,073;  200,327;32605,176;25,13434
 303,16; 8350,833;  173,556;32422,182;25,35698
 303,75; 8309,022;  197,877;32489,889;25,11812
 304,35; 8420,972;  179,041;32689,675;25,35149
 304,94; 8398,683;  184,026;32786,534;25,19640
 305,54; 8386,028;  203,259;32726,019;25,16013
 306,13; 8351,032;  170,119;32615,867;25,21413
 306,73; 8292,890;  176,500;32401,511;25,18662
 307,33; 8332,002;  194,575;32387,508;25,27706
 307,92; 8342,801;  217,258;32372,003;25,27012
 308,52; 8428,542;  173,555;32855,760;25,25835
 309,11; 8625,560;  192,858;33394,380;25,39854
 309,71; 8673,510;  167,777;33672,532;25,38664
 310,30; 8734,818;  186,411;33821,965;25,41479
 310,90; 8929,510;  234,796;34177,350;25,61597
 311,49; 8980,497;  207,949;34320,218;25,71669
 312,09; 9023,923;  160,802;34482,793;25,82345
 312,68; 9233,165;  252,952;34917,591;25,90598
 313,28; 9248,032;  174,950;35101,003;25,97797
 313,87; 9340,158;  159,411;35171,589;26,22158
 314,47; 9440,754;  183,013;35477,156;26,23025
 315,06; 9571,877;  179,951;35522,007;26,57436
 315,66; 9624,461;  176,186;35733,947;26,57162
 316,25; 9626,615;  157,480;35683,007;26,65445
 316,85; 9697,768;  165,879;35742,567;26,79251
 317,44; 9837,712;  179,551;35869,926;27,06097
 318,04; 9903,254;  176,097;35916,590;27,21607
 318,63; 9880,751;  165,500;35908,327;27,18098
 319,22;10062,767;  193,788;36093,245;27,49061
 319,82;10124,293;  202,099;35976,755;27,73526
 320,41;10139,442;  202,942;35992,053;27,76403
 321,01;10194,849;  207,724;36146,166;27,78953
 321,60;10351,631;  207,946;36070,930;28,28455
 322,20;10391,753;  173,797;36028,101;28,49855
 322,79;10528,892;  215,566;36180,362;28,67617
 323,39;10606,729;  183,271;36242,924;28,90615
 323,98;10625,874;  172,029;36090,019;29,10476
 324,58;10708,865;  180,863;36020,884;29,37499
 325,17;10789,890;  185,865;35870,151;29,71623
 325,76;10814,528;  209,949;35657,923;29,91590
 326,36;10763,957;  180,493;35334,794;30,10574
 326,95;10779,306;  213,331;35040,737;30,33810
 327,55;10814,202;  179,561;34519,396;30,96882
 328,14;10764,932;  176,804;34236,326;31,08713
 328,74;10700,935;  210,865;33788,296;31,24143
 329,33;10740,174;  208,723;33387,282;31,74174
 329,92;10655,435;  181,704;32810,785;32,09938
 330,52;10534,699;  198,112;32188,411;32,31163
 331,11;10464,261;  186,100;31720,361;32,59363
 331,71;10429,871;  188,179;31220,770;33,00302
 332,30;10356,991;  207,410;30698,073;33,28750
 332,89;10315,930;  253,492;30113,996;33,69815
 333,49;10229,167;  218,331;29589,246;34,08418
 334,08;10179,495;  189,253;29096,811;34,55927
 334,68;10106,002;  199,945;28649,029;34,82030
 335,27;10099,448;  207,729;28405,999;35,07917
 335,86;10165,492;  253,023;28031,208;35,68437
 336,46;10095,862;  202,499;27752,328;35,91080
 337,05;10149,000;  196,484;27515,575;36,43062
 337,65;10182,632;  179,253;27432,691;36,70502
 338,24;10322,444;  232,259;27393,801;37,14879
 338,83;10355,073;  210,952;27260,698;37,50172
 339,43;10448,337;  187,403;27263,797;37,89623
 340,02;10538,786;  186,941;27114,892;38,44275
 340,61;10729,477;  191,105;27199,191;39,01932
 341,21;10829,166;  223,173;27164,989;39,36629
 341,80;10889,080;  185,330;27122,563;39,73589
 342,40;11029,175;  188,189;27247,077;40,06442
 342,99;11230,083;  194,723;27356,765;40,62787
 343,58;11386,943;  183,493;27478,513;41,04577
 344,18;11559,217;  208,416;27601,431;41,43684
 344,77;11812,356;  183,325;27959,751;41,86655
 345,36;12101,229;  163,562;28209,737;42,56433
 345,96;12374,973;  204,108;28494,299;43,02150
 346,55;12630,912;  177,656;28716,329;43,63642
 347,14;12920,067;  175,959;29085,295;44,08302
 347,74;13268,563;  153,510;29550,925;44,61295
 348,33;13738,937;  182,740;30209,862;45,14651
 348,92;14139,642;  207,437;30725,797;45,65188
 349,52;14502,235;  168,666;31257,287;46,10552
 350,11;14757,081;  193,632;31541,063;46,45819
 350,70;14980,124;  186,027;31685,435;46,96627
 351,29;14968,511;  168,003;31461,114;47,29638
 351,89;15141,160;  207,165;31392,717;47,88754
 352,48;15282,463;  162,412;31412,140;48,38458
 353,07;15396,616;  194,498;31342,589;48,80594
 353,67;15499,085;  202,438;31275,378;49,22819
 354,26;15518,928;  189,728;31048,188;49,67584
 354,85;15620,506;  191,110;31019,938;50,04860
 355,45;15597,929;  171,329;30726,474;50,48773
 356,04;15704,121;  184,422;30690,353;50,87437
 356,63;15682,335;  235,332;30434,989;51,14960
 357,22;15711,577;  199,237;30226,312;51,66118
 357,82;15812,506;  196,086;30104,087;52,21486
 358,41;15829,869;  211,718;29983,240;52,46003
 359,00;15886,275;  170,096;29761,074;53,11139
 359,60;15981,428;  193,951;29763,524;53,39096
 360,19;15961,303;  208,193;29572,844;53,64651
 360,78;15976,833;  199,484;29434,366;53,96755
 361,37;15981,971;  192,407;29202,554;54,42773
 361,97;16029,456;  193,871;29156,830;54,67530
 362,56;16001,775;  181,247;28846,136;55,19131
 363,15;16026,158;  249,329;28535,867;55,77504
 363,74;15911,984;  200,090;28197,699;56,11870
 364,34;15765,814;  213,480;27826,455;56,32256
 364,93;15608,470;  196,246;27426,893;56,59882
 365,52;15459,338;  161,715;27035,361;56,92425
 366,11;15405,136;  185,326;26767,506;57,25569
 366,71;15251,690;  171,788;26287,784;57,74201
 367,30;15145,737;  198,023;25978,720;57,98025
 367,89;15100,045;  228,725;25806,704;58,14111
 368,48;14977,183;  196,399;25384,459;58,68171
 369,07;14754,278;  191,104;24999,127;58,70348
 369,67;14709,225;  213,554;24635,535;59,35502
 370,26;14483,476;  174,951;24350,656;59,18555
 370,85;14439,631;  190,408;24181,776;59,39312
 371,44;14382,749;  196,794;23928,164;59,77723
 372,03;14261,753;  175,557;23678,733;59,93316
 372,63;14158,689;  171,485;23427,203;60,14523
 373,22;13982,649;  180,411;23100,841;60,21806
 373,81;13815,385;  169,023;22741,652;60,45535
 374,40;13759,024;  188,573;22536,065;60,72472
 374,99;13628,466;  175,175;22255,171;60,92977
 375,59;13496,596;  178,803;21927,532;61,23481
 376,18;13481,065;  209,330;21828,824;61,38781
 376,77;13394,777;  211,564;21650,650;61,49149
 377,36;13376,739;  216,177;21528,174;61,75190
 377,95;13253,581;  202,712;21280,852;61,91661
 378,55;13160,387;  185,262;21060,243;62,15634
 379,14;13167,493;  203,484;21020,434;62,27621
 379,73;13163,318;  198,866;20886,074;62,66893
 380,32;13199,548;  201,025;20967,569;62,59358
 380,91;13128,503;  183,630;20786,052;62,83180
 381,50;13075,297;  196,094;20788,016;62,54493
 382,10;13015,394;  173,179;20650,569;62,71412
 382,69;12934,370;  171,561;20617,678;62,42168
 383,28;13086,647;  209,710;20536,939;63,34822
 383,87;12975,155;  186,171;20358,768;63,39781
 384,46;12969,643;  168,702;20349,510;63,43126
 385,05;12991,051;  203,632;20343,508;63,49304
 385,64;12978,444;  191,480;20334,968;63,47939
 386,24;12979,137;  175,240;20228,134;63,85062
 386,83;13034,694;  204,931;20334,857;63,73478
 387,42;13105,565;  199,635;20459,728;63,70124
 388,01;13246,809;  193,463;20576,120;64,04144
 388,60;13444,316;  203,242;20827,863;64,20033
 389,19;13544,208;  184,069;21101,875;63,86970
 389,78;13726,217;  180,917;21319,797;64,07766
 390,37;14029,411;  257,005;21778,099;63,99491
 390,96;14127,338;  201,009;21931,882;64,08546
 391,56;14253,049;  197,604;22109,404;64,14555
 392,15;14426,180;  181,688;22334,496;64,30107
 392,74;14520,059;  165,592;22547,688;64,13370
 393,33;14724,346;  191,680;22808,033;64,25734
 393,92;15077,571;  186,355;23277,774;64,48809
 394,51;15140,624;  180,372;23463,397;64,25390
 395,10;15313,292;  214,182;23664,751;64,38696
 395,69;15428,375;  191,185;23849,834;64,40431
 396,28;15466,822;  208,560;23985,185;64,17337
 396,87;15566,245;  201,005;24001,921;64,55735
 397,46;15647,526;  225,763;24097,362;64,60297
 398,06;15797,417;  233,596;24304,566;64,65805
 398,65;15801,951;  204,487;24408,209;64,44242
 399,24;15914,294;  221,865;24575,099;64,43674
 399,83;15956,297;  188,740;24616,465;64,54779
 400,42;16032,251;  230,158;24717,963;64,53046
 401,01;16050,935;  213,724;24823,113;64,35435
 401,60;16112,152;  221,426;24869,234;64,47115
 402,19;16019,771;  246,757;24838,259;64,14010
 402,78;16087,053;  241,521;24874,996;64,32520
 403,37;15976,844;  229,904;24657,434;64,46391
 403,96;15807,586;  230,813;24584,423;63,96084
 404,55;15756,747;  232,018;24486,578;64,00746
 405,14;15662,846;  225,003;24325,384;64,05643
 405,73;15610,059;  236,356;24215,857;64,11185
 406,32;15528,172;  248,205;24158,146;63,90633
 406,91;15336,799;  232,429;23903,949;63,80820
 407,50;15215,646;  240,770;23743,123;63,71650
 408,09;15075,915;  217,586;23438,307;63,98737
 408,68;14947,692;  223,564;23348,146;63,67306
 409,27;14767,248;  216,669;23096,682;63,59515
 409,86;14651,328;  234,427;22907,263;63,58667
 410,45;14585,580;  264,098;22908,280;63,24575
 411,04;14572,397;  257,693;22826,099;63,42807
 411,63;14325,773;  254,536;22601,988;62,96573
 412,22;14168,510;  258,757;22399,880;62,82316
 412,81;14024,681;  262,165;22137,078;62,91461
 413,40;13742,952;  270,118;21770,582;62,66299
 413,99;13552,567;  320,032;21514,368;62,43430
 414,58;13249,301;  245,500;21002,093;62,64902
 415,17;13056,126;  252,165;20794,881;62,32847
 415,76;12977,903;  245,677;20690,617;62,27568
 416,35;12767,875;  241,306;20435,067;62,03188
 416,94;12824,407;  273,837;20468,723;62,14727
 417,53;12927,012;  247,090;20661,892;62,11141
 418,12;12918,208;  250,789;20730,002;61,85501
 418,71;13097,165;  284,196;21138,316;61,44095
 419,30;13092,031;  243,406;21254,449;61,15177
 419,89;13183,583;  238,489;21375,380;61,24408
 420,48;13362,241;  277,427;21641,859;61,24578
 421,07;13453,593;  271,278;21753,803;61,36297
 421,66;13309,609;  232,062;21830,402;60,54886
 422,25;13342,402;  256,011;21813,606;60,70432
 422,84;13271,615;  271,170;21774,986;60,45645
 423,43;13075,544;  243,543;21522,667;60,30324
 424,02;12884,358;  295,856;21273,919;60,00793
 424,60;12630,532;  252,196;20895,165;59,96393
 425,19;12422,555;  272,872;20576,013;59,84140
 425,78;12298,749;  272,566;20533,943;59,35521
 426,37;12211,281;  265,731;20311,570;59,59117
 426,96;12078,496;  261,347;20209,604;59,23901
 427,55;11963,776;  245,441;20098,007;59,02680
 428,14;11800,581;  251,296;19836,295;58,97006
 428,73;11686,122;  261,358;19605,346;59,06106
 429,32;11616,379;  282,422;19611,131;58,63794
 429,91;11556,719;  284,281;19588,850;58,39259
 430,50;11481,858;  273,829;19440,017;58,47814
 431,08;11307,583;  283,454;19350,167;57,81872
 431,67;11249,555;  318,462;19182,511;57,94670
 432,26;11172,852;  331,086;19155,739;57,59345
 432,85;10948,753;  370,314;18684,997;57,75933
 433,44;10680,698;  372,634;18412,188;57,14146
 434,03;10445,091;  376,958;18036,127;57,01363
 434,62;10093,849;  339,404;17571,200;56,60724
 435,21; 9999,348;  349,008;17407,817;56,57101
 435,79; 9904,188;  357,875;17202,200;56,67376
 436,38; 9824,089;  346,583;17105,118;56,55331
 436,97; 9734,344;  341,278;17034,240;56,26962
 437,56; 9540,481;  340,148;16753,433;56,05418
 438,15; 9429,932;  318,296;16653,567;55,77891
 438,74; 9414,155;  334,914;16701,368;55,47470
 439,33; 9372,273;  313,603;16706,956;55,25819
 439,91; 9402,038;  270,537;16797,114;55,25343
 440,50; 9426,465;  317,538;16821,882;55,19109
 441,09; 9444,682;  331,321;16962,768;54,79596
 441,68; 9360,114;  300,719;16895,307;54,59246
 442,27; 9310,179;  287,252;16926,060;54,22821
 442,86; 9293,604;  266,821;16917,102;54,21400
 443,44; 9341,085;  283,353;16958,484;54,31881
 444,03; 9355,525;  362,206;17011,572;54,01599
 444,62; 9213,664;  295,206;16877,679;53,78244
 445,21; 9068,291;  284,125;16743,861;53,36760
 445,80; 9017,330;  330,527;16620,048;53,32755
 446,39; 8849,385;  355,677;16340,226;53,13699
 446,97; 8666,109;  289,850;16108,364;52,95225
 447,56; 8547,033;  294,172;15926,377;52,79397
 448,15; 8411,110;  283,311;15814,667;52,33155
 448,74; 8244,858;  303,698;15502,029;52,25021
 449,33; 8172,165;  296,246;15334,790;52,37155
 449,91; 8036,604;  289,955;15119,481;52,23801
 450,50; 7902,476;  290,105;15001,407;51,74505
 451,09; 7787,424;  306,338;14839,679;51,47533
 451,68; 7735,310;  320,114;14679,951;51,63844
 452,26; 7664,317;  321,967;14621,445;51,34698
 452,85; 7595,470;  292,425;14589,803;51,07961
 453,44; 7556,461;  301,292;14524,425;51,00964
 454,03; 7532,471;  292,818;14532,629;50,84094
 454,61; 7435,610;  288,063;14408,138;50,61975
 455,20; 7524,648;  318,378;14606,802;50,43432
 455,79; 7526,044;  313,981;14599,771;50,48418
 456,38; 7535,887;  323,467;14697,326;50,17734
 456,97; 7502,221;  298,233;14764,556;49,79834
 457,55; 7532,438;  300,165;14841,339;49,73651
 458,14; 7505,662;  335,922;14834,503;49,45132
 458,73; 7398,587;  312,859;14726,820;49,15878
 459,31; 7422,636;  343,949;14761,347;49,09823
 459,90; 7421,229;  360,711;14809,037;48,86737
 460,49; 7503,827;  408,784;14942,507;48,81779
 461,08; 7401,876;  308,955;14982,141;48,33934
 461,66; 7409,176;  318,718;15006,878;48,27329
 462,25; 7441,349;  326,808;15146,311;48,00796
 462,84; 7440,718;  339,803;15159,238;47,91623
 463,43; 7369,594;  285,899;15173,534;47,58107
 464,01; 7387,097;  321,136;15166,802;47,59612
 464,60; 7322,426;  369,663;15137,837;47,07937
 465,19; 7138,130;  298,140;14904,298;46,82950
 465,77; 7118,292;  325,609;14883,177;46,66084
 466,36; 7075,071;  348,053;14725,196;46,78967
 466,95; 6903,727;  323,593;14453,511;46,56881
 467,53; 6705,296;  317,463;14207,375;45,98901
 468,12; 6591,105;  360,004;13891,232;46,04978
 468,71; 6427,002;  332,526;13630,874;45,82882
 469,29; 6271,869;  314,621;13356,641;45,67734
 469,88; 6148,557;  331,242;13135,149;45,43391
 470,47; 6205,656;  392,485;13265,570;45,15756
 471,06; 6138,669;  344,178;13220,317;45,00178
 471,64; 6175,481;  337,867;13284,517;45,08977
 472,23; 6096,417;  316,122;13267,731;44,62994
 472,81; 6134,147;  309,418;13414,963;44,44476
 473,40; 6168,461;  312,738;13581,645;44,13117
 473,99; 6278,415;  429,815;13753,277;43,89700
 474,57; 6233,987;  339,891;13879,513;43,53220
 475,16; 6292,631;  340,190;14023,474;43,50155
 475,75; 6280,280;  369,054;14136,680;42,93569
 476,33; 6307,940;  362,295;14221,809;42,89938
 476,92; 6305,393;  357,279;14265,335;42,76740
 477,51; 6295,385;  359,752;14364,120;42,38416
 478,09; 6261,677;  341,522;14420,616;42,04926
 478,68; 6241,864;  348,525;14328,112;42,15675
 479,27; 6221,662;  385,670;14399,919;41,64327
 479,85; 6150,943;  353,063;14334,797;41,46753
 480,44; 6152,666;  340,991;14525,536;40,97188
 481,02; 6599,608;  354,461;15641,632;40,85221
 481,61; 7357,913;  381,919;17838,460;39,96206
 482,20; 7765,607;  365,846;19086,866;39,52648
 482,78; 8081,057;  391,912;19995,974;39,22220
 483,37; 8251,226;  379,244;20514,022;39,09645
 483,95; 8376,326;  421,785;20894,302;38,85473
 484,54; 8443,533;  428,687;21020,824;38,92188
 485,13; 8298,999;  392,334;21004,797;38,35866
 485,71; 8193,811;  377,484;20789,146;38,29344
 486,30; 8091,641;  421,407;20504,103;38,19325
 486,88; 8031,278;  465,487;20102,079;38,52904
 487,47; 7661,915;  419,182;19352,517;38,25387
 488,05; 7322,653;  405,572;18537,919;38,14774
 488,64; 6792,805;  418,428;17242,064;37,88942
 489,23; 6138,921;  419,113;15413,400;38,14659
 489,81; 5295,512;  421,501;13197,316;38,15029
 490,40; 4947,182;  374,656;12419,682;37,96194
 490,98; 4812,014;  374,122;12201,969;37,52071
 491,57; 4755,025;  402,268;12017,048;37,47601
 492,15; 4695,285;  374,047;11982,283;37,22562
 492,74; 4628,804;  384,111;11912,700;36,81884
 493,32; 4605,417;  393,968;11860,619;36,72780
 493,91; 4509,362;  363,821;11670,779;36,66362
 494,50; 4506,628;  372,223;11641,362;36,68785
 495,08; 4425,339;  362,223;11616,013;36,10442
 495,67; 4414,059;  385,281;11611,836;35,88615
 496,25; 4339,611;  329,291;11469,259;35,99939
 496,84; 4316,246;  340,665;11434,149;35,83708
 497,42; 4242,631;  336,602;11368,782;35,40577
 498,01; 4220,731;  362,590;11358,501;35,08705
 498,59; 4154,164;  329,835;11226,340;35,09684
 499,18; 4129,943;  321,284;11196,086;35,02279
 499,76; 4096,610;  355,599;11118,571;34,75816
 500,35; 4011,275;  331,689;10916,098;34,76421
 500,93; 3947,002;  333,525;10882,188;34,25531
 501,52; 3906,704;  331,834;10789,798;34,18323
 502,10; 3917,883;  339,774;10811,006;34,17085
 502,69; 3816,786;  322,395;10642,086;33,86139
 503,27; 3704,795;  301,916;10388,494;33,73670
 503,86; 3698,056;  325,008;10347,452;33,65495
 504,44; 3593,899;  301,706;10188,037;33,30045
 505,03; 3518,452;  292,629;10037,699;33,10210
 505,61; 3454,445;  309,088; 9844,697;32,98538
 506,19; 3404,470;  330,321; 9739,815;32,67071
 506,78; 3348,873;  307,949; 9486,017;33,13251
 507,36; 3249,440;  307,167; 9362,102;32,49359
 507,95; 3216,916;  305,647; 9190,431;32,76691
 508,53; 3156,398;  295,641; 9055,889;32,65611
 509,12; 3079,569;  320,030; 8923,036;32,07645
 509,70; 3060,251;  342,648; 8747,999;32,33182
 510,29; 3016,061;  346,886; 8644,959;32,16621
 510,87; 2892,983;  297,949; 8452,257;31,82408
 511,46; 2850,743;  301,182; 8258,370;32,04097
 512,04; 2778,736;  318,112; 8129,275;31,50138
 512,62; 2752,650;  313,798; 7965,173;31,87468
 513,21; 2661,998;  290,502; 7825,629;31,47254
 513,79; 2617,702;  296,137; 7658,275;31,53385
 514,38; 2532,771;  277,822; 7517,323;31,14784
 514,96; 2536,159;  324,283; 7468,307;30,96121
 515,54; 2452,853;  289,518; 7323,410;30,75587
 516,13; 2412,818;  319,981; 7239,029;30,24747
 516,71; 2362,560;  295,912; 7048,137;30,60692
 517,30; 2316,275;  297,381; 6947,063;30,36077
 517,88; 2302,908;  317,227; 6878,640;30,26301
 518,46; 2238,127;  285,076; 6730,611;30,30082
 519,05; 2206,862;  294,698; 6703,333;29,83731
 519,63; 2221,502;  302,310; 6616,340;30,39568
 520,22; 2182,155;  314,938; 6593,731;29,73848
 520,80; 2155,444;  297,708; 6508,854;29,90971
 521,38; 2160,828;  346,545; 6486,640;29,54812
 521,97; 2111,256;  294,483; 6443,422;29,54612
 522,55; 2093,518;  305,560; 6389,435;29,38848
 523,13; 2055,719;  297,334; 6387,909;28,87059
 523,72; 2073,067;  291,384; 6378,496;29,26976
 524,30; 2107,886;  326,954; 6516,379;28,77378
 524,89; 2063,698;  291,176; 6523,006;28,44304
 525,47; 2101,509;  309,803; 6618,150;28,40214
 526,05; 2073,642;  286,035; 6671,354;27,99558
 526,64; 2115,446;  315,193; 6804,078;27,74365
 527,22; 2133,356;  312,264; 6914,608;27,58250
 527,80; 2188,572;  358,961; 7003,360;27,53613
 528,39; 2174,264;  295,504; 7098,852;27,61523
 528,97; 2183,103;  307,809; 7247,004;27,02466
 529,55; 2223,749;  317,718; 7432,849;26,78841
 530,14; 2281,300;  339,200; 7651,572;26,55910
 530,72; 2280,010;  303,963; 7691,269;26,74922
 531,30; 2305,665;  288,355; 7850,156;26,67765
 531,89; 2317,327;  322,970; 7970,985;26,07679
 532,47; 2381,625;  334,281; 8056,487;26,51243
 533,05; 2384,203;  336,884; 8120,403;26,30326
 533,63; 2394,112;  339,898; 8132,062;26,36256
 534,22; 2355,850;  316,975; 8165,049;25,97930
 534,80; 2369,053;  324,599; 8286,546;25,67781
 535,38; 2487,076;  428,279; 8387,112;25,86808
 535,97; 2361,101;  323,050; 8292,999;25,57169
 536,55; 2405,972;  377,985; 8392,947;25,30252
 537,13; 2391,791;  378,431; 8402,746;25,09074
 537,71; 2428,964;  414,891; 8388,624;25,25884
 538,30; 2430,778;  438,209; 8503,060;24,70683
 538,88; 2475,274;  486,299; 8579,232;24,57669
 539,46; 2526,930;  526,599; 8757,867;24,30162
 540,05; 2552,776;  563,988; 8896,209;23,86864
 540,63; 2626,113;  590,912; 9121,692;23,85715
 541,21; 2635,188;  627,994; 9215,345;23,37385
 541,79; 2692,465;  675,378; 9361,944;23,22077
 542,38; 2725,026;  708,756; 9493,009;22,95323
 542,96; 2756,058;  708,462; 9675,574;22,83450
 543,54; 2811,607;  729,685; 9843,577;22,84339
 544,12; 2797,476;  708,919; 9988,780;22,50634
 544,70; 2823,471;  689,463;10076,676;22,73314
 545,29; 2832,332;  693,987;10209,475;22,47226
 545,87; 2821,542;  679,455;10317,020;22,22643
 546,45; 2775,274;  622,910;10274,433;22,30077
 547,03; 2762,382;  624,530;10355,245;21,97015
 547,62; 2812,785;  580,918;10495,003;22,51209
 548,20; 2813,015;  582,077;10633,114;22,19611
 548,78; 2842,420;  539,787;10763,419;22,52266
 549,36; 2844,688;  506,785;10946,028;22,39533
 549,94; 2849,516;  466,613;11069,248;22,47464
 550,53; 2924,820;  482,628;11307,205;22,56155
 551,11; 2888,410;  436,405;11423,540;22,31705
 551,69; 2961,258;  452,323;11763,498;22,18103
 552,27; 2992,017;  414,624;12006,016;22,23540
 552,85; 3026,887;  410,405;12368,352;21,88070
 553,44; 3107,490;  417,553;12606,340;22,06895
 554,02; 3164,512;  416,172;12948,701;21,92965
 554,60; 3170,068;  360,176;13286,616;21,73755
 555,18; 3303,350;  406,785;13666,087;21,84553
 555,76; 3341,142;  381,095;13938,209;21,83390
 556,34; 3414,154;  392,798;14286,410;21,74637
 556,93; 3488,117;  369,862;14742,172;21,69627
 557,51; 3501,168;  364,106;15086,384;21,30827
 558,09; 3594,840;  384,324;15381,647;21,40727
 558,67; 3656,197;  370,726;15790,824;21,30642
 559,25; 3682,792;  391,185;15994,843;21,09510
 559,83; 3764,121;  368,423;16349,542;21,24819
 560,41; 3792,915;  358,718;16741,412;20,96234
 561,00; 3888,535;  380,573;17058,456;21,03362
 561,58; 3872,379;  365,256;17295,942;20,71459
 562,16; 3946,917;  352,636;17563,758;20,88348
 562,74; 4003,942;  343,172;18019,534;20,70997
 563,32; 4057,061;  340,884;18463,047;20,50625
 563,90; 4115,597;  374,111;18751,178;20,35954
 564,48; 4203,599;  383,409;19141,490;20,36557
 565,06; 4329,323;  369,418;19742,025;20,44075
 565,65; 4452,633;  380,354;20392,804;20,34873
 566,23; 4627,965;  417,727;21174,520;20,28367
 566,81; 4698,577;  365,877;21803,886;20,21037
 567,39; 4885,853;  377,348;22719,322;20,17953
 567,97; 5004,342;  395,417;23375,137;20,05649
 568,55; 5171,093;  408,653;24221,748;19,99925
 569,13; 5267,441;  367,112;24876,340;19,99381
 569,71; 5428,702;  372,944;25867,724;19,83056
 570,29; 5638,041;  416,862;26786,630;19,79987
 570,87; 5754,369;  405,557;27584,995;19,67963
 571,45; 5876,614;  400,111;28290,910;19,63552
 572,03; 5913,924;  355,581;28672,731;19,62889
 572,61; 6037,171;  353,499;29338,205;19,60921
 573,20; 6185,982;  376,952;30011,990;19,60190
 573,78; 6295,845;  371,423;30679,324;19,54745
 574,36; 6331,975;  390,267;31202,664;19,28350
 574,94; 6469,534;  455,967;31659,909;19,27182
 575,52; 6466,590;  394,055;31794,562;19,33897
 576,10; 6584,804;  433,666;32346,027;19,27510
 576,68; 6646,494;  422,273;32898,129;19,16569
 577,26; 6765,513;  451,214;33577,054;19,06155
 577,84; 6846,404;  455,498;34085,120;19,00380
 578,42; 6907,816;  499,201;34419,056;18,89340
 579,00; 6847,014;  453,885;34499,448;18,77816
 579,58; 6955,379;  494,352;34762,836;18,85414
 580,16; 6848,149;  463,510;34720,555;18,63745
 580,74; 6871,900;  469,742;34999,443;18,54102
 581,32; 6888,174;  468,507;34998,792;18,59141
 581,90; 6812,304;  496,279;34962,551;18,32523
 582,48; 6850,626;  474,357;35030,909;18,45169
 583,06; 6853,100;  478,276;35274,242;18,32059
 583,64; 6790,734;  484,198;35241,277;18,14461
 584,22; 6712,660;  489,519;35129,513;17,96519
 584,80; 6659,446;  498,124;34846,492;17,93774
 585,38; 6561,171;  517,797;34446,987;17,81173
 585,96; 6481,501;  479,655;34460,178;17,66261
 586,54; 6465,482;  502,209;34444,318;17,56895
 587,12; 6473,802;  464,205;34628,958;17,59005
 587,70; 6471,560;  502,733;34745,450;17,43094
 588,28; 6423,588;  466,205;34788,386;17,35724
 588,86; 6404,150;  472,361;34790,816;17,28454
 589,44; 6394,251;  440,680;34892,229;17,28099
 590,02; 6353,199;  455,062;35066,005;17,04125
 590,59; 6383,867;  438,209;35229,930;17,08929
 591,17; 6385,429;  442,077;35454,411;16,97502
 591,75; 6349,513;  434,300;35548,657;16,84557
 592,33; 6398,324;  449,682;35684,014;16,88308
 592,91; 6401,484;  402,997;35979,050;16,86102
 593,49; 6415,005;  407,618;36252,507;16,75940
 594,07; 6445,621;  431,464;36510,042;16,66961
 594,65; 6423,509;  445,903;36473,655;16,59167
 595,23; 6476,862;  443,908;36899,907;16,54859
 595,81; 6437,176;  413,218;36986,144;16,47108
 596,39; 6440,204;  424,296;37078,246;16,41271
 596,97; 6460,223;  424,304;37280,341;16,37701
 597,55; 6380,438;  421,905;37309,661;16,15315
 598,12; 6379,472;  395,390;37275,975;16,22556
 598,70; 6331,524;  410,845;37385,292;16,01289
 599,28; 6376,185;  414,614;37516,125;16,06827
 599,86; 6389,449;  407,844;37574,361;16,09407
 600,44; 6348,054;  370,694;37647,632;16,03501
 601,02; 6352,872;  425,938;37762,855;15,87419
 601,60; 6337,666;  408,685;37705,661;15,89668
 602,18; 6341,059;  383,851;37747,488;15,94387
 602,75; 6263,040;  386,294;37756,486;15,72576
 603,33; 6294,215;  407,153;37790,142;15,74797
 603,91; 6209,550;  384,395;37721,005;15,60172
 604,49; 6251,044;  415,461;37758,719;15,62687
 605,07; 6169,529;  428,300;37840,623;15,34582
 605,65; 6199,604;  427,926;37978,541;15,37040
 606,23; 6199,226;  487,977;38103,897;15,18306
 606,80; 6214,856;  542,448;38058,931;15,11977
 607,38; 6178,032;  578,085;38170,951;14,89630
 607,96; 6209,011;  634,371;38194,081;14,84207
 608,54; 6209,497;  700,003;38186,986;14,69709
 609,12; 6159,132;  714,294;38354,841;14,46535
 609,70; 6183,558;  747,998;38368,755;14,44830
 610,27; 6138,276;  742,601;38434,389;14,31525
 610,85; 6146,406;  773,305;38529,208;14,23116
 611,43; 6118,816;  762,614;38461,630;14,20780
 612,01; 6019,456;  743,222;38276,607;14,05744
 612,59; 6004,850;  732,690;38270,554;14,04491
 613,16; 5988,998;  684,981;38193,761;14,14074
 613,74; 5960,030;  655,692;38003,668;14,20248
 614,32; 5918,003;  636,003;38082,592;14,10542
 614,90; 5870,415;  578,456;37936,711;14,16543
 615,48; 5769,608;  525,059;37630,400;14,13421
 616,05; 5724,972;  498,672;37543,036;14,10822
 616,63; 5704,182;  507,207;37447,978;14,06840
 617,21; 5669,722;  496,601;37336,804;14,04205
 617,79; 5621,111;  484,296;37268,587;13,96470
 618,36; 5587,037;  482,069;37275,913;13,87452
 618,94; 5457,789;  427,522;36803,429;13,82857
 619,52; 5431,809;  442,670;36682,811;13,76689
 620,10; 5375,285;  427,602;36564,307;13,69157
 620,67; 5376,074;  430,438;36475,273;13,72079
 621,25; 5365,266;  464,993;36341,460;13,65874
 621,83; 5326,496;  440,137;36286,399;13,63143
 622,41; 5342,267;  503,983;36333,853;13,50349
 622,98; 5266,337;  451,899;36021,051;13,53543
 623,56; 5209,757;  446,282;35995,510;13,39966
 624,14; 5164,810;  423,765;35918,701;13,35696
 624,72; 5130,666;  419,137;35827,288;13,30634
 625,29; 5112,187;  412,513;35931,420;13,23147
 625,87; 5102,064;  457,989;35809,835;13,13673
 626,45; 5057,763;  406,049;35661,101;13,19446
 627,02; 5036,339;  414,913;35708,369;13,09429
 627,60; 5015,671;  395,847;35519,474;13,15304
 628,18; 4974,209;  376,064;35613,072;13,04919
 628,76; 4972,011;  377,823;35574,709;13,05283
 629,33; 4992,505;  420,212;35594,440;12,99899
 629,91; 4967,208;  392,064;35549,845;13,01318
 630,49; 4967,434;  423,056;35731,416;12,87054
 631,06; 4973,470;  400,439;35821,413;12,91052
 631,64; 4962,668;  399,281;35757,143;12,90629
 632,22; 4901,497;  366,123;35640,993;12,85724
 632,79; 4963,927;  408,661;35986,595;12,80363
 633,37; 4975,547;  370,838;35965,811;12,93640
 633,95; 4923,195;  384,664;36011,080;12,73923
 634,52; 4906,206;  365,521;36189,746;12,67490
 635,10; 4917,858;  377,294;36134,077;12,69847
 635,68; 4979,666;  365,277;36399,578;12,80555
 636,25; 4951,195;  358,962;36258,939;12,79174
 636,83; 4942,319;  344,746;36618,786;12,67455
 637,41; 4962,211;  355,736;36545,939;12,72851
 637,98; 4956,721;  391,505;36757,760;12,55344
 638,56; 4970,802;  373,653;36902,018;12,58515
 639,13; 4972,739;  348,360;36975,552;12,62553
 639,71; 5027,315;  421,670;37153,186;12,53867
 640,29; 4900,787;  342,516;36922,296;12,46118
 640,86; 4946,644;  351,440;37025,954;12,52969
 641,44; 4963,271;  347,132;37082,535;12,56591
 642,02; 4942,360;  391,825;37072,039;12,40597
 642,59; 4942,140;  341,441;37344,697;12,43323
 643,17; 4958,306;  344,826;37240,431;12,50414
 643,74; 4935,779;  345,519;37332,781;12,41038
 644,32; 4962,021;  368,673;37176,285;12,47934
 644,89; 4938,417;  367,288;37273,866;12,38567
 645,47; 4917,582;  365,520;37273,601;12,33351
 646,05; 4924,747;  362,828;37166,720;12,39521
 646,62; 4919,682;  350,443;37172,070;12,40912
 647,20; 4896,463;  350,598;37345,959;12,28766
 647,77; 4854,012;  330,367;37107,617;12,30012
 648,35; 4825,485;  326,675;37019,429;12,26076
 648,92; 4827,035;  364,906;37109,163;12,14375
 649,50; 4828,739;  326,137;37018,975;12,27106
 650,08; 4783,520;  311,599;37002,864;12,18797
 650,65; 4806,070;  343,523;37153,906;12,12307
 651,23; 4918,773;  310,523;37858,641;12,27292
 651,80; 5017,939;  313,754;38886,914;12,19549
 652,38; 5082,950;  328,678;39315,956;12,19442
 652,95; 5106,577;  313,678;39767,691;12,14806
 653,53; 5179,127;  340,371;39916,195;12,22655
 654,10; 5201,523;  368,910;40112,391;12,15951
 654,68; 5132,227;  313,987;40043,126;12,12772
 655,25; 5195,315;  309,756;40190,399;12,25045
 655,83; 5136,942;  317,141;40149,673;12,10016
 656,40; 5190,645;  352,373;40164,484;12,15277
 656,98; 5158,426;  319,450;40117,296;12,15889
 657,55; 5103,976;  326,989;39966,800;12,05098
 658,13; 5076,372;  326,989;39564,150;12,10430
 658,70; 5046,307;  341,143;39353,577;12,06068
 659,28; 4959,241;  329,682;38518,389;12,12285
 659,85; 4841,560;  352,836;37644,816;12,03670
 660,43; 4835,264;  348,837;37703,627;12,01031
 661,00; 4828,506;  338,760;37690,824;12,02008
 661,58; 4876,595;  332,991;38098,943;12,03095
 662,15; 4877,144;  307,376;38278,293;12,03492
 662,73; 4991,925;  397,915;38514,951;12,05238
 663,30; 4959,013;  341,146;38722,532;12,03153
 663,88; 4950,563;  336,762;38917,882;11,95870
 664,45; 4965,498;  319,608;39128,386;11,97123
 665,03; 5048,971;  335,686;39535,275;12,02381
 665,60; 5181,828;  427,071;39975,317;12,02268
 666,17; 5082,225;  334,225;40085,206;11,94436
 666,75; 5173,697;  328,764;40366,325;12,10097
 667,32; 5187,324;  358,995;40701,444;11,96836
 667,90; 5245,336;  344,841;40865,410;12,09384
 668,47; 5293,270;  363,380;41122,145;12,09529
 669,05; 5278,512;  330,303;41525,418;12,01164
 669,62; 5336,678;  308,227;41570,152;12,18666
 670,19; 5319,305;  318,535;41644,041;12,10093
 670,77; 5383,162;  332,535;41806,699;12,17777
 671,34; 5387,558;  327,151;41733,895;12,22121
 671,92; 5437,339;  330,921;42058,707;12,23745
 672,49; 5454,120;  357,152;42205,442;12,17963
 673,06; 5467,977;  296,229;42138,792;12,36002
 673,64; 5449,912;  315,306;42104,065;12,28705
 674,21; 5445,308;  306,537;42078,646;12,30192
 674,79; 5535,934;  353,538;42393,304;12,32737
 675,36; 5528,023;  348,307;42591,808;12,26157
 675,93; 5518,188;  309,923;42368,773;12,38328
 676,51; 5581,430;  344,539;42560,431;12,40502
 677,08; 5574,903;  347,155;42653,935;12,35676
 677,65; 5632,146;  333,232;42768,747;12,48698
 678,23; 5658,618;  320,694;42960,481;12,51865
 678,80; 5668,784;  318,079;43157,062;12,49027
 679,38; 5702,257;  325,156;43234,797;12,53122
 679,95; 5758,653;  332,310;43585,839;12,54543
 680,52; 5768,972;  327,464;43712,189;12,54245
 681,10; 5883,522;  344,696;44094,693;12,66017
 681,67; 5902,302;  339,234;44358,197;12,63789
 682,24; 5894,699;  308,389;44439,086;12,65856
 682,82; 6019,633;  321,081;44980,975;12,75989
 683,39; 6114,644;  365,697;45322,786;12,78763
 683,96; 6137,425;  332,544;45596,752;12,82444
 684,54; 6177,283;  306,467;45884,717;12,88074
 685,11; 6273,063;  360,237;46233,990;12,88935
 685,68; 6297,383;  311,468;46585,648;12,93576
 686,25; 6320,702;  303,391;46650,383;12,98317
 686,83; 6374,175;  317,161;46974,502;12,98191
 687,40; 6478,725;  294,315;47295,314;13,15804
 687,97; 6531,736;  337,854;47525,126;13,12617
 688,55; 6536,594;  292,085;47628,091;13,19188
 689,12; 6592,528;  286,470;47867,057;13,25343
 689,69; 6600,924;  283,701;47921,253;13,26102
 690,26; 6634,397;  308,778;48096,295;13,23697
 690,84; 6732,793;  301,009;48252,646;13,41306
 691,41; 6716,958;  325,164;48323,073;13,31682
 691,98; 6808,201;  328,779;48542,730;13,43889
 692,56; 6830,212;  320,780;48735,388;13,44518
 693,13; 6923,685;  365,318;48732,354;13,55958
 693,70; 6937,158;  332,857;48950,165;13,58426
 694,27; 6924,093;  310,396;48987,362;13,58691
 694,84; 6956,719;  308,243;49159,404;13,60966
 695,42; 7076,731;  360,935;49321,370;13,71678
 695,99; 7079,358;  320,705;49499,028;13,74315
 696,56; 7076,754;  322,090;49347,147;13,77798
 697,13; 7182,534;  333,321;49731,497;13,86532
 697,71; 7229,546;  305,706;49833,078;13,97982
 698,28; 7266,096;  316,245;50208,428;13,92974
 698,85; 7229,646;  285,476;50168,855;13,92081
 699,42; 7313,426;  293,322;50374,128;14,01755
 699,99; 7409,745;  337,861;50482,632;14,10293
 700,57; 7387,526;  320,092;50544,444;14,07173
 701,14; 7427,153;  311,170;50638,332;14,13945
 701,71; 7524,472;  342,401;50861,529;14,21654
 702,28; 7562,560;  318,093;50900,033;14,32224
 702,85; 7587,264;  325,709;50990,537;14,33254
 703,43; 7665,045;  348,171;51200,810;14,38839
 704,00; 7735,979;  360,941;51443,006;14,43763
 704,57; 7764,606;  338,095;51548,356;14,50200
 705,14; 7844,002;  360,634;51643,245;14,59241
 705,71; 7849,552;  377,788;51681,441;14,56381
 706,28; 7850,486;  341,711;51600,484;14,64876
 706,86; 7972,883;  367,404;51881,295;14,76394
 707,43; 7970,432;  392,558;51784,184;14,74535
 708,00; 7985,213;  374,020;51829,688;14,79175
 708,57; 8005,455;  357,174;51758,115;14,87965
 709,14; 8068,313;  380,252;51864,465;14,93285
 709,71; 8163,709;  356,175;51958,661;15,13015
 710,28; 8221,567;  350,945;52143,011;15,19658
 710,86; 8228,347;  353,637;52296,977;15,16019
 711,43; 8359,436;  388,561;52232,712;15,37468
 712,00; 8374,601;  347,099;52462,831;15,40322
 712,57; 8402,458;  368,792;52613,181;15,37709
 713,14; 8485,854;  345,485;52694,839;15,55009
 713,71; 8484,712;  342,716;52622,189;15,57398
 714,28; 8555,493;  329,562;52587,155;15,74112
 714,85; 8501,120;  311,486;52370,428;15,73146
 715,42; 8565,054;  318,179;52488,239;15,80768
 716,00; 8702,373;  389,717;52650,513;15,90610
 716,57; 8754,692;  323,410;52897,863;16,03684
 717,14; 8707,165;  300,487;52773,751;16,02088
 717,71; 8806,254;  280,872;52697,409;16,26468
 718,28; 8837,111;  345,411;52941,529;16,14511
 718,85; 8857,353;  294,796;52799,648;16,30813
 719,42; 8953,057;  314,719;53093,690;16,36701
 719,99; 8883,607;  280,874;52844,041;16,36647
 720,56; 9062,465;  327,489;53152,468;16,53569
 721,13; 9085,322;  295,413;53200,664;16,61444
 721,70; 9114,718;  291,336;53172,091;16,68543
 722,27; 9154,037;  327,029;53200,287;16,69466
 722,84; 9307,433;  385,875;53456,945;16,81059
 723,41; 9278,060;  290,107;53359,757;16,93615
 723,98; 9360,456;  312,953;53547,107;16,99567
 724,55; 9400,160;  333,030;53651,611;17,00557
 725,12; 9479,787;  271,877;53561,499;17,27899
 725,69; 9573,260;  289,493;53752,773;17,36475
 726,27; 9571,348;  312,031;53853,507;17,29373
 726,84; 9690,821;  315,186;54174,550;17,40762
 727,41; 9768,679;  314,878;54087,361;17,58111
 727,98; 9812,921;  324,648;54389,173;17,54991
 728,55; 9892,163;  351,648;54299,215;17,68479
 729,12; 9910,329;  298,341;54383,412;17,77198
 729,69; 9970,186;  338,572;54596,223;17,75162
 730,26; 9991,890;  326,342;54893,881;17,71300
 730,82;10071,594;  321,342;54664,001;17,94217
 731,39;10085,605;  331,650;54859,889;17,88790
 731,96;10208,155;  306,574;55130,547;18,06068
 732,53;10269,936;  335,882;55288,743;18,07741
 733,10;10323,255;  344,343;55336,401;18,14610
 733,67;10451,266;  339,575;55680,674;18,27158
 734,24;10403,739;  329,498;55314,486;18,32180
 734,81;10522,597;  351,960;55457,451;18,45667
 735,38;10480,916;  326,114;55160,648;18,51899
 735,95;10529,312;  331,499;54940,152;18,67435
 736,52;10588,169;  340,961;55244,348;18,66407
 737,09;10632,566;  354,654;54918,775;18,83639
 737,66;10678,731;  403,577;55065,510;18,79764
 738,23;10781,281;  345,424;55071,091;19,06940
 738,80;10940,523;  414,809;55413,749;19,13803
 739,37;10917,534;  371,270;55577,329;19,10345
 739,94;10978,469;  340,578;55636,987;19,23794
 740,51;11082,711;  472,733;55690,645;19,21474
 741,07;11057,184;  353,502;55597,764;19,37519
 741,64;11081,426;  374,503;55863,268;19,29566
 742,21;11186,207;  347,118;55899,157;19,51159
 742,78;11183,372;  317,580;55685,815;19,62460
 743,35;11294,384;  338,196;55994,011;19,68561
 743,92;11405,857;  375,658;55992,746;19,83239
 744,49;11436,176;  375,428;55892,942;19,92299
 745,06;11437,879;  345,274;55982,831;19,93726
 745,63;11443,583;  332,351;55944,873;19,97973
 746,19;11483,748;  334,659;55946,608;20,04801
 746,76;11514,837;  338,660;56009,573;20,07543
 747,33;11585,848;  355,122;55937,000;20,20573
 747,90;11684,244;  359,583;56211,274;20,27631
 748,47;11705,640;  355,968;56132,470;20,34848
 749,04;11853,575;  348,507;56220,743;20,59174
 749,61;11890,817;  373,738;56133,016;20,65500
 750,17;11958,675;  359,277;56134,674;20,79662
 750,74;11968,763;  354,431;56069,563;20,84592
 751,31;11942,005;  331,663;56056,836;20,83501
 751,88;12003,247;  326,278;55958,725;20,98949
 752,45;12089,720;  338,356;56058,613;21,08993
 753,02;12144,193;  358,048;55964,963;21,19547
 753,58;12192,666;  332,049;55822,313;21,37423
 754,15;12236,985;  326,818;55941,202;21,41562
 754,72;12303,766;  323,895;55777,860;21,60327
 755,29;12302,701;  310,204;55631,364;21,67796
 755,86;12357,097;  316,896;55711,868;21,73519
 756,42;12407,877;  330,512;55701,141;21,81186
 756,99;12384,966;  291,974;55721,106;21,81703
 757,56;12469,439;  300,436;55504,764;22,04357
 758,13;12443,142;  254,205;55387,884;22,10797
 758,70;12609,231;  277,360;55463,849;22,34582
 759,26;12633,935;  266,283;55611,968;22,34619
 759,83;12689,331;  282,283;55725,934;22,37776
 760,40;12700,419;  254,284;55604,130;22,48630
 760,97;12717,430;  253,130;55511,250;22,55650
 761,53;12651,211;  238,746;55224,369;22,57402
 762,10;12721,069;  226,439;55091,411;22,77342
 762,67;12786,388;  267,747;55061,685;22,84676
 763,24;12730,168;  220,209;54714,881;22,95630
 763,80;12869,026;  260,055;54863,231;23,09201
 764,37;12829,884;  264,517;54886,350;23,00429
 764,94;12818,203;  256,979;54448,085;23,17949
 765,50;12843,830;  261,595;54363,897;23,25638
 766,07;12972,379;  305,441;54565,170;23,34501
 766,64;12931,391;  285,672;54260,905;23,42874
 767,21;12970,095;  280,442;54071,639;23,59058
 767,77;12950,183;  308,134;54050,067;23,52362
 768,34;13012,194;  314,673;54016,263;23,64459
 768,91;13017,821;  327,058;53876,228;23,69927
 769,47;13102,217;  327,905;53913,732;23,83898
 770,04;13095,460;  320,905;53773,775;23,89873
 770,61;13115,394;  300,752;53592,663;24,04613
 771,18;13120,944;  295,829;53376,936;24,16136
 771,74;13175,417;  313,829;53561,671;24,15420
 772,31;13232,736;  311,291;53366,021;24,35493
 772,88;13160,286;  290,753;53131,910;24,35513
 773,44;13203,605;  296,830;53045,491;24,46844
 774,01;13254,386;  317,831;53152,764;24,48485
 774,58;13238,320;  305,062;52650,345;24,70759
 775,14;13336,255;  286,447;52948,387;24,78034
 775,71;13288,497;  302,832;52857,353;24,70894
 776,27;13362,662;  368,371;52715,395;24,82336
 776,84;13517,212;  397,525;52833,438;25,02042
 777,41;13418,916;  311,987;52554,249;25,08875
 777,97;13339,004;  308,295;52285,215;25,07018
 778,54;13353,708;  303,526;52279,488;25,10811
 779,11;13485,258;  326,988;52323,607;25,30601
 779,67;13494,269;  288,527;52191,727;25,44302
 780,24;13507,435;  307,450;52040,077;25,51578
 780,80;13555,600;  324,835;52063,427;25,57233
 781,37;13650,765;  324,758;51949,700;25,81312
 781,94;13596,238;  313,451;51784,743;25,80621
 782,50;13621,096;  317,144;51658,554;25,91271
 783,07;13702,261;  337,529;51743,289;25,99851
 783,63;13683,811;  304,683;51456,332;26,15581
 784,20;13672,053;  339,376;51300,528;26,16243
 784,77;13655,526;  311,453;51225,186;26,20918
 785,33;13686,999;  294,915;50983,074;26,42054
 785,90;13683,780;  303,915;51032,809;26,37523
 786,46;13663,637;  322,839;50900,159;26,37704
 787,03;13742,110;  301,993;50652,278;26,69323
 787,59;13789,122;  298,224;50513,936;26,86589
 788,16;13848,672;  313,301;50510,517;26,96438
 788,73;13861,914;  312,071;50512,483;26,99150
 789,29;13743,387;  285,840;50073,679;27,02979
 789,86;13834,321;  328,687;49922,875;27,23229
 790,42;13846,333;  301,918;49712,533;27,41195
 790,99;13807,498;  311,688;49431,806;27,47512
 791,55;13870,202;  296,380;49395,233;27,64590
 792,12;13869,521;  334,996;49436,045;27,56463
 792,68;13810,378;  312,842;49136,549;27,64546
 793,25;13819,390;  306,612;48929,591;27,79093
 793,81;13848,094;  383,305;48567,865;27,94420
 794,38;13703,413;  277,074;48364,061;27,92094
 794,94;13789,886;  281,075;48267,103;28,15155
 795,51;13807,974;  315,075;47920,300;28,34332
 796,07;13745,370;  294,614;47741,650;28,34899
 796,64;13823,612;  325,768;47878,769;28,38484
 797,20;13725,701;  303,307;47325,427;28,54485
 797,77;13688,943;  274,692;47092,700;28,65190
 798,33;13714,954;  310,384;46897,743;28,77298
 798,90;13698,197;  318,769;46832,554;28,76443
 799,46;13592,054;  290,924;46419,674;28,83479
 800,03;13626,989;  307,539;46231,408;29,00333
 800,59;13619,231;  311,078;46110,143;29,05770
 801,15;13583,165;  320,694;45870,109;29,11667
 801,72;13510,177;  300,694;45530,997;29,20494
 802,28;13491,804;  328,310;45259,578;29,29696
 802,85;13515,430;  302,618;45098,005;29,49592
 803,41;13445,519;  289,849;44987,740;29,43242
 803,98;13386,146;  294,003;44489,628;29,62316
 804,54;13376,157;  290,465;44177,363;29,81685
 805,11;13360,707;  311,004;44040,252;29,84205
 805,67;13372,949;  322,389;43948,294;29,91470
 806,23;13270,268;  307,543;43562,798;29,96798
 806,80;13299,434;  320,698;43519,687;30,04407
 807,36;13230,368;  333,698;43446,575;29,91373
 807,93;13282,456;  345,314;43091,618;30,26494
 808,49;13148,929;  296,468;42657,968;30,33996
 809,05;13062,787;  279,314;42565,241;30,23103
 809,62;13124,260;  306,238;42518,053;30,36596
 810,18;13119,425;  305,930;42428,711;30,41939
 810,74;13047,898;  271,239;42170,753;30,49357
 811,31;13051,756;  273,470;41899,949;30,69749
 811,87;13085,844;  306,393;41779,299;30,81398
 812,44;13063,779;  319,778;41752,265;30,75847
 813,00;13006,098;  250,009;41412,769;30,98939
 813,56;13068,725;  299,471;41490,811;30,99985
 814,13;13110,275;  287,933;41363,315;31,21661
 814,69;13053,132;  281,549;41238,973;31,18258
 815,25;12898,144;  254,241;40772,477;31,20546
 815,82;13016,232;  299,165;40720,673;31,46114
 816,38;13018,090;  331,242;40600,100;31,50536
 816,94;12843,793;  264,781;40284,912;31,43171
 817,51;12896,035;  257,012;40110,185;31,71397
 818,07;12841,278;  256,397;39827,074;31,80355
 818,63;12787,135;  291,090;39544,732;31,83410
 819,20;12842,454;  277,552;39453,005;32,07341
 819,76;12683,543;  256,552;39198,432;31,91164
 820,32;12766,708;  303,937;38981,551;32,22218
 820,89;12743,027;  282,091;38803,901;32,34774
 821,45;12624,962;  267,630;38485,944;32,33353
 822,01;12642,742;  288,784;38235,371;32,55618
 822,57;12616,292;  286,400;38185,336;32,53361
 823,14;12500,381;  245,323;37953,917;32,49937
 823,70;12464,700;  258,785;37624,267;32,66628
 824,26;12479,403;  259,862;37509,541;32,80442
 824,82;12505,261;  300,094;37435,352;32,86679
 825,39;12453,811;  263,940;37111,241;33,08213
 825,95;12461,669;  290,171;37266,206;32,91726
 826,51;12396,449;  274,018;36743,710;33,23974
 827,08;12480,614;  315,249;36809,907;33,33465
 827,64;12386,164;  297,249;36649,180;33,25522
 828,20;12316,791;  257,403;36443,299;33,32621
 828,76;12411,880;  296,173;36381,188;33,57545
 829,32;12362,814;  313,635;36132,615;33,63909
 829,89;12261,056;  249,866;36017,657;33,58102
 830,45;12311,606;  271,174;36062,315;33,64082
 831,01;12326,771;  279,405;35843,896;33,87470
 831,57;12275,014;  283,175;35652,708;33,90443
 832,14;12296,487;  258,637;35711,366;33,95465
 832,70;12234,652;  260,099;35426,331;34,05128
 833,26;12226,663;  233,945;35366,373;34,13575
 833,82;12273,906;  268,484;35296,031;34,27423
 834,38;12288,148;  257,330;35233,689;34,39700
 834,95;12235,621;  255,715;35182,193;34,30035
 835,51;12205,709;  243,254;35039,466;34,37861
 836,07;12220,336;  271,255;35112,201;34,29609
 836,63;12392,040;  304,870;35036,859;34,80126
 837,19;12284,359;  277,717;34829,286;34,74992
 837,75;12173,755;  245,948;34607,559;34,71259
 838,32;12232,535;  290,487;34752,602;34,65269
 838,88;12244,316;  290,718;34674,259;34,76547
 839,44;12284,020;  294,411;34681,456;34,86665
 840,00;12313,954;  276,488;34592,652;35,07812
 840,56;12214,504;  262,181;34297,540;35,11737
 841,12;12287,208;  260,489;34213,660;35,42149
 841,68;12176,681;  238,412;34080,395;35,27651
 842,25;12242,846;  253,566;34154,052;35,36610
 842,81;12238,858;  258,567;33854,479;35,65997
 843,37;12265,792;  243,028;33824,753;35,80151
 843,93;12225,573;  264,260;33801,257;35,66602
 844,49;12357,969;  281,491;33788,914;36,04120
 845,05;12220,596;  226,414;33613,957;35,92412
 845,61;12331,223;  278,184;33598,845;36,17287
 846,17;12259,234;  262,338;33423,196;36,17788
 846,73;12268,630;  272,031;33429,700;36,18047
 847,29;12205,718;  249,492;33178,127;36,30951
 847,86;12227,576;  250,647;33157,861;36,39606
 848,42;12254,818;  244,416;33008,442;36,65728
 848,98;12261,445;  267,186;32922,562;36,72982
 849,54;12340,687;  250,340;32905,066;37,02480
 850,10;12259,083;  262,725;32723,185;36,95683
 850,66;12211,325;  241,033;32620,150;36,96917
 851,22;12264,414;  240,418;32551,501;37,21322
 851,78;12322,195;  284,034;32665,620;37,17595
 852,34;12227,898;  269,419;32323,124;37,30764
 852,90;12290,910;  252,573;32188,320;37,69549
 853,46;12220,460;  242,727;31997,670;37,71927
 854,02;12239,317;  266,881;32021,020;37,70354
 854,58;12205,636;  252,036;31732,217;37,97183
 855,14;12266,417;  242,728;31675,105;38,25256
 855,70;12184,582;  230,498;31478,609;38,25538
 856,26;12217,824;  261,652;31426,959;38,36372
 856,82;12199,836;  249,575;31362,002;38,40993
 857,38;12284,847;  301,730;31168,583;38,82196
 857,94;12243,474;  260,730;31128,625;38,81944
 858,50;12196,255;  272,577;30932,668;38,88990
 859,06;12138,497;  258,731;30843,633;38,84193
 859,62;12122,585;  280,577;30800,368;38,80108
 860,18;12097,751;  266,347;30540,795;39,08049
 860,74;12005,070;  236,116;30480,376;38,91302
 861,30;11991,004;  239,271;30208,034;39,21328
 861,86;12086,631;  311,117;30398,922;39,13717
 862,42;12004,796;  251,579;30109,349;39,36402
 862,98;12036,192;  286,810;30098,776;39,41163
 863,54;11955,204;  251,503;29904,203;39,46926
 864,10;12014,523;  268,119;29954,015;39,56897
 864,66;11869,919;  228,888;29743,904;39,44105
 865,22;11928,546;  247,273;29580,946;39,82206
 865,78;11882,096;  260,889;29447,373;39,81708
 866,34;11868,569;  246,428;29419,031;39,83923
 866,90;11837,349;  258,274;29261,150;39,92389
 867,45;11812,669;  250,813;29022,039;40,18548
 868,01;11743,757;  244,583;28907,543;40,11859
 868,57;11704,768;  249,045;28737,278;40,21212
 869,13;11652,395;  237,506;28576,012;40,28049
 869,69;11624,407;  240,199;28538,901;40,22873
 870,25;11641,110;  236,969;28389,482;40,50843
 870,81;11648,429;  245,046;28317,832;40,62078
 871,37;11635,441;  269,662;28271,259;40,58975
 871,93;11626,068;  283,739;28096,686;40,78075
 872,49;11626,695;  296,893;27928,728;41,00271
 873,04;11499,860;  240,817;27787,309;40,87287
 873,60;11520,871;  240,894;27667,890;41,12728
 874,16;11492,498;  271,433;27518,163;41,18316
 874,72;11440,883;  254,433;27458,856;41,11997
 875,28;11479,729;  251,433;27358,933;41,42136
 875,84;11458,806;  261,817;27373,779;41,29907
 876,40;11484,729;  243,510;27305,779;41,53835
 876,95;11531,190;  247,356;27243,010;41,79871
 877,51;11539,883;  283,202;27220,471;41,78850
 878,07;11612,883;  290,971;27186,010;42,09665
 878,63;11577,344;  258,048;27179,163;42,04616
 879,19;11663,806;  264,740;27231,625;42,27061
 879,75;11652,037;  254,279;27203,010;42,29423
 880,30;11704,652;  246,048;27291,010;42,36872
 880,86;11866,421;  299,433;27390,625;42,69649
 881,42;11840,267;  233,510;27328,933;42,83660
 881,98;11859,498;  264,894;27395,548;42,73618
 882,54;11954,883;  241,356;27527,625;42,92828
 883,09;12012,575;  265,433;27595,548;42,98241
 883,65;12044,806;  250,433;27656,548;43,03555
 884,21;12201,344;  294,202;27779,240;43,32227
 884,77;12218,190;  235,587;27917,548;43,28669
 885,32;12274,344;  258,279;28054,702;43,22882
 885,88;12378,113;  280,894;28194,779;43,33764
 886,44;12446,190;  255,971;28265,779;43,52125
 887,00;12498,113;  273,971;28209,394;43,75857
 887,56;12597,267;  256,894;28435,010;43,79417
 888,11;12581,267;  269,663;28349,702;43,84468
 888,67;12639,421;  277,740;28548,394;43,72619
 889,23;12709,037;  254,125;28482,010;44,12272
 889,79;12651,729;  244,356;28431,856;44,01729
 890,34;12663,113;  268,125;28384,163;44,08512
 890,90;12802,806;  333,202;28557,779;44,17995
 891,46;12683,960;  244,202;28416,471;44,15604
 892,01;12718,267;  267,048;28408,933;44,24444
 892,57;12716,267;  296,048;28336,240;44,29434
 893,13;12618,960;  243,663;28152,471;44,34190
 893,69;12609,037;  236,048;28070,625;44,45186
 894,24;12609,037;  248,125;27938,933;44,63904
 894,80;12561,113;  255,202;27894,010;44,52403
 895,36;12570,498;  243,356;27727,471;44,85188
 895,91;12457,652;  249,433;27520,779;44,76574
 896,47;12481,883;  272,125;27423,548;44,96913
 897,03;12356,729;  246,663;27244,394;44,85586
 897,58;12296,652;  255,433;27167,779;44,74236
 898,14;12259,883;  262,433;27009,779;44,85473
 898,70;12152,190;  214,125;26779,856;44,93784
 899,25;12212,575;  254,971;26867,240;44,93267
 899,81;12121,960;  259,740;26652,471;44,94502
 900,37;12019,267;  211,279;26454,163;44,99501
 900,92;12085,960;  248,433;26442,163;45,19221
 901,48;11989,344;  236,510;26289,856;45,11065
 902,03;11972,190;  237,048;26127,163;45,32673
 902,59;11928,652;  239,048;26029,856;45,32469
 903,15;11894,113;  262,356;25902,163;45,36601
 903,70;11738,113;  241,279;25715,010;45,13212
 904,26;11734,267;  237,587;25565,471;45,39140
 904,82;11745,190;  241,510;25528,702;45,49212
 905,37;11684,267;  252,587;25409,625;45,44128
 905,93;11629,113;  231,510;25257,163;45,54368
 906,48;11667,883;  249,202;25269,240;45,63814
 907,04;11621,575;  254,817;25191,933;45,58169
 907,60;11581,037;  250,587;24960,010;45,85477
 908,15;11576,960;  236,279;24885,010;46,00919
 908,71;11574,652;  260,971;24848,548;46,01381
 909,26;11565,344;  230,740;24733,163;46,25911
 909,82;11516,421;  255,279;24547,548;46,35690
 910,37;11512,344;  279,894;24504,317;46,36829
 910,93;11409,498;  235,817;24324,625;46,38536
 911,48;11382,883;  211,279;24223,548;46,52457
 912,04;11310,267;  229,510;24064,779;46,48891
 912,60;11433,113;  243,356;24029,163;47,04384
 913,15;11362,344;  245,048;23886,394;47,02480
 913,71;11268,498;  225,587;23652,856;47,13700
 914,26;11284,344;  218,740;23636,010;47,25403
 914,82;11255,037;  247,740;23560,856;47,21504
 915,37;11252,037;  230,663;23486,856;47,39113
 915,93;11243,806;  303,202;23381,471;47,40652
 916,48;11218,883;  221,817;23217,548;47,82220
 917,04;11136,037;  259,663;23063,394;47,69559
 917,59;11230,190;  270,740;23124,548;47,95459
 918,15;11014,729;  205,202;22832,394;47,77229
 918,70;11047,806;  230,817;22744,933;48,04536
 919,26;11049,652;  240,740;22600,702;48,34047
 919,81;10947,498;  219,433;22460,471;48,23545
 920,37;10977,575;  245,433;22430,317;48,37592
 920,92;10969,575;  263,125;22403,625;48,35686
 921,48;10797,113;  223,894;22091,394;48,35129
 922,03;10896,421;  233,048;22110,163;48,74213
 922,59;10767,883;  232,817;22055,702;48,27531
 923,14;10794,498;  244,510;21812,163;48,91579
 923,69;10784,960;  254,510;21781,163;48,91819
 924,25;10790,729;  265,048;21795,010;48,88853
 924,80;10624,113;  239,587;21542,471;48,74705
 925,36;10601,190;  225,202;21428,625;48,93544
 925,91;10579,806;  219,048;21370,010;48,98481
 926,47;10598,037;  217,279;21331,394;49,16501
 927,02;10603,652;  291,971;21219,317;49,27371
 927,57;10539,575;  225,279;21006,087;49,63376
 928,13;10467,806;  225,279;20948,010;49,42653
 928,68;10485,883;  233,817;20900,933;49,60569
 929,24;10471,421;  201,971;20710,625;50,07374
 929,79;10449,344;  219,587;20580,240;50,24278
 930,34;10317,113;  226,356;20442,317;49,91480
 930,90;10423,806;  225,663;20414,856;50,51288
 931,45;10435,344;  231,894;20431,779;50,51242
 932,01;10379,729;  235,048;20330,317;50,48293
 932,56;10396,729;  250,663;20097,779;51,12111
 933,11;10344,421;  258,587;20132,548;50,74899
 933,67;10318,729;  220,202;19943,317;51,20148
 934,22;10299,037;  230,125;19903,317;51,18087
 934,77;10241,883;  252,202;19720,779;51,31182
 935,33;10204,806;  232,971;19621,779;51,43088
 935,88;10230,575;  239,202;19570,317;51,68545
 936,43;10203,190;  228,740;19440,933;51,91729
 936,99;10179,344;  232,202;19387,779;51,92818
 937,54;10126,575;  204,894;19253,394;52,08642
 938,09;10101,729;  237,587;19226,317;51,94735
 938,65;10112,267;  237,433;19047,317;52,49811
 939,20;10036,498;  210,356;19020,779;52,23775
 939,75;10027,344;  214,740;18954,471;52,36257
 940,31; 9988,729;  213,125;18819,933;52,53778
 940,86;10033,806;  225,740;18780,163;52,86106
 941,41;10086,190;  315,510;18720,317;53,08765
 941,96; 9898,498;  220,048;18550,471;52,79993
 942,52; 9866,498;  222,125;18442,856;52,93077
 943,07; 9805,806;  199,740;18381,087;52,83473
 943,62; 9801,575;  217,587;18287,010;53,03981
 944,18; 9736,652;  209,971;18255,317;52,79301
 944,73; 9738,498;  234,433;18020,240;53,43623
 945,28; 9630,806;  196,894;17911,933;53,25369
 945,83; 9685,037;  221,663;17909,087;53,50340
 946,39; 9632,652;  218,279;17914,702;53,19930
 946,94; 9614,113;  243,817;17736,010;53,56845
 947,49; 9539,960;  216,510;17631,625;53,53654
 948,04; 9557,729;  262,356;17690,317;53,33597
 948,59; 9555,960;  241,971;17645,163;53,51885
 949,15; 9460,113;  207,740;17503,625;53,49465
 949,70; 9446,960;  229,433;17385,471;53,72760
 950,25; 9435,498;  231,663;17277,010;53,99617
 950,80; 9352,344;  186,663;17122,702;54,11939
 951,36; 9304,113;  192,587;17124,548;53,81259
 951,91; 9382,883;  243,356;17139,933;54,09100
 952,46; 9226,037;  202,663;16908,394;54,01364
 953,01; 9325,037;  236,202;16897,010;54,55218
 953,56; 9228,883;  201,125;16755,471;54,53406
 954,11; 9241,037;  234,663;16748,317;54,53895
 954,67; 9192,729;  218,894;16653,087;54,60466
 955,22; 9173,344;  196,279;16463,625;55,18457
 955,77; 9237,883;  243,894;16551,240;55,15299
 956,32; 9133,421;  281,894;16403,163;54,90589
 956,87; 9059,190;  216,433;16257,240;55,12664
 957,42; 9065,267;  230,125;16189,933;55,35870
 957,98; 9011,806;  217,587;16138,933;55,23540
 958,53; 9054,498;  248,356;16123,010;55,47297
 959,08; 9007,344;  204,356;15932,779;55,96867
 959,63; 8951,267;  209,817;15836,471;55,93936
 960,18; 8978,190;  240,433;15843,548;56,00008
 960,73; 8946,806;  224,048;15819,087;55,93290
 961,28; 8920,344;  206,663;15655,010;56,40527
 961,83; 8934,037;  247,894;15641,548;56,42677
 962,39; 8856,190;  203,894;15504,702;56,54797
 962,94; 8818,421;  224,663;15445,163;56,46173
 963,49; 8762,267;  227,202;15295,779;56,64148
 964,04; 8794,190;  228,971;15216,548;57,14879
 964,59; 8719,421;  203,125;15139,317;57,01785
 965,14; 8733,113;  244,894;15098,856;57,14448
 965,69; 8627,267;  237,202;14957,163;56,99788
 966,24; 8601,806;  217,279;14840,317;57,33779
 966,79; 8546,190;  237,048;14789,394;57,09830
 967,34; 8482,498;  205,510;14734,856;56,96738
 967,89; 8577,037;  216,663;14617,625;58,05427
 968,44; 8463,190;  222,740;14560,933;57,47203
 968,99; 8453,113;  229,433;14552,625;57,41514
 969,55; 8448,498;  227,356;14408,625;57,97184
 970,10; 8439,806;  236,048;14297,702;58,34134
 970,65; 8353,806;  253,971;14166,471;58,21984
 971,20; 8298,883;  207,817;14077,240;58,33743
 971,75; 8225,037;  196,433;13935,163;58,43774
 972,30; 8228,960;  232,587;13902,010;58,49825
 972,85; 8199,652;  212,817;13824,240;58,67744
 973,40; 8113,575;  217,971;13728,163;58,44183
 973,95; 8119,421;  234,740;13695,010;58,57744
 974,50; 8107,113;  256,202;13630,317;58,70229
 975,05; 8020,575;  232,356;13502,240;58,69093
 975,60; 8007,037;  246,587;13442,010;58,81168
 976,15; 7904,652;  220,356;13283,010;58,82645
 976,70; 7877,960;  228,663;13184,856;59,03969
 977,25; 7876,883;  245,740;13159,010;59,09536
 977,80; 7817,113;  227,356;13054,240;59,17070
 978,35; 7735,190;  239,279;12839,394;59,49082
 978,89; 7794,498;  204,817;12779,702;60,35587
 979,44; 7752,498;  226,048;12821,779;59,75398
 979,99; 7669,421;  212,817;12606,625;60,16395
 980,54; 7657,960;  247,125;12527,010;60,34938
 981,09; 7587,729;  256,279;12521,856;59,77257
 981,64; 7542,267;  241,663;12382,933;60,13048
 982,19; 7569,729;  276,894;12315,933;60,57655
 982,74; 7471,960;  241,048;12229,010;60,31811
 983,29; 7397,190;  219,587;12037,625;60,73431
 983,84; 7363,421;  226,740;11923,702;61,01312
 984,39; 7403,344;  318,202;11991,625;60,69464
 984,94; 7259,421;  204,894;11736,779;61,17410
 985,49; 7255,037;  263,587;11708,163;61,08963
 986,03; 7249,729;  262,971;11659,548;61,30576
 986,58; 7199,652;  288,356;11489,240;61,70313
 987,13; 7137,960;  237,202;11355,394;62,06726
 987,68; 7063,344;  258,510;11278,625;61,74921
 988,23; 7069,729;  254,356;11222,317;62,13892
 988,78; 6954,498;  236,356;11108,548;61,79197
 989,33; 6892,806;  249,202;11009,548;61,74154
 989,88; 6889,267;  273,510;10959,625;61,90985
 990,42; 6800,498;  236,971;10761,856;62,36198
 990,97; 6728,267;  240,202;10640,163;62,38547
 991,52; 6698,960;  255,356;10569,779;62,47178
 992,07; 6643,344;  270,817;10517,317;62,19223
 992,62; 6578,113;  241,279;10391,856;62,42832
 993,17; 6581,575;  255,356;10232,933;63,40436
 993,71; 6519,037;  258,587;10219,010;62,85325
 994,26; 6437,806;  227,817; 9997,471;63,56406
 994,81; 6478,883;  257,587;10026,471;63,68482
 995,36; 6399,575;  233,663; 9858,779;64,06065
 995,91; 6304,037;  246,356; 9744,163;63,77978
 996,45; 6310,806;  243,048; 9689,625;64,23234
 997,00; 6212,421;  218,125; 9582,010;64,01506
 997,55; 6185,037;  251,356; 9489,933;64,22722
 998,10; 6117,806;  269,433; 9388,933;64,13041
 998,65; 6101,344;  237,356; 9351,163;64,34181
 999,19; 6076,960;  263,510; 9219,625;64,91040
 999,74; 5993,806;  283,587; 9113,163;64,67149
1000,29; 5955,652;  254,356; 9071,317;64,66282
1000,84; 5851,037;  247,356; 8884,625;64,87792
1001,38; 5813,652;  251,510; 8792,087;65,12607
1001,93; 5796,037;  246,125; 8761,702;65,17364
1002,48; 5738,344;  226,971; 8619,087;65,67323
1003,03; 5666,575;  254,433; 8565,471;65,11993
1003,57; 5628,806;  255,279; 8497,317;65,19658
1004,12; 5630,113;  288,048; 8389,702;65,93796
1004,67; 5552,652;  238,202; 8254,087;66,29898
1005,22; 5464,498;  229,279; 8159,702;66,01438
1005,76; 5390,498;  218,279; 8040,548;66,12172
1006,31; 5354,960;  257,202; 7979,240;66,01570
1006,86; 5288,883;  234,740; 7830,087;66,54262
1007,40; 5195,498;  216,663; 7735,856;66,21502
1007,95; 5194,729;  239,663; 7658,625;66,78920
1008,50; 5093,806;  248,587; 7545,702;66,39910
1009,04; 5042,729;  236,048; 7434,240;66,77622
1009,59; 4981,806;  247,971; 7270,317;67,41101
1010,14; 4921,960;  228,279; 7237,087;66,96832
1010,68; 4866,344;  243,433; 7149,548;66,93939
1011,23; 4777,344;  227,587; 6996,548;67,21500
1011,78; 4739,421;  253,894; 6943,856;67,04862
1012,32; 4725,113;  272,125; 6822,394;67,98176
1012,87; 4701,037;  269,894; 6837,548;67,46918
1013,42; 4638,806;  225,048; 6690,702;68,26468
1013,96; 4626,113;  270,125; 6717,240;67,56492
1014,51; 4560,575;  207,817; 6585,163;68,25343
1015,06; 4572,652;  216,202; 6554,240;68,73499
1015,60; 4678,190;  275,817; 6607,087;69,53382
1016,15; 4607,806;  230,663; 6560,856;69,14707
1016,69; 4658,113;  237,202; 6614,856;69,31878
1017,24; 4676,806;  223,433; 6589,394;69,95602
1017,79; 4750,883;  277,510; 6636,317;70,34924
1018,33; 4750,190;  231,510; 6634,779;70,56834
1018,88; 4774,575;  251,971; 6665,548;70,51609
1019,42; 4805,498;  231,971; 6630,163;71,48155
1019,97; 4807,037;  227,894; 6621,625;71,61925
1020,51; 4891,113;  268,356; 6689,548;71,99220
1021,06; 4815,883;  227,125; 6628,625;71,68254
1021,61; 4778,960;  201,740; 6623,933;71,27191
1022,15; 4764,037;  188,510; 6586,702;71,51281
1022,70; 4811,344;  241,740; 6589,856;71,98363
1023,24; 4773,113;  217,971; 6503,702;72,46798
1023,79; 4727,498;  225,356; 6506,702;71,67480
1024,33; 4722,344;  217,817; 6428,010;72,53442
1024,88; 4625,729;  244,817; 6364,010;71,59297
1025,42; 4579,421;  249,971; 6247,702;72,18480
1025,97; 4529,652;  220,048; 6179,240;72,31859
1026,51; 4368,806;  200,894; 6035,548;71,43374
1027,06; 4371,267;  215,202; 5981,933;72,06970
1027,60; 4317,960;  244,817; 5897,933;72,05129
1028,15; 4253,883;  251,048; 5856,087;71,41494
1028,69; 4177,190;  192,587; 5682,548;72,57981
1029,24; 4163,729;  232,587; 5602,548;73,20615
1029,78; 4076,190;  219,510; 5551,394;72,33241
1030,33; 3996,883;  202,663; 5448,317;72,33072
1030,87; 3976,729;  224,894; 5380,548;72,77127
1031,42; 3909,267;  212,356; 5271,625;73,07205
1031,96; 3909,344;  241,971; 5232,625;73,48482
1032,51; 3820,267;  211,817; 5156,702;72,97339
1033,05; 3796,883;  237,048; 5132,702;72,71418
1033,60; 3667,806;  197,587; 4966,702;72,76442
1034,14; 3650,652;  215,894; 4919,394;73,02557
1034,69; 3619,652;  223,740; 4855,933;73,31111
1035,23; 3578,498;  216,894; 4821,702;73,00205
1035,77; 3586,575;  215,817; 4729,010;74,68677
1036,32; 3484,267;  192,433; 4662,702;73,63840
1036,86; 3499,729;  230,279; 4599,163;74,83489
1037,41; 3444,883;  239,740; 4541,240;74,51220
1037,95; 3345,190;  188,279; 4430,548;74,41563
1038,50; 3320,037;  213,202; 4401,317;74,18216
1039,04; 3308,037;  235,740; 4344,933;74,76642
1039,58; 3252,344;  199,433; 4289,856;74,63559
1040,13; 3217,883;  221,740; 4213,856;75,05150
1040,67; 3188,421;  252,817; 4231,010;73,79241
1041,21; 3166,421;  258,279; 4144,856;74,82529
1041,76; 3081,113;  204,202; 4034,163;75,11594
1042,30; 3092,498;  221,510; 4012,471;75,73246
1042,85; 3027,960;  215,894; 3952,856;75,25005
1043,39; 2958,960;  212,433; 3862,625;75,24335
1043,93; 2945,421;  241,817; 3872,087;74,47392
1044,48; 2899,729;  230,510; 3825,471;74,24890
1045,02; 2889,806;  219,202; 3715,933;76,37431
1045,56; 2868,037;  252,894; 3728,471;75,24340
1046,11; 2831,960;  228,433; 3609,087;77,01253
1046,65; 2782,960;  230,433; 3572,087;76,38514
1047,19; 2778,113;  218,279; 3512,625;77,70387
1047,74; 2680,883;  197,356; 3469,856;75,89082
1048,28; 2686,960;  223,048; 3423,317;76,99076
1048,82; 2678,037;  256,971; 3420,317;76,53495
1049,37; 2643,883;  241,048; 3322,471;77,97808
1049,91; 2606,344;  231,587; 3308,856;77,17094
1050,45; 2584,344;  233,740; 3246,240;78,02834
1050,99; 2533,344;  227,433; 3231,163;76,76825
1051,54; 2481,037;  214,125; 3142,625;77,40862
1052,08; 2498,190;  246,894; 3127,702;78,14809
1052,62; 2465,190;  247,433; 3097,240;77,82131
1053,16; 2399,498;  226,125; 3032,317;77,44919
1053,71; 2401,575;  234,663; 3025,163;77,65316
1054,25; 2377,652;  245,510; 2963,394;78,44860
1054,79; 2333,883;  242,894; 2893,010;78,90179
1055,33; 2274,960;  199,356; 2849,010;78,33491
1055,88; 2282,960;  246,202; 2846,779;78,31946
1056,42; 2286,883;  247,433; 2797,471;79,97723
1056,96; 2251,190;  244,817; 2790,317;78,82039
1057,50; 2216,806;  239,125; 2715,702;79,85541
1058,05; 2190,267;  236,587; 2651,240;80,90935
1058,59; 2173,190;  253,587; 2637,933;80,50861
1059,13; 2128,267;  218,510; 2573,163;81,10567
1059,67; 2140,190;  242,817; 2560,548;81,86339
1060,21; 2085,729;  237,125; 2497,933;81,76741
1060,76; 2040,729;  243,356; 2515,625;79,10036
1061,30; 2046,113;  256,202; 2489,779;80,13655
1061,84; 1973,883;  240,433; 2418,856;79,57362
1062,38; 1943,113;  219,587; 2340,163;81,27632
1062,92; 1971,190;  274,587; 2379,702;80,59434
1063,46; 1918,883;  249,663; 2320,471;80,60716
1064,01; 1895,575;  232,894; 2289,856;80,83188
1064,55; 1869,267;  235,279; 2254,625;80,91671
1065,09; 1827,267;  208,048; 2167,625;82,63106
1065,63; 1847,113;  259,971; 2212,163;81,30051
1066,17; 1849,267;  282,740; 2185,317;82,33711
1066,71; 1801,190;  260,048; 2159,702;81,12753
1067,25; 1772,652;  238,433; 2102,087;82,32319
1067,80; 1772,729;  252,587; 2086,240;82,90236
1068,34; 1748,729;  269,817; 2096,702;80,95265
1068,88; 1682,113;  242,279; 2011,702;81,37311
1069,42; 1740,344;  259,740; 2022,240;84,00589
1069,96; 1693,421;  246,587; 1975,548;83,68229
1070,50; 1697,883;  274,202; 1998,163;82,58193
1071,04; 1632,729;  228,817; 1931,394;82,45804
1071,58; 1602,267;  236,740; 1905,856;81,81142
1072,12; 1601,037;  235,894; 1914,548;81,32363
1072,66; 1594,190;  240,587; 1872,702;82,93555
1073,21; 1600,267;  250,356; 1855,779;84,08447
1073,75; 1579,113;  239,817; 1843,163;83,53132
1074,29; 1533,037;  238,740; 1820,010;81,85173
1074,83; 1545,729;  269,510; 1805,240;83,10176
1075,37; 1519,498;  263,433; 1800,010;81,74439
1075,91; 1523,729;  256,125; 1753,010;84,68280
1076,45; 1489,806;  244,894; 1728,548;83,90849
1076,99; 1486,113;  257,202; 1729,087;83,49238
1077,53; 1449,113;  235,433; 1662,548;85,04433
1078,07; 1443,729;  244,740; 1679,240;83,58233
1078,61; 1426,113;  249,587; 1643,087;84,42963
1079,15; 1407,421;  242,202; 1623,240;84,37268
1079,69; 1401,498;  239,279; 1606,240;85,02209
1080,23; 1382,498;  262,587; 1587,702;84,51427
1080,77; 1419,806;  302,971; 1626,625;84,37513
1081,31; 1346,729;  236,740; 1546,548;84,74438
1081,85; 1370,575;  268,510; 1558,625;85,42378
1082,39; 1315,190;  238,433; 1515,163;84,33710
1082,93; 1323,344;  249,125; 1515,087;84,85402
1083,47; 1290,883;  235,125; 1445,471;87,22775
1084,01; 1293,498;  253,740; 1488,317;84,21976
1084,55; 1268,113;  241,510; 1434,779;86,03288
1085,09; 1278,960;  256,587; 1444,933;86,03327
1085,63; 1237,960;  249,663; 1423,317;84,20678
1086,17; 1231,037;  228,663; 1396,317;85,84505
1086,71; 1212,421;  224,279; 1372,010;86,09531
1087,24; 1216,267;  261,663; 1402,163;83,70047
1087,78; 1218,421;  259,279; 1373,702;86,06626
1088,32; 1144,575;  230,971; 1326,625;83,38435
1088,86; 1192,190;  257,356; 1332,394;86,95825
1089,40; 1162,652;  250,587; 1322,548;85,08378
1089,94; 1137,344;  222,356; 1272,010;87,17050
1090,48; 1126,652;  262,125; 1279,933;84,94011
1091,02; 1132,498;  266,048; 1280,625;85,40013
1091,56; 1094,575;  250,894; 1249,548;84,48180
1092,10; 1067,190;  229,510; 1219,933;84,57807
1092,63; 1120,883;  268,048; 1259,625;86,00791
1093,17; 1077,575;  251,510; 1227,779;84,61451
1093,71; 1071,344;  231,356; 1181,625;88,39479
1094,25; 1065,113;  269,663; 1208,779;84,70205
1094,79; 1042,037;  239,663; 1163,548;86,84776
1095,33; 1037,421;  256,048; 1162,163;86,23329
1095,87; 1024,037;  246,433; 1143,087;86,72286
1096,40;  978,037;  235,048; 1108,856;85,02883
1096,94; 1012,421;  242,279; 1113,240;88,42438
1097,48; 1014,498;  260,433; 1126,625;87,05519
1098,02;  978,960;  237,663; 1066,856;89,39979
1098,56;  934,883;  216,202; 1053,010;85,88362
1099,10;  933,575;  216,971; 1052,317;85,78526
1099,63;  928,498;  223,433; 1027,779;87,65696
1100,17;  964,344;  251,510; 1050,856;89,17721
1100,71;  960,883;  265,740; 1058,779;87,65556

