
Integration time [ms]: 140,000
Averaging Nr. [scans]: 13
Smoothing Nr. [pixels]: 0
Data measured with spectrometer [name]: 2009305U1
Wave   ;Sample   ;Dark     ;Reference;Reflectance
[nm]   ;[counts] ;[counts] ;[counts] ;[%]

 175,72;  226,025;  229,340;  215,673; 0,00000
 176,32;  245,069;  252,129;  241,025; 0,00000
 176,92;  284,357;  283,961;  266,109; 0,00000
 177,52;  270,046;  271,036;  267,675; 0,00000
 178,12;  265,929;  251,052;  238,311; 0,00000
 178,72;  287,798;  282,519;  258,525; 0,00000
 179,32;  279,669;  278,899;  258,748; 0,00000
 179,92;  275,212;  273,199;  262,806; 0,00000
 180,52;  263,180;  252,175;  261,455;118,58360
 181,12;  272,825;  274,659;  266,130; 0,00000
 181,73;  297,977;  287,426;  277,919; 0,00000
 182,33;  389,315;  394,184;  397,957;-129,03805
 182,93;  283,831;  281,652;  286,949;41,13623
 183,53;  264,295;  255,983;  247,813; 0,00000
 184,13;  269,829;  259,673;  237,845; 0,00000
 184,73;  301,360;  309,293;  296,892; 0,00000
 185,33;  288,876;  258,488;  361,143;29,60193
 185,93;  303,265;  262,503;  381,547;34,24146
 186,53;  314,485;  269,803;  410,327;31,79697
 187,13;  342,033;  300,864;  420,213;34,49462
 187,73;  306,401;  263,116;  382,447;36,27287
 188,33;  302,581;  254,432;  381,863;37,78448
 188,93;  323,647;  277,688;  387,891;41,70411
 189,53;  305,044;  253,477;  380,542;40,58269
 190,13;  350,596;  299,356;  423,007;41,43927
 190,73;  292,119;  234,103;  387,302;37,86993
 191,34;  335,027;  277,927;  406,760;44,32110
 191,94;  299,701;  256,287;  387,164;33,17142
 192,54;  305,233;  264,468;  415,221;27,04057
 193,14;  328,481;  282,173;  415,304;34,78387
 193,74;  313,116;  288,330;  398,242;22,55071
 194,34;  313,553;  276,401;  415,805;26,65099
 194,94;  291,497;  242,712;  367,347;39,14237
 195,54;  246,644;  214,795;  345,997;24,27483
 196,14;  283,826;  244,551;  381,829;28,60962
 196,74;  276,111;  246,260;  371,341;23,86475
 197,34;  264,443;  219,465;  367,061;30,47414
 197,94;  299,663;  249,633;  398,110;33,69563
 198,54;  302,118;  259,936;  414,320;27,32291
 199,14;  279,205;  228,075;  389,582;31,65825
 199,74;  269,497;  215,459;  394,616;30,16237
 200,34;  254,541;  211,457;  412,777;21,40049
 200,94;  299,693;  260,621;  440,849;21,67913
 201,54;  275,486;  229,385;  443,845;21,49619
 202,14;  322,135;  269,991;  509,855;21,73877
 202,74;  285,175;  233,229;  483,408;20,76361
 203,34;  264,403;  224,677;  505,069;14,16793
 203,94;  238,902;  188,990;  503,718;15,85886
 204,54;  310,846;  267,401;  595,985;13,22195
 205,14;  275,190;  205,767;  614,536;16,98342
 205,74;  334,819;  258,447;  713,847;16,77033
 206,34;  288,751;  214,299;  712,928;14,93121
 206,94;  296,646;  222,225;  764,426;13,72580
 207,54;  279,890;  203,454;  808,104;12,64140
 208,14;  289,457;  223,606;  894,372; 9,81727
 208,74;  303,637;  224,768;  969,173;10,59495
 209,34;  315,958;  215,381; 1054,701;11,98307
 209,94;  326,436;  244,920; 1142,048; 9,08622
 210,54;  334,423;  220,834; 1275,922;10,76579
 211,14;  347,852;  224,152; 1378,519;10,71582
 211,73;  349,380;  219,540; 1485,662;10,25491
 212,33;  367,478;  237,852; 1585,815; 9,61642
 212,93;  379,976;  227,691; 1695,643;10,37397
 213,53;  343,698;  198,152; 1731,515; 9,49196
 214,13;  395,057;  228,980; 1852,881;10,22707
 214,73;  365,750;  202,684; 1865,086; 9,80909
 215,33;  359,128;  189,920; 1889,894; 9,95353
 215,93;  405,435;  228,448; 2025,839; 9,84692
 216,53;  377,608;  188,077; 2077,759;10,02980
 217,13;  455,238;  236,680; 2288,601;10,65137
 217,73;  463,865;  213,832; 2523,291;10,82650
 218,33;  436,455;  171,516; 2679,717;10,56289
 218,93;  522,295;  203,732; 3016,014;11,32758
 219,53;  569,747;  208,747; 3295,597;11,69476
 220,13;  550,527;  173,359; 3615,373;10,95777
 220,73;  618,096;  200,689; 3981,424;11,04037
 221,32;  680,022;  213,306; 4393,481;11,16498
 221,92;  737,405;  216,975; 4824,839;11,29438
 222,52;  764,034;  195,600; 5274,577;11,19189
 223,12;  851,679;  195,292; 5727,756;11,86428
 223,72;  903,663;  216,368; 6131,713;11,61884
 224,32;  964,261;  217,367; 6567,755;11,76139
 224,92;  972,231;  194,444; 6890,969;11,61478
 225,52; 1066,553;  226,071; 7257,152;11,95382
 226,12; 1112,469;  201,065; 7552,443;12,39773
 226,72; 1127,471;  182,605; 7885,662;12,26612
 227,31; 1197,748;  174,836; 8271,414;12,63388
 227,91; 1298,540;  217,764; 8671,474;12,78463
 228,51; 1347,922;  197,312; 9080,788;12,95225
 229,11; 1453,610;  204,221; 9437,453;13,53144
 229,71; 1473,962;  190,769; 9761,515;13,40745
 230,31; 1576,088;  179,980;10198,283;13,93558
 230,91; 1622,312;  171,239;10495,044;14,05560
 231,51; 1710,296;  182,832;10729,351;14,48311
 232,10; 1783,947;  197,978;11125,042;14,51414
 232,70; 1875,323;  199,247;11327,421;15,06155
 233,30; 1991,252;  225,987;11566,044;15,56663
 233,90; 2036,991;  185,526;11672,874;16,11743
 234,50; 2082,127;  193,140;11762,227;16,32789
 235,10; 2156,077;  177,752;11763,892;17,07493
 235,70; 2240,002;  226,149;11795,777;17,40637
 236,29; 2274,346;  207,538;11790,212;17,84396
 236,89; 2299,080;  159,546;11668,517;18,59014
 237,49; 2375,992;  202,681;11531,473;19,18397
 238,09; 2375,520;  196,530;11258,005;19,69891
 238,69; 2410,887;  233,705;10981,786;20,25647
 239,29; 2408,214;  193,378;10668,835;21,14310
 239,89; 2376,495;  204,469;10293,457;21,52868
 240,48; 2352,720;  183,376; 9905,604;22,31324
 241,08; 2325,462;  186,686; 9504,563;22,95346
 241,68; 2322,658;  206,530; 9188,966;23,55851
 242,28; 2282,853;  175,065; 8793,143;24,45775
 242,88; 2301,811;  244,210; 8481,530;24,97900
 243,48; 2277,470;  231,296; 8141,747;25,86671
 244,07; 2245,125;  196,226; 7914,995;26,54437
 244,67; 2254,733;  215,452; 7750,440;27,06416
 245,27; 2234,841;  219,232; 7569,124;27,42366
 245,87; 2268,351;  229,058; 7508,591;28,01407
 246,47; 2276,795;  205,617; 7502,141;28,38582
 247,06; 2295,814;  199,686; 7436,481;28,96488
 247,66; 2368,119;  197,298; 7536,970;29,57653
 248,26; 2432,855;  225,154; 7659,802;29,69476
 248,86; 2497,148;  217,693; 7773,824;30,16696
 249,46; 2535,620;  166,063; 8056,240;30,03173
 250,05; 2682,367;  218,992; 8430,382;29,99949
 250,65; 2766,305;  182,849; 8749,185;30,15823
 251,25; 2923,047;  190,533; 9257,926;30,13561
 251,85; 3111,219;  192,623; 9838,778;30,25657
 252,44; 3247,376;  162,999;10487,925;29,87311
 253,04; 3498,635;  211,458;11180,039;29,96902
 253,64; 3667,061;  166,312;11919,352;29,78590
 254,24; 3955,075;  212,223;12914,502;29,46599
 254,84; 4204,312;  189,448;13814,933;29,46585
 255,43; 4484,129;  194,152;14851,732;29,26797
 256,03; 4737,321;  204,157;15905,993;28,87028
 256,63; 5044,203;  196,623;17012,116;28,82806
 257,23; 5289,495;  186,392;17967,154;28,70014
 257,82; 5642,243;  210,937;18985,983;28,92832
 258,42; 5734,848;  163,017;19935,819;28,17926
 259,02; 6087,943;  220,536;20864,266;28,42222
 259,62; 6252,466;  186,635;21654,872;28,25491
 260,21; 6355,160;  193,229;22196,203;28,00499
 260,81; 6419,885;  201,451;22801,606;27,51501
 261,41; 6471,737;  181,246;23313,600;27,19348
 262,01; 6635,531;  221,407;23821,639;27,17823
 262,60; 6639,264;  170,622;24241,692;26,87310
 263,20; 6718,534;  186,463;24635,120;26,71750
 263,80; 6735,609;  217,023;24852,328;26,46034
 264,40; 6686,914;  184,329;25095,732;26,10285
 264,99; 6696,579;  205,947;25238,610;25,92865
 265,59; 6675,393;  186,341;25477,207;25,65769
 266,19; 6622,132;  202,638;25585,669;25,29049
 266,78; 6671,262;  237,412;25736,284;25,23190
 267,38; 6623,467;  216,647;25781,847;25,06071
 267,98; 6502,000;  198,335;25840,891;24,58283
 268,58; 6451,205;  208,031;25858,599;24,33932
 269,17; 6372,493;  186,731;25860,805;24,09342
 269,77; 6308,453;  198,241;25655,750;24,00161
 270,37; 6181,349;  176,409;25618,299;23,60257
 270,96; 6160,458;  231,245;25438,167;23,52216
 271,56; 6014,019;  198,546;25228,560;23,23400
 272,16; 5900,722;  183,093;25020,391;23,02034
 272,75; 5835,552;  196,323;25016,044;22,72076
 273,35; 5780,195;  199,167;24855,008;22,63573
 273,95; 5694,921;  206,169;24737,232;22,37470
 274,54; 5667,752;  186,454;24928,455;22,15382
 275,14; 5763,764;  219,705;25139,722;22,24741
 275,74; 5680,384;  163,323;25213,532;22,02401
 276,33; 5805,253;  223,241;25691,686;21,91737
 276,93; 5832,057;  219,606;26054,556;21,72426
 277,53; 5926,330;  193,845;26511,015;21,78230
 278,12; 6025,216;  176,698;27017,644;21,78954
 278,72; 6195,362;  249,769;27762,943;21,60999
 279,32; 6269,394;  204,770;28294,102;21,59049
 279,91; 6464,858;  175,926;28957,693;21,85040
 280,51; 6583,822;  186,768;29510,574;21,81522
 281,11; 6740,136;  189,388;30262,599;21,78267
 281,70; 6904,737;  180,927;30711,540;22,02317
 282,30; 7100,096;  185,315;31444,406;22,12086
 282,90; 7224,512;  181,777;31805,496;22,27042
 283,49; 7418,564;  213,013;32334,427;22,43224
 284,09; 7612,123;  222,082;32725,455;22,73623
 284,69; 7782,364;  231,386;33260,773;22,86139
 285,28; 7940,523;  219,005;33621,729;23,11643
 285,88; 8172,830;  276,324;33732,635;23,60244
 286,47; 8246,143;  211,854;33898,539;23,85004
 287,07; 8383,487;  226,924;33912,914;24,21352
 287,67; 8615,470;  214,143;34022,901;24,84956
 288,26; 8713,010;  187,463;34016,478;25,20188
 288,86; 9008,169;  187,466;34056,750;26,04337
 289,46; 9243,288;  200,002;34230,300;26,57422
 290,05; 9529,294;  192,841;34225,200;27,43404
 290,65; 9804,129;  199,009;34400,326;28,08406
 291,24;10115,624;  202,692;34523,264;28,88335
 291,84;10466,280;  211,854;34720,346;29,71566
 292,44;10718,484;  214,757;34843,036;30,33280
 293,03;11126,224;  289,385;34928,448;31,28502
 293,63;11387,635;  195,931;35113,556;32,05173
 294,22;11616,766;  228,157;35285,108;32,48602
 294,82;11803,406;  200,713;35265,138;33,08964
 295,41;11916,045;  194,235;34979,002;33,69811
 296,01;12100,970;  245,479;34862,268;34,24781
 296,61;12155,932;  231,770;34641,414;34,65355
 297,20;12083,246;  209,247;34275,725;34,85538
 297,80;12139,198;  216,839;34039,254;35,24988
 298,39;12086,219;  194,777;33651,009;35,54328
 298,99;12148,796;  227,014;33553,030;35,77320
 299,58;12127,441;  231,529;33451,560;35,80946
 300,18;12042,893;  225,763;33178,930;35,86038
 300,78;11949,621;  200,152;32763,057;36,08237
 301,37;11892,689;  221,025;32759,607;35,87023
 301,97;12000,489;  219,772;32712,436;36,25654
 302,56;11868,359;  210,932;32605,176;35,98611
 303,16;11783,808;  178,780;32422,182;35,99195
 303,75;11779,173;  193,535;32489,889;35,87290
 304,35;11906,679;  187,907;32689,675;36,05580
 304,94;11937,673;  206,233;32786,534;36,00777
 305,54;11882,714;  229,460;32726,019;35,85996
 306,13;11766,509;  159,445;32615,867;35,76199
 306,73;11695,976;  183,757;32401,511;35,73253
 307,33;11701,778;  214,451;32387,508;35,70481
 307,92;11686,254;  216,692;32372,003;35,66926
 308,52;11804,055;  185,550;32855,760;35,56300
 309,11;11899,526;  195,326;33394,380;35,25462
 309,71;11957,008;  177,099;33672,532;35,16870
 310,30;11972,809;  186,231;33821,965;35,04183
 310,90;12176,348;  243,847;34177,350;35,16437
 311,49;12114,641;  216,232;34320,218;34,88862
 312,09;12047,385;  172,225;34482,793;34,61079
 312,68;12204,852;  273,306;34917,591;34,44016
 313,28;12188,562;  179,923;35101,003;34,38794
 313,87;12211,456;  171,001;35171,589;34,40072
 314,47;12238,261;  202,247;35477,156;34,12061
 315,06;12179,023;  176,615;35522,007;33,95749
 315,66;12248,308;  189,225;35733,947;33,92651
 316,25;12107,207;  169,472;35683,007;33,61461
 316,85;12110,307;  161,148;35742,567;33,58258
 317,44;12151,602;  198,556;35869,926;33,50879
 318,04;12067,081;  178,085;35916,590;33,26663
 318,63;12031,453;  181,449;35908,327;33,16832
 319,22;12017,283;  193,856;36093,245;32,93490
 319,82;11996,047;  193,852;35976,755;32,98278
 320,41;11897,421;  204,394;35992,053;32,67335
 321,01;11937,002;  206,457;36146,166;32,63951
 321,60;11874,846;  205,005;36070,930;32,53740
 322,20;11828,131;  177,615;36028,101;32,49751
 322,79;11844,654;  222,230;36180,362;32,32210
 323,39;11801,050;  181,139;36242,924;32,22223
 323,98;11723,176;  178,691;36090,019;32,14720
 324,58;11703,148;  195,012;36020,884;32,12242
 325,17;11622,714;  187,856;35870,151;32,04631
 325,76;11548,903;  203,463;35657,923;32,00004
 326,36;11411,571;  180,149;35334,794;31,94861
 326,95;11327,907;  222,928;35040,737;31,89454
 327,55;11218,493;  174,621;34519,396;32,15590
 328,14;11111,859;  186,223;34236,326;32,08694
 328,74;11022,529;  215,009;33788,296;32,19083
 329,33;10882,787;  209,073;33387,282;32,17086
 329,92;10696,787;  177,633;32810,785;32,23456
 330,52;10562,473;  213,914;32188,411;32,36504
 331,11;10370,092;  198,467;31720,361;32,26845
 331,71;10263,551;  189,695;31220,770;32,46377
 332,30;10134,211;  207,617;30698,073;32,55640
 332,89; 9999,696;  281,458;30113,996;32,57597
 333,49; 9812,768;  218,466;29589,246;32,66615
 334,08; 9723,094;  193,083;29096,811;32,97156
 334,68; 9595,447;  208,698;28649,029;33,00506
 335,27; 9509,532;  214,913;28405,999;32,97007
 335,86; 9542,015;  257,928;28031,208;33,42813
 336,46; 9450,793;  205,681;27752,328;33,56166
 337,05; 9413,908;  197,697;27515,575;33,73692
 337,65; 9455,309;  190,160;27432,691;34,00987
 338,24; 9541,591;  238,076;27393,801;34,25987
 338,83; 9550,760;  222,460;27260,698;34,50040
 339,43; 9603,930;  192,395;27263,797;34,76560
 340,02; 9686,070;  198,165;27114,892;35,24910
 340,61; 9792,008;  204,692;27199,191;35,51581
 341,21; 9851,375;  236,394;27164,989;35,70547
 341,80; 9925,140;  212,545;27122,563;36,09286
 342,40;10052,719;  203,068;27247,077;36,42082
 342,99;10196,388;  202,150;27356,765;36,80493
 343,58;10302,172;  198,457;27478,513;37,03700
 344,18;10490,755;  213,687;27601,431;37,52433
 344,77;10693,408;  193,011;27959,751;37,81646
 345,36;10858,676;  182,928;28209,737;38,09120
 345,96;11171,202;  230,688;28494,299;38,70883
 346,55;11383,618;  189,985;28716,329;39,23963
 347,14;11657,534;  196,991;29085,295;39,67191
 347,74;11875,667;  177,668;29550,925;39,82534
 348,33;12307,269;  194,900;30209,862;40,35444
 348,92;12684,599;  210,971;30725,797;40,87727
 349,52;13010,188;  182,512;31257,287;41,28003
 350,11;13224,671;  202,628;31541,063;41,55295
 350,70;13446,885;  187,308;31685,435;42,09640
 351,29;13507,770;  185,490;31461,114;42,59637
 351,89;13677,126;  209,095;31392,717;43,18944
 352,48;13763,685;  182,077;31412,140;43,48889
 353,07;13934,778;  218,066;31342,589;44,07043
 353,67;14035,505;  217,278;31275,378;44,49154
 354,26;14064,165;  217,683;31048,188;44,91163
 354,85;14177,276;  216,840;31019,938;45,32153
 355,45;14222,295;  185,161;30726,474;45,96113
 356,04;14386,823;  200,065;30690,353;46,52878
 356,63;14485,014;  244,850;30434,989;47,16826
 357,22;14537,688;  214,486;30226,312;47,72519
 357,82;14626,929;  212,252;30104,087;48,22279
 358,41;14691,473;  228,156;29983,240;48,60789
 359,00;14699,560;  200,702;29761,074;49,04829
 359,60;14891,191;  206,845;29763,524;49,68199
 360,19;14914,852;  230,064;29572,844;50,04566
 360,78;15017,355;  206,852;29434,366;50,67315
 361,37;15107,878;  214,775;29202,554;51,37718
 361,97;15221,059;  207,541;29156,830;51,86144
 362,56;15197,364;  208,243;28846,136;52,34017
 363,15;15219,140;  278,930;28535,867;52,87272
 363,74;15222,722;  214,477;28197,699;53,63301
 364,34;15127,792;  237,395;27826,455;53,97211
 364,93;15045,289;  205,398;27426,893;54,51534
 365,52;15000,400;  190,005;27035,361;55,16930
 366,11;14923,653;  220,933;26767,506;55,38462
 366,71;14875,899;  205,779;26287,784;56,24614
 367,30;14780,492;  211,774;25978,720;56,54033
 367,89;14772,815;  262,302;25806,704;56,80506
 368,48;14761,614;  229,400;25384,459;57,77054
 369,07;14584,347;  222,077;24999,127;57,96602
 369,67;14593,120;  234,014;24635,535;58,84513
 370,26;14562,777;  213,922;24350,656;59,44820
 370,85;14554,615;  227,236;24181,776;59,81071
 371,44;14495,505;  221,619;23928,164;60,21074
 372,03;14468,268;  194,395;23678,733;60,78040
 372,63;14327,214;  195,081;23427,203;60,83014
 373,22;14344,255;  205,770;23100,841;61,75340
 373,81;14232,292;  192,928;22741,652;62,26234
 374,40;14245,951;  208,069;22536,065;62,87121
 374,99;14141,141;  214,084;22255,171;63,18680
 375,59;14055,060;  205,685;21927,532;63,75781
 376,18;14103,509;  229,545;21828,824;64,23346
 376,77;14136,227;  225,695;21650,650;64,92677
 377,36;14082,185;  257,775;21528,174;64,99366
 377,95;14102,021;  238,009;21280,852;65,88469
 378,55;14039,309;  212,764;21060,243;66,32238
 379,14;14059,246;  232,621;21020,434;66,51313
 379,73;14082,066;  220,855;20886,074;67,07508
 380,32;14265,074;  218,849;20967,569;67,69683
 380,91;14243,936;  188,168;20786,052;68,23889
 381,50;14231,964;  222,243;20788,016;68,12154
 382,10;14282,689;  211,541;20650,569;68,84451
 382,69;14334,431;  182,006;20617,678;69,25354
 383,28;14373,162;  239,626;20536,939;69,63255
 383,87;14343,285;  206,242;20358,768;70,15023
 384,46;14339,067;  204,405;20349,510;70,16425
 385,05;14465,795;  228,166;20343,508;70,77995
 385,64;14608,730;  216,010;20334,968;71,53810
 386,24;14562,406;  191,098;20228,134;71,72372
 386,83;14743,808;  243,176;20334,857;72,17232
 387,42;14849,775;  233,932;20459,728;72,26338
 388,01;15069,681;  236,030;20576,120;72,92815
 388,60;15357,204;  218,019;20827,863;73,45608
 389,19;15551,680;  216,887;21101,875;73,42495
 389,78;15756,307;  222,269;21319,797;73,62966
 390,37;16252,828;  286,410;21778,099;74,29113
 390,96;16372,684;  230,021;21931,882;74,38377
 391,56;16621,977;  240,660;22109,404;74,90745
 392,15;16869,658;  218,113;22334,496;75,29055
 392,74;17013,043;  207,366;22547,688;75,22576
 393,33;17357,810;  225,046;22808,033;75,86580
 393,92;17787,314;  237,604;23277,774;76,17005
 394,51;17960,164;  214,969;23463,397;76,32858
 395,10;18305,389;  251,087;23664,751;77,11011
 395,69;18424,554;  246,545;23849,834;77,01473
 396,28;18546,215;  250,864;23985,185;77,08395
 396,87;18726,149;  241,267;24001,921;77,79618
 397,46;18877,028;  261,741;24097,362;78,09860
 398,06;18999,434;  270,988;24304,566;77,92617
 398,65;19084,608;  253,794;24408,209;77,96013
 399,24;19263,710;  271,185;24575,099;78,14595
 399,83;19329,709;  244,933;24616,465;78,30766
 400,42;19427,592;  290,828;24717,963;78,34224
 401,01;19620,502;  273,424;24823,113;78,80783
 401,60;19634,992;  287,885;24869,234;78,70645
 402,19;19682,676;  302,023;24838,259;78,98788
 402,78;19724,667;  302,040;24874,996;79,04066
 403,37;19598,714;  290,899;24657,434;79,23906
 403,96;19565,535;  292,080;24584,423;79,33963
 404,55;19505,219;  300,043;24486,578;79,40441
 405,14;19389,318;  281,765;24325,384;79,47037
 405,73;19323,043;  292,273;24215,857;79,54816
 406,32;19349,112;  307,280;24158,146;79,83707
 406,91;19186,599;  295,684;23903,949;80,01823
 407,50;19126,529;  300,503;23743,123;80,30683
 408,09;18881,669;  272,769;23438,307;80,33010
 408,68;18818,873;  287,255;23348,146;80,35950
 409,27;18716,244;  284,454;23096,682;80,79785
 409,86;18564,971;  290,840;22907,263;80,80027
 410,45;18534,546;  319,469;22908,280;80,63761
 411,04;18490,302;  318,327;22826,099;80,73645
 411,63;18259,801;  306,781;22601,988;80,52412
 412,22;18071,188;  304,243;22399,880;80,40929
 412,81;17846,167;  323,447;22137,078;80,32922
 413,40;17592,411;  318,951;21770,582;80,52283
 413,99;17304,934;  373,500;21514,368;80,08864
 414,58;16963,140;  281,724;21002,093;80,50733
 415,17;16792,536;  291,370;20794,881;80,47971
 415,76;16635,730;  290,323;20690,617;80,12339
 416,35;16461,340;  283,616;20435,067;80,28069
 416,94;16508,860;  314,778;20468,723;80,35192
 417,53;16657,502;  284,522;20661,892;80,34884
 418,12;16711,707;  287,669;20730,002;80,34327
 418,71;16981,625;  318,489;21138,316;80,03494
 419,30;17061,227;  289,127;21254,449;79,99925
 419,89;17168,864;  274,275;21375,380;80,06495
 420,48;17351,240;  316,334;21641,859;79,88036
 421,07;17397,140;  295,021;21753,803;79,69753
 421,66;17495,948;  264,236;21830,402;79,90160
 422,25;17442,015;  296,667;21813,606;79,68302
 422,84;17421,468;  309,661;21774,986;79,71837
 423,43;17126,993;  279,289;21522,667;79,30803
 424,02;16874,585;  317,899;21273,919;79,00683
 424,60;16558,274;  280,247;20895,165;78,96236
 425,19;16340,038;  303,727;20576,013;79,10460
 425,78;16125,235;  299,879;20533,943;78,21146
 426,37;15985,248;  300,559;20311,570;78,38030
 426,96;15883,925;  291,097;20209,604;78,28312
 427,55;15644,389;  290,538;20098,007;77,51546
 428,14;15482,053;  269,529;19836,295;77,74675
 428,73;15277,030;  281,161;19605,346;77,60156
 429,32;15239,882;  305,330;19611,131;77,35785
 429,91;15252,014;  314,083;19588,850;77,49993
 430,50;15112,476;  302,457;19440,017;77,38718
 431,08;14943,292;  309,062;19350,167;76,85599
 431,67;14838,433;  356,437;19182,511;76,92521
 432,26;14644,666;  369,582;19155,739;75,98725
 432,85;14389,332;  389,277;18684,997;76,52093
 433,44;14087,913;  399,263;18412,188;75,99349
 434,03;13751,179;  415,629;18036,127;75,68203
 434,62;13395,988;  379,723;17571,200;75,71348
 435,21;13177,622;  391,044;17407,817;75,14103
 435,79;13029,419;  387,482;17202,200;75,18376
 436,38;12867,579;  372,464;17105,118;74,67503
 436,97;12833,221;  358,769;17034,240;74,80720
 437,56;12610,937;  370,126;16753,433;74,71514
 438,15;12544,839;  339,517;16653,567;74,81479
 438,74;12459,451;  368,745;16701,368;74,02795
 439,33;12407,256;  335,057;16706,956;73,73731
 439,91;12368,269;  297,814;16797,114;73,15738
 440,50;12476,083;  350,043;16821,882;73,61680
 441,09;12465,400;  350,489;16962,768;72,92745
 441,68;12375,162;  332,934;16895,307;72,70835
 442,27;12375,449;  305,941;16926,060;72,61986
 442,86;12334,616;  288,599;16917,102;72,44198
 443,44;12372,088;  297,221;16958,484;72,47270
 444,03;12423,923;  383,829;17011,572;72,40967
 444,62;12228,062;  301,060;16877,679;71,95075
 445,21;12122,914;  313,833;16743,861;71,87499
 445,80;11987,364;  354,583;16620,048;71,51828
 446,39;11811,954;  387,817;16340,226;71,61386
 446,97;11599,247;  304,411;16108,364;71,46842
 447,56;11391,963;  307,088;15926,377;70,96914
 448,15;11226,940;  308,412;15814,667;70,41370
 448,74;11012,614;  332,179;15502,029;70,40567
 449,33;10906,398;  304,168;15334,790;70,53754
 449,91;10648,865;  318,687;15119,481;69,79475
 450,50;10477,193;  307,768;15001,407;69,20971
 451,09;10333,759;  327,073;14839,679;68,95169
 451,68;10226,964;  321,220;14679,951;68,98760
 452,26;10108,753;  327,981;14621,445;68,42828
 452,85;10018,052;  312,140;14589,803;67,97970
 453,44; 9966,387;  323,115;14524,425;67,90410
 454,03; 9854,992;  287,745;14532,629;67,16269
 454,61; 9786,461;  312,344;14408,138;67,21237
 455,20; 9909,742;  343,412;14606,802;67,06912
 455,79; 9868,194;  327,812;14599,771;66,84704
 456,38; 9932,231;  339,168;14697,326;66,81263
 456,97; 9942,329;  321,711;14764,556;66,61166
 457,55; 9853,330;  321,931;14841,339;65,64592
 458,14; 9854,457;  364,406;14834,503;65,58388
 458,73; 9744,174;  334,083;14726,820;65,38083
 459,31; 9728,015;  345,914;14761,347;65,08372
 459,90; 9782,441;  374,845;14809,037;65,17577
 460,49; 9757,725;  439,850;14942,507;64,24943
 461,08; 9783,420;  331,906;14982,141;64,51442
 461,66; 9817,631;  330,607;15006,878;64,64192
 462,25; 9751,595;  324,669;15146,311;63,60244
 462,84; 9835,263;  355,289;15159,238;64,03679
 463,43; 9679,479;  298,575;15173,534;63,06508
 464,01; 9733,992;  333,568;15166,802;63,37407
 464,60; 9722,457;  401,350;15137,837;63,25189
 465,19; 9493,109;  311,794;14904,298;62,91802
 465,77; 9446,437;  332,171;14883,177;62,63667
 466,36; 9334,264;  365,652;14725,196;62,45750
 466,95; 9146,307;  339,804;14453,511;62,39681
 467,53; 8914,532;  344,546;14207,375;61,81989
 468,12; 8721,267;  357,390;13891,232;61,79972
 468,71; 8524,368;  332,254;13630,874;61,60124
 469,29; 8285,879;  319,618;13356,641;61,10491
 469,88; 8101,655;  327,073;13135,149;60,70062
 470,47; 8174,620;  397,213;13265,570;60,43823
 471,06; 8035,250;  337,366;13220,317;59,75249
 471,64; 8087,209;  348,524;13284,517;59,82289
 472,23; 8065,032;  316,727;13267,731;59,82783
 472,81; 8065,127;  315,202;13414,963;59,16081
 473,40; 8124,308;  322,342;13581,645;58,84145
 473,99; 8255,954;  447,957;13753,277;58,68327
 474,57; 8240,755;  334,035;13879,513;58,37166
 475,16; 8321,231;  341,122;14023,474;58,32410
 475,75; 8378,064;  370,563;14136,680;58,16819
 476,33; 8326,741;  365,782;14221,809;57,45484
 476,92; 8390,012;  347,493;14265,335;57,78568
 477,51; 8377,948;  345,864;14364,120;57,29731
 478,09; 8348,932;  362,556;14420,616;56,80994
 478,68; 8296,203;  358,552;14328,112;56,82105
 479,27; 8247,909;  382,254;14399,919;56,11245
 479,85; 8161,358;  344,552;14334,797;55,87326
 480,44; 8220,858;  333,855;14525,536;55,57483
 481,02; 8743,352;  361,076;15641,632;54,85583
 481,61; 9868,112;  386,388;17838,460;54,33008
 482,20;10552,582;  374,998;19086,866;54,39106
 482,78;10982,322;  397,780;19995,974;54,00774
 483,37;11230,223;  383,214;20514,022;53,88263
 483,95;11411,250;  414,134;20894,302;53,69641
 484,54;11465,114;  418,005;21020,824;53,61941
 485,13;11440,710;  395,122;21004,797;53,59419
 485,71;11258,131;  365,127;20789,146;53,33428
 486,30;11166,731;  418,665;20504,103;53,51173
 486,88;10913,065;  467,431;20102,079;53,20001
 487,47;10534,245;  420,427;19352,517;53,42156
 488,05;10037,530;  420,806;18537,919;53,08088
 488,64; 9347,929;  411,103;17242,064;53,09754
 489,23; 8439,187;  407,650;15413,400;53,52307
 489,81; 7154,398;  427,031;13197,316;52,67985
 490,40; 6666,841;  364,874;12419,682;52,27762
 490,98; 6503,065;  348,639;12201,969;51,92149
 491,57; 6416,985;  380,802;12017,048;51,87397
 492,15; 6331,262;  350,868;11982,283;51,41588
 492,74; 6287,759;  367,728;11912,700;51,27800
 493,32; 6208,620;  382,871;11860,619;50,75690
 493,91; 6078,346;  347,631;11670,779;50,61062
 494,50; 6057,796;  362,303;11641,362;50,49617
 495,08; 5998,889;  350,381;11616,013;50,13929
 495,67; 5950,041;  364,094;11611,836;49,66283
 496,25; 5877,918;  315,775;11469,259;49,86910
 496,84; 5781,381;  318,711;11434,149;49,14489
 497,42; 5744,943;  308,387;11368,782;49,15336
 498,01; 5710,177;  336,554;11358,501;48,75384
 498,59; 5624,325;  299,923;11226,340;48,72962
 499,18; 5579,852;  285,015;11196,086;48,52720
 499,76; 5542,994;  331,698;11118,571;48,31146
 500,35; 5410,835;  312,529;10916,098;48,08104
 500,93; 5341,390;  315,849;10882,188;47,56180
 501,52; 5291,556;  294,155;10789,798;47,61406
 502,10; 5230,147;  320,136;10811,006;46,80270
 502,69; 5163,445;  298,514;10642,086;47,03337
 503,27; 5019,964;  279,303;10388,494;46,89456
 503,86; 4986,249;  302,209;10347,452;46,62943
 504,44; 4891,486;  276,818;10188,037;46,56004
 505,03; 4742,193;  249,356;10037,699;45,89987
 505,61; 4665,182;  285,975; 9844,697;45,81373
 506,19; 4552,825;  297,434; 9739,815;45,06693
 506,78; 4441,173;  256,880; 9486,017;45,33786
 507,36; 4352,718;  270,280; 9362,102;44,90231
 507,95; 4246,226;  273,797; 9190,431;44,55077
 508,53; 4203,774;  275,342; 9055,889;44,74017
 509,12; 4106,029;  275,107; 8923,036;44,29873
 509,70; 4031,178;  305,796; 8747,999;44,12808
 510,29; 3951,230;  312,711; 8644,959;43,66791
 510,87; 3845,282;  266,727; 8452,257;43,71806
 511,46; 3718,893;  262,262; 8258,370;43,22891
 512,04; 3702,898;  266,870; 8129,275;43,70199
 512,62; 3643,800;  276,801; 7965,173;43,79340
 513,21; 3518,090;  256,557; 7825,629;43,09026
 513,79; 3445,674;  258,149; 7658,275;43,07393
 514,38; 3360,885;  249,773; 7517,323;42,80826
 514,96; 3316,502;  291,543; 7468,307;42,14934
 515,54; 3228,280;  245,846; 7323,410;42,13927
 516,13; 3188,324;  278,767; 7239,029;41,80240
 516,71; 3104,311;  257,527; 7048,137;41,92235
 517,30; 3026,423;  243,750; 6947,063;41,51190
 517,88; 2993,593;  276,289; 6878,640;41,15661
 518,46; 2932,971;  246,131; 6730,611;41,43494
 519,05; 2873,332;  258,201; 6703,333;40,57528
 519,63; 2847,275;  265,128; 6616,340;40,65597
 520,22; 2823,794;  276,806; 6593,731;40,32006
 520,80; 2753,931;  257,805; 6508,854;39,93131
 521,38; 2784,222;  302,200; 6486,640;40,13334
 521,97; 2710,291;  259,336; 6443,422;39,63326
 522,55; 2683,322;  256,029; 6389,435;39,57496
 523,13; 2676,145;  248,793; 6387,909;39,53912
 523,72; 2617,218;  254,285; 6378,496;38,58347
 524,30; 2688,706;  280,479; 6516,379;38,61876
 524,89; 2619,658;  235,874; 6523,006;37,91529
 525,47; 2679,333;  256,707; 6618,150;38,08296
 526,05; 2653,469;  233,552; 6671,354;37,58918
 526,64; 2703,279;  276,701; 6804,078;37,17539
 527,22; 2753,257;  278,707; 6914,608;37,29033
 527,80; 2794,095;  307,010; 7003,360;37,14091
 528,39; 2743,642;  258,620; 7098,852;36,32950
 528,97; 2800,246;  240,238; 7247,004;36,53623
 529,55; 2850,868;  256,639; 7432,849;36,15041
 530,14; 2935,452;  263,770; 7651,572;36,16343
 530,72; 2940,307;  250,315; 7691,269;36,15117
 531,30; 2934,666;  234,461; 7850,156;35,45579
 531,89; 2998,481;  250,307; 7970,985;35,59498
 532,47; 3054,323;  277,150; 8056,487;35,69935
 533,05; 3021,342;  281,318; 8120,403;34,95336
 533,63; 3067,889;  292,071; 8132,062;35,40588
 534,22; 3009,089;  256,763; 8165,049;34,80306
 534,80; 3055,922;  275,600; 8286,546;34,70653
 535,38; 3164,156;  395,152; 8387,112;34,64737
 535,97; 3074,184;  261,073; 8292,999;35,02411
 536,55; 3078,458;  319,060; 8392,947;34,17683
 537,13; 3115,790;  312,462; 8402,746;34,65055
 537,71; 3127,807;  357,540; 8388,624;34,49431
 538,30; 3152,023;  366,760; 8503,060;34,23255
 538,88; 3220,694;  426,437; 8579,232;34,27361
 539,46; 3299,337;  452,061; 8757,867;34,28055
 540,05; 3359,729;  460,748; 8896,209;34,36660
 540,63; 3425,913;  522,671; 9121,692;33,76248
 541,21; 3535,921;  538,203; 9215,345;34,54729
 541,79; 3548,736;  563,819; 9361,944;33,92675
 542,38; 3636,747;  606,057; 9493,009;34,10269
 542,96; 3686,340;  601,118; 9675,574;33,99898
 543,54; 3747,338;  622,974; 9843,577;33,88460
 544,12; 3776,518;  587,971; 9988,780;33,91780
 544,70; 3770,447;  590,040;10076,676;33,52512
 545,29; 3801,439;  590,057;10209,475;33,38437
 545,87; 3809,044;  581,895;10317,020;33,14953
 546,45; 3769,532;  537,442;10274,433;33,19393
 547,03; 3750,879;  510,668;10355,245;32,91366
 547,62; 3737,673;  468,894;10495,003;32,60267
 548,20; 3762,142;  476,735;10633,114;32,34822
 548,78; 3773,345;  424,869;10763,419;32,38826
 549,36; 3764,763;  405,409;10946,028;31,87056
 549,94; 3795,177;  362,815;11069,248;32,05888
 550,53; 3790,276;  382,105;11307,205;31,19579
 551,11; 3805,955;  344,403;11423,540;31,24388
 551,69; 3889,103;  351,487;11763,498;30,99906
 552,27; 3910,774;  309,417;12006,016;30,78978
 552,85; 4014,125;  328,865;12368,352;30,60977
 553,44; 4058,488;  319,102;12606,340;30,43308
 554,02; 4133,745;  328,714;12948,701;30,15083
 554,60; 4153,692;  273,171;13286,616;29,81932
 555,18; 4263,887;  306,102;13666,087;29,62417
 555,76; 4316,991;  291,330;13938,209;29,49877
 556,34; 4444,251;  298,318;14286,410;29,63902
 556,93; 4503,732;  286,639;14742,172;29,17286
 557,51; 4561,881;  263,779;15086,384;28,99694
 558,09; 4662,994;  294,101;15381,647;28,95695
 558,67; 4747,303;  273,234;15790,824;28,83224
 559,25; 4843,508;  290,238;15994,843;28,99322
 559,83; 4893,850;  276,844;16349,542;28,72577
 560,41; 4945,854;  258,320;16741,412;28,43844
 561,00; 5043,411;  282,311;17058,456;28,38018
 561,58; 5093,855;  264,782;17295,942;28,35434
 562,16; 5135,924;  250,480;17563,758;28,21790
 562,74; 5243,406;  235,407;18019,534;28,15994
 563,32; 5338,251;  241,614;18463,047;27,97056
 563,90; 5441,703;  269,388;18751,178;27,98601
 564,48; 5552,689;  275,707;19141,490;27,97118
 565,06; 5708,197;  257,697;19742,025;27,97377
 565,65; 5866,991;  264,681;20392,804;27,83325
 566,23; 6137,918;  318,464;21174,520;27,90295
 566,81; 6295,370;  255,853;21803,886;28,02816
 567,39; 6518,278;  262,996;22719,322;27,85532
 567,97; 6697,599;  284,005;23375,137;27,77514
 568,55; 6989,898;  310,230;24221,748;27,93494
 569,13; 7106,395;  256,618;24876,340;27,82232
 569,71; 7366,094;  251,250;25867,724;27,77449
 570,29; 7696,271;  312,409;26786,630;27,89076
 570,87; 7873,066;  295,251;27584,995;27,76799
 571,45; 8007,950;  284,081;28290,910;27,57852
 572,03; 8112,737;  242,840;28672,731;27,68177
 572,61; 8299,821;  236,384;29338,205;27,70767
 573,20; 8541,234;  268,240;30011,990;27,81423
 573,78; 8662,035;  251,383;30679,324;27,64121
 574,36; 8834,393;  270,001;31202,664;27,68721
 574,94; 8953,965;  346,992;31659,909;27,48697
 575,52; 8919,116;  248,364;31794,562;27,48589
 576,10; 9109,785;  316,907;32346,027;27,45276
 576,68; 9185,922;  287,763;32898,129;27,28629
 577,26; 9423,509;  314,666;33577,054;27,38481
 577,84; 9547,207;  319,693;34085,120;27,32829
 578,42; 9649,791;  374,450;34419,056;27,24467
 579,00; 9583,897;  302,845;34499,448;27,14027
 579,58; 9643,503;  351,299;34762,836;27,00316
 580,16; 9576,126;  298,371;34720,555;26,95284
 580,74; 9594,340;  312,062;34999,443;26,75981
 581,32; 9592,377;  302,144;34998,792;26,77559
 581,90; 9507,204;  337,833;34962,551;26,48215
 582,48; 9513,911;  310,063;35030,909;26,50813
 583,06; 9486,610;  304,529;35274,242;26,25724
 583,64; 9444,088;  309,915;35241,277;26,14892
 584,22; 9330,805;  326,438;35129,513;25,87233
 584,80; 9216,190;  323,757;34846,492;25,75819
 585,38; 9037,421;  337,549;34446,987;25,50576
 585,96; 8919,463;  303,920;34460,178;25,22391
 586,54; 8897,085;  333,517;34444,318;25,10515
 587,12; 8853,015;  293,676;34628,958;24,92870
 587,70; 8848,139;  328,842;34745,450;24,75345
 588,28; 8811,492;  310,138;34788,386;24,65715
 588,86; 8779,058;  301,750;34790,816;24,57970
 589,44; 8720,716;  292,660;34892,229;24,35885
 590,02; 8714,582;  284,356;35066,005;24,23757
 590,59; 8689,009;  274,056;35229,930;24,07307
 591,17; 8730,529;  289,032;35454,411;24,00514
 591,75; 8682,063;  268,501;35548,657;23,84786
 592,33; 8697,253;  293,813;35684,014;23,74510
 592,91; 8735,426;  244,266;35979,050;23,76161
 593,49; 8798,186;  260,182;36252,507;23,72173
 594,07; 8763,340;  268,567;36510,042;23,43937
 594,65; 8784,499;  278,901;36473,655;23,49953
 595,23; 8837,322;  278,203;36899,907;23,37171
 595,81; 8844,563;  260,584;36986,144;23,37331
 596,39; 8856,131;  263,045;37078,246;23,34114
 596,97; 8822,395;  262,881;37280,341;23,12291
 597,55; 8789,741;  268,513;37309,661;23,00476
 598,12; 8688,197;  228,871;37275,975;22,83397
 598,70; 8745,469;  252,571;37385,292;22,87173
 599,28; 8793,745;  255,802;37516,125;22,91430
 599,86; 8740,623;  256,341;37574,361;22,73508
 600,44; 8723,080;  214,799;37647,632;22,72946
 601,02; 8769,766;  277,707;37762,855;22,65446
 601,60; 8716,678;  247,193;37705,661;22,61033
 602,18; 8697,167;  215,565;37747,488;22,59837
 602,75; 8646,580;  225,200;37756,486;22,43829
 603,33; 8648,545;  231,263;37790,142;22,41090
 603,91; 8540,436;  232,097;37721,005;22,16213
 604,49; 8608,759;  246,647;37758,719;22,29179
 605,07; 8583,848;  254,271;37840,623;22,16118
 605,65; 8550,863;  253,105;37978,541;21,99513
 606,23; 8576,519;  300,827;38103,897;21,89159
 606,80; 8611,088;  314,970;38058,931;21,97999
 607,38; 8575,685;  330,945;38170,951;21,78842
 607,96; 8608,550;  357,124;38194,081;21,80785
 608,54; 8632,217;  407,567;38186,986;21,77019
 609,12; 8660,442;  401,585;38354,841;21,76060
 609,70; 8615,193;  423,957;38368,755;21,58724
 610,27; 8628,121;  408,433;38434,389;21,61599
 610,85; 8679,733;  439,419;38529,208;21,63392
 611,43; 8612,376;  432,802;38461,630;21,50888
 612,01; 8486,235;  397,349;38276,607;21,35439
 612,59; 8489,409;  402,880;38270,554;21,35470
 613,16; 8420,759;  391,515;38193,761;21,24012
 613,74; 8387,899;  353,955;38003,668;21,33866
 614,32; 8332,416;  348,874;38082,592;21,15758
 614,90; 8248,353;  334,345;37936,711;21,04657
 615,48; 8141,294;  308,436;37630,400;20,98726
 616,05; 8110,192;  276,747;37543,036;21,02019
 616,63; 8010,704;  289,212;37447,978;20,77973
 617,21; 7969,798;  294,741;37336,804;20,71984
 617,79; 7901,193;  278,429;37268,587;20,60755
 618,36; 7874,433;  279,040;37275,913;20,52982
 618,94; 7727,477;  235,435;36803,429;20,48798
 619,52; 7671,026;  252,288;36682,811;20,36407
 620,10; 7628,672;  227,123;36564,307;20,36908
 620,67; 7600,058;  248,366;36475,273;20,29346
 621,25; 7555,970;  269,270;36341,460;20,20033
 621,83; 7513,031;  250,512;36286,399;20,15357
 622,41; 7501,955;  303,051;36333,853;19,97986
 622,98; 7389,243;  273,213;36021,051;19,90618
 623,56; 7399,353;  271,138;35995,510;19,95337
 624,14; 7329,288;  249,959;35918,701;19,84743
 624,72; 7255,201;  252,512;35827,288;19,68442
 625,29; 7214,861;  250,445;35931,420;19,51857
 625,87; 7238,839;  285,352;35809,835;19,57379
 626,45; 7128,741;  238,063;35661,101;19,45253
 627,02; 7063,806;  247,274;35708,369;19,22257
 627,60; 7014,388;  226,876;35519,474;19,23211
 628,18; 7019,518;  221,277;35613,072;19,20852
 628,76; 7000,304;  228,981;35574,709;19,15740
 629,33; 6991,343;  248,592;35594,440;19,07650
 629,91; 6960,749;  229,585;35549,845;19,05752
 630,49; 6947,731;  267,132;35731,416;18,83754
 631,06; 6934,225;  232,057;35821,413;18,83195
 631,64; 6900,032;  253,369;35757,143;18,72100
 632,22; 6865,623;  205,144;35640,993;18,79588
 632,79; 6906,131;  251,682;35986,595;18,62170
 633,37; 6854,557;  213,733;35965,811;18,57465
 633,95; 6810,095;  234,755;36011,080;18,37903
 634,52; 6804,355;  223,128;36189,746;18,29815
 635,10; 6777,627;  237,355;36134,077;18,21969
 635,68; 6802,254;  236,451;36399,578;18,15607
 636,25; 6726,464;  213,305;36258,939;18,06920
 636,83; 6736,534;  211,289;36618,786;17,92281
 637,41; 6735,257;  219,376;36545,939;17,93696
 637,98; 6755,227;  254,762;36757,760;17,80803
 638,56; 6754,683;  231,461;36902,018;17,78872
 639,13; 6712,029;  214,521;36975,552;17,67499
 639,71; 6751,071;  291,980;37153,186;17,52273
 640,29; 6644,620;  182,364;36922,296;17,58919
 640,86; 6625,171;  209,133;37025,954;17,42692
 641,44; 6649,259;  208,210;37082,535;17,46757
 642,02; 6631,656;  245,594;37072,039;17,34097
 642,59; 6604,899;  208,824;37344,697;17,22344
 643,17; 6568,219;  215,131;37240,431;17,15877
 643,74; 6559,461;  208,439;37332,781;17,10743
 644,32; 6575,012;  237,208;37176,285;17,15745
 644,89; 6491,562;  242,823;37273,866;16,87433
 645,47; 6504,036;  243,053;37273,601;16,90762
 646,05; 6469,817;  245,360;37166,720;16,85869
 646,62; 6439,906;  223,514;37172,070;16,82445
 647,20; 6411,226;  234,282;37345,959;16,64420
 647,77; 6338,853;  199,820;37107,617;16,63343
 648,35; 6305,096;  201,128;37019,429;16,57863
 648,92; 6289,185;  222,050;37109,163;16,44784
 649,50; 6228,812;  187,050;37018,975;16,40360
 650,08; 6182,055;  196,665;37002,864;16,26191
 650,65; 6180,606;  201,203;37153,906;16,18123
 651,23; 6224,541;  183,587;37858,641;16,03436
 651,80; 6381,476;  196,587;38886,914;15,98562
 652,38; 6483,180;  211,586;39315,956;16,03809
 652,95; 6470,423;  180,817;39767,691;15,88811
 653,53; 6565,820;  209,432;39916,195;16,00833
 654,10; 6625,524;  251,970;40112,391;15,98968
 654,68; 6508,228;  188,200;40043,126;15,85758
 655,25; 6514,856;  184,661;40190,399;15,82322
 655,83; 6506,176;  181,584;40149,673;15,82410
 656,40; 6477,572;  225,199;40164,484;15,65469
 656,98; 6369,353;  198,583;40117,296;15,45834
 657,55; 6387,904;  196,198;39966,800;15,56855
 658,13; 6269,531;  209,890;39564,150;15,39768
 658,70; 6175,697;  215,890;39353,577;15,22780
 659,28; 6013,325;  208,582;38518,389;15,15211
 659,85; 5827,029;  223,889;37644,816;14,97328
 660,43; 5778,656;  226,042;37703,627;14,81583
 661,00; 5757,976;  200,273;37690,824;14,82428
 661,58; 5773,142;  183,657;38098,943;14,74204
 662,15; 5750,923;  189,426;38278,293;14,60137
 662,73; 5861,089;  266,194;38514,951;14,62765
 663,30; 5817,024;  201,348;38722,532;14,57815
 663,88; 5829,421;  199,194;38917,882;14,54137
 664,45; 5769,817;  191,962;39128,386;14,32555
 665,03; 5825,676;  180,116;39535,275;14,34516
 665,60; 5964,765;  294,654;39975,317;14,28935
 666,17; 5844,238;  196,577;40085,206;14,15858
 666,75; 5845,404;  193,192;40366,325;14,06963
 667,32; 5941,724;  222,960;40701,444;14,12791
 667,90; 5910,736;  199,729;40865,410;14,04380
 668,47; 5922,440;  213,037;41122,145;13,95631
 669,05; 5955,683;  195,498;41525,418;13,93708
 669,62; 5912,310;  161,651;41570,152;13,88763
 670,19; 5923,784;  170,805;41644,041;13,87155
 670,77; 5913,950;  186,727;41806,699;13,76076
 671,34; 5885,500;  183,804;41733,895;13,72246
 671,92; 5898,666;  174,573;42058,707;13,66650
 672,49; 5917,140;  217,572;42205,442;13,57432
 673,06; 5831,613;  152,187;42138,792;13,52676
 673,64; 5812,625;  171,725;42104,065;13,45239
 674,21; 5794,945;  159,032;42078,646;13,44457
 674,79; 5815,957;  198,801;42393,304;13,31253
 675,36; 5847,661;  200,724;42591,808;13,32105
 675,93; 5728,212;  178,493;42368,773;13,15402
 676,51; 5760,762;  197,800;42560,431;13,13177
 677,08; 5757,236;  203,492;42653,935;13,08289
 677,65; 5745,248;  194,645;42768,747;13,03751
 678,23; 5744,337;  199,491;42960,481;12,96707
 678,80; 5728,580;  182,798;43157,062;12,90489
 679,38; 5726,746;  179,567;43234,797;12,88387
 679,95; 5752,988;  192,490;43585,839;12,81417
 680,52; 5788,154;  184,874;43712,189;12,87302
 681,10; 5813,397;  206,181;44094,693;12,77604
 681,67; 5813,947;  205,796;44358,197;12,70180
 682,24; 5809,960;  165,642;44439,086;12,74877
 682,82; 5852,279;  190,719;44980,975;12,64016
 683,39; 5962,061;  248,949;45322,786;12,67501
 683,96; 5959,688;  207,102;45596,752;12,67378
 684,54; 5924,700;  170,102;45884,717;12,58809
 685,11; 6001,250;  227,179;46233,990;12,55047
 685,68; 6007,493;  184,870;46585,648;12,54855
 686,25; 5917,736;  176,409;46650,383;12,35386
 686,83; 6024,287;  182,254;46974,502;12,48504
 687,40; 6054,145;  168,946;47295,314;12,48812
 687,97; 6123,849;  234,253;47525,126;12,45398
 688,55; 6081,400;  171,638;47628,091;12,45302
 689,12; 6059,027;  158,560;47867,057;12,36775
 689,69; 6046,193;  169,098;47921,253;12,30750
 690,26; 6073,897;  191,406;48096,295;12,27952
 690,84; 6093,601;  178,021;48252,646;12,30500
 691,41; 6103,613;  202,866;48323,073;12,26251
 691,98; 6147,856;  197,097;48542,730;12,30878
 692,56; 6143,868;  183,942;48735,388;12,27549
 693,13; 6179,188;  227,019;48732,354;12,27116
 693,70; 6195,585;  208,480;48950,165;12,28334
 694,27; 6107,674;  171,480;48987,362;12,16037
 694,84; 6133,532;  168,787;49159,404;12,17528
 695,42; 6229,313;  233,479;49321,370;12,21449
 695,99; 6202,787;  192,555;49499,028;12,18954
 696,56; 6173,722;  193,170;49347,147;12,16697
 697,13; 6218,349;  209,401;49731,497;12,13387
 697,71; 6200,592;  185,170;49833,078;12,11616
 698,28; 6247,758;  178,554;50208,428;12,13116
 698,85; 6194,616;  141,400;50168,855;12,09979
 699,42; 6261,936;  149,399;50374,128;12,17037
 699,99; 6291,640;  185,014;50482,632;12,14098
 700,57; 6297,498;  194,937;50544,444;12,12040
 701,14; 6282,279;  169,398;50638,332;12,11217
 701,71; 6302,292;  201,167;50861,529;12,04319
 702,28; 6327,996;  180,089;50900,033;12,12128
 702,85; 6326,085;  178,243;50990,537;12,09912
 703,43; 6399,174;  200,396;51200,810;12,15437
 704,00; 6404,724;  219,165;51443,006;12,07555
 704,57; 6363,505;  175,857;51548,356;12,04467
 705,14; 6395,287;  203,780;51643,245;12,03649
 705,71; 6415,914;  205,702;51681,441;12,06435
 706,28; 6382,003;  183,240;51600,484;12,05581
 706,86; 6467,092;  202,471;51881,295;12,12222
 707,43; 6469,412;  218,855;51784,184;12,12163
 708,00; 6484,731;  213,316;51829,688;12,15005
 708,57; 6408,974;  176,008;51758,115;12,08358
 709,14; 6443,525;  192,700;51864,465;12,09718
 709,71; 6459,998;  180,238;51958,661;12,12814
 710,28; 6526,857;  180,930;52143,011;12,21261
 710,86; 6471,022;  193,083;52296,977;12,04889
 711,43; 6553,496;  216,775;52232,712;12,18227
 712,00; 6561,277;  195,313;52462,831;12,17958
 712,57; 6578,212;  211,851;52613,181;12,14924
 713,14; 6608,224;  189,082;52694,839;12,22560
 713,71; 6636,236;  201,697;52622,189;12,27486
 714,28; 6610,171;  194,465;52587,155;12,24542
 714,85; 6618,107;  183,773;52370,428;12,32946
 715,42; 6638,734;  187,465;52488,239;12,33494
 716,00; 6778,515;  285,080;52650,513;12,40023
 716,57; 6749,220;  200,772;52897,863;12,42658
 717,14; 6681,693;  192,848;52773,751;12,34069
 717,71; 6745,705;  173,540;52697,409;12,51272
 718,28; 6813,794;  230,078;52941,529;12,49011
 718,85; 6778,114;  182,770;52799,648;12,53465
 719,42; 6833,357;  210,231;53093,690;12,52400
 719,99; 6846,676;  184,077;52844,041;12,65212
 720,56; 6892,611;  227,769;53152,468;12,59307
 721,13; 6891,085;  175,845;53200,664;12,66433
 721,70; 6881,866;  185,383;53172,091;12,63804
 722,27; 6943,417;  205,844;53200,287;12,71373
 722,84; 6975,967;  276,613;53456,945;12,59743
 723,41; 7009,056;  180,844;53359,757;12,84008
 723,98; 7030,376;  187,920;53547,107;12,82339
 724,55; 7087,080;  227,766;53651,611;12,83942
 725,12; 7039,477;  147,535;53561,499;12,90288
 725,69; 7136,489;  191,227;53752,773;12,96688
 726,27; 7139,424;  200,995;53853,507;12,93216
 726,84; 7236,821;  207,072;54174,550;13,02590
 727,41; 7294,987;  217,148;54087,361;13,13869
 727,98; 7319,691;  214,994;54389,173;13,11454
 728,55; 7407,934;  245,840;54299,215;13,25004
 729,12; 7412,484;  182,532;54383,412;13,33918
 729,69; 7427,804;  215,993;54596,223;13,26182
 730,26; 7500,431;  214,454;54893,881;13,32490
 730,82; 7474,366;  202,377;54664,001;13,35250
 731,39; 7546,455;  194,838;54859,889;13,44848
 731,96; 7612,083;  178,684;55130,547;13,52711
 732,53; 7685,095;  201,375;55288,743;13,58518
 733,10; 7756,184;  208,529;55336,401;13,69118
 733,67; 7790,427;  199,605;55680,674;13,68182
 734,24; 7760,131;  182,990;55314,486;13,74376
 734,81; 7836,604;  221,451;55457,451;13,78658
 735,38; 7806,001;  195,681;55160,648;13,84576
 735,95; 7854,705;  197,296;54940,152;13,98796
 736,52; 7895,487;  211,296;55244,348;13,96287
 737,09; 7877,576;  214,218;54918,775;14,00863
 737,66; 8013,280;  253,295;55065,510;14,15740
 738,23; 8015,830;  182,064;55071,091;14,27201
 738,80; 8189,689;  282,602;55413,749;14,34232
 739,37; 8179,239;  223,524;55577,329;14,37248
 739,94; 8199,713;  219,139;55636,987;14,40073
 740,51; 8358,032;  338,754;55690,645;14,48781
 741,07; 8278,506;  198,446;55597,764;14,58512
 741,64; 8335,133;  222,446;55863,268;14,58046
 742,21; 8385,530;  203,292;55899,157;14,69093
 742,78; 8382,004;  183,368;55685,815;14,77166
 743,35; 8479,785;  210,598;55994,011;14,82374
 743,92; 8552,797;  243,598;55992,746;14,90462
 744,49; 8618,655;  242,675;55892,942;15,05111
 745,06; 8576,282;  196,059;55982,831;15,02188
 745,63; 8644,602;  179,828;55944,873;15,17936
 746,19; 8688,383;  198,750;55946,608;15,22863
 746,76; 8753,319;  210,673;56009,573;15,30970
 747,33; 8776,177;  206,749;55937,000;15,37662
 747,90; 8870,343;  219,903;56211,274;15,44959
 748,47; 8884,201;  203,364;56132,470;15,52114
 749,04; 8926,290;  215,825;56220,743;15,55304
 749,61; 9008,763;  244,825;56133,016;15,68120
 750,17; 9000,929;  228,747;56134,674;15,69097
 750,74; 9032,326;  207,516;56069,563;15,79750
 751,31; 9045,415;  195,747;56056,836;15,84228
 751,88; 9010,581;  185,439;55958,725;15,82324
 752,45; 9116,439;  196,438;56058,613;15,96787
 753,02; 9180,989;  229,053;55964,963;16,06134
 753,58; 9192,771;  199,053;55822,313;16,16899
 754,15; 9220,244;  203,129;55941,202;16,17766
 754,72; 9270,102;  200,052;55777,860;16,31955
 755,29; 9245,576;  183,205;55631,364;16,34386
 755,86; 9324,972;  220,436;55711,868;16,40710
 756,42; 9427,061;  230,897;55701,141;16,57855
 756,99; 9390,535;  182,666;55721,106;16,57927
 757,56; 9454,316;  190,511;55504,764;16,74759
 758,13; 9492,636;  165,434;55387,884;16,89024
 758,70; 9603,417;  198,664;55463,849;17,01750
 759,26; 9651,891;  197,202;55611,968;17,06168
 759,83; 9744,518;  209,971;55725,934;17,17442
 760,40; 9731,299;  191,894;55604,130;17,21534
 760,97; 9742,773;  185,432;55511,250;17,27465
 761,53; 9744,862;  181,509;55224,369;17,37438
 762,10; 9795,720;  172,277;55091,411;17,52293
 762,67; 9857,348;  212,431;55061,685;17,58441
 763,24; 9787,667;  171,815;54714,881;17,62983
 763,80; 9910,218;  198,276;54863,231;17,76630
 764,37; 9953,153;  192,045;54886,350;17,84666
 764,94; 9898,011;  175,045;54448,085;17,91491
 765,50; 9930,792;  183,890;54363,897;17,98985
 766,07;10061,497;  215,274;54565,170;18,11636
 766,64;10021,663;  182,351;54260,905;18,19448
 767,21;10083,982;  175,581;54071,639;18,38428
 767,77;10132,994;  195,042;54050,067;18,45316
 768,34;10135,314;  197,734;54016,263;18,46498
 768,91;10205,018;  215,119;53876,228;18,61665
 769,47;10277,877;  200,349;53913,732;18,76167
 770,04;10303,581;  200,502;53773,775;18,85843
 770,61;10272,670;  184,040;53592,663;18,88951
 771,18;10318,528;  183,040;53376,936;19,05386
 771,74;10385,463;  197,270;53561,671;19,09174
 772,31;10380,167;  192,962;53366,021;19,15858
 772,88;10332,103;  165,654;53131,910;19,19420
 773,44;10340,884;  177,423;53045,491;19,22420
 774,01;10447,665;  204,884;53152,764;19,34503
 774,58;10470,292;  181,576;52650,345;19,60922
 775,14;10503,151;  171,268;52948,387;19,57644
 775,71;10531,009;  169,806;52857,353;19,66537
 776,27;10585,713;  251,959;52715,395;19,69706
 776,84;10722,802;  300,498;52833,438;19,83956
 777,41;10685,276;  208,112;52554,249;20,01516
 777,97;10625,903;  180,497;52285,215;20,04695
 778,54;10728,684;  209,496;52279,488;20,20202
 779,11;10776,081;  233,880;52323,607;20,23854
 779,67;10823,555;  201,649;52191,727;20,43064
 780,24;10832,567;  208,803;52040,077;20,49682
 780,80;10891,117;  226,725;52063,427;20,57305
 781,37;10927,206;  218,263;51949,700;20,70103
 781,94;10981,910;  211,263;51784,743;20,88408
 782,50;11011,076;  206,878;51658,554;20,99873
 783,07;11086,857;  232,724;51743,289;21,07166
 783,63;11099,177;  216,646;51456,332;21,23848
 784,20;11112,343;  237,031;51300,528;21,29763
 784,77;11131,586;  215,799;51225,186;21,39956
 785,33;11154,367;  189,184;50983,074;21,58760
 785,90;11232,918;  208,568;51032,809;21,69113
 786,46;11302,930;  232,952;50900,159;21,84841
 787,03;11238,788;  198,490;50652,278;21,88200
 787,59;11292,031;  205,490;50513,936;22,03714
 788,16;11300,273;  223,335;50510,517;22,02736
 788,73;11322,132;  227,258;50512,483;22,06388
 789,29;11310,297;  202,104;50073,679;22,27360
 789,86;11400,233;  240,411;49922,875;22,46229
 790,42;11366,706;  217,103;49712,533;22,52653
 790,99;11370,949;  223,564;49431,806;22,65349
 791,55;11403,346;  210,025;49395,233;22,75749
 792,12;11480,588;  242,486;49436,045;22,84466
 792,68;11435,985;  222,178;49136,549;22,92538
 793,25;11423,997;  237,870;48929,591;22,97336
 793,81;11503,932;  315,178;48567,865;23,18784
 794,38;11391,406;  200,716;48364,061;23,23487
 794,94;11392,572;  215,484;48267,103;23,26058
 795,51;11393,430;  220,407;47920,300;23,42358
 796,07;11441,749;  219,945;47741,650;23,61406
 796,64;11513,685;  236,868;47878,769;23,66996
 797,20;11510,620;  236,867;47325,427;23,94160
 797,77;11449,478;  203,867;47092,700;23,98356
 798,33;11513,567;  227,020;46897,743;24,18335
 798,90;11519,040;  246,635;46832,554;24,19702
 799,46;11481,591;  214,327;46419,674;24,38519
 800,03;11497,449;  225,788;46231,408;24,50062
 800,59;11464,538;  238,019;46110,143;24,47351
 801,15;11515,858;  256,249;45870,109;24,68462
 801,72;11469,639;  224,249;45530,997;24,82056
 802,28;11492,805;  245,941;45259,578;24,98546
 802,85;11448,586;  221,325;45098,005;25,01803
 803,41;11487,675;  213,863;44987,740;25,17944
 803,98;11481,610;  212,478;44489,628;25,45135
 804,54;11447,545;  226,401;44177,363;25,53106
 805,11;11480,788;  229,939;44040,252;25,68082
 805,67;11492,646;  256,400;43948,294;25,71700
 806,23;11449,120;  228,938;43562,798;25,89241
 806,80;11467,286;  250,937;43519,687;25,92252
 807,36;11532,375;  250,783;43446,575;26,11734
 807,93;11533,387;  271,321;43091,618;26,30076
 808,49;11481,706;  215,629;42657,968;26,54443
 809,05;11462,872;  209,320;42565,241;26,56902
 809,62;11507,500;  243,782;42518,053;26,64438
 810,18;11569,050;  238,320;42428,711;26,85619
 810,74;11488,370;  207,627;42170,753;26,88251
 811,31;11526,690;  208,165;41899,949;27,14809
 811,87;11552,932;  242,395;41779,299;27,23009
 812,44;11585,252;  268,549;41752,265;27,27987
 813,00;11517,726;  188,702;41412,769;27,48158
 813,56;11642,276;  238,163;41490,811;27,64456
 814,13;11642,134;  237,471;41363,315;27,73114
 814,69;11642,146;  232,624;41238,973;27,82379
 815,25;11539,928;  201,008;40772,477;27,94801
 815,82;11586,247;  251,854;40720,673;28,00772
 816,38;11635,259;  279,854;40600,100;28,16304
 816,94;11537,964;  219,622;40284,912;28,24974
 817,51;11524,514;  205,084;40110,185;28,36587
 818,07;11499,295;  218,160;39827,074;28,48130
 818,63;11505,000;  227,237;39544,732;28,68383
 819,20;11521,396;  226,775;39453,005;28,79354
 819,76;11402,408;  215,543;39198,432;28,69686
 820,32;11513,036;  262,312;38981,551;29,05719
 820,89;11521,586;  244,773;38803,901;29,24551
 821,45;11400,983;  223,081;38485,944;29,21345
 822,01;11424,687;  252,080;38235,371;29,41453
 822,57;11465,084;  253,080;38185,336;29,55797
 823,14;11394,865;  211,618;37953,917;29,63054
 823,70;11341,262;  219,233;37624,267;29,73404
 824,26;11376,812;  212,771;37509,541;29,93300
 824,82;11439,132;  257,001;37435,352;30,07699
 825,39;11381,529;  223,539;37111,241;30,24854
 825,95;11448,079;  237,693;37266,206;30,27501
 826,51;11431,860;  241,308;36743,710;30,65703
 827,08;11463,334;  287,077;36809,907;30,60074
 827,64;11510,346;  243,384;36649,180;30,94826
 828,20;11475,666;  217,845;36443,299;31,07710
 828,76;11507,678;  259,306;36381,188;31,14005
 829,32;11510,844;  260,075;36132,615;31,36318
 829,89;11450,086;  219,459;36017,657;31,37205
 830,45;11467,791;  239,305;36062,315;31,34434
 831,01;11571,034;  232,766;35843,896;31,83911
 831,57;11549,430;  229,304;35652,708;31,95663
 832,14;11601,442;  220,996;35711,366;32,06629
 832,70;11564,454;  201,765;35426,331;32,25785
 833,26;11585,620;  190,072;35366,373;32,39553
 833,82;11632,709;  224,226;35296,031;32,52893
 834,38;11702,798;  220,610;35233,689;32,79400
 834,95;11616,118;  216,379;35182,193;32,60253
 835,51;11627,976;  175,840;35039,466;32,84838
 836,07;11765,373;  231,532;35112,201;33,06657
 836,63;11847,077;  246,223;35036,859;33,34476
 837,19;11796,935;  239,915;34829,286;33,41206
 837,75;11673,024;  186,223;34607,559;33,37117
 838,32;11741,651;  249,607;34752,602;33,30738
 838,88;11793,202;  251,760;34674,259;33,52877
 839,44;11814,676;  243,606;34681,456;33,59986
 840,00;11865,380;  237,144;34592,652;33,84679
 840,56;11824,546;  220,451;34297,540;34,05248
 841,12;11836,096;  205,989;34213,660;34,19848
 841,68;11813,724;  199,528;34080,395;34,27951
 842,25;11876,197;  221,219;34154,052;34,34720
 842,81;11895,671;  217,604;33854,479;34,71805
 843,37;11905,990;  193,680;33824,753;34,82586
 843,93;11941,079;  216,680;33801,257;34,91007
 844,49;11989,476;  234,064;33788,914;35,03342
 845,05;11954,411;  184,756;33613,957;35,20771
 845,61;12091,269;  244,986;33598,845;35,51698
 846,17;12011,820;  218,832;33423,196;35,51638
 846,73;12031,447;  223,062;33429,700;35,56032
 847,29;12027,690;  209,293;33178,127;35,84718
 847,86;12025,010;  212,138;33157,861;35,85555
 848,42;11978,868;  210,984;33008,442;35,88048
 848,98;12008,572;  226,215;32922,562;36,03570
 849,54;12064,815;  208,753;32905,066;36,26116
 850,10;12019,289;  239,521;32723,185;36,26367
 850,66;11961,839;  197,906;32620,150;36,28353
 851,22;12018,082;  190,674;32551,501;36,54853
 851,78;12106,786;  251,597;32665,620;36,57426
 852,34;12049,414;  232,058;32323,124;36,82444
 852,90;12121,733;  219,673;32188,320;37,23042
 853,46;11991,438;  207,211;31997,670;37,06844
 854,02;12048,450;  221,057;32021,020;37,19310
 854,58;12050,769;  211,903;31732,217;37,55948
 855,14;12062,935;  210,441;31675,105;37,66922
 855,70;11984,640;  181,133;31478,609;37,71393
 856,26;12080,421;  220,902;31426,959;38,00390
 856,82;12068,048;  217,440;31362,002;38,05033
 857,38;12123,983;  257,285;31168,583;38,38952
 857,94;12069,688;  214,208;31128,625;38,34936
 858,50;12032,238;  245,131;30932,668;38,41008
 859,06;11997,173;  199,284;30843,633;38,49940
 859,62;11984,032;  240,976;30800,368;38,42699
 860,18;11925,044;  219,976;30540,795;38,60406
 860,74;11875,825;  195,821;30480,376;38,56753
 861,30;11867,221;  199,590;30208,034;38,88116
 861,86;11990,080;  285,897;30398,922;38,86751
 862,42;11896,476;  214,128;30109,349;39,07764
 862,98;11936,488;  259,435;30098,776;39,13308
 863,54;11851,962;  215,973;29904,203;39,19395
 864,10;12008,128;  217,665;29954,015;39,65000
 864,66;11847,063;  200,357;29743,904;39,42217
 865,22;11943,383;  217,510;29580,946;39,93358
 865,78;11940,010;  221,048;29447,373;40,09728
 866,34;11992,330;  210,740;29419,031;40,33646
 866,90;11955,188;  227,201;29261,150;40,39405
 867,45;11882,969;  229,432;29022,039;40,47406
 868,01;11835,750;  226,739;28907,543;40,47659
 868,57;11824,070;  217,200;28737,278;40,69719
 869,13;11792,390;  196,892;28576,012;40,85926
 869,69;11765,786;  210,815;28538,901;40,78981
 870,25;11769,029;  193,968;28389,482;41,05285
 870,81;11809,734;  210,814;28317,832;41,26699
 871,37;11805,592;  234,198;28271,259;41,27178
 871,93;11824,065;  250,505;28096,686;41,56247
 872,49;11785,693;  271,197;27928,728;41,63241
 873,04;11733,628;  201,966;27787,309;41,80358
 873,60;11748,101;  196,812;27667,890;42,04891
 874,16;11799,113;  226,888;27518,163;42,40265
 874,72;11781,037;  220,965;27458,856;42,44114
 875,28;11821,806;  213,581;27358,933;42,76321
 875,84;11819,190;  231,658;27373,779;42,69207
 876,40;11864,190;  210,196;27305,779;43,01068
 876,95;11864,960;  226,812;27243,010;43,07841
 877,51;11865,806;  252,196;27220,471;43,06397
 878,07;11952,267;  263,427;27186,010;43,41649
 878,63;11951,190;  231,042;27179,163;43,49152
 879,19;12078,806;  232,965;27231,625;43,87566
 879,75;12058,113;  212,581;27203,010;43,88790
 880,30;12062,575;  217,273;27291,010;43,75200
 880,86;12275,421;  266,965;27390,625;44,27299
 881,42;12247,037;  207,350;27328,933;44,39153
 881,98;12333,652;  236,119;27395,548;44,54266
 882,54;12450,113;  219,888;27527,625;44,78667
 883,09;12485,267;  242,581;27595,548;44,75817
 883,65;12623,729;  210,965;27656,548;45,22682
 884,21;12806,344;  256,888;27779,240;45,59732
 884,77;12858,960;  211,196;27917,548;45,64933
 885,32;12871,960;  226,427;28054,702;45,44131
 885,88;13003,806;  248,658;28194,779;45,64193
 886,44;13181,960;  230,042;28265,779;46,19788
 887,00;13208,806;  251,350;28209,394;46,34607
 887,56;13331,190;  215,119;28435,010;46,47811
 888,11;13391,806;  229,427;28349,702;46,80743
 888,67;13504,113;  245,581;28548,394;46,84528
 889,23;13592,883;  235,888;28482,010;47,28789
 889,79;13522,652;  210,581;28431,856;47,17034
 890,34;13579,806;  240,196;28384,163;47,39776
 890,90;13799,806;  305,042;28557,779;47,76445
 891,46;13709,190;  216,350;28416,471;47,84675
 892,01;13789,267;  245,196;28408,933;48,09046
 892,57;13767,729;  261,196;28336,240;48,10868
 893,13;13659,729;  229,581;28152,471;48,09727
 893,69;13608,806;  210,658;28070,625;48,09104
 894,24;13641,883;  218,427;27938,933;48,42428
 894,80;13637,037;  230,504;27894,010;48,46288
 895,36;13606,729;  222,812;27727,471;48,66055
 895,91;13526,883;  229,812;27520,779;48,72334
 896,47;13538,883;  250,119;27423,548;48,90352
 897,03;13481,883;  233,888;27244,394;49,04756
 897,58;13443,652;  234,581;27167,779;49,04383
 898,14;13373,037;  243,812;27009,779;49,05194
 898,70;13279,806;  208,581;26779,856;49,19307
 899,25;13329,344;  233,273;26867,240;49,17056
 899,81;13288,190;  239,888;26652,471;49,40184
 900,37;13188,652;  203,735;26454,163;49,46554
 900,92;13198,267;  233,658;26442,163;49,46718
 901,48;13142,652;  217,888;26289,856;49,57341
 902,03;13036,883;  215,504;26127,163;49,48112
 902,59;13038,960;  206,196;26029,856;49,69382
 903,15;13033,421;  239,504;25902,163;49,85421
 903,70;12913,037;  234,427;25715,010;49,75793
 904,26;12872,421;  218,119;25565,471;49,92357
 904,82;12863,498;  230,196;25528,702;49,93695
 905,37;12829,652;  238,658;25409,625;50,02189
 905,93;12843,267;  222,888;25257,163;50,41240
 906,48;12816,344;  245,119;25269,240;50,23643
 907,04;12764,883;  244,350;25191,933;50,18736
 907,60;12729,498;  243,735;24960,010;50,51636
 908,15;12675,960;  217,273;24885,010;50,50600
 908,71;12695,729;  236,735;24848,548;50,62201
 909,26;12672,113;  239,427;24733,163;50,75864
 909,82;12582,037;  238,812;24547,548;50,77691
 910,37;12687,729;  279,735;24504,317;51,22067
 910,93;12532,113;  208,119;24324,625;51,10191
 911,48;12572,190;  229,658;24223,548;51,44031
 912,04;12507,190;  221,658;24064,779;51,52653
 912,60;12652,729;  233,196;24029,163;52,19175
 913,15;12582,037;  226,735;23886,394;52,22096
 913,71;12505,267;  219,735;23652,856;52,42807
 914,26;12554,883;  207,196;23636,010;52,70300
 914,82;12568,729;  237,350;23560,856;52,87103
 915,37;12597,575;  214,735;23486,856;53,20890
 915,93;12635,883;  299,273;23381,471;53,44642
 916,48;12525,652;  209,504;23217,548;53,52975
 917,04;12531,806;  244,735;23063,394;53,84659
 917,59;12568,037;  266,427;23124,548;53,81724
 918,15;12410,267;  195,119;22832,394;53,96033
 918,70;12455,960;  229,735;22744,933;54,30210
 919,26;12471,267;  238,196;22600,702;54,70349
 919,81;12399,190;  220,581;22460,471;54,76021
 920,37;12386,421;  224,196;22430,317;54,76970
 920,92;12412,575;  243,042;22403,625;54,91522
 921,48;12267,575;  217,273;22091,394;55,08931
 922,03;12360,575;  211,735;22110,163;55,47814
 922,59;12325,267;  229,196;22055,702;55,41918
 923,14;12273,421;  230,427;21812,163;55,80179
 923,69;12310,960;  254,119;21781,163;56,00788
 924,25;12297,037;  261,504;21795,010;55,89212
 924,80;12185,267;  226,042;21542,471;56,10332
 925,36;12231,113;  220,042;21428,625;56,63307
 925,91;12139,806;  219,042;21370,010;56,36037
 926,47;12169,421;  199,427;21331,394;56,64401
 927,02;12236,113;  303,888;21219,317;57,04987
 927,57;12120,037;  208,581;21006,087;57,27348
 928,13;12170,421;  219,812;20948,010;57,65388
 928,68;12127,421;  224,350;20900,933;57,56788
 929,24;12127,037;  203,581;20710,625;58,14322
 929,79;12076,806;  216,273;20580,240;58,24274
 930,34;12030,190;  222,735;20442,317;58,39614
 930,90;12040,652;  209,504;20414,856;58,55453
 931,45;12086,344;  233,812;20431,779;58,68181
 932,01;12038,190;  225,196;20330,317;58,75615
 932,56;12068,190;  250,350;20097,779;59,54343
 933,11;12137,652;  256,735;20132,548;59,77575
 933,67;12030,267;  219,965;19943,317;59,87979
 934,22;12028,498;  229,888;19903,317;59,97231
 934,77;12023,498;  254,504;19720,779;60,45838
 935,33;12004,652;  227,196;19621,779;60,72549
 935,88;11979,037;  237,658;19570,317;60,73339
 936,43;11947,652;  233,427;19440,933;60,98775
 936,99;11975,729;  223,658;19387,779;61,32330
 937,54;11890,806;  202,581;19253,394;61,35289
 938,09;11903,421;  237,888;19226,317;61,43495
 938,65;11877,575;  238,350;19047,317;61,88125
 939,20;11803,037;  218,042;19020,779;61,61334
 939,75;11720,267;  209,427;18954,471;61,40738
 940,31;11779,344;  201,196;18819,933;62,18547
 940,86;11811,960;  230,504;18780,163;62,43487
 941,41;11884,113;  328,273;18720,317;62,83065
 941,96;11760,883;  217,888;18550,471;62,96436
 942,52;11709,267;  211,350;18442,856;63,06620
 943,07;11708,575;  207,965;18381,087;63,28362
 943,62;11659,421;  210,042;18287,010;63,33683
 944,18;11668,960;  194,965;18255,317;63,53140
 944,73;11682,190;  243,196;18020,240;64,34700
 945,28;11541,960;  187,735;17911,933;64,06059
 945,83;11649,344;  218,658;17909,087;64,61509
 946,39;11648,190;  223,581;17914,702;64,57821
 946,94;11699,729;  246,888;17736,010;65,48551
 947,49;11701,960;  212,812;17631,625;65,95827
 948,04;11664,883;  278,273;17690,317;65,39502
 948,59;11685,267;  244,042;17645,163;65,74993
 949,15;11565,883;  217,888;17503,625;65,64947
 949,70;11505,498;  226,042;17385,471;65,73328
 950,25;11554,575;  232,965;17277,010;66,42561
 950,80;11519,267;  189,812;17122,702;66,90799
 951,36;11476,729;  190,273;17124,548;66,64859
 951,91;11502,113;  235,273;17139,933;66,64932
 952,46;11412,883;  221,965;16908,394;67,06598
 953,01;11517,575;  230,658;16897,010;67,72278
 953,56;11380,190;  206,888;16755,471;67,51818
 954,11;11439,421;  234,888;16748,317;67,85104
 954,67;11508,883;  211,350;16653,087;68,71253
 955,22;11356,806;  196,658;16463,625;68,60620
 955,77;11412,883;  240,812;16551,240;68,49649
 956,32;11415,113;  277,504;16403,163;69,06762
 956,87;11345,806;  210,042;16257,240;69,39382
 957,42;11321,037;  217,735;16189,933;69,51643
 957,98;11352,729;  214,658;16138,933;69,94398
 958,53;11372,652;  259,350;16123,010;70,05510
 959,08;11248,113;  205,196;15932,779;70,21370
 959,63;11220,498;  215,427;15836,471;70,45029
 960,18;11252,883;  232,119;15843,548;70,59420
 960,73;11276,190;  237,350;15819,087;70,84474
 961,28;11184,575;  202,350;15655,010;71,07013
 961,83;11208,960;  245,965;15641,548;71,20870
 962,39;11088,267;  208,504;15504,702;71,12724
 962,94;11075,267;  231,812;15445,163;71,27591
 963,49;11002,652;  235,658;15295,779;71,49341
 964,04;11086,806;  241,119;15216,548;72,42321
 964,59;10972,113;  200,504;15139,317;72,10485
 965,14;11015,498;  248,888;15098,856;72,50258
 965,69;10927,344;  222,119;14957,163;72,65146
 966,24;10884,421;  221,581;14840,317;72,93955
 966,79;10844,729;  243,504;14789,394;72,88124
 967,34;10751,729;  203,196;14734,856;72,59001
 967,89;10777,806;  224,273;14617,625;73,32227
 968,44;10718,729;  220,812;14560,933;73,20662
 968,99;10714,267;  236,504;14552,625;73,18856
 969,55;10686,190;  234,504;14408,625;73,73781
 970,10;10682,421;  235,196;14297,702;74,29135
 970,65;10638,421;  247,658;14166,471;74,65265
 971,20;10563,883;  213,196;14077,240;74,65849
 971,75;10448,113;  195,581;13935,163;74,62041
 972,30;10508,729;  232,196;13902,010;75,17683
 972,85;10473,037;  217,273;13824,240;75,37141
 973,40;10394,883;  216,042;13728,163;75,33118
 973,95;10359,498;  235,119;13695,010;75,21888
 974,50;10369,190;  252,581;13630,317;75,62273
 975,05;10316,267;  226,273;13502,240;76,00195
 975,60;10285,729;  241,581;13442,010;76,08956
 976,15;10239,806;  224,042;13283,010;76,69644
 976,70;10205,037;  231,196;13184,856;76,99631
 977,25;10211,037;  231,427;13159,010;77,19625
 977,80;10036,575;  224,735;13054,240;76,47871
 978,35; 9980,806;  244,042;12839,394;77,30442
 978,89; 9935,883;  209,581;12779,702;77,37636
 979,44; 9993,960;  234,350;12821,779;77,53458
 979,99; 9873,729;  213,658;12606,625;77,94801
 980,54; 9842,498;  251,965;12527,010;78,13033
 981,09; 9757,190;  245,042;12521,856;77,48059
 981,64; 9689,960;  235,042;12382,933;77,83176
 982,19; 9649,575;  277,350;12315,933;77,85156
 982,74; 9615,113;  242,888;12229,010;78,19231
 983,29; 9461,729;  222,581;12037,625;78,19817
 983,84; 9490,806;  242,119;11923,702;79,17323
 984,39; 9543,113;  322,427;11991,625;79,01731
 984,94; 9374,421;  197,196;11736,779;79,52822
 985,49; 9309,575;  265,119;11708,163;79,03890
 986,03; 9291,883;  251,119;11659,548;79,24635
 986,58; 9203,421;  285,658;11489,240;79,59743
 987,13; 9139,729;  237,350;11355,394;80,07145
 987,68; 9080,575;  253,581;11278,625;80,06312
 988,23; 9089,575;  258,119;11222,317;80,54812
 988,78; 8962,960;  226,812;11108,548;80,28266
 989,33; 8956,575;  256,350;11009,548;80,90826
 989,88; 8947,113;  269,196;10959,625;81,17464
 990,42; 8774,421;  223,812;10761,856;81,14038
 990,97; 8760,575;  224,504;10640,163;81,95421
 991,52; 8725,113;  251,350;10569,779;82,12261
 992,07; 8679,267;  280,273;10517,317;82,04511
 992,62; 8552,652;  233,812;10391,856;81,89411
 993,17; 8535,267;  256,581;10232,933;82,98310
 993,71; 8492,113;  267,427;10219,010;82,64702
 994,26; 8380,960;  231,119; 9997,471;83,44815
 994,81; 8367,652;  263,119;10026,471;83,00974
 995,36; 8236,267;  242,965; 9858,779;83,12663
 995,91; 8229,421;  238,042; 9744,163;84,06561
 996,45; 8242,344;  245,581; 9689,625;84,67520
 997,00; 8093,806;  213,735; 9582,010;84,11443
 997,55; 8085,421;  242,581; 9489,933;84,81174
 998,10; 8020,344;  275,965; 9388,933;84,98197
 998,65; 7985,960;  241,735; 9351,163;85,01329
 999,19; 7906,652;  257,042; 9219,625;85,35051
 999,74; 7841,498;  279,735; 9113,163;85,60394
1000,29; 7791,113;  248,042; 9071,317;85,49060
1000,84; 7706,806;  242,427; 8884,625;86,37130
1001,38; 7672,960;  243,119; 8792,087;86,90922
1001,93; 7665,113;  253,581; 8761,702;87,11127
1002,48; 7529,037;  232,273; 8619,087;87,00281
1003,03; 7511,575;  255,273; 8565,471;87,31804
1003,57; 7432,037;  241,735; 8497,317;87,09624
1004,12; 7430,267;  278,658; 8389,702;88,17126
1004,67; 7252,421;  240,427; 8254,087;87,50052
1005,22; 7191,729;  232,196; 8159,702;87,78969
1005,76; 7101,037;  224,888; 8040,548;87,97911
1006,31; 7088,498;  247,504; 7979,240;88,47940
1006,86; 6928,575;  225,196; 7830,087;88,14563
1007,40; 6814,344;  225,735; 7735,856;87,72974
1007,95; 6767,113;  248,504; 7658,625;87,96900
1008,50; 6708,883;  247,735; 7545,702;88,53353
1009,04; 6624,960;  234,504; 7434,240;88,75958
1009,59; 6512,037;  253,965; 7270,317;89,19266
1010,14; 6430,498;  234,427; 7237,087;88,48168
1010,68; 6357,729;  232,965; 7149,548;88,55187
1011,23; 6291,113;  233,119; 6996,548;89,56987
1011,78; 6251,652;  259,042; 6943,856;89,64513
1012,32; 6195,037;  280,504; 6822,394;90,41015
1012,87; 6151,729;  269,735; 6837,548;89,55788
1013,42; 6021,037;  220,196; 6690,702;89,65049
1013,96; 6068,344;  272,658; 6717,240;89,93114
1014,51; 5993,960;  209,119; 6585,163;90,72773
1015,06; 6009,575;  215,427; 6554,240;91,40746
1015,60; 6066,344;  279,888; 6607,087;91,45368
1016,15; 6060,037;  231,812; 6560,856;92,08697
1016,69; 6123,498;  248,273; 6614,856;92,28224
1017,24; 6144,037;  214,504; 6589,394;93,01388
1017,79; 6262,806;  271,658; 6636,317;94,13148
1018,33; 6209,190;  238,196; 6634,779;93,34663
1018,88; 6314,729;  252,427; 6665,548;94,52966
1019,42; 6358,267;  238,427; 6630,163;95,74613
1019,97; 6346,960;  221,504; 6621,625;95,70843
1020,51; 6460,960;  277,965; 6689,548;96,43476
1021,06; 6430,344;  219,427; 6628,625;96,90631
1021,61; 6373,729;  191,350; 6623,933;96,11037
1022,15; 6387,498;  195,504; 6586,702;96,88315
1022,70; 6416,037;  228,658; 6589,856;97,26751
1023,24; 6387,267;  214,273; 6503,702;98,14873
1023,79; 6356,267;  226,196; 6506,702;97,60474
1024,33; 6309,652;  219,735; 6428,010;98,09355
1024,88; 6228,037;  258,965; 6364,010;97,77277
1025,42; 6178,037;  259,965; 6247,702;98,83653
1025,97; 6105,652;  230,812; 6179,240;98,76289
1026,51; 6014,421;  192,965; 6035,548;99,63840
1027,06; 5949,960;  229,888; 5981,933;99,44414
1027,60; 5862,344;  250,042; 5897,933;99,36988
1028,15; 5810,575;  256,888; 5856,087;99,18718
1028,69; 5671,344;  184,427; 5682,548;99,79622
1029,24; 5645,729;  224,042; 5602,548;100,80284
1029,78; 5584,037;  208,965; 5551,394;100,61100
1030,33; 5469,883;  207,812; 5448,317;100,41151
1030,87; 5433,806;  227,042; 5380,548;101,03343
1031,42; 5362,267;  211,581; 5271,625;101,79133
1031,96; 5300,729;  245,042; 5232,625;101,36547
1032,51; 5225,344;  219,888; 5156,702;101,39042
1033,05; 5181,806;  231,965; 5132,702;101,00197
1033,60; 5075,421;  196,042; 4966,702;102,27891
1034,14; 5055,344;  212,658; 4919,394;102,88841
1034,69; 5024,960;  220,196; 4855,933;103,64617
1035,23; 4919,729;  229,735; 4821,702;102,13475
1035,77; 4900,344;  218,581; 4729,010;103,79863
1036,32; 4800,421;  204,504; 4662,702;103,08912
1036,86; 4778,806;  240,888; 4599,163;104,12187
1037,41; 4675,037;  243,196; 4541,240;103,11295
1037,95; 4653,421;  198,196; 4430,548;105,26594
1038,50; 4597,190;  215,427; 4401,317;104,67936
1039,04; 4578,267;  248,273; 4344,933;105,69573
1039,58; 4467,037;  197,119; 4289,856;104,32915
1040,13; 4428,498;  225,504; 4213,856;105,38173
1040,67; 4408,806;  259,042; 4231,010;104,47627
1041,21; 4305,729;  261,581; 4144,856;104,14272
1041,76; 4217,190;  210,581; 4034,163;104,78679
1042,30; 4223,960;  220,350; 4012,471;105,57705
1042,85; 4146,267;  221,350; 3952,856;105,18320
1043,39; 4083,806;  209,888; 3862,625;106,05521
1043,93; 4049,652;  248,965; 3872,087;104,90090
1044,48; 4019,883;  236,735; 3825,471;105,41727
1045,02; 3961,267;  229,350; 3715,933;107,03654
1045,56; 3956,883;  253,965; 3728,471;106,57393
1046,11; 3846,498;  229,888; 3609,087;107,02568
1046,65; 3819,652;  242,427; 3572,087;107,43516
1047,19; 3760,960;  203,735; 3512,625;107,50507
1047,74; 3722,113;  205,812; 3469,856;107,72838
1048,28; 3665,498;  240,812; 3423,317;107,60975
1048,82; 3657,729;  256,735; 3420,317;107,50452
1049,37; 3604,113;  250,196; 3322,471;109,16722
1049,91; 3583,652;  247,581; 3308,856;108,97653
1050,45; 3573,652;  242,119; 3246,240;110,89875
1050,99; 3513,575;  242,965; 3231,163;109,45090
1051,54; 3425,652;  226,965; 3142,625;109,70713
1052,08; 3423,960;  255,042; 3127,702;110,31301
1052,62; 3389,190;  244,350; 3097,240;110,23348
1053,16; 3342,267;  228,658; 3032,317;111,05519
1053,71; 3303,190;  236,042; 3025,163;109,96826
1054,25; 3256,113;  252,119; 2963,394;110,79637
1054,79; 3247,037;  251,196; 2893,010;113,40091
1055,33; 3159,729;  203,812; 2849,010;111,74654
1055,88; 3135,267;  244,196; 2846,779;111,08470
1056,42; 3109,960;  255,888; 2797,471;112,29503
1056,96; 3065,498;  249,812; 2790,317;110,83173
1057,50; 3025,729;  253,196; 2715,702;112,58990
1058,05; 3001,575;  238,273; 2651,240;114,51883
1058,59; 2997,960;  261,581; 2637,933;115,15040
1059,13; 2874,883;  213,042; 2573,163;112,78406
1059,67; 2856,421;  246,735; 2560,548;112,78725
1060,21; 2828,960;  245,350; 2497,933;114,69544
1060,76; 2811,267;  241,196; 2515,625;112,99853
1061,30; 2770,960;  261,504; 2489,779;112,61876
1061,84; 2694,652;  246,658; 2418,856;112,69664
1062,38; 2658,113;  219,581; 2340,163;114,99352
1062,92; 2697,806;  287,427; 2379,702;115,20373
1063,46; 2592,652;  246,812; 2320,471;113,12562
1064,01; 2541,421;  227,581; 2289,856;112,19844
1064,55; 2514,883;  257,273; 2254,625;113,03014
1065,09; 2454,652;  215,735; 2167,625;114,70507
1065,63; 2484,652;  280,119; 2212,163;114,10363
1066,17; 2461,729;  283,350; 2185,317;114,53293
1066,71; 2426,037;  264,581; 2159,702;114,05370
1067,25; 2376,729;  245,812; 2102,087;114,79535
1067,80; 2355,037;  254,273; 2086,240;114,67254
1068,34; 2347,883;  269,965; 2096,702;113,75025
1068,88; 2257,344;  241,581; 2011,702;113,87715
1069,42; 2273,575;  265,350; 2022,240;114,30565
1069,96; 2233,498;  242,119; 1975,548;114,88091
1070,50; 2232,344;  280,888; 1998,163;113,63677
1071,04; 2183,037;  235,273; 1931,394;114,83634
1071,58; 2167,190;  240,350; 1905,856;115,69101
1072,12; 2171,652;  247,042; 1914,548;115,41847
1072,66; 2143,344;  247,888; 1872,702;116,65682
1073,21; 2153,806;  260,965; 1855,779;118,68726
1073,75; 2100,190;  243,812; 1843,163;116,07069
1074,29; 2086,421;  250,735; 1820,010;116,97673
1074,83; 2069,652;  267,196; 1805,240;117,19141
1075,37; 2073,267;  271,273; 1800,010;117,87474
1075,91; 2008,883;  259,735; 1753,010;117,13503
1076,45; 1966,806;  252,196; 1728,548;116,13827
1076,99; 1991,883;  269,273; 1729,087;118,00204
1077,53; 1930,498;  242,119; 1662,548;118,86402
1078,07; 1918,421;  266,273; 1679,240;116,92755
1078,61; 1884,190;  261,042; 1643,087;117,44545
1079,15; 1868,729;  252,350; 1623,240;117,90723
1079,69; 1842,113;  257,273; 1606,240;117,48546
1080,23; 1842,806;  273,735; 1587,702;119,41478
1080,77; 1884,806;  321,812; 1626,625;119,78680
1081,31; 1788,729;  250,196; 1546,548;118,68171
1081,85; 1797,344;  270,350; 1558,625;118,53015
1082,39; 1743,190;  244,119; 1515,163;117,94012
1082,93; 1749,652;  266,119; 1515,087;118,78075
1083,47; 1687,883;  229,196; 1445,471;119,93065
1084,01; 1710,267;  259,888; 1488,317;118,06779
1084,55; 1661,575;  259,735; 1434,779;119,30107
1085,09; 1663,575;  273,581; 1444,933;118,66581
1085,63; 1623,806;  250,350; 1423,317;117,09242
1086,17; 1607,113;  255,812; 1396,317;118,48269
1086,71; 1601,883;  234,273; 1372,010;120,20442
1087,24; 1610,960;  275,196; 1402,163;118,52726
1087,78; 1601,575;  259,658; 1373,702;120,45458
1088,32; 1529,498;  245,658; 1326,625;118,76773
1088,86; 1579,267;  263,581; 1332,394;123,09786
1089,40; 1537,344;  264,427; 1322,548;120,29977
1089,94; 1504,729;  233,965; 1272,010;122,41901
1090,48; 1472,344;  251,042; 1279,933;118,70088
1091,02; 1495,344;  269,504; 1280,625;121,23576
1091,56; 1461,113;  249,658; 1249,548;121,15886
1092,10; 1416,652;  229,504; 1219,933;119,86203
1092,63; 1457,344;  281,350; 1259,625;120,21101
1093,17; 1427,729;  261,581; 1227,779;120,69451
1093,71; 1386,729;  239,427; 1181,625;121,76865
1094,25; 1414,883;  275,735; 1208,779;122,08940
1094,79; 1365,113;  253,504; 1163,548;122,14897
1095,33; 1355,190;  257,042; 1162,163;121,32609
1095,87; 1334,037;  249,812; 1143,087;121,37640
1096,40; 1305,498;  231,350; 1108,856;122,40923
1096,94; 1301,267;  257,042; 1113,240;121,96068
1097,48; 1314,652;  268,812; 1126,625;121,91933
1098,02; 1258,190;  235,350; 1066,856;123,01062
1098,56; 1202,190;  219,812; 1053,010;117,90460
1099,10; 1211,960;  232,273; 1052,317;119,46752
1099,63; 1210,037;  228,042; 1027,779;122,78972
1100,17; 1211,652;  262,658; 1050,856;120,40048
1100,71; 1236,806;  289,812; 1058,779;123,15143

