
Integration time [ms]: 140,000
Averaging Nr. [scans]: 13
Smoothing Nr. [pixels]: 0
Data measured with spectrometer [name]: 2009305U1
Wave   ;Sample   ;Dark     ;Reference;Reflectance
[nm]   ;[counts] ;[counts] ;[counts] ;[%]

 175,72;  217,030;  198,885;  194,139; 0,00000
 176,32;  229,748;  212,577;  214,894;741,04117
 176,92;  272,487;  235,808;  244,072;443,82595
 177,52;  266,912;  242,038;  254,270;203,34919
 178,12;  236,266;  232,038;  214,800; 0,00000
 178,72;  277,460;  256,423;  239,900; 0,00000
 179,32;  266,659;  236,500;  245,616;330,84032
 179,92;  264,393;  240,192;  244,573;552,47428
 180,52;  254,865;  221,269;  247,993;125,71466
 181,12;  271,405;  239,115;  248,829;332,41905
 181,73;  282,094;  260,038;  272,399;178,42773
 182,33;  379,305;  313,423;  327,745;459,99917
 182,93;  287,017;  247,885;  257,773;395,74405
 183,53;  245,245;  238,115;  216,783; 0,00000
 184,13;  258,501;  237,731;  227,450; 0,00000
 184,73;  288,346;  250,500;  265,230;256,93406
 185,33;  283,519;  224,808;  337,380;52,15464
 185,93;  281,323;  222,192;  357,456;43,71540
 186,53;  307,122;  240,269;  368,442;52,15808
 187,13;  324,051;  264,269;  410,740;40,81446
 187,73;  283,830;  231,654;  360,523;40,48721
 188,33;  288,136;  235,038;  362,886;41,53222
 188,93;  301,125;  245,346;  364,048;46,99105
 189,53;  300,402;  247,423;  379,952;39,97589
 190,13;  338,002;  267,192;  399,816;53,39173
 190,73;  296,782;  217,115;  348,335;60,71247
 191,34;  317,299;  241,885;  382,405;53,66758
 191,94;  284,180;  238,885;  363,129;36,45655
 192,54;  306,967;  244,269;  382,672;45,30078
 193,14;  313,949;  258,423;  381,975;44,94153
 193,74;  305,167;  249,577;  378,895;42,98764
 194,34;  296,172;  246,115;  391,808;34,35788
 194,94;  259,208;  208,885;  348,554;36,03042
 195,54;  236,564;  211,962;  329,008;21,01928
 196,14;  267,833;  214,115;  355,392;38,02265
 196,74;  269,802;  219,269;  350,867;38,39958
 197,34;  247,639;  193,346;  344,458;35,92918
 197,94;  270,200;  227,500;  369,717;30,02481
 198,54;  287,051;  221,731;  381,114;40,98325
 199,14;  269,012;  198,423;  392,861;36,30429
 199,74;  246,753;  189,577;  384,358;29,35411
 200,34;  252,940;  185,269;  383,225;34,18470
 200,94;  284,380;  228,192;  430,230;27,81049
 201,54;  261,563;  204,885;  445,029;23,60164
 202,14;  292,964;  221,808;  459,331;29,95785
 202,74;  264,543;  211,577;  467,298;20,71229
 203,34;  237,710;  184,269;  506,588;16,58016
 203,94;  216,361;  161,731;  498,587;16,21779
 204,54;  298,945;  227,654;  568,369;20,92409
 205,14;  261,616;  197,500;  584,198;16,58027
 205,74;  300,074;  219,577;  676,516;17,61669
 206,34;  265,134;  191,731;  688,401;14,77916
 206,94;  290,130;  201,269;  739,114;16,52166
 207,54;  256,693;  169,808;  782,495;14,18104
 208,14;  273,175;  199,654;  878,083;10,83698
 208,74;  270,405;  199,269;  955,907; 9,40155
 209,34;  279,721;  192,115; 1027,063;10,49234
 209,94;  294,688;  207,731; 1128,175; 9,44736
 210,54;  294,884;  197,038; 1247,802; 9,31184
 211,14;  315,053;  205,192; 1350,488; 9,59233
 211,73;  318,895;  201,038; 1429,915; 9,59055
 212,33;  331,562;  210,731; 1566,271; 8,91389
 212,93;  326,846;  197,885; 1674,297; 8,73479
 213,53;  308,223;  173,346; 1722,943; 8,70398
 214,13;  348,444;  197,885; 1797,819; 9,41032
 214,73;  331,349;  182,500; 1804,177; 9,17871
 215,33;  326,150;  150,038; 1838,021;10,43326
 215,93;  356,184;  187,654; 1998,888; 9,30470
 216,53;  324,198;  152,731; 2035,716; 9,10615
 217,13;  402,074;  211,885; 2258,867; 9,29121
 217,73;  402,589;  182,500; 2461,267; 9,65823
 218,33;  383,913;  144,269; 2676,129; 9,46514
 218,93;  448,231;  171,192; 2966,220; 9,91184
 219,53;  480,962;  179,731; 3295,780; 9,66709
 220,13;  492,983;  155,423; 3570,116; 9,88550
 220,73;  528,478;  180,346; 3949,708; 9,23583
 221,32;  576,636;  181,885; 4374,676; 9,41499
 221,92;  628,055;  180,885; 4782,807; 9,71704
 222,52;  652,338;  160,731; 5215,943; 9,72475
 223,12;  695,407;  168,962; 5654,204; 9,59748
 223,72;  762,071;  183,115; 6040,009; 9,88502
 224,32;  805,087;  184,115; 6387,058;10,01092
 224,92;  818,293;  165,423; 6707,578; 9,97944
 225,52;  889,333;  193,808; 7079,458;10,10108
 226,12;  925,167;  180,500; 7367,553;10,36123
 226,72;  949,139;  158,577; 7643,073;10,56266
 227,31;  976,730;  144,346; 8072,747;10,49876
 227,91; 1076,539;  183,038; 8400,077;10,87375
 228,51; 1101,008;  166,962; 8796,101;10,82432
 229,11; 1161,851;  166,346; 9149,705;11,08166
 229,71; 1203,696;  171,731; 9467,089;11,10194
 230,31; 1251,160;  162,269; 9866,529;11,22075
 230,91; 1290,602;  156,346;10119,172;11,38488
 231,51; 1387,718;  160,115;10463,788;11,91423
 232,10; 1445,861;  167,423;10748,070;12,08279
 232,70; 1526,788;  170,731;10896,423;12,64307
 233,30; 1565,576;  188,038;11097,703;12,62677
 233,90; 1610,937;  170,808;11212,685;13,04243
 234,50; 1669,706;  167,192;11365,048;13,41787
 235,10; 1716,755;  170,962;11313,117;13,87338
 235,70; 1776,786;  184,346;11380,379;14,22325
 236,29; 1812,911;  184,731;11221,557;14,75225
 236,89; 1824,861;  156,346;11176,730;15,14026
 237,49; 1891,540;  184,731;11057,044;15,69867
 238,09; 1867,288;  171,346;10711,017;16,09104
 238,69; 1912,804;  200,962;10453,966;16,69601
 239,29; 1888,507;  176,808;10203,068;17,07216
 239,89; 1880,040;  185,885; 9735,825;17,73995
 240,48; 1851,418;  170,500; 9401,768;18,20896
 241,08; 1850,106;  168,500; 9000,173;19,04063
 241,68; 1857,398;  183,269; 8756,597;19,52717
 242,28; 1805,904;  163,192; 8416,797;19,90296
 242,88; 1838,954;  200,038; 8101,316;20,74241
 243,48; 1818,260;  198,192; 7858,316;21,14937
 244,07; 1785,438;  191,038; 7637,367;21,41188
 244,67; 1781,580;  186,654; 7467,463;21,90589
 245,27; 1796,202;  195,885; 7301,300;22,52251
 245,87; 1831,788;  201,885; 7239,829;23,15879
 246,47; 1803,765;  183,423; 7237,856;22,96913
 247,06; 1841,033;  173,346; 7239,251;23,60189
 247,66; 1886,612;  175,962; 7345,911;23,85862
 248,26; 1959,919;  206,269; 7426,757;24,28714
 248,86; 2003,862;  191,654; 7645,928;24,31100
 249,46; 2029,746;  146,577; 7907,598;24,26446
 250,05; 2153,321;  190,269; 8311,619;24,17149
 250,65; 2236,959;  153,423; 8633,197;24,57065
 251,25; 2359,944;  171,962; 9141,457;24,39360
 251,85; 2488,465;  170,885; 9627,836;24,50663
 252,44; 2616,534;  144,808;10290,197;24,36306
 253,04; 2816,093;  191,269;11056,016;24,15909
 253,64; 2954,550;  139,962;11781,817;24,17646
 254,24; 3197,734;  194,731;12753,506;23,91159
 254,84; 3365,670;  171,346;13701,290;23,60929
 255,43; 3580,336;  182,346;14745,393;23,33296
 256,03; 3850,696;  180,423;15726,694;23,60870
 256,63; 4078,145;  172,577;16777,635;23,52035
 257,23; 4240,485;  156,423;17678,524;23,30806
 257,82; 4494,614;  182,115;18683,692;23,30882
 258,42; 4628,455;  144,577;19470,350;23,20155
 259,02; 4859,956;  188,654;20408,779;23,10224
 259,62; 4990,091;  166,731;21227,235;22,90240
 260,21; 5073,700;  173,577;21700,167;22,76312
 260,81; 5171,147;  171,423;22238,712;22,65672
 261,41; 5243,241;  151,577;22766,146;22,51497
 262,01; 5355,746;  212,423;23282,445;22,29440
 262,60; 5354,870;  165,192;23627,754;22,11897
 263,20; 5414,449;  171,654;23933,216;22,06419
 263,80; 5406,532;  202,346;24178,746;21,70545
 264,40; 5400,451;  162,885;24506,470;21,51518
 264,99; 5401,309;  185,192;24597,638;21,36663
 265,59; 5384,863;  169,962;24750,016;21,21599
 266,19; 5377,811;  169,423;24877,551;21,07965
 266,78; 5400,491;  199,654;25111,361;20,87708
 267,38; 5306,227;  192,038;25081,439;20,54766
 267,98; 5256,742;  170,654;25055,971;20,43811
 268,58; 5228,126;  189,115;25099,729;20,22837
 269,17; 5176,672;  164,269;25101,731;20,09989
 269,77; 5087,809;  183,192;24914,407;19,83168
 270,37; 4990,248;  159,115;24814,247;19,59484
 270,96; 4944,909;  202,115;24738,414;19,32970
 271,56; 4871,659;  174,885;24422,386;19,37014
 272,16; 4779,723;  173,577;24236,163;19,14236
 272,75; 4660,217;  181,962;24253,436;18,60399
 273,35; 4638,452;  182,346;24217,954;18,53960
 273,95; 4587,573;  183,962;24113,241;18,40261
 274,54; 4490,798;  160,500;24177,459;18,03017
 275,14; 4550,383;  184,038;24551,286;17,91891
 275,74; 4495,452;  151,115;24636,228;17,74277
 276,33; 4537,695;  192,808;25057,265;17,47429
 276,93; 4565,932;  182,962;25419,497;17,36756
 277,53; 4601,036;  172,731;25939,208;17,18631
 278,12; 4647,692;  157,808;26549,484;17,01250
 278,72; 4799,648;  197,423;27036,823;17,14727
 279,32; 4861,721;  176,500;27638,360;17,06083
 279,91; 4955,817;  153,038;28385,629;17,01147
 280,51; 5042,122;  177,269;28964,002;16,89963
 281,11; 5178,562;  175,346;29611,535;16,99682
 281,70; 5214,676;  154,346;30149,776;16,87033
 282,30; 5367,428;  164,654;30724,079;17,02511
 282,90; 5476,007;  164,038;31099,244;17,17127
 283,49; 5616,424;  191,038;31658,220;17,24141
 284,09; 5743,939;  197,346;32141,071;17,36364
 284,69; 5824,251;  197,962;32410,566;17,46611
 285,28; 5896,352;  192,731;32713,804;17,53823
 285,88; 6115,456;  216,885;33022,175;17,98055
 286,47; 6120,959;  175,885;33040,747;18,08945
 287,07; 6304,057;  203,115;33209,939;18,48388
 287,67; 6447,030;  191,731;33227,393;18,93499
 288,26; 6537,368;  168,731;33261,270;19,24493
 288,86; 6711,129;  174,192;33178,675;19,80621
 289,46; 6920,530;  175,038;33425,470;20,28693
 290,05; 7137,203;  165,346;33465,267;20,93656
 290,65; 7404,995;  181,423;33691,372;21,55650
 291,24; 7677,457;  179,885;33790,296;22,30729
 291,84; 7948,222;  195,192;33940,866;22,97488
 292,44; 8158,916;  177,577;34099,844;23,52832
 293,03; 8521,830;  233,962;34218,710;24,38702
 293,63; 8718,291;  175,192;34392,765;24,96699
 294,22; 9013,421;  204,500;34567,197;25,63513
 294,82; 9188,228;  178,654;34475,494;26,26940
 295,41; 9285,676;  157,038;34206,853;26,80965
 296,01; 9536,030;  212,346;34142,416;27,47912
 296,61; 9544,474;  188,192;33924,443;27,73361
 297,20; 9597,727;  186,808;33479,263;28,26742
 297,80; 9732,863;  193,885;33355,335;28,76526
 298,39; 9705,695;  165,346;32937,221;29,11139
 298,99; 9857,626;  182,577;32776,047;29,68401
 299,58; 9879,378;  183,731;32564,734;29,94239
 300,18; 9920,389;  210,038;32367,463;30,19630
 300,78; 9973,899;  168,500;32039,565;30,76583
 301,37;10058,799;  190,808;32069,394;30,95492
 301,97;10131,506;  184,731;32099,529;31,16665
 302,56;10207,902;  173,577;32028,071;31,50050
 303,16;10303,910;  169,500;32023,062;31,81562
 303,75;10362,923;  186,577;32042,022;31,94539
 304,35;10564,115;  166,038;32181,044;32,47876
 304,94;10694,975;  179,808;32172,938;32,86695
 305,54;10748,328;  200,577;32176,138;32,98691
 306,13;10736,686;  148,192;32032,317;33,20930
 306,73;10788,034;  158,731;31845,702;33,54471
 307,33;10899,062;  197,038;31844,380;33,81650
 307,92;11028,777;  181,423;31842,574;34,26077
 308,52;11313,954;  162,269;32376,636;34,61712
 309,11;11576,168;  177,962;32817,982;34,92095
 309,71;11789,451;  167,038;33109,877;35,28054
 310,30;11921,668;  159,731;33236,224;35,55981
 310,90;12255,360;  185,500;33657,455;36,05962
 311,49;12379,996;  171,423;33826,856;36,27519
 312,09;12519,798;  152,654;34043,096;36,49154
 312,68;12872,454;  212,115;34361,328;37,07359
 313,28;12998,008;  160,192;34513,882;37,36954
 313,87;13100,955;  151,115;34608,998;37,58165
 314,47;13331,201;  168,577;34826,849;37,97830
 315,06;13538,223;  154,654;35044,811;38,35915
 315,66;13695,029;  163,500;35269,404;38,54488
 316,25;13720,659;  150,808;34996,738;38,94243
 316,85;13912,013;  144,115;35097,641;39,38915
 317,44;14061,905;  166,269;35279,072;39,57427
 318,04;14170,647;  153,500;35247,416;39,94181
 318,63;14272,584;  147,192;35260,288;40,22827
 319,22;14470,088;  171,654;35497,982;40,47529
 319,82;14546,048;  167,192;35447,366;40,75619
 320,41;14575,659;  181,808;35402,101;40,86806
 321,01;14690,616;  178,269;35423,385;41,17548
 321,60;14850,825;  172,577;35509,159;41,53839
 322,20;14916,555;  168,269;35551,521;41,68154
 322,79;15026,389;  194,500;35612,551;41,87664
 323,39;15183,921;  165,269;35640,824;42,33521
 323,98;15196,636;  162,423;35611,523;42,41070
 324,58;15315,582;  159,731;35507,991;42,87580
 325,17;15327,217;  164,423;35274,887;43,18597
 325,76;15362,498;  193,808;35144,329;43,40047
 326,36;15298,964;  146,731;34762,320;43,77286
 326,95;15244,319;  186,577;34398,048;44,01372
 327,55;15153,667;  156,577;34057,004;44,23865
 328,14;15074,098;  150,885;33691,567;44,49287
 328,74;14999,776;  194,962;33252,112;44,78551
 329,33;14936,968;  180,654;32756,420;45,29844
 329,92;14821,638;  156,346;32223,853;45,73256
 330,52;14553,296;  177,808;31630,810;45,70466
 331,11;14475,376;  169,577;31175,745;46,13856
 331,71;14281,894;  173,808;30580,399;46,39812
 332,30;14061,360;  191,500;30132,092;46,32460
 332,89;14032,296;  211,808;29601,975;47,02419
 333,49;13807,024;  180,577;29070,403;47,16694
 334,08;13594,732;  173,654;28700,572;47,04707
 334,68;13501,461;  169,962;28175,868;47,60246
 335,27;13462,665;  184,885;27899,410;47,90910
 335,86;13414,991;  210,192;27655,591;48,11298
 336,46;13306,289;  193,115;27396,127;48,20486
 337,05;13270,352;  164,731;27230,573;48,42126
 337,65;13300,088;  162,731;27034,608;48,88887
 338,24;13421,984;  218,962;27080,226;49,15265
 338,83;13419,364;  198,885;26935,049;49,44793
 339,43;13454,590;  161,731;26876,070;49,75927
 340,02;13502,011;  161,038;26844,927;49,99636
 340,61;13640,364;  165,038;26857,687;50,48329
 341,21;13699,469;  199,500;26897,728;50,56504
 341,80;13773,939;  168,192;26766,016;51,15361
 342,40;13814,139;  178,808;26944,325;50,94365
 342,99;13948,373;  169,115;27100,513;51,16429
 343,58;14181,814;  166,962;27219,650;51,80577
 344,18;14279,895;  182,423;27366,421;51,85945
 344,77;14458,590;  154,500;27598,630;52,12076
 345,36;14732,627;  156,885;28008,355;52,33383
 345,96;15001,992;  199,731;28273,361;52,72657
 346,55;15190,544;  156,885;28512,771;53,01777
 347,14;15427,175;  159,654;28927,314;53,07182
 347,74;15708,266;  142,269;29353,274;53,28812
 348,33;16165,857;  166,577;29983,124;53,65906
 348,92;16639,821;  181,423;30668,026;53,98567
 349,52;16841,157;  144,808;31141,726;53,86455
 350,11;17078,663;  162,269;31290,860;54,34359
 350,70;17215,789;  168,808;31340,391;54,68757
 351,29;17160,774;  154,731;31139,804;54,88463
 351,89;17341,233;  182,885;31082,858;55,52868
 352,48;17339,907;  150,962;31065,171;55,60209
 353,07;17415,969;  178,192;31061,464;55,81590
 353,67;17483,914;  187,962;31072,844;56,00136
 354,26;17368,341;  178,192;30734,438;56,25740
 354,85;17382,434;  172,038;30678,630;56,41533
 355,45;17275,218;  145,115;30396,381;56,62607
 356,04;17399,281;  168,192;30312,157;57,16265
 356,63;17341,481;  202,885;30175,072;57,18167
 357,22;17279,289;  173,731;29950,105;57,44675
 357,82;17164,002;  178,423;29870,287;57,20617
 358,41;17266,324;  190,500;29675,411;57,91377
 359,00;17161,371;  167,577;29525,425;57,88501
 359,60;17141,510;  189,577;29497,410;57,84096
 360,19;17204,795;  181,346;29239,656;58,58375
 360,78;17112,987;  186,808;29153,513;58,43322
 361,37;16968,497;  182,423;28860,857;58,53205
 361,97;16999,562;  183,577;28806,611;58,74983
 362,56;16835,679;  157,269;28486,469;58,87356
 363,15;16779,032;  206,423;28210,625;59,17901
 363,74;16612,031;  170,731;27883,625;59,32726
 364,34;16443,926;  198,192;27509,034;59,48456
 364,93;16180,419;  159,192;27082,604;59,50668
 365,52;15954,299;  152,577;26680,822;59,56565
 366,11;15839,768;  172,808;26402,780;59,72923
 366,71;15636,549;  158,423;25936,443;60,04389
 367,30;15416,680;  172,731;25597,107;59,95801
 367,89;15366,527;  203,500;25423,854;60,12218
 368,48;15176,743;  192,192;25166,158;60,00069
 369,07;14930,789;  179,962;24689,775;60,18335
 369,67;14765,116;  180,346;24427,088;60,15146
 370,26;14588,579;  169,346;24088,847;60,28233
 370,85;14499,748;  180,654;23843,928;60,51189
 371,44;14362,951;  176,808;23599,019;60,56705
 372,03;14176,707;  147,500;23372,697;60,40512
 372,63;14046,457;  150,808;23094,439;60,56430
 373,22;13874,886;  166,654;22806,023;60,55042
 373,81;13661,659;  141,192;22460,112;60,57850
 374,40;13550,879;  168,962;22231,229;60,65522
 374,99;13428,432;  163,423;21964,388;60,84597
 375,59;13153,644;  160,423;21639,921;60,49127
 376,18;13152,926;  195,808;21552,968;60,66873
 376,77;13077,866;  183,885;21385,665;60,81556
 377,36;13046,558;  198,423;21377,171;60,66523
 377,95;12783,877;  177,192;21035,822;60,43870
 378,55;12714,539;  164,577;20844,385;60,68703
 379,14;12702,623;  180,885;20816,046;60,68156
 379,73;12642,821;  173,192;20742,202;60,62338
 380,32;12662,805;  179,808;20758,659;60,65935
 380,91;12525,877;  163,731;20626,987;60,41143
 381,50;12509,420;  178,808;20542,120;60,55307
 382,10;12507,651;  158,269;20457,428;60,83692
 382,69;12419,509;  155,115;20419,596;60,52163
 383,28;12356,485;  190,654;20370,974;60,28562
 383,87;12235,229;  166,962;20289,495;59,97390
 384,46;12183,957;  163,038;20098,329;60,29969
 385,05;12307,331;  191,962;20229,150;60,46442
 385,64;12287,999;  171,962;20169,242;60,58843
 386,24;12177,475;  161,346;20096,796;60,27519
 386,83;12248,167;  183,038;20207,818;60,25100
 387,42;12281,250;  189,808;20262,314;60,23883
 388,01;12420,859;  180,577;20564,026;60,05010
 388,60;12509,727;  172,577;20826,076;59,73394
 389,19;12630,639;  160,346;20959,788;59,95494
 389,78;12763,384;  170,115;21232,880;59,78925
 390,37;13042,017;  216,731;21729,423;59,61730
 390,96;13094,313;  177,808;21820,464;59,68078
 391,56;13170,096;  172,346;21984,215;59,59026
 392,15;13332,648;  167,192;22264,900;59,57838
 392,74;13360,026;  151,962;22434,173;59,27627
 393,33;13566,072;  159,192;22691,681;59,50022
 393,92;13789,851;  178,962;23182,903;59,16764
 394,51;13832,833;  164,192;23298,502;59,08385
 395,10;13995,626;  203,192;23474,279;59,26854
 395,69;14044,031;  182,423;23640,999;59,08972
 396,28;14156,265;  193,192;23718,659;59,35301
 396,87;14127,279;  196,962;23793,576;59,03524
 397,46;14239,719;  192,808;23921,394;59,19826
 398,06;14308,599;  199,577;24191,723;58,80684
 398,65;14266,948;  194,962;24250,735;58,49733
 399,24;14412,667;  200,269;24425,885;58,66682
 399,83;14346,605;  177,192;24481,033;58,30112
 400,42;14420,073;  213,654;24594,354;58,26912
 401,01;14497,447;  189,962;24687,506;58,40375
 401,60;14519,523;  198,423;24757,495;58,31287
 402,19;14443,861;  224,192;24675,494;58,15506
 402,78;14396,603;  233,346;24669,751;57,95966
 403,37;14307,799;  219,192;24545,357;57,91545
 403,96;14187,371;  210,500;24369,797;57,85297
 404,55;14087,969;  227,423;24315,474;57,54117
 405,14;13975,795;  200,885;24176,646;57,45349
 405,73;13965,757;  221,038;24017,900;57,75853
 406,32;13858,258;  224,500;23938,473;57,49251
 406,91;13725,753;  223,731;23678,165;57,56703
 407,50;13592,043;  217,885;23458,314;57,54695
 408,09;13397,594;  208,423;23197,340;57,37187
 408,68;13311,445;  221,269;23125,012;57,15300
 409,27;13160,307;  200,192;22901,995;57,08848
 409,86;13130,607;  204,962;22684,541;57,49950
 410,45;12964,197;  252,500;22717,906;56,58343
 411,04;12889,055;  248,192;22594,854;56,56712
 411,63;12739,007;  239,500;22354,466;56,52058
 412,22;12644,125;  244,808;22046,718;56,87262
 412,81;12477,448;  244,038;21829,481;56,67435
 413,40;12204,298;  249,885;21506,218;56,23930
 413,99;12083,374;  293,654;21279,086;56,18050
 414,58;11809,962;  228,731;20860,935;56,13182
 415,17;11642,651;  228,038;20574,901;56,10011
 415,76;11526,562;  230,269;20479,744;55,78561
 416,35;11337,418;  208,115;20292,758;55,41200
 416,94;11376,243;  257,038;20381,895;55,25110
 417,53;11433,052;  240,038;20620,005;54,92165
 418,12;11471,101;  229,038;20699,315;54,91896
 418,71;11654,622;  258,654;21009,266;54,91871
 419,30;11666,113;  239,038;21115,781;54,73591
 419,89;11713,709;  225,115;21325,907;54,44627
 420,48;11918,760;  256,038;21608,811;54,61924
 421,07;11898,704;  246,500;21657,564;54,42141
 421,66;11867,256;  213,654;21694,041;54,25229
 422,25;11825,984;  230,731;21640,523;54,15865
 422,84;11831,847;  260,346;21648,714;54,10184
 423,43;11632,651;  246,577;21326,230;54,01453
 424,02;11526,134;  262,423;21026,906;54,24508
 424,60;11206,276;  233,885;20579,320;53,93048
 425,19;11014,723;  240,269;20367,811;53,53090
 425,78;10931,986;  253,500;20225,370;53,46764
 426,37;10866,567;  268,500;20185,854;53,21021
 426,96;10770,769;  241,577;20030,582;53,20728
 427,55;10614,549;  226,500;19881,046;52,85316
 428,14;10529,424;  216,115;19635,934;53,10713
 428,73;10390,471;  243,346;19428,255;52,89118
 429,32;10280,291;  253,808;19467,248;52,18474
 429,91;10352,257;  268,500;19446,765;52,57909
 430,50;10137,092;  264,654;19259,311;51,97481
 431,08;10099,210;  275,038;19128,378;52,10839
 431,67;10038,989;  307,577;19098,864;51,78683
 432,26; 9926,965;  330,192;18834,846;51,86140
 432,85; 9748,301;  345,115;18517,623;51,74402
 433,44; 9529,104;  353,038;18154,677;51,54619
 434,03; 9342,066;  366,654;17737,743;51,66868
 434,62; 9091,287;  315,731;17372,696;51,44852
 435,21; 8978,516;  332,808;17199,685;51,25850
 435,79; 8867,774;  338,423;17040,077;51,06890
 436,38; 8756,881;  330,731;16915,580;50,80631
 436,97; 8685,946;  326,423;16833,796;50,64115
 437,56; 8582,119;  324,115;16596,252;50,74935
 438,15; 8508,418;  302,269;16520,645;50,59785
 438,74; 8524,289;  317,038;16594,542;50,42082
 439,33; 8493,491;  282,269;16637,952;50,20409
 439,91; 8448,104;  251,423;16603,577;50,12600
 440,50; 8532,861;  304,500;16674,662;50,26438
 441,09; 8498,867;  296,962;16796,960;49,70852
 441,68; 8462,597;  275,885;16823,839;49,47266
 442,27; 8439,880;  270,192;16806,084;49,40579
 442,86; 8389,499;  247,885;16803,744;49,17663
 443,44; 8456,668;  264,808;16870,232;49,33244
 444,03; 8541,159;  305,808;16863,372;49,73770
 444,62; 8376,608;  261,808;16724,325;49,29259
 445,21; 8291,879;  279,654;16509,095;49,36846
 445,80; 8298,865;  297,423;16452,409;49,52924
 446,39; 8161,679;  311,577;16239,180;49,28615
 446,97; 7980,090;  260,885;16007,154;49,02244
 447,56; 7825,630;  249,346;15756,045;48,85814
 448,15; 7743,337;  268,962;15634,610;48,64341
 448,74; 7657,843;  283,577;15353,447;48,93384
 449,33; 7530,350;  275,423;15234,745;48,49770
 449,91; 7420,672;  275,731;14981,562;48,58577
 450,50; 7303,093;  259,038;14769,309;48,54530
 451,09; 7236,943;  283,962;14666,365;48,34367
 451,68; 7169,653;  304,423;14631,535;47,91775
 452,26; 7127,229;  286,885;14510,161;48,09261
 452,85; 7018,981;  275,423;14440,024;47,60853
 453,44; 7071,822;  290,038;14420,890;47,99274
 454,03; 7004,614;  270,962;14396,457;47,67020
 454,61; 6939,587;  257,962;14329,230;47,48418
 455,20; 7074,649;  300,577;14583,181;47,42883
 455,79; 7025,919;  292,731;14596,204;47,07380
 456,38; 7041,379;  292,885;14623,027;47,09300
 456,97; 7036,278;  282,962;14682,383;46,89991
 457,55; 7054,267;  275,423;14642,160;47,18430
 458,14; 7044,706;  304,192;14650,077;46,98570
 458,73; 6999,032;  290,500;14569,499;46,98181
 459,31; 6999,119;  326,654;14623,436;46,67110
 459,90; 7032,838;  315,038;14745,224;46,55380
 460,49; 7067,870;  344,654;14814,739;46,46287
 461,08; 7026,419;  276,115;14869,819;46,25491
 461,66; 7046,613;  288,500;15002,885;45,92861
 462,25; 7111,137;  292,346;15087,958;46,08657
 462,84; 7064,338;  318,269;15062,158;45,75502
 463,43; 6958,580;  260,192;15007,447;45,42125
 464,01; 7018,767;  298,500;15034,302;45,60503
 464,60; 7014,045;  328,500;14994,096;45,58659
 465,19; 6867,071;  270,423;14778,213;45,46969
 465,77; 6864,877;  291,269;14693,454;45,64313
 466,36; 6853,669;  316,500;14609,032;45,73835
 466,95; 6637,471;  295,269;14254,822;45,43270
 467,53; 6462,943;  293,731;13964,023;45,12861
 468,12; 6404,421;  327,115;13707,665;45,41896
 468,71; 6255,091;  303,423;13520,801;45,02911
 469,29; 6119,709;  289,192;13215,549;45,10565
 469,88; 6013,030;  285,731;12971,948;45,14583
 470,47; 6088,217;  344,192;13156,156;44,83329
 471,06; 5951,274;  293,423;13102,523;44,17056
 471,64; 6007,800;  311,038;13185,542;44,24840
 472,23; 6017,212;  276,269;13233,945;44,30534
 472,81; 6072,287;  292,808;13358,857;44,23280
 473,40; 6098,002;  285,038;13534,247;43,87404
 473,99; 6206,026;  372,500;13625,112;44,01793
 474,57; 6189,253;  296,346;13821,726;43,56925
 475,16; 6268,183;  300,269;13958,618;43,69425
 475,75; 6363,011;  318,885;14022,272;44,10680
 476,33; 6336,725;  321,192;14161,476;43,46394
 476,92; 6326,978;  332,115;14214,263;43,18397
 477,51; 6360,465;  320,038;14247,446;43,37079
 478,09; 6391,437;  330,038;14237,712;43,58312
 478,68; 6335,356;  321,192;14190,008;43,36465
 479,27; 6337,978;  339,038;14340,592;42,84482
 479,85; 6284,619;  324,654;14312,072;42,60947
 480,44; 6345,183;  309,192;14442,464;42,70767
 481,02; 6840,167;  313,962;16237,470;40,98472
 481,61; 7619,580;  334,577;18065,654;41,08607
 482,20; 8087,844;  346,192;19261,169;40,92869
 482,78; 8389,587;  370,269;20017,502;40,81653
 483,37; 8633,894;  364,577;20535,348;40,99653
 483,95; 8752,327;  374,038;20726,878;41,16521
 484,54; 8760,122;  385,115;20918,545;40,78718
 485,13; 8710,390;  348,346;20788,995;40,90889
 485,71; 8617,316;  351,962;20577,622;40,86568
 486,30; 8571,442;  372,885;20234,658;41,27807
 486,88; 8395,782;  402,346;19772,426;41,26692
 487,47; 8122,815;  403,500;19052,270;41,39316
 488,05; 7719,313;  365,808;18095,940;41,47462
 488,64; 7231,898;  367,269;16734,931;41,94019
 489,23; 6504,221;  387,115;14659,210;42,86060
 489,81; 5605,432;  387,500;12725,996;42,28985
 490,40; 5326,537;  346,654;12241,916;41,86443
 490,98; 5199,926;  328,654;12004,774;41,71996
 491,57; 5179,257;  365,654;11997,638;41,38248
 492,15; 5142,728;  334,654;11876,102;41,65919
 492,74; 5107,496;  339,192;11739,805;41,82497
 493,32; 5057,218;  347,808;11723,726;41,39807
 493,91; 4975,943;  321,654;11586,405;41,31729
 494,50; 4970,573;  336,500;11527,354;41,40947
 495,08; 4910,865;  314,654;11498,998;41,09504
 495,67; 4954,563;  345,962;11453,143;41,49208
 496,25; 4812,467;  285,038;11338,258;40,96027
 496,84; 4833,712;  299,808;11302,603;41,20684
 497,42; 4809,467;  296,192;11254,423;41,18616
 498,01; 4763,239;  323,269;11204,050;40,80562
 498,59; 4720,925;  284,346;11152,763;40,82084
 499,18; 4665,008;  290,038;11067,644;40,59315
 499,76; 4664,528;  300,423;11015,880;40,72719
 500,35; 4560,230;  297,654;10782,586;40,65430
 500,93; 4518,334;  290,269;10803,209;40,21772
 501,52; 4474,480;  293,038;10691,218;40,21320
 502,10; 4461,255;  293,885;10684,011;40,10895
 502,69; 4376,009;  282,731;10497,599;40,07176
 503,27; 4309,630;  264,423;10357,876;40,07753
 503,86; 4246,486;  286,731;10238,483;39,78953
 504,44; 4213,499;  267,654;10168,421;39,85393
 505,03; 4114,050;  251,500; 9868,622;40,16326
 505,61; 4070,167;  272,654; 9744,293;40,09351
 506,19; 3991,940;  289,500; 9634,888;39,61783
 506,78; 3895,618;  249,731; 9435,422;39,69094
 507,36; 3833,855;  269,115; 9220,863;39,82172
 507,95; 3768,760;  275,885; 9106,111;39,55590
 508,53; 3705,930;  262,423; 9018,291;39,32799
 509,12; 3665,975;  271,885; 8835,469;39,63399
 509,70; 3631,198;  288,192; 8699,609;39,74367
 510,29; 3558,539;  292,654; 8553,080;39,53652
 510,87; 3458,059;  253,269; 8342,965;39,61570
 511,46; 3386,222;  267,885; 8182,792;39,39827
 512,04; 3323,955;  267,192; 8088,826;39,08088
 512,62; 3284,809;  270,962; 7935,905;39,31989
 513,21; 3190,519;  250,962; 7716,140;39,37691
 513,79; 3148,007;  266,654; 7617,093;39,19974
 514,38; 3054,107;  242,423; 7468,781;38,90873
 514,96; 3053,018;  287,577; 7364,448;39,07717
 515,54; 2965,804;  240,731; 7239,431;38,93685
 516,13; 2951,622;  264,885; 7121,291;39,18580
 516,71; 2854,263;  257,423; 7055,155;38,20156
 517,30; 2831,082;  241,500; 6876,059;39,03171
 517,88; 2785,741;  270,885; 6839,248;38,28742
 518,46; 2760,624;  252,192; 6701,170;38,89658
 519,05; 2725,305;  250,115; 6656,705;38,63506
 519,63; 2699,094;  261,269; 6602,304;38,44522
 520,22; 2682,141;  278,885; 6527,944;38,45788
 520,80; 2645,141;  262,038; 6453,768;38,48847
 521,38; 2659,370;  286,500; 6409,559;38,75302
 521,97; 2583,283;  254,731; 6418,688;37,77691
 522,55; 2605,247;  277,808; 6375,545;38,16889
 523,13; 2597,069;  254,038; 6394,209;38,15905
 523,72; 2556,284;  255,808; 6373,128;37,60595
 524,30; 2615,973;  283,962; 6483,181;37,61782
 524,89; 2581,668;  248,500; 6512,512;37,24718
 525,47; 2642,086;  265,192; 6650,126;37,22661
 526,05; 2610,840;  240,269; 6681,649;36,80221
 526,64; 2682,544;  278,346; 6804,861;36,83740
 527,22; 2728,795;  277,423; 6939,889;36,79376
 527,80; 2752,168;  308,269; 7078,907;36,09554
 528,39; 2754,399;  260,654; 7158,435;36,15286
 528,97; 2775,362;  276,731; 7323,336;35,45866
 529,55; 2827,324;  281,346; 7490,150;35,31762
 530,14; 2895,043;  287,808; 7755,564;34,91324
 530,72; 2885,334;  275,192; 7793,834;34,71560
 531,30; 2933,659;  247,192; 7946,773;34,89108
 531,89; 2956,865;  275,500; 8033,216;34,56385
 532,47; 3002,781;  297,423; 8136,818;34,50977
 533,05; 2988,812;  286,808; 8142,718;34,39454
 533,63; 3025,417;  295,269; 8185,637;34,60101
 534,22; 3003,145;  281,962; 8260,549;34,10608
 534,80; 3031,770;  303,038; 8357,574;33,87820
 535,38; 3143,080;  371,269; 8428,816;34,40018
 535,97; 3034,469;  271,500; 8438,180;33,83222
 536,55; 3059,244;  335,500; 8436,984;33,62031
 537,13; 3072,898;  337,962; 8424,050;33,82273
 537,71; 3114,051;  398,115; 8497,302;33,53344
 538,30; 3139,996;  405,038; 8573,814;33,48063
 538,88; 3200,840;  456,269; 8638,626;33,54254
 539,46; 3259,964;  504,423; 8857,816;32,98709
 540,05; 3300,949;  515,731; 9022,196;32,74236
 540,63; 3362,572;  579,038; 9196,528;32,30098
 541,21; 3441,002;  607,192; 9335,299;32,46763
 541,79; 3479,901;  625,577; 9481,666;32,23007
 542,38; 3535,795;  669,500; 9671,679;31,84001
 542,96; 3533,452;  683,731; 9754,889;31,41519
 543,54; 3634,245;  709,808;10000,676;31,47647
 544,12; 3622,063;  663,962;10109,591;31,31714
 544,70; 3664,137;  647,346;10233,843;31,46916
 545,29; 3716,009;  651,115;10370,917;31,53247
 545,87; 3680,901;  614,500;10354,743;31,48177
 546,45; 3663,454;  582,038;10386,253;31,42951
 547,03; 3650,726;  558,654;10467,715;31,20450
 547,62; 3679,326;  530,962;10653,348;31,10299
 548,20; 3731,387;  538,115;10779,728;31,17939
 548,78; 3693,697;  486,423;10925,398;30,72403
 549,36; 3706,972;  453,962;11155,455;30,39773
 549,94; 3719,096;  422,346;11245,765;30,45941
 550,53; 3806,401;  424,885;11498,226;30,53745
 551,11; 3802,366;  394,577;11672,315;30,21695
 551,69; 3850,798;  396,115;11948,922;29,90341
 552,27; 3886,097;  365,038;12236,161;29,66070
 552,85; 3972,856;  377,423;12632,125;29,33921
 553,44; 4056,737;  353,346;12964,685;29,36557
 554,02; 4124,770;  376,269;13292,914;29,02070
 554,60; 4136,661;  322,885;13590,015;28,74606
 555,18; 4241,410;  353,038;13980,822;28,53268
 555,76; 4324,936;  330,654;14322,884;28,54643
 556,34; 4423,577;  341,885;14749,859;28,32940
 556,93; 4518,454;  336,885;15172,681;28,18568
 557,51; 4544,266;  322,192;15452,758;27,90426
 558,09; 4647,110;  341,731;15818,308;27,81868
 558,67; 4725,950;  333,577;16272,778;27,55705
 559,25; 4816,780;  342,346;16498,620;27,69471
 559,83; 4833,813;  321,346;16792,069;27,39690
 560,41; 4932,832;  321,654;17089,920;27,49943
 561,00; 5026,898;  324,808;17544,950;27,30576
 561,58; 5010,249;  325,115;17802,215;26,80727
 562,16; 5124,479;  310,808;18089,765;27,07511
 562,74; 5199,345;  296,500;18466,364;26,98339
 563,32; 5241,072;  296,885;18901,956;26,57441
 563,90; 5366,424;  319,500;19225,980;26,69415
 564,48; 5434,010;  331,115;19715,059;26,32537
 565,06; 5586,744;  309,808;20302,203;26,39472
 565,65; 5788,762;  332,962;21053,394;26,33053
 566,23; 5961,473;  375,808;21763,708;26,11601
 566,81; 6120,424;  320,731;22534,276;26,10881
 567,39; 6300,676;  323,731;23391,095;25,91083
 567,97; 6442,651;  337,654;24075,923;25,71795
 568,55; 6681,206;  340,192;24940,500;25,77616
 569,13; 6794,392;  319,269;25716,915;25,49497
 569,71; 7023,354;  326,115;26523,806;25,56423
 570,29; 7302,778;  360,423;27524,520;25,55710
 570,87; 7487,179;  351,038;28246,294;25,58192
 571,45; 7590,007;  349,731;28940,168;25,32412
 572,03; 7643,118;  309,500;29319,672;25,27947
 572,61; 7803,376;  318,346;30091,570;25,14014
 573,20; 7943,824;  343,577;30802,984;24,95205
 573,78; 8100,162;  334,885;31392,619;25,00272
 574,36; 8184,020;  345,731;31858,325;24,87351
 574,94; 8274,251;  390,346;32171,479;24,80687
 575,52; 8293,759;  344,423;32508,833;24,71469
 576,10; 8427,961;  398,038;33097,726;24,55657
 576,68; 8506,927;  384,346;33670,068;24,40260
 577,26; 8677,221;  404,423;34392,207;24,34050
 577,84; 8768,793;  419,192;34817,019;24,27363
 578,42; 8878,462;  456,192;35116,188;24,29969
 579,00; 8773,943;  402,808;35219,589;24,04339
 579,58; 8809,774;  433,500;35475,101;23,90380
 580,16; 8739,637;  407,346;35395,084;23,81489
 580,74; 8773,499;  416,577;35642,363;23,72388
 581,32; 8727,733;  421,423;35722,222;23,53009
 581,90; 8703,268;  440,731;35659,616;23,46053
 582,48; 8711,033;  437,346;35790,362;23,40306
 583,06; 8650,551;  442,038;35917,433;23,13861
 583,64; 8672,381;  434,962;35964,923;23,18443
 584,22; 8532,107;  443,577;35726,262;22,92493
 584,80; 8419,151;  456,269;35520,473;22,70943
 585,38; 8218,545;  453,577;35051,432;22,44350
 585,96; 8186,348;  428,115;35327,639;22,23020
 586,54; 8137,949;  443,962;35329,283;22,05509
 587,12; 8104,082;  409,500;35514,893;21,91852
 587,70; 8162,672;  442,269;35567,765;21,97948
 588,28; 8033,495;  419,808;35550,241;21,67263
 588,86; 8032,253;  432,269;35756,535;21,51491
 589,44; 7975,396;  415,192;35741,883;21,40083
 590,02; 7981,954;  417,038;35957,790;21,28519
 590,59; 7929,658;  387,115;36167,431;21,08014
 591,17; 7928,539;  390,885;36466,616;20,89397
 591,75; 7896,360;  384,808;36467,884;20,81738
 592,33; 7919,870;  393,962;36730,062;20,71193
 592,91; 7911,198;  353,115;37037,925;20,60276
 593,49; 7987,062;  358,654;37303,963;20,64784
 594,07; 7963,385;  363,423;37459,341;20,48733
 594,65; 7901,540;  387,654;37510,166;20,24078
 595,23; 7949,177;  376,423;37928,304;20,16611
 595,81; 7910,890;  362,731;38015,640;20,04668
 596,39; 7948,497;  363,577;38176,593;20,05902
 596,97; 7928,020;  354,192;38384,908;19,91503
 597,55; 7906,484;  367,577;38254,886;19,89824
 598,12; 7815,544;  332,577;38262,299;19,72850
 598,70; 7810,446;  341,577;38486,106;19,58045
 599,28; 7810,790;  361,500;38511,633;19,52625
 599,86; 7822,093;  346,500;38552,862;19,56636
 600,44; 7767,855;  321,962;38576,311;19,46417
 601,02; 7819,233;  373,500;38749,100;19,40226
 601,60; 7719,805;  341,038;38697,659;19,23727
 602,18; 7721,321;  329,346;38785,576;19,22179
 602,75; 7657,412;  328,269;38803,283;19,04910
 603,33; 7643,737;  337,731;38876,651;18,95748
 603,91; 7569,160;  334,269;38762,903;18,82682
 604,49; 7578,462;  354,500;39019,770;18,68334
 605,07; 7563,773;  367,115;38929,309;18,66247
 605,65; 7599,341;  372,500;39057,384;18,68130
 606,23; 7557,006;  441,654;39162,772;18,37589
 606,80; 7611,618;  484,038;39179,650;18,41961
 607,38; 7558,038;  532,346;39252,605;18,14474
 607,96; 7563,711;  585,731;39311,182;18,01911
 608,54; 7532,778;  650,346;39361,750;17,77882
 609,12; 7513,885;  648,808;39457,869;17,68937
 609,70; 7504,688;  681,731;39456,329;17,59646
 610,27; 7436,493;  698,346;39510,790;17,36079
 610,85; 7433,490;  715,269;39531,316;17,30784
 611,43; 7382,895;  724,269;39489,366;17,17686
 612,01; 7265,607;  691,885;39247,438;17,05000
 612,59; 7213,215;  666,346;39372,282;16,91438
 613,16; 7170,670;  630,962;39262,357;16,92848
 613,74; 7081,543;  587,346;39180,255;16,82744
 614,32; 7042,183;  558,038;39119,207;16,81522
 614,90; 6990,405;  505,654;39002,028;16,84509
 615,48; 6911,419;  452,269;38679,472;16,89674
 616,05; 6829,249;  442,038;38711,468;16,69011
 616,63; 6770,232;  435,962;38426,617;16,67323
 617,21; 6704,327;  430,500;38429,589;16,51047
 617,79; 6634,084;  412,269;38349,321;16,40036
 618,36; 6582,595;  436,038;38212,522;16,27085
 618,94; 6454,780;  359,577;37842,202;16,26141
 619,52; 6433,334;  386,269;37594,074;16,25214
 620,10; 6392,946;  379,346;37596,029;16,15834
 620,67; 6313,423;  376,654;37423,836;16,02489
 621,25; 6272,024;  389,346;37387,458;15,89994
 621,83; 6252,715;  382,731;37283,018;15,90769
 622,41; 6248,901;  415,808;37245,313;15,83810
 622,98; 6143,479;  381,500;37057,687;15,71041
 623,56; 6124,200;  374,269;37060,904;15,67309
 624,14; 6072,028;  372,038;36896,492;15,60596
 624,72; 5994,974;  366,423;36805,059;15,44666
 625,29; 5961,544;  338,731;36811,585;15,41643
 625,87; 5982,878;  386,654;36768,570;15,38188
 626,45; 5896,143;  346,808;36602,712;15,30602
 627,02; 5826,497;  359,962;36497,571;15,12700
 627,60; 5761,410;  341,269;36387,766;15,03652
 628,18; 5778,655;  321,038;36548,946;15,06467
 628,76; 5707,957;  322,731;36569,121;14,85728
 629,33; 5727,860;  359,808;36454,192;14,87227
 629,91; 5658,023;  343,423;36571,106;14,67000
 630,49; 5710,880;  350,346;36709,000;14,74349
 631,06; 5681,985;  349,731;36822,755;14,61972
 631,64; 5617,082;  343,808;36825,530;14,45457
 632,22; 5583,361;  304,885;36673,961;14,51364
 632,79; 5601,782;  339,577;36958,411;14,37021
 633,37; 5619,833;  312,731;37034,338;14,45226
 633,95; 5575,211;  326,577;37104,995;14,27096
 634,52; 5542,375;  313,038;37302,515;14,13736
 635,10; 5571,420;  303,423;37244,330;14,26060
 635,68; 5552,911;  306,269;37506,855;14,10366
 636,25; 5494,226;  297,654;37350,088;14,02492
 636,83; 5536,572;  286,808;37668,813;14,04356
 637,41; 5506,470;  297,346;37698,432;13,92773
 637,98; 5516,401;  328,115;37810,401;13,84197
 638,56; 5483,866;  316,577;37946,227;13,73196
 639,13; 5463,062;  300,500;38049,722;13,67594
 639,71; 5537,354;  329,192;38263,761;13,72933
 640,29; 5380,209;  269,500;37964,487;13,55806
 640,86; 5406,818;  293,423;38153,763;13,50594
 641,44; 5374,888;  281,346;38199,193;13,43310
 642,02; 5351,421;  321,731;38183,930;13,28420
 642,59; 5329,414;  282,346;38318,514;13,26913
 643,17; 5330,947;  290,192;38282,328;13,26789
 643,74; 5285,479;  290,808;38244,219;13,16001
 644,32; 5279,627;  321,577;38250,111;13,07208
 644,89; 5252,851;  313,269;38269,617;13,01385
 645,47; 5256,076;  321,654;38218,124;13,02080
 646,05; 5240,608;  306,885;38210,092;13,01664
 646,62; 5146,294;  293,654;38114,522;12,83059
 647,20; 5168,672;  302,962;38329,721;12,79549
 647,77; 5123,128;  272,808;38130,920;12,81184
 648,35; 5078,660;  266,423;37999,119;12,75349
 648,92; 5085,115;  306,885;38079,088;12,65012
 649,50; 5009,802;  262,115;38039,902;12,56740
 650,08; 4989,872;  265,962;37965,947;12,53027
 650,65; 5004,789;  272,269;38310,762;12,44140
 651,23; 5048,167;  255,423;39231,114;12,29675
 651,80; 5173,469;  277,115;40069,929;12,30462
 652,38; 5262,155;  287,038;40408,436;12,40016
 652,95; 5267,918;  256,885;40720,481;12,38405
 653,53; 5283,835;  282,577;40985,372;12,28726
 654,10; 5339,213;  309,192;41108,802;12,32860
 654,68; 5234,746;  265,731;40947,001;12,21450
 655,25; 5254,047;  262,269;41112,277;12,21977
 655,83; 5208,502;  266,654;41205,245;12,07137
 656,40; 5238,573;  300,423;41075,906;12,11059
 656,98; 5173,875;  271,654;41032,412;12,02681
 657,55; 5183,484;  279,808;40907,458;12,06980
 658,13; 5112,247;  274,808;40464,657;12,03647
 658,70; 5061,010;  295,269;40129,163;11,96403
 659,28; 4903,696;  262,346;39177,132;11,92696
 659,85; 4777,228;  274,038;38537,946;11,76877
 660,43; 4779,837;  290,654;38646,991;11,70389
 661,00; 4760,523;  293,038;38760,729;11,61360
 661,58; 4762,363;  275,885;39129,774;11,54705
 662,15; 4781,280;  262,346;39264,434;11,58639
 662,73; 4846,659;  323,038;39606,710;11,51527
 663,30; 4802,268;  291,808;39815,525;11,41203
 663,88; 4793,492;  279,885;40035,493;11,35339
 664,45; 4793,409;  273,423;40158,846;11,33243
 665,03; 4859,095;  276,731;40622,814;11,35764
 665,60; 4984,781;  333,423;41056,475;11,42193
 666,17; 4900,237;  283,731;41113,597;11,30669
 666,75; 4923,154;  274,885;41549,719;11,26175
 667,32; 4976,840;  298,808;41808,610;11,26970
 667,90; 4993,834;  284,115;42052,040;11,27592
 668,47; 5017,597;  299,885;42370,008;11,21392
 669,05; 5031,437;  271,423;42644,130;11,23368
 669,62; 5003,046;  249,808;42709,329;11,19475
 670,19; 5045,039;  262,192;42779,528;11,24917
 670,77; 5070,110;  273,731;42938,804;11,24193
 671,34; 5040,566;  266,808;42901,849;11,19679
 671,92; 5093,559;  272,500;43237,048;11,22102
 672,49; 5069,630;  295,346;43311,248;11,09888
 673,06; 5032,778;  239,500;43309,754;11,12897
 673,64; 5014,695;  259,115;43204,722;11,07349
 674,21; 5066,458;  251,654;43246,460;11,19857
 674,79; 5126,221;  286,115;43497,428;11,20101
 675,36; 5089,753;  291,192;43619,166;11,07497
 675,93; 5041,747;  253,423;43560,442;11,05669
 676,51; 5103,663;  283,038;43729,871;11,09546
 677,08; 5115,965;  277,885;43754,763;11,12794
 677,65; 5104,574;  278,269;43940,500;11,05373
 678,23; 5091,260;  281,346;44130,161;10,96931
 678,80; 5128,100;  270,885;44373,129;11,01353
 679,38; 5139,863;  266,577;44304,790;11,06604
 679,95; 5177,319;  275,962;44614,296;11,05445
 680,52; 5149,082;  264,192;44900,265;10,94382
 681,10; 5227,229;  278,808;45342,079;10,98105
 681,67; 5303,300;  288,423;45536,970;11,08296
 682,24; 5237,678;  243,808;45571,323;11,01730
 682,82; 5303,672;  257,346;46229,061;10,97702
 683,39; 5379,281;  297,962;46520,952;10,99306
 683,96; 5404,044;  267,731;46722,305;11,05664
 684,54; 5416,807;  243,962;47125,735;11,03381
 685,11; 5487,878;  293,423;47460,472;11,01289
 685,68; 5510,641;  278,346;47742,364;11,02371
 686,25; 5476,404;  249,192;47904,101;10,96888
 686,83; 5527,552;  257,654;48006,992;11,03659
 687,40; 5596,699;  244,577;48348,961;11,12606
 687,97; 5639,616;  288,500;48733,237;11,04582
 688,55; 5611,764;  239,115;48764,743;11,07178
 689,12; 5626,758;  217,654;49038,558;11,07948
 689,69; 5705,751;  242,346;49099,680;11,18236
 690,26; 5677,207;  259,731;49118,417;11,08805
 690,84; 5741,431;  252,423;49439,847;11,15937
 691,41; 5762,040;  260,038;49440,354;11,18741
 691,98; 5786,342;  262,423;49817,322;11,14707
 692,56; 5819,028;  250,115;49900,367;11,21628
 693,13; 5867,714;  306,192;49890,259;11,21635
 693,70; 5914,785;  271,731;50019,458;11,34334
 694,27; 5848,548;  258,423;50213,272;11,19035
 694,84; 5863,388;  252,654;50310,548;11,20849
 695,42; 5950,382;  300,962;50417,208;11,27263
 695,99; 5965,991;  269,654;50645,407;11,30770
 696,56; 5914,754;  254,500;50515,453;11,26173
 697,13; 6020,209;  267,654;50913,421;11,35841
 697,71; 5996,972;  243,577;50972,235;11,34151
 698,28; 6052,274;  256,269;51287,357;11,35779
 698,85; 6055,652;  225,654;51342,710;11,40519
 699,42; 6097,338;  229,731;51554,525;11,43231
 699,99; 6144,101;  270,346;51607,339;11,44156
 700,57; 6162,095;  262,654;51750,769;11,45787
 701,14; 6162,243;  254,808;51804,583;11,45967
 701,71; 6245,390;  277,346;51996,090;11,53942
 702,28; 6232,153;  260,577;52057,520;11,52882
 702,85; 6255,224;  270,731;52204,103;11,52341
 703,43; 6294,987;  282,269;52378,302;11,54160
 704,00; 6358,519;  293,808;52569,194;11,60147
 704,57; 6379,744;  275,269;52546,931;11,67836
 705,14; 6435,199;  304,731;52893,284;11,65742
 705,71; 6446,885;  318,885;52852,637;11,66488
 706,28; 6415,571;  280,962;52672,528;11,70916
 706,86; 6515,642;  304,885;53007,112;11,78462
 707,43; 6547,097;  325,654;52823,234;11,85091
 708,00; 6583,707;  313,654;53015,587;11,89720
 708,57; 6527,931;  275,038;52818,401;11,90044
 709,14; 6609,156;  316,885;52948,216;11,95537
 709,71; 6680,919;  282,346;53138,261;12,10569
 710,28; 6690,912;  280,192;53277,152;12,09639
 710,86; 6733,829;  279,423;53350,505;12,16181
 711,43; 6780,285;  310,577;53411,858;12,18371
 712,00; 6771,586;  285,808;53506,057;12,18667
 712,57; 6836,195;  302,192;53589,410;12,26186
 713,14; 6814,574;  277,885;53697,917;12,23640
 713,71; 6859,106;  288,577;53589,270;12,32729
 714,28; 6857,561;  268,962;53752,545;12,31892
 714,85; 6882,863;  249,423;53429,591;12,47352
 715,42; 6878,164;  263,885;53628,328;12,39454
 716,00; 6993,927;  320,577;53693,604;12,50323
 716,57; 6989,998;  256,885;53922,726;12,54637
 717,14; 6990,376;  243,269;53812,310;12,59516
 717,71; 7003,370;  235,192;53903,663;12,61109
 718,28; 7090,672;  268,577;53911,323;12,71765
 718,85; 7071,127;  243,192;53946,215;12,71425
 719,42; 7105,198;  271,962;54165,029;12,67925
 719,99; 7094,730;  247,346;53946,074;12,75148
 720,56; 7129,955;  257,269;54266,812;12,72495
 721,13; 7137,410;  253,346;54251,934;12,74860
 721,70; 7173,557;  247,192;54074,517;12,86775
 722,27; 7210,782;  271,423;54144,178;12,88102
 722,84; 7314,930;  309,423;54464,377;12,93604
 723,41; 7245,923;  240,500;54436,191;12,92616
 723,98; 7342,840;  261,423;54679,160;13,01307
 724,55; 7389,757;  275,577;54755,513;13,05835
 725,12; 7392,443;  230,115;54644,712;13,16251
 725,69; 7455,514;  242,038;54851,834;13,20912
 726,27; 7481,277;  260,577;54974,033;13,19730
 726,84; 7585,502;  252,423;55210,078;13,34314
 727,41; 7605,572;  271,962;55244,431;13,34052
 727,98; 7691,643;  270,962;55533,322;13,42809
 728,55; 7709,483;  286,500;55444,675;13,45763
 729,12; 7711,246;  242,038;55556,259;13,50323
 729,69; 7815,163;  271,808;55690,919;13,61147
 730,26; 7883,080;  289,500;55942,195;13,64459
 730,82; 7856,381;  269,500;55695,933;13,68820
 731,39; 7890,375;  265,885;55874,285;13,71104
 731,96; 7975,830;  242,115;56214,638;13,81698
 732,53; 8078,132;  280,885;56462,760;13,87858
 733,10; 8112,203;  281,423;56431,190;13,94624
 733,67; 8168,119;  287,346;56770,235;13,95250
 734,24; 8128,959;  268,115;56295,896;14,03026
 734,81; 8224,569;  294,115;56373,710;14,14142
 735,38; 8231,332;  274,500;56148,756;14,24060
 735,95; 8243,633;  262,346;56016,416;14,31516
 736,52; 8300,473;  287,038;56195,077;14,33324
 737,09; 8300,390;  279,808;55860,276;14,43058
 737,66; 8373,230;  321,269;56040,705;14,45090
 738,23; 8422,377;  268,731;56052,674;14,61648
 738,80; 8550,371;  332,500;56347,873;14,67074
 739,37; 8558,442;  299,192;56498,687;14,69631
 739,94; 8636,590;  280,808;56708,655;14,80790
 740,51; 8730,045;  367,885;56626,239;14,86386
 741,07; 8722,193;  283,885;56573,515;14,99087
 741,64; 8720,879;  311,115;56893,637;14,86283
 742,21; 8814,642;  278,654;56898,144;15,07606
 742,78; 8840,943;  252,654;56613,574;15,23802
 743,35; 8899,629;  276,654;57035,234;15,19237
 743,92; 9022,546;  314,038;56995,972;15,36382
 744,49; 8998,155;  306,269;56873,940;15,36547
 745,06; 8989,687;  280,269;56886,447;15,38599
 745,63; 9053,835;  261,654;56945,415;15,51093
 746,19; 9121,290;  274,885;57000,845;15,59499
 746,76; 9101,438;  281,038;56956,659;15,56295
 747,33; 9174,740;  279,577;56968,935;15,69106
 747,90; 9288,733;  301,423;57139,980;15,81200
 748,47; 9296,419;  290,038;57165,333;15,83531
 749,04; 9367,106;  291,808;57131,071;15,96660
 749,61; 9380,330;  311,423;57093,039;15,97156
 750,17; 9483,709;  282,115;57106,546;16,19302
 750,74; 9469,779;  286,423;57024,898;16,18541
 751,31; 9462,696;  264,038;56927,174;16,23394
 751,88; 9476,151;  257,577;56853,373;16,28844
 752,45; 9553,838;  272,192;57005,188;16,36022
 753,02; 9575,985;  291,346;56822,002;16,42408
 753,58; 9572,287;  272,346;56781,817;16,45731
 754,15; 9653,204;  271,346;56886,554;16,57127
 754,72; 9658,813;  260,577;56616,522;16,67656
 755,29; 9623,037;  271,346;56526,029;16,62384
 755,86; 9681,416;  279,346;56682,767;16,66933
 756,42; 9774,948;  299,038;56458,350;16,87326
 756,99; 9740,172;  241,885;56505,318;16,88181
 757,56; 9777,243;  245,269;56515,671;16,93959
 758,13; 9768,852;  214,808;56396,024;17,00576
 758,70; 9834,923;  229,346;56416,839;17,09558
 759,26; 9868,071;  238,885;56489,191;17,11846
 759,83; 9984,988;  231,577;56605,083;17,30141
 760,40; 9902,520;  215,731;56292,820;17,27406
 760,97; 9955,360;  214,500;56490,327;17,30914
 761,53; 9903,738;  197,885;55935,911;17,41334
 762,10; 9933,809;  198,115;56052,187;17,43059
 762,67;10000,649;  227,885;55988,155;17,52639
 763,24; 9950,412;  193,808;55567,508;17,61956
 763,80;10024,329;  216,423;55749,168;17,66148
 764,37;10023,861;  227,885;55640,752;17,67816
 764,94;10014,778;  212,962;55194,797;17,82737
 765,50;10021,310;  217,423;55227,458;17,82200
 766,07;10092,535;  249,500;55253,195;17,89522
 766,64;10082,605;  231,269;54899,317;18,02028
 767,21;10077,984;  240,577;54836,593;18,01854
 767,77;10115,516;  258,346;54683,023;18,11158
 768,34;10168,894;  264,115;54707,299;18,19287
 768,91;10180,581;  258,885;54516,729;18,28620
 769,47;10176,574;  252,192;54527,697;18,28520
 770,04;10221,491;  252,038;54450,665;18,39429
 770,61;10225,485;  255,577;54103,095;18,51507
 771,18;10268,248;  239,115;54046,756;18,63886
 771,74;10296,088;  253,115;54264,108;18,59431
 772,31;10324,851;  253,654;53998,384;18,73895
 772,88;10324,845;  234,192;53686,660;18,87780
 773,44;10298,454;  235,115;53561,167;18,87134
 774,01;10385,678;  263,346;53655,443;18,95848
 774,58;10345,672;  248,038;53352,565;19,01464
 775,14;10435,435;  231,500;53508,841;19,15249
 775,71;10403,506;  232,500;53351,502;19,14759
 776,27;10490,038;  294,269;53306,701;19,23279
 776,84;10528,186;  303,808;53375,053;19,26538
 777,41;10538,026;  269,269;53063,406;19,45056
 777,97;10487,481;  240,192;52818,682;19,48951
 778,54;10536,475;  258,500;52950,189;19,50587
 779,11;10548,930;  274,269;52843,619;19,54497
 779,67;10665,847;  234,500;52834,818;19,83134
 780,24;10639,302;  256,192;52506,863;19,87173
 780,80;10698,373;  262,962;52651,601;19,91923
 781,37;10713,213;  255,654;52612,030;19,97380
 781,94;10682,053;  253,808;52334,229;20,02335
 782,50;10763,970;  268,654;52248,582;20,19109
 783,07;10797,579;  279,423;52270,166;20,23082
 783,63;10804,419;  242,577;52036,211;20,39216
 784,20;10826,028;  272,731;51992,410;20,40480
 784,77;10768,253;  262,038;51822,378;20,37654
 785,33;10756,939;  224,577;51675,577;20,47067
 785,90;10910,779;  252,269;51602,853;20,75636
 786,46;10900,388;  266,885;51617,129;20,70780
 787,03;10802,613;  241,500;51368,405;20,65666
 787,59;10878,529;  247,423;51254,450;20,84243
 788,16;10867,139;  256,808;51280,034;20,79510
 788,73;10897,440;  267,885;51134,695;20,89684
 789,29;10808,049;  250,423;50709,817;20,92301
 789,86;10861,274;  266,269;50648,862;21,02910
 790,42;10868,729;  258,962;50533,676;21,10359
 790,99;10774,108;  268,038;50126,183;21,07192
 791,55;10798,486;  235,115;50160,767;21,15820
 792,12;10869,711;  264,269;50128,043;21,26883
 792,68;10797,781;  249,808;49828,242;21,27533
 793,25;10771,390;  264,192;49595,979;21,29904
 793,81;10868,000;  304,038;49274,563;21,57208
 794,38;10693,916;  224,654;48975,916;21,47485
 794,94;10714,833;  246,423;48913,961;21,51005
 795,51;10760,596;  263,885;48574,775;21,72742
 796,07;10702,975;  251,192;48310,590;21,74764
 796,64;10762,892;  266,654;48374,250;21,81825
 797,20;10677,424;  253,962;47899,218;21,87723
 797,77;10627,956;  229,808;47614,802;21,94397
 798,33;10598,719;  248,577;47427,847;21,93790
 798,90;10687,251;  274,654;47415,200;22,08841
 799,46;10586,707;  251,654;46928,938;22,14150
 800,03;10578,854;  251,115;46876,137;22,15064
 800,59;10586,233;  266,808;46620,336;22,26244
 801,15;10597,303;  269,423;46291,688;22,44105
 801,72;10511,143;  258,038;46018,118;22,40622
 802,28;10492,445;  294,346;45817,240;22,40213
 802,85;10448,593;  248,423;45549,209;22,51654
 803,41;10492,663;  252,346;45477,023;22,64321
 803,98;10464,965;  246,038;44988,837;22,83926
 804,54;10386,189;  246,962;44593,575;22,86359
 805,11;10350,183;  254,808;44499,543;22,81712
 805,67;10407,177;  276,885;44357,588;22,98124
 806,23;10302,632;  261,731;43924,864;22,99629
 806,80;10361,472;  270,346;43861,063;23,14971
 807,36;10360,697;  279,423;43848,416;23,13864
 807,93;10355,767;  283,654;43528,769;23,29075
 808,49;10290,915;  242,500;43195,660;23,39389
 809,05;10250,447;  229,269;42921,552;23,47304
 809,62;10301,595;  267,115;42966,135;23,50049
 810,18;10268,589;  262,885;42795,719;23,52466
 810,74;10222,121;  232,962;42509,533;23,62812
 811,31;10227,730;  238,038;42307,425;23,74575
 811,87;10258,724;  245,962;42167,855;23,88433
 812,44;10276,025;  274,500;42128,438;23,89626
 813,00;10161,865;  207,962;41752,329;23,95969
 813,56;10254,628;  252,654;41901,452;24,01504
 814,13;10256,238;  253,346;41790,958;24,08153
 814,69;10240,693;  243,962;41632,157;24,15358
 815,25;10096,610;  220,038;41120,741;24,14768
 815,82;10207,988;  247,500;41064,402;24,40285
 816,38;10129,059;  274,269;40862,601;24,27986
 816,94;10070,668;  233,423;40639,492;24,34596
 817,51;10054,970;  218,269;40420,383;24,46812
 818,07;10037,579;  222,962;40125,967;24,59619
 818,63; 9949,419;  241,346;39966,781;24,43793
 819,20; 9962,028;  252,577;39812,980;24,54336
 819,76; 9900,022;  224,192;39399,641;24,69871
 820,32; 9914,785;  269,423;39327,609;24,69485
 820,89; 9854,855;  257,192;39165,347;24,66748
 821,45; 9791,388;  237,808;38806,776;24,77012
 822,01; 9799,843;  242,962;38571,591;24,93405
 822,57; 9800,375;  253,885;38439,328;25,00034
 823,14; 9740,907;  220,423;38234,912;25,04436
 823,70; 9702,978;  238,731;37973,419;25,08103
 824,26; 9673,357;  235,654;37874,233;25,07455
 824,82; 9683,658;  255,500;37617,586;25,23456
 825,39; 9582,267;  225,731;37362,785;25,19461
 825,95; 9663,799;  258,962;37430,369;25,30127
 826,51; 9590,947;  255,269;37014,952;25,39651
 827,08; 9674,556;  275,038;37182,690;25,46767
 827,64; 9568,858;  248,115;36880,273;25,44415
 828,20; 9493,775;  223,192;36556,703;25,51524
 828,76; 9550,768;  257,654;36628,133;25,55126
 829,32; 9573,916;  250,731;36463,024;25,74591
 829,89; 9552,141;  216,269;36350,069;25,83695
 830,45; 9550,365;  241,577;36198,192;25,88895
 831,01; 9540,051;  226,192;36027,006;26,01577
 831,57; 9532,276;  243,346;35901,974;26,04960
 832,14; 9544,500;  235,808;36020,712;26,01290
 832,70; 9493,956;  225,885;35719,065;26,11226
 833,26; 9459,488;  208,577;35634,725;26,11323
 833,82; 9459,020;  229,115;35582,540;26,10753
 834,38; 9512,014;  225,962;35534,739;26,29956
 834,95; 9480,546;  218,962;35426,399;26,30576
 835,51; 9460,617;  194,731;35223,906;26,45191
 836,07; 9540,611;  244,192;35315,413;26,50726
 836,63; 9560,220;  249,269;35359,073;26,51952
 837,19; 9581,752;  237,192;35115,580;26,79183
 837,75; 9492,208;  205,115;34793,625;26,85022
 838,32; 9556,663;  248,962;35016,670;26,77111
 838,88; 9589,734;  251,577;34949,100;26,91304
 839,44; 9593,727;  243,115;34841,914;27,02583
 840,00; 9526,875;  237,115;34913,267;26,79005
 840,56; 9511,792;  225,269;34495,082;27,09826
 841,12; 9544,016;  221,192;34474,435;27,21735
 841,68; 9485,087;  204,115;34229,710;27,27644
 842,25; 9490,158;  211,038;34307,063;27,21467
 842,81; 9442,229;  216,962;34010,493;27,29891
 843,37; 9482,068;  210,192;34050,692;27,39876
 843,93; 9467,062;  217,808;33889,968;27,46855
 844,49; 9552,671;  234,346;33999,629;27,59736
 845,05; 9396,511;  204,731;33864,828;27,30765
 845,61; 9474,967;  240,885;33911,642;27,42463
 846,17; 9505,884;  219,115;33661,149;27,76975
 846,73; 9509,493;  236,654;33700,194;27,71027
 847,29; 9471,948;  206,654;33508,624;27,82206
 847,86; 9484,711;  221,423;33454,130;27,87401
 848,42; 9439,782;  207,423;33202,176;27,98129
 848,98; 9454,314;  227,500;33204,452;27,97958
 849,54; 9461,077;  207,500;33322,497;27,94377
 850,10; 9502,225;  235,192;33044,696;28,24496
 850,66; 9458,988;  203,500;32992,818;28,22714
 851,22; 9420,289;  212,038;32836,094;28,22534
 851,78; 9498,514;  256,577;33003,447;28,22235
 852,34; 9448,969;  233,346;32705,723;28,37988
 852,90; 9479,194;  216,269;32541,076;28,65578
 853,46; 9427,957;  220,962;32350,044;28,65627
 854,02; 9487,643;  226,192;32339,474;28,83994
 854,58; 9402,175;  218,962;32114,365;28,79165
 855,14; 9390,861;  209,577;31986,872;28,89259
 855,70; 9316,316;  195,269;31876,532;28,79004
 856,26; 9374,926;  243,192;31822,577;28,91675
 856,82; 9359,150;  209,962;31688,315;29,06502
 857,38; 9433,529;  244,500;31559,591;29,34377
 857,94; 9333,061;  218,577;31394,636;29,23552
 858,50; 9336,747;  226,885;31348,912;29,27143
 859,06; 9315,972;  219,423;31076,111;29,47999
 859,62; 9358,042;  244,654;31126,464;29,51054
 860,18; 9320,728;  226,731;30817,509;29,72791
 860,74; 9319,953;  198,577;30798,477;29,80852
 861,30; 9279,485;  193,423;30541,215;29,93978
 861,86; 9356,633;  255,115;30505,414;30,08736
 862,42; 9319,396;  230,192;30400,459;30,12636
 862,98; 9338,928;  240,423;30387,350;30,18054
 863,54; 9279,230;  228,038;30150,242;30,24908
 864,10; 9320,531;  219,962;30201,056;30,35436
 864,66; 9327,679;  205,192;29923,024;30,69701
 865,22; 9291,134;  217,577;29811,839;30,65985
 865,78; 9303,897;  223,731;29690,961;30,81445
 866,34; 9280,737;  211,885;29597,006;30,86206
 866,90; 9247,115;  222,346;29420,667;30,90852
 867,45; 9265,571;  235,654;29264,789;31,10639
 868,01; 9233,257;  213,962;29055,295;31,27212
 868,57; 9176,174;  220,808;28985,494;31,13319
 869,13; 9143,167;  207,423;28866,386;31,17958
 869,69; 9138,469;  215,654;28720,277;31,30305
 870,25; 9157,155;  205,038;28589,399;31,53890
 870,81; 9153,303;  214,885;28596,060;31,49418
 871,37; 9196,066;  225,038;28482,105;31,74791
 871,93; 9137,290;  241,731;28352,765;31,64437
 872,49; 9111,746;  248,115;28082,580;31,84408
 873,04; 9030,585;  200,038;27863,702;31,92110
 873,60; 9047,195;  207,038;27770,363;32,07217
 874,16; 9012,804;  234,346;27685,946;31,97795
 874,72; 9003,265;  226,962;27621,562;32,03662
 875,28; 9024,804;  229,423;27516,792;32,23242
 875,84; 9026,881;  216,423;27487,792;32,30662
 876,40; 8990,496;  213,423;27417,715;32,26356
 876,95; 9021,035;  235,346;27372,177;32,37551
 877,51; 9045,727;  243,654;27370,408;32,44794
 878,07; 9119,650;  258,038;27391,946;32,65881
 878,63; 9093,496;  219,577;27445,869;32,59320
 879,19; 9168,419;  230,885;27405,946;32,88874
 879,75; 9194,881;  221,577;27378,946;33,04187
 880,30; 9230,958;  219,731;27367,254;33,19355
 880,86; 9323,342;  254,269;27563,177;33,20921
 881,42; 9301,881;  206,654;27593,485;33,21022
 881,98; 9307,650;  235,962;27669,638;33,06771
 882,54; 9407,573;  219,577;27798,869;33,31484
 883,09; 9505,804;  226,346;27836,638;33,60869
 883,65; 9451,727;  209,962;27868,946;33,41325
 884,21; 9594,265;  241,885;28166,177;33,49192
 884,77; 9617,496;  216,423;28058,254;33,76600
 885,32; 9703,881;  219,423;28323,638;33,74746
 885,88; 9716,650;  249,115;28499,485;33,51296
 886,44; 9825,342;  233,731;28539,869;33,88527
 887,00; 9855,650;  235,192;28524,792;34,00705
 887,56; 9893,265;  224,038;28664,100;33,99861
 888,11; 9930,881;  215,731;28673,331;34,13903
 888,67;10050,342;  249,346;28836,408;34,28473
 889,23;10038,112;  233,577;28767,023;34,36155
 889,79; 9971,342;  211,808;28654,715;34,31272
 890,34; 9967,958;  221,346;28536,331;34,42210
 890,90;10089,881;  280,192;28763,485;34,44015
 891,46;10014,881;  223,346;28688,100;34,39880
 892,01;10113,265;  236,269;28688,331;34,71452
 892,57;10061,496;  261,808;28568,869;34,61924
 893,13; 9998,188;  222,577;28388,254;34,70753
 893,69;10008,419;  216,885;28366,638;34,78373
 894,24; 9967,188;  230,962;28238,485;34,76290
 894,80; 9928,881;  228,654;28073,023;34,83730
 895,36; 9953,342;  226,269;27945,715;35,09115
 895,91; 9868,573;  224,115;27772,177;35,00957
 896,47; 9930,265;  227,654;27630,638;35,40713
 897,03; 9903,419;  207,423;27426,023;35,62269
 897,58; 9895,419;  229,885;27389,715;35,58761
 898,14; 9874,727;  234,115;27163,869;35,79911
 898,70; 9780,650;  200,192;27052,177;35,67877
 899,25; 9788,573;  214,192;27048,485;35,67965
 899,81; 9786,958;  240,423;26817,023;35,92083
 900,37; 9750,958;  195,654;26691,715;36,06311
 900,92; 9747,958;  226,577;26648,946;36,03530
 901,48; 9743,342;  210,885;26489,946;36,27397
 902,03; 9681,727;  222,192;26445,638;36,07281
 902,59; 9707,342;  216,577;26287,100;36,40420
 903,15; 9709,035;  228,577;26161,177;36,55807
 903,70; 9604,650;  213,500;25851,023;36,63049
 904,26; 9595,342;  211,962;25775,946;36,70547
 904,82; 9660,112;  214,192;25685,331;37,08479
 905,37; 9607,958;  221,038;25588,715;37,00346
 905,93; 9539,035;  205,192;25444,100;36,98196
 906,48; 9601,419;  229,577;25303,100;37,37745
 907,04; 9565,650;  238,500;25277,331;37,25074
 907,60; 9518,804;  218,115;25060,869;37,43823
 908,15; 9439,419;  206,038;24989,638;37,25601
 908,71; 9483,881;  246,654;25035,562;37,26355
 909,26; 9484,419;  204,808;24829,792;37,68373
 909,82; 9441,188;  243,423;24665,485;37,66171
 910,37; 9441,419;  260,577;24589,638;37,73611
 910,93; 9406,650;  203,500;24398,562;38,03731
 911,48; 9349,650;  203,192;24287,638;37,97662
 912,04; 9300,881;  203,192;24154,792;37,98364
 912,60; 9339,881;  225,269;24176,562;38,05478
 913,15; 9292,650;  218,808;23982,869;38,18304
 913,71; 9251,496;  215,192;23813,177;38,29269
 914,26; 9279,419;  195,577;23796,177;38,48988
 914,82; 9303,265;  220,423;23671,946;38,73029
 915,37; 9222,804;  202,115;23654,100;38,46450
 915,93; 9237,881;  247,885;23523,177;38,62463
 916,48; 9098,804;  208,423;23316,485;38,47307
 917,04; 9155,265;  234,192;23227,946;38,79781
 917,59; 9212,419;  249,346;23147,331;39,14350
 918,15; 9089,419;  189,192;22916,100;39,16163
 918,70; 9081,650;  211,500;22905,254;39,08631
 919,26; 9065,727;  213,885;22839,946;39,12233
 919,81; 9049,342;  198,731;22574,869;39,55379
 920,37; 9063,265;  210,115;22514,331;39,69272
 920,92; 9033,496;  221,962;22451,562;39,63875
 921,48; 8966,573;  191,885;22284,254;39,71819
 922,03; 8946,881;  211,346;22247,331;39,64213
 922,59; 8947,265;  210,192;22099,408;39,91497
 923,14; 8933,496;  201,885;22028,562;40,00431
 923,69; 8930,650;  229,731;21942,254;40,07328
 924,25; 8962,419;  231,654;21930,485;40,23611
 924,80; 8840,650;  215,269;21635,638;40,26719
 925,36; 8859,496;  205,115;21567,177;40,51285
 925,91; 8850,958;  216,115;21442,023;40,68067
 926,47; 8794,650;  201,500;21348,177;40,63594
 927,02; 8804,188;  241,885;21233,177;40,78979
 927,57; 8773,342;  211,808;21193,023;40,80571
 928,13; 8798,496;  205,500;21056,946;41,21055
 928,68; 8730,804;  206,423;20975,715;41,04319
 929,24; 8678,496;  173,423;20732,100;41,36975
 929,79; 8706,419;  196,808;20697,946;41,50800
 930,34; 8659,881;  206,731;20568,331;41,51516
 930,90; 8663,035;  193,577;20496,023;41,71644
 931,45; 8639,035;  214,038;20473,485;41,58552
 932,01; 8626,881;  222,577;20391,485;41,66960
 932,56; 8611,342;  227,346;20204,408;41,96811
 933,11; 8617,650;  226,500;20171,100;42,07229
 933,67; 8550,958;  206,192;20034,869;42,08433
 934,22; 8629,958;  205,654;19951,562;42,66354
 934,77; 8560,419;  228,654;19816,100;42,53625
 935,33; 8578,342;  219,654;19760,100;42,77634
 935,88; 8546,265;  215,115;19628,562;42,91433
 936,43; 8509,035;  201,731;19583,638;42,86113
 936,99; 8487,188;  213,038;19487,023;42,92911
 937,54; 8427,188;  190,731;19303,792;43,09335
 938,09; 8398,419;  218,885;19204,869;43,08196
 938,65; 8374,035;  213,423;19075,562;43,26451
 939,20; 8385,496;  191,192;19059,792;43,42826
 939,75; 8325,188;  194,423;18909,869;43,44414
 940,31; 8312,804;  187,346;18825,177;43,59658
 940,86; 8318,650;  218,654;18790,792;43,61370
 941,41; 8351,035;  270,192;18699,792;43,84708
 941,96; 8274,265;  202,192;18558,331;43,97479
 942,52; 8234,188;  201,654;18439,485;44,04326
 943,07; 8162,112;  190,577;18327,100;43,95294
 943,62; 8192,958;  199,962;18250,408;44,28143
 944,18; 8144,112;  186,731;18171,562;44,24496
 944,73; 8115,727;  204,808;18127,254;44,13973
 945,28; 8048,342;  172,423;17934,792;44,34048
 945,83; 8041,188;  197,115;17956,408;44,16884
 946,39; 8091,881;  197,654;17893,562;44,61047
 946,94; 8058,958;  217,500;17802,638;44,59139
 947,49; 8024,650;  198,038;17767,177;44,54750
 948,04; 8051,112;  230,038;17676,023;44,83022
 948,59; 8024,188;  218,885;17617,946;44,86049
 949,15; 7960,265;  183,192;17526,869;44,84097
 949,70; 7976,804;  205,731;17366,408;45,28419
 950,25; 7962,496;  222,654;17313,792;45,28570
 950,80; 7940,265;  179,115;17177,562;45,65800
 951,36; 7857,573;  177,038;17072,869;45,45816
 951,91; 7932,958;  220,577;17073,869;45,76186
 952,46; 7851,112;  190,654;16876,023;45,91123
 953,01; 7842,573;  216,192;16923,100;45,64807
 953,56; 7798,188;  179,115;16804,792;45,82715
 954,11; 7779,650;  202,500;16721,715;45,86870
 954,67; 7736,342;  195,885;16684,792;45,73049
 955,22; 7747,881;  171,577;16496,792;46,40860
 955,77; 7743,650;  233,885;16463,869;46,27093
 956,32; 7700,573;  244,423;16367,715;46,24459
 956,87; 7622,727;  191,269;16232,100;46,32838
 957,42; 7588,496;  195,500;16132,023;46,39027
 957,98; 7571,112;  200,192;16120,023;46,30024
 958,53; 7624,804;  219,115;16007,946;46,90460
 959,08; 7558,342;  187,808;15892,100;46,93325
 959,63; 7523,035;  195,500;15838,715;46,84161
 960,18; 7512,804;  220,192;15783,792;46,85684
 960,73; 7478,958;  206,115;15720,638;46,87764
 961,28; 7458,265;  177,885;15618,254;47,15160
 961,83; 7495,727;  225,962;15547,408;47,44830
 962,39; 7429,727;  194,808;15473,023;47,35448
 962,94; 7409,881;  215,115;15443,869;47,24461
 963,49; 7335,112;  207,115;15190,100;47,57394
 964,04; 7329,112;  216,038;15176,946;47,54440
 964,59; 7282,265;  181,808;15064,408;47,70979
 965,14; 7246,112;  223,115;15022,485;47,45470
 965,69; 7230,035;  211,115;14941,331;47,64981
 966,24; 7221,188;  202,577;14865,792;47,86543
 966,79; 7163,342;  216,731;14688,408;48,00143
 967,34; 7132,342;  186,731;14645,792;48,03639
 967,89; 7124,804;  205,500;14603,638;48,05693
 968,44; 7082,112;  213,885;14464,100;48,19736
 968,99; 7071,804;  208,577;14453,562;48,17995
 969,55; 7017,035;  221,885;14301,331;48,26291
 970,10; 6993,804;  218,808;14262,408;48,24259
 970,65; 6961,650;  225,654;14139,485;48,41223
 971,20; 6874,188;  196,269;14004,946;48,36031
 971,75; 6840,419;  177,115;13929,408;48,45231
 972,30; 6880,650;  207,808;13820,100;49,02071
 972,85; 6850,342;  195,346;13798,485;48,92251
 973,40; 6769,881;  194,500;13662,715;48,82147
 973,95; 6747,573;  212,192;13618,177;48,74973
 974,50; 6775,727;  230,808;13514,177;49,27153
 975,05; 6697,650;  216,115;13345,408;49,36698
 975,60; 6682,958;  225,269;13356,638;49,17757
 976,15; 6664,035;  200,731;13206,331;49,69631
 976,70; 6605,804;  210,038;13141,562;49,45872
 977,25; 6618,573;  215,654;13152,485;49,49372
 977,80; 6527,727;  197,500;12952,177;49,63063
 978,35; 6531,881;  215,962;12799,177;50,19321
 978,89; 6490,496;  193,115;12728,485;50,23690
 979,44; 6481,573;  208,192;12722,715;50,12880
 979,99; 6393,958;  192,577;12486,869;50,44114
 980,54; 6414,650;  232,808;12459,177;50,56155
 981,09; 6366,727;  213,962;12387,715;50,54123
 981,64; 6329,342;  222,808;12218,254;50,90711
 982,19; 6339,881;  246,577;12186,715;51,03210
 982,74; 6293,265;  229,038;12081,562;51,16402
 983,29; 6221,342;  193,269;11925,100;51,38220
 983,84; 6188,958;  221,346;11826,638;51,42147
 984,39; 6253,188;  245,808;11778,254;52,09112
 984,94; 6102,958;  182,577;11670,254;51,53680
 985,49; 6106,727;  243,192;11606,331;51,60137
 986,03; 6126,650;  228,808;11524,023;52,21540
 986,58; 6046,804;  244,346;11344,100;52,27555
 987,13; 5943,650;  214,346;11224,638;52,03589
 987,68; 5932,496;  223,038;11128,562;52,35382
 988,23; 5922,035;  225,885;11075,946;52,49878
 988,78; 5875,265;  212,808;10904,562;52,96098
 989,33; 5857,035;  218,500;10849,485;53,03869
 989,88; 5826,496;  234,269;10762,408;53,11696
 990,42; 5749,804;  211,269;10615,100;53,23553
 990,97; 5688,727;  212,654;10535,177;53,04975
 991,52; 5701,419;  228,962;10502,485;53,26759
 992,07; 5643,035;  248,423;10361,946;53,34058
 992,62; 5602,958;  225,038;10189,408;53,97150
 993,17; 5542,419;  225,269;10094,331;53,87696
 993,71; 5522,650;  219,885;10107,331;53,63129
 994,26; 5479,265;  205,731; 9964,254;54,04029
 994,81; 5493,035;  232,269; 9891,331;54,46456
 995,36; 5366,342;  208,115; 9678,946;54,46436
 995,91; 5393,727;  229,654; 9669,100;54,70737
 996,45; 5337,342;  218,885; 9569,254;54,74070
 997,00; 5307,035;  192,962; 9417,100;55,44228
 997,55; 5282,573;  221,192; 9413,177;55,06298
 998,10; 5257,804;  239,269; 9289,100;55,45446
 998,65; 5207,727;  211,731; 9197,946;55,59622
 999,19; 5154,958;  239,577; 9082,100;55,58799
 999,74; 5094,496;  251,577; 9015,562;55,25933
1000,29; 5052,650;  226,577; 8900,100;55,64144
1000,84; 4969,650;  213,346; 8722,792;55,89440
1001,38; 4952,112;  218,346; 8685,946;55,90445
1001,93; 4909,727;  227,115; 8630,408;55,72354
1002,48; 4829,342;  207,346; 8495,408;55,76691
1003,03; 4837,419;  221,038; 8441,177;56,15940
1003,57; 4809,419;  232,500; 8311,562;56,65162
1004,12; 4761,419;  242,962; 8265,100;56,32485
1004,67; 4698,573;  213,731; 8124,331;56,69409
1005,22; 4633,035;  208,115; 8027,485;56,58921
1005,76; 4544,573;  194,192; 7867,638;56,69396
1006,31; 4540,342;  231,731; 7860,331;56,47971
1006,86; 4433,573;  217,885; 7697,100;56,36538
1007,40; 4380,342;  196,038; 7572,638;56,72402
1007,95; 4349,727;  227,423; 7542,331;56,35483
1008,50; 4289,419;  215,962; 7394,638;56,74385
1009,04; 4243,650;  220,346; 7305,177;56,78758
1009,59; 4195,188;  228,577; 7163,408;57,19839
1010,14; 4098,804;  200,192; 7051,177;56,90586
1010,68; 4083,035;  216,885; 6957,100;57,35944
1011,23; 4039,496;  205,885; 6840,408;57,78277
1011,78; 3985,958;  227,654; 6773,485;57,41523
1012,32; 3947,112;  225,731; 6713,638;57,35872
1012,87; 3941,958;  245,577; 6661,408;57,61344
1013,42; 3859,035;  212,423; 6534,638;57,67933
1013,96; 3918,804;  230,962; 6541,023;58,44384
1014,51; 3862,804;  190,115; 6461,946;58,55848
1015,06; 3830,112;  196,038; 6426,869;58,32405
1015,60; 3919,727;  258,577; 6502,485;58,63556
1016,15; 3894,419;  205,115; 6444,562;59,12871
1016,69; 3908,112;  213,577; 6497,254;58,79574
1017,24; 3900,881;  176,192; 6482,023;59,06737
1017,79; 3991,650;  241,808; 6550,023;59,44379
1018,33; 3955,496;  199,654; 6533,792;59,29524
1018,88; 4019,804;  223,423; 6568,177;59,83496
1019,42; 4031,496;  211,192; 6560,792;60,16606
1019,97; 4001,265;  212,423; 6527,177;59,99984
1020,51; 4048,188;  224,962; 6566,562;60,28805
1021,06; 4010,265;  207,962; 6543,254;60,01781
1021,61; 4009,035;  181,115; 6513,792;60,44709
1022,15; 4009,419;  168,962; 6442,177;61,21992
1022,70; 4040,958;  203,731; 6440,946;61,52148
1023,24; 4032,342;  200,346; 6375,869;62,05136
1023,79; 3990,727;  220,192; 6347,177;61,53981
1024,33; 3972,265;  202,192; 6301,100;61,81555
1024,88; 3920,188;  208,577; 6204,023;61,90718
1025,42; 3893,419;  219,500; 6081,562;62,67282
1025,97; 3824,804;  206,269; 6018,254;62,25988
1026,51; 3749,958;  175,731; 5925,869;62,15897
1027,06; 3728,650;  201,423; 5861,715;62,31528
1027,60; 3688,804;  220,654; 5720,331;63,06098
1028,15; 3645,342;  223,423; 5677,485;62,74075
1028,69; 3541,419;  189,500; 5559,869;62,41506
1029,24; 3518,265;  194,038; 5506,869;62,56979
1029,78; 3469,727;  200,808; 5388,177;63,01690
1030,33; 3407,881;  185,423; 5294,177;63,07718
1030,87; 3394,188;  198,731; 5259,331;63,14385
1031,42; 3300,650;  189,808; 5108,869;63,24056
1031,96; 3308,419;  207,808; 5087,638;63,53933
1032,51; 3256,881;  183,346; 5015,408;63,60711
1033,05; 3239,727;  217,500; 4933,792;64,08057
1033,60; 3146,727;  177,577; 4828,408;63,84128
1034,14; 3102,035;  201,346; 4796,177;63,12939
1034,69; 3091,650;  204,038; 4723,946;63,88652
1035,23; 3032,112;  203,654; 4625,869;63,96020
1035,77; 3021,650;  196,577; 4560,792;64,73267
1036,32; 2958,727;  168,885; 4510,100;64,26408
1036,86; 2941,727;  206,038; 4476,254;64,06441
1037,41; 2899,650;  218,654; 4393,715;64,21453
1037,95; 2842,573;  173,885; 4305,715;64,58852
1038,50; 2821,188;  187,115; 4273,792;64,45513
1039,04; 2802,958;  209,115; 4244,562;64,27647
1039,58; 2758,650;  178,808; 4137,408;65,17057
1040,13; 2734,035;  198,115; 4066,946;65,54743
1040,67; 2717,112;  225,577; 4075,177;64,72191
1041,21; 2682,727;  224,115; 3994,023;65,21676
1041,76; 2615,035;  182,423; 3893,562;65,54893
1042,30; 2602,650;  201,269; 3857,946;65,67112
1042,85; 2584,112;  197,269; 3804,715;66,16432
1043,39; 2523,727;  199,577; 3746,638;65,52325
1043,93; 2523,958;  211,423; 3715,869;65,98859
1044,48; 2464,573;  209,808; 3657,408;65,40101
1045,02; 2444,958;  202,115; 3598,562;66,03497
1045,56; 2431,573;  225,115; 3584,100;65,68823
1046,11; 2393,035;  209,808; 3527,331;65,80894
1046,65; 2346,727;  208,962; 3443,331;66,09528
1047,19; 2311,573;  196,038; 3395,254;66,12667
1047,74; 2279,650;  190,731; 3358,100;65,95124
1048,28; 2246,342;  206,500; 3297,177;65,99986
1048,82; 2255,496;  226,038; 3301,254;65,99400
1049,37; 2214,035;  214,654; 3222,562;66,47082
1049,91; 2179,419;  203,115; 3174,331;66,51500
1050,45; 2147,035;  229,346; 3154,715;65,55372
1050,99; 2135,650;  206,577; 3058,177;67,64880
1051,54; 2076,573;  191,500; 3019,792;66,65057
1052,08; 2085,958;  227,885; 3021,408;66,51361
1052,62; 2066,496;  215,654; 2969,485;67,20973
1053,16; 2012,573;  201,115; 2912,100;66,81918
1053,71; 2009,496;  222,423; 2899,177;66,76270
1054,25; 1965,881;  216,731; 2838,408;66,71875
1054,79; 1953,727;  218,346; 2781,715;67,69921
1055,33; 1898,727;  183,115; 2715,946;67,73495
1055,88; 1928,573;  219,654; 2728,946;68,10363
1056,42; 1905,881;  220,192; 2698,946;68,00548
1056,96; 1882,958;  219,577; 2620,177;69,29021
1057,50; 1855,496;  219,192; 2593,254;68,92424
1058,05; 1826,188;  211,192; 2561,869;68,70345
1058,59; 1847,035;  231,731; 2519,792;70,59705
1059,13; 1749,112;  193,654; 2461,408;68,59024
1059,67; 1765,419;  220,731; 2447,485;69,36952
1060,21; 1733,035;  217,346; 2385,485;69,90736
1060,76; 1717,958;  226,269; 2370,869;69,55556
1061,30; 1712,881;  225,731; 2370,562;69,33647
1061,84; 1662,958;  214,115; 2323,869;68,67352
1062,38; 1619,419;  198,192; 2263,100;68,82763
1062,92; 1662,573;  242,038; 2284,485;69,55065
1063,46; 1597,804;  228,808; 2236,638;68,18285
1064,01; 1571,573;  212,346; 2186,331;68,85702
1064,55; 1568,573;  219,346; 2165,100;69,34212
1065,09; 1514,496;  193,885; 2086,562;69,77480
1065,63; 1542,804;  241,423; 2113,562;69,51306
1066,17; 1532,650;  231,654; 2096,408;69,76772
1066,71; 1521,496;  225,962; 2081,408;69,82335
1067,25; 1475,727;  203,577; 2020,408;70,02028
1067,80; 1476,112;  227,654; 2028,177;69,33861
1068,34; 1467,573;  239,192; 2025,023;68,78484
1068,88; 1422,881;  214,423; 1941,715;69,96255
1069,42; 1441,265;  239,192; 1969,177;69,48461
1069,96; 1384,496;  213,577; 1901,331;69,37737
1070,50; 1417,496;  249,808; 1936,638;69,22381
1071,04; 1364,573;  205,962; 1845,023;70,68749
1071,58; 1364,650;  209,808; 1821,869;71,63761
1072,12; 1350,958;  207,731; 1823,792;70,74155
1072,66; 1343,958;  213,962; 1796,638;71,39778
1073,21; 1343,650;  231,423; 1807,331;70,57691
1073,75; 1321,342;  217,808; 1748,177;72,10904
1074,29; 1309,804;  220,808; 1742,638;71,55830
1074,83; 1289,265;  246,115; 1746,792;69,51196
1075,37; 1277,035;  228,654; 1686,562;71,90996
1075,91; 1264,342;  234,731; 1694,715;70,52208
1076,45; 1250,958;  223,885; 1669,485;71,04822
1076,99; 1247,342;  229,192; 1639,100;72,21395
1077,53; 1217,112;  214,423; 1599,331;72,40110
1078,07; 1227,496;  230,115; 1586,792;73,51645
1078,61; 1205,188;  222,038; 1560,946;73,42926
1079,15; 1184,342;  215,346; 1550,946;72,55137
1079,69; 1183,035;  226,885; 1530,946;73,32093
1080,23; 1184,727;  239,500; 1534,946;72,96536
1080,77; 1204,881;  260,962; 1525,562;74,64172
1081,31; 1124,419;  203,654; 1467,254;72,86842
1081,85; 1120,650;  243,269; 1473,177;71,33712
1082,39; 1114,496;  223,654; 1449,177;72,69078
1082,93; 1122,265;  232,115; 1434,869;74,00932
1083,47; 1091,881;  213,731; 1386,638;74,86949
1084,01; 1118,881;  239,269; 1409,254;75,18146
1084,55; 1076,804;  213,038; 1378,177;74,13414
1085,09; 1076,573;  236,654; 1364,331;74,48226
1085,63; 1062,727;  224,500; 1351,869;74,35247
1086,17; 1023,112;  205,423; 1325,331;73,01392
1086,71; 1018,573;  215,577; 1304,792;73,72244
1087,24; 1041,727;  248,192; 1333,869;73,09123
1087,78; 1026,265;  235,731; 1295,254;74,61231
1088,32;  980,958;  211,885; 1270,792;72,62891
1088,86; 1008,804;  241,269; 1277,869;74,04347
1089,40;  982,342;  230,423; 1241,638;74,35797
1089,94;  948,573;  198,654; 1216,946;73,64479
1090,48;  968,035;  228,808; 1226,869;74,06627
1091,02;  971,112;  232,731; 1220,177;74,77681
1091,56;  934,650;  223,192; 1189,792;73,60415
1092,10;  918,650;  204,654; 1167,946;74,12040
1092,63;  951,342;  246,808; 1166,254;76,62598
1093,17;  929,727;  226,577; 1152,715;75,92277
1093,71;  900,419;  216,808; 1130,792;74,79464
1094,25;  920,112;  243,885; 1136,331;75,77229
1094,79;  875,573;  227,654; 1119,254;72,66927
1095,33;  878,342;  224,577; 1105,408;74,22145
1095,87;  879,804;  226,654; 1092,638;75,42282
1096,40;  842,419;  209,500; 1048,023;75,48024
1096,94;  870,112;  224,423; 1081,331;75,35099
1097,48;  856,650;  229,346; 1054,562;76,01698
1098,02;  827,573;  221,577; 1030,946;74,87265
1098,56;  799,881;  195,192;  992,715;75,82081
1099,10;  797,650;  199,346;  996,869;75,02026
1099,63;  795,958;  207,192;  988,485;75,35789
1100,17;  820,265;  227,654;  988,100;77,92945
1100,71;  818,650;  235,962;  995,946;76,67109

