
Integration time [ms]: 140,000
Averaging Nr. [scans]: 13
Smoothing Nr. [pixels]: 0
Data measured with spectrometer [name]: 2009305U1
Wave   ;Sample   ;Dark     ;Reference;Reflectance
[nm]   ;[counts] ;[counts] ;[counts] ;[%]

 175,72;  209,116;  198,885;  194,139; 0,00000
 176,32;  237,868;  212,577;  214,894;1091,46156
 176,92;  264,281;  235,808;  244,072;344,53244
 177,52;  263,620;  242,038;  254,270;176,43834
 178,12;  246,740;  232,038;  214,800; 0,00000
 178,72;  276,760;  256,423;  239,900; 0,00000
 179,32;  270,929;  236,500;  245,616;377,67678
 179,92;  273,891;  240,192;  244,573;769,31431
 180,52;  250,422;  221,269;  247,993;109,08947
 181,12;  268,909;  239,115;  248,829;306,72600
 181,73;  287,394;  260,038;  272,399;221,30626
 182,33;  391,280;  313,423;  327,745;543,61057
 182,93;  287,401;  247,885;  257,773;399,62776
 183,53;  245,213;  238,115;  216,783; 0,00000
 184,13;  250,711;  237,731;  227,450; 0,00000
 184,73;  289,242;  250,500;  265,230;263,01561
 185,33;  295,297;  224,808;  337,380;62,61680
 185,93;  296,325;  222,192;  357,456;54,80592
 186,53;  313,194;  240,269;  368,442;56,89565
 187,13;  322,427;  264,269;  410,740;39,70578
 187,73;  293,490;  231,654;  360,523;47,98313
 188,33;  296,555;  235,038;  362,886;48,11718
 188,93;  307,251;  245,346;  364,048;52,15165
 189,53;  313,519;  247,423;  379,952;49,87268
 190,13;  339,687;  267,192;  399,816;54,66250
 190,73;  281,601;  217,115;  348,335;49,14347
 191,34;  320,447;  241,885;  382,405;55,90807
 191,94;  297,705;  238,885;  363,129;47,34216
 192,54;  314,714;  244,269;  382,672;50,89854
 193,14;  320,854;  258,423;  381,975;50,52989
 193,74;  314,218;  249,577;  378,895;49,98648
 194,34;  302,130;  246,115;  391,808;38,44712
 194,94;  268,481;  208,885;  348,554;42,66935
 195,54;  259,229;  211,962;  329,008;40,38343
 196,14;  278,374;  214,115;  355,392;45,48395
 196,74;  268,645;  219,269;  350,867;37,52008
 197,34;  250,282;  193,346;  344,458;37,67800
 197,94;  290,371;  227,500;  369,717;44,20748
 198,54;  287,742;  221,731;  381,114;41,41666
 199,14;  271,196;  198,423;  392,861;37,42752
 199,74;  258,415;  189,577;  384,358;35,34138
 200,34;  264,410;  185,269;  383,225;39,97909
 200,94;  297,420;  228,192;  430,230;34,26491
 201,54;  289,517;  204,885;  445,029;35,24207
 202,14;  306,525;  221,808;  459,331;35,66710
 202,74;  283,928;  211,577;  467,298;28,29311
 203,34;  269,118;  184,269;  506,588;26,32438
 203,94;  239,928;  161,731;  498,587;23,21385
 204,54;  309,955;  227,654;  568,369;24,15546
 205,14;  278,795;  197,500;  584,198;21,02297
 205,74;  324,064;  219,577;  676,516;22,86677
 206,34;  296,598;  191,731;  688,401;21,11397
 206,94;  298,538;  201,269;  739,114;18,08486
 207,54;  279,649;  169,808;  782,495;17,92782
 208,14;  316,320;  199,654;  878,083;17,19649
 208,74;  316,232;  199,269;  955,907;15,45816
 209,34;  318,655;  192,115; 1027,063;15,15541
 209,94;  342,124;  207,731; 1128,175;14,60090
 210,54;  337,473;  197,038; 1247,802;13,36499
 211,14;  371,609;  205,192; 1350,488;14,53046
 211,73;  371,086;  201,038; 1429,915;13,83761
 212,33;  402,509;  210,731; 1566,271;14,14773
 212,93;  397,255;  197,885; 1674,297;13,50371
 213,53;  368,451;  173,346; 1722,943;12,59066
 214,13;  425,461;  197,885; 1797,819;14,22410
 214,73;  417,294;  182,500; 1804,177;14,47850
 215,33;  392,816;  150,038; 1838,021;14,38272
 215,93;  447,132;  187,654; 1998,888;14,32604
 216,53;  421,108;  152,731; 2035,716;14,25277
 217,13;  517,060;  211,885; 2258,867;14,90856
 217,73;  512,801;  182,500; 2461,267;14,49471
 218,33;  492,423;  144,269; 2676,129;13,75091
 218,93;  584,481;  171,192; 2966,220;14,78657
 219,53;  641,796;  179,731; 3295,780;14,82855
 220,13;  643,392;  155,423; 3570,116;14,29026
 220,73;  718,562;  180,346; 3949,708;14,27870
 221,32;  801,770;  181,885; 4374,676;14,78455
 221,92;  854,026;  180,885; 4782,807;14,62739
 222,52;  913,057;  160,731; 5215,943;14,88219
 223,12;  978,791;  168,962; 5654,204;14,76378
 223,72; 1062,164;  183,115; 6040,009;15,00878
 224,32; 1110,315;  184,115; 6387,058;14,93162
 224,92; 1150,205;  165,423; 6707,578;15,05287
 225,52; 1242,526;  193,808; 7079,458;15,23049
 226,12; 1248,440;  180,500; 7367,553;14,85922
 226,72; 1284,273;  158,577; 7643,073;15,04037
 227,31; 1336,702;  144,346; 8072,747;15,03904
 227,91; 1450,876;  183,038; 8400,077;15,42937
 228,51; 1479,362;  166,962; 8796,101;15,20893
 229,11; 1576,940;  166,346; 9149,705;15,70230
 229,71; 1601,080;  171,731; 9467,089;15,37702
 230,31; 1686,955;  162,269; 9866,529;15,71151
 230,91; 1747,072;  156,346;10119,172;15,96661
 231,51; 1807,537;  160,115;10463,788;15,98869
 232,10; 1849,763;  167,423;10748,070;15,90016
 232,70; 1927,284;  170,731;10896,423;16,37706
 233,30; 1977,475;  188,038;11097,703;16,40230
 233,90; 2003,904;  170,808;11212,685;16,60131
 234,50; 2044,752;  167,192;11365,048;16,76713
 235,10; 2088,205;  170,962;11313,117;17,20712
 235,70; 2128,102;  184,346;11380,379;17,36112
 236,29; 2136,085;  184,731;11221,557;17,68039
 236,89; 2139,085;  156,346;11176,730;17,99156
 237,49; 2141,578;  184,731;11057,044;17,99844
 238,09; 2122,598;  171,346;10711,017;18,51340
 238,69; 2136,746;  200,962;10453,966;18,88017
 239,29; 2089,964;  176,808;10203,068;19,08145
 239,89; 2046,502;  185,885; 9735,825;19,48303
 240,48; 1988,180;  170,500; 9401,768;19,69047
 241,08; 1960,274;  168,500; 9000,173;20,28805
 241,68; 1953,437;  183,269; 8756,597;20,64738
 242,28; 1872,911;  163,192; 8416,797;20,71481
 242,88; 1879,218;  200,038; 8101,316;21,25200
 243,48; 1857,436;  198,192; 7858,316;21,66079
 244,07; 1834,382;  191,038; 7637,367;22,06918
 244,67; 1830,296;  186,654; 7467,463;22,57500
 245,27; 1830,009;  195,885; 7301,300;22,99829
 245,87; 1851,277;  201,885; 7239,829;23,43571
 246,47; 1850,195;  183,423; 7237,856;23,62730
 247,06; 1885,717;  173,346; 7239,251;24,23427
 247,66; 1946,287;  175,962; 7345,911;24,69091
 248,26; 2004,351;  206,269; 7426,757;24,90250
 248,86; 2083,479;  191,654; 7645,928;25,37907
 249,46; 2169,088;  146,577; 7907,598;26,05985
 250,05; 2301,127;  190,269; 8311,619;25,99146
 250,65; 2405,760;  153,423; 8633,197;26,56128
 251,25; 2563,853;  171,962; 9141,457;26,66695
 251,85; 2763,454;  170,885; 9627,836;27,41443
 252,44; 2989,430;  144,808;10290,197;28,03857
 253,04; 3224,562;  191,269;11056,016;27,91867
 253,64; 3453,187;  139,962;11781,817;28,45960
 254,24; 3804,369;  194,731;12753,506;28,74196
 254,84; 4079,472;  171,346;13701,290;28,88501
 255,43; 4405,115;  182,346;14745,393;28,99646
 256,03; 4805,613;  180,423;15726,694;29,75112
 256,63; 5161,668;  172,577;16777,635;30,04561
 257,23; 5484,353;  156,423;17678,524;30,40691
 257,82; 5840,773;  182,115;18683,692;30,58473
 258,42; 6151,788;  144,577;19470,350;31,08394
 259,02; 6536,019;  188,654;20408,779;31,39133
 259,62; 6822,145;  166,731;21227,235;31,60140
 260,21; 7059,600;  173,577;21700,167;31,98845
 260,81; 7290,618;  171,423;22238,712;32,26130
 261,41; 7478,325;  151,577;22766,146;32,39836
 262,01; 7718,939;  212,423;23282,445;32,53796
 262,60; 7817,430;  165,192;23627,754;32,61467
 263,20; 7979,312;  171,654;23933,216;32,85835
 263,80; 8151,011;  202,346;24178,746;33,15204
 264,40; 8225,418;  162,885;24506,470;33,11975
 264,99; 8289,123;  185,192;24597,638;33,19590
 265,59; 8364,336;  169,962;24750,016;33,33749
 266,19; 8479,692;  169,423;24877,551;33,63374
 266,78; 8592,360;  199,654;25111,361;33,68981
 267,38; 8572,748;  192,038;25081,439;33,67180
 267,98; 8510,336;  170,654;25055,971;33,51246
 268,58; 8622,562;  189,115;25099,729;33,85483
 269,17; 8592,126;  164,269;25101,731;33,79597
 269,77; 8524,729;  183,192;24914,407;33,72878
 270,37; 8484,195;  159,115;24814,247;33,76611
 270,96; 8465,372;  202,115;24738,414;33,67768
 271,56; 8356,866;  174,885;24422,386;33,74361
 272,16; 8224,454;  173,577;24236,163;33,45807
 272,75; 8166,062;  181,962;24253,436;33,16831
 273,35; 8163,968;  182,346;24217,954;33,20749
 273,95; 8119,973;  183,962;24113,241;33,16444
 274,54; 8169,430;  160,500;24177,459;33,34698
 275,14; 8216,851;  184,038;24551,286;32,96562
 275,74; 8198,734;  151,115;24636,228;32,86739
 276,33; 8307,988;  192,808;25057,265;32,63767
 276,93; 8413,842;  182,962;25419,497;32,61494
 277,53; 8544,842;  172,731;25939,208;32,49226
 278,12; 8653,322;  157,808;26549,484;32,19013
 278,72; 8909,631;  197,423;27036,823;32,46052
 279,32; 9051,957;  176,500;27638,360;32,31921
 279,91; 9310,161;  153,038;28385,629;32,43458
 280,51; 9481,956;  177,269;28964,002;32,32283
 281,11; 9765,051;  175,346;29611,535;32,57794
 281,70; 9874,483;  154,346;30149,776;32,40539
 282,30;10088,559;  164,654;30724,079;32,47412
 282,90;10284,664;  164,038;31099,244;32,71556
 283,49;10445,726;  191,038;31658,220;32,58851
 284,09;10682,474;  197,346;32141,071;32,82375
 284,69;10885,920;  197,962;32410,566;33,17943
 285,28;11025,332;  192,731;32713,804;33,30948
 285,88;11208,636;  216,885;33022,175;33,50603
 286,47;11283,291;  175,885;33040,747;33,79721
 287,07;11418,277;  203,115;33209,939;33,97831
 287,67;11632,436;  191,731;33227,393;34,63138
 288,26;11671,025;  168,731;33261,270;34,75797
 288,86;11894,292;  174,192;33178,675;35,51063
 289,46;12083,291;  175,038;33425,470;35,81383
 290,05;12224,787;  165,346;33465,267;36,21462
 290,65;12420,030;  181,423;33691,372;36,52231
 291,24;12731,043;  179,885;33790,296;37,34307
 291,84;12915,668;  195,192;33940,866;37,69513
 292,44;13171,620;  177,577;34099,844;38,30535
 293,03;13399,335;  233,962;34218,710;38,73906
 293,63;13480,708;  175,192;34392,765;38,88504
 294,22;13703,221;  204,500;34567,197;39,28307
 294,82;13800,609;  178,654;34475,494;39,71781
 295,41;13698,714;  157,038;34206,853;39,77019
 296,01;13789,991;  212,346;34142,416;40,01655
 296,61;13710,500;  188,192;33924,443;40,08243
 297,20;13487,279;  186,808;33479,263;39,95041
 297,80;13466,106;  193,885;33355,335;40,02304
 298,39;13295,915;  165,346;32937,221;40,06658
 298,99;13231,866;  182,577;32776,047;40,03651
 299,58;13089,077;  183,731;32564,734;39,85468
 300,18;12949,473;  210,038;32367,463;39,61584
 300,78;12759,917;  168,500;32039,565;39,50736
 301,37;12725,825;  190,808;32069,394;39,32112
 301,97;12641,028;  184,731;32099,529;39,02985
 302,56;12545,265;  173,577;32028,071;38,83813
 303,16;12432,529;  169,500;32023,062;38,49814
 303,75;12377,028;  186,577;32042,022;38,26803
 304,35;12398,863;  166,038;32181,044;38,20966
 304,94;12405,526;  179,808;32172,938;38,21357
 305,54;12278,232;  200,577;32176,138;37,77152
 306,13;12201,010;  148,192;32032,317;37,80194
 306,73;12043,648;  158,731;31845,702;37,50727
 307,33;12001,581;  197,038;31844,380;37,30026
 307,92;11940,290;  181,423;31842,574;37,13973
 308,52;12045,229;  162,269;32376,636;36,88714
 309,11;12216,301;  177,962;32817,982;36,88214
 309,71;12256,186;  167,038;33109,877;36,69735
 310,30;12301,836;  159,731;33236,224;36,70917
 310,90;12423,682;  185,500;33657,455;36,56250
 311,49;12358,426;  171,423;33826,856;36,21110
 312,09;12394,121;  152,654;34043,096;36,12070
 312,68;12599,681;  212,115;34361,328;36,27482
 313,28;12538,444;  160,192;34513,882;36,03180
 313,87;12501,321;  151,115;34608,998;35,84145
 314,47;12616,603;  168,577;34826,849;35,91647
 315,06;12603,987;  154,654;35044,811;35,68151
 315,66;12684,505;  163,500;35269,404;35,66638
 316,25;12597,478;  150,808;34996,738;35,71915
 316,85;12571,279;  144,115;35097,641;35,55339
 317,44;12640,233;  166,269;35279,072;35,52540
 318,04;12649,619;  153,500;35247,416;35,60765
 318,63;12547,741;  147,192;35260,288;35,31602
 319,22;12660,487;  171,654;35497,982;35,35276
 319,82;12648,618;  167,192;35447,366;35,37802
 320,41;12586,480;  181,808;35402,101;35,22024
 321,01;12600,030;  178,269;35423,385;35,24392
 321,60;12628,732;  172,577;35509,159;35,25003
 322,20;12578,250;  168,269;35551,521;35,07304
 322,79;12615,927;  194,500;35612,551;35,07089
 323,39;12662,295;  165,269;35640,824;35,22715
 323,98;12643,001;  162,423;35611,523;35,20704
 324,58;12604,476;  159,731;35507,991;35,20610
 325,17;12658,608;  164,423;35274,887;35,58536
 325,76;12556,608;  193,808;35144,329;35,37229
 326,36;12493,058;  146,731;34762,320;35,66696
 326,95;12463,648;  186,577;34398,048;35,88583
 327,55;12346,905;  156,577;34057,004;35,95922
 328,14;12200,087;  150,885;33691,567;35,92414
 328,74;12191,354;  194,962;33252,112;36,28986
 329,33;12088,960;  180,654;32756,420;36,55572
 329,92;11947,338;  156,346;32223,853;36,76928
 330,52;11788,096;  177,808;31630,810;36,91313
 331,11;11673,441;  169,577;31175,745;37,10186
 331,71;11525,315;  173,808;30580,399;37,33239
 332,30;11426,911;  191,500;30132,092;37,52568
 332,89;11338,781;  211,808;29601,975;37,85951
 333,49;11152,972;  180,577;29070,403;37,98014
 334,08;11032,427;  173,654;28700,572;38,06501
 334,68;10946,169;  169,962;28175,868;38,47834
 335,27;10899,795;  184,885;27899,410;38,66171
 335,86;10919,749;  210,192;27655,591;39,02132
 336,46;10813,217;  193,115;27396,127;39,04017
 337,05;10807,024;  164,731;27230,573;39,32001
 337,65;10844,954;  162,731;27034,608;39,75243
 338,24;11002,567;  218,962;27080,226;40,14556
 338,83;11030,357;  198,885;26935,049;40,51244
 339,43;11110,746;  161,731;26876,070;40,98554
 340,02;11133,331;  161,038;26844,927;41,11954
 340,61;11302,740;  165,038;26857,687;41,72573
 341,21;11385,277;  199,500;26897,728;41,89708
 341,80;11439,395;  168,192;26766,016;42,37641
 342,40;11580,886;  178,808;26944,325;42,59988
 342,99;11776,166;  169,115;27100,513;43,09858
 343,58;11974,576;  166,962;27219,650;43,64673
 344,18;12133,172;  182,423;27366,421;43,96244
 344,77;12359,128;  154,500;27598,630;44,47081
 345,36;12621,341;  156,885;28008,355;44,75331
 345,96;12891,454;  199,731;28273,361;45,20870
 346,55;13168,101;  156,885;28512,771;45,88542
 347,14;13416,320;  159,654;28927,314;46,08184
 347,74;13752,203;  142,269;29353,274;46,59180
 348,33;14189,553;  166,577;29983,124;47,03085
 348,92;14587,668;  181,423;30668,026;47,25435
 349,52;14943,830;  144,808;31141,726;47,74353
 350,11;15232,917;  162,269;31290,860;48,41417
 350,70;15412,922;  168,808;31340,391;48,90388
 351,29;15446,635;  154,731;31139,804;49,35249
 351,89;15558,746;  182,885;31082,858;49,76011
 352,48;15690,873;  150,962;31065,171;50,26786
 353,07;15772,277;  178,192;31061,464;50,49363
 353,67;15888,434;  187,962;31072,844;50,83546
 354,26;15920,721;  178,192;30734,438;51,51984
 354,85;16017,482;  172,038;30678,630;51,94105
 355,45;15960,843;  145,115;30396,381;52,28121
 356,04;16103,566;  168,192;30312,157;52,86423
 356,63;16053,532;  202,885;30175,072;52,88452
 357,22;16152,685;  173,731;29950,105;53,66320
 357,82;16156,435;  178,423;29870,287;53,81276
 358,41;16230,554;  190,500;29675,411;54,40089
 359,00;16239,224;  167,577;29525,425;54,74395
 359,60;16337,397;  189,577;29497,410;55,09729
 360,19;16407,074;  181,346;29239,656;55,83851
 360,78;16418,768;  186,808;29153,513;56,03661
 361,37;16395,602;  182,423;28860,857;56,53440
 361,97;16531,128;  183,577;28806,611;57,11327
 362,56;16361,451;  157,269;28486,469;57,19957
 363,15;16378,236;  206,423;28210,625;57,74781
 363,74;16291,377;  170,731;27883,625;58,17020
 364,34;16198,219;  198,192;27509,034;58,58489
 364,93;16012,514;  159,192;27082,604;58,88303
 365,52;15886,826;  152,577;26680,822;59,31131
 366,11;15782,317;  172,808;26402,780;59,51020
 366,71;15657,564;  158,423;25936,443;60,12541
 367,30;15563,308;  172,731;25597,107;60,53473
 367,89;15468,554;  203,500;25423,854;60,52672
 368,48;15340,430;  192,192;25166,158;60,65612
 369,07;15176,460;  179,962;24689,775;61,18569
 369,67;15095,031;  180,346;24427,088;61,51212
 370,26;15017,437;  169,346;24088,847;62,07525
 370,85;14900,809;  180,654;23843,928;62,20676
 371,44;14848,107;  176,808;23599,019;62,63840
 372,03;14730,697;  147,500;23372,697;62,79041
 372,63;14674,114;  150,808;23094,439;63,29995
 373,22;14496,358;  166,654;22806,023;63,29551
 373,81;14349,716;  141,192;22460,112;63,66134
 374,40;14353,796;  168,962;22231,229;64,29454
 374,99;14206,155;  163,423;21964,388;64,41335
 375,59;14042,353;  160,423;21639,921;64,62875
 376,18;14045,840;  195,808;21552,968;64,84960
 376,77;14010,457;  183,885;21385,665;65,21420
 377,36;13962,376;  198,423;21377,171;64,98946
 377,95;13805,002;  177,192;21035,822;65,33415
 378,55;13801,415;  164,577;20844,385;65,94277
 379,14;13842,744;  180,885;20816,046;66,20670
 379,73;13775,517;  173,192;20742,202;66,13019
 380,32;13910,298;  179,808;20758,659;66,72137
 380,91;13739,456;  163,731;20626,987;66,34196
 381,50;13809,746;  178,808;20542,120;66,93871
 382,10;13763,683;  158,269;20457,428;67,02452
 382,69;13779,080;  155,115;20419,596;67,23076
 383,28;13810,117;  190,654;20370,974;67,48883
 383,87;13684,623;  166,962;20289,495;67,17674
 384,46;13784,658;  163,038;20098,329;68,32918
 385,05;13765,346;  191,962;20229,150;67,74096
 385,64;13796,471;  171,962;20169,242;68,13181
 386,24;13831,220;  161,346;20096,796;68,57068
 386,83;13953,295;  183,038;20207,818;68,76609
 387,42;14001,601;  189,808;20262,314;68,80951
 388,01;14213,438;  180,577;20564,026;68,84439
 388,60;14427,199;  172,577;20826,076;69,01795
 389,19;14599,746;  160,346;20959,788;69,42206
 389,78;14786,564;  170,115;21232,880;69,39473
 390,37;15169,194;  216,731;21729,423;69,50531
 390,96;15256,260;  177,808;21820,464;69,67006
 391,56;15366,915;  172,346;21984,215;69,66193
 392,15;15619,635;  167,192;22264,900;69,92781
 392,74;15816,009;  151,962;22434,173;70,29844
 393,33;16038,650;  159,192;22691,681;70,47361
 393,92;16334,023;  178,962;23182,903;70,22736
 394,51;16536,921;  164,192;23298,502;70,77249
 395,10;16732,645;  203,192;23474,279;71,03000
 395,69;16867,548;  182,423;23640,999;71,12591
 396,28;16977,666;  193,192;23718,659;71,34597
 396,87;17018,943;  196,962;23793,576;71,28981
 397,46;17189,718;  192,808;23921,394;71,63052
 398,06;17297,667;  199,577;24191,723;71,26537
 398,65;17404,239;  194,962;24250,735;71,53907
 399,24;17526,241;  200,269;24425,885;71,51922
 399,83;17511,984;  177,192;24481,033;71,32532
 400,42;17695,468;  213,654;24594,354;71,70350
 401,01;17768,254;  189,962;24687,506;71,75532
 401,60;17926,412;  198,423;24757,495;72,18509
 402,19;17776,373;  224,192;24675,494;71,78424
 402,78;17876,320;  233,346;24669,751;72,19955
 403,37;17751,391;  219,192;24545,357;72,07136
 403,96;17693,173;  210,500;24369,797;72,36416
 404,55;17577,335;  227,423;24315,474;72,02705
 405,14;17553,994;  200,885;24176,646;72,37772
 405,73;17533,477;  221,038;24017,900;72,75093
 406,32;17523,423;  224,500;23938,473;72,94823
 406,91;17346,755;  223,731;23678,165;73,00549
 407,50;17267,207;  217,885;23458,314;73,36061
 408,09;16994,460;  208,423;23197,340;73,01796
 408,68;16965,308;  221,269;23125,012;73,10612
 409,27;16839,062;  200,192;22901,995;73,29317
 409,86;16626,173;  204,962;22684,541;73,04946
 410,45;16730,886;  252,500;22717,906;73,35005
 411,04;16613,497;  248,192;22594,854;73,23378
 411,63;16404,516;  239,500;22354,466;73,09537
 412,22;16295,617;  244,808;22046,718;73,62111
 412,81;16077,133;  244,038;21829,481;73,35080
 413,40;15804,721;  249,885;21506,218;73,17742
 413,99;15654,013;  293,654;21279,086;73,19535
 414,58;15306,703;  228,731;20860,935;73,07980
 415,17;15164,660;  228,038;20574,901;73,40995
 415,76;15077,119;  230,269;20479,744;73,31968
 416,35;14895,562;  208,115;20292,758;73,12775
 416,94;15010,882;  257,038;20381,895;73,31154
 417,53;15086,890;  240,038;20620,005;72,85022
 418,12;15162,657;  229,038;20699,315;72,95269
 418,71;15477,872;  258,654;21009,266;73,34346
 419,30;15523,754;  239,038;21115,781;73,21408
 419,89;15636,787;  225,115;21325,907;73,03836
 420,48;15836,338;  256,038;21608,811;72,96617
 421,07;15842,476;  246,500;21657,564;72,84073
 421,66;15935,053;  213,654;21694,041;73,18956
 422,25;15881,780;  230,731;21640,523;73,10230
 422,84;15893,247;  260,346;21648,714;73,09066
 423,43;15687,277;  246,577;21326,230;73,24931
 424,02;15528,953;  262,423;21026,906;73,52232
 424,60;15135,547;  233,885;20579,320;73,24327
 425,19;14968,197;  240,269;20367,811;73,17301
 425,78;14921,038;  253,500;20225,370;73,44098
 426,37;14776,392;  268,500;20185,854;72,84046
 426,96;14736,458;  241,577;20030,582;73,24714
 427,55;14577,908;  226,500;19881,046;73,01826
 428,14;14408,625;  216,115;19635,934;73,08261
 428,73;14269,666;  243,346;19428,255;73,11121
 429,32;14264,074;  253,808;19467,248;72,91909
 429,91;14319,048;  268,500;19446,765;73,26287
 430,50;14153,123;  264,654;19259,311;73,11777
 431,08;14038,628;  275,038;19128,378;73,00346
 431,67;13992,756;  307,577;19098,864;72,82726
 432,26;13883,813;  330,192;18834,846;73,24439
 432,85;13663,975;  345,115;18517,623;73,29126
 433,44;13420,602;  353,038;18154,677;73,40652
 434,03;13128,447;  366,654;17737,743;73,46570
 434,62;12829,385;  315,731;17372,696;73,36390
 435,21;12694,597;  332,808;17199,685;73,29032
 435,79;12590,048;  338,423;17040,077;73,35576
 436,38;12414,548;  330,731;16915,580;72,86058
 436,97;12364,151;  326,423;16833,796;72,92334
 437,56;12219,186;  324,115;16596,252;73,10085
 438,15;12174,678;  302,269;16520,645;73,20344
 438,74;12126,176;  317,038;16594,542;72,54882
 439,33;12141,774;  282,269;16637,952;72,51000
 439,91;12148,273;  251,423;16603,577;72,75403
 440,50;12162,567;  304,500;16674,662;72,43708
 441,09;12308,338;  296,962;16796,960;72,79623
 441,68;12205,717;  275,885;16823,839;72,09249
 442,27;12232,060;  270,192;16806,084;72,33881
 442,86;12225,263;  247,885;16803,744;72,34525
 443,44;12260,249;  264,808;16870,232;72,23809
 444,03;12279,580;  305,808;16863,372;72,31602
 444,62;12218,102;  261,808;16724,325;72,62737
 445,21;11992,278;  279,654;16509,095;72,16899
 445,80;11966,617;  297,423;16452,409;72,23277
 446,39;11766,466;  311,577;16239,180;71,91848
 446,97;11563,068;  260,885;16007,154;71,77689
 447,56;11447,783;  249,346;15756,045;72,21677
 448,15;11291,986;  268,962;15634,610;71,73811
 448,74;11119,151;  283,577;15353,447;71,90224
 449,33;10990,175;  275,423;15234,745;71,62592
 449,91;10829,218;  275,731;14981,562;71,76396
 450,50;10663,569;  259,038;14769,309;71,70460
 451,09;10579,321;  283,962;14666,365;71,58303
 451,68;10500,636;  304,423;14631,535;71,16726
 452,26;10452,542;  286,885;14510,161;71,47199
 452,85;10318,309;  275,423;14440,024;70,90129
 453,44;10370,923;  290,038;14420,890;71,33954
 454,03;10327,396;  270,962;14396,457;71,19350
 454,61;10314,253;  257,962;14329,230;71,46685
 455,20;10397,654;  300,577;14583,181;70,69493
 455,79;10365,661;  292,731;14596,204;70,42297
 456,38;10401,260;  292,885;14623,027;70,53925
 456,97;10468,376;  282,962;14682,383;70,73489
 457,55;10456,682;  275,423;14642,160;70,86689
 458,14;10451,841;  304,192;14650,077;70,73561
 458,73;10325,090;  290,500;14569,499;70,27516
 459,31;10353,917;  326,654;14623,436;70,13650
 459,90;10423,686;  315,038;14745,224;70,05210
 460,49;10486,749;  344,654;14814,739;70,09008
 461,08;10496,122;  276,115;14869,819;70,03025
 461,66;10481,600;  288,500;15002,885;69,27303
 462,25;10545,702;  292,346;15087,958;69,29998
 462,84;10586,452;  318,269;15062,158;69,64366
 463,43;10507,904;  260,192;15007,447;69,48895
 464,01;10565,676;  298,500;15034,302;69,67504
 464,60;10479,799;  328,500;14994,096;69,21846
 465,19;10331,856;  270,423;14778,213;69,35194
 465,77;10246,994;  291,269;14693,454;69,12648
 466,36;10187,844;  316,500;14609,032;69,06644
 466,95; 9903,223;  295,269;14254,822;68,82709
 467,53; 9744,298;  293,731;13964,023;69,13216
 468,12; 9570,528;  327,115;13707,665;69,08097
 468,71; 9387,989;  303,423;13520,801;68,73198
 469,29; 9169,940;  289,192;13215,549;68,70264
 469,88; 9010,889;  285,731;12971,948;68,77667
 470,47; 9024,978;  344,192;13156,156;67,75531
 471,06; 9001,926;  293,423;13102,523;67,98684
 471,64; 9005,750;  311,038;13185,542;67,53435
 472,23; 8995,284;  276,269;13233,945;67,28842
 472,81; 9000,265;  292,808;13358,857;66,64186
 473,40; 9060,030;  285,038;13534,247;66,23031
 473,99; 9241,370;  372,500;13625,112;66,92168
 474,57; 9227,620;  296,346;13821,726;66,03344
 475,16; 9334,642;  300,269;13958,618;66,14542
 475,75; 9372,465;  318,885;14022,272;66,06819
 476,33; 9404,380;  321,192;14161,476;65,62862
 476,92; 9399,847;  332,115;14214,263;65,31938
 477,51; 9447,284;  320,038;14247,446;65,53442
 478,09; 9468,041;  330,038;14237,712;65,70475
 478,68; 9419,914;  321,192;14190,008;65,60561
 479,27; 9430,013;  339,038;14340,592;64,92832
 479,85; 9386,212;  324,654;14312,072;64,78364
 480,44; 9393,022;  309,192;14442,464;64,27266
 481,02;10103,963;  313,962;16237,470;61,48143
 481,61;11345,200;  334,577;18065,654;62,09788
 482,20;12107,275;  346,192;19261,169;62,17868
 482,78;12586,918;  370,269;20017,502;62,17999
 483,37;12926,592;  364,577;20535,348;62,27831
 483,95;13060,276;  374,038;20726,878;62,33154
 484,54;13137,869;  385,115;20918,545;62,10727
 485,13;13036,682;  348,346;20788,995;62,07404
 485,71;12912,040;  351,962;20577,622;62,09972
 486,30;12716,798;  372,885;20234,658;62,14910
 486,88;12455,256;  402,346;19772,426;62,22437
 487,47;11996,868;  403,500;19052,270;62,16693
 488,05;11465,309;  365,808;18095,940;62,60247
 488,64;10660,564;  367,269;16734,931;62,88800
 489,23; 9555,010;  387,115;14659,210;64,23650
 489,81; 8206,654;  387,500;12725,996;63,37202
 490,40; 7765,747;  346,654;12241,916;62,37015
 490,98; 7556,426;  328,654;12004,774;61,90217
 491,57; 7482,907;  365,654;11997,638;61,18692
 492,15; 7370,728;  334,654;11876,102;60,96353
 492,74; 7305,554;  339,192;11739,805;61,10515
 493,32; 7267,429;  347,808;11723,726;60,82692
 493,91; 7174,279;  321,654;11586,405;60,83246
 494,50; 7131,324;  336,500;11527,354;60,71765
 495,08; 7052,557;  314,654;11498,998;60,24406
 495,67; 7065,333;  345,962;11453,143;60,49574
 496,25; 6925,297;  285,038;11338,258;60,07533
 496,84; 6889,352;  299,808;11302,603;59,88973
 497,42; 6844,072;  296,192;11254,423;59,75307
 498,01; 6766,878;  323,269;11204,050;59,22009
 498,59; 6701,864;  284,346;11152,763;59,04740
 499,18; 6620,188;  290,038;11067,644;58,73428
 499,76; 6576,686;  300,423;11015,880;58,57205
 500,35; 6449,282;  297,654;10782,586;58,67113
 500,93; 6394,892;  290,269;10803,209;58,06771
 501,52; 6321,398;  293,038;10691,218;57,97514
 502,10; 6265,326;  293,885;10684,011;57,47227
 502,69; 6151,725;  282,731;10497,599;57,45541
 503,27; 5994,349;  264,423;10357,876;56,76874
 503,86; 6021,178;  286,731;10238,483;57,62249
 504,44; 5831,127;  267,654;10168,421;56,19235
 505,03; 5719,374;  251,500; 9868,622;56,85562
 505,61; 5606,168;  272,654; 9744,293;56,31036
 506,19; 5571,689;  289,500; 9634,888;56,52188
 506,78; 5396,484;  249,731; 9435,422;56,03011
 507,36; 5299,036;  269,115; 9220,863;56,18926
 507,95; 5170,323;  275,885; 9106,111;55,42823
 508,53; 5103,924;  262,423; 9018,291;55,29436
 509,12; 4982,247;  271,885; 8835,469;55,00457
 509,70; 4919,292;  288,192; 8699,609;55,05731
 510,29; 4815,679;  292,654; 8553,080;54,75535
 510,87; 4706,123;  253,269; 8342,965;55,04352
 511,46; 4606,394;  267,885; 8182,792;54,81441
 512,04; 4493,972;  267,192; 8088,826;54,03961
 512,62; 4447,459;  270,962; 7935,905;54,48831
 513,21; 4309,089;  250,962; 7716,140;54,36076
 513,79; 4197,846;  266,654; 7617,093;53,48242
 514,38; 4120,637;  242,423; 7468,781;53,66761
 514,96; 4102,465;  287,577; 7364,448;53,90642
 515,54; 3964,237;  240,731; 7239,431;53,20283
 516,13; 3916,073;  264,885; 7121,291;53,25223
 516,71; 3787,888;  257,423; 7055,155;51,93593
 517,30; 3733,427;  241,500; 6876,059;52,63238
 517,88; 3669,434;  270,885; 6839,248;51,74119
 518,46; 3576,411;  252,192; 6701,170;51,54645
 519,05; 3562,405;  250,115; 6656,705;51,70128
 519,63; 3516,991;  261,269; 6602,304;51,34369
 520,22; 3478,788;  278,885; 6527,944;51,20616
 520,80; 3412,713;  262,038; 6453,768;50,88521
 521,38; 3406,313;  286,500; 6409,559;50,95187
 521,97; 3342,014;  254,731; 6418,688;50,08606
 522,55; 3294,196;  277,808; 6375,545;49,46733
 523,13; 3305,940;  254,038; 6394,209;49,70386
 523,72; 3244,572;  255,808; 6373,128;48,85742
 524,30; 3333,050;  283,962; 6483,181;49,18504
 524,89; 3284,477;  248,500; 6512,512;48,46698
 525,47; 3330,410;  265,192; 6650,126;48,00705
 526,05; 3298,032;  240,269; 6681,649;47,47062
 526,64; 3336,208;  278,346; 6804,861;46,85291
 527,22; 3371,560;  277,423; 6939,889;46,44131
 527,80; 3400,474;  308,269; 7078,907;45,67080
 528,39; 3409,635;  260,654; 7158,435;45,65210
 528,97; 3442,583;  276,731; 7323,336;44,92733
 529,55; 3512,280;  281,346; 7490,150;44,81928
 530,14; 3579,653;  287,808; 7755,564;44,08078
 530,72; 3575,648;  275,192; 7793,834;43,89697
 531,30; 3619,501;  247,192; 7946,773;43,79860
 531,89; 3634,930;  275,500; 8033,216;43,30437
 532,47; 3688,822;  297,423; 8136,818;43,26097
 533,05; 3677,793;  286,808; 8142,718;43,16477
 533,63; 3721,723;  295,269; 8185,637;43,42578
 534,22; 3687,541;  281,962; 8260,549;42,68399
 534,80; 3705,592;  303,038; 8357,574;42,24394
 535,38; 3791,321;  371,269; 8428,816;42,44532
 535,97; 3667,842;  271,500; 8438,180;41,58780
 536,55; 3747,841;  335,500; 8436,984;42,11995
 537,13; 3721,152;  337,962; 8424,050;41,83964
 537,71; 3724,765;  398,115; 8497,302;41,07387
 538,30; 3776,603;  405,038; 8573,814;41,27380
 538,88; 3793,875;  456,269; 8638,626;40,79028
 539,46; 3839,158;  504,423; 8857,816;39,92073
 540,05; 3874,709;  515,731; 9022,196;39,48735
 540,63; 3949,592;  579,038; 9196,528;39,11294
 541,21; 4012,301;  607,192; 9335,299;39,01314
 541,79; 4048,961;  625,577; 9481,666;38,65571
 542,38; 4113,399;  669,500; 9671,679;38,25628
 542,96; 4120,450;  683,731; 9754,889;37,88622
 543,54; 4222,162;  709,808;10000,676;37,80437
 544,12; 4199,461;  663,962;10109,591;37,43001
 544,70; 4190,799;  647,346;10233,843;36,96296
 545,29; 4276,173;  651,115;10370,917;37,29559
 545,87; 4234,961;  614,500;10354,743;37,17013
 546,45; 4188,252;  582,038;10386,253;36,78229
 547,03; 4203,519;  558,654;10467,715;36,78315
 547,62; 4206,683;  530,962;10653,348;36,31280
 548,20; 4239,926;  538,115;10779,728;36,14480
 548,78; 4226,339;  486,423;10925,398;35,82646
 549,36; 4258,498;  453,962;11155,455;35,55145
 549,94; 4241,456;  422,346;11245,765;35,28561
 550,53; 4306,732;  424,885;11498,226;35,05579
 551,11; 4334,466;  394,577;11672,315;34,93510
 551,69; 4384,598;  396,115;11948,922;34,52393
 552,27; 4400,090;  365,038;12236,161;33,99048
 552,85; 4505,708;  377,423;12632,125;33,68736
 553,44; 4582,440;  353,346;12964,685;33,53406
 554,02; 4648,975;  376,269;13292,914;33,07907
 554,60; 4659,759;  322,885;13590,015;32,68887
 555,18; 4813,389;  353,038;13980,822;32,72983
 555,76; 4850,222;  330,654;14322,884;32,30056
 556,34; 4958,810;  341,885;14749,859;32,04424
 556,93; 5025,013;  336,885;15172,681;31,60011
 557,51; 5056,523;  322,192;15452,758;31,28985
 558,09; 5149,195;  341,731;15818,308;31,06284
 558,67; 5253,880;  333,577;16272,778;30,86920
 559,25; 5331,341;  342,346;16498,620;30,87961
 559,83; 5360,422;  321,346;16792,069;30,59414
 560,41; 5429,301;  321,654;17089,920;30,46020
 561,00; 5531,221;  324,808;17544,950;30,23444
 561,58; 5505,676;  325,115;17802,215;29,64199
 562,16; 5577,361;  310,808;18089,765;29,62240
 562,74; 5651,409;  296,500;18466,364;29,47137
 563,32; 5708,818;  296,885;18901,956;29,08849
 563,90; 5852,281;  319,500;19225,980;29,26394
 564,48; 5905,022;  331,115;19715,059;28,75528
 565,06; 6041,603;  309,808;20302,203;28,66988
 565,65; 6162,468;  332,962;21053,394;28,13410
 566,23; 6356,423;  375,808;21763,708;27,96261
 566,81; 6501,430;  320,731;22534,276;27,82401
 567,39; 6735,652;  323,731;23391,095;27,79651
 567,97; 6859,145;  337,654;24075,923;27,47248
 568,55; 7090,303;  340,192;24940,500;27,43913
 569,13; 7211,598;  319,269;25716,915;27,13767
 569,71; 7402,142;  326,115;26523,806;27,01012
 570,29; 7667,393;  360,423;27524,520;26,89937
 570,87; 7824,394;  351,038;28246,294;26,79078
 571,45; 7955,289;  349,731;28940,168;26,60175
 572,03; 8036,372;  309,500;29319,672;26,63504
 572,61; 8162,991;  318,346;30091,570;26,34799
 573,20; 8275,269;  343,577;30802,984;26,04021
 573,78; 8396,527;  334,885;31392,619;25,95696
 574,36; 8480,539;  345,731;31858,325;25,81447
 574,94; 8590,860;  390,346;32171,479;25,80309
 575,52; 8501,194;  344,423;32508,833;25,35962
 576,10; 8673,406;  398,038;33097,726;25,30718
 576,68; 8731,323;  384,346;33670,068;25,07675
 577,26; 8828,202;  404,423;34392,207;24,78473
 577,84; 8940,213;  419,192;34817,019;24,77197
 578,42; 8998,428;  456,192;35116,188;24,64581
 579,00; 8947,082;  402,808;35219,589;24,54068
 579,58; 8950,403;  433,500;35475,101;24,30512
 580,16; 8865,022;  407,346;35395,084;24,17326
 580,74; 8839,712;  416,577;35642,363;23,91184
 581,32; 8778,070;  421,423;35722,222;23,67268
 581,90; 8696,633;  440,731;35659,616;23,44169
 582,48; 8683,654;  437,346;35790,362;23,32561
 583,06; 8609,133;  442,038;35917,433;23,02186
 583,64; 8602,674;  434,962;35964,923;22,98824
 584,22; 8499,380;  443,577;35726,262;22,83217
 584,80; 8325,910;  456,269;35520,473;22,44352
 585,38; 8172,433;  453,577;35051,432;22,31022
 585,96; 8061,291;  428,115;35327,639;21,87186
 586,54; 8034,397;  443,962;35329,283;21,75825
 587,12; 7993,569;  409,500;35514,893;21,60371
 587,70; 7966,288;  442,269;35567,765;21,42039
 588,28; 7869,580;  419,808;35550,241;21,20604
 588,86; 7839,722;  432,269;35756,535;20,96987
 589,44; 7737,340;  415,192;35741,883;20,72696
 590,02; 7706,849;  417,038;35957,790;20,51113
 590,59; 7662,239;  387,115;36167,431;20,33275
 591,17; 7643,189;  390,885;36466,616;20,10300
 591,75; 7619,068;  384,808;36467,884;20,04890
 592,33; 7621,281;  393,962;36730,062;19,89019
 592,91; 7519,884;  353,115;37037,925;19,53607
 593,49; 7524,351;  358,654;37303,963;19,39542
 594,07; 7517,962;  363,423;37459,341;19,28659
 594,65; 7482,828;  387,654;37510,166;19,11286
 595,23; 7471,427;  376,423;37928,304;18,89387
 595,81; 7428,561;  362,731;38015,640;18,76570
 596,39; 7390,834;  363,577;38176,593;18,58423
 596,97; 7370,083;  354,192;38384,908;18,44796
 597,55; 7284,116;  367,577;38254,886;18,25556
 598,12; 7186,485;  332,577;38262,299;18,07002
 598,70; 7171,730;  341,577;38486,106;17,90598
 599,28; 7127,163;  361,500;38511,633;17,73431
 599,86; 7109,259;  346,500;38552,862;17,70061
 600,44; 7068,612;  321,962;38576,311;17,63630
 601,02; 7100,983;  373,500;38749,100;17,53063
 601,60; 7009,226;  341,038;38697,659;17,38471
 602,18; 6937,443;  329,346;38785,576;17,18342
 602,75; 6853,410;  328,269;38803,283;16,95942
 603,33; 6869,811;  337,731;38876,651;16,94931
 603,91; 6795,646;  334,269;38762,903;16,81397
 604,49; 6765,496;  354,500;39019,770;16,58076
 605,07; 6798,310;  367,115;38929,309;16,67746
 605,65; 6688,724;  372,500;39057,384;16,32737
 606,23; 6696,496;  441,654;39162,772;16,15357
 606,80; 6649,839;  484,038;39179,650;15,93411
 607,38; 6653,328;  532,346;39252,605;15,80821
 607,96; 6649,758;  585,731;39311,182;15,65902
 608,54; 6630,153;  650,346;39361,750;15,44714
 609,12; 6624,580;  648,808;39457,869;15,39788
 609,70; 6558,975;  681,731;39456,329;15,15746
 610,27; 6534,926;  698,346;39510,790;15,03791
 610,85; 6525,427;  715,269;39531,316;14,96844
 611,43; 6447,483;  724,269;39489,366;14,76383
 612,01; 6377,292;  691,885;39247,438;14,74601
 612,59; 6387,343;  666,346;39372,282;14,78067
 613,16; 6265,182;  630,962;39262,357;14,58456
 613,74; 6178,629;  587,346;39180,255;14,48785
 614,32; 6160,129;  558,038;39119,207;14,52780
 614,90; 6106,925;  505,654;39002,028;14,55013
 615,48; 6024,286;  452,269;38679,472;14,57605
 616,05; 5940,285;  442,038;38711,468;14,36720
 616,63; 5858,976;  435,962;38426,617;14,27460
 617,21; 5839,064;  430,500;38429,589;14,23340
 617,79; 5785,053;  412,269;38349,321;14,16236
 618,36; 5694,124;  436,038;38212,522;13,91894
 618,94; 5596,025;  359,577;37842,202;13,97033
 619,52; 5534,857;  386,269;37594,074;13,83739
 620,10; 5485,354;  379,346;37596,029;13,71968
 620,67; 5446,410;  376,654;37423,836;13,68459
 621,25; 5414,594;  389,346;37387,458;13,58245
 621,83; 5349,118;  382,731;37283,018;13,45894
 622,41; 5340,955;  415,808;37245,313;13,37283
 622,98; 5262,587;  381,500;37057,687;13,30860
 623,56; 5232,904;  374,269;37060,904;13,24361
 624,14; 5195,425;  372,038;36896,492;13,20591
 624,72; 5119,360;  366,423;36805,059;13,04367
 625,29; 5095,569;  338,731;36811,585;13,04213
 625,87; 5103,009;  386,654;36768,570;12,96346
 626,45; 5026,262;  346,808;36602,712;12,90674
 627,02; 4979,605;  359,962;36497,571;12,78348
 627,60; 4949,839;  341,269;36387,766;12,78507
 628,18; 4905,504;  321,038;36548,946;12,65451
 628,76; 4890,353;  322,731;36569,121;12,60159
 629,33; 4875,154;  359,808;36454,192;12,50983
 629,91; 4808,739;  343,423;36571,106;12,32570
 630,49; 4816,665;  350,346;36709,000;12,28406
 631,06; 4807,598;  349,731;36822,755;12,22237
 631,64; 4768,567;  343,808;36825,530;12,12870
 632,22; 4738,470;  304,885;36673,961;12,19054
 632,79; 4759,442;  339,577;36958,411;12,06992
 633,37; 4753,082;  312,731;37034,338;12,09193
 633,95; 4727,378;  326,577;37104,995;11,96572
 634,52; 4712,586;  313,038;37302,515;11,89405
 635,10; 4748,830;  303,423;37244,330;12,03383
 635,68; 4713,641;  306,269;37506,855;11,84759
 636,25; 4666,205;  297,654;37350,088;11,79019
 636,83; 4651,046;  286,808;37668,813;11,67470
 637,41; 4663,383;  297,346;37698,432;11,67356
 637,98; 4699,495;  328,115;37810,401;11,66252
 638,56; 4664,311;  316,577;37946,227;11,55401
 639,13; 4653,440;  300,500;38049,722;11,53121
 639,71; 4700,449;  329,192;38263,761;11,52315
 640,29; 4576,998;  269,500;37964,487;11,42724
 640,86; 4613,170;  293,423;38153,763;11,40969
 641,44; 4606,573;  281,346;38199,193;11,40684
 642,02; 4609,667;  321,731;38183,930;11,32511
 642,59; 4556,224;  282,346;38318,514;11,23635
 643,17; 4552,088;  290,192;38282,328;11,21784
 643,74; 4552,875;  290,808;38244,219;11,22973
 644,32; 4556,047;  321,577;38250,111;11,16434
 644,89; 4549,295;  313,269;38269,617;11,16026
 645,47; 4569,159;  321,654;38218,124;11,20818
 646,05; 4531,331;  306,885;38210,092;11,14535
 646,62; 4485,349;  293,654;38114,522;11,08302
 647,20; 4465,290;  302,962;38329,721;10,94579
 647,77; 4421,154;  272,808;38130,920;10,95761
 648,35; 4422,018;  266,423;37999,119;11,01325
 648,92; 4455,190;  306,885;38079,088;10,98243
 649,50; 4396,592;  262,115;38039,902;10,94420
 650,08; 4382,533;  265,962;37965,947;10,91929
 650,65; 4369,243;  272,269;38310,762;10,77060
 651,23; 4442,569;  255,423;39231,114;10,74297
 651,80; 4593,741;  277,115;40069,929;10,84775
 652,38; 4659,682;  287,038;40408,436;10,89853
 652,95; 4671,699;  256,885;40720,481;10,91058
 653,53; 4716,717;  282,577;40985,372;10,89395
 654,10; 4757,966;  309,192;41108,802;10,90396
 654,68; 4716,676;  265,731;40947,001;10,94102
 655,25; 4708,079;  262,269;41112,277;10,88325
 655,83; 4761,866;  266,654;41205,245;10,98038
 656,40; 4757,653;  300,423;41075,906;10,93115
 656,98; 4704,978;  271,654;41032,412;10,87645
 657,55; 4708,612;  279,808;40907,458;10,90096
 658,13; 4637,168;  274,808;40464,657;10,85438
 658,70; 4575,186;  295,269;40129,163;10,74441
 659,28; 4477,435;  262,346;39177,132;10,83159
 659,85; 4366,991;  274,038;38537,946;10,69664
 660,43; 4419,086;  290,654;38646,991;10,76336
 661,00; 4373,104;  293,038;38760,729;10,60647
 661,58; 4391,660;  275,885;39129,774;10,59296
 662,15; 4399,601;  262,346;39264,434;10,60778
 662,73; 4461,696;  323,038;39606,710;10,53531
 663,30; 4485,175;  291,808;39815,525;10,60975
 663,88; 4527,347;  279,885;40035,493;10,68393
 664,45; 4516,365;  273,423;40158,846;10,63783
 665,03; 4572,152;  276,731;40622,814;10,64644
 665,60; 4734,477;  333,423;41056,475;10,80728
 666,17; 4651,034;  283,731;41113,597;10,69634
 666,75; 4683,052;  274,885;41549,719;10,68004
 667,32; 4768,454;  298,808;41808,610;10,76769
 667,90; 4730,011;  284,115;42052,040;10,64428
 668,47; 4822,951;  299,885;42370,008;10,75126
 669,05; 4861,969;  271,423;42644,130;10,83373
 669,62; 4826,603;  249,808;42709,329;10,77920
 670,19; 4856,236;  262,192;42779,528;10,80511
 670,77; 4858,485;  273,731;42938,804;10,74592
 671,34; 4882,502;  266,808;42901,849;10,82606
 671,92; 4947,213;  272,500;43237,048;10,88040
 672,49; 4971,846;  295,346;43311,248;10,87156
 673,06; 4907,402;  239,500;43309,754;10,83788
 673,64; 4937,574;  259,115;43204,722;10,89392
 674,21; 4949,900;  251,654;43246,460;10,92747
 674,79; 5020,917;  286,115;43497,428;10,95732
 675,36; 5021,243;  291,192;43619,166;10,91685
 675,93; 5010,261;  253,423;43560,442;10,98399
 676,51; 5066,894;  283,038;43729,871;11,01083
 677,08; 5067,450;  277,885;43754,763;11,01635
 677,65; 5092,161;  278,269;43940,500;11,02530
 678,23; 5183,948;  281,346;44130,161;11,18069
 678,80; 5161,119;  270,885;44373,129;11,08840
 679,38; 5184,984;  266,577;44304,790;11,16850
 679,95; 5259,386;  275,962;44614,296;11,23954
 680,52; 5281,096;  264,192;44900,265;11,23957
 681,10; 5370,268;  278,808;45342,079;11,29847
 681,67; 5416,440;  288,423;45536,970;11,33300
 682,24; 5406,688;  243,808;45571,323;11,39017
 682,82; 5504,091;  257,346;46229,061;11,41298
 683,39; 5636,801;  297,962;46520,952;11,55018
 683,96; 5643,357;  267,731;46722,305;11,57179
 684,54; 5690,991;  243,962;47125,735;11,61865
 685,11; 5749,778;  293,423;47460,472;11,56815
 685,68; 5828,334;  278,346;47742,364;11,69304
 686,25; 5834,660;  249,192;47904,101;11,72065
 686,83; 5909,831;  257,654;48006,992;11,83718
 687,40; 5955,849;  244,577;48348,961;11,87266
 687,97; 6039,790;  288,500;48733,237;11,87186
 688,55; 6029,808;  239,115;48764,743;11,93327
 689,12; 6078,441;  217,654;49038,558;12,00467
 689,69; 6133,536;  242,346;49099,680;12,05794
 690,26; 6161,169;  259,731;49118,417;12,07859
 690,84; 6207,649;  252,423;49439,847;12,10721
 691,41; 6316,205;  260,038;49440,354;12,31421
 691,98; 6340,531;  262,423;49817,322;12,26540
 692,56; 6403,395;  250,115;49900,367;12,39325
 693,13; 6457,874;  306,192;49890,259;12,40657
 693,70; 6486,507;  271,731;50019,458;12,49258
 694,27; 6483,448;  258,423;50213,272;12,46130
 694,84; 6517,620;  252,654;50310,548;12,51544
 695,42; 6625,330;  300,962;50417,208;12,61940
 695,99; 6638,887;  269,654;50645,407;12,64345
 696,56; 6676,828;  254,500;50515,453;12,77797
 697,13; 6769,307;  267,654;50913,421;12,83751
 697,71; 6806,556;  243,577;50972,235;12,93742
 698,28; 6846,651;  256,269;51287,357;12,91444
 698,85; 6859,745;  225,654;51342,710;12,97823
 699,42; 6949,148;  229,731;51554,525;13,09195
 699,99; 7025,935;  270,346;51607,339;13,15930
 700,57; 7043,799;  262,654;51750,769;13,17031
 701,14; 7100,586;  254,808;51804,583;13,27994
 701,71; 7208,527;  277,346;51996,090;13,40168
 702,28; 7220,083;  260,577;52057,520;13,43613
 702,85; 7226,409;  270,731;52204,103;13,39347
 703,43; 7334,811;  282,269;52378,302;13,53758
 704,00; 7426,983;  293,808;52569,194;13,64538
 704,57; 7463,616;  275,269;52546,931;13,75190
 705,14; 7542,404;  304,731;52893,284;13,76283
 705,71; 7577,806;  318,885;52852,637;13,81763
 706,28; 7647,901;  280,962;52672,528;14,06131
 706,86; 7716,996;  304,885;53007,112;14,06413
 707,43; 7786,167;  325,654;52823,234;14,21116
 708,00; 7775,031;  313,654;53015,587;14,15769
 708,57; 7824,511;  275,038;52818,401;14,36808
 709,14; 7922,990;  316,885;52948,216;14,45167
 709,71; 7924,470;  282,346;53138,261;14,45841
 710,28; 8028,564;  280,192;53277,152;14,62041
 710,86; 8058,505;  279,423;53350,505;14,65786
 711,43; 8151,523;  310,577;53411,858;14,76602
 712,00; 8191,772;  285,808;53506,057;14,85518
 712,57; 8266,251;  302,192;53589,410;14,94553
 713,14; 8370,039;  277,885;53697,917;15,14816
 713,71; 8357,364;  288,577;53589,270;15,13824
 714,28; 8380,613;  268,962;53752,545;15,16662
 714,85; 8370,092;  249,423;53429,591;15,27011
 715,42; 8473,879;  263,885;53628,328;15,38477
 716,00; 8624,743;  320,577;53693,604;15,55873
 716,57; 8551,300;  256,885;53922,726;15,45567
 717,14; 8612,625;  243,269;53812,310;15,62349
 717,71; 8624,797;  235,192;53903,663;15,63228
 718,28; 8700,276;  268,577;53911,323;15,71825
 718,85; 8704,602;  243,192;53946,215;15,75593
 719,42; 8796,081;  271,962;54165,029;15,81673
 719,99; 8843,945;  247,346;53946,074;16,00894
 720,56; 8929,425;  257,269;54266,812;16,05671
 721,13; 8966,673;  253,346;54251,934;16,13621
 721,70; 9003,922;  247,192;54074,517;16,26819
 722,27; 9090,940;  271,423;54144,178;16,37102
 722,84; 9220,112;  309,423;54464,377;16,45406
 723,41; 9163,053;  240,500;54436,191;16,46358
 723,98; 9239,147;  261,423;54679,160;16,49779
 724,55; 9406,012;  275,577;54755,513;16,75926
 725,12; 9380,491;  230,115;54644,712;16,81603
 725,69; 9479,817;  242,038;54851,834;16,91597
 726,27; 9566,219;  260,577;54974,033;17,00796
 726,84; 9670,929;  252,423;55210,078;17,13775
 727,41; 9753,332;  271,962;55244,431;17,24749
 727,98; 9877,119;  270,962;55533,322;17,38282
 728,55; 9950,829;  286,500;55444,675;17,52112
 729,12; 9972,770;  242,038;55556,259;17,59174
 729,69;10069,942;  271,808;55690,919;17,68006
 730,26;10183,498;  289,500;55942,195;17,77811
 730,82;10194,516;  269,500;55695,933;17,90665
 731,39;10302,995;  265,885;55874,285;18,04963
 731,96;10420,859;  242,115;56214,638;18,18525
 732,53;10529,339;  280,885;56462,760;18,24157
 733,10;10557,664;  281,423;56431,190;18,30149
 733,67;10616,605;  287,346;56770,235;18,28741
 734,24;10610,392;  268,115;56295,896;18,45919
 734,81;10704,795;  294,115;56373,710;18,56411
 735,38;10700,505;  274,500;56148,756;18,65977
 735,95;10670,754;  262,346;56016,416;18,66843
 736,52;10820,695;  287,038;56195,077;18,84104
 737,09;10757,251;  279,808;55860,276;18,85094
 737,66;10902,269;  321,269;56040,705;18,98978
 738,23;10929,902;  268,731;56052,674;19,11154
 738,80;11123,228;  332,500;56347,873;19,26387
 739,37;11150,476;  299,192;56498,687;19,30851
 739,94;11120,725;  280,808;56708,655;19,21023
 740,51;11391,589;  367,885;56626,239;19,59479
 741,07;11309,299;  283,885;56573,515;19,58694
 741,64;11449,394;  311,115;56893,637;19,68502
 742,21;11464,258;  278,654;56898,144;19,75575
 742,78;11432,045;  252,654;56613,574;19,83536
 743,35;11556,755;  276,654;57035,234;19,87383
 743,92;11730,466;  314,038;56995,972;20,14121
 744,49;11759,791;  306,269;56873,940;20,24747
 745,06;11723,040;  280,269;56886,447;20,21470
 745,63;11784,673;  261,654;56945,415;20,32861
 746,19;11826,153;  274,885;57000,845;20,36328
 746,76;11914,632;  281,038;56956,659;20,52663
 747,33;12000,958;  279,577;56968,935;20,67651
 747,90;12075,206;  301,423;57139,980;20,71443
 748,47;12124,224;  290,038;57165,333;20,80725
 749,04;12180,011;  291,808;57131,071;20,91548
 749,61;12174,183;  311,423;57093,039;20,89190
 750,17;12260,585;  282,115;57106,546;21,07979
 750,74;12345,142;  286,423;57024,898;21,25316
 751,31;12312,313;  264,038;56927,174;21,26299
 751,88;12273,408;  257,577;56853,373;21,23096
 752,45;12399,195;  272,192;57005,188;21,37557
 753,02;12402,675;  291,346;56822,002;21,42436
 753,58;12471,231;  272,346;56781,817;21,58733
 754,15;12530,864;  271,346;56886,554;21,65411
 754,72;12561,728;  260,577;56616,522;21,82760
 755,29;12586,823;  271,346;56526,029;21,89236
 755,86;12643,072;  279,346;56682,767;21,92017
 756,42;12687,859;  299,038;56458,350;22,06014
 756,99;12737,646;  241,885;56505,318;22,20938
 757,56;12812,741;  245,269;56515,671;22,33407
 758,13;12841,990;  214,808;56396,024;22,47581
 758,70;12928,546;  229,346;56416,839;22,60147
 759,26;12981,871;  238,885;56489,191;22,65408
 759,83;12989,428;  231,577;56605,083;22,63093
 760,40;13053,061;  215,731;56292,820;22,89229
 760,97;13095,541;  214,500;56490,327;22,88912
 761,53;13083,866;  197,885;55935,911;23,11883
 762,10;13139,269;  198,115;56052,187;23,16958
 762,67;13152,594;  227,885;55988,155;23,17907
 763,24;13136,689;  193,808;55567,508;23,37370
 763,80;13261,630;  216,423;55749,168;23,49102
 764,37;13259,802;  227,885;55640,752;23,51785
 764,94;13237,743;  212,962;55194,797;23,68924
 765,50;13248,145;  217,423;55227,458;23,68790
 766,07;13390,163;  249,500;55253,195;23,89051
 766,64;13331,181;  231,269;54899,317;23,96265
 767,21;13299,430;  240,577;54836,593;23,91906
 767,77;13391,447;  258,346;54683,023;24,13078
 768,34;13528,158;  264,115;54707,299;24,36309
 768,91;13522,637;  258,885;54516,729;24,44578
 769,47;13563,270;  252,192;54527,697;24,52502
 770,04;13545,904;  252,038;54450,665;24,52805
 770,61;13583,537;  255,577;54103,095;24,75130
 771,18;13601,785;  239,115;54046,756;24,83415
 771,74;13694,265;  253,115;54264,108;24,88595
 772,31;13601,898;  253,654;53998,384;24,83638
 772,88;13620,454;  234,192;53686,660;25,04330
 773,44;13630,319;  235,115;53561,167;25,11944
 774,01;13788,567;  263,346;53655,443;25,33188
 774,58;13733,047;  248,038;53352,565;25,39333
 775,14;13826,449;  231,500;53508,841;25,51732
 775,71;13836,313;  232,500;53351,502;25,61007
 776,27;13916,716;  294,269;53306,701;25,69670
 776,84;14036,272;  303,808;53375,053;25,87553
 777,41;13941,290;  269,269;53063,406;25,89685
 777,97;13954,846;  240,192;52818,682;26,08415
 778,54;13968,172;  258,500;52950,189;26,01866
 779,11;14028,574;  274,269;52843,619;26,16411
 779,67;14092,208;  234,500;52834,818;26,34529
 780,24;14102,456;  256,192;52506,863;26,49969
 780,80;14130,551;  262,962;52651,601;26,47060
 781,37;14218,107;  255,654;52612,030;26,66811
 781,94;14192,818;  253,808;52334,229;26,76440
 782,50;14280,220;  268,654;52248,582;26,95572
 783,07;14317,622;  279,423;52270,166;27,00134
 783,63;14302,717;  242,577;52036,211;27,14646
 784,20;14352,658;  272,731;51992,410;27,22354
 784,77;14287,984;  262,038;51822,378;27,20297
 785,33;14335,925;  224,577;51675,577;27,42677
 785,90;14374,020;  252,269;51602,853;27,50066
 786,46;14412,576;  266,885;51617,129;27,54747
 787,03;14348,132;  241,500;51368,405;27,59141
 787,59;14364,073;  247,423;51254,450;27,67589
 788,16;14431,322;  256,808;51280,034;27,78051
 788,73;14361,186;  267,885;51134,695;27,70628
 789,29;14358,973;  250,423;50709,817;27,96021
 789,86;14434,991;  266,269;50648,862;28,12226
 790,42;14461,163;  258,962;50533,676;28,24919
 790,99;14347,950;  268,038;50126,183;28,23994
 791,55;14440,198;  235,115;50160,767;28,45247
 792,12;14440,062;  264,269;50128,043;28,42904
 792,68;14449,696;  249,808;49828,242;28,64126
 793,25;14504,714;  264,192;49595,979;28,86683
 793,81;14504,270;  304,038;49274,563;28,99751
 794,38;14354,211;  224,654;48975,916;28,98296
 794,94;14315,152;  246,423;48913,961;28,90783
 795,51;14389,093;  263,885;48574,775;29,23814
 796,07;14329,418;  251,192;48310,590;29,29339
 796,64;14454,513;  266,654;48374,250;29,49193
 797,20;14374,070;  253,962;47899,218;29,63592
 797,77;14280,857;  229,808;47614,802;29,65295
 798,33;14316,182;  248,577;47427,847;29,81734
 798,90;14303,508;  274,654;47415,200;29,75963
 799,46;14306,295;  251,654;46928,938;30,11024
 800,03;14257,159;  251,115;46876,137;30,03976
 800,59;14283,331;  266,808;46620,336;30,23831
 801,15;14245,579;  269,423;46291,688;30,36825
 801,72;14148,751;  258,038;46018,118;30,35553
 802,28;14112,846;  294,346;45817,240;30,35506
 802,85;13979,094;  248,423;45549,209;30,31001
 803,41;14051,112;  252,346;45477,023;30,51159
 803,98;13914,823;  246,038;44988,837;30,54968
 804,54;14002,148;  246,962;44593,575;31,01745
 805,11;13997,551;  254,808;44499,543;31,06074
 805,67;13993,492;  276,885;44357,588;31,11703
 806,23;13958,817;  261,731;43924,864;31,36991
 806,80;13967,989;  270,346;43861,063;31,42330
 807,36;13958,930;  279,423;43848,416;31,39734
 807,93;13954,025;  283,654;43528,769;31,61136
 808,49;13888,658;  242,500;43195,660;31,76986
 809,05;13883,368;  229,269;42921,552;31,98259
 809,62;13899,540;  267,115;42966,135;31,92679
 810,18;13930,712;  262,885;42795,719;32,13477
 810,74;13883,806;  232,962;42509,533;32,28938
 811,31;13964,440;  238,038;42307,425;32,62800
 811,87;13876,842;  245,962;42167,855;32,51495
 812,44;13983,552;  274,500;42128,438;32,75451
 813,00;13842,647;  207,962;41752,329;32,81958
 813,56;14032,203;  252,654;41901,452;33,08511
 814,13;14009,683;  253,346;41790,958;33,11778
 814,69;13938,932;  243,962;41632,157;33,08907
 815,25;13848,719;  220,038;41120,741;33,32138
 815,82;13897,044;  247,500;41064,402;33,44091
 816,38;13947,831;  274,269;40862,601;33,68841
 816,94;13821,618;  233,423;40639,492;33,62910
 817,51;13778,329;  218,269;40420,383;33,72972
 818,07;13730,039;  222,962;40125,967;33,84977
 818,63;13667,980;  241,346;39966,781;33,79858
 819,20;13765,075;  252,577;39812,980;34,15662
 819,76;13592,785;  224,192;39399,641;34,12493
 820,32;13589,110;  269,423;39327,609;34,10217
 820,89;13585,128;  257,192;39165,347;34,25487
 821,45;13500,531;  237,808;38806,776;34,38703
 822,01;13432,010;  242,962;38571,591;34,41044
 822,57;13439,259;  253,885;38439,328;34,52984
 823,14;13352,661;  220,423;38234,912;34,54535
 823,70;13326,448;  238,731;37973,419;34,68352
 824,26;13289,466;  235,654;37874,233;34,68200
 824,82;13283,330;  255,500;37617,586;34,86912
 825,39;13191,271;  225,731;37362,785;34,91268
 825,95;13250,212;  258,962;37430,369;34,94958
 826,51;13185,692;  255,269;37014,952;35,17555
 827,08;13202,402;  275,038;37182,690;35,02624
 827,64;13137,035;  248,115;36880,273;35,18471
 828,20;13043,053;  223,192;36556,703;35,28385
 828,76;13074,071;  257,654;36628,133;35,23852
 829,32;13110,320;  250,731;36463,024;35,51167
 829,89;13069,414;  216,269;36350,069;35,57098
 830,45;13126,740;  241,577;36198,192;35,83531
 831,01;13102,065;  226,192;36027,006;35,96531
 831,57;13065,006;  243,346;35901,974;35,95668
 832,14;13071,870;  235,808;36020,712;35,87005
 832,70;12949,581;  225,885;35719,065;35,84828
 833,26;12962,752;  208,577;35634,725;36,00215
 833,82;12963,616;  229,115;35582,540;36,02056
 834,38;13054,250;  225,962;35534,739;36,33173
 834,95;12963,421;  218,962;35426,399;36,19820
 835,51;12938,285;  194,731;35223,906;36,37983
 836,07;13013,303;  244,192;35315,413;36,40909
 836,63;13057,937;  249,269;35359,073;36,48174
 837,19;13047,724;  237,192;35115,580;36,72914
 837,75;12957,511;  205,115;34793,625;36,86888
 838,32;13033,529;  248,962;35016,670;36,77138
 838,88;13080,316;  251,577;34949,100;36,97307
 839,44;13037,949;  243,115;34841,914;36,98057
 840,00;13111,582;  237,115;34913,267;37,12773
 840,56;12987,446;  225,269;34495,082;37,24029
 841,12;13018,310;  221,192;34474,435;37,36031
 841,68;12974,482;  204,115;34229,710;37,53165
 842,25;13048,423;  211,038;34307,063;37,65068
 842,81;13002,518;  216,962;34010,493;37,83433
 843,37;13038,459;  210,192;34050,692;37,90803
 843,93;13013,631;  217,808;33889,968;38,00119
 844,49;13057,572;  234,346;33999,629;37,97755
 845,05;13021,128;  204,731;33864,828;38,07594
 845,61;13101,915;  240,885;33911,642;38,19644
 846,17;13008,625;  219,115;33661,149;38,24382
 846,73;13037,951;  236,654;33700,194;38,25446
 847,29;12922,661;  206,654;33508,624;38,18395
 847,86;13023,525;  221,423;33454,130;38,52260
 848,42;12976,158;  207,423;33202,176;38,69929
 848,98;13051,099;  227,500;33204,452;38,88655
 849,54;13095,963;  207,500;33322,497;38,92032
 850,10;13062,520;  235,192;33044,696;39,09638
 850,66;13044,614;  203,500;32992,818;39,16249
 851,22;13044,940;  212,038;32836,094;39,33570
 851,78;13163,958;  256,577;33003,447;39,41562
 852,34;13106,437;  233,346;32705,723;39,64321
 852,90;13092,994;  216,269;32541,076;39,83543
 853,46;13088,781;  220,962;32350,044;40,05038
 854,02;13061,722;  226,192;32339,474;39,96954
 854,58;12945,432;  218,962;32114,365;39,90064
 855,14;12969,834;  209,577;31986,872;40,15527
 855,70;12966,468;  195,269;31876,532;40,31152
 856,26;12957,639;  243,192;31822,577;40,26186
 856,82;12965,888;  209,962;31688,315;40,52285
 857,38;13001,290;  244,500;31559,591;40,73688
 857,94;12991,462;  218,577;31394,636;40,97017
 858,50;12895,557;  226,885;31348,912;40,70645
 859,06;12824,652;  219,423;31076,111;40,85088
 859,62;12865,439;  244,654;31126,464;40,86802
 860,18;12741,841;  226,731;30817,509;40,91138
 860,74;12737,090;  198,577;30798,477;40,97567
 861,30;12746,185;  193,423;30541,215;41,36302
 861,86;12824,126;  255,115;30505,414;41,55004
 862,42;12688,759;  230,192;30400,459;41,29419
 862,98;12774,008;  240,423;30387,350;41,57500
 863,54;12730,333;  228,038;30150,242;41,78267
 864,10;12775,505;  219,962;30201,056;41,87820
 864,66;12606,138;  205,192;29923,024;41,72897
 865,22;12609,079;  217,577;29811,839;41,87130
 865,78;12615,482;  223,731;29690,961;42,05265
 866,34;12521,423;  211,885;29597,006;41,89038
 866,90;12546,979;  222,346;29420,667;42,21007
 867,45;12532,766;  235,654;29264,789;42,36128
 868,01;12493,630;  213,962;29055,295;42,57663
 868,57;12481,494;  220,808;28985,494;42,62409
 869,13;12510,820;  207,423;28866,386;42,93036
 869,69;12537,684;  215,654;28720,277;43,22818
 870,25;12456,933;  205,038;28589,399;43,16424
 870,81;12433,335;  214,885;28596,060;43,05125
 871,37;12430,661;  225,038;28482,105;43,19494
 871,93;12481,678;  241,731;28352,765;43,54143
 872,49;12509,004;  248,115;28082,580;44,04931
 873,04;12417,099;  200,038;27863,702;44,16284
 873,60;12314,271;  207,038;27770,363;43,92515
 874,16;12357,596;  234,346;27685,946;44,16227
 874,72;12300,827;  226,962;27621,562;44,07389
 875,28;12310,827;  229,423;27516,792;44,27471
 875,84;12283,519;  216,423;27487,792;44,24822
 876,40;12261,596;  213,423;27417,715;44,28777
 876,95;12328,365;  235,346;27372,177;44,56312
 877,51;12385,288;  243,654;27370,408;44,75889
 878,07;12443,135;  258,038;27391,946;44,90727
 878,63;12425,212;  219,577;27445,869;44,83032
 879,19;12459,365;  230,885;27405,946;44,99891
 879,75;12392,750;  221,577;27378,946;44,81720
 880,30;12475,212;  219,731;27367,254;45,14401
 880,86;12596,750;  254,269;27563,177;45,19581
 881,42;12533,212;  206,654;27593,485;45,00907
 881,98;12596,135;  235,962;27669,638;45,05474
 882,54;12657,212;  219,577;27798,869;45,09773
 883,09;12773,212;  226,346;27836,638;45,44271
 883,65;12855,365;  209,962;27868,946;45,71897
 884,21;12964,981;  241,885;28166,177;45,56282
 884,77;12986,519;  216,423;28058,254;45,86658
 885,32;13140,058;  219,423;28323,638;45,97401
 885,88;13193,135;  249,115;28499,485;45,81894
 886,44;13216,519;  233,731;28539,869;45,86563
 887,00;13238,365;  235,192;28524,792;45,96450
 887,56;13358,981;  224,038;28664,100;46,18465
 888,11;13355,058;  215,731;28673,331;46,17159
 888,67;13440,365;  249,346;28836,408;46,14332
 889,23;13483,596;  233,577;28767,023;46,43680
 889,79;13448,596;  211,808;28654,715;46,53810
 890,34;13543,288;  221,346;28536,331;47,04909
 890,90;13588,750;  280,192;28763,485;46,72408
 891,46;13560,288;  223,346;28688,100;46,85423
 892,01;13602,596;  236,269;28688,331;46,97841
 892,57;13657,288;  261,808;28568,869;47,32205
 893,13;13610,673;  222,577;28388,254;47,53337
 893,69;13550,058;  216,885;28366,638;47,36515
 894,24;13599,135;  230,962;28238,485;47,73065
 894,80;13593,135;  228,654;28073,023;47,99707
 895,36;13581,288;  226,269;27945,715;48,17924
 895,91;13499,135;  224,115;27772,177;48,18858
 896,47;13478,135;  227,654;27630,638;48,35415
 897,03;13335,981;  207,423;27426,023;48,23377
 897,58;13353,058;  229,885;27389,715;48,31832
 898,14;13282,519;  234,115;27163,869;48,45348
 898,70;13198,673;  200,192;27052,177;48,40790
 899,25;13202,981;  214,192;27048,485;48,40369
 899,81;13081,135;  240,423;26817,023;48,31586
 900,37;13049,058;  195,654;26691,715;48,51062
 900,92;13075,135;  226,577;26648,946;48,62758
 901,48;13051,750;  210,885;26489,946;48,86349
 902,03;12964,827;  222,192;26445,638;48,59252
 902,59;12941,442;  216,577;26287,100;48,80940
 903,15;12901,365;  228,577;26161,177;48,86818
 903,70;12789,442;  213,500;25851,023;49,05288
 904,26;12790,750;  211,962;25775,946;49,20512
 904,82;12829,981;  214,192;25685,331;49,52974
 905,37;12742,442;  221,038;25588,715;49,35968
 905,93;12687,058;  205,192;25444,100;49,45486
 906,48;12799,904;  229,577;25303,100;50,13387
 907,04;12820,673;  238,500;25277,331;50,25064
 907,60;12718,827;  218,115;25060,869;50,31935
 908,15;12678,365;  206,038;24989,638;50,32492
 908,71;12739,212;  246,654;25035,562;50,39576
 909,26;12723,981;  204,808;24829,792;50,83931
 909,82;12733,673;  243,423;24665,485;51,14331
 910,37;12763,212;  260,577;24589,638;51,38971
 910,93;12557,212;  203,500;24398,562;51,05881
 911,48;12548,750;  203,192;24287,638;51,25946
 912,04;12543,288;  203,192;24154,792;51,52097
 912,60;12584,135;  225,269;24176,562;51,59999
 913,15;12527,442;  218,808;23982,869;51,79516
 913,71;12434,212;  215,192;23813,177;51,77993
 914,26;12471,365;  195,577;23796,177;52,01473
 914,82;12424,519;  220,423;23671,946;52,03967
 915,37;12385,212;  202,115;23654,100;51,94911
 915,93;12366,212;  247,885;23523,177;52,06520
 916,48;12349,673;  208,423;23316,485;52,54119
 917,04;12287,904;  234,192;23227,946;52,42168
 917,59;12312,596;  249,346;23147,331;52,68258
 918,15;12219,288;  189,192;22916,100;52,93327
 918,70;12266,904;  211,500;22905,254;53,12212
 919,26;12220,596;  213,885;22839,946;53,06585
 919,81;12127,673;  198,731;22574,869;53,31100
 920,37;12132,365;  210,115;22514,331;53,45290
 920,92;12125,673;  221,962;22451,562;53,54892
 921,48;11991,673;  191,885;22284,254;53,41115
 922,03;11979,365;  211,346;22247,331;53,40365
 922,59;12015,135;  210,192;22099,408;53,93040
 923,14;11984,519;  201,885;22028,562;53,98272
 923,69;11987,288;  229,731;21942,254;54,15104
 924,25;12025,365;  231,654;21930,485;54,35183
 924,80;11928,981;  215,269;21635,638;54,68492
 925,36;11885,365;  205,115;21567,177;54,67754
 925,91;11815,135;  216,115;21442,023;54,64557
 926,47;11842,827;  201,500;21348,177;55,05038
 927,02;11823,442;  241,885;21233,177;55,17315
 927,57;11740,596;  211,808;21193,023;54,94814
 928,13;11675,365;  205,500;21056,946;55,00753
 928,68;11777,058;  206,423;20975,715;55,71030
 929,24;11679,212;  173,423;20732,100;55,96561
 929,79;11629,673;  196,808;20697,946;55,76698
 930,34;11597,058;  206,731;20568,331;55,94024
 930,90;11557,519;  193,577;20496,023;55,97327
 931,45;11603,288;  214,038;20473,485;56,21699
 932,01;11578,135;  222,577;20391,485;56,30229
 932,56;11512,135;  227,346;20204,408;56,48873
 933,11;11559,442;  226,500;20171,100;56,82211
 933,67;11387,288;  206,192;20034,869;56,38851
 934,22;11470,750;  205,654;19951,562;57,05028
 934,77;11346,442;  228,654;19816,100;56,75977
 935,33;11376,596;  219,654;19760,100;57,09666
 935,88;11431,673;  215,115;19628,562;57,77726
 936,43;11392,904;  201,731;19583,638;57,74031
 936,99;11351,135;  213,038;19487,023;57,78824
 937,54;11263,365;  190,731;19303,792;57,93229
 938,09;11199,981;  218,885;19204,869;57,83791
 938,65;11173,750;  213,423;19075,562;58,10755
 939,20;11091,519;  191,192;19059,792;57,76966
 939,75;11066,442;  194,423;18909,869;58,09116
 940,31;11025,365;  187,346;18825,177;58,15065
 940,86;11055,058;  218,654;18790,792;58,34764
 941,41;11020,981;  270,192;18699,792;58,33436
 941,96;10996,827;  202,192;18558,331;58,80667
 942,52;10929,442;  201,654;18439,485;58,82163
 943,07;10823,750;  190,577;18327,100;58,62851
 943,62;10779,981;  199,962;18250,408;58,61362
 944,18;10832,058;  186,731;18171,562;59,19059
 944,73;10768,981;  204,808;18127,254;58,94381
 945,28;10703,596;  172,423;17934,792;59,28924
 945,83;10683,058;  197,115;17956,408;59,04482
 946,39;10753,750;  197,654;17893,562;59,65275
 946,94;10798,904;  217,500;17802,638;60,17242
 947,49;10738,442;  198,038;17767,177;59,99386
 948,04;10765,596;  230,038;17676,023;60,38958
 948,59;10752,673;  218,885;17617,946;60,54228
 949,15;10679,058;  183,192;17526,869;60,51696
 949,70;10608,827;  205,731;17366,408;60,62171
 950,25;10581,596;  222,654;17313,792;60,61002
 950,80;10571,596;  179,115;17177,562;61,13783
 951,36;10486,673;  177,038;17072,869;61,01881
 951,91;10533,596;  220,577;17073,869;61,19291
 952,46;10446,135;  190,654;16876,023;61,46391
 953,01;10472,365;  216,192;16923,100;61,38882
 953,56;10381,981;  179,115;16804,792;61,36812
 954,11;10353,212;  202,500;16721,715;61,44790
 954,67;10360,442;  195,885;16684,792;61,64482
 955,22;10219,596;  171,577;16496,792;61,54908
 955,77;10291,058;  233,885;16463,869;61,96662
 956,32;10271,596;  244,423;16367,715;62,19061
 956,87;10202,673;  191,269;16232,100;62,41200
 957,42;10169,519;  195,500;16132,023;62,58592
 957,98;10173,519;  200,192;16120,023;62,64719
 958,53;10122,058;  219,115;16007,946;62,72119
 959,08;10086,442;  187,808;15892,100;63,03140
 959,63;10038,058;  195,500;15838,715;62,91902
 960,18;10061,750;  220,192;15783,792;63,23446
 960,73; 9994,904;  206,115;15720,638;63,09436
 961,28; 9860,212;  177,885;15618,254;62,70787
 961,83; 9880,827;  225,962;15547,408;63,01537
 962,39; 9727,442;  194,808;15473,023;62,39364
 962,94; 9807,519;  215,115;15443,869;62,98876
 963,49; 9702,981;  207,115;15190,100;63,37766
 964,04; 9746,365;  216,038;15176,946;63,70153
 964,59; 9708,904;  181,808;15064,408;64,01500
 965,14; 9801,135;  223,115;15022,485;64,71910
 965,69; 9735,058;  211,115;14941,331;64,65583
 966,24; 9635,442;  202,577;14865,792;64,33013
 966,79; 9632,442;  216,731;14688,408;65,06303
 967,34; 9558,904;  186,731;14645,792;64,81868
 967,89; 9524,058;  205,500;14603,638;64,72057
 968,44; 9544,442;  213,885;14464,100;65,47661
 968,99; 9486,673;  208,577;14453,562;65,13237
 969,55; 9385,750;  221,885;14301,331;65,08683
 970,10; 9399,827;  218,808;14262,408;65,37511
 970,65; 9434,365;  225,654;14139,485;66,18387
 971,20; 9284,058;  196,269;14004,946;65,81216
 971,75; 9236,288;  177,115;13929,408;65,87391
 972,30; 9221,596;  207,808;13820,100;66,21801
 972,85; 9236,673;  195,346;13798,485;66,46501
 973,40; 9123,596;  194,500;13662,715;66,29754
 973,95; 9070,212;  212,192;13618,177;66,07511
 974,50; 9101,058;  230,808;13514,177;66,77711
 975,05; 9065,365;  216,115;13345,408;67,40081
 975,60; 8995,596;  225,269;13356,638;66,78913
 976,15; 8973,288;  200,731;13206,331;67,45216
 976,70; 8936,365;  210,038;13141,562;67,48105
 977,25; 8932,365;  215,654;13152,485;67,37903
 977,80; 8824,750;  197,500;12952,177;67,63989
 978,35; 8792,904;  215,962;12799,177;68,16177
 978,89; 8741,058;  193,115;12728,485;68,19059
 979,44; 8808,365;  208,192;12722,715;68,72154
 979,99; 8694,673;  192,577;12486,869;69,15482
 980,54; 8686,827;  232,808;12459,177;69,14579
 981,09; 8639,212;  213,962;12387,715;69,20832
 981,64; 8567,750;  222,808;12218,254;69,56759
 982,19; 8520,058;  246,577;12186,715;69,29133
 982,74; 8435,135;  229,038;12081,562;69,23502
 983,29; 8397,596;  193,269;11925,100;69,93220
 983,84; 8357,750;  221,346;11826,638;70,10943
 984,39; 8425,442;  245,808;11778,254;70,92714
 984,94; 8287,904;  182,577;11670,254;70,55671
 985,49; 8274,135;  243,192;11606,331;70,67539
 986,03; 8229,750;  228,808;11524,023;70,83479
 986,58; 8189,058;  244,346;11344,100;71,57557
 987,13; 8063,673;  214,346;11224,638;71,29081
 987,68; 8002,827;  223,038;11128,562;71,33806
 988,23; 7997,673;  225,885;11075,946;71,62898
 988,78; 7920,135;  212,808;10904,562;72,08665
 989,33; 7884,365;  218,500;10849,485;72,10871
 989,88; 7908,288;  234,269;10762,408;72,89056
 990,42; 7745,212;  211,269;10615,100;72,41508
 990,97; 7739,519;  212,654;10535,177;72,91692
 991,52; 7695,365;  228,962;10502,485;72,67618
 992,07; 7657,365;  248,423;10361,946;73,25778
 992,62; 7597,365;  225,038;10189,408;73,98689
 993,17; 7487,365;  225,269;10094,331;73,58447
 993,71; 7420,673;  219,885;10107,331;72,82759
 994,26; 7314,365;  205,731; 9964,254;72,84539
 994,81; 7344,288;  232,269; 9891,331;73,63054
 995,36; 7215,750;  208,115; 9678,946;73,99176
 995,91; 7179,135;  229,654; 9669,100;73,62170
 996,45; 7092,058;  218,885; 9569,254;73,50697
 997,00; 6987,442;  192,962; 9417,100;73,65979
 997,55; 6993,981;  221,192; 9413,177;73,68146
 998,10; 6895,288;  239,269; 9289,100;73,54855
 998,65; 6884,442;  211,731; 9197,946;74,25497
 999,19; 6832,673;  239,577; 9082,100;74,56125
 999,74; 6810,365;  251,577; 9015,562;74,83797
1000,29; 6726,673;  226,577; 8900,100;74,94182
1000,84; 6621,596;  213,346; 8722,792;75,30749
1001,38; 6583,596;  218,346; 8685,946;75,17183
1001,93; 6575,904;  227,115; 8630,408;75,55120
1002,48; 6428,981;  207,346; 8495,408;75,06743
1003,03; 6443,827;  221,038; 8441,177;75,70175
1003,57; 6358,519;  232,500; 8311,562;75,82588
1004,12; 6293,750;  242,962; 8265,100;75,42613
1004,67; 6220,673;  213,731; 8124,331;75,93536
1005,22; 6108,519;  208,115; 8027,485;75,45882
1005,76; 6073,058;  194,192; 7867,638;76,61311
1006,31; 6103,058;  231,731; 7860,331;76,96467
1006,86; 6005,442;  217,885; 7697,100;77,38188
1007,40; 5898,519;  196,038; 7572,638;77,30500
1007,95; 5883,442;  227,423; 7542,331;77,32181
1008,50; 5798,750;  215,962; 7394,638;77,76904
1009,04; 5744,212;  220,346; 7305,177;77,96750
1009,59; 5614,288;  228,577; 7163,408;77,66176
1010,14; 5591,442;  200,192; 7051,177;78,69307
1010,68; 5492,288;  216,885; 6957,100;78,26759
1011,23; 5439,058;  205,885; 6840,408;78,87791
1011,78; 5404,058;  227,654; 6773,485;79,07940
1012,32; 5345,827;  225,731; 6713,638;78,91752
1012,87; 5278,673;  245,577; 6661,408;78,44808
1013,42; 5247,750;  212,423; 6534,638;79,64498
1013,96; 5250,058;  230,962; 6541,023;79,54116
1014,51; 5155,442;  190,115; 6461,946;79,16870
1015,06; 5173,519;  196,038; 6426,869;79,88470
1015,60; 5280,058;  258,577; 6502,485;80,42209
1016,15; 5234,827;  205,115; 6444,562;80,61151
1016,69; 5246,596;  213,577; 6497,254;80,09672
1017,24; 5285,596;  176,192; 6482,023;81,02666
1017,79; 5373,365;  241,808; 6550,023;81,34722
1018,33; 5351,519;  199,654; 6533,792;81,33490
1018,88; 5436,673;  223,423; 6568,177;82,16631
1019,42; 5432,288;  211,192; 6560,792;82,22717
1019,97; 5382,288;  212,423; 6527,177;81,86963
1020,51; 5441,673;  224,962; 6566,562;82,26176
1021,06; 5444,673;  207,962; 6543,254;82,65935
1021,61; 5423,058;  181,115; 6513,792;82,77609
1022,15; 5398,596;  168,962; 6442,177;83,36450
1022,70; 5453,365;  203,731; 6440,946;84,16632
1023,24; 5392,058;  200,346; 6375,869;84,06918
1023,79; 5355,288;  220,192; 6347,177;83,81115
1024,33; 5310,827;  202,192; 6301,100;83,76311
1024,88; 5260,442;  208,577; 6204,023;84,26171
1025,42; 5157,904;  219,500; 6081,562;84,24347
1025,97; 5094,288;  206,269; 6018,254;84,10241
1026,51; 4986,058;  175,731; 5925,869;83,65585
1027,06; 4972,442;  201,423; 5861,715;84,28927
1027,60; 4866,519;  220,654; 5720,331;84,47524
1028,15; 4846,673;  223,423; 5677,485;84,76710
1028,69; 4691,904;  189,500; 5559,869;83,83788
1029,24; 4632,981;  194,038; 5506,869;83,55136
1029,78; 4583,673;  200,808; 5388,177;84,49110
1030,33; 4466,212;  185,423; 5294,177;83,79320
1030,87; 4481,442;  198,731; 5259,331;84,62853
1031,42; 4373,135;  189,808; 5108,869;85,04319
1031,96; 4325,596;  207,808; 5087,638;84,38384
1032,51; 4239,981;  183,346; 5015,408;83,95246
1033,05; 4250,596;  217,500; 4933,792;85,51413
1033,60; 4129,750;  177,577; 4828,408;84,97779
1034,14; 4078,827;  201,346; 4796,177;84,38789
1034,69; 4068,288;  204,038; 4723,946;85,49400
1035,23; 3995,673;  203,654; 4625,869;85,74931
1035,77; 3951,673;  196,577; 4560,792;86,04287
1036,32; 3890,904;  168,885; 4510,100;85,73680
1036,86; 3881,212;  206,038; 4476,254;86,06529
1037,41; 3809,442;  218,654; 4393,715;86,00564
1037,95; 3707,827;  173,885; 4305,715;85,52970
1038,50; 3692,750;  187,115; 4273,792;85,78203
1039,04; 3699,519;  209,115; 4244,562;86,49363
1039,58; 3583,212;  178,808; 4137,408;86,00020
1040,13; 3543,750;  198,115; 4066,946;86,47663
1040,67; 3561,212;  225,577; 4075,177;86,64886
1041,21; 3509,135;  224,115; 3994,023;87,13792
1041,76; 3411,519;  182,423; 3893,562;87,01093
1042,30; 3369,442;  201,269; 3857,946;86,64077
1042,85; 3339,750;  197,269; 3804,715;87,11095
1043,39; 3288,596;  199,577; 3746,638;87,08671
1043,93; 3264,827;  211,423; 3715,869;87,12943
1044,48; 3190,596;  209,808; 3657,408;86,45981
1045,02; 3159,981;  202,115; 3598,562;87,08707
1045,56; 3126,673;  225,115; 3584,100;86,38199
1046,11; 3079,673;  209,808; 3527,331;86,50627
1046,65; 3025,904;  208,962; 3443,331;87,09402
1047,19; 3003,827;  196,038; 3395,254;87,76491
1047,74; 2938,904;  190,731; 3358,100;86,76516
1048,28; 2920,365;  206,500; 3297,177;87,80812
1048,82; 2907,135;  226,038; 3301,254;87,18401
1049,37; 2845,519;  214,654; 3222,562;87,46496
1049,91; 2825,288;  203,115; 3174,331;88,25254
1050,45; 2786,827;  229,346; 3154,715;87,42420
1050,99; 2748,288;  206,577; 3058,177;89,13282
1051,54; 2704,981;  191,500; 3019,792;88,86920
1052,08; 2672,596;  227,885; 3021,408;87,51356
1052,62; 2665,596;  215,654; 2969,485;88,96488
1053,16; 2569,673;  201,115; 2912,100;87,36891
1053,71; 2565,212;  222,423; 2899,177;87,52349
1054,25; 2558,442;  216,731; 2838,408;89,32113
1054,79; 2512,981;  218,346; 2781,715;89,51635
1055,33; 2433,135;  183,115; 2715,946;88,83417
1055,88; 2456,981;  219,654; 2728,946;89,16167
1056,42; 2425,673;  220,192; 2698,946;88,97538
1056,96; 2387,904;  219,577; 2620,177;90,32437
1057,50; 2371,442;  219,192; 2593,254;90,65687
1058,05; 2305,288;  211,192; 2561,869;89,08481
1058,59; 2301,673;  231,731; 2519,792;90,46707
1059,13; 2206,904;  193,654; 2461,408;88,77727
1059,67; 2236,981;  220,731; 2447,485;90,54660
1060,21; 2205,135;  217,346; 2385,485;91,68180
1060,76; 2174,135;  226,269; 2370,869;90,82651
1061,30; 2182,058;  225,731; 2370,562;91,21125
1061,84; 2082,673;  214,115; 2323,869;88,56757
1062,38; 2059,596;  198,192; 2263,100;90,14465
1062,92; 2081,750;  242,038; 2284,485;90,07393
1063,46; 2037,442;  228,808; 2236,638;90,07904
1064,01; 1995,212;  212,346; 2186,331;90,31810
1064,55; 1984,750;  219,346; 2165,100;90,73110
1065,09; 1913,981;  193,885; 2086,562;90,88166
1065,63; 1951,596;  241,423; 2113,562;91,34864
1066,17; 1954,135;  231,654; 2096,408;92,37041
1066,71; 1918,288;  225,962; 2081,408;91,20862
1067,25; 1869,827;  203,577; 2020,408;91,71190
1067,80; 1868,750;  227,654; 2028,177;91,14552
1068,34; 1854,135;  239,192; 2025,023;90,43087
1068,88; 1802,827;  214,423; 1941,715;91,95918
1069,42; 1838,981;  239,192; 1969,177;92,47414
1069,96; 1766,750;  213,577; 1901,331;92,02604
1070,50; 1790,904;  249,808; 1936,638;91,36045
1071,04; 1721,519;  205,962; 1845,023;92,46497
1071,58; 1709,904;  209,808; 1821,869;93,05452
1072,12; 1690,288;  207,731; 1823,792;91,73894
1072,66; 1682,981;  213,962; 1796,638;92,81864
1073,21; 1682,981;  231,423; 1807,331;92,10931
1073,75; 1656,827;  217,808; 1748,177;94,03085
1074,29; 1631,827;  220,808; 1742,638;92,71854
1074,83; 1628,365;  246,115; 1746,792;92,10843
1075,37; 1611,750;  228,654; 1686,562;94,86857
1075,91; 1600,596;  234,731; 1694,715;93,55341
1076,45; 1566,904;  223,885; 1669,485;92,90393
1076,99; 1566,750;  229,192; 1639,100;94,86846
1077,53; 1516,442;  214,423; 1599,331;94,01487
1078,07; 1530,058;  230,115; 1586,792;95,81812
1078,61; 1504,519;  222,038; 1560,946;95,78560
1079,15; 1486,904;  215,346; 1550,946;95,20498
1079,69; 1450,673;  226,885; 1530,946;93,84438
1080,23; 1463,750;  239,500; 1534,946;94,50412
1080,77; 1502,442;  260,962; 1525,562;98,17181
1081,31; 1400,596;  203,654; 1467,254;94,72478
1081,85; 1440,981;  243,269; 1473,177;97,38223
1082,39; 1410,288;  223,654; 1449,177;96,82679
1082,93; 1394,135;  232,115; 1434,869;96,61322
1083,47; 1368,135;  213,731; 1386,638;98,42240
1084,01; 1377,442;  239,269; 1409,254;97,28103
1084,55; 1342,135;  213,038; 1378,177;96,90661
1085,09; 1347,135;  236,654; 1364,331;98,47508
1085,63; 1318,442;  224,500; 1351,869;97,03496
1086,17; 1297,058;  205,423; 1325,331;97,47541
1086,71; 1266,827;  215,577; 1304,792;96,51443
1087,24; 1309,442;  248,192; 1333,869;97,75007
1087,78; 1291,288;  235,731; 1295,254;99,62574
1088,32; 1244,135;  211,885; 1270,792;97,48253
1088,86; 1249,673;  241,269; 1277,869;97,27994
1089,40; 1236,212;  230,423; 1241,638;99,46333
1089,94; 1187,827;  198,654; 1216,946;97,14039
1090,48; 1197,827;  228,808; 1226,869;97,09013
1091,02; 1189,135;  232,731; 1220,177;96,85630
1091,56; 1161,442;  223,192; 1189,792;97,06704
1092,10; 1134,981;  204,654; 1167,946;96,57784
1092,63; 1169,442;  246,808; 1166,254;100,34678
1093,17; 1142,596;  226,577; 1152,715;98,90737
1093,71; 1120,519;  216,808; 1130,792;98,87601
1094,25; 1125,442;  243,885; 1136,331;98,77993
1094,79; 1093,750;  227,654; 1119,254;97,13954
1095,33; 1099,212;  224,577; 1105,408;99,29656
1095,87; 1081,673;  226,654; 1092,638;98,73377
1096,40; 1045,750;  209,500; 1048,023;99,72892
1096,94; 1067,058;  224,423; 1081,331;98,33435
1097,48; 1057,365;  229,346; 1054,562;100,33977
1098,02; 1024,673;  221,577; 1030,946;99,22494
1098,56;  995,596;  195,192;  992,715;100,36121
1099,10;  988,904;  199,346;  996,869;99,00123
1099,63;  980,904;  207,192;  988,485;99,02971
1100,17;  989,365;  227,654;  988,100;100,16640
1100,71; 1014,750;  235,962;  995,946;102,47424

