
Integration time [ms]: 140,000
Averaging Nr. [scans]: 13
Smoothing Nr. [pixels]: 0
Data measured with spectrometer [name]: 2009305U1
Wave   ;Sample   ;Dark     ;Reference;Reflectance
[nm]   ;[counts] ;[counts] ;[counts] ;[%]

 175,72;  217,736;  207,672;  215,673;125,78915
 176,32;  252,740;  238,424;  241,025;550,31462
 176,92;  280,162;  272,128;  266,109; 0,00000
 177,52;  267,534;  265,361;  267,675;93,86937
 178,12;  252,569;  258,117;  238,311; 0,00000
 178,72;  283,959;  276,958;  258,525; 0,00000
 179,32;  277,183;  279,578;  258,748; 0,00000
 179,92;  275,030;  269,431;  262,806; 0,00000
 180,52;  276,283;  254,297;  261,455;307,13766
 181,12;  279,264;  273,355;  266,130; 0,00000
 181,73;  294,288;  284,895;  277,919; 0,00000
 182,33;  402,683;  381,443;  397,957;128,61825
 182,93;  294,610;  280,130;  286,949;212,34505
 183,53;  254,662;  255,340;  247,813; 0,00000
 184,13;  261,747;  242,804;  237,845; 0,00000
 184,73;  301,040;  293,338;  296,892;216,71533
 185,33;  298,385;  261,312;  361,143;37,13608
 185,93;  306,309;  243,376;  381,547;45,54708
 186,53;  327,598;  260,229;  410,327;44,88341
 187,13;  356,293;  280,704;  420,213;54,18200
 187,73;  307,872;  257,224;  382,447;40,44610
 188,33;  319,043;  249,678;  381,863;52,47555
 188,93;  326,745;  263,040;  387,891;51,02438
 189,53;  322,674;  261,946;  380,542;51,20526
 190,13;  374,878;  304,841;  423,007;59,27030
 190,73;  307,608;  226,937;  387,302;50,30473
 191,34;  345,533;  266,803;  406,760;56,25293
 191,94;  303,117;  249,363;  387,164;39,00793
 192,54;  324,938;  271,253;  415,221;37,28982
 193,14;  336,577;  271,395;  415,304;45,29420
 193,74;  323,897;  275,854;  398,242;39,25475
 194,34;  320,702;  265,090;  415,805;36,89845
 194,94;  283,577;  230,318;  367,347;38,86681
 195,54;  266,502;  226,774;  345,997;33,32275
 196,14;  287,634;  238,863;  381,829;34,11388
 196,74;  294,762;  237,002;  371,341;42,99598
 197,34;  272,582;  212,871;  367,061;38,72562
 197,94;  290,948;  246,858;  398,110;29,14971
 198,54;  304,691;  250,016;  414,320;33,27677
 199,14;  279,961;  227,106;  389,582;32,53079
 199,74;  260,423;  216,953;  394,616;24,46794
 200,34;  269,659;  205,647;  412,777;30,90443
 200,94;  300,460;  245,177;  440,849;28,25322
 201,54;  290,550;  228,181;  443,845;28,91973
 202,14;  323,189;  260,035;  509,855;25,27990
 202,74;  294,902;  231,337;  483,408;25,21729
 203,34;  280,456;  198,887;  505,069;26,64092
 203,94;  254,885;  174,805;  503,718;24,34689
 204,54;  323,585;  257,705;  595,985;19,47501
 205,14;  293,172;  217,029;  614,536;19,15520
 205,74;  351,301;  257,732;  713,847;20,51430
 206,34;  298,323;  215,112;  712,928;16,71528
 206,94;  330,394;  225,648;  764,426;19,44141
 207,54;  300,340;  199,803;  808,104;16,52752
 208,14;  324,788;  211,343;  894,372;16,60899
 208,74;  332,882;  218,875;  969,173;15,19492
 209,34;  332,002;  202,492; 1054,701;15,19701
 209,94;  361,904;  229,414; 1142,048;14,51733
 210,54;  373,121;  221,730; 1275,922;14,36082
 211,14;  393,595;  229,798; 1378,519;14,25906
 211,73;  396,220;  228,180; 1485,662;13,36325
 212,33;  420,998;  231,561; 1585,815;13,98830
 212,93;  430,034;  215,259; 1695,643;14,50808
 213,53;  414,883;  183,413; 1731,515;14,95181
 214,13;  471,797;  207,122; 1852,881;16,08223
 214,73;  438,266;  193,189; 1865,086;14,65864
 215,33;  436,674;  177,568; 1889,894;15,13178
 215,93;  487,261;  214,578; 2025,839;15,05486
 216,53;  461,860;  165,412; 2077,759;15,50176
 217,13;  539,871;  230,730; 2288,601;15,02237
 217,73;  543,262;  207,271; 2523,291;14,50728
 218,33;  556,763;  175,201; 2679,717;15,23498
 218,93;  618,726;  191,675; 3016,014;15,12037
 219,53;  687,687;  193,509; 3295,597;15,93050
 220,13;  690,503;  162,127; 3615,373;15,30086
 220,73;  770,060;  197,261; 3981,424;15,13673
 221,32;  831,959;  199,413; 4393,481;15,08191
 221,92;  893,558;  207,818; 4824,839;14,85244
 222,52;  928,784;  188,348; 5274,577;14,55765
 223,12; 1022,247;  188,657; 5727,756;15,04921
 223,72; 1087,633;  208,042; 6131,713;14,84875
 224,32; 1145,058;  210,196; 6567,755;14,70473
 224,92; 1173,943;  184,735; 6890,969;14,75057
 225,52; 1246,164;  217,033; 7257,152;14,61809
 226,12; 1266,928;  196,345; 7552,443;14,55368
 226,72; 1280,098;  162,729; 7885,662;14,46820
 227,31; 1348,982;  161,190; 8271,414;14,64561
 227,91; 1427,141;  204,032; 8671,474;14,44485
 228,51; 1438,925;  197,485; 9080,788;13,97498
 229,11; 1509,038;  190,959; 9437,453;14,25491
 229,71; 1574,379;  182,182; 9761,515;14,53335
 230,31; 1603,682;  178,045;10198,283;14,22757
 230,91; 1642,433;  174,328;10495,044;14,22484
 231,51; 1709,762;  179,117;10729,351;14,50816
 232,10; 1771,879;  181,970;11125,042;14,52891
 232,70; 1830,010;  197,706;11327,421;14,66618
 233,30; 1850,874;  217,962;11566,044;14,38932
 233,90; 1882,835;  184,193;11672,874;14,78536
 234,50; 1916,358;  184,348;11762,227;14,95965
 235,10; 1939,327;  181,042;11763,892;15,18007
 235,70; 1997,890;  199,801;11795,777;15,50615
 236,29; 2001,400;  199,490;11790,212;15,54614
 236,89; 1978,647;  173,867;11668,517;15,70104
 237,49; 2048,601;  194,422;11531,473;16,35503
 238,09; 2026,785;  184,188;11258,005;16,63921
 238,69; 2054,711;  225,709;10981,786;17,00436
 239,29; 2002,935;  177,187;10668,835;17,40191
 239,89; 1992,763;  207,482;10293,457;17,70062
 240,48; 1949,361;  187,496; 9905,604;18,12971
 241,08; 1952,817;  193,033; 9504,563;18,89898
 241,68; 1974,267;  210,727; 9188,966;19,64238
 242,28; 1913,045;  184,346; 8793,143;20,08061
 242,88; 1952,490;  230,430; 8481,530;20,87067
 243,48; 1945,754;  238,191; 8141,747;21,60499
 244,07; 1928,871;  198,262; 7914,995;22,42671
 244,67; 1969,712;  216,267; 7750,440;23,27323
 245,27; 1980,990;  214,795; 7569,124;24,01571
 245,87; 2026,640;  207,352; 7508,591;24,91752
 246,47; 2068,952;  205,257; 7502,141;25,54097
 247,06; 2098,069;  196,187; 7436,481;26,26802
 247,66; 2157,826;  190,882; 7536,970;26,77539
 248,26; 2273,474;  215,797; 7659,802;27,64208
 248,86; 2390,107;  208,027; 7773,824;28,84138
 249,46; 2441,300;  157,732; 8056,240;28,91138
 250,05; 2640,283;  203,419; 8430,382;29,62046
 250,65; 2771,371;  170,717; 8749,185;30,31606
 251,25; 2943,604;  192,186; 9257,926;30,34962
 251,85; 3166,089;  189,328; 9838,778;30,84902
 252,44; 3389,689;  157,644;10487,925;31,28710
 253,04; 3668,598;  212,953;11180,039;31,50923
 253,64; 3877,501;  159,100;11919,352;31,61838
 254,24; 4274,205;  214,265;12914,502;31,96744
 254,84; 4581,684;  185,194;13814,933;32,25660
 255,43; 4949,095;  184,183;14851,732;32,48608
 256,03; 5268,965;  190,255;15905,993;32,31608
 256,63; 5653,224;  194,944;17012,116;32,45659
 257,23; 5980,937;  170,483;17967,154;32,64911
 257,82; 6331,746;  202,554;18985,983;32,63085
 258,42; 6611,679;  145,935;19935,819;32,67196
 259,02; 6979,809;  201,184;20864,266;32,80549
 259,62; 7204,250;  183,087;21654,872;32,69948
 260,21; 7451,478;  197,029;22196,203;32,97601
 260,81; 7588,696;  190,268;22801,606;32,71999
 261,41; 7696,473;  177,399;23313,600;32,49918
 262,01; 7921,531;  211,316;23821,639;32,65612
 262,60; 7952,091;  172,944;24241,692;32,32053
 263,20; 8045,585;  176,487;24635,120;32,17309
 263,80; 8116,665;  207,546;24852,328;32,09247
 264,40; 8061,689;  167,317;25095,732;31,66817
 264,99; 8166,278;  195,545;25238,610;31,82810
 265,59; 8093,983;  171,614;25477,207;31,30679
 266,19; 8120,050;  182,546;25585,669;31,24617
 266,78; 8172,094;  226,003;25736,284;31,14858
 267,38; 8069,335;  201,923;25781,847;30,75620
 267,98; 7969,480;  189,696;25840,891;30,32913
 268,58; 7865,066;  194,077;25858,599;29,88947
 269,17; 7813,373;  178,070;25860,805;29,72932
 269,77; 7681,102;  207,403;25655,750;29,36811
 270,37; 7557,258;  166,545;25618,299;29,03813
 270,96; 7487,650;  223,169;25438,167;28,81016
 271,56; 7293,800;  190,174;25228,560;28,37094
 272,16; 7188,721;  182,321;25020,391;28,20831
 272,75; 7058,665;  195,860;25016,044;27,65010
 273,35; 6947,979;  200,708;24855,008;27,36752
 273,95; 6895,589;  192,860;24737,232;27,30862
 274,54; 6831,801;  179,495;24928,455;26,87913
 275,14; 6814,576;  220,401;25139,722;26,46210
 275,74; 6712,857;  169,091;25213,532;26,12862
 276,33; 6821,275;  217,942;25691,686;25,92211
 276,93; 6876,153;  204,036;26054,556;25,81038
 277,53; 6926,093;  193,567;26511,015;25,58199
 278,12; 7010,651;  174,715;27017,644;25,46643
 278,72; 7206,763;  233,104;27762,943;25,33127
 279,32; 7281,511;  192,411;28294,102;25,22659
 279,91; 7486,390;  182,563;28957,693;25,38243
 280,51; 7576,921;  189,798;29510,574;25,19416
 281,11; 7814,274;  200,640;30262,599;25,32647
 281,70; 7894,810;  174,024;30711,540;25,28295
 282,30; 8061,108;  187,021;31444,406;25,19113
 282,90; 8169,434;  185,020;31805,496;25,25077
 283,49; 8330,057;  195,170;32334,427;25,31137
 284,09; 8527,923;  215,177;32725,455;25,56959
 284,69; 8718,529;  221,180;33260,773;25,71868
 285,28; 8898,461;  210,331;33621,729;26,00349
 285,88; 9048,971;  261,859;33732,635;26,25309
 286,47; 9124,741;  203,405;33898,539;26,47663
 287,07; 9289,587;  221,719;33912,914;26,91465
 287,67; 9520,831;  206,806;34022,901;27,54317
 288,26; 9684,240;  188,565;34016,478;28,07053
 288,86; 9857,751;  175,562;34056,750;28,57689
 289,46;10107,545;  200,718;34230,300;29,11240
 290,05;10332,065;  191,570;34225,200;29,79551
 290,65;10643,892;  193,942;34400,326;30,54971
 291,24;10914,628;  196,104;34523,264;31,22462
 291,84;11248,762;  214,867;34720,346;31,97723
 292,44;11526,295;  196,346;34843,036;32,70139
 293,03;11855,686;  274,566;34928,448;33,41940
 293,63;12100,318;  187,251;35113,556;34,10915
 294,22;12417,986;  215,871;35285,108;34,79436
 294,82;12631,902;  187,394;35265,138;35,47693
 295,41;12704,271;  173,331;34979,002;36,00258
 296,01;12871,968;  225,089;34862,268;36,51244
 296,61;12913,531;  225,258;34641,414;36,86720
 297,20;12907,836;  200,859;34275,725;37,29135
 297,80;12990,166;  211,803;34039,254;37,77513
 298,39;12973,935;  175,713;33651,009;38,23184
 298,99;13023,458;  223,400;33553,030;38,40444
 299,58;13098,865;  223,420;33451,560;38,74862
 300,18;13134,855;  218,725;33178,930;39,18704
 300,78;13110,903;  196,414;32763,057;39,65557
 301,37;13145,447;  207,236;32759,607;39,74583
 301,97;13279,737;  207,333;32712,436;40,21647
 302,56;13285,220;  200,327;32605,176;40,37943
 303,16;13341,080;  173,556;32422,182;40,83127
 303,75;13461,695;  197,877;32489,889;41,07461
 304,35;13675,919;  179,041;32689,675;41,51527
 304,94;13706,027;  184,026;32786,534;41,47534
 305,54;13821,420;  203,259;32726,019;41,87271
 306,13;13865,017;  170,119;32615,867;42,20861
 306,73;13914,160;  176,500;32401,511;42,63043
 307,33;13951,790;  194,575;32387,508;42,73365
 307,92;14072,647;  217,258;32372,003;43,08972
 308,52;14397,751;  173,555;32855,760;43,52275
 309,11;14730,004;  192,858;33394,380;43,78458
 309,71;15005,628;  167,777;33672,532;44,28580
 310,30;15169,857;  186,411;33821,965;44,54645
 310,90;15513,165;  234,796;34177,350;45,01243
 311,49;15641,105;  207,949;34320,218;45,24225
 312,09;15813,663;  160,802;34482,793;45,60592
 312,68;16223,113;  252,952;34917,591;46,07047
 313,28;16354,340;  174,950;35101,003;46,32470
 313,87;16513,394;  159,411;35171,589;46,70941
 314,47;16736,393;  183,013;35477,156;46,90121
 315,06;16991,437;  179,951;35522,007;47,56793
 315,66;17174,124;  176,186;35733,947;47,80374
 316,25;17322,447;  157,480;35683,007;48,31728
 316,85;17368,529;  165,879;35742,567;48,35372
 317,44;17602,736;  179,551;35869,926;48,81760
 318,04;17643,012;  176,097;35916,590;48,87150
 318,63;17788,795;  165,500;35908,327;49,30582
 319,22;18065,949;  193,788;36093,245;49,78393
 319,82;18144,729;  202,099;35976,755;50,15458
 320,41;18243,201;  202,942;35992,053;50,40712
 321,01;18431,064;  207,724;36146,166;50,70710
 321,60;18539,942;  207,946;36070,930;51,11676
 322,20;18532,322;  173,797;36028,101;51,20313
 322,79;18838,995;  215,566;36180,362;51,78238
 323,39;18891,070;  183,271;36242,924;51,88014
 323,98;18932,267;  172,029;36090,019;52,23076
 324,58;19100,001;  180,863;36020,884;52,78774
 325,17;19125,756;  185,865;35870,151;53,07628
 325,76;19094,586;  209,949;35657,923;53,27423
 326,36;19068,313;  180,493;35334,794;53,72833
 326,95;19055,271;  213,331;35040,737;54,10090
 327,55;19003,228;  179,561;34519,396;54,81583
 328,14;18886,957;  176,804;34236,326;54,93369
 328,74;18802,527;  210,865;33788,296;55,36952
 329,33;18722,889;  208,723;33387,282;55,80160
 329,92;18590,755;  181,704;32810,785;56,41915
 330,52;18315,228;  198,112;32188,411;56,63316
 331,11;18133,269;  186,100;31720,361;56,91324
 331,71;17876,775;  188,179;31220,770;57,00006
 332,30;17752,412;  207,410;30698,073;57,54221
 332,89;17602,830;  253,492;30113,996;58,10129
 333,49;17300,213;  218,331;29589,246;58,15918
 334,08;17172,824;  189,253;29096,811;58,75132
 334,68;17049,498;  199,945;28649,029;59,22705
 335,27;16921,848;  207,729;28405,999;59,27356
 335,86;16900,577;  253,023;28031,208;59,93032
 336,46;16827,215;  202,499;27752,328;60,34417
 337,05;16738,153;  196,484;27515,575;60,54985
 337,65;16749,902;  179,253;27432,691;60,80205
 338,24;16875,516;  232,259;27393,801;61,27508
 338,83;16943,786;  210,952;27260,698;61,85949
 339,43;16998,891;  187,403;27263,797;62,08909
 340,02;17126,811;  186,941;27114,892;62,90813
 340,61;17264,264;  191,105;27199,191;63,21499
 341,21;17362,988;  223,173;27164,989;63,61789
 341,80;17419,093;  185,330;27122,563;63,97748
 342,40;17624,960;  188,189;27247,077;64,44009
 342,99;17776,830;  194,723;27356,765;64,73043
 343,58;17984,582;  183,493;27478,513;65,21735
 344,18;18211,757;  208,416;27601,431;65,72238
 344,77;18578,522;  183,325;27959,751;66,22593
 345,36;18825,578;  163,562;28209,737;66,54033
 345,96;19204,005;  204,108;28494,299;67,16072
 346,55;19459,591;  177,656;28716,329;67,56423
 347,14;19831,864;  175,959;29085,295;67,99155
 347,74;20172,711;  153,510;29550,925;68,09851
 348,33;20744,918;  182,740;30209,862;68,47869
 348,92;21329,397;  207,437;30725,797;69,21066
 349,52;21643,735;  168,666;31257,287;69,07694
 350,11;22028,039;  193,632;31541,063;69,65294
 350,70;22115,898;  186,027;31685,435;69,61995
 351,29;22155,132;  168,003;31461,114;70,26188
 351,89;22191,984;  207,165;31392,717;70,49681
 352,48;22308,609;  162,412;31412,140;70,86845
 353,07;22416,964;  194,498;31342,589;71,34455
 353,67;22459,823;  202,438;31275,378;71,62948
 354,26;22427,345;  189,728;31048,188;72,06328
 354,85;22423,664;  191,110;31019,938;72,11612
 355,45;22309,186;  171,329;30726,474;72,45214
 356,04;22295,601;  184,422;30690,353;72,48158
 356,63;22241,099;  235,332;30434,989;72,86761
 357,22;22323,430;  199,237;30226,312;73,68082
 357,82;22168,016;  196,086;30104,087;73,46506
 358,41;22134,353;  211,718;29983,240;73,63626
 359,00;22075,756;  170,096;29761,074;74,02817
 359,60;22132,112;  193,951;29763,524;74,19167
 360,19;21974,085;  208,193;29572,844;74,12277
 360,78;21978,863;  199,484;29434,366;74,49792
 361,37;21936,017;  192,407;29202,554;74,95174
 361,97;21944,813;  193,871;29156,830;75,09917
 362,56;21747,326;  181,247;28846,136;75,23517
 363,15;21679,303;  249,329;28535,867;75,76033
 363,74;21402,029;  200,090;28197,699;75,72768
 364,34;21231,275;  213,480;27826,455;76,11565
 364,93;20863,573;  196,246;27426,893;75,89730
 365,52;20619,423;  161,715;27035,361;76,12554
 366,11;20431,929;  185,326;26767,506;76,16608
 366,71;20125,487;  171,788;26287,784;76,40413
 367,30;19910,078;  198,023;25978,720;76,46052
 367,89;19828,106;  228,725;25806,704;76,62600
 368,48;19623,800;  196,399;25384,459;77,12941
 369,07;19229,205;  191,104;24999,127;76,74171
 369,67;19063,842;  213,554;24635,535;77,18574
 370,26;18884,207;  174,951;24350,656;77,38867
 370,85;18666,557;  190,408;24181,776;77,01165
 371,44;18487,696;  196,794;23928,164;77,07479
 372,03;18317,602;  175,557;23678,733;77,18976
 372,63;18070,445;  171,485;23427,203;76,96584
 373,22;17872,146;  180,411;23100,841;77,18762
 373,81;17655,846;  169,023;22741,652;77,46914
 374,40;17443,438;  188,573;22536,065;77,21164
 374,99;17257,437;  175,175;22255,171;77,36533
 375,59;16929,878;  178,803;21927,532;77,02094
 376,18;16937,073;  209,330;21828,824;77,37343
 376,77;16790,083;  211,564;21650,650;77,32848
 377,36;16650,807;  216,177;21528,174;77,11445
 377,95;16515,412;  202,712;21280,852;77,39155
 378,55;16350,833;  185,262;21060,243;77,43993
 379,14;16259,403;  203,484;21020,434;77,12906
 379,73;16202,029;  198,866;20886,074;77,35777
 380,32;16238,217;  201,025;20967,569;77,22610
 380,91;16049,936;  183,630;20786,052;77,01185
 381,50;16050,788;  196,094;20788,016;76,99473
 382,10;15918,447;  173,179;20650,569;76,89099
 382,69;15846,114;  171,561;20617,678;76,66274
 383,28;15839,907;  209,710;20536,939;76,89291
 383,87;15662,791;  186,171;20358,768;76,72101
 384,46;15661,344;  168,702;20349,510;76,76919
 385,05;15644,538;  203,632;20343,508;76,66833
 385,64;15594,006;  191,480;20334,968;76,46405
 386,24;15524,574;  175,240;20228,134;76,54423
 386,83;15532,897;  204,931;20334,857;76,14517
 387,42;15602,469;  199,635;20459,728;76,02549
 388,01;15728,222;  193,463;20576,120;76,21558
 388,60;15844,944;  203,242;20827,863;75,83995
 389,19;16029,598;  184,069;21101,875;75,75139
 389,78;16161,682;  180,917;21319,797;75,59892
 390,37;16547,581;  257,005;21778,099;75,69586
 390,96;16593,592;  201,009;21931,882;75,43453
 391,56;16779,993;  197,604;22109,404;75,67790
 392,15;16933,841;  181,688;22334,496;75,62090
 392,74;16966,302;  165,592;22547,688;75,06317
 393,33;17247,662;  191,680;22808,033;75,41438
 393,92;17482,918;  186,355;23277,774;74,90472
 394,51;17612,526;  180,372;23463,397;74,87066
 395,10;17771,382;  214,182;23664,751;74,86897
 395,69;17871,737;  191,185;23849,834;74,73187
 396,28;17946,669;  208,560;23985,185;74,60314
 396,87;17925,408;  201,005;24001,921;74,46941
 397,46;18048,471;  225,763;24097,362;74,66072
 398,06;18187,949;  233,596;24304,566;74,58924
 398,65;18165,045;  204,487;24408,209;74,20577
 399,24;18269,662;  221,865;24575,099;74,10842
 399,83;18273,555;  188,740;24616,465;74,03397
 400,42;18330,695;  230,158;24717,963;73,91654
 401,01;18384,258;  213,724;24823,113;73,83578
 401,60;18396,383;  221,426;24869,234;73,73864
 402,19;18303,396;  246,757;24838,259;73,42634
 402,78;18323,457;  241,521;24874,996;73,40392
 403,37;18098,780;  229,904;24657,434;73,15056
 403,96;17952,833;  230,813;24584,423;72,76958
 404,55;17903,258;  232,018;24486,578;72,85739
 405,14;17747,596;  225,003;24325,384;72,70671
 405,73;17637,713;  236,356;24215,857;72,56764
 406,32;17587,936;  248,205;24158,146;72,52101
 406,91;17349,433;  232,429;23903,949;72,31054
 407,50;17215,381;  240,770;23743,123;72,22515
 408,09;16928,923;  217,586;23438,307;71,96735
 408,68;16816,743;  223,564;23348,146;71,75558
 409,27;16652,462;  216,669;23096,682;71,83472
 409,86;16452,139;  234,427;22907,263;71,52926
 410,45;16451,209;  264,098;22908,280;71,48464
 411,04;16373,629;  257,693;22826,099;71,40928
 411,63;16055,639;  254,536;22601,988;70,70651
 412,22;15904,070;  258,757;22399,880;70,66179
 412,81;15664,544;  262,165;22137,078;70,41116
 413,40;15367,673;  270,118;21770,582;70,21967
 413,99;15115,645;  320,032;21514,368;69,80928
 414,58;14759,260;  245,500;21002,093;69,92361
 415,17;14582,083;  252,165;20794,881;69,75669
 415,76;14443,601;  245,677;20690,617;69,44469
 416,35;14228,180;  241,306;20435,067;69,26334
 416,94;14190,272;  273,837;20468,723;68,91069
 417,53;14258,416;  247,090;20661,892;68,63317
 418,12;14301,877;  250,789;20730,002;68,61146
 418,71;14491,022;  284,196;21138,316;68,12479
 419,30;14524,865;  243,406;21254,449;67,97120
 419,89;14575,323;  238,489;21375,380;67,82849
 420,48;14816,888;  277,427;21641,859;68,05452
 421,07;14822,212;  271,278;21753,803;67,73381
 421,66;14790,811;  232,062;21830,402;67,40680
 422,25;14668,024;  256,011;21813,606;66,85353
 422,84;14587,618;  271,170;21774,986;66,57631
 423,43;14445,603;  243,543;21522,667;66,74175
 424,02;14247,464;  295,856;21273,919;66,50570
 424,60;13855,521;  252,196;20895,165;65,89810
 425,19;13616,645;  272,872;20576,013;65,72271
 425,78;13525,189;  272,566;20533,943;65,40830
 426,37;13336,358;  265,731;20311,570;65,20369
 426,96;13239,974;  261,347;20209,604;65,06146
 427,55;13024,412;  245,441;20098,007;64,36937
 428,14;12892,840;  251,296;19836,295;64,54707
 428,73;12701,276;  261,358;19605,346;64,30896
 429,32;12685,564;  282,422;19611,131;64,16953
 429,91;12604,317;  284,281;19588,850;63,81927
 430,50;12484,710;  273,829;19440,017;63,71053
 431,08;12394,449;  283,454;19350,167;63,51905
 431,67;12233,090;  318,462;19182,511;63,16050
 432,26;12102,710;  331,086;19155,739;62,53302
 432,85;11904,972;  370,314;18684,997;62,98038
 433,44;11634,374;  372,634;18412,188;62,42804
 434,03;11335,596;  376,958;18036,127;62,05636
 434,62;11007,434;  339,404;17571,200;61,90899
 435,21;10827,976;  349,008;17407,817;61,42849
 435,79;10775,270;  357,875;17202,200;61,84513
 436,38;10592,588;  346,583;17105,118;61,13902
 436,97;10497,844;  341,278;17034,240;60,84340
 437,56;10309,647;  340,148;16753,433;60,74043
 438,15;10183,129;  318,296;16653,567;60,38977
 438,74;10162,290;  334,914;16701,368;60,04585
 439,33;10132,953;  313,603;16706,956;59,89836
 439,91;10154,543;  270,537;16797,114;59,80674
 440,50;10112,893;  317,538;16821,882;59,35016
 441,09;10142,511;  331,321;16962,768;58,99180
 441,68;10127,380;  300,719;16895,307;59,21606
 442,27;10067,420;  287,252;16926,060;58,77926
 442,86;10072,549;  266,821;16917,102;58,89227
 443,44;10020,915;  283,353;16958,484;58,39572
 444,03;10093,820;  362,206;17011,572;58,45036
 444,62; 9909,955;  295,206;16877,679;57,98139
 445,21; 9842,559;  284,125;16743,861;58,07161
 445,80; 9787,282;  330,527;16620,048;58,05422
 446,39; 9617,985;  355,677;16340,226;57,94538
 446,97; 9405,310;  289,850;16108,364;57,62526
 447,56; 9258,352;  294,172;15926,377;57,34431
 448,15; 9114,213;  283,311;15814,667;56,85854
 448,74; 8978,315;  303,698;15502,029;57,07611
 449,33; 8872,306;  296,246;15334,790;57,02720
 449,91; 8745,028;  289,955;15119,481;57,01513
 450,50; 8537,211;  290,105;15001,407;56,05966
 451,09; 8464,447;  306,338;14839,679;56,13375
 451,68; 8418,102;  320,114;14679,951;56,39331
 452,26; 8328,835;  321,967;14621,445;55,99413
 452,85; 8202,456;  292,425;14589,803;55,32505
 453,44; 8192,483;  301,292;14524,425;55,48138
 454,03; 8128,387;  292,818;14532,629;55,02580
 454,61; 8076,045;  288,063;14408,138;55,15539
 455,20; 8166,586;  318,378;14606,802;54,92704
 455,79; 8171,778;  313,981;14599,771;55,00429
 456,38; 8192,641;  323,467;14697,326;54,74643
 456,97; 8126,496;  298,233;14764,556;54,11370
 457,55; 8175,120;  300,165;14841,339;54,15625
 458,14; 8121,814;  335,922;14834,503;53,70106
 458,73; 8033,451;  312,859;14726,820;53,56329
 459,31; 8046,491;  343,949;14761,347;53,42532
 459,90; 8078,123;  360,711;14809,037;53,41388
 460,49; 8089,668;  408,784;14942,507;52,84871
 461,08; 8066,568;  308,955;14982,141;52,86932
 461,66; 8115,835;  318,718;15006,878;53,08437
 462,25; 8145,451;  326,808;15146,311;52,75915
 462,84; 8101,207;  339,803;15159,238;52,37315
 463,43; 8019,245;  285,899;15173,534;51,94476
 464,01; 8035,188;  321,136;15166,802;51,96164
 464,60; 7964,961;  369,663;15137,837;51,43018
 465,19; 7816,872;  298,140;14904,298;51,47645
 465,77; 7828,298;  325,609;14883,177;51,53806
 466,36; 7783,188;  348,053;14725,196;51,71497
 466,95; 7559,193;  323,593;14453,511;51,20766
 467,53; 7397,014;  317,463;14207,375;50,96901
 468,12; 7272,424;  360,004;13891,232;51,08494
 468,71; 7102,550;  332,526;13630,874;50,90876
 469,29; 6916,237;  314,621;13356,641;50,61805
 469,88; 6760,716;  331,242;13135,149;50,21494
 470,47; 6831,580;  392,485;13265,570;50,01983
 471,06; 6725,640;  344,178;13220,317;49,56036
 471,64; 6762,206;  337,867;13284,517;49,62163
 472,23; 6720,991;  316,122;13267,731;49,45230
 472,81; 6764,995;  309,418;13414,963;49,25836
 473,40; 6814,839;  312,738;13581,645;49,00253
 473,99; 6969,262;  429,815;13753,277;49,08219
 474,57; 6904,625;  339,891;13879,513;48,48536
 475,16; 6994,118;  340,190;14023,474;48,62815
 475,75; 7027,634;  369,054;14136,680;48,36403
 476,33; 7024,586;  362,295;14221,809;48,07017
 476,92; 7069,461;  357,279;14265,335;48,26111
 477,51; 7050,958;  359,752;14364,120;47,77942
 478,09; 7044,112;  341,522;14420,616;47,60669
 478,68; 6963,489;  348,525;14328,112;47,31873
 479,27; 7006,443;  385,670;14399,919;47,24315
 479,85; 6914,218;  353,063;14334,797;46,92662
 480,44; 6934,579;  340,991;14525,536;46,48431
 481,02; 7441,181;  354,461;15641,632;46,35730
 481,61; 8341,766;  381,919;17838,460;45,59808
 482,20; 8905,047;  365,846;19086,866;45,61290
 482,78; 9296,765;  391,912;19995,974;45,42351
 483,37; 9583,875;  379,244;20514,022;45,71509
 483,95; 9734,075;  421,785;20894,302;45,48679
 484,54; 9785,357;  428,687;21020,824;45,43807
 485,13; 9639,800;  392,334;21004,797;44,86347
 485,71; 9586,423;  377,484;20789,146;45,11606
 486,30; 9456,962;  421,407;20504,103;44,99174
 486,88; 9287,720;  465,487;20102,079;44,92752
 487,47; 8967,941;  419,182;19352,517;45,15189
 488,05; 8551,013;  405,572;18537,919;44,92215
 488,64; 7962,927;  418,428;17242,064;44,84464
 489,23; 7153,155;  419,113;15413,400;44,91072
 489,81; 6086,568;  421,501;13197,316;44,34212
 490,40; 5708,305;  374,656;12419,682;44,28093
 490,98; 5561,356;  374,122;12201,969;43,85612
 491,57; 5483,890;  402,268;12017,048;43,75134
 492,15; 5422,054;  374,047;11982,283;43,48642
 492,74; 5402,227;  384,111;11912,700;43,52758
 493,32; 5323,700;  393,968;11860,619;42,99191
 493,91; 5243,473;  363,821;11670,779;43,15618
 494,50; 5224,102;  372,223;11641,362;43,05456
 495,08; 5147,292;  362,223;11616,013;42,51962
 495,67; 5153,295;  385,281;11611,836;42,47085
 496,25; 5024,152;  329,291;11469,259;42,14429
 496,84; 4995,196;  340,665;11434,149;41,95735
 497,42; 4964,489;  336,602;11368,782;41,94898
 498,01; 4901,684;  362,590;11358,501;41,27983
 498,59; 4831,975;  329,835;11226,340;41,31728
 499,18; 4847,284;  321,284;11196,086;41,61915
 499,76; 4812,634;  355,599;11118,571;41,41082
 500,35; 4678,289;  331,689;10916,098;41,06606
 500,93; 4650,276;  333,525;10882,188;40,92225
 501,52; 4552,570;  331,834;10789,798;40,35906
 502,10; 4567,618;  339,774;10811,006;40,37580
 502,69; 4495,251;  322,395;10642,086;40,43586
 503,27; 4380,162;  301,916;10388,494;40,43240
 503,86; 4359,263;  325,008;10347,452;40,25221
 504,44; 4250,819;  301,706;10188,037;39,94518
 505,03; 4148,992;  292,629;10037,699;39,57245
 505,61; 4077,196;  309,088; 9844,697;39,51618
 506,19; 4031,740;  330,321; 9739,815;39,33707
 506,78; 3872,511;  307,949; 9486,017;38,83782
 507,36; 3847,681;  307,167; 9362,102;39,10039
 507,95; 3751,951;  305,647; 9190,431;38,78883
 508,53; 3700,394;  295,641; 9055,889;38,86594
 509,12; 3619,233;  320,030; 8923,036;38,34943
 509,70; 3555,358;  342,648; 8747,999;38,22220
 510,29; 3508,377;  346,886; 8644,959;38,09910
 510,87; 3389,971;  297,949; 8452,257;37,91887
 511,46; 3322,844;  301,182; 8258,370;37,97399
 512,04; 3240,538;  318,112; 8129,275;37,41345
 512,62; 3198,845;  313,798; 7965,173;37,70625
 513,21; 3130,206;  290,502; 7825,629;37,68621
 513,79; 3063,285;  296,137; 7658,275;37,58620
 514,38; 2978,341;  277,822; 7517,323;37,30255
 514,96; 2959,261;  324,283; 7468,307;36,88366
 515,54; 2858,178;  289,518; 7323,410;36,51832
 516,13; 2855,855;  319,981; 7239,029;36,65062
 516,71; 2757,014;  295,912; 7048,137;36,44876
 517,30; 2721,305;  297,381; 6947,063;36,45173
 517,88; 2673,438;  317,227; 6878,640;35,91012
 518,46; 2605,988;  285,076; 6730,611;36,00805
 519,05; 2584,813;  294,698; 6703,333;35,73483
 519,63; 2552,938;  302,310; 6616,340;35,64488
 520,22; 2534,821;  314,938; 6593,731;35,35526
 520,80; 2471,882;  297,708; 6508,854;35,00440
 521,38; 2489,777;  346,545; 6486,640;34,90553
 521,97; 2418,784;  294,483; 6443,422;34,54745
 522,55; 2404,803;  305,560; 6389,435;34,50504
 523,13; 2392,086;  297,334; 6387,909;34,39334
 523,72; 2349,813;  291,384; 6378,496;33,81619
 524,30; 2421,775;  326,954; 6516,379;33,84516
 524,89; 2364,076;  291,176; 6523,006;33,26310
 525,47; 2409,109;  309,803; 6618,150;33,27823
 526,05; 2370,575;  286,035; 6671,354;32,64582
 526,64; 2437,701;  315,193; 6804,078;32,70991
 527,22; 2461,012;  312,264; 6914,608;32,54523
 527,80; 2509,391;  358,961; 7003,360;32,36456
 528,39; 2485,636;  295,504; 7098,852;32,19197
 528,97; 2498,994;  307,809; 7247,004;31,57693
 529,55; 2529,432;  317,718; 7432,849;31,08466
 530,14; 2624,357;  339,200; 7651,572;31,25057
 530,72; 2610,149;  303,963; 7691,269;31,21822
 531,30; 2609,265;  288,355; 7850,156;30,69255
 531,89; 2662,226;  322,970; 7970,985;30,58644
 532,47; 2697,812;  334,281; 8056,487;30,60694
 533,05; 2686,391;  336,884; 8120,403;30,18566
 533,63; 2690,336;  339,898; 8132,062;30,16413
 534,22; 2659,394;  316,975; 8165,049;29,84706
 534,80; 2724,959;  324,599; 8286,546;30,14790
 535,38; 2800,538;  428,279; 8387,112;29,80662
 535,97; 2696,929;  323,050; 8292,999;29,78536
 536,55; 2774,501;  377,985; 8392,947;29,90053
 537,13; 2715,801;  378,431; 8402,746;29,12859
 537,71; 2756,432;  414,891; 8388,624;29,36568
 538,30; 2744,846;  438,209; 8503,060;28,60112
 538,88; 2781,482;  486,299; 8579,232;28,36033
 539,46; 2861,823;  526,599; 8757,867;28,37017
 540,05; 2864,550;  563,988; 8896,209;27,61043
 540,63; 2920,609;  590,912; 9121,692;27,30931
 541,21; 2968,740;  627,994; 9215,345;27,25807
 541,79; 2981,855;  675,378; 9361,944;26,55223
 542,38; 3025,104;  708,756; 9493,009;26,36932
 542,96; 3073,780;  708,462; 9675,574;26,37770
 543,54; 3129,237;  729,685; 9843,577;26,32851
 544,12; 3150,283;  708,919; 9988,780;26,30820
 544,70; 3126,782;  689,463;10076,676;25,96425
 545,29; 3173,509;  693,987;10209,475;26,05775
 545,87; 3157,932;  679,455;10317,020;25,71683
 546,45; 3127,237;  622,910;10274,433;25,94748
 547,03; 3120,577;  624,530;10355,245;25,65123
 547,62; 3112,473;  580,918;10495,003;25,53494
 548,20; 3173,277;  582,077;10633,114;25,78042
 548,78; 3150,810;  539,787;10763,419;25,53910
 549,36; 3181,574;  506,785;10946,028;25,62244
 549,94; 3155,750;  466,613;11069,248;25,36291
 550,53; 3222,354;  482,628;11307,205;25,31023
 551,11; 3216,955;  436,405;11423,540;25,30732
 551,69; 3291,803;  452,323;11763,498;25,10332
 552,27; 3303,208;  414,624;12006,016;24,92007
 552,85; 3363,031;  410,405;12368,352;24,69174
 553,44; 3422,399;  417,553;12606,340;24,65254
 554,02; 3485,849;  416,172;12948,701;24,49368
 554,60; 3497,612;  360,176;13286,616;24,27146
 555,18; 3612,304;  406,785;13666,087;24,17563
 555,76; 3656,869;  381,095;13938,209;24,16277
 556,34; 3740,305;  392,798;14286,410;24,09386
 556,93; 3814,191;  369,862;14742,172;23,96503
 557,51; 3852,267;  364,106;15086,384;23,69308
 558,09; 3927,286;  384,324;15381,647;23,62397
 558,67; 3993,053;  370,726;15790,824;23,49094
 559,25; 4071,274;  391,185;15994,843;23,58478
 559,83; 4105,739;  368,423;16349,542;23,38582
 560,41; 4169,990;  358,718;16741,412;23,26401
 561,00; 4251,399;  380,573;17058,456;23,20934
 561,58; 4263,488;  365,256;17295,942;23,02466
 562,16; 4351,244;  352,636;17563,758;23,23269
 562,74; 4361,677;  343,172;18019,534;22,73378
 563,32; 4475,815;  340,884;18463,047;22,81698
 563,90; 4547,764;  374,111;18751,178;22,71120
 564,48; 4616,830;  383,409;19141,490;22,56852
 565,06; 4738,799;  369,418;19742,025;22,55443
 565,65; 4887,052;  380,354;20392,804;22,51947
 566,23; 5075,688;  417,727;21174,520;22,44066
 566,81; 5177,965;  365,877;21803,886;22,44653
 567,39; 5351,995;  377,348;22719,322;22,26592
 567,97; 5505,374;  395,417;23375,137;22,23681
 568,55; 5679,352;  408,653;24221,748;22,13362
 569,13; 5801,882;  367,112;24876,340;22,17438
 569,71; 5990,320;  372,944;25867,724;22,03344
 570,29; 6229,171;  416,862;26786,630;22,04156
 570,87; 6366,565;  405,557;27584,995;21,93205
 571,45; 6517,282;  400,111;28290,910;21,93258
 572,03; 6535,193;  355,581;28672,731;21,82286
 572,61; 6649,870;  353,499;29338,205;21,72308
 573,20; 6797,884;  376,952;30011,990;21,66669
 573,78; 6938,680;  371,423;30679,324;21,66847
 574,36; 7007,039;  390,267;31202,664;21,47438
 574,94; 7109,160;  455,967;31659,909;21,32164
 575,52; 7065,674;  394,055;31794,562;21,24685
 576,10; 7170,199;  433,666;32346,027;21,10948
 576,68; 7271,288;  422,273;32898,129;21,08956
 577,26; 7390,918;  451,214;33577,054;20,94952
 577,84; 7475,291;  455,498;34085,120;20,87384
 578,42; 7572,649;  499,201;34419,056;20,85342
 579,00; 7473,161;  453,885;34499,448;20,61730
 579,58; 7521,949;  494,352;34762,836;20,50746
 580,16; 7511,251;  463,510;34720,555;20,57311
 580,74; 7495,138;  469,742;34999,443;20,34595
 581,32; 7434,376;  468,507;34998,792;20,17322
 581,90; 7374,846;  496,279;34962,551;19,95739
 582,48; 7356,501;  474,357;35030,909;19,91560
 583,06; 7354,931;  478,276;35274,242;19,76279
 583,64; 7342,352;  484,198;35241,277;19,73167
 584,22; 7251,892;  489,519;35129,513;19,52186
 584,80; 7178,458;  498,124;34846,492;19,44877
 585,38; 7075,438;  517,797;34446,987;19,32743
 585,96; 6964,455;  479,655;34460,178;19,08387
 586,54; 6940,578;  502,209;34444,318;18,96868
 587,12; 6924,624;  464,205;34628,958;18,90960
 587,70; 6913,881;  502,733;34745,450;18,72266
 588,28; 6849,777;  466,205;34788,386;18,59897
 588,86; 6806,880;  472,361;34790,816;18,45805
 589,44; 6768,857;  440,680;34892,229;18,36834
 590,02; 6767,675;  455,062;35066,005;18,23878
 590,59; 6724,019;  438,209;35229,930;18,06697
 591,17; 6774,449;  442,077;35454,411;18,08612
 591,75; 6704,428;  434,300;35548,657;17,85631
 592,33; 6796,245;  449,682;35684,014;18,01244
 592,91; 6731,691;  402,997;35979,050;17,78920
 593,49; 6755,900;  407,618;36252,507;17,71042
 594,07; 6788,187;  431,464;36510,042;17,61911
 594,65; 6716,754;  445,903;36473,655;17,40561
 595,23; 6766,924;  443,908;36899,907;17,34424
 595,81; 6752,124;  413,218;36986,144;17,33224
 596,39; 6745,973;  424,296;37078,246;17,24692
 596,97; 6771,498;  424,304;37280,341;17,22158
 597,55; 6738,186;  421,905;37309,661;17,12297
 598,12; 6628,023;  395,390;37275,975;16,89950
 598,70; 6673,716;  410,845;37385,292;16,93838
 599,28; 6658,544;  414,614;37516,125;16,82931
 599,86; 6635,291;  407,844;37574,361;16,75553
 600,44; 6624,185;  370,694;37647,632;16,77576
 601,02; 6622,629;  425,938;37762,855;16,59669
 601,60; 6579,064;  408,685;37705,661;16,54391
 602,18; 6562,406;  383,851;37747,488;16,53628
 602,75; 6502,237;  386,294;37756,486;16,36583
 603,33; 6484,967;  407,153;37790,142;16,25823
 603,91; 6469,807;  384,395;37721,005;16,29878
 604,49; 6478,142;  415,461;37758,719;16,23501
 605,07; 6448,427;  428,300;37840,623;16,09130
 605,65; 6442,516;  427,926;37978,541;16,01729
 606,23; 6455,823;  487,977;38103,897;15,86521
 606,80; 6456,429;  542,448;38058,931;15,76369
 607,38; 6393,244;  578,085;38170,951;15,46878
 607,96; 6417,486;  634,371;38194,081;15,39712
 608,54; 6442,708;  700,003;38186,986;15,31920
 609,12; 6405,334;  714,294;38354,841;15,11944
 609,70; 6456,213;  747,998;38368,755;15,17305
 610,27; 6401,598;  742,601;38434,389;15,01387
 610,85; 6403,634;  773,305;38529,208;14,91245
 611,43; 6317,774;  762,614;38461,630;14,73556
 612,01; 6264,885;  743,222;38276,607;14,71134
 612,59; 6269,655;  732,690;38270,554;14,75035
 613,16; 6177,854;  684,981;38193,761;14,64423
 613,74; 6160,256;  655,692;38003,668;14,73859
 614,32; 6132,555;  636,003;38082,592;14,67838
 614,90; 6085,914;  578,456;37936,711;14,74228
 615,48; 5999,282;  525,059;37630,400;14,75319
 616,05; 5970,888;  498,672;37543,036;14,77206
 616,63; 5908,263;  507,207;37447,978;14,62085
 617,21; 5867,348;  496,601;37336,804;14,57850
 617,79; 5858,435;  484,296;37268,587;14,60987
 618,36; 5825,312;  482,069;37275,913;14,52211
 618,94; 5723,843;  427,522;36803,429;14,55997
 619,52; 5703,132;  442,670;36682,811;14,51557
 620,10; 5663,200;  427,602;36564,307;14,48831
 620,67; 5639,167;  430,438;36475,273;14,45070
 621,25; 5631,429;  464,993;36341,460;14,40063
 621,83; 5552,401;  440,137;36286,399;14,26164
 622,41; 5606,130;  503,983;36333,853;14,23993
 622,98; 5521,935;  451,899;36021,051;14,25403
 623,56; 5522,412;  446,282;35995,510;14,27916
 624,14; 5479,188;  423,765;35918,701;14,24266
 624,72; 5480,554;  419,137;35827,288;14,29450
 625,29; 5455,470;  412,513;35931,420;14,19795
 625,87; 5482,089;  457,989;35809,835;14,21171
 626,45; 5382,983;  406,049;35661,101;14,11694
 627,02; 5385,419;  414,913;35708,369;14,08336
 627,60; 5357,242;  395,847;35519,474;14,12552
 628,18; 5355,718;  376,064;35613,072;14,13189
 628,76; 5307,822;  377,823;35574,709;14,00692
 629,33; 5354,835;  420,212;35594,440;14,02909
 629,91; 5300,969;  392,064;35549,845;13,96250
 630,49; 5384,406;  423,056;35731,416;14,05149
 631,06; 5316,806;  400,439;35821,413;13,87982
 631,64; 5325,332;  399,281;35757,143;13,93198
 632,22; 5304,396;  366,123;35640,993;13,99941
 632,79; 5333,762;  408,661;35986,595;13,84313
 633,37; 5305,540;  370,838;35965,811;13,86348
 633,95; 5327,155;  384,664;36011,080;13,87311
 634,52; 5343,842;  365,521;36189,746;13,89652
 635,10; 5338,081;  377,294;36134,077;13,87370
 635,68; 5400,107;  365,277;36399,578;13,97233
 636,25; 5355,799;  358,962;36258,939;13,91877
 636,83; 5346,438;  344,746;36618,786;13,78863
 637,41; 5373,063;  355,736;36545,939;13,86377
 637,98; 5402,369;  391,505;36757,760;13,77888
 638,56; 5386,485;  373,653;36902,018;13,72312
 639,13; 5399,222;  348,360;36975,552;13,78992
 639,71; 5484,980;  421,670;37153,186;13,78465
 640,29; 5344,378;  342,516;36922,296;13,67384
 640,86; 5386,876;  351,440;37025,954;13,73007
 641,44; 5368,758;  347,132;37082,535;13,66972
 642,02; 5397,025;  391,825;37072,039;13,64550
 642,59; 5387,830;  341,441;37344,697;13,63769
 643,17; 5372,174;  344,826;37240,431;13,62587
 643,74; 5353,902;  345,519;37332,781;13,54083
 644,32; 5368,784;  368,673;37176,285;13,58445
 644,89; 5341,513;  367,288;37273,866;13,47788
 645,47; 5416,087;  365,520;37273,601;13,68418
 646,05; 5374,123;  362,828;37166,720;13,61621
 646,62; 5365,236;  350,443;37172,070;13,61915
 647,20; 5366,041;  350,598;37345,959;13,55695
 647,77; 5338,616;  330,367;37107,617;13,61779
 648,35; 5326,960;  326,675;37019,429;13,62744
 648,92; 5330,072;  364,906;37109,163;13,51277
 649,50; 5268,570;  326,137;37018,975;13,46975
 650,08; 5268,914;  311,599;37002,864;13,51088
 650,65; 5308,181;  343,523;37153,906;13,48711
 651,23; 5406,217;  310,523;37858,641;13,57110
 651,80; 5613,483;  313,754;38886,914;13,73942
 652,38; 5647,904;  328,678;39315,956;13,64349
 652,95; 5719,017;  313,678;39767,691;13,70035
 653,53; 5749,515;  340,371;39916,195;13,66780
 654,10; 5840,166;  368,910;40112,391;13,76642
 654,68; 5776,894;  313,987;40043,126;13,75038
 655,25; 5803,469;  309,756;40190,399;13,77539
 655,83; 5798,505;  317,141;40149,673;13,76102
 656,40; 5879,310;  352,373;40164,484;13,88255
 656,98; 5802,423;  319,450;40117,296;13,77706
 657,55; 5818,459;  326,989;39966,800;13,85342
 658,13; 5801,418;  326,989;39564,150;13,95215
 658,70; 5751,608;  341,143;39353,577;13,86857
 659,28; 5603,337;  329,682;38518,389;13,80946
 659,85; 5496,911;  352,836;37644,816;13,79405
 660,43; 5492,024;  348,837;37703,627;13,76848
 661,00; 5444,752;  338,760;37690,824;13,66991
 661,58; 5512,558;  332,991;38098,943;13,71491
 662,15; 5554,901;  307,376;38278,293;13,81985
 662,73; 5662,707;  397,915;38514,951;13,81217
 663,30; 5687,743;  341,146;38722,532;13,93018
 663,88; 5689,240;  336,762;38917,882;13,87331
 664,45; 5732,430;  319,608;39128,386;13,94742
 665,03; 5764,466;  335,686;39535,275;13,84908
 665,60; 5961,810;  427,071;39975,317;13,99490
 666,17; 5879,461;  334,225;40085,206;13,94994
 666,75; 5931,959;  328,764;40366,325;13,99485
 667,32; 6007,379;  358,995;40701,444;14,00110
 667,90; 6052,646;  344,841;40865,410;14,08619
 668,47; 6114,682;  363,380;41122,145;14,11059
 669,05; 6153,334;  330,303;41525,418;14,13524
 669,62; 6108,293;  308,227;41570,152;14,05670
 670,19; 6148,483;  318,535;41644,041;14,10738
 670,77; 6235,365;  332,535;41806,699;14,23255
 671,34; 6207,016;  327,151;41733,895;14,20026
 671,92; 6281,591;  330,921;42058,707;14,26069
 672,49; 6270,627;  357,152;42205,442;14,13075
 673,06; 6277,355;  296,229;42138,792;14,29436
 673,64; 6357,237;  315,306;42104,065;14,45827
 674,21; 6327,889;  306,537;42078,646;14,41477
 674,79; 6412,310;  353,538;42393,304;14,41200
 675,36; 6461,346;  348,307;42591,808;14,47096
 675,93; 6396,382;  309,923;42368,773;14,47129
 676,51; 6461,648;  344,539;42560,431;14,49006
 677,08; 6496,377;  347,155;42653,935;14,53484
 677,65; 6516,567;  333,232;42768,747;14,57113
 678,23; 6545,910;  320,694;42960,481;14,59955
 678,80; 6594,946;  318,079;43157,062;14,65223
 679,38; 6615,829;  325,156;43234,797;14,66028
 679,95; 6720,326;  332,310;43585,839;14,76877
 680,52; 6740,978;  327,464;43712,189;14,78288
 681,10; 6833,552;  344,696;44094,693;14,83167
 681,67; 6875,973;  339,234;44358,197;14,84982
 682,24; 6907,470;  308,389;44439,086;14,95350
 682,82; 7025,276;  321,081;44980,975;15,01167
 683,39; 7115,312;  365,697;45322,786;15,01346
 683,96; 7150,271;  332,544;45596,752;15,06207
 684,54; 7171,076;  306,467;45884,717;15,06115
 685,11; 7329,343;  360,237;46233,990;15,19192
 685,68; 7347,917;  311,468;46585,648;15,20600
 686,25; 7403,799;  303,391;46650,383;15,32011
 686,83; 7451,066;  317,161;46974,502;15,29000
 687,40; 7512,256;  294,315;47295,314;15,35700
 687,97; 7662,600;  337,854;47525,126;15,52272
 688,55; 7650,944;  292,085;47628,091;15,54601
 689,12; 7657,749;  286,470;47867,057;15,49220
 689,69; 7763,093;  283,701;47921,253;15,70062
 690,26; 7773,590;  308,778;48096,295;15,62084
 690,84; 7839,165;  301,009;48252,646;15,72033
 691,41; 7916,047;  325,164;48323,073;15,81503
 691,98; 7973,006;  328,779;48542,730;15,85480
 692,56; 7996,580;  320,780;48735,388;15,85431
 693,13; 8102,463;  365,318;48732,354;15,99673
 693,70; 8132,422;  332,857;48950,165;16,04277
 694,27; 8134,304;  310,396;48987,362;16,07312
 694,84; 8163,878;  308,243;49159,404;16,08076
 695,42; 8260,914;  360,935;49321,370;16,13544
 695,99; 8265,566;  320,705;49499,028;16,15521
 696,56; 8300,063;  322,090;49347,147;16,27326
 697,13; 8333,792;  333,321;49731,497;16,19588
 697,71; 8399,828;  305,706;49833,078;16,34272
 698,28; 8462,479;  316,245;50208,428;16,32768
 698,85; 8501,361;  285,476;50168,855;16,47019
 699,42; 8540,782;  293,322;50374,128;16,46830
 699,99; 8645,664;  337,861;50482,632;16,56764
 700,57; 8639,008;  320,092;50544,444;16,56351
 701,14; 8702,659;  311,170;50638,332;16,67388
 701,71; 8801,157;  342,401;50861,529;16,74367
 702,28; 8891,501;  318,093;50900,033;16,94954
 702,85; 8872,075;  325,709;50990,537;16,86844
 703,43; 9005,419;  348,171;51200,810;17,02419
 704,00; 9065,378;  360,941;51443,006;17,04010
 704,57; 9094,568;  338,095;51548,356;17,09906
 705,14; 9162,219;  360,634;51643,245;17,16290
 705,71; 9230,563;  377,788;51681,441;17,25564
 706,28; 9234,291;  341,711;51600,484;17,34841
 706,86; 9392,866;  367,404;51881,295;17,52044
 707,43; 9421,748;  392,558;51784,184;17,56938
 708,00; 9436,630;  374,020;51829,688;17,61246
 708,57; 9435,820;  357,174;51758,115;17,66241
 709,14; 9541,626;  380,252;51864,465;17,79453
 709,71; 9585,662;  356,175;51958,661;17,88574
 710,28; 9622,851;  350,945;52143,011;17,90218
 710,86; 9639,734;  353,637;52296,977;17,87736
 711,43; 9735,308;  388,561;52232,712;18,02855
 712,00; 9758,036;  347,099;52462,831;18,05777
 712,57; 9864,226;  368,792;52613,181;18,17503
 713,14; 9890,955;  345,485;52694,839;18,23417
 713,71; 9942,683;  342,716;52622,189;18,36278
 714,28; 9950,565;  329,562;52587,155;18,41073
 714,85; 9969,832;  311,486;52370,428;18,55271
 715,42;10048,560;  318,179;52488,239;18,65128
 716,00;10196,289;  389,717;52650,513;18,76468
 716,57;10160,171;  323,410;52897,863;18,71015
 717,14;10187,822;  300,487;52773,751;18,84261
 717,71;10207,781;  280,872;52697,409;18,93851
 718,28;10351,664;  345,411;52941,529;19,02470
 718,85;10321,546;  294,796;52799,648;19,09681
 719,42;10478,582;  314,719;53093,690;19,25741
 719,99;10440,926;  280,874;52844,041;19,32922
 720,56;10522,962;  327,489;53152,468;19,30048
 721,13;10605,382;  295,413;53200,664;19,48761
 721,70;10635,188;  291,336;53172,091;19,56071
 722,27;10651,070;  327,029;53200,287;19,52602
 722,84;10896,567;  385,875;53456,945;19,80494
 723,41;10880,219;  290,107;53359,757;19,95512
 723,98;10909,409;  312,953;53547,107;19,90537
 724,55;11029,675;  333,030;53651,611;20,06176
 725,12;11032,942;  271,877;53561,499;20,19355
 725,69;11124,363;  289,493;53752,773;20,26600
 726,27;11206,553;  312,031;53853,507;20,34782
 726,84;11314,512;  315,186;54174,550;20,42231
 727,41;11315,933;  314,878;54087,361;20,45852
 727,98;11472,584;  324,648;54389,173;20,61969
 728,55;11503,158;  351,648;54299,215;20,67102
 729,12;11598,502;  298,341;54383,412;20,89331
 729,69;11694,154;  338,572;54596,223;20,92900
 730,26;11746,805;  326,342;54893,881;20,92904
 730,82;11811,380;  321,342;54664,001;21,14368
 731,39;11889,877;  331,650;54859,889;21,19677
 731,96;12015,836;  306,574;55130,547;21,35792
 732,53;12137,795;  335,882;55288,743;21,47643
 733,10;12183,447;  344,343;55336,401;21,52875
 733,67;12326,021;  339,575;55680,674;21,65921
 734,24;12282,057;  329,498;55314,486;21,73786
 734,81;12416,939;  351,960;55457,451;21,89433
 735,38;12443,052;  326,114;55160,648;22,09728
 735,95;12455,935;  331,499;54940,152;22,20241
 736,52;12502,894;  340,961;55244,348;22,15152
 737,09;12518,853;  354,654;54918,775;22,29340
 737,66;12660,581;  403,577;55065,510;22,42329
 738,23;12656,925;  345,424;55071,091;22,49676
 738,80;12834,961;  414,809;55413,749;22,58253
 739,37;12881,305;  371,270;55577,329;22,66062
 739,94;12918,802;  340,578;55636,987;22,74691
 740,51;13097,838;  472,733;55690,645;22,86415
 741,07;13049,028;  353,502;55597,764;22,98071
 741,64;13152,449;  374,503;55863,268;23,02799
 742,21;13256,023;  347,118;55899,157;23,23750
 742,78;13236,213;  317,580;55685,815;23,33221
 743,35;13402,634;  338,196;55994,011;23,47363
 743,92;13522,054;  375,658;55992,746;23,63733
 744,49;13586,860;  375,428;55892,942;23,79687
 745,06;13542,819;  345,274;55982,831;23,72057
 745,63;13626,240;  332,351;55944,873;23,90449
 746,19;13717,429;  334,659;55946,608;24,06456
 746,76;13777,619;  338,660;56009,573;24,14000
 747,33;13852,655;  355,122;55937,000;24,28405
 747,90;14059,845;  359,583;56211,274;24,52972
 748,47;14016,650;  355,968;56132,470;24,49182
 749,04;14106,225;  348,507;56220,743;24,62353
 749,61;14209,569;  373,738;56133,016;24,81350
 750,17;14325,759;  359,277;56134,674;25,04058
 750,74;14339,718;  354,431;56069,563;25,10141
 751,31;14397,138;  331,663;56056,836;25,24079
 751,88;14446,328;  326,278;55958,725;25,38096
 752,45;14614,672;  338,356;56058,613;25,62141
 753,02;14604,246;  358,048;55964,963;25,61947
 753,58;14776,129;  332,049;55822,313;26,02994
 754,15;14836,934;  326,818;55941,202;26,09058
 754,72;14846,047;  323,895;55777,860;26,18776
 755,29;14877,160;  310,204;55631,364;26,33162
 755,86;14946,888;  316,896;55711,868;26,41032
 756,42;15053,309;  330,512;55701,141;26,58954
 756,99;15117,883;  291,974;55721,106;26,74750
 757,56;15137,381;  300,436;55504,764;26,87642
 758,13;15082,878;  254,205;55387,884;26,89585
 758,70;15340,761;  277,360;55463,849;27,29545
 759,26;15392,489;  266,283;55611,968;27,33042
 759,83;15468,371;  282,283;55725,934;27,39013
 760,40;15509,253;  254,284;55604,130;27,56100
 760,97;15505,366;  253,130;55511,250;27,60180
 761,53;15468,633;  238,746;55224,369;27,69794
 762,10;15488,131;  226,439;55091,411;27,81682
 762,67;15603,628;  267,747;55061,685;27,98828
 763,24;15448,741;  220,209;54714,881;27,94499
 763,80;15605,547;  260,055;54863,231;28,10366
 764,37;15578,352;  264,517;54886,350;28,03611
 764,94;15552,234;  256,979;54448,085;28,22466
 765,50;15620,193;  261,595;54363,897;28,38807
 766,07;15644,845;  305,441;54565,170;28,27033
 766,64;15580,034;  285,672;54260,905;28,33589
 767,21;15652,147;  280,442;54071,639;28,57662
 767,77;15727,799;  308,134;54050,067;28,69205
 768,34;15654,681;  314,673;54016,263;28,56528
 768,91;15746,102;  327,058;53876,228;28,79418
 769,47;15796,907;  327,905;53913,732;28,86771
 770,04;15744,789;  320,905;53773,775;28,85511
 770,61;15781,825;  300,752;53592,663;29,04957
 771,18;15804,323;  295,829;53376,936;29,21660
 771,74;16007,128;  313,829;53561,671;29,47218
 772,31;15958,087;  311,291;53366,021;29,49180
 772,88;15910,277;  290,753;53131,910;29,55939
 773,44;15926,005;  296,830;53045,491;29,62952
 774,01;16030,734;  317,831;53152,764;29,73961
 774,58;16074,077;  305,062;52650,345;30,12500
 775,14;16135,883;  286,447;52948,387;30,09657
 775,71;16173,226;  302,832;52857,353;30,19796
 776,27;16234,647;  368,371;52715,395;30,30980
 776,84;16301,914;  397,525;52833,438;30,33110
 777,41;16246,488;  311,987;52554,249;30,50117
 777,97;16192,371;  308,295;52285,215;30,55986
 778,54;16198,483;  303,526;52279,488;30,58136
 779,11;16237,750;  326,988;52323,607;30,59961
 779,67;16337,863;  288,527;52191,727;30,92167
 780,24;16286,515;  307,450;52040,077;30,88779
 780,80;16431,089;  324,835;52063,427;31,13006
 781,37;16422,510;  324,758;51949,700;31,18212
 781,94;16435,930;  313,451;51784,743;31,32325
 782,50;16440,582;  317,144;51658,554;31,40435
 783,07;16511,079;  337,529;51743,289;31,46253
 783,63;16425,192;  304,683;51456,332;31,51513
 784,20;16450,382;  339,376;51300,528;31,61429
 784,77;16456,726;  311,453;51225,186;31,71104
 785,33;16455,608;  294,915;50983,074;31,88258
 785,90;16569,721;  303,915;51032,809;32,06418
 786,46;16492,065;  322,839;50900,159;31,96932
 787,03;16526,255;  301,993;50652,278;32,22278
 787,59;16599,214;  298,224;50513,936;32,46193
 788,16;16648,096;  313,301;50510,517;32,54124
 788,73;16681,824;  312,071;50512,483;32,60880
 789,29;16680,937;  285,840;50073,679;32,92992
 789,86;16782,281;  328,687;49922,875;33,17646
 790,42;16711,317;  301,918;49712,533;33,21027
 790,99;16570,584;  311,688;49431,806;33,10028
 791,55;16647,389;  296,380;49395,233;33,30222
 792,12;16789,118;  334,996;49436,045;33,51073
 792,68;16760,846;  312,842;49136,549;33,68856
 793,25;16660,267;  306,612;48929,591;33,63359
 793,81;16743,380;  383,305;48567,865;33,95294
 794,38;16628,877;  277,074;48364,061;34,00463
 794,94;16642,452;  281,075;48267,103;34,09613
 795,51;16669,488;  315,075;47920,300;34,35424
 796,07;16600,754;  294,614;47741,650;34,36704
 796,64;16718,175;  325,768;47878,769;34,47187
 797,20;16689,827;  303,307;47325,427;34,84853
 797,77;16575,786;  274,692;47092,700;34,81800
 798,33;16561,745;  310,384;46897,743;34,88363
 798,90;16620,781;  318,769;46832,554;35,04770
 799,46;16480,817;  290,924;46419,674;35,09719
 800,03;16545,468;  307,539;46231,408;35,35836
 800,59;16467,966;  311,078;46110,143;35,27777
 801,15;16432,694;  320,694;45870,109;35,37257
 801,72;16382,961;  300,694;45530,997;35,55640
 802,28;16302,305;  328,310;45259,578;35,55207
 802,85;16247,418;  302,618;45098,005;35,59474
 803,41;16181,684;  289,849;44987,740;35,55388
 803,98;16174,336;  294,003;44489,628;35,93191
 804,54;16152,064;  290,465;44177,363;36,14199
 805,11;16083,254;  311,004;44040,252;36,06797
 805,67;16131,059;  322,389;43948,294;36,23689
 806,23;15977,634;  307,543;43562,798;36,22702
 806,80;16047,362;  320,698;43519,687;36,40517
 807,36;16052,860;  333,698;43446,575;36,46048
 807,93;16080,127;  345,314;43091,618;36,80976
 808,49;15985,701;  296,468;42657,968;37,03654
 809,05;15966,891;  279,314;42565,241;37,09881
 809,62;15980,389;  306,238;42518,053;37,13214
 810,18;16021,040;  305,930;42428,711;37,30786
 810,74;15912,307;  271,239;42170,753;37,32995
 811,31;15915,035;  273,470;41899,949;37,57600
 811,87;15944,763;  306,393;41779,299;37,70744
 812,44;16007,876;  319,778;41752,265;37,86425
 813,00;15907,451;  250,009;41412,769;38,03788
 813,56;15996,410;  299,471;41490,811;38,10738
 814,13;16059,677;  287,933;41363,315;38,39707
 814,69;16029,559;  281,549;41238,973;38,44971
 815,25;15921,903;  254,241;40772,477;38,66817
 815,82;16031,708;  299,165;40720,673;38,92122
 816,38;16041,898;  331,242;40600,100;39,01441
 816,94;15938,626;  264,781;40284,912;39,16490
 817,51;15942,893;  257,012;40110,185;39,35918
 818,07;15908,775;  256,397;39827,074;39,55550
 818,63;15927,273;  291,090;39544,732;39,83371
 819,20;15975,924;  277,552;39453,005;40,07196
 819,76;15870,037;  256,552;39198,432;40,09433
 820,32;15889,304;  303,937;38981,551;40,29557
 820,89;15805,878;  282,091;38803,901;40,29870
 821,45;15863,530;  267,630;38485,944;40,80740
 822,01;15745,566;  288,784;38235,371;40,73300
 822,57;15798,140;  286,400;38185,336;40,92922
 823,14;15700,484;  245,323;37953,917;40,98578
 823,70;15631,366;  258,785;37624,267;41,14113
 824,26;15586,095;  259,862;37509,541;41,14460
 824,82;15581,592;  300,094;37435,352;41,15091
 825,39;15520,551;  263,940;37111,241;41,40496
 825,95;15513,280;  290,171;37266,206;41,17020
 826,51;15405,854;  274,018;36743,710;41,49154
 827,08;15505,044;  315,249;36809,907;41,62197
 827,64;15459,157;  297,249;36649,180;41,70867
 828,20;15331,193;  257,403;36443,299;41,65653
 828,76;15395,614;  296,173;36381,188;41,84408
 829,32;15464,419;  313,635;36132,615;42,29820
 829,89;15414,378;  249,866;36017,657;42,39712
 830,45;15473,722;  271,174;36062,315;42,47573
 831,01;15412,989;  279,405;35843,896;42,55251
 831,57;15404,563;  283,175;35652,708;42,75258
 832,14;15386,907;  258,637;35711,366;42,67167
 832,70;15375,481;  260,099;35426,331;42,98266
 833,26;15361,825;  233,945;35366,373;43,05959
 833,82;15303,784;  268,484;35296,031;42,92422
 834,38;15391,743;  257,330;35233,689;43,27041
 834,95;15382,779;  255,715;35182,193;43,31116
 835,51;15361,892;  243,254;35039,466;43,44909
 836,07;15473,005;  271,255;35112,201;43,63185
 836,63;15512,195;  304,870;35036,859;43,78478
 837,19;15495,154;  277,717;34829,286;44,04268
 837,75;15318,421;  245,948;34607,559;43,86428
 838,32;15501,149;  290,487;34752,602;44,13735
 838,88;15520,493;  290,718;34674,259;44,29379
 839,44;15517,145;  294,411;34681,456;44,26881
 840,00;15490,950;  276,488;34592,652;44,33614
 840,56;15407,294;  262,181;34297,540;44,49817
 841,12;15450,330;  260,489;34213,660;44,73762
 841,68;15433,750;  238,412;34080,395;44,90085
 842,25;15507,171;  253,566;34154,052;44,99524
 842,81;15306,976;  258,567;33854,479;44,79238
 843,37;15406,474;  243,028;33824,753;45,15386
 843,93;15398,202;  264,260;33801,257;45,12611
 844,49;15440,238;  281,491;33788,914;45,23997
 845,05;15322,582;  226,414;33613,957;45,21497
 845,61;15469,926;  278,184;33598,845;45,59256
 846,17;15390,115;  262,338;33423,196;45,61938
 846,73;15496,075;  272,031;33429,700;45,91410
 847,29;15419,649;  249,492;33178,127;46,06980
 847,86;15430,301;  250,647;33157,861;46,12865
 848,42;15386,337;  244,416;33008,442;46,21508
 848,98;15413,219;  267,186;32922,562;46,38144
 849,54;15432,716;  250,340;32905,066;46,49366
 850,10;15430,214;  262,725;32723,185;46,72604
 850,66;15301,865;  241,033;32620,150;46,51403
 851,22;15415,594;  240,418;32551,501;46,96585
 851,78;15525,245;  284,034;32665,620;47,06753
 852,34;15455,820;  269,419;32323,124;47,37799
 852,90;15427,702;  252,573;32188,320;47,51769
 853,46;15376,353;  242,727;31997,670;47,65754
 854,02;15431,928;  266,881;32021,020;47,75770
 854,58;15286,195;  252,036;31732,217;47,75754
 855,14;15310,769;  242,728;31675,105;47,93796
 855,70;15293,420;  230,498;31478,609;48,20427
 856,26;15255,533;  261,652;31426,959;48,11081
 856,82;15201,877;  249,575;31362,002;48,05894
 857,38;15228,375;  301,730;31168,583;48,35817
 857,94;15128,565;  260,730;31128,625;48,16601
 858,50;15209,908;  272,577;30932,668;48,71914
 859,06;15101,021;  258,731;30843,633;48,52816
 859,62;15083,673;  280,577;30800,368;48,50327
 860,18;15054,863;  266,347;30540,795;48,84818
 860,74;15014,745;  236,116;30480,376;48,86424
 861,30;15009,396;  239,271;30208,034;49,28507
 861,86;15163,278;  311,117;30398,922;49,36273
 862,42;15104,391;  251,579;30109,349;49,74522
 862,98;15140,658;  286,810;30098,776;49,82512
 863,54;15021,156;  251,503;29904,203;49,80880
 864,10;15109,884;  268,119;29954,015;49,99602
 864,66;14956,920;  228,888;29743,904;49,90013
 865,22;14953,956;  247,273;29580,946;50,13584
 865,78;14947,069;  260,889;29447,373;50,31843
 866,34;14961,413;  246,428;29419,031;50,44111
 866,90;14941,449;  258,274;29261,150;50,62662
 867,45;14849,639;  250,813;29022,039;50,74106
 868,01;14803,290;  244,583;28907,543;50,79276
 868,57;14746,788;  249,045;28737,278;50,89029
 869,13;14737,747;  237,506;28576,012;51,16798
 869,69;14731,706;  240,199;28538,901;51,20909
 870,25;14702,665;  236,969;28389,482;51,38332
 870,81;14725,316;  245,046;28317,832;51,58117
 871,37;14687,429;  269,662;28271,259;51,48909
 871,93;14722,927;  283,739;28096,686;51,91535
 872,49;14653,194;  296,893;27928,728;51,95565
 873,04;14572,999;  240,817;27787,309;52,02906
 873,60;14518,804;  240,894;27667,890;52,05787
 874,16;14561,610;  271,433;27518,163;52,44731
 874,72;14560,840;  254,433;27458,856;52,58854
 875,28;14601,840;  251,433;27358,933;52,93888
 875,84;14531,994;  261,817;27373,779;52,63425
 876,40;14556,840;  243,510;27305,779;52,89036
 876,95;14586,225;  247,356;27243,010;53,11547
 877,51;14672,610;  283,202;27220,471;53,41821
 878,07;14688,687;  290,971;27186,010;53,53298
 878,63;14626,148;  258,048;27179,163;53,37112
 879,19;14713,917;  264,740;27231,625;53,58119
 879,75;14777,148;  254,279;27203,010;53,89074
 880,30;14772,456;  246,048;27291,010;53,71207
 880,86;14977,148;  299,433;27390,625;54,17892
 881,42;14963,302;  233,510;27328,933;54,36266
 881,98;15135,302;  264,894;27395,548;54,81036
 882,54;15243,687;  241,356;27527,625;54,98125
 883,09;15333,379;  265,433;27595,548;55,13312
 883,65;15353,225;  250,433;27656,548;55,10738
 884,21;15576,379;  294,202;27779,240;55,60180
 884,77;15640,456;  235,587;27917,548;55,64949
 885,32;15771,687;  258,279;28054,702;55,81081
 885,88;15925,071;  280,894;28194,779;56,04443
 886,44;16012,994;  255,971;28265,779;56,25538
 887,00;16112,994;  273,971;28209,394;56,69870
 887,56;16189,225;  256,894;28435,010;56,54151
 888,11;16212,533;  269,663;28349,702;56,77652
 888,67;16353,687;  277,740;28548,394;56,86443
 889,23;16489,456;  254,125;28482,010;57,51522
 889,79;16474,148;  244,356;28431,856;57,57798
 890,34;16439,840;  268,125;28384,163;57,51776
 890,90;16621,917;  333,202;28557,779;57,71111
 891,46;16542,840;  244,202;28416,471;57,85348
 892,01;16591,379;  267,048;28408,933;58,00724
 892,57;16594,456;  296,048;28336,240;58,12516
 893,13;16606,610;  243,663;28152,471;58,63004
 893,69;16613,379;  236,048;28070,625;58,83808
 894,24;16594,687;  248,125;27938,933;59,03245
 894,80;16558,840;  255,202;27894,010;58,98821
 895,36;16440,379;  243,356;27727,471;58,93231
 895,91;16409,610;  249,433;27520,779;59,25698
 896,47;16458,687;  272,125;27423,548;59,61589
 897,03;16338,763;  246,663;27244,394;59,60538
 897,58;16239,533;  255,433;27167,779;59,39319
 898,14;16262,840;  262,433;27009,779;59,82054
 898,70;16066,379;  214,125;26779,856;59,67182
 899,25;16129,610;  254,971;26867,240;59,65158
 899,81;16115,533;  259,740;26652,471;60,07636
 900,37;16069,840;  211,279;26454,163;60,42995
 900,92;16096,533;  248,433;26442,163;60,50341
 901,48;16018,225;  236,510;26289,856;60,57462
 902,03;15962,840;  237,048;26127,163;60,74053
 902,59;15908,148;  239,048;26029,856;60,75459
 903,15;15950,302;  262,356;25902,163;61,18590
 903,70;15806,687;  241,279;25715,010;61,10376
 904,26;15833,840;  237,587;25565,471;61,57740
 904,82;15884,225;  241,510;25528,702;61,86023
 905,37;15778,071;  252,587;25409,625;61,71428
 905,93;15762,917;  231,510;25257,163;62,06195
 906,48;15775,610;  249,202;25269,240;62,05589
 907,04;15829,763;  254,817;25191,933;62,45689
 907,60;15593,917;  250,587;24960,010;62,09506
 908,15;15606,763;  236,279;24885,010;62,35812
 908,71;15591,379;  260,971;24848,548;62,35022
 909,26;15597,763;  230,740;24733,163;62,71634
 909,82;15630,687;  255,279;24547,548;63,29342
 910,37;15529,994;  279,894;24504,317;62,95341
 910,93;15449,917;  235,817;24324,625;63,15838
 911,48;15442,533;  211,279;24223,548;63,43113
 912,04;15381,917;  229,510;24064,779;63,57137
 912,60;15435,917;  243,356;24029,163;63,87238
 913,15;15374,456;  245,048;23886,394;63,99554
 913,71;15175,917;  225,587;23652,856;63,81593
 914,26;15189,763;  218,740;23636,010;63,93155
 914,82;15161,917;  247,740;23560,856;63,97333
 915,37;15172,379;  230,663;23486,856;64,24833
 915,93;15142,456;  303,202;23381,471;64,29968
 916,48;14953,687;  221,817;23217,548;64,06350
 917,04;14958,379;  259,663;23063,394;64,45750
 917,59;14990,610;  270,740;23124,548;64,40883
 918,15;14779,225;  205,202;22832,394;64,40933
 918,70;14738,456;  230,817;22744,933;64,43797
 919,26;14756,917;  240,740;22600,702;64,92040
 919,81;14710,994;  219,433;22460,471;65,15686
 920,37;14700,071;  245,433;22430,317;65,15535
 920,92;14683,302;  263,125;22403,625;65,13031
 921,48;14587,687;  223,894;22091,394;65,68557
 922,03;14590,379;  233,048;22110,163;65,62717
 922,59;14556,148;  232,817;22055,702;65,63445
 923,14;14432,763;  244,510;21812,163;65,78487
 923,69;14469,225;  254,510;21781,163;66,03309
 924,25;14459,456;  265,048;21795,010;65,92863
 924,80;14417,533;  239,587;21542,471;66,55411
 925,36;14421,610;  225,202;21428,625;66,95338
 925,91;14376,763;  219,048;21370,010;66,93651
 926,47;14325,994;  217,279;21331,394;66,82125
 927,02;14355,917;  291,971;21219,317;67,20368
 927,57;14289,379;  225,279;21006,087;67,67831
 928,13;14232,379;  225,279;20948,010;67,59293
 928,68;14210,225;  233,817;20900,933;67,62631
 929,24;14096,917;  201,971;20710,625;67,75162
 929,79;14102,917;  219,587;20580,240;68,18706
 930,34;14005,379;  226,356;20442,317;68,15913
 930,90;14019,763;  225,663;20414,856;68,32418
 931,45;14011,071;  231,894;20431,779;68,21414
 932,01;13898,225;  235,048;20330,317;67,99201
 932,56;13830,379;  250,663;20097,779;68,42161
 933,11;13856,840;  258,587;20132,548;68,42246
 933,67;13733,302;  220,202;19943,317;68,51402
 934,22;13743,687;  230,125;19903,317;68,69023
 934,77;13731,148;  252,202;19720,779;69,23437
 935,33;13601,994;  232,971;19621,779;68,95227
 935,88;13612,840;  239,202;19570,317;69,18193
 936,43;13569,456;  228,740;19440,933;69,43880
 936,99;13587,071;  232,202;19387,779;69,71792
 937,54;13502,994;  204,894;19253,394;69,81180
 938,09;13524,071;  237,587;19226,317;69,97037
 938,65;13521,687;  237,433;19047,317;70,62379
 939,20;13471,994;  210,356;19020,779;70,50154
 939,75;13384,917;  214,740;18954,471;70,27944
 940,31;13350,687;  213,125;18819,933;70,60621
 940,86;13421,225;  225,740;18780,163;71,11773
 941,41;13429,225;  315,510;18720,317;71,25158
 941,96;13296,071;  220,048;18550,471;71,33509
 942,52;13320,225;  222,125;18442,856;71,88570
 943,07;13282,225;  199,740;18381,087;71,95553
 943,62;13217,533;  217,587;18287,010;71,94445
 944,18;13168,379;  209,971;18255,317;71,81025
 944,73;13240,610;  234,433;18020,240;73,12672
 945,28;13065,763;  196,894;17911,933;72,64376
 945,83;13175,379;  221,663;17909,087;73,23687
 946,39;13218,533;  218,279;17914,702;73,46261
 946,94;13227,994;  243,817;17736,010;74,22841
 947,49;13096,687;  216,510;17631,625;73,95976
 948,04;13129,763;  262,356;17690,317;73,83197
 948,59;13203,225;  241,971;17645,163;74,47630
 949,15;13107,840;  207,740;17503,625;74,58479
 949,70;13083,379;  229,433;17385,471;74,92374
 950,25;13052,148;  231,663;17277,010;75,21399
 950,80;13061,379;  186,663;17122,702;76,01964
 951,36;12937,302;  192,587;17124,548;75,27016
 951,91;13022,225;  243,356;17139,933;75,62993
 952,46;12873,763;  202,663;16908,394;75,84882
 953,01;12886,610;  236,202;16897,010;75,92914
 953,56;12797,994;  201,125;16755,471;76,09403
 954,11;12748,763;  234,663;16748,317;75,78032
 954,67;12713,302;  218,894;16653,087;76,02690
 955,22;12702,533;  196,279;16463,625;76,87950
 955,77;12773,610;  243,894;16551,240;76,83479
 956,32;12693,533;  281,894;16403,163;76,98921
 956,87;12537,763;  216,433;16257,240;76,81241
 957,42;12496,687;  230,125;16189,933;76,85908
 957,98;12468,994;  217,587;16138,933;76,94957
 958,53;12457,302;  248,356;16123,010;76,90842
 959,08;12397,456;  204,356;15932,779;77,52271
 959,63;12316,071;  209,817;15836,471;77,47182
 960,18;12247,379;  240,433;15843,548;76,95224
 960,73;12186,610;  224,048;15819,087;76,70748
 961,28;12205,917;  206,663;15655,010;77,67339
 961,83;12256,533;  247,894;15641,548;78,01032
 962,39;12137,840;  203,894;15504,702;77,99553
 962,94;12085,379;  224,663;15445,163;77,92592
 963,49;12024,379;  227,202;15295,779;78,28992
 964,04;12020,840;  228,971;15216,548;78,67762
 964,59;11896,840;  203,125;15139,317;78,29114
 965,14;11889,917;  244,894;15098,856;78,39675
 965,69;11803,763;  237,202;14957,163;78,57739
 966,24;11725,148;  217,279;14840,317;78,69684
 966,79;11743,302;  237,048;14789,394;79,06803
 967,34;11642,840;  205,510;14734,856;78,71883
 967,89;11595,917;  216,663;14617,625;79,01732
 968,44;11646,533;  222,740;14560,933;79,67387
 968,99;11635,071;  229,433;14552,625;79,63056
 969,55;11551,379;  227,356;14408,625;79,85197
 970,10;11512,840;  236,048;14297,702;80,19535
 970,65;11417,994;  253,971;14166,471;80,24455
 971,20;11426,148;  207,817;14077,240;80,88535
 971,75;11369,687;  196,433;13935,163;81,32668
 972,30;11331,302;  232,587;13902,010;81,19374
 972,85;11271,148;  212,817;13824,240;81,24302
 973,40;11232,456;  217,971;13728,163;81,52722
 973,95;11171,302;  234,740;13695,010;81,25069
 974,50;11169,533;  256,202;13630,317;81,60039
 975,05;11099,302;  232,356;13502,240;81,89179
 975,60;11035,225;  246,587;13442,010;81,76046
 976,15;10936,687;  220,356;13283,010;82,03793
 976,70;10968,840;  228,663;13184,856;82,89609
 977,25;10936,456;  245,740;13159,010;82,78860
 977,80;10819,840;  227,356;13054,240;82,58034
 978,35;10727,840;  239,279;12839,394;83,24179
 978,89;10678,148;  204,817;12779,702;83,28769
 979,44;10655,840;  226,048;12821,779;82,80419
 979,99;10521,994;  212,817;12606,625;83,18006
 980,54;10494,610;  247,125;12527,010;83,44936
 981,09;10493,148;  256,279;12521,856;83,46015
 981,64;10350,840;  241,663;12382,933;83,26293
 982,19;10338,302;  276,894;12315,933;83,57318
 982,74;10221,840;  241,048;12229,010;83,25679
 983,29;10181,994;  219,587;12037,625;84,29832
 983,84;10048,225;  226,740;11923,702;83,96612
 984,39;10052,533;  318,202;11991,625;83,38883
 984,94; 9900,687;  204,894;11736,779;84,07812
 985,49; 9904,302;  263,587;11708,163;84,23829
 986,03; 9879,071;  262,971;11659,548;84,37709
 986,58; 9814,225;  288,356;11489,240;85,04569
 987,13; 9698,225;  237,202;11355,394;85,09498
 987,68; 9666,533;  258,510;11278,625;85,37137
 988,23; 9634,687;  254,356;11222,317;85,52483
 988,78; 9557,379;  236,356;11108,548;85,73269
 989,33; 9522,610;  249,202;11009,548;86,18131
 989,88; 9496,994;  273,510;10959,625;86,31279
 990,42; 9373,763;  236,971;10761,856;86,81133
 990,97; 9307,840;  240,202;10640,163;87,18915
 991,52; 9270,763;  255,356;10569,779;87,40584
 992,07; 9240,610;  270,817;10517,317;87,54006
 992,62; 9125,687;  241,279;10391,856;87,52614
 993,17; 9095,610;  255,356;10232,933;88,60121
 993,71; 9047,302;  258,587;10219,010;88,23637
 994,26; 8884,456;  227,817; 9997,471;88,60742
 994,81; 8926,840;  257,587;10026,471;88,74354
 995,36; 8824,533;  233,663; 9858,779;89,25471
 995,91; 8768,994;  246,356; 9744,163;89,73269
 996,45; 8682,840;  243,048; 9689,625;89,34233
 997,00; 8538,840;  218,125; 9582,010;88,85965
 997,55; 8557,610;  251,356; 9489,933;89,90837
 998,10; 8423,917;  269,433; 9388,933;89,41811
 998,65; 8379,994;  237,356; 9351,163;89,34398
 999,19; 8232,533;  263,510; 9219,625;88,97857
 999,74; 8216,840;  283,587; 9113,163;89,84863
1000,29; 8173,687;  254,356; 9071,317;89,81927
1000,84; 8023,456;  247,356; 8884,625;90,02961
1001,38; 7976,379;  251,510; 8792,087;90,44903
1001,93; 7946,610;  246,125; 8761,702;90,42822
1002,48; 7796,687;  226,971; 8619,087;90,20033
1003,03; 7805,994;  254,433; 8565,471;90,86183
1003,57; 7709,456;  255,279; 8497,317;90,44094
1004,12; 7691,763;  288,048; 8389,702;91,38523
1004,67; 7567,994;  238,202; 8254,087;91,44084
1005,22; 7438,071;  229,279; 8159,702;90,90048
1005,76; 7330,225;  218,279; 8040,548;90,91922
1006,31; 7326,148;  257,202; 7979,240;91,54249
1006,86; 7214,763;  234,740; 7830,087;91,89868
1007,40; 7123,533;  216,663; 7735,856;91,85653
1007,95; 7027,456;  239,663; 7658,625;91,49249
1008,50; 6909,687;  248,587; 7545,702;91,28402
1009,04; 6849,687;  236,048; 7434,240;91,87916
1009,59; 6758,917;  247,971; 7270,317;92,71753
1010,14; 6643,994;  228,279; 7237,087;91,53790
1010,68; 6604,379;  243,433; 7149,548;92,10599
1011,23; 6493,379;  227,587; 6996,548;92,56652
1011,78; 6458,917;  253,894; 6943,856;92,75125
1012,32; 6351,379;  272,125; 6822,394;92,80922
1012,87; 6362,302;  269,894; 6837,548;92,76384
1013,42; 6249,840;  225,048; 6690,702;93,18149
1013,96; 6305,225;  270,125; 6717,240;93,60931
1014,51; 6177,071;  207,817; 6585,163;93,60091
1015,06; 6218,379;  216,202; 6554,240;94,70086
1015,60; 6300,379;  275,817; 6607,087;95,15567
1016,15; 6254,456;  230,663; 6560,856;95,15970
1016,69; 6306,456;  237,202; 6614,856;95,16437
1017,24; 6311,379;  223,433; 6589,394;95,63278
1017,79; 6372,148;  277,510; 6636,317;95,84562
1018,33; 6389,225;  231,510; 6634,779;96,16518
1018,88; 6465,610;  251,971; 6665,548;96,88257
1019,42; 6455,148;  231,971; 6630,163;97,26461
1019,97; 6504,994;  227,894; 6621,625;98,17586
1020,51; 6604,917;  268,356; 6689,548;98,68201
1021,06; 6545,994;  227,125; 6628,625;98,70920
1021,61; 6517,302;  201,740; 6623,933;98,33965
1022,15; 6486,302;  188,510; 6586,702;98,43081
1022,70; 6556,379;  241,740; 6589,856;99,47265
1023,24; 6479,687;  217,971; 6503,702;99,61794
1023,79; 6446,763;  225,356; 6506,702;99,04577
1024,33; 6418,687;  217,817; 6428,010;99,84987
1024,88; 6405,225;  244,817; 6364,010;100,67354
1025,42; 6298,610;  249,971; 6247,702;100,84878
1025,97; 6234,302;  220,048; 6179,240;100,92398
1026,51; 6099,840;  200,894; 6035,548;101,10190
1027,06; 6055,763;  215,202; 5981,933;101,28029
1027,60; 5958,687;  244,817; 5897,933;101,07470
1028,15; 5909,071;  251,048; 5856,087;100,94530
1028,69; 5743,610;  192,587; 5682,548;101,11224
1029,24; 5722,994;  232,587; 5602,548;102,24296
1029,78; 5608,148;  219,510; 5551,394;101,06442
1030,33; 5504,456;  202,663; 5448,317;101,07019
1030,87; 5434,533;  224,894; 5380,548;101,04710
1031,42; 5358,840;  212,356; 5271,625;101,72387
1031,96; 5285,302;  241,971; 5232,625;101,05551
1032,51; 5254,687;  211,817; 5156,702;101,98153
1033,05; 5171,302;  237,048; 5132,702;100,78845
1033,60; 5030,148;  197,587; 4966,702;101,33035
1034,14; 4998,302;  215,894; 4919,394;101,67764
1034,69; 4957,148;  223,740; 4855,933;102,18504
1035,23; 4853,763;  216,894; 4821,702;100,69626
1035,77; 4825,687;  215,817; 4729,010;102,14210
1036,32; 4751,379;  192,433; 4662,702;101,98370
1036,86; 4757,840;  230,279; 4599,163;103,63198
1037,41; 4671,071;  239,740; 4541,240;103,01827
1037,95; 4581,763;  188,279; 4430,548;103,56449
1038,50; 4547,071;  213,202; 4401,317;103,48018
1039,04; 4499,456;  235,740; 4344,933;103,76042
1039,58; 4378,533;  199,433; 4289,856;102,16792
1040,13; 4358,917;  221,740; 4213,856;103,63370
1040,67; 4351,994;  252,817; 4231,010;103,04120
1041,21; 4260,763;  258,279; 4144,856;102,98226
1041,76; 4145,840;  204,202; 4034,163;102,91588
1042,30; 4111,456;  221,510; 4012,471;102,61107
1042,85; 4000,610;  215,894; 3952,856;101,27788
1043,39; 3979,917;  212,433; 3862,625;103,21332
1043,93; 3992,533;  241,817; 3872,087;103,31783
1044,48; 3889,687;  230,510; 3825,471;101,78626
1045,02; 3858,610;  219,202; 3715,933;104,08029
1045,56; 3833,610;  252,894; 3728,471;103,02507
1046,11; 3760,994;  228,433; 3609,087;104,49344
1046,65; 3670,148;  230,433; 3572,087;102,93452
1047,19; 3634,071;  218,279; 3512,625;103,68650
1047,74; 3576,148;  197,356; 3469,856;103,24805
1048,28; 3559,302;  223,048; 3423,317;104,24916
1048,82; 3535,763;  256,971; 3420,317;103,64949
1049,37; 3471,687;  241,048; 3322,471;104,84242
1049,91; 3447,148;  231,587; 3308,856;104,49399
1050,45; 3376,763;  233,740; 3246,240;104,33272
1050,99; 3339,610;  227,433; 3231,163;103,61038
1051,54; 3263,533;  214,125; 3142,625;104,12866
1052,08; 3261,225;  246,894; 3127,702;104,63492
1052,62; 3190,994;  247,433; 3097,240;103,28983
1053,16; 3135,148;  226,125; 3032,317;103,66442
1053,71; 3141,687;  234,663; 3025,163;104,17571
1054,25; 3067,302;  245,510; 2963,394;103,82311
1054,79; 3026,456;  242,894; 2893,010;105,03548
1055,33; 2961,302;  199,356; 2849,010;104,23800
1055,88; 2943,379;  246,202; 2846,779;103,71456
1056,42; 2936,763;  247,433; 2797,471;105,46236
1056,96; 2890,379;  244,817; 2790,317;103,93092
1057,50; 2854,917;  239,125; 2715,702;105,62128
1058,05; 2763,763;  236,587; 2651,240;104,66001
1058,59; 2756,302;  253,587; 2637,933;104,96443
1059,13; 2679,379;  218,510; 2573,163;104,51087
1059,67; 2669,456;  242,817; 2560,548;104,69889
1060,21; 2630,071;  237,125; 2497,933;105,84475
1060,76; 2621,379;  243,356; 2515,625;104,65411
1061,30; 2603,379;  256,202; 2489,779;105,08601
1061,84; 2575,379;  240,433; 2418,856;107,18516
1062,38; 2465,610;  219,587; 2340,163;105,91566
1062,92; 2509,763;  274,587; 2379,702;106,17836
1063,46; 2442,994;  249,663; 2320,471;105,91668
1064,01; 2393,533;  232,894; 2289,856;105,04029
1064,55; 2359,840;  235,279; 2254,625;105,21037
1065,09; 2315,456;  208,048; 2167,625;107,54401
1065,63; 2349,687;  259,971; 2212,163;107,04455
1066,17; 2343,687;  282,740; 2185,317;108,32393
1066,71; 2266,994;  260,048; 2159,702;105,64799
1067,25; 2232,994;  238,433; 2102,087;107,02425
1067,80; 2216,379;  252,587; 2086,240;107,09722
1068,34; 2235,994;  269,817; 2096,702;107,62458
1068,88; 2149,840;  242,279; 2011,702;107,80698
1069,42; 2168,610;  259,740; 2022,240;108,30464
1069,96; 2132,994;  246,587; 1975,548;109,10640
1070,50; 2141,302;  274,202; 1998,163;108,30288
1071,04; 2041,687;  228,817; 1931,394;106,47796
1071,58; 2026,456;  236,740; 1905,856;107,22538
1072,12; 2020,687;  235,894; 1914,548;106,32283
1072,66; 2006,148;  240,587; 1872,702;108,17627
1073,21; 2025,917;  250,356; 1855,779;110,59773
1073,75; 1979,917;  239,817; 1843,163;108,52928
1074,29; 1948,071;  238,740; 1820,010;108,09865
1074,83; 1957,456;  269,510; 1805,240;109,91159
1075,37; 1918,994;  263,433; 1800,010;107,74349
1075,91; 1879,917;  256,125; 1753,010;108,47812
1076,45; 1857,917;  244,894; 1728,548;108,71964
1076,99; 1824,148;  257,202; 1729,087;106,45849
1077,53; 1801,225;  235,433; 1662,548;109,71729
1078,07; 1788,610;  244,740; 1679,240;107,62421
1078,61; 1775,071;  249,587; 1643,087;109,47145
1079,15; 1753,456;  242,202; 1623,240;109,42880
1079,69; 1729,148;  239,279; 1606,240;108,99131
1080,23; 1727,456;  262,587; 1587,702;110,54654
1080,77; 1759,148;  302,971; 1626,625;110,01191
1081,31; 1659,610;  236,740; 1546,548;108,63192
1081,85; 1674,994;  268,510; 1558,625;109,02006
1082,39; 1630,994;  238,433; 1515,163;109,07245
1082,93; 1623,379;  249,125; 1515,087;108,55415
1083,47; 1603,302;  235,125; 1445,471;113,04013
1084,01; 1601,994;  253,740; 1488,317;109,20776
1084,55; 1558,456;  241,510; 1434,779;110,36454
1085,09; 1573,302;  256,587; 1444,933;110,80234
1085,63; 1511,840;  249,663; 1423,317;107,54252
1086,17; 1510,379;  228,663; 1396,317;109,76844
1086,71; 1481,840;  224,279; 1372,010;109,56938
1087,24; 1506,917;  261,663; 1402,163;109,18491
1087,78; 1495,687;  259,279; 1373,702;110,94599
1088,32; 1427,994;  230,971; 1326,625;109,25194
1088,86; 1454,687;  257,356; 1332,394;111,37562
1089,40; 1425,302;  250,587; 1322,548;109,58559
1089,94; 1375,610;  222,356; 1272,010;109,86992
1090,48; 1380,456;  262,125; 1279,933;109,87643
1091,02; 1372,840;  266,048; 1280,625;109,08905
1091,56; 1341,148;  250,894; 1249,548;109,17235
1092,10; 1324,840;  229,510; 1219,933;110,59221
1092,63; 1329,687;  268,048; 1259,625;107,06567
1093,17; 1321,379;  251,510; 1227,779;109,58752
1093,71; 1293,533;  231,356; 1181,625;111,77642
1094,25; 1305,994;  269,663; 1208,779;110,35180
1094,79; 1258,071;  239,663; 1163,548;110,23105
1095,33; 1267,840;  256,048; 1162,163;111,66263
1095,87; 1240,533;  246,433; 1143,087;110,86776
1096,40; 1204,456;  235,048; 1108,856;110,94062
1096,94; 1222,456;  242,279; 1113,240;112,53963
1097,48; 1230,917;  260,433; 1126,625;112,04032
1098,02; 1186,687;  237,663; 1066,856;114,45151
1098,56; 1138,379;  216,202; 1053,010;110,20177
1099,10; 1134,917;  216,971; 1052,317;109,88812
1099,63; 1140,533;  223,433; 1027,779;114,01807
1100,17; 1146,610;  251,510; 1050,856;111,97902
1100,71; 1157,302;  265,740; 1058,779;112,42349

