
Integration time [ms]: 140,000
Averaging Nr. [scans]: 13
Smoothing Nr. [pixels]: 0
Data measured with spectrometer [name]: 2009305U1
Wave   ;Sample   ;Dark     ;Reference;Reflectance
[nm]   ;[counts] ;[counts] ;[counts] ;[%]

 175,72;  207,353;  198,885;  194,139; 0,00000
 176,32;  232,668;  212,577;  214,894;867,03657
 176,92;  263,170;  235,808;  244,072;331,08888
 177,52;  262,998;  242,038;  254,270;171,35081
 178,12;  236,313;  232,038;  214,800; 0,00000
 178,72;  266,982;  256,423;  239,900; 0,00000
 179,32;  266,952;  236,500;  245,616;334,05055
 179,92;  260,655;  240,192;  244,573;467,15255
 180,52;  254,618;  221,269;  247,993;124,79145
 181,12;  263,359;  239,115;  248,829;249,58967
 181,73;  276,105;  260,038;  272,399;129,97865
 182,33;  376,654;  313,423;  327,745;441,48972
 182,93;  279,442;  247,885;  257,773;319,13433
 183,53;  245,964;  238,115;  216,783; 0,00000
 184,13;  241,680;  237,731;  227,450; 0,00000
 184,73;  296,035;  250,500;  265,230;309,13437
 185,33;  288,386;  224,808;  337,380;56,47834
 185,93;  298,973;  222,192;  357,456;56,76402
 186,53;  313,499;  240,269;  368,442;57,13392
 187,13;  318,214;  264,269;  410,740;36,82986
 187,73;  283,967;  231,654;  360,523;40,59403
 188,33;  302,885;  235,038;  362,886;53,06828
 188,93;  306,177;  245,346;  364,048;51,24646
 189,53;  315,681;  247,423;  379,952;51,50429
 190,13;  354,559;  267,192;  399,816;65,87572
 190,73;  298,303;  217,115;  348,335;61,87158
 191,34;  328,976;  241,885;  382,405;61,97761
 191,94;  284,051;  238,885;  363,129;36,35293
 192,54;  306,711;  244,269;  382,672;45,11560
 193,14;  314,794;  258,423;  381,975;45,62552
 193,74;  309,025;  249,577;  378,895;45,97077
 194,34;  294,362;  246,115;  391,808;33,11542
 194,94;  273,238;  208,885;  348,554;46,07540
 195,54;  258,392;  211,962;  329,008;39,66877
 196,14;  272,190;  214,115;  355,392;41,10717
 196,74;  254,132;  219,269;  350,867;26,49205
 197,34;  243,793;  193,346;  344,458;33,38395
 197,94;  270,510;  227,500;  369,717;30,24258
 198,54;  281,090;  221,731;  381,114;37,24289
 199,14;  264,337;  198,423;  392,861;33,89983
 199,74;  244,663;  189,577;  384,358;28,28077
 200,34;  246,325;  185,269;  383,225;30,84327
 200,94;  269,373;  228,192;  430,230;20,38280
 201,54;  259,846;  204,885;  445,029;22,88689
 202,14;  295,567;  221,808;  459,331;31,05376
 202,74;  266,172;  211,577;  467,298;21,34926
 203,34;  243,845;  184,269;  506,588;18,48357
 203,94;  227,887;  161,731;  498,587;19,63929
 204,54;  290,374;  227,654;  568,369;18,40834
 205,14;  271,544;  197,500;  584,198;19,14782
 205,74;  295,964;  219,577;  676,516;16,71703
 206,34;  270,757;  191,731;  688,401;15,91118
 206,94;  283,000;  201,269;  739,114;15,19590
 207,54;  252,420;  169,808;  782,495;13,48355
 208,14;  277,212;  199,654;  878,083;11,43208
 208,74;  268,976;  199,269;  955,907; 9,21273
 209,34;  284,361;  192,115; 1027,063;11,04804
 209,94;  291,225;  207,731; 1128,175; 9,07105
 210,54;  308,455;  197,038; 1247,802;10,60337
 211,14;  317,882;  205,192; 1350,488; 9,83932
 211,73;  319,136;  201,038; 1429,915; 9,61022
 212,33;  337,894;  210,731; 1566,271; 9,38100
 212,93;  341,172;  197,885; 1674,297; 9,70508
 213,53;  316,917;  173,346; 1722,943; 9,26505
 214,13;  362,726;  197,885; 1797,819;10,30304
 214,73;  330,567;  182,500; 1804,177; 9,13052
 215,33;  329,917;  150,038; 1838,021;10,65642
 215,93;  380,727;  187,654; 1998,888;10,65975
 216,53;  345,420;  152,731; 2035,716;10,23318
 217,13;  414,603;  211,885; 2258,867; 9,90327
 217,73;  422,685;  182,500; 2461,267;10,54015
 218,33;  391,957;  144,269; 2676,129; 9,78284
 218,93;  468,145;  171,192; 2966,220;10,62434
 219,53;  481,898;  179,731; 3295,780; 9,69712
 220,13;  508,140;  155,423; 3570,116;10,32940
 220,73;  555,260;  180,346; 3949,708; 9,94635
 221,32;  601,746;  181,885; 4374,676;10,01387
 221,92;  644,602;  180,885; 4782,807;10,07660
 222,52;  688,638;  160,731; 5215,943;10,44283
 223,12;  723,537;  168,962; 5654,204;10,11033
 223,72;  791,017;  183,115; 6040,009;10,37924
 224,32;  823,579;  184,115; 6387,058;10,30903
 224,92;  830,301;  165,423; 6707,578;10,16297
 225,52;  909,094;  193,808; 7079,458;10,38808
 226,12;  933,869;  180,500; 7367,553;10,48231
 226,72;  960,976;  158,577; 7643,073;10,72081
 227,31; 1002,621;  144,346; 8072,747;10,82532
 227,91; 1084,828;  183,038; 8400,077;10,97463
 228,51; 1126,846;  166,962; 8796,101;11,12376
 229,11; 1155,562;  166,346; 9149,705;11,01164
 229,71; 1187,799;  171,731; 9467,089;10,93092
 230,31; 1258,235;  162,269; 9866,529;11,29366
 230,91; 1285,616;  156,346;10119,172;11,33483
 231,51; 1354,561;  160,115;10463,788;11,59243
 232,10; 1434,312;  167,423;10748,070;11,97364
 232,70; 1462,516;  170,731;10896,423;12,04384
 233,30; 1538,597;  188,038;11097,703;12,37947
 233,90; 1551,857;  170,808;11212,685;12,50738
 234,50; 1605,384;  167,192;11365,048;12,84345
 235,10; 1633,608;  170,962;11313,117;13,12714
 235,70; 1682,787;  184,346;11380,379;13,38367
 236,29; 1694,609;  184,731;11221,557;13,68037
 236,89; 1684,356;  156,346;11176,730;13,86530
 237,49; 1764,692;  184,731;11057,044;14,53196
 238,09; 1755,295;  171,346;10711,017;15,02845
 238,69; 1781,131;  200,962;10453,966;15,41177
 239,29; 1750,361;  176,808;10203,068;15,69431
 239,89; 1731,941;  185,885; 9735,825;16,18918
 240,48; 1708,556;  170,500; 9401,768;16,66137
 241,08; 1722,568;  168,500; 9000,173;17,59653
 241,68; 1720,816;  183,269; 8756,597;17,93407
 242,28; 1696,183;  163,192; 8416,797;18,57359
 242,88; 1781,360;  200,038; 8101,316;20,01349
 243,48; 1736,597;  198,192; 7858,316;20,08329
 244,07; 1729,935;  191,038; 7637,367;20,66651
 244,67; 1764,171;  186,654; 7467,463;21,66678
 245,27; 1762,444;  195,885; 7301,300;22,04740
 245,87; 1798,579;  201,885; 7239,829;22,68694
 246,47; 1837,030;  183,423; 7237,856;23,44067
 247,06; 1870,952;  173,346; 7239,251;24,02532
 247,66; 1921,780;  175,962; 7345,911;24,34911
 248,26; 2051,095;  206,269; 7426,757;25,54987
 248,86; 2109,142;  191,654; 7645,928;25,72334
 249,46; 2150,928;  146,577; 7907,598;25,82587
 250,05; 2344,674;  190,269; 8311,619;26,52767
 250,65; 2418,201;  153,423; 8633,197;26,70800
 251,25; 2598,864;  171,962; 9141,457;27,05729
 251,85; 2785,486;  170,885; 9627,836;27,64740
 252,44; 2961,775;  144,808;10290,197;27,76599
 253,04; 3226,645;  191,269;11056,016;27,93784
 253,64; 3434,704;  139,962;11781,817;28,30084
 254,24; 3741,579;  194,731;12753,506;28,24199
 254,84; 4007,159;  171,346;13701,290;28,35054
 255,43; 4288,527;  182,346;14745,393;28,19589
 256,03; 4595,065;  180,423;15726,694;28,39679
 256,63; 4930,693;  172,577;16777,635;28,65462
 257,23; 5182,521;  156,423;17678,524;28,68434
 257,82; 5483,841;  182,115;18683,692;28,65553
 258,42; 5682,404;  144,577;19470,350;28,65514
 259,02; 6010,680;  188,654;20408,779;28,79323
 259,62; 6199,463;  166,731;21227,235;28,64477
 260,21; 6377,953;  173,577;21700,167;28,82192
 260,81; 6515,295;  171,423;22238,712;28,74785
 261,41; 6582,492;  151,577;22766,146;28,43705
 262,01; 6741,185;  212,423;23282,445;28,29977
 262,60; 6732,521;  165,192;23627,754;27,99067
 263,20; 6877,249;  171,654;23933,216;28,22034
 263,80; 6931,913;  202,346;24178,746;28,06746
 264,40; 6873,274;  162,885;24506,470;27,56533
 264,99; 6855,167;  185,192;24597,638;27,32203
 265,59; 6832,748;  169,962;24750,016;27,10647
 266,19; 6828,777;  169,423;24877,551;26,95208
 266,78; 6816,262;  199,654;25111,361;26,56024
 267,38; 6731,535;  192,038;25081,439;26,27422
 267,98; 6676,067;  170,654;25055,971;26,14157
 268,58; 6650,334;  189,115;25099,729;25,93761
 269,17; 6572,494;  164,269;25101,731;25,69718
 269,77; 6465,427;  183,192;24914,407;25,40205
 270,37; 6329,972;  159,115;24814,247;25,02869
 270,96; 6261,818;  202,115;24738,414;24,69689
 271,56; 6084,799;  174,885;24422,386;24,37329
 272,16; 5962,386;  173,577;24236,163;24,05730
 272,75; 5878,060;  181,962;24253,436;23,66327
 273,35; 5801,433;  182,346;24217,954;23,37818
 273,95; 5685,540;  183,962;24113,241;22,99099
 274,54; 5641,633;  160,500;24177,459;22,82193
 275,14; 5686,983;  184,038;24551,286;22,58337
 275,74; 5596,303;  151,115;24636,228;22,23877
 276,33; 5640,356;  192,808;25057,265;21,90898
 276,93; 5651,958;  182,962;25419,497;21,67095
 277,53; 5680,396;  172,731;25939,208;21,37531
 278,12; 5771,385;  157,808;26549,484;21,27026
 278,72; 5861,781;  197,423;27036,823;21,10464
 279,32; 5917,550;  176,500;27638,360;20,90554
 279,91; 5992,764;  153,038;28385,629;20,68434
 280,51; 6080,870;  177,269;28964,002;20,50806
 281,11; 6223,870;  175,346;29611,535;20,54792
 281,70; 6209,953;  154,346;30149,776;20,18843
 282,30; 6381,030;  164,654;30724,079;20,34193
 282,90; 6401,728;  164,038;31099,244;20,16373
 283,49; 6571,143;  191,038;31658,220;20,27542
 284,09; 6718,332;  197,346;32141,071;20,41398
 284,69; 6714,154;  197,962;32410,566;20,22870
 285,28; 6798,083;  192,731;32713,804;20,31099
 285,88; 6943,392;  216,885;33022,175;20,50434
 286,47; 6888,326;  175,885;33040,747;20,42437
 287,07; 6976,456;  203,115;33209,939;20,52103
 287,67; 7089,135;  191,731;33227,393;20,87866
 288,26; 7110,698;  168,731;33261,270;20,97744
 288,86; 7210,480;  174,192;33178,675;21,31919
 289,46; 7377,184;  175,038;33425,470;21,66031
 290,05; 7470,230;  165,346;33465,267;21,93664
 290,65; 7627,255;  181,423;33691,372;22,21977
 291,24; 7785,172;  179,885;33790,296;22,62777
 291,84; 7947,231;  195,192;33940,866;22,97195
 292,44; 8099,745;  177,577;34099,844;23,35389
 293,03; 8303,533;  233,962;34218,710;23,74468
 293,63; 8441,220;  175,192;34392,765;24,15726
 294,22; 8579,740;  204,500;34567,197;24,37306
 294,82; 8626,824;  178,654;34475,494;24,63250
 295,41; 8576,030;  157,038;34206,853;24,72551
 296,01; 8691,244;  212,346;34142,416;24,98933
 296,61; 8709,592;  188,192;33924,443;25,25888
 297,20; 8530,321;  186,808;33479,263;25,06127
 297,80; 8598,840;  193,885;33355,335;25,34556
 298,39; 8526,101;  165,346;32937,221;25,51198
 298,99; 8454,019;  182,577;32776,047;25,37760
 299,58; 8403,769;  183,731;32564,734;25,38537
 300,18; 8347,828;  210,038;32367,463;25,30610
 300,78; 8229,651;  168,500;32039,565;25,29301
 301,37; 8202,162;  190,808;32069,394;25,13083
 301,97; 8256,829;  184,731;32099,529;25,29265
 302,56; 8172,758;  173,577;32028,071;25,11162
 303,16; 8159,794;  169,500;32023,062;25,08446
 303,75; 8158,917;  186,577;32042,022;25,02662
 304,35; 8260,650;  166,038;32181,044;25,28380
 304,94; 8213,994;  179,808;32172,938;25,11222
 305,54; 8245,284;  200,577;32176,138;25,15892
 306,13; 8174,017;  148,192;32032,317;25,17185
 306,73; 8142,520;  158,731;31845,702;25,19581
 307,33; 8189,437;  197,038;31844,380;25,25457
 307,92; 8289,965;  181,423;31842,574;25,61038
 308,52; 8353,581;  162,269;32376,636;25,42751
 309,11; 8493,374;  177,962;32817,982;25,47612
 309,71; 8652,747;  167,038;33109,877;25,75889
 310,30; 8710,290;  159,731;33236,224;25,85086
 310,90; 8880,982;  185,500;33657,455;25,97841
 311,49; 8963,491;  171,423;33826,856;26,12377
 312,09; 9057,414;  152,654;34043,096;26,27514
 312,68; 9262,917;  212,115;34361,328;26,50369
 313,28; 9308,272;  160,192;34513,882;26,62910
 313,87; 9393,408;  151,115;34608,998;26,82200
 314,47; 9561,575;  168,577;34826,849;27,10175
 315,06; 9689,698;  154,654;35044,811;27,32875
 315,66; 9844,491;  163,500;35269,404;27,57653
 316,25; 9850,592;  150,808;34996,738;27,83621
 316,85; 9961,378;  144,115;35097,641;28,08662
 317,44;10066,534;  166,269;35279,072;28,19560
 318,04;10162,699;  153,500;35247,416;28,52118
 318,63;10285,467;  147,192;35260,288;28,87320
 319,22;10406,291;  171,654;35497,982;28,97170
 319,82;10531,249;  167,192;35447,366;29,37643
 320,41;10663,196;  181,808;35402,101;29,75951
 321,01;10755,213;  178,269;35423,385;30,00967
 321,60;10859,261;  172,577;35509,159;30,24255
 322,20;10949,746;  168,269;35551,521;30,47056
 322,79;11159,953;  194,500;35612,551;30,96007
 323,39;11270,887;  165,269;35640,824;31,30499
 323,98;11315,976;  162,423;35611,523;31,46357
 324,58;11443,374;  159,731;35507,991;31,92135
 325,17;11505,551;  164,423;35274,887;32,30128
 325,76;11573,651;  193,808;35144,329;32,55987
 326,36;11624,757;  146,731;34762,320;33,15855
 326,95;11690,551;  186,577;34398,048;33,62607
 327,55;11659,415;  156,577;34057,004;33,93125
 328,14;11699,224;  150,885;33691,567;34,43084
 328,74;11695,356;  194,962;33252,112;34,78943
 329,33;11750,000;  180,654;32756,420;35,51519
 329,92;11674,309;  156,346;32223,853;35,91786
 330,52;11564,999;  177,808;31630,810;36,20383
 331,11;11498,746;  169,577;31175,745;36,53844
 331,71;11456,764;  173,808;30580,399;37,10694
 332,30;11396,917;  191,500;30132,092;37,42550
 332,89;11400,893;  211,808;29601,975;38,07085
 333,49;11221,420;  180,577;29070,403;38,21707
 334,08;11124,083;  173,654;28700,572;38,38630
 334,68;11137,539;  169,962;28175,868;39,16166
 335,27;11160,183;  184,885;27899,410;39,60125
 335,86;11148,054;  210,192;27655,591;39,85317
 336,46;11219,271;  193,115;27396,127;40,53285
 337,05;11234,622;  164,731;27230,573;40,89986
 337,65;11253,101;  162,731;27034,608;41,27129
 338,24;11428,059;  218,962;27080,226;41,72960
 338,83;11537,509;  198,885;26935,049;42,40931
 339,43;11602,297;  161,731;26876,070;42,82556
 340,02;11705,841;  161,038;26844,927;43,26507
 340,61;11900,982;  165,038;26857,687;43,96695
 341,21;11967,971;  199,500;26897,728;44,07960
 341,80;12091,882;  168,192;26766,016;44,82957
 342,40;12330,218;  178,808;26944,325;45,39950
 342,99;12509,816;  169,115;27100,513;45,82273
 343,58;12729,538;  166,962;27219,650;46,43744
 344,18;12894,307;  182,423;27366,421;46,76238
 344,77;13214,847;  154,500;27598,630;47,58885
 345,36;13530,320;  156,885;28008,355;48,01698
 345,96;13837,970;  199,731;28273,361;48,58025
 346,55;14116,668;  156,885;28512,771;49,23064
 347,14;14441,366;  159,654;28927,314;49,64503
 347,74;14821,413;  142,269;29353,274;50,25210
 348,33;15280,762;  166,577;29983,124;50,69059
 348,92;15767,400;  181,423;30668,026;51,12402
 349,52;16200,099;  144,808;31141,726;51,79641
 350,11;16431,385;  162,269;31290,860;52,26422
 350,70;16566,527;  168,808;31340,391;52,60470
 351,29;16578,600;  154,731;31139,804;53,00574
 351,89;16811,197;  182,885;31082,858;53,81335
 352,48;16933,148;  150,962;31065,171;54,28632
 353,07;17032,171;  178,192;31061,464;54,57316
 353,67;17090,501;  187,962;31072,844;54,72755
 354,26;17076,621;  178,192;30734,438;55,30270
 354,85;17140,680;  172,038;30678,630;55,62287
 355,45;17197,143;  145,115;30396,381;56,36798
 356,04;17188,248;  168,192;30312,157;56,46256
 356,63;17290,486;  202,885;30175,072;57,01152
 357,22;17306,209;  173,731;29950,105;57,53715
 357,82;17286,297;  178,423;29870,287;57,61805
 358,41;17340,154;  190,500;29675,411;58,16417
 359,00;17317,013;  167,577;29525,425;58,41517
 359,60;17353,420;  189,577;29497,410;58,56401
 360,19;17367,035;  181,346;29239,656;59,14208
 360,78;17398,746;  186,808;29153,513;59,41973
 361,37;17354,071;  182,423;28860,857;59,87652
 361,97;17423,562;  183,577;28806,611;60,23116
 362,56;17226,036;  157,269;28486,469;60,25150
 363,15;17257,995;  206,423;28210,625;60,88933
 363,74;17148,309;  170,731;27883,625;61,26238
 364,34;16951,125;  198,192;27509,034;61,34169
 364,93;16799,681;  159,192;27082,604;61,80676
 365,52;16581,284;  152,577;26680,822;61,92912
 366,11;16460,498;  172,808;26402,780;62,09572
 366,71;16245,368;  158,423;25936,443;62,40566
 367,30;16137,888;  172,731;25597,107;62,79469
 367,89;16020,331;  203,500;25423,854;62,71455
 368,48;15872,344;  192,192;25166,158;62,78599
 369,07;15607,142;  179,962;24689,775;62,94287
 369,67;15503,309;  180,346;24427,088;63,19596
 370,26;15244,639;  169,346;24088,847;63,02512
 370,85;15196,568;  180,654;23843,928;63,45662
 371,44;15084,497;  176,808;23599,019;63,64766
 372,03;14974,533;  147,500;23372,697;63,84029
 372,63;14758,900;  150,808;23094,439;63,66949
 373,22;14589,036;  166,654;22806,023;63,70488
 373,81;14448,468;  141,192;22460,112;64,10380
 374,40;14285,171;  168,962;22231,229;63,98349
 374,99;14104,953;  163,423;21964,388;63,94914
 375,59;13895,787;  160,423;21639,921;63,94639
 376,18;13897,628;  195,808;21552,968;64,15563
 376,77;13729,858;  183,885;21385,665;63,89074
 377,36;13683,267;  198,423;21377,171;63,67158
 377,95;13552,326;  177,192;21035,822;64,12278
 378,55;13397,982;  164,577;20844,385;63,99191
 379,14;13401,243;  180,885;20816,046;64,06714
 379,73;13308,823;  173,192;20742,202;63,86127
 380,32;13295,586;  179,808;20758,659;63,73426
 380,91;13226,912;  163,731;20626,987;63,83726
 381,50;13141,900;  178,808;20542,120;63,65906
 382,10;13125,278;  158,269;20457,428;63,87954
 382,69;13028,941;  155,115;20419,596;63,52902
 383,28;13016,865;  190,654;20370,974;63,55801
 383,87;12913,971;  166,962;20289,495;63,34694
 384,46;12852,587;  163,038;20098,329;63,65369
 385,05;12832,107;  191,962;20229,150;63,08343
 385,64;12791,113;  171,962;20169,242;63,10434
 386,24;12730,706;  161,346;20096,796;63,05029
 386,83;12820,102;  183,038;20207,818;63,10713
 387,42;12804,226;  189,808;20262,314;62,84426
 388,01;12874,251;  180,577;20564,026;62,27441
 388,60;13057,345;  172,577;20826,076;62,38540
 389,19;13117,677;  160,346;20959,788;62,29653
 389,78;13222,375;  170,115;21232,880;61,96841
 390,37;13537,753;  216,731;21729,423;61,92169
 390,96;13578,463;  177,808;21820,464;61,91779
 391,56;13631,086;  172,346;21984,215;61,70374
 392,15;13815,730;  167,192;22264,900;61,76450
 392,74;13852,998;  151,962;22434,173;61,48867
 393,33;14018,127;  159,192;22691,681;61,50646
 393,92;14222,561;  178,962;23182,903;61,04866
 394,51;14308,654;  164,192;23298,502;61,14062
 395,10;14401,686;  203,192;23474,279;61,01346
 395,69;14470,083;  182,423;23640,999;60,90591
 396,28;14444,190;  193,192;23718,659;60,57690
 396,87;14524,546;  196,962;23793,576;60,71882
 397,46;14563,618;  192,808;23921,394;60,56328
 398,06;14682,448;  199,577;24191,723;60,36505
 398,65;14678,172;  194,962;24250,735;60,20680
 399,24;14746,983;  200,269;24425,885;60,04683
 399,83;14701,904;  177,192;24481,033;59,76303
 400,42;14758,753;  213,654;24594,354;59,65825
 401,01;14796,716;  189,962;24687,506;59,62538
 401,60;14860,112;  198,423;24757,495;59,69968
 402,19;14738,654;  224,192;24675,494;59,36069
 402,78;14668,850;  233,346;24669,751;59,07376
 403,37;14548,525;  219,192;24545,357;58,90502
 403,96;14477,550;  210,500;24369,797;59,05408
 404,55;14370,356;  227,423;24315,474;58,71348
 405,14;14238,671;  200,885;24176,646;58,54991
 405,73;14105,118;  221,038;24017,900;58,34416
 406,32;14059,810;  224,500;23938,473;58,34244
 406,91;13850,609;  223,731;23678,165;58,09937
 407,50;13755,027;  217,885;23458,314;58,24824
 408,09;13563,141;  208,423;23197,340;58,09199
 408,68;13443,688;  221,269;23125,012;57,73038
 409,27;13332,040;  200,192;22901,995;57,84496
 409,86;13163,645;  204,962;22684,541;57,64647
 410,45;13143,321;  252,500;22717,906;57,38076
 411,04;12976,748;  248,192;22594,854;56,95954
 411,63;12813,033;  239,500;22354,466;56,85531
 412,22;12617,181;  244,808;22046,718;56,74903
 412,81;12446,736;  244,038;21829,481;56,53207
 413,40;12303,656;  249,885;21506,218;56,70673
 413,99;12046,213;  293,654;21279,086;56,00342
 414,58;11729,479;  228,731;20860,935;55,74173
 415,17;11560,369;  228,038;20574,901;55,69571
 415,76;11507,158;  230,269;20479,744;55,68978
 416,35;11272,346;  208,115;20292,758;55,08801
 416,94;11270,767;  257,038;20381,895;54,72699
 417,53;11334,227;  240,038;20620,005;54,43673
 418,12;11324,262;  229,038;20699,315;54,20163
 418,71;11546,911;  258,654;21009,266;54,39963
 419,30;11522,646;  239,038;21115,781;54,04870
 419,89;11513,782;  225,115;21325,907;53,49878
 420,48;11659,568;  256,038;21608,811;53,40538
 421,07;11694,248;  246,500;21657,564;53,46650
 421,66;11653,974;  213,654;21694,041;53,25938
 422,25;11590,233;  230,731;21640,523;53,05751
 422,84;11477,516;  260,346;21648,714;52,44519
 423,43;11371,091;  246,577;21326,230;52,77371
 424,02;11228,156;  262,423;21026,906;52,81004
 424,60;10869,721;  233,885;20579,320;52,27628
 425,19;10658,942;  240,269;20367,811;51,76326
 425,78;10656,143;  253,500;20225,370;52,08647
 426,37;10460,645;  268,500;20185,854;51,17218
 426,96;10300,739;  241,577;20030,582;50,83208
 427,55;10217,111;  226,500;19881,046;50,83104
 428,14;10058,933;  216,115;19635,934;50,68439
 428,73; 9969,875;  243,346;19428,255;50,69885
 429,32; 9913,574;  253,808;19467,248;50,27609
 429,91; 9883,591;  268,500;19446,765;50,13535
 430,50; 9767,471;  264,654;19259,311;50,02890
 431,08; 9670,767;  275,038;19128,378;49,83588
 431,67; 9612,310;  307,577;19098,864;49,51621
 432,26; 9568,487;  330,192;18834,846;49,92417
 432,85; 9297,339;  345,115;18517,623;49,26246
 433,44; 9111,126;  353,038;18154,677;49,19821
 434,03; 8883,030;  366,654;17737,743;49,02615
 434,62; 8627,788;  315,731;17372,696;48,73116
 435,21; 8525,600;  332,808;17199,685;48,57326
 435,79; 8398,509;  338,423;17040,077;48,25921
 436,38; 8371,478;  330,731;16915,580;48,48249
 436,97; 8246,508;  326,423;16833,796;47,97907
 437,56; 8105,062;  324,115;16596,252;47,81761
 438,15; 8041,110;  302,269;16520,645;47,71650
 438,74; 8018,903;  317,038;16594,542;47,31600
 439,33; 7983,802;  282,269;16637,952;47,08781
 439,91; 7993,991;  251,423;16603,577;47,34892
 440,50; 7950,417;  304,500;16674,662;46,70642
 441,09; 7986,516;  296,962;16796,960;46,60337
 441,68; 7952,367;  275,885;16823,839;46,38932
 442,27; 7917,918;  270,192;16806,084;46,24925
 442,86; 7916,147;  247,885;16803,744;46,31751
 443,44; 7887,242;  264,808;16870,232;45,90328
 444,03; 7904,306;  305,808;16863,372;45,89140
 444,62; 7816,744;  261,808;16724,325;45,89174
 445,21; 7689,170;  279,654;16509,095;45,65479
 445,80; 7638,583;  297,423;16452,409;45,44207
 446,39; 7509,394;  311,577;16239,180;45,19084
 446,97; 7330,020;  260,885;16007,154;44,89403
 447,56; 7242,031;  249,346;15756,045;45,09461
 448,15; 7162,056;  268,962;15634,610;44,86042
 448,74; 7014,896;  283,577;15353,447;44,66740
 449,33; 6869,806;  275,423;15234,745;44,08210
 449,91; 6792,586;  275,731;14981,562;44,31477
 450,50; 6663,462;  259,038;14769,309;44,13718
 451,09; 6575,296;  283,962;14666,365;43,74328
 451,68; 6540,260;  304,423;14631,535;43,52473
 452,26; 6508,106;  286,885;14510,161;43,73972
 452,85; 6394,118;  275,423;14440,024;43,19709
 453,44; 6400,879;  290,038;14420,890;43,24468
 454,03; 6325,289;  270,962;14396,457;42,86099
 454,61; 6297,163;  257,962;14329,230;42,91867
 455,20; 6352,133;  300,577;14583,181;42,37012
 455,79; 6328,040;  292,731;14596,204;42,19471
 456,38; 6292,393;  292,885;14623,027;41,86635
 456,97; 6331,612;  282,962;14682,383;42,00620
 457,55; 6313,570;  275,423;14642,160;42,02866
 458,14; 6286,807;  304,192;14650,077;41,70266
 458,73; 6202,931;  290,500;14569,499;41,40648
 459,31; 6214,273;  326,654;14623,436;41,18143
 459,90; 6223,173;  315,038;14745,224;40,94288
 460,49; 6255,664;  344,654;14814,739;40,84987
 461,08; 6235,420;  276,115;14869,819;40,83477
 461,66; 6186,805;  288,500;15002,885;40,08530
 462,25; 6219,869;  292,346;15087,958;40,06271
 462,84; 6262,627;  318,269;15062,158;40,31744
 463,43; 6171,987;  260,192;15007,447;40,08742
 464,01; 6165,525;  298,500;15034,302;39,81476
 464,60; 6123,969;  328,500;14994,096;39,51745
 465,19; 6022,169;  270,423;14778,213;39,64592
 465,77; 5929,553;  291,269;14693,454;39,14881
 466,36; 5947,779;  316,500;14609,032;39,40015
 466,95; 5757,904;  295,269;14254,822;39,13187
 467,53; 5646,985;  293,731;13964,023;39,15976
 468,12; 5546,304;  327,115;13707,665;39,00579
 468,71; 5411,424;  303,423;13520,801;38,64609
 469,29; 5278,091;  289,192;13215,549;38,59478
 469,88; 5181,132;  285,731;12971,948;38,58834
 470,47; 5242,995;  344,192;13156,156;38,23616
 471,06; 5155,024;  293,423;13102,523;37,95428
 471,64; 5153,421;  311,038;13185,542;37,61219
 472,23; 5168,449;  276,269;13233,945;37,75507
 472,81; 5166,491;  292,808;13358,857;37,30036
 473,40; 5163,330;  285,038;13534,247;36,81949
 473,99; 5282,762;  372,500;13625,112;37,05128
 474,57; 5230,301;  296,346;13821,726;36,47923
 475,16; 5283,562;  300,269;13958,618;36,48532
 475,75; 5259,566;  318,885;14022,272;36,05446
 476,33; 5324,122;  321,192;14161,476;36,14759
 476,92; 5283,721;  332,115;14214,263;35,66887
 477,51; 5276,033;  320,038;14247,446;35,58448
 478,09; 5280,282;  330,038;14237,712;35,59361
 478,68; 5230,234;  321,192;14190,008;35,39626
 479,27; 5231,495;  339,038;14340,592;34,94224
 479,85; 5144,305;  324,654;14312,072;34,45705
 480,44; 5166,382;  309,192;14442,464;34,36706
 481,02; 5562,955;  313,962;16237,470;32,96380
 481,61; 6160,742;  334,577;18065,654;32,85850
 482,20; 6494,458;  346,192;19261,169;32,50475
 482,78; 6695,518;  370,269;20017,502;32,19409
 483,37; 6884,498;  364,577;20535,348;32,32361
 483,95; 6997,338;  374,038;20726,878;32,54239
 484,54; 7025,382;  385,115;20918,545;32,33881
 485,13; 6912,580;  348,346;20788,995;32,11363
 485,71; 6801,859;  351,962;20577,622;31,88967
 486,30; 6712,953;  372,885;20234,658;31,92096
 486,88; 6612,681;  402,346;19772,426;32,06148
 487,47; 6382,947;  403,500;19052,270;32,06349
 488,05; 6080,124;  365,808;18095,940;32,22941
 488,64; 5643,727;  367,269;16734,931;32,23709
 489,23; 5074,295;  387,115;14659,210;32,84157
 489,81; 4451,840;  387,500;12725,996;32,94032
 490,40; 4170,952;  346,654;12241,916;32,14976
 490,98; 4095,378;  328,654;12004,774;32,26006
 491,57; 3987,508;  365,654;11997,638;31,13703
 492,15; 3949,117;  334,654;11876,102;31,31724
 492,74; 3891,787;  339,192;11739,805;31,16143
 493,32; 3859,200;  347,808;11723,726;30,86689
 493,91; 3832,726;  321,654;11586,405;31,16866
 494,50; 3762,648;  336,500;11527,354;30,61561
 495,08; 3713,009;  314,654;11498,998;30,38493
 495,67; 3697,827;  345,962;11453,143;30,17746
 496,25; 3629,223;  285,038;11338,258;30,25529
 496,84; 3600,442;  299,808;11302,603;29,99815
 497,42; 3592,264;  296,192;11254,423;30,07850
 498,01; 3558,779;  323,269;11204,050;29,73601
 498,59; 3485,701;  284,346;11152,763;29,45558
 499,18; 3451,844;  290,038;11067,644;29,33681
 499,76; 3431,649;  300,423;11015,880;29,22158
 500,35; 3347,760;  297,654;10782,586;29,09038
 500,93; 3303,926;  290,269;10803,209;28,66617
 501,52; 3252,737;  293,038;10691,218;28,46362
 502,10; 3251,428;  293,885;10684,011;28,46494
 502,69; 3175,641;  282,731;10497,599;28,32058
 503,27; 3105,293;  264,423;10357,876;28,14567
 503,86; 3092,238;  286,731;10238,483;28,19109
 504,44; 3035,049;  267,654;10168,421;27,95132
 505,03; 2935,072;  251,500; 9868,622;27,90411
 505,61; 2894,025;  272,654; 9744,293;27,67600
 506,19; 2847,321;  289,500; 9634,888;27,36987
 506,78; 2765,308;  249,731; 9435,422;27,38582
 507,36; 2725,309;  269,115; 9220,863;27,43815
 507,95; 2655,379;  275,885; 9106,111;26,94715
 508,53; 2636,858;  262,423; 9018,291;27,11822
 509,12; 2605,290;  271,885; 8835,469;27,24800
 509,70; 2554,396;  288,192; 8699,609;26,94200
 510,29; 2507,473;  292,654; 8553,080;26,81240
 510,87; 2417,965;  253,269; 8342,965;26,75868
 511,46; 2369,184;  267,885; 8182,792;26,54862
 512,04; 2329,349;  267,192; 8088,826;26,36478
 512,62; 2271,740;  270,962; 7935,905;26,10298
 513,21; 2231,579;  250,962; 7716,140;26,53141
 513,79; 2197,270;  266,654; 7617,093;26,26532
 514,38; 2120,158;  242,423; 7468,781;25,98453
 514,96; 2121,992;  287,577; 7364,448;25,92128
 515,54; 2045,365;  240,731; 7239,431;25,78528
 516,13; 2034,371;  264,885; 7121,291;25,80778
 516,71; 1974,258;  257,423; 7055,155;25,25599
 517,30; 1941,588;  241,500; 6876,059;25,62474
 517,88; 1937,914;  270,885; 6839,248;25,37968
 518,46; 1865,564;  252,192; 6701,170;25,01749
 519,05; 1857,020;  250,115; 6656,705;25,08205
 519,63; 1850,937;  261,269; 6602,304;25,06953
 520,22; 1808,362;  278,885; 6527,944;24,47532
 520,80; 1792,735;  262,038; 6453,768;24,72163
 521,38; 1779,599;  286,500; 6409,559;24,38486
 521,97; 1739,959;  254,731; 6418,688;24,09537
 522,55; 1733,042;  277,808; 6375,545;23,86515
 523,13; 1703,562;  254,038; 6394,209;23,60723
 523,72; 1699,967;  255,808; 6373,128;23,60771
 524,30; 1730,467;  283,962; 6483,181;23,33367
 524,89; 1710,717;  248,500; 6512,512;23,34313
 525,47; 1740,438;  265,192; 6650,126;23,10510
 526,05; 1701,852;  240,269; 6681,649;22,69052
 526,64; 1753,224;  278,346; 6804,861;22,59825
 527,22; 1756,858;  277,423; 6939,889;22,20551
 527,80; 1794,556;  308,269; 7078,907;21,95194
 528,39; 1775,892;  260,654; 7158,435;21,96704
 528,97; 1772,615;  276,731; 7323,336;21,22843
 529,55; 1800,148;  281,346; 7490,150;21,06871
 530,14; 1869,454;  287,808; 7755,564;21,17968
 530,72; 1827,094;  275,192; 7793,834;20,64072
 531,30; 1823,212;  247,192; 7946,773;20,46890
 531,89; 1853,857;  275,500; 8033,216;20,34563
 532,47; 1889,578;  297,423; 8136,818;20,30967
 533,05; 1875,922;  286,808; 8142,718;20,22827
 533,63; 1883,217;  295,269; 8185,637;20,12514
 534,22; 1878,211;  281,962; 8260,549;20,00667
 534,80; 1903,832;  303,038; 8357,574;19,87444
 535,38; 1965,501;  371,269; 8428,816;19,78558
 535,97; 1879,182;  271,500; 8438,180;19,68587
 536,55; 1925,151;  335,500; 8436,984;19,62173
 537,13; 1912,312;  337,962; 8424,050;19,46987
 537,71; 1935,863;  398,115; 8497,302;18,98644
 538,30; 1948,649;  405,038; 8573,814;18,89647
 538,88; 1968,352;  456,269; 8638,626;18,47979
 539,46; 2020,530;  504,423; 8857,816;18,14960
 540,05; 2062,062;  515,731; 9022,196;18,17831
 540,63; 2090,382;  579,038; 9196,528;17,53809
 541,21; 2129,186;  607,192; 9335,299;17,43785
 541,79; 2157,600;  625,577; 9481,666;17,29910
 542,38; 2201,459;  669,500; 9671,679;17,01764
 542,96; 2226,706;  683,731; 9754,889;17,00969
 543,54; 2228,452;  709,808;10000,676;16,34556
 544,12; 2229,062;  663,962;10109,591;16,56957
 544,70; 2245,606;  647,346;10233,843;16,67199
 545,29; 2277,962;  651,115;10370,917;16,73745
 545,87; 2275,831;  614,500;10354,743;17,05636
 546,45; 2192,400;  582,038;10386,253;16,42519
 547,03; 2179,127;  558,654;10467,715;16,35345
 547,62; 2219,364;  530,962;10653,348;16,67988
 548,20; 2261,973;  538,115;10779,728;16,83189
 548,78; 2230,871;  486,423;10925,398;16,71091
 549,36; 2234,900;  453,962;11155,455;16,64197
 549,94; 2180,417;  422,346;11245,765;16,24321
 550,53; 2244,865;  424,885;11498,226;16,43569
 551,11; 2226,557;  394,577;11672,315;16,24421
 551,69; 2282,557;  396,115;11948,922;16,32886
 552,27; 2270,297;  365,038;12236,161;16,04953
 552,85; 2315,078;  377,423;12632,125;15,81152
 553,44; 2361,516;  353,346;12964,685;15,92353
 554,02; 2399,859;  376,269;13292,914;15,66653
 554,60; 2376,752;  322,885;13590,015;15,48087
 555,18; 2436,930;  353,038;13980,822;15,29149
 555,76; 2473,883;  330,654;14322,884;15,31728
 556,34; 2511,899;  341,885;14749,859;15,06121
 556,93; 2565,859;  336,885;15172,681;15,02430
 557,51; 2578,041;  322,192;15452,758;14,90922
 558,09; 2652,096;  341,731;15818,308;14,92814
 558,67; 2701,970;  333,577;16272,778;14,85892
 559,25; 2751,509;  342,346;16498,620;14,91162
 559,83; 2762,958;  321,346;16792,069;14,82395
 560,41; 2774,355;  321,654;17089,920;14,62704
 561,00; 2822,940;  324,808;17544,950;14,50704
 561,58; 2852,272;  325,115;17802,215;14,45982
 562,16; 2858,243;  310,808;18089,765;14,32837
 562,74; 2865,007;  296,500;18466,364;14,13608
 563,32; 2959,940;  296,885;18901,956;14,31360
 563,90; 3025,224;  319,500;19225,980;14,31110
 564,48; 3046,349;  331,115;19715,059;14,00765
 565,06; 3113,722;  309,808;20302,203;14,02490
 565,65; 3211,306;  332,962;21053,394;13,89133
 566,23; 3327,934;  375,808;21763,708;13,80279
 566,81; 3377,106;  320,731;22534,276;13,75906
 567,39; 3503,585;  323,731;23391,095;13,78508
 567,97; 3605,929;  337,654;24075,923;13,76796
 568,55; 3752,289;  340,192;24940,500;13,87014
 569,13; 3784,384;  319,269;25716,915;13,64345
 569,71; 3910,533;  326,115;26523,806;13,68219
 570,29; 4066,202;  360,423;27524,520;13,64219
 570,87; 4129,125;  351,038;28246,294;13,54383
 571,45; 4237,550;  349,731;28940,168;13,59832
 572,03; 4255,295;  309,500;29319,672;13,60142
 572,61; 4314,786;  318,346;30091,570;13,42293
 573,20; 4449,846;  343,577;30802,984;13,48112
 573,78; 4486,964;  334,885;31392,619;13,36891
 574,36; 4573,165;  345,731;31858,325;13,41506
 574,94; 4660,697;  390,346;32171,479;13,43675
 575,52; 4645,288;  344,423;32508,833;13,37150
 576,10; 4771,046;  398,038;33097,726;13,37324
 576,68; 4796,147;  384,346;33670,068;13,25433
 577,26; 4862,163;  404,423;34392,207;13,11571
 577,84; 4930,780;  419,192;34817,019;13,11591
 578,42; 5014,857;  456,192;35116,188;13,15252
 579,00; 4966,526;  402,808;35219,589;13,10781
 579,58; 5037,815;  433,500;35475,101;13,13957
 580,16; 5004,342;  407,346;35395,084;13,13888
 580,74; 5038,519;  416,577;35642,363;13,12091
 581,32; 4995,413;  421,423;35722,222;12,95719
 581,90; 4955,454;  440,731;35659,616;12,81904
 582,48; 4967,827;  437,346;35790,362;12,81498
 583,06; 4992,673;  442,038;35917,433;12,82758
 583,64; 4980,650;  434,962;35964,923;12,79396
 584,22; 4933,270;  443,577;35726,262;12,72492
 584,80; 4898,768;  456,269;35520,473;12,66961
 585,38; 4812,686;  453,577;35051,432;12,59936
 585,96; 4803,472;  428,115;35327,639;12,53701
 586,54; 4802,051;  443,962;35329,283;12,49262
 587,12; 4766,667;  409,500;35514,893;12,41167
 587,70; 4799,650;  442,269;35567,765;12,40518
 588,28; 4762,803;  419,808;35550,241;12,36249
 588,86; 4782,986;  432,269;35756,535;12,31651
 589,44; 4750,613;  415,192;35741,883;12,27236
 590,02; 4785,991;  417,038;35957,790;12,29280
 590,59; 4769,702;  387,115;36167,431;12,24860
 591,17; 4823,931;  390,885;36466,616;12,28817
 591,75; 4769,878;  384,808;36467,884;12,15271
 592,33; 4839,701;  393,962;36730,062;12,23505
 592,91; 4811,511;  353,115;37037,925;12,15325
 593,49; 4837,179;  358,654;37303,963;12,12204
 594,07; 4860,677;  363,423;37459,341;12,12331
 594,65; 4833,530;  387,654;37510,166;11,97623
 595,23; 4912,826;  376,423;37928,304;12,08036
 595,81; 4906,376;  362,731;38015,640;12,06718
 596,39; 4912,891;  363,577;38176,593;12,03108
 596,97; 4910,464;  354,192;38384,908;11,98050
 597,55; 4935,080;  367,577;38254,886;12,05550
 598,12; 4879,730;  332,577;38262,299;11,98836
 598,70; 4905,138;  341,577;38486,106;11,96387
 599,28; 4961,748;  361,500;38511,633;12,05827
 599,86; 4924,209;  346,500;38552,862;11,98154
 600,44; 4943,470;  321,962;38576,311;12,08100
 601,02; 4976,622;  373,500;38749,100;11,99492
 601,60; 4965,151;  341,038;38697,659;12,05558
 602,18; 4967,984;  329,346;38785,576;12,06212
 602,75; 4928,198;  328,269;38803,283;11,95563
 603,33; 4959,487;  337,731;38876,651;11,99244
 603,91; 4936,528;  334,269;38762,903;11,97612
 604,49; 4982,316;  354,500;39019,770;11,96892
 605,07; 4997,707;  367,115;38929,309;12,00811
 605,65; 4980,966;  372,500;39057,384;11,91284
 606,23; 5065,105;  441,654;39162,772;11,94039
 606,80; 5047,536;  484,038;39179,650;11,79332
 607,38; 5039,688;  532,346;39252,605;11,64078
 607,96; 5086,879;  585,731;39311,182;11,62323
 608,54; 5115,842;  650,346;39361,750;11,53535
 609,12; 5107,376;  648,808;39457,869;11,48847
 609,70; 5156,482;  681,731;39456,329;11,54042
 610,27; 5122,376;  698,346;39510,790;11,39848
 610,85; 5159,091;  715,269;39531,316;11,44841
 611,43; 5214,038;  724,269;39489,366;11,58199
 612,01; 5172,541;  691,885;39247,438;11,62130
 612,59; 5150,612;  666,346;39372,282;11,58547
 613,16; 5094,856;  630,962;39262,357;11,55509
 613,74; 5097,481;  587,346;39180,255;11,68644
 614,32; 5114,801;  558,038;39119,207;11,81697
 614,90; 5086,565;  505,654;39002,028;11,89959
 615,48; 5057,412;  452,269;38679,472;12,04677
 616,05; 5015,643;  442,038;38711,468;11,95107
 616,63; 5036,797;  435,962;38426,617;12,11044
 617,21; 5007,352;  430,500;38429,589;12,04464
 617,79; 5006,755;  412,269;38349,321;12,11081
 618,36; 5005,044;  436,038;38212,522;12,09484
 618,94; 4921,737;  359,577;37842,202;12,17140
 619,52; 4916,755;  386,269;37594,074;12,17617
 620,10; 4926,725;  379,346;37596,029;12,21866
 620,67; 4889,637;  376,654;37423,836;12,18172
 621,25; 4952,819;  389,346;37387,458;12,33434
 621,83; 4916,838;  382,731;37283,018;12,28746
 622,41; 4942,140;  415,808;37245,313;12,28996
 622,98; 4915,294;  381,500;37057,687;12,36168
 623,56; 4905,211;  374,269;37060,904;12,35039
 624,14; 4928,411;  372,038;36896,492;12,47485
 624,72; 4915,435;  366,423;36805,059;12,48404
 625,29; 4907,513;  338,731;36811,585;12,52653
 625,87; 4963,033;  386,654;36768,570;12,57872
 626,45; 4927,963;  346,808;36602,712;12,63561
 627,02; 4889,956;  359,962;36497,571;12,53540
 627,60; 4918,813;  341,269;36387,766;12,69900
 628,18; 4913,376;  321,038;36548,946;12,67624
 628,76; 4921,010;  322,731;36569,121;12,68617
 629,33; 4948,388;  359,808;36454,192;12,71273
 629,91; 4960,264;  343,423;36571,106;12,74396
 630,49; 5033,294;  350,346;36709,000;12,87987
 631,06; 5015,211;  349,731;36822,755;12,79159
 631,64; 5061,679;  343,808;36825,530;12,93215
 632,22; 5047,744;  304,885;36673,961;13,04091
 632,79; 5108,738;  339,577;36958,411;13,02379
 633,37; 5108,837;  312,731;37034,338;13,06072
 633,95; 5181,643;  326,577;37104,995;13,20086
 634,52; 5180,317;  313,038;37302,515;13,15855
 635,10; 5205,453;  303,423;37244,330;13,26992
 635,68; 5283,614;  306,269;37506,855;13,37975
 636,25; 5292,544;  297,654;37350,088;13,48060
 636,83; 5321,625;  286,808;37668,813;13,46856
 637,41; 5322,135;  297,346;37698,432;13,43487
 637,98; 5404,543;  328,115;37810,401;13,54354
 638,56; 5441,076;  316,577;37946,227;13,61825
 639,13; 5474,696;  300,500;38049,722;13,70676
 639,71; 5529,868;  329,192;38263,761;13,70959
 640,29; 5447,884;  269,500;37964,487;13,73759
 640,86; 5474,791;  293,423;38153,763;13,68548
 641,44; 5539,929;  281,346;38199,193;13,86836
 642,02; 5555,605;  321,731;38183,930;13,82348
 642,59; 5576,512;  282,346;38318,514;13,91877
 643,17; 5600,188;  290,192;38282,328;13,97657
 643,74; 5634,557;  290,808;38244,219;14,07976
 644,32; 5710,387;  321,577;38250,111;14,20780
 644,89; 5695,678;  313,269;38269,617;14,18052
 645,47; 5722,277;  321,654;38218,124;14,25099
 646,05; 5767,184;  306,885;38210,092;14,40590
 646,62; 5743,245;  293,654;38114,522;14,40895
 647,20; 5765,537;  302,962;38329,721;14,36508
 647,77; 5732,366;  272,808;38130,920;14,42111
 648,35; 5744,581;  266,423;37999,119;14,51833
 648,92; 5818,950;  306,885;38079,088;14,59291
 649,50; 5792,241;  262,115;38039,902;14,63856
 650,08; 5831,379;  265,962;37965,947;14,76239
 650,65; 5862,901;  272,269;38310,762;14,69730
 651,23; 5991,270;  255,423;39231,114;14,71647
 651,80; 6229,715;  277,115;40069,929;14,95898
 652,38; 6330,699;  287,038;40408,436;15,06343
 652,95; 6384,221;  256,885;40720,481;15,14284
 653,53; 6482,666;  282,577;40985,372;15,23259
 654,10; 6571,804;  309,192;41108,802;15,34969
 654,68; 6529,326;  265,731;40947,001;15,39676
 655,25; 6552,849;  262,269;41112,277;15,39921
 655,83; 6594,602;  266,654;41205,245;15,45717
 656,40; 6657,124;  300,423;41075,906;15,58952
 656,98; 6612,954;  271,654;41032,412;15,55737
 657,55; 6647,169;  279,808;40907,458;15,67248
 658,13; 6574,768;  274,808;40464,657;15,67550
 658,70; 6560,136;  295,269;40129,163;15,72748
 659,28; 6425,966;  262,346;39177,132;15,83876
 659,85; 6326,566;  274,038;38537,946;15,81785
 660,43; 6362,319;  290,654;38646,991;15,82963
 661,00; 6380,149;  293,038;38760,729;15,82396
 661,58; 6474,209;  275,885;39129,774;15,95291
 662,15; 6508,501;  262,346;39264,434;16,01492
 662,73; 6653,869;  323,038;39606,710;16,11568
 663,30; 6683,161;  291,808;39815,525;16,17093
 663,88; 6744,375;  279,885;40035,493;16,26058
 664,45; 6782,898;  273,423;40158,846;16,32044
 665,03; 6884,189;  276,731;40622,814;16,37695
 665,60; 7066,096;  333,423;41056,475;16,53283
 666,17; 7038,234;  283,731;41113,597;16,54305
 666,75; 7113,756;  274,885;41549,719;16,56911
 667,32; 7234,355;  298,808;41808,610;16,70822
 667,90; 7267,108;  284,115;42052,040;16,71855
 668,47; 7415,554;  299,885;42370,008;16,91383
 669,05; 7503,768;  271,423;42644,130;17,06841
 669,62; 7486,060;  249,808;42709,329;17,04271
 670,19; 7543,121;  262,192;42779,528;17,12461
 670,77; 7611,412;  273,731;42938,804;17,19833
 671,34; 7660,319;  266,808;42901,849;17,34140
 671,92; 7754,072;  272,500;43237,048;17,41336
 672,49; 7805,518;  295,346;43311,248;17,45906
 673,06; 7799,271;  239,500;43309,754;17,55218
 673,64; 7797,562;  259,115;43204,722;17,55348
 674,21; 7881,931;  251,654;43246,460;17,74697
 674,79; 8035,068;  286,115;43497,428;17,93270
 675,36; 8035,975;  291,192;43619,166;17,87479
 675,93; 8023,036;  253,423;43560,442;17,94077
 676,51; 8129,635;  283,038;43729,871;18,06023
 677,08; 8167,696;  277,885;43754,763;18,14714
 677,65; 8232,295;  278,269;43940,500;18,21718
 678,23; 8316,048;  281,346;44130,161;18,32365
 678,80; 8348,571;  270,885;44373,129;18,31582
 679,38; 8413,093;  266,577;44304,790;18,49874
 679,95; 8514,231;  275,962;44614,296;18,58047
 680,52; 8532,830;  264,192;44900,265;18,52456
 681,10; 8740,352;  278,808;45342,079;18,77703
 681,67; 8831,490;  288,423;45536,970;18,88031
 682,24; 8866,551;  243,808;45571,323;19,02320
 682,82; 8981,457;  257,346;46229,061;18,97713
 683,39; 9167,057;  297,962;46520,952;19,18763
 683,96; 9212,579;  267,731;46722,305;19,25504
 684,54; 9272,178;  243,962;47125,735;19,25741
 685,11; 9417,316;  293,423;47460,472;19,34379
 685,68; 9514,146;  278,346;47742,364;19,45853
 686,25; 9564,053;  249,192;47904,101;19,54649
 686,83; 9664,037;  257,654;48006,992;19,69950
 687,40; 9738,482;  244,577;48348,961;19,73605
 687,97; 9900,312;  288,500;48733,237;19,84078
 688,55; 9948,680;  239,115;48764,743;20,00915
 689,12; 9978,434;  217,654;49038,558;19,99303
 689,69;10076,033;  242,346;49099,680;20,12735
 690,26;10127,401;  259,731;49118,417;20,19635
 690,84;10231,308;  252,423;49439,847;20,28747
 691,41;10334,523;  260,038;49440,354;20,48479
 691,98;10476,583;  262,423;49817,322;20,61181
 692,56;10524,106;  250,115;49900,367;20,69273
 693,13;10587,859;  306,192;49890,259;20,73583
 693,70;10700,843;  271,731;50019,458;20,96400
 694,27;10727,596;  258,423;50213,272;20,95727
 694,84;10831,580;  252,654;50310,548;21,13338
 695,42;10965,717;  300,962;50417,208;21,28004
 695,99;11016,316;  269,654;50645,407;21,33301
 696,56;11055,531;  254,500;50515,453;21,48991
 697,13;11231,592;  267,654;50913,421;21,64828
 697,71;11251,883;  243,577;50972,235;21,70037
 698,28;11341,021;  256,269;51287,357;21,72157
 698,85;11392,851;  225,654;51342,710;21,84632
 699,42;11516,604;  229,731;51554,525;21,99107
 699,99;11632,049;  270,346;51607,339;22,13161
 700,57;11679,495;  262,654;51750,769;22,17374
 701,14;11742,940;  254,808;51804,583;22,28551
 701,71;11866,386;  277,346;51996,090;22,40781
 702,28;11960,908;  260,577;52057,520;22,58884
 702,85;12001,892;  270,731;52204,103;22,58887
 703,43;12126,952;  282,269;52378,302;22,73625
 704,00;12272,398;  293,808;52569,194;22,91440
 704,57;12260,612;  275,269;52546,931;22,92895
 705,14;12371,442;  304,731;52893,284;22,94551
 705,71;12561,503;  318,885;52852,637;23,30429
 706,28;12568,410;  280,962;52672,528;23,45310
 706,86;12752,086;  304,885;53007,112;23,61798
 707,43;12807,224;  325,654;52823,234;23,77552
 708,00;12870,669;  313,654;53015,587;23,82648
 708,57;12923,884;  275,038;52818,401;24,07316
 709,14;13008,329;  316,885;52948,216;24,11386
 709,71;13062,390;  282,346;53138,261;24,17902
 710,28;13182,989;  280,192;53277,152;24,34630
 710,86;13264,281;  279,423;53350,505;24,46692
 711,43;13357,880;  310,577;53411,858;24,57060
 712,00;13450,864;  285,808;53506,057;24,73693
 712,57;13564,848;  302,192;53589,410;24,88900
 713,14;13629,832;  277,885;53697,917;24,99427
 713,71;13703,662;  288,577;53589,270;25,16869
 714,28;13745,184;  268,962;53752,545;25,19693
 714,85;13722,552;  249,423;53429,591;25,33488
 715,42;13857,459;  263,885;53628,328;25,47309
 716,00;14045,828;  320,577;53693,604;25,71571
 716,57;14060,581;  256,885;53922,726;25,72157
 717,14;14113,334;  243,269;53812,310;25,89194
 717,71;14184,164;  235,192;53903,663;25,99100
 718,28;14326,609;  268,577;53911,323;26,20677
 718,85;14345,593;  243,192;53946,215;26,25998
 719,42;14509,961;  271,962;54165,029;26,41898
 719,99;14479,330;  247,346;53946,074;26,50339
 720,56;14632,006;  257,269;54266,812;26,61518
 721,13;14675,682;  253,346;54251,934;26,70873
 721,70;14677,897;  247,192;54074,517;26,80925
 722,27;14874,034;  271,423;54144,178;27,10574
 722,84;15008,480;  309,423;54464,377;27,14259
 723,41;15001,156;  240,500;54436,191;27,23585
 723,98;15126,063;  261,423;54679,160;27,31580
 724,55;15271,662;  275,577;54755,513;27,52589
 725,12;15266,338;  230,115;54644,712;27,63270
 725,69;15406,168;  242,038;54851,834;27,76815
 726,27;15451,921;  260,577;54974,033;27,76528
 726,84;15619,136;  252,423;55210,078;27,96101
 727,41;15734,274;  271,962;55244,431;28,12737
 727,98;15869,642;  270,962;55533,322;28,22659
 728,55;15992,318;  286,500;55444,675;28,47414
 729,12;16058,610;  242,038;55556,259;28,59404
 729,69;16187,517;  271,808;55690,919;28,71881
 730,26;16230,885;  289,500;55942,195;28,64441
 730,82;16251,484;  269,500;55695,933;28,83459
 731,39;16340,776;  265,885;55874,285;28,90731
 731,96;16497,529;  242,115;56214,638;29,04177
 732,53;16660,897;  280,885;56462,760;29,15533
 733,10;16656,574;  281,423;56431,190;29,16335
 733,67;16816,788;  287,346;56770,235;29,26451
 734,24;16766,387;  268,115;56295,896;29,44659
 734,81;16924,140;  294,115;56373,710;29,65432
 735,38;16902,740;  274,500;56148,756;29,76011
 735,95;16945,031;  262,346;56016,416;29,92191
 736,52;17047,938;  287,038;56195,077;29,97941
 737,09;16977,845;  279,808;55860,276;30,04300
 737,66;17245,829;  321,269;56040,705;30,37461
 738,23;17266,274;  268,731;56052,674;30,47032
 738,80;17479,950;  332,500;56347,873;30,61204
 739,37;17555,242;  299,192;56498,687;30,70499
 739,94;17686,841;  280,808;56708,655;30,84653
 740,51;17822,594;  367,885;56626,239;31,02599
 741,07;17868,347;  283,885;56573,515;31,23926
 741,64;17884,716;  311,115;56893,637;31,05835
 742,21;18028,700;  278,654;56898,144;31,34971
 742,78;18061,222;  252,654;56613,574;31,59737
 743,35;18162,744;  276,654;57035,234;31,51258
 743,92;18396,959;  314,038;56995,972;31,90244
 744,49;18432,020;  306,269;56873,940;32,04260
 745,06;18493,542;  280,269;56886,447;32,17542
 745,63;18520,372;  261,654;56945,415;32,21155
 746,19;18585,971;  274,885;57000,845;32,27991
 746,76;18681,570;  281,038;56956,659;32,46640
 747,33;18783,169;  279,577;56968,935;32,64033
 747,90;18904,923;  301,423;57139,980;32,73042
 748,47;18892,983;  290,038;57165,333;32,70830
 749,04;19025,813;  291,808;57131,071;32,95962
 749,61;19090,028;  311,423;57093,039;33,07163
 750,17;19155,550;  282,115;57106,546;33,21359
 750,74;19209,380;  286,423;57024,898;33,35119
 751,31;19214,210;  264,038;56927,174;33,44356
 751,88;19252,886;  257,577;56853,373;33,56311
 752,45;19432,024;  272,192;57005,188;33,77194
 753,02;19409,316;  291,346;56822,002;33,81876
 753,58;19400,530;  272,346;56781,817;33,84952
 754,15;19468,206;  271,346;56886,554;33,90760
 754,72;19512,267;  260,577;56616,522;34,16089
 755,29;19439,789;  271,346;56526,029;34,07440
 755,86;19595,696;  279,346;56682,767;34,24677
 756,42;19649,603;  299,038;56458,350;34,45656
 756,99;19598,741;  241,885;56505,318;34,40397
 757,56;19651,032;  245,269;56515,671;34,48663
 758,13;19697,785;  214,808;56396,024;34,67881
 758,70;19910,923;  229,346;56416,839;35,02840
 759,26;19962,368;  238,885;56489,191;35,06378
 759,83;20150,660;  231,577;56605,083;35,33412
 760,40;20090,028;  215,731;56292,820;35,44103
 760,97;20172,012;  214,500;56490,327;35,46374
 761,53;20105,688;  197,885;55935,911;35,71674
 762,10;20167,826;  198,115;56052,187;35,75337
 762,67;20326,656;  227,885;55988,155;36,04497
 763,24;20209,948;  193,808;55567,508;36,14738
 763,80;20369,470;  216,423;55749,168;36,29038
 764,37;20416,915;  227,885;55640,752;36,43383
 764,94;20356,976;  212,962;55194,797;36,63758
 765,50;20398,498;  217,423;55227,458;36,68617
 766,07;20557,021;  249,500;55253,195;36,92028
 766,64;20531,543;  231,269;54899,317;37,13371
 767,21;20552,911;  240,577;54836,593;37,20479
 767,77;20690,588;  258,346;54683,023;37,54224
 768,34;20691,110;  264,115;54707,299;37,51984
 768,91;20762,940;  258,885;54516,729;37,79003
 769,47;20816,385;  252,192;54527,697;37,88853
 770,04;20825,061;  252,038;54450,665;37,95857
 770,61;20830,814;  255,577;54103,095;38,21019
 771,18;20829,568;  239,115;54046,756;38,26678
 771,74;21020,244;  253,115;54264,108;38,44982
 772,31;20944,689;  253,654;53998,384;38,49872
 772,88;20947,211;  234,192;53686,660;38,75035
 773,44;20911,580;  235,115;53561,167;38,77366
 774,01;21052,794;  263,346;53655,443;38,93731
 774,58;21001,547;  248,038;53352,565;39,08049
 775,14;21010,839;  231,500;53508,841;39,00221
 775,71;21047,669;  232,500;53351,502;39,18592
 776,27;21154,576;  294,269;53306,701;39,34984
 776,84;21205,944;  303,808;53375,053;39,38505
 777,41;21141,005;  269,269;53063,406;39,53419
 777,97;21058,835;  240,192;52818,682;39,59536
 778,54;21144,973;  258,500;52950,189;39,63903
 779,11;21183,264;  274,269;52843,619;39,77412
 779,67;21273,094;  234,500;52834,818;39,99709
 780,24;21161,924;  256,192;52506,863;40,01046
 780,80;21237,139;  262,962;52651,601;40,03574
 781,37;21277,584;  255,654;52612,030;40,15161
 781,94;21247,953;  253,808;52334,229;40,31101
 782,50;21291,629;  268,654;52248,582;40,44441
 783,07;21399,228;  279,423;52270,166;40,62224
 783,63;21356,673;  242,577;52036,211;40,76581
 784,20;21336,196;  272,731;51992,410;40,72621
 784,77;21337,949;  262,038;51822,378;40,87621
 785,33;21293,702;  224,577;51675,577;40,94988
 785,90;21348,916;  252,269;51602,853;41,08356
 786,46;21337,977;  266,885;51617,129;41,03406
 787,03;21305,884;  241,500;51368,405;41,20019
 787,59;21337,253;  247,423;51254,450;41,34691
 788,16;21411,160;  256,808;51280,034;41,46024
 788,73;21350,066;  267,885;51134,695;41,44585
 789,29;21340,435;  250,423;50709,817;41,79601
 789,86;21321,880;  266,269;50648,862;41,79144
 790,42;21281,403;  258,962;50533,676;41,81514
 790,99;21173,386;  268,038;50126,183;41,92965
 791,55;21271,216;  235,115;50160,767;42,13486
 792,12;21346,277;  264,269;50128,043;42,27921
 792,68;21294,338;  249,808;49828,242;42,44694
 793,25;21251,245;  264,192;49595,979;42,54266
 793,81;21206,152;  304,038;49274,563;42,68305
 794,38;21101,059;  224,654;48975,916;42,82229
 794,94;21128,735;  246,423;48913,961;42,90809
 795,51;21098,796;  263,885;48574,775;43,12674
 796,07;21056,933;  251,192;48310,590;43,29172
 796,64;21130,609;  266,654;48374,250;43,36936
 797,20;20995,055;  253,962;47899,218;43,53234
 797,77;20880,423;  229,808;47614,802;43,58050
 798,33;20951,176;  248,577;47427,847;43,88071
 798,90;20920,160;  274,654;47415,200;43,79565
 799,46;20811,375;  251,654;46928,938;44,04652
 800,03;20786,128;  251,115;46876,137;44,04290
 800,59;20822,035;  266,808;46620,336;44,34447
 801,15;20741,019;  269,423;46291,688;44,48194
 801,72;20537,541;  258,038;46018,118;44,31702
 802,28;20508,448;  294,346;45817,240;44,40425
 802,85;20511,816;  248,423;45549,209;44,73078
 803,41;20479,108;  252,346;45477,023;44,72505
 803,98;20446,707;  246,038;44988,837;45,14842
 804,54;20318,998;  246,962;44593,575;45,26171
 805,11;20316,598;  254,808;44499,543;45,34277
 805,67;20272,889;  276,885;44357,588;45,36226
 806,23;20185,181;  261,731;43924,864;45,62991
 806,80;20233,703;  270,346;43861,063;45,79727
 807,36;20297,995;  279,423;43848,416;45,94683
 807,93;20224,671;  283,654;43528,769;46,11161
 808,49;20076,347;  242,500;43195,660;46,17552
 809,05;20039,100;  229,269;42921,552;46,40143
 809,62;20033,161;  267,115;42966,135;46,29157
 810,18;20097,914;  262,885;42795,719;46,63463
 810,74;20003,898;  232,962;42509,533;46,76570
 811,31;19940,266;  238,038;42307,425;46,83270
 811,87;19929,942;  245,962;42167,855;46,95394
 812,44;19965,465;  274,500;42128,438;47,04686
 813,00;19934,218;  207,962;41752,329;47,48238
 813,56;19931,663;  252,654;41901,452;47,24989
 814,13;20010,801;  253,346;41790,958;47,56521
 814,69;19975,631;  243,962;41632,157;47,67463
 815,25;19833,845;  220,038;41120,741;47,95469
 815,82;19909,214;  247,500;41064,402;48,17052
 816,38;19838,813;  274,269;40862,601;48,20238
 816,94;19700,797;  233,423;40639,492;48,17933
 817,51;19625,396;  218,269;40420,383;48,27390
 818,07;19513,611;  222,962;40125,967;48,34385
 818,63;19501,441;  241,346;39966,781;48,48303
 819,20;19531,886;  252,577;39812,980;48,73385
 819,76;19292,485;  224,192;39399,641;48,67409
 820,32;19314,392;  269,423;39327,609;48,76051
 820,89;19291,684;  257,192;39165,347;48,92160
 821,45;19176,898;  237,808;38806,776;49,10448
 822,01;19167,805;  242,962;38571,591;49,37522
 822,57;19058,558;  253,885;38439,328;49,24566
 823,14;19014,234;  220,423;38234,912;49,43855
 823,70;18985,449;  238,731;37973,419;49,68033
 824,26;18893,740;  235,654;37874,233;49,57171
 824,82;18902,955;  255,500;37617,586;49,91010
 825,39;18894,400;  225,731;37362,785;50,26966
 825,95;18797,538;  258,962;37430,369;49,87322
 826,51;18663,907;  255,269;37014,952;50,07834
 827,08;18773,967;  275,038;37182,690;50,12221
 827,64;18755,643;  248,115;36880,273;50,52263
 828,20;18683,550;  223,192;36556,703;50,80808
 828,76;18705,534;  257,654;36628,133;50,72213
 829,32;18699,749;  250,731;36463,024;50,94684
 829,89;18644,040;  216,269;36350,069;50,99871
 830,45;18639,255;  241,577;36198,192;51,16632
 831,01;18664,777;  226,192;36027,006;51,50326
 831,57;18605,069;  243,346;35901,974;51,49307
 832,14;18558,053;  235,808;36020,712;51,20105
 832,70;18549,806;  225,885;35719,065;51,62660
 833,26;18472,790;  208,577;35634,725;51,55574
 833,82;18538,466;  229,115;35582,540;51,78947
 834,38;18661,757;  225,962;35534,739;52,21307
 834,95;18578,587;  218,962;35426,399;52,14701
 835,51;18487,340;  194,731;35223,906;52,22107
 836,07;18555,632;  244,192;35315,413;52,21215
 836,63;18581,769;  249,269;35359,073;52,21476
 837,19;18559,599;  237,192;35115,580;52,53227
 837,75;18431,045;  205,115;34793,625;52,69360
 838,32;18492,029;  248,962;35016,670;52,47130
 838,88;18570,705;  251,577;34949,100;52,79664
 839,44;18510,381;  243,115;34841,914;52,79740
 840,00;18554,442;  237,115;34913,267;52,82399
 840,56;18439,349;  225,269;34495,082;53,14905
 841,12;18519,871;  221,192;34474,435;53,42174
 841,68;18460,701;  204,115;34229,710;53,65545
 842,25;18421,839;  211,038;34307,063;53,41033
 842,81;18310,284;  216,962;34010,493;53,54079
 843,37;18420,652;  210,192;34050,692;53,81262
 843,93;18294,636;  217,808;33889,968;53,68479
 844,49;18516,389;  234,346;33999,629;54,14450
 845,05;18346,604;  204,731;33864,828;53,89727
 845,61;18506,357;  240,885;33911,642;54,24729
 846,17;18462,572;  219,115;33661,149;54,55247
 846,73;18421,325;  236,654;33700,194;54,34174
 847,29;18360,232;  206,654;33508,624;54,51202
 847,86;18368,677;  221,423;33454,130;54,60661
 848,42;18359,199;  207,423;33202,176;55,01413
 848,98;18394,337;  227,500;33204,452;55,08950
 849,54;18421,090;  207,500;33322,497;55,00103
 850,10;18450,535;  235,192;33044,696;55,51850
 850,66;18329,673;  203,500;32992,818;55,28073
 851,22;18345,118;  212,038;32836,094;55,58193
 851,78;18423,487;  256,577;33003,447;55,47678
 852,34;18301,163;  233,346;32705,723;55,64057
 852,90;18280,608;  216,269;32541,076;55,88383
 853,46;18149,746;  220,962;32350,044;55,80236
 854,02;18209,422;  226,192;32339,474;55,99935
 854,58;18137,329;  218,962;32114,365;56,17853
 855,14;18104,621;  209,577;31986,872;56,31393
 855,70;18122,605;  195,269;31876,532;56,58656
 856,26;18097,127;  243,192;31822,577;56,53668
 856,82;18048,111;  209,962;31688,315;56,66799
 857,38;18011,787;  244,500;31559,591;56,73714
 857,94;17985,386;  218,577;31394,636;56,98863
 858,50;17977,216;  226,885;31348,912;57,03462
 859,06;17873,277;  219,423;31076,111;57,21241
 859,62;17843,338;  244,654;31126,464;56,98722
 860,18;17806,629;  226,731;30817,509;57,46797
 860,74;17869,305;  198,577;30798,477;57,74767
 861,30;17745,366;  193,423;30541,215;57,83598
 861,86;17866,734;  255,115;30505,414;58,21965
 862,42;17779,334;  230,192;30400,459;58,16701
 862,98;17873,933;  240,423;30387,350;58,49190
 863,54;17729,994;  228,038;30150,242;58,49153
 864,10;17760,439;  219,962;30201,056;58,50513
 864,66;17773,115;  205,192;29923,024;59,11576
 865,22;17695,407;  217,577;29811,839;59,05817
 865,78;17696,467;  223,731;29690,961;59,29548
 866,34;17689,990;  211,885;29597,006;59,47944
 866,90;17683,820;  222,346;29420,667;59,80301
 867,45;17647,034;  235,654;29264,789;59,97899
 868,01;17576,710;  213,962;29055,295;60,20092
 868,57;17537,002;  220,808;28985,494;60,19949
 869,13;17475,294;  207,423;28866,386;60,25295
 869,69;17519,585;  215,654;28720,277;60,70570
 870,25;17491,723;  205,038;28589,399;60,90214
 870,81;17456,091;  214,885;28596,060;60,74874
 871,37;17478,306;  225,038;28482,105;61,05824
 871,93;17430,597;  241,731;28352,765;61,14633
 872,49;17374,966;  248,115;28082,580;61,53109
 873,04;17314,180;  200,038;27863,702;61,86506
 873,60;17259,857;  207,038;27770,363;61,86779
 874,16;17233,456;  234,346;27685,946;61,92393
 874,72;17235,533;  226,962;27621,562;62,08731
 875,28;17206,840;  229,423;27516,792;62,21713
 875,84;17207,840;  216,423;27487,792;62,30497
 876,40;17155,379;  213,423;27417,715;62,27677
 876,95;17150,994;  235,346;27372,177;62,33465
 877,51;17239,533;  243,654;27370,408;62,65357
 878,07;17275,840;  258,038;27391,946;62,71784
 878,63;17328,071;  219,577;27445,869;62,83813
 879,19;17338,994;  230,885;27405,946;62,95518
 879,75;17381,610;  221,577;27378,946;63,18739
 880,30;17439,610;  219,731;27367,254;63,43075
 880,86;17609,456;  254,269;27563,177;63,55138
 881,42;17628,687;  206,654;27593,485;63,61464
 881,98;17682,533;  235,962;27669,638;63,59545
 882,54;17784,687;  219,577;27798,869;63,68949
 883,09;17885,840;  226,346;27836,638;63,95982
 883,65;17933,148;  209,962;27868,946;64,07750
 884,21;18119,148;  241,885;28166,177;64,02047
 884,77;18053,917;  216,423;28058,254;64,06725
 885,32;18253,379;  219,423;28323,638;64,16815
 885,88;18377,071;  249,115;28499,485;64,16892
 886,44;18575,840;  233,731;28539,869;64,79905
 887,00;18591,302;  235,192;28524,792;64,88642
 887,56;18713,533;  224,038;28664,100;65,01215
 888,11;18785,225;  215,731;28673,331;65,25320
 888,67;18977,456;  249,346;28836,408;65,51254
 889,23;18999,302;  233,577;28767,023;65,76747
 889,79;18962,379;  211,808;28654,715;65,92354
 890,34;19026,533;  221,346;28536,331;66,41426
 890,90;19195,917;  280,192;28763,485;66,40990
 891,46;19116,763;  223,346;28688,100;66,37478
 892,01;19181,994;  236,269;28688,331;66,58823
 892,57;19260,225;  261,808;28568,869;67,11547
 893,13;19154,840;  222,577;28388,254;67,21750
 893,69;19102,994;  216,885;28366,638;67,09156
 894,24;19089,148;  230,962;28238,485;67,33258
 894,80;19011,456;  228,654;28073,023;67,45637
 895,36;18965,071;  226,269;27945,715;67,60165
 895,91;18878,533;  224,115;27772,177;67,71590
 896,47;18888,071;  227,654;27630,638;68,09630
 897,03;18679,994;  207,423;27426,023;67,86746
 897,58;18669,379;  229,885;27389,715;67,89252
 898,14;18612,148;  234,115;27163,869;68,24434
 898,70;18557,533;  200,192;27052,177;68,36493
 899,25;18666,302;  214,192;27048,485;68,76317
 899,81;18510,071;  240,423;26817,023;68,74336
 900,37;18426,687;  195,654;26691,715;68,80658
 900,92;18485,917;  226,577;26648,946;69,10561
 901,48;18385,379;  210,885;26489,946;69,15960
 902,03;18311,687;  222,192;26445,638;68,98214
 902,59;18210,533;  216,577;26287,100;69,02031
 903,15;18242,687;  228,577;26161,177;69,46511
 903,70;18037,840;  213,500;25851,023;69,52442
 904,26;18081,994;  211,962;25775,946;69,90316
 904,82;18003,302;  214,192;25685,331;69,84026
 905,37;17941,840;  221,038;25588,715;69,85583
 905,93;17869,994;  205,192;25444,100;69,99036
 906,48;17900,840;  229,577;25303,100;70,47778
 907,04;17903,148;  238,500;25277,331;70,54901
 907,60;17860,763;  218,115;25060,869;71,01728
 908,15;17832,379;  206,038;24989,638;71,12098
 908,71;17885,302;  246,654;25035,562;71,15541
 909,26;17787,148;  204,808;24829,792;71,40041
 909,82;17759,840;  243,423;24665,485;71,72375
 910,37;17822,148;  260,577;24589,638;72,18351
 910,93;17679,763;  203,500;24398,562;72,23070
 911,48;17590,071;  203,192;24287,638;72,19132
 912,04;17561,533;  203,192;24154,792;72,47257
 912,60;17639,840;  225,269;24176,562;72,70827
 913,15;17525,840;  218,808;23982,869;72,82860
 913,71;17449,994;  215,192;23813,177;73,03506
 914,26;17409,994;  195,577;23796,177;72,94059
 914,82;17334,225;  220,423;23671,946;72,97523
 915,37;17304,302;  202,115;23654,100;72,92426
 915,93;17267,148;  247,885;23523,177;73,12159
 916,48;17204,456;  208,423;23316,485;73,55023
 917,04;17234,840;  234,192;23227,946;73,93594
 917,59;17245,610;  249,346;23147,331;74,22602
 918,15;17109,917;  189,192;22916,100;74,45239
 918,70;17067,456;  211,500;22905,254;74,27575
 919,26;17077,840;  213,885;22839,946;74,53332
 919,81;16985,763;  198,731;22574,869;75,02203
 920,37;16990,687;  210,115;22514,331;75,23498
 920,92;16987,917;  221,962;22451,562;75,42176
 921,48;16877,687;  191,885;22284,254;75,52744
 922,03;16882,610;  211,346;22247,331;75,65472
 922,59;16745,225;  210,192;22099,408;75,53963
 923,14;16755,917;  201,885;22028,562;75,84312
 923,69;16748,302;  229,731;21942,254;76,07854
 924,25;16698,840;  231,654;21930,485;75,88974
 924,80;16672,456;  215,269;21635,638;76,82961
 925,36;16643,071;  205,115;21567,177;76,94930
 925,91;16588,840;  216,115;21442,023;77,13557
 926,47;16499,917;  201,500;21348,177;77,07318
 927,02;16562,302;  241,885;21233,177;77,74851
 927,57;16453,148;  211,808;21193,023;77,40896
 928,13;16456,917;  205,500;21056,946;77,93904
 928,68;16479,379;  206,423;20975,715;78,35104
 929,24;16332,456;  173,423;20732,100;78,59958
 929,79;16216,379;  196,808;20697,946;78,13991
 930,34;16238,148;  206,731;20568,331;78,73358
 930,90;16198,994;  193,577;20496,023;78,83492
 931,45;16190,763;  214,038;20473,485;78,86062
 932,01;16139,148;  222,577;20391,485;78,91638
 932,56;16107,763;  227,346;20204,408;79,49326
 933,11;16182,610;  226,500;20171,100;80,00215
 933,67;16022,610;  206,192;20034,869;79,76537
 934,22;15983,687;  205,654;19951,562;79,90533
 934,77;15969,840;  228,654;19816,100;80,36365
 935,33;15902,456;  219,654;19760,100;80,25816
 935,88;15821,456;  215,115;19628,562;80,38934
 936,43;15812,456;  201,731;19583,638;80,54277
 936,99;15733,071;  213,038;19487,023;80,52322
 937,54;15602,533;  190,731;19303,792;80,63492
 938,09;15683,456;  218,885;19204,869;81,45256
 938,65;15552,763;  213,423;19075,562;81,32344
 939,20;15516,379;  191,192;19059,792;81,22058
 939,75;15500,840;  194,423;18909,869;81,78494
 940,31;15407,687;  187,346;18825,177;81,66369
 940,86;15371,456;  218,654;18790,792;81,58889
 941,41;15406,456;  270,192;18699,792;82,13018
 941,96;15289,379;  202,192;18558,331;82,19151
 942,52;15193,917;  201,654;18439,485;82,20420
 943,07;15140,917;  190,577;18327,100;82,43223
 943,62;15146,302;  199,962;18250,408;82,80316
 944,18;15074,302;  186,731;18171,562;82,77849
 944,73;15050,840;  204,808;18127,254;82,83486
 945,28;14924,687;  172,423;17934,792;83,05347
 945,83;14989,994;  197,115;17956,408;83,29656
 946,39;14959,071;  197,654;17893,562;83,41712
 946,94;14839,302;  217,500;17802,638;83,14863
 947,49;14796,071;  198,038;17767,177;83,08906
 948,04;14796,148;  230,038;17676,023;83,49262
 948,59;14714,994;  218,885;17617,946;83,31547
 949,15;14715,456;  183,192;17526,869;83,78998
 949,70;14682,225;  205,731;17366,408;84,35853
 950,25;14698,917;  222,654;17313,792;84,70040
 950,80;14583,610;  179,115;17177,562;84,74006
 951,36;14602,840;  177,038;17072,869;85,38084
 951,91;14657,456;  220,577;17073,869;85,66207
 952,46;14526,840;  190,654;16876,023;85,92070
 953,01;14576,840;  216,192;16923,100;85,95635
 953,56;14434,917;  179,115;16804,792;85,74569
 954,11;14442,840;  202,500;16721,715;86,20470
 954,67;14436,994;  195,885;16684,792;86,36782
 955,22;14256,225;  171,577;16496,792;86,27542
 955,77;14261,917;  233,885;16463,869;86,43282
 956,32;14294,148;  244,423;16367,715;87,13931
 956,87;14213,225;  191,269;16232,100;87,41415
 957,42;14223,533;  195,500;16132,023;88,02442
 957,98;14095,302;  200,192;16120,023;87,28177
 958,53;14083,533;  219,115;16007,946;87,81155
 959,08;14067,456;  187,808;15892,100;88,38124
 959,63;13974,148;  195,500;15838,715;88,08066
 960,18;13987,456;  220,192;15783,792;88,45809
 960,73;13916,225;  206,115;15720,638;88,36952
 961,28;13860,225;  177,885;15618,254;88,61408
 961,83;13864,763;  225,962;15547,408;89,01772
 962,39;13776,917;  194,808;15473,023;88,89853
 962,94;13701,148;  215,115;15443,869;88,55638
 963,49;13621,456;  207,115;15190,100;89,53050
 964,04;13632,917;  216,038;15176,946;89,67958
 964,59;13640,379;  181,808;15064,408;90,43159
 965,14;13636,840;  223,115;15022,485;90,63714
 965,69;13546,610;  211,115;14941,331;90,53156
 966,24;13502,225;  202,577;14865,792;90,70076
 966,79;13382,840;  216,731;14688,408;90,97847
 967,34;13260,456;  186,731;14645,792;90,41890
 967,89;13247,148;  205,500;14603,638;90,57871
 968,44;13191,225;  213,885;14464,100;91,06768
 968,99;13190,148;  208,577;14453,562;91,13082
 969,55;13124,148;  221,885;14301,331;91,63900
 970,10;13057,687;  218,808;14262,408;91,42156
 970,65;12985,763;  225,654;14139,485;91,70810
 971,20;12881,533;  196,269;14004,946;91,86444
 971,75;12859,533;  177,115;13929,408;92,22039
 972,30;12813,840;  207,808;13820,100;92,60771
 972,85;12734,994;  195,346;13798,485;92,18202
 973,40;12646,610;  194,500;13662,715;92,45553
 973,95;12569,840;  212,192;13618,177;92,18009
 974,50;12558,456;  230,808;13514,177;92,80513
 975,05;12484,994;  216,115;13345,408;93,44661
 975,60;12471,379;  225,269;13356,638;93,25844
 976,15;12390,687;  200,731;13206,331;93,72852
 976,70;12314,225;  210,038;13141,562;93,60217
 977,25;12292,687;  215,654;13152,485;93,35387
 977,80;12224,071;  197,500;12952,177;94,29146
 978,35;12090,533;  215,962;12799,177;94,36834
 978,89;11988,687;  193,115;12728,485;94,09831
 979,44;11994,687;  208,192;12722,715;94,18253
 979,99;11891,148;  192,577;12486,869;95,15449
 980,54;11829,840;  232,808;12459,177;94,85263
 981,09;11759,456;  213,962;12387,715;94,83923
 981,64;11648,302;  222,808;12218,254;95,24860
 982,19;11672,379;  246,577;12186,715;95,69237
 982,74;11528,148;  229,038;12081,562;95,33084
 983,29;11435,302;  193,269;11925,100;95,82505
 983,84;11364,687;  221,346;11826,638;96,01947
 984,39;11385,840;  245,808;11778,254;96,59731
 984,94;11238,917;  182,577;11670,254;96,24522
 985,49;11187,302;  243,192;11606,331;96,31238
 986,03;11166,071;  228,808;11524,023;96,83094
 986,58;11062,917;  244,346;11344,100;97,46677
 987,13;10921,379;  214,346;11224,638;97,24567
 987,68;10874,071;  223,038;11128,562;97,66641
 988,23;10853,840;  225,885;11075,946;97,95295
 988,78;10673,302;  212,808;10904,562;97,83703
 989,33;10655,533;  218,500;10849,485;98,17560
 989,88;10624,533;  234,269;10762,408;98,69041
 990,42;10440,994;  211,269;10615,100;98,32652
 990,97;10355,456;  212,654;10535,177;98,25894
 991,52;10330,379;  228,962;10502,485;98,32476
 992,07;10270,071;  248,423;10361,946;99,09156
 992,62;10127,379;  225,038;10189,408;99,37749
 993,17;10035,302;  225,269;10094,331;99,40188
 993,71; 9956,456;  219,885;10107,331;98,47408
 994,26; 9857,379;  205,731; 9964,254;98,90480
 994,81; 9874,763;  232,269; 9891,331;99,82848
 995,36; 9681,840;  208,115; 9678,946;100,03056
 995,91; 9650,071;  229,654; 9669,100;99,79841
 996,45; 9603,917;  218,885; 9569,254;100,37072
 997,00; 9493,994;  192,962; 9417,100;100,83362
 997,55; 9390,840;  221,192; 9413,177;99,75700
 998,10; 9291,379;  239,269; 9289,100;100,02518
 998,65; 9264,071;  211,731; 9197,946;100,73585
 999,19; 9179,994;  239,577; 9082,100;101,10708
 999,74; 9088,994;  251,577; 9015,562;100,83789
1000,29; 9012,225;  226,577; 8900,100;101,29273
1000,84; 8881,533;  213,346; 8722,792;101,86546
1001,38; 8827,687;  218,346; 8685,946;101,67391
1001,93; 8807,994;  227,115; 8630,408;102,11330
1002,48; 8673,148;  207,346; 8495,408;102,14454
1003,03; 8639,840;  221,038; 8441,177;102,41679
1003,57; 8506,379;  232,500; 8311,562;102,41139
1004,12; 8479,302;  242,962; 8265,100;102,67013
1004,67; 8326,917;  213,731; 8124,331;102,56095
1005,22; 8257,610;  208,115; 8027,485;102,94301
1005,76; 8078,763;  194,192; 7867,638;102,75137
1006,31; 8035,302;  231,731; 7860,331;102,29362
1006,86; 7945,840;  217,885; 7697,100;103,32576
1007,40; 7852,687;  196,038; 7572,638;103,79644
1007,95; 7751,994;  227,423; 7542,331;102,86625
1008,50; 7671,225;  215,962; 7394,638;103,85289
1009,04; 7574,687;  220,346; 7305,177;103,80404
1009,59; 7453,302;  228,577; 7163,408;104,18026
1010,14; 7341,687;  200,192; 7051,177;104,24041
1010,68; 7239,687;  216,885; 6957,100;104,19254
1011,23; 7143,533;  205,885; 6840,408;104,56890
1011,78; 7108,456;  227,654; 6773,485;105,11732
1012,32; 7027,917;  225,731; 6713,638;104,84407
1012,87; 6969,148;  245,577; 6661,408;104,79658
1013,42; 6892,302;  212,423; 6534,638;105,65725
1013,96; 6886,302;  230,962; 6541,023;105,47188
1014,51; 6766,148;  190,115; 6461,946;104,85029
1015,06; 6796,379;  196,038; 6426,869;105,93034
1015,60; 6931,840;  258,577; 6502,485;106,87640
1016,15; 6810,379;  205,115; 6444,562;105,86298
1016,69; 6895,763;  213,577; 6497,254;106,34198
1017,24; 6900,225;  176,192; 6482,023;106,63199
1017,79; 6954,148;  241,808; 6550,023;106,40633
1018,33; 6924,917;  199,654; 6533,792;106,17487
1018,88; 7057,071;  223,423; 6568,177;107,70549
1019,42; 7065,225;  211,192; 6560,792;107,94432
1019,97; 7026,302;  212,423; 6527,177;107,90411
1020,51; 7111,456;  224,962; 6566,562;108,59238
1021,06; 7083,148;  207,962; 6543,254;108,52201
1021,61; 7082,763;  181,115; 6513,792;108,98469
1022,15; 7019,456;  168,962; 6442,177;109,20228
1022,70; 7055,533;  203,731; 6440,946;109,85354
1023,24; 6991,225;  200,346; 6375,869;109,96443
1023,79; 6962,379;  220,192; 6347,177;110,04086
1024,33; 6908,456;  202,192; 6301,100;109,95844
1024,88; 6820,148;  208,577; 6204,023;110,27655
1025,42; 6718,994;  219,500; 6081,562;110,87387
1025,97; 6676,148;  206,269; 6018,254;111,31961
1026,51; 6556,148;  175,731; 5925,869;110,96111
1027,06; 6537,071;  201,423; 5861,715;111,93146
1027,60; 6409,302;  220,654; 5720,331;112,52748
1028,15; 6349,994;  223,423; 5677,485;112,33044
1028,69; 6165,302;  189,500; 5559,869;111,27358
1029,24; 6158,610;  194,038; 5506,869;112,26729
1029,78; 6045,379;  200,808; 5388,177;112,66927
1030,33; 5961,379;  185,423; 5294,177;113,05997
1030,87; 5917,687;  198,731; 5259,331;113,00944
1031,42; 5818,687;  189,808; 5108,869;114,42993
1031,96; 5786,225;  207,808; 5087,638;114,31579
1032,51; 5639,071;  183,346; 5015,408;112,90678
1033,05; 5614,610;  217,500; 4933,792;114,43543
1033,60; 5484,225;  177,577; 4828,408;114,10108
1034,14; 5446,533;  201,346; 4796,177;114,15407
1034,69; 5420,148;  204,038; 4723,946;115,40301
1035,23; 5332,840;  203,654; 4625,869;115,98681
1035,77; 5262,379;  196,577; 4560,792;116,07589
1036,32; 5207,610;  168,885; 4510,100;116,06715
1036,86; 5131,148;  206,038; 4476,254;115,33633
1037,41; 5029,302;  218,654; 4393,715;115,22341
1037,95; 4985,302;  173,885; 4305,715;116,44759
1038,50; 4925,456;  187,115; 4273,792;115,94605
1039,04; 4830,148;  209,115; 4244,562;114,51107
1039,58; 4790,456;  178,808; 4137,408;116,49695
1040,13; 4708,840;  198,115; 4066,946;116,59143
1040,67; 4700,302;  225,577; 4075,177;116,23870
1041,21; 4612,302;  224,115; 3994,023;116,40037
1041,76; 4536,071;  182,423; 3893,562;117,31301
1042,30; 4477,994;  201,269; 3857,946;116,95660
1042,85; 4406,225;  197,269; 3804,715;116,67411
1043,39; 4362,610;  199,577; 3746,638;117,36567
1043,93; 4277,225;  211,423; 3715,869;116,01839
1044,48; 4242,379;  209,808; 3657,408;116,96749
1045,02; 4204,148;  202,115; 3598,562;117,83001
1045,56; 4150,840;  225,115; 3584,100;116,87237
1046,11; 4072,148;  209,808; 3527,331;116,42241
1046,65; 4005,456;  208,962; 3443,331;117,37974
1047,19; 3976,994;  196,038; 3395,254;118,18385
1047,74; 3885,148;  190,731; 3358,100;116,63993
1048,28; 3842,917;  206,500; 3297,177;117,65763
1048,82; 3825,456;  226,038; 3301,254;117,04602
1049,37; 3764,071;  214,654; 3222,562;118,00287
1049,91; 3746,840;  203,115; 3174,331;119,26853
1050,45; 3685,610;  229,346; 3154,715;118,14794
1050,99; 3616,763;  206,577; 3058,177;119,58853
1051,54; 3555,225;  191,500; 3019,792;118,93131
1052,08; 3553,302;  227,885; 3021,408;119,04027
1052,62; 3481,148;  215,654; 2969,485;118,58006
1053,16; 3426,225;  201,115; 2912,100;118,96451
1053,71; 3407,763;  222,423; 2899,177;119,00012
1054,25; 3353,610;  216,731; 2838,408;119,65162
1054,79; 3337,533;  218,346; 2781,715;121,68308
1055,33; 3209,225;  183,115; 2715,946;119,47540
1055,88; 3238,379;  219,654; 2728,946;120,30185
1056,42; 3183,302;  220,192; 2698,946;119,54029
1056,96; 3158,225;  219,577; 2620,177;122,41307
1057,50; 3101,225;  219,192; 2593,254;121,39671
1058,05; 3040,763;  211,192; 2561,869;120,37261
1058,59; 3037,994;  231,731; 2519,792;122,64808
1059,13; 2936,994;  193,654; 2461,408;120,97170
1059,67; 2953,994;  220,731; 2447,485;122,74655
1060,21; 2881,071;  217,346; 2385,485;122,85770
1060,76; 2853,148;  226,269; 2370,869;122,48806
1061,30; 2819,302;  225,731; 2370,562;120,92195
1061,84; 2755,840;  214,115; 2323,869;120,47496
1062,38; 2697,148;  198,192; 2263,100;121,02022
1062,92; 2706,456;  242,038; 2284,485;120,66009
1063,46; 2645,994;  228,808; 2236,638;120,38796
1064,01; 2608,379;  212,346; 2186,331;121,38052
1064,55; 2581,687;  219,346; 2165,100;121,41003
1065,09; 2532,302;  193,885; 2086,562;123,55079
1065,63; 2534,379;  241,423; 2113,562;122,47789
1066,17; 2514,533;  231,654; 2096,408;122,42253
1066,71; 2462,148;  225,962; 2081,408;120,52015
1067,25; 2432,610;  203,577; 2020,408;122,68796
1067,80; 2419,148;  227,654; 2028,177;121,71431
1068,34; 2404,763;  239,192; 2025,023;121,26407
1068,88; 2347,994;  214,423; 1941,715;123,52114
1069,42; 2349,687;  239,192; 1969,177;121,99497
1069,96; 2298,456;  213,577; 1901,331;123,52979
1070,50; 2309,379;  249,808; 1936,638;122,09708
1071,04; 2222,148;  205,962; 1845,023;123,00859
1071,58; 2219,456;  209,808; 1821,869;124,66324
1072,12; 2181,917;  207,731; 1823,792;122,16036
1072,66; 2154,994;  213,962; 1796,638;122,64238
1073,21; 2185,379;  231,423; 1807,331;123,98923
1073,75; 2123,610;  217,808; 1748,177;124,53216
1074,29; 2082,840;  220,808; 1742,638;122,35478
1074,83; 2087,994;  246,115; 1746,792;122,73653
1075,37; 2060,379;  228,654; 1686,562;125,64067
1075,91; 2028,994;  234,731; 1694,715;122,89605
1076,45; 2008,225;  223,885; 1669,485;123,43251
1076,99; 1992,994;  229,192; 1639,100;125,10052
1077,53; 1947,917;  214,423; 1599,331;125,17038
1078,07; 1935,379;  230,115; 1586,792;125,69415
1078,61; 1910,379;  222,038; 1560,946;126,09834
1079,15; 1881,840;  215,346; 1550,946;124,77495
1079,69; 1866,071;  226,885; 1530,946;125,69856
1080,23; 1865,917;  239,500; 1534,946;125,54882
1080,77; 1869,610;  260,962; 1525,562;127,20608
1081,31; 1799,840;  203,654; 1467,254;126,32056
1081,85; 1799,148;  243,269; 1473,177;126,50371
1082,39; 1753,610;  223,654; 1449,177;124,84104
1082,93; 1771,917;  232,115; 1434,869;128,02303
1083,47; 1701,379;  213,731; 1386,638;126,83420
1084,01; 1701,379;  239,269; 1409,254;124,96828
1084,55; 1691,071;  213,038; 1378,177;126,85468
1085,09; 1669,687;  236,654; 1364,331;127,07830
1085,63; 1647,148;  224,500; 1351,869;126,19185
1086,17; 1616,225;  205,423; 1325,331;125,97484
1086,71; 1601,456;  215,577; 1304,792;127,23644
1087,24; 1626,994;  248,192; 1333,869;126,99928
1087,78; 1608,687;  235,731; 1295,254;129,58243
1088,32; 1535,840;  211,885; 1270,792;125,03033
1088,86; 1557,456;  241,269; 1277,869;126,97150
1089,40; 1550,840;  230,423; 1241,638;130,57726
1089,94; 1491,687;  198,654; 1216,946;126,98050
1090,48; 1506,533;  228,808; 1226,869;128,02066
1091,02; 1483,994;  232,731; 1220,177;126,71713
1091,56; 1463,071;  223,192; 1189,792;128,27218
1092,10; 1422,994;  204,654; 1167,946;126,47671
1092,63; 1448,917;  246,808; 1166,254;130,74280
1093,17; 1420,148;  226,577; 1152,715;128,87610
1093,71; 1398,840;  216,808; 1130,792;129,32742
1094,25; 1422,840;  243,885; 1136,331;132,10385
1094,79; 1375,994;  227,654; 1119,254;128,79547
1095,33; 1348,763;  224,577; 1105,408;127,62798
1095,87; 1341,994;  226,654; 1092,638;128,79448
1096,40; 1297,071;  209,500; 1048,023;129,70080
1096,94; 1300,687;  224,423; 1081,331;125,59853
1097,48; 1302,610;  229,346; 1054,562;130,05859
1098,02; 1264,763;  221,577; 1030,946;128,88883
1098,56; 1231,687;  195,192;  992,715;129,96417
1099,10; 1230,994;  199,346;  996,869;129,35652
1099,63; 1207,456;  207,192;  988,485;128,02679
1100,17; 1218,610;  227,654;  988,100;130,31242
1100,71; 1219,302;  235,962;  995,946;129,38951

