
Integration time [ms]: 140,000
Averaging Nr. [scans]: 13
Smoothing Nr. [pixels]: 0
Data measured with spectrometer [name]: 2009305U1
Wave   ;Sample   ;Dark     ;Reference;Reflectance
[nm]   ;[counts] ;[counts] ;[counts] ;[%]

 175,72;  218,148;  207,672;  215,673;130,94737
 176,32;  243,497;  238,424;  241,025;195,01622
 176,92;  281,378;  272,128;  266,109; 0,00000
 177,52;  276,781;  265,361;  267,675;493,46525
 178,12;  253,975;  258,117;  238,311; 0,00000
 178,72;  281,584;  276,958;  258,525; 0,00000
 179,32;  268,321;  279,578;  258,748; 0,00000
 179,92;  269,432;  269,431;  262,806; 0,00000
 180,52;  260,313;  254,297;  261,455;84,03601
 181,12;  279,497;  273,355;  266,130; 0,00000
 181,73;  298,674;  284,895;  277,919; 0,00000
 182,33;  399,339;  381,443;  397,957;108,36569
 182,93;  297,537;  280,130;  286,949;255,27107
 183,53;  252,386;  255,340;  247,813; 0,00000
 184,13;  260,286;  242,804;  237,845; 0,00000
 184,73;  302,731;  293,338;  296,892;264,27982
 185,33;  284,146;  261,312;  361,143;22,87327
 185,93;  321,053;  243,376;  381,547;56,21846
 186,53;  310,988;  260,229;  410,327;33,81725
 187,13;  337,210;  280,704;  420,213;40,50335
 187,73;  308,936;  257,224;  382,447;41,29615
 188,33;  310,296;  249,678;  381,863;45,85843
 188,93;  325,023;  263,040;  387,891;49,64520
 189,53;  330,244;  261,946;  380,542;57,58819
 190,13;  366,200;  304,841;  423,007;51,92616
 190,73;  304,807;  226,937;  387,302;48,55805
 191,34;  340,101;  266,803;  406,760;52,37194
 191,94;  313,839;  249,363;  387,164;46,78871
 192,54;  330,897;  271,253;  415,221;41,42865
 193,14;  333,738;  271,395;  415,304;43,32095
 193,74;  323,399;  275,854;  398,242;38,84803
 194,34;  313,246;  265,090;  415,805;31,95170
 194,94;  291,263;  230,318;  367,347;44,47623
 195,54;  259,986;  226,774;  345,997;27,85760
 196,14;  287,556;  238,863;  381,829;34,05968
 196,74;  289,709;  237,002;  371,341;39,23409
 197,34;  264,383;  212,871;  367,061;33,40833
 197,94;  295,883;  246,858;  398,110;32,41279
 198,54;  307,226;  250,016;  414,320;34,81954
 199,14;  285,300;  227,106;  389,582;35,81683
 199,74;  269,159;  216,953;  394,616;29,38505
 200,34;  262,558;  205,647;  412,777;27,47604
 200,94;  294,080;  245,177;  440,849;24,99269
 201,54;  286,314;  228,181;  443,845;26,95556
 202,14;  330,192;  260,035;  509,855;28,08305
 202,74;  290,835;  231,337;  483,408;23,60383
 203,34;  280,514;  198,887;  505,069;26,65965
 203,94;  254,103;  174,805;  503,718;24,10915
 204,54;  327,881;  257,705;  595,985;20,74476
 205,14;  287,431;  217,029;  614,536;17,71096
 205,74;  340,565;  257,732;  713,847;18,16041
 206,34;  302,541;  215,112;  712,928;17,56263
 206,94;  313,899;  225,648;  764,426;16,37980
 207,54;  278,986;  199,803;  808,104;13,01709
 208,14;  302,286;  211,343;  894,372;13,31457
 208,74;  320,723;  218,875;  969,173;13,57432
 209,34;  326,999;  202,492; 1054,701;14,60999
 209,94;  336,259;  229,414; 1142,048;11,70726
 210,54;  339,335;  221,730; 1275,922;11,15597
 211,14;  358,848;  229,798; 1378,519;11,23421
 211,73;  369,548;  228,180; 1485,662;11,24212
 212,33;  388,760;  231,561; 1585,815;11,60777
 212,93;  374,620;  215,259; 1695,643;10,76483
 213,53;  366,197;  183,413; 1731,515;11,80696
 214,13;  424,617;  207,122; 1852,881;13,21545
 214,73;  384,961;  193,189; 1865,086;11,47036
 215,33;  388,182;  177,568; 1889,894;12,29986
 215,93;  437,955;  214,578; 2025,839;12,33269
 216,53;  407,264;  165,412; 2077,759;12,64683
 217,13;  490,326;  230,730; 2288,601;12,61477
 217,73;  489,289;  207,271; 2523,291;12,17684
 218,33;  480,586;  175,201; 2679,717;12,19338
 218,93;  563,980;  191,675; 3016,014;13,18203
 219,53;  612,214;  193,509; 3295,597;13,49754
 220,13;  620,941;  162,127; 3615,373;13,28645
 220,73;  693,208;  197,261; 3981,424;13,10585
 221,32;  744,261;  199,413; 4393,481;12,99092
 221,92;  813,725;  207,818; 4824,839;13,12333
 222,52;  850,229;  188,348; 5274,577;13,01318
 223,12;  923,268;  188,657; 5727,756;13,26228
 223,72; 1003,127;  208,042; 6131,713;13,42217
 224,32; 1041,903;  210,196; 6567,755;13,08217
 224,92; 1072,243;  184,735; 6890,969;13,23407
 225,52; 1157,912;  217,033; 7257,152;13,36453
 226,12; 1207,213;  196,345; 7552,443;13,74191
 226,72; 1208,338;  162,729; 7885,662;13,53901
 227,31; 1293,139;  161,190; 8271,414;13,95706
 227,91; 1391,055;  204,032; 8671,474;14,01868
 228,51; 1414,222;  197,485; 9080,788;13,69690
 229,11; 1494,783;  190,959; 9437,453;14,10074
 229,71; 1569,100;  182,182; 9761,515;14,47824
 230,31; 1620,738;  178,045;10198,283;14,39779
 230,91; 1667,146;  174,328;10495,044;14,46429
 231,51; 1758,090;  179,117;10729,351;14,96624
 232,10; 1792,938;  181,970;11125,042;14,72135
 232,70; 1863,862;  197,706;11327,421;14,97034
 233,30; 1962,762;  217,962;11566,044;15,37529
 233,90; 2007,487;  184,193;11672,874;15,87035
 234,50; 2004,222;  184,348;11762,227;15,71854
 235,10; 2054,704;  181,042;11763,892;16,17617
 235,70; 2137,020;  199,801;11795,777;16,70596
 236,29; 2151,443;  199,490;11790,212;16,84066
 236,89; 2131,637;  173,867;11668,517;17,03201
 237,49; 2169,114;  194,422;11531,473;17,41804
 238,09; 2151,387;  184,188;11258,005;17,76442
 238,69; 2182,031;  225,709;10981,786;18,18806
 239,29; 2107,630;  177,187;10668,835;18,39981
 239,89; 2099,528;  207,482;10293,457;18,75917
 240,48; 2053,573;  187,496; 9905,604;19,20206
 241,08; 2040,008;  193,033; 9504,563;19,83536
 241,68; 2046,590;  210,727; 9188,966;20,44791
 242,28; 1993,438;  184,346; 8793,143;21,01446
 242,88; 2009,399;  230,430; 8481,530;21,56038
 243,48; 2002,716;  238,191; 8141,747;22,32571
 244,07; 1977,702;  198,262; 7914,995;23,05950
 244,67; 1978,773;  216,267; 7750,440;23,39349
 245,27; 1984,932;  214,795; 7569,124;24,06932
 245,87; 2033,026;  207,352; 7508,591;25,00499
 246,47; 2046,900;  205,257; 7502,141;25,23876
 247,06; 2085,223;  196,187; 7436,481;26,09060
 247,66; 2142,395;  190,882; 7536,970;26,56533
 248,26; 2262,251;  215,797; 7659,802;27,49130
 248,86; 2365,619;  208,027; 7773,824;28,51771
 249,46; 2400,769;  157,732; 8056,240;28,39824
 250,05; 2607,855;  203,419; 8430,382;29,22629
 250,65; 2709,175;  170,717; 8749,185;29,59104
 251,25; 2915,081;  192,186; 9257,926;30,03500
 251,85; 3150,230;  189,328; 9838,778;30,68466
 252,44; 3329,139;  157,644;10487,925;30,70096
 253,04; 3655,669;  212,953;11180,039;31,39135
 253,64; 3870,010;  159,100;11919,352;31,55468
 254,24; 4270,996;  214,265;12914,502;31,94217
 254,84; 4573,385;  185,194;13814,933;32,19571
 255,43; 4972,495;  184,183;14851,732;32,64562
 256,03; 5357,973;  190,255;15905,993;32,88244
 256,63; 5753,976;  194,944;17012,116;33,05569
 257,23; 6053,486;  170,483;17967,154;33,05676
 257,82; 6506,152;  202,554;18985,983;33,55936
 258,42; 6792,082;  145,935;19935,819;33,58356
 259,02; 7224,480;  201,184;20864,266;33,98959
 259,62; 7477,177;  183,087;21654,872;33,97058
 260,21; 7749,854;  197,029;22196,203;34,33231
 260,81; 7947,880;  190,268;22801,606;34,30850
 261,41; 8152,055;  177,399;23313,600;34,46830
 262,01; 8383,640;  211,316;23821,639;34,61335
 262,60; 8471,640;  172,944;24241,692;34,47913
 263,20; 8626,512;  176,487;24635,120;34,54823
 263,80; 8647,835;  207,546;24852,328;34,24777
 264,40; 8730,320;  167,317;25095,732;34,35037
 264,99; 8839,027;  195,545;25238,610;34,51447
 265,59; 8848,847;  171,614;25477,207;34,28978
 266,19; 8943,002;  182,546;25585,669;34,48574
 266,78; 9005,040;  226,003;25736,284;34,41372
 267,38; 8879,752;  201,923;25781,847;33,92437
 267,98; 8890,066;  189,696;25840,891;33,91799
 268,58; 8849,477;  194,077;25858,599;33,72515
 269,17; 8854,148;  178,070;25860,805;33,78175
 269,77; 8693,520;  207,403;25655,750;33,34643
 270,37; 8642,453;  166,545;25618,299;33,30186
 270,96; 8589,437;  223,169;25438,167;33,17973
 271,56; 8407,008;  190,174;25228,560;32,81695
 272,16; 8295,654;  182,321;25020,391;32,66491
 272,75; 8181,164;  195,860;25016,044;32,17262
 273,35; 8151,421;  200,708;24855,008;32,24879
 273,95; 8045,638;  192,860;24737,232;31,99421
 274,54; 7993,281;  179,495;24928,455;31,57218
 275,14; 8065,656;  220,401;25139,722;31,48262
 275,74; 8016,029;  169,091;25213,532;31,33205
 276,33; 8133,375;  217,942;25691,686;31,07291
 276,93; 8126,494;  204,036;26054,556;30,64719
 277,53; 8264,533;  193,567;26511,015;30,66774
 278,12; 8385,407;  174,715;27017,644;30,58791
 278,72; 8568,549;  233,104;27762,943;30,27785
 279,32; 8706,103;  192,411;28294,102;30,29601
 279,91; 8852,582;  182,563;28957,693;30,13025
 280,51; 9047,921;  189,798;29510,574;30,21108
 281,11; 9206,845;  200,640;30262,599;29,95881
 281,70; 9359,100;  174,024;30711,540;30,07801
 282,30; 9575,393;  187,021;31444,406;30,03569
 282,90; 9715,018;  185,020;31805,496;30,13869
 283,49; 9926,665;  195,170;32334,427;30,27915
 284,09;10063,414;  215,177;32725,455;30,29269
 284,69;10254,176;  221,180;33260,773;30,36658
 285,28;10425,863;  210,331;33621,729;30,57499
 285,88;10628,355;  261,859;33732,635;30,97178
 286,47;10625,235;  203,405;33898,539;30,92978
 287,07;10838,551;  221,719;33912,914;31,51219
 287,67;11033,409;  206,806;34022,901;32,01612
 288,26;11098,493;  188,565;34016,478;32,25126
 288,86;11243,097;  175,562;34056,750;32,66572
 289,46;11530,608;  200,718;34230,300;33,29424
 290,05;11758,837;  191,570;34225,200;33,98776
 290,65;11987,645;  193,942;34400,326;34,47807
 291,24;12321,789;  196,104;34523,264;35,32388
 291,84;12634,207;  214,867;34720,346;35,99237
 292,44;12925,922;  196,346;34843,036;36,74110
 293,03;13323,690;  274,566;34928,448;37,65559
 293,63;13465,819;  187,251;35113,556;38,01882
 294,22;13773,252;  215,871;35285,108;38,65890
 294,82;13946,939;  187,394;35265,138;39,22585
 295,41;13998,023;  173,331;34979,002;39,71965
 296,01;14148,842;  225,089;34862,268;40,19886
 296,61;14189,215;  225,258;34641,414;40,57384
 297,20;14092,596;  200,859;34275,725;40,76828
 297,80;14143,258;  211,803;34039,254;41,18388
 298,39;13990,922;  175,713;33651,009;41,26986
 298,99;14033,790;  223,400;33553,030;41,43577
 299,58;13970,991;  223,420;33451,560;41,37328
 300,18;13914,270;  218,725;33178,930;41,55176
 300,78;13766,156;  196,414;32763,057;41,66761
 301,37;13792,202;  207,236;32759,607;41,73265
 301,97;13846,101;  207,333;32712,436;41,95885
 302,56;13771,219;  200,327;32605,176;41,87920
 303,16;13712,137;  173,556;32422,182;41,98189
 303,75;13699,782;  197,877;32489,889;41,81190
 304,35;13854,847;  179,041;32689,675;42,06564
 304,94;13812,336;  184,026;32786,534;41,80142
 305,54;13844,492;  203,259;32726,019;41,94365
 306,13;13803,127;  170,119;32615,867;42,01786
 306,73;13703,162;  176,500;32401,511;41,97567
 307,33;13689,722;  194,575;32387,508;41,91960
 307,92;13711,888;  217,258;32372,003;41,96777
 308,52;13866,473;  173,555;32855,760;41,89717
 309,11;14152,450;  192,858;33394,380;42,04504
 309,71;14213,277;  167,777;33672,532;41,92092
 310,30;14340,686;  186,411;33821,965;42,08129
 310,90;14514,840;  234,796;34177,350;42,07121
 311,49;14585,977;  207,949;34320,218;42,14914
 312,09;14587,469;  160,802;34482,793;42,03330
 312,68;14846,351;  252,952;34917,591;42,09881
 313,28;14891,811;  174,950;35101,003;42,13720
 313,87;14938,429;  159,411;35171,589;42,21108
 314,47;15070,695;  183,013;35477,156;42,18173
 315,06;15111,770;  179,951;35522,007;42,24944
 315,66;15175,238;  176,186;35733,947;42,18222
 316,25;15132,385;  157,480;35683,007;42,15252
 316,85;15195,274;  165,879;35742,567;42,24507
 317,44;15293,906;  179,551;35869,926;42,34855
 318,04;15254,986;  176,097;35916,590;42,18993
 318,63;15239,108;  165,500;35908,327;42,17240
 319,22;15285,071;  193,788;36093,245;42,03764
 319,82;15354,343;  202,099;35976,755;42,35469
 320,41;15312,735;  202,942;35992,053;42,21897
 321,01;15325,517;  207,724;36146,166;42,06580
 321,60;15411,500;  207,946;36070,930;42,39345
 322,20;15384,969;  173,797;36028,101;42,42495
 322,79;15425,562;  215,566;36180,362;42,29134
 323,39;15417,103;  183,271;36242,924;42,24620
 323,98;15398,569;  172,029;36090,019;42,39252
 324,58;15364,957;  180,863;36020,884;42,36631
 325,17;15326,257;  185,865;35870,151;42,42874
 325,76;15291,448;  209,949;35657,923;42,54545
 326,36;15220,988;  180,493;35334,794;42,78422
 326,95;15113,934;  213,331;35040,737;42,78413
 327,55;14897,362;  179,561;34519,396;42,85927
 328,14;14842,397;  176,804;34236,326;43,05872
 328,74;14676,898;  210,865;33788,296;43,08261
 329,33;14604,083;  208,723;33387,282;43,38754
 329,92;14345,915;  181,704;32810,785;43,40978
 330,52;14156,776;  198,112;32188,411;43,63405
 331,11;13920,908;  186,100;31720,361;43,55519
 331,71;13736,197;  188,179;31220,770;43,65739
 332,30;13593,105;  207,410;30698,073;43,90096
 332,89;13446,759;  253,492;30113,996;44,18300
 333,49;13143,187;  218,331;29589,246;44,00563
 334,08;12977,647;  189,253;29096,811;44,23893
 334,68;12793,253;  199,945;28649,029;44,26613
 335,27;12704,777;  207,729;28405,999;44,31849
 335,86;12636,600;  253,023;28031,208;44,58022
 336,46;12501,396;  202,499;27752,328;44,64237
 337,05;12521,939;  196,484;27515,575;45,11664
 337,65;12441,276;  179,253;27432,691;44,99257
 338,24;12511,655;  232,259;27393,801;45,20876
 338,83;12541,559;  210,952;27260,698;45,58493
 339,43;12519,542;  187,403;27263,797;45,54572
 340,02;12537,721;  186,941;27114,892;45,86602
 340,61;12618,748;  191,105;27199,191;46,01453
 341,21;12721,437;  223,173;27164,989;46,38983
 341,80;12727,602;  185,330;27122,563;46,56110
 342,40;12809,910;  188,189;27247,077;46,64538
 342,99;12924,067;  194,723;27356,765;46,86446
 343,58;13082,776;  183,493;27478,513;47,25874
 344,18;13281,068;  208,416;27601,431;47,72257
 344,77;13436,038;  183,325;27959,751;47,71209
 345,36;13656,626;  163,562;28209,737;48,11017
 345,96;13940,821;  204,108;28494,299;48,55645
 346,55;14126,876;  177,656;28716,329;48,87831
 347,14;14394,363;  175,959;29085,295;49,18274
 347,74;14712,853;  153,510;29550,925;49,52593
 348,33;15167,150;  182,740;30209,862;49,90292
 348,92;15493,757;  207,437;30725,797;50,08893
 349,52;15813,890;  168,666;31257,287;50,32460
 350,11;16123,284;  193,632;31541,063;50,81645
 350,70;16228,142;  186,027;31685,435;50,92831
 351,29;16183,149;  168,003;31461,114;51,17786
 351,89;16279,428;  207,165;31392,717;51,53753
 352,48;16388,151;  162,412;31412,140;51,92282
 353,07;16418,219;  194,498;31342,589;52,08576
 353,67;16492,456;  202,438;31275,378;52,42509
 354,26;16467,308;  189,728;31048,188;52,74917
 354,85;16453,880;  191,110;31019,938;52,75183
 355,45;16443,803;  171,329;30726,474;53,25609
 356,04;16466,742;  184,422;30690,353;53,37428
 356,63;16454,245;  235,332;30434,989;53,70562
 357,22;16438,693;  199,237;30226,312;54,08271
 357,82;16398,727;  196,086;30104,087;54,17494
 358,41;16454,191;  211,718;29983,240;54,55708
 359,00;16374,641;  170,096;29761,074;54,76178
 359,60;16494,402;  193,951;29763,524;55,12576
 360,19;16387,586;  208,193;29572,844;55,09820
 360,78;16399,000;  199,484;29434,366;55,41160
 361,37;16435,551;  192,407;29202,554;55,99125
 361,97;16401,614;  193,871;29156,830;55,96025
 362,56;16268,172;  181,247;28846,136;56,12066
 363,15;16291,951;  249,329;28535,867;56,71469
 363,74;16100,577;  200,090;28197,699;56,79230
 364,34;16012,837;  213,480;27826,455;57,21715
 364,93;15761,834;  196,246;27426,893;57,16202
 365,52;15584,292;  161,715;27035,361;57,38922
 366,11;15510,818;  185,326;26767,506;57,65325
 366,71;15287,763;  171,788;26287,784;57,88014
 367,30;15229,042;  198,023;25978,720;58,30339
 367,89;15080,383;  228,725;25806,704;58,06424
 368,48;14938,987;  196,399;25384,459;58,53007
 369,07;14740,526;  191,104;24999,127;58,64805
 369,67;14577,777;  213,554;24635,535;58,81678
 370,26;14497,091;  174,951;24350,656;59,24187
 370,85;14367,577;  190,408;24181,776;59,09279
 371,44;14315,941;  196,794;23928,164;59,49571
 372,03;14191,782;  175,557;23678,733;59,63545
 372,63;14056,354;  171,485;23427,203;59,70518
 373,22;13969,664;  180,411;23100,841;60,16140
 373,81;13754,939;  169,023;22741,652;60,18757
 374,40;13643,573;  188,573;22536,065;60,20810
 374,99;13568,300;  175,175;22255,171;60,65728
 375,59;13417,589;  178,803;21927,532;60,87154
 376,18;13335,734;  209,330;21828,824;60,71559
 376,77;13283,595;  211,564;21650,650;60,97289
 377,36;13281,433;  216,177;21528,174;61,30470
 377,95;13139,020;  202,712;21280,852;61,37310
 378,55;13103,132;  185,262;21060,243;61,88207
 379,14;13007,949;  203,484;21020,434;61,50980
 379,73;13015,738;  198,866;20886,074;61,95555
 380,32;13087,944;  201,025;20967,569;62,05616
 380,91;13024,388;  183,630;20786,052;62,32645
 381,50;13023,646;  196,094;20788,016;62,29410
 382,10;13002,867;  173,179;20650,569;62,65295
 382,69;12971,266;  171,561;20617,678;62,60213
 383,28;13009,128;  209,710;20536,939;62,96686
 383,87;12931,544;  186,171;20358,768;63,18162
 384,46;12958,391;  168,702;20349,510;63,37551
 385,05;12984,008;  203,632;20343,508;63,45807
 385,64;13018,049;  191,480;20334,968;63,67601
 386,24;13016,442;  175,240;20228,134;64,03665
 386,83;13125,938;  204,931;20334,857;64,18805
 387,42;13144,921;  199,635;20459,728;63,89549
 388,01;13312,144;  193,463;20576,120;64,36198
 388,60;13469,818;  203,242;20827,863;64,32398
 389,19;13663,672;  184,069;21101,875;64,44081
 389,78;13838,712;  180,917;21319,797;64,60984
 390,37;14207,564;  257,005;21778,099;64,82272
 390,96;14327,823;  201,009;21931,882;65,00804
 391,56;14418,756;  197,604;22109,404;64,90180
 392,15;14652,573;  181,688;22334,496;65,32303
 392,74;14791,753;  165,592;22547,688;65,34760
 393,33;15015,669;  191,680;22808,033;65,54544
 393,92;15318,745;  186,355;23277,774;65,53253
 394,51;15474,050;  180,372;23463,397;65,68596
 395,10;15605,299;  214,182;23664,751;65,63217
 395,69;15721,410;  191,185;23849,834;65,64291
 396,28;15874,627;  208,560;23985,185;65,88852
 396,87;15938,611;  201,005;24001,921;66,12185
 397,46;16027,433;  225,763;24097,362;66,19443
 398,06;16245,528;  233,596;24304,566;66,51968
 398,65;16311,485;  204,487;24408,209;66,54761
 399,24;16391,105;  221,865;24575,099;66,39463
 399,83;16371,883;  188,740;24616,465;66,24908
 400,42;16468,793;  230,158;24717,963;66,31315
 401,01;16562,252;  213,724;24823,113;66,43208
 401,60;16670,710;  221,426;24869,234;66,73731
 402,19;16637,436;  246,757;24838,259;66,65180
 402,78;16650,604;  241,521;24874,996;66,61295
 403,37;16559,939;  229,904;24657,434;66,85095
 403,96;16490,264;  230,813;24584,423;66,76403
 404,55;16401,039;  232,018;24486,578;66,66384
 405,14;16312,290;  225,003;24325,384;66,75117
 405,73;16266,134;  236,356;24215,857;66,84784
 406,32;16246,851;  248,205;24158,146;66,91211
 406,91;16079,047;  232,429;23903,949;66,94381
 407,50;15974,450;  240,770;23743,123;66,94513
 408,09;15839,847;  217,586;23438,307;67,27724
 408,68;15729,811;  223,564;23348,146;67,05525
 409,27;15599,932;  216,669;23096,682;67,23450
 409,86;15504,504;  234,427;22907,263;67,34966
 410,45;15487,190;  264,098;22908,280;67,22739
 411,04;15370,986;  257,693;22826,099;66,96660
 411,63;15219,385;  254,536;22601,988;66,96445
 412,22;15114,013;  258,757;22399,880;67,09351
 412,81;14858,271;  262,165;22137,078;66,72532
 413,40;14619,454;  270,118;21770,582;66,73966
 413,99;14442,806;  320,032;21514,368;66,63466
 414,58;14159,262;  245,500;21002,093;67,03298
 415,17;14019,822;  252,165;20794,881;67,01965
 415,76;13876,267;  245,677;20690,617;66,66975
 416,35;13712,200;  241,306;20435,067;66,70820
 416,94;13757,919;  273,837;20468,723;66,76978
 417,53;13960,641;  247,090;20661,892;67,17455
 418,12;13990,790;  250,789;20730,002;67,09243
 418,71;14231,076;  284,196;21138,316;66,87830
 419,30;14293,359;  243,406;21254,449;66,86937
 419,89;14397,469;  238,489;21375,380;66,98705
 420,48;14620,881;  277,427;21641,859;67,13707
 421,07;14680,000;  271,278;21753,803;67,07183
 421,66;14672,379;  232,062;21830,402;66,85846
 422,25;14673,826;  256,011;21813,606;66,88044
 422,84;14615,464;  271,170;21774,986;66,70581
 423,43;14489,876;  243,543;21522,667;66,94981
 424,02;14307,533;  295,856;21273,919;66,79205
 424,60;13947,795;  252,196;20895,165;66,34510
 425,19;13756,099;  272,872;20576,013;66,40957
 425,78;13735,575;  272,566;20533,943;66,44667
 426,37;13596,702;  265,731;20311,570;66,50244
 426,96;13506,254;  261,347;20209,604;66,39631
 427,55;13351,203;  245,441;20098,007;66,01546
 428,14;13192,565;  251,296;19836,295;66,07746
 428,73;13066,487;  261,358;19605,346;66,19694
 429,32;13035,204;  282,422;19611,131;65,97845
 429,91;13013,724;  284,281;19588,850;65,94005
 430,50;12924,273;  273,829;19440,017;66,00396
 431,08;12773,084;  283,454;19350,167;65,50489
 431,67;12751,386;  318,462;19182,511;65,90803
 432,26;12657,869;  331,086;19155,739;65,48213
 432,85;12375,310;  370,314;18684,997;65,54848
 433,44;12158,707;  372,634;18412,188;65,33461
 434,03;11951,139;  376,958;18036,127;65,54205
 434,62;11618,967;  339,404;17571,200;65,45785
 435,21;11448,465;  349,008;17407,817;65,06584
 435,79;11379,660;  357,875;17202,200;65,43322
 436,38;11281,858;  346,583;17105,118;65,25197
 436,97;11224,613;  341,278;17034,240;65,19715
 437,56;11077,548;  340,148;16753,433;65,41896
 438,15;10990,178;  318,296;16653,567;65,33030
 438,74;10990,924;  334,914;16701,368;65,10885
 439,33;10986,194;  313,603;16706,956;65,10316
 439,91;11029,634;  270,537;16797,114;65,10179
 440,50;11030,347;  317,538;16821,882;64,90903
 441,09;11096,415;  331,321;16962,768;64,72735
 441,68;11045,839;  300,719;16895,307;64,75075
 442,27;11095,197;  287,252;16926,060;64,95624
 442,86;11007,149;  266,821;16917,102;64,50539
 443,44;11028,209;  283,353;16958,484;64,43641
 444,03;11182,066;  362,206;17011,572;64,98662
 444,62;11010,351;  295,206;16877,679;64,61730
 445,21;10905,233;  284,125;16743,861;64,52781
 445,80;10833,018;  330,527;16620,048;64,47391
 446,39;10714,962;  355,677;16340,226;64,80811
 446,97;10481,149;  289,850;16108,364;64,42640
 447,56;10368,506;  294,172;15926,377;64,44602
 448,15;10236,267;  283,311;15814,667;64,08298
 448,74;10039,688;  303,698;15502,029;64,05960
 449,33; 9927,484;  296,246;15334,790;64,04369
 449,91; 9801,641;  289,955;15119,481;64,14019
 450,50; 9619,504;  290,105;15001,407;63,41654
 451,09; 9556,531;  306,338;14839,679;63,64809
 451,68; 9555,366;  320,114;14679,951;64,31307
 452,26; 9447,612;  321,967;14621,445;63,81803
 452,85; 9339,477;  292,425;14589,803;63,27770
 453,44; 9372,359;  301,292;14524,425;63,77685
 454,03; 9302,936;  292,818;14532,629;63,27414
 454,61; 9232,921;  288,063;14408,138;63,34852
 455,20; 9353,597;  318,378;14606,802;63,23453
 455,79; 9322,446;  313,981;14599,771;63,05892
 456,38; 9352,013;  323,467;14697,326;62,81226
 456,97; 9381,148;  298,233;14764,556;62,78662
 457,55; 9354,158;  300,165;14841,339;62,26453
 458,14; 9344,630;  335,922;14834,503;62,13510
 458,73; 9332,720;  312,859;14726,820;62,57725
 459,31; 9343,038;  343,949;14761,347;62,41826
 459,90; 9373,000;  360,711;14809,037;62,37601
 460,49; 9445,109;  408,784;14942,507;62,17489
 461,08; 9442,290;  308,955;14982,141;62,24507
 461,66; 9431,890;  318,718;15006,878;62,04434
 462,25; 9453,393;  326,808;15146,311;61,58496
 462,84; 9459,236;  339,803;15159,238;61,53698
 463,43; 9449,921;  285,899;15173,534;61,55458
 464,01; 9435,951;  321,136;15166,802;61,39714
 464,60; 9414,154;  369,663;15137,837;61,24312
 465,19; 9153,829;  298,140;14904,298;60,62983
 465,77; 9218,382;  325,609;14883,177;61,08694
 466,36; 9130,866;  348,053;14725,196;61,08872
 466,95; 8886,034;  323,593;14453,511;60,59795
 467,53; 8721,735;  317,463;14207,375;60,50630
 468,12; 8549,400;  360,004;13891,232;60,52219
 468,71; 8401,436;  332,526;13630,874;60,67603
 469,29; 8228,151;  314,621;13356,641;60,67718
 469,88; 7989,848;  331,242;13135,149;59,81460
 470,47; 8098,937;  392,485;13265,570;59,86484
 471,06; 8050,723;  344,178;13220,317;59,85136
 471,64; 8094,496;  337,867;13284,517;59,91225
 472,23; 8046,281;  316,122;13267,731;59,68493
 472,81; 8137,547;  309,418;13414,963;59,73143
 473,40; 8160,230;  312,738;13581,645;59,14196
 473,99; 8327,429;  429,815;13753,277;59,27598
 474,57; 8319,367;  339,891;13879,513;58,93426
 475,16; 8393,953;  340,190;14023,474;58,85841
 475,75; 8434,531;  369,054;14136,680;58,58292
 476,33; 8518,513;  362,295;14221,809;58,84924
 476,92; 8464,654;  357,279;14265,335;58,29266
 477,51; 8511,586;  359,752;14364,120;58,20923
 478,09; 8484,215;  341,522;14420,616;57,83535
 478,68; 8423,400;  348,525;14328,112;57,76190
 479,27; 8429,679;  385,670;14399,919;57,39879
 479,85; 8389,022;  353,063;14334,797;57,47469
 480,44; 8419,852;  340,991;14525,536;56,95538
 481,02; 9024,878;  354,461;15641,632;56,71695
 481,61;10167,045;  381,919;17838,460;56,05421
 482,20;10889,221;  365,846;19086,866;56,21155
 482,78;11374,255;  391,912;19995,974;56,02075
 483,37;11683,318;  379,244;20514,022;56,14203
 483,95;11818,108;  421,785;20894,302;55,66645
 484,54;11915,252;  428,687;21020,824;55,78132
 485,13;11804,988;  392,334;21004,797;55,36774
 485,71;11713,418;  377,484;20789,146;55,53655
 486,30;11634,662;  421,407;20504,103;55,83540
 486,88;11378,718;  465,487;20102,079;55,57599
 487,47;10999,083;  419,182;19352,517;55,87975
 488,05;10463,089;  405,572;18537,919;55,46727
 488,64; 9718,578;  418,428;17242,064;55,28026
 489,23; 8751,441;  419,113;15413,400;55,57002
 489,81; 7436,312;  421,501;13197,316;54,90695
 490,40; 6972,691;  374,656;12419,682;54,77809
 490,98; 6767,650;  374,122;12201,969;54,05488
 491,57; 6688,858;  402,268;12017,048;54,12578
 492,15; 6601,202;  374,047;11982,283;53,64428
 492,74; 6568,581;  384,111;11912,700;53,64463
 493,32; 6485,181;  393,968;11860,619;53,12112
 493,91; 6392,947;  363,821;11670,779;53,32226
 494,50; 6348,915;  372,223;11641,362;53,03592
 495,08; 6259,908;  362,223;11616,013;52,40621
 495,67; 6295,923;  385,281;11611,836;52,64876
 496,25; 6178,741;  329,291;11469,259;52,50868
 496,84; 6136,554;  340,665;11434,149;52,24589
 497,42; 6117,331;  336,602;11368,782;52,39879
 498,01; 6065,309;  362,590;11358,501;51,86217
 498,59; 6029,816;  329,835;11226,340;52,31017
 499,18; 5922,890;  321,284;11196,086;51,50996
 499,76; 5918,392;  355,599;11118,571;51,68455
 500,35; 5786,556;  331,689;10916,098;51,53681
 500,93; 5741,083;  333,525;10882,188;51,26297
 501,52; 5659,088;  331,834;10789,798;50,93968
 502,10; 5644,549;  339,774;10811,006;50,66047
 502,69; 5542,489;  322,395;10642,086;50,58382
 503,27; 5424,008;  301,916;10388,494;50,78127
 503,86; 5353,753;  325,008;10347,452;50,17484
 504,44; 5276,296;  301,706;10188,037;50,31786
 505,03; 5132,396;  292,629;10037,699;49,66374
 505,61; 5054,012;  309,088; 9844,697;49,76006
 506,19; 5002,809;  330,321; 9739,815;49,65716
 506,78; 4888,158;  307,949; 9486,017;49,90385
 507,36; 4747,267;  307,167; 9362,102;49,03514
 507,95; 4662,502;  305,647; 9190,431;49,03727
 508,53; 4628,100;  295,641; 9055,889;49,45589
 509,12; 4531,837;  320,030; 8923,036;48,95740
 509,70; 4417,731;  342,648; 8747,999;48,48200
 510,29; 4374,607;  346,886; 8644,959;48,53804
 510,87; 4237,286;  297,949; 8452,257;48,30989
 511,46; 4113,913;  301,182; 8258,370;47,91556
 512,04; 4081,409;  318,112; 8129,275;48,17844
 512,62; 3969,619;  313,798; 7965,173;47,77991
 513,21; 3864,316;  290,502; 7825,629;47,42872
 513,79; 3803,854;  296,137; 7658,275;47,64536
 514,38; 3732,105;  277,822; 7517,323;47,71437
 514,96; 3693,809;  324,283; 7468,307;47,16566
 515,54; 3580,175;  289,518; 7323,410;46,78287
 516,13; 3535,307;  319,981; 7239,029;46,47065
 516,71; 3457,804;  295,912; 7048,137;46,82740
 517,30; 3365,457;  297,381; 6947,063;46,13869
 517,88; 3333,716;  317,227; 6878,640;45,97316
 518,46; 3216,065;  285,076; 6730,611;45,47316
 519,05; 3210,947;  294,698; 6703,333;45,50501
 519,63; 3194,154;  302,310; 6616,340;45,80028
 520,22; 3164,035;  314,938; 6593,731;45,37651
 520,80; 3064,231;  297,708; 6508,854;44,54127
 521,38; 3100,891;  346,545; 6486,640;44,85836
 521,97; 3006,575;  294,483; 6443,422;44,10667
 522,55; 3009,585;  305,560; 6389,435;44,44577
 523,13; 2996,864;  297,334; 6387,909;44,32307
 523,72; 2966,016;  291,384; 6378,496;43,93927
 524,30; 3018,358;  326,954; 6516,379;43,48391
 524,89; 2990,618;  291,176; 6523,006;43,31699
 525,47; 3015,895;  309,803; 6618,150;42,89701
 526,05; 3027,819;  286,035; 6671,354;42,93888
 526,64; 3093,585;  315,193; 6804,078;42,81772
 527,22; 3131,783;  312,264; 6914,608;42,70481
 527,80; 3155,238;  358,961; 7003,360;42,08472
 528,39; 3140,716;  295,504; 7098,852;41,82076
 528,97; 3227,794;  307,809; 7247,004;42,07960
 529,55; 3284,370;  317,718; 7432,849;41,69497
 530,14; 3380,062;  339,200; 7651,572;41,58516
 530,72; 3380,192;  303,963; 7691,269;41,64209
 531,30; 3422,181;  288,355; 7850,156;41,44285
 531,89; 3440,982;  322,970; 7970,985;40,76891
 532,47; 3505,337;  334,281; 8056,487;41,06412
 533,05; 3499,225;  336,884; 8120,403;40,62868
 533,63; 3499,944;  339,898; 8132,062;40,55415
 534,22; 3517,319;  316,975; 8165,049;40,77872
 534,80; 3529,082;  324,599; 8286,546;40,24748
 535,38; 3585,676;  428,279; 8387,112;39,67160
 535,97; 3515,164;  323,050; 8292,999;40,05187
 536,55; 3547,686;  377,985; 8392,947;39,54730
 537,13; 3510,296;  378,431; 8402,746;39,02968
 537,71; 3542,715;  414,891; 8388,624;39,22659
 538,30; 3583,158;  438,209; 8503,060;38,99575
 538,88; 3628,069;  486,299; 8579,232;38,82115
 539,46; 3709,630;  526,599; 8757,867;38,67000
 540,05; 3721,297;  563,988; 8896,209;37,89277
 540,63; 3815,224;  590,912; 9121,692;37,79622
 541,21; 3864,157;  627,994; 9215,345;37,68523
 541,79; 3914,112;  675,378; 9361,944;37,28440
 542,38; 3950,562;  708,756; 9493,009;36,90475
 542,96; 3990,390;  708,462; 9675,574;36,59961
 543,54; 4072,676;  729,685; 9843,577;36,68017
 544,12; 4123,851;  708,919; 9988,780;36,79939
 544,70; 4117,968;  689,463;10076,676;36,52314
 545,29; 4152,290;  693,987;10209,475;36,34394
 545,87; 4171,189;  679,455;10317,020;36,23046
 546,45; 4127,437;  622,910;10274,433;36,31062
 547,03; 4121,155;  624,530;10355,245;35,93390
 547,62; 4176,472;  580,918;10495,003;36,26713
 548,20; 4193,986;  582,077;10633,114;35,93568
 548,78; 4190,316;  539,787;10763,419;35,70678
 549,36; 4233,148;  506,785;10946,028;35,69572
 549,94; 4257,480;  466,613;11069,248;35,75401
 550,53; 4325,553;  482,628;11307,205;35,50185
 551,11; 4349,553;  436,405;11423,540;35,61572
 551,69; 4409,661;  452,323;11763,498;34,98609
 552,27; 4442,367;  414,624;12006,016;34,74771
 552,85; 4586,693;  410,405;12368,352;34,92479
 553,44; 4619,548;  417,553;12606,340;34,47427
 554,02; 4768,836;  416,172;12948,701;34,73093
 554,60; 4819,727;  360,176;13286,616;34,49945
 555,18; 4925,642;  406,785;13666,087;34,08065
 555,76; 4976,243;  381,095;13938,209;33,89473
 556,34; 5138,594;  392,798;14286,410;34,15812
 556,93; 5222,636;  369,862;14742,172;33,76474
 557,51; 5307,421;  364,106;15086,384;33,57711
 558,09; 5408,722;  384,324;15381,647;33,50197
 558,67; 5517,399;  370,726;15790,824;33,37640
 559,25; 5577,153;  391,185;15994,843;33,23559
 559,83; 5645,073;  368,423;16349,542;33,01802
 560,41; 5725,477;  358,718;16741,412;32,75871
 561,00; 5827,983;  380,573;17058,456;32,66248
 561,58; 5889,713;  365,256;17295,942;32,62985
 562,16; 5944,159;  352,636;17563,758;32,48784
 562,74; 6066,749;  343,172;18019,534;32,37984
 563,32; 6154,521;  340,884;18463,047;32,08026
 563,90; 6267,114;  374,111;18751,178;32,06716
 564,48; 6370,744;  383,409;19141,490;31,91870
 565,06; 6491,940;  369,418;19742,025;31,60402
 565,65; 6739,031;  380,354;20392,804;31,77360
 566,23; 6940,973;  417,727;21174,520;31,42704
 566,81; 7102,371;  365,877;21803,886;31,42313
 567,39; 7350,507;  377,348;22719,322;31,21102
 567,97; 7514,318;  395,417;23375,137;30,97906
 568,55; 7766,957;  408,653;24221,748;30,90024
 569,13; 7957,108;  367,112;24876,340;30,96791
 569,71; 8182,684;  372,944;25867,724;30,63270
 570,29; 8476,523;  416,862;26786,630;30,56402
 570,87; 8707,539;  405,557;27584,995;30,54508
 571,45; 8848,527;  400,111;28290,910;30,29105
 572,03; 8934,797;  355,581;28672,731;30,29689
 572,61; 9080,921;  353,499;29338,205;30,11044
 573,20; 9265,139;  376,952;30011,990;29,99216
 573,78; 9410,313;  371,423;30679,324;29,82354
 574,36; 9527,096;  390,267;31202,664;29,65310
 574,94; 9669,471;  455,967;31659,909;29,52673
 575,52; 9648,463;  394,055;31794,562;29,47216
 576,10; 9887,152;  433,666;32346,027;29,62327
 576,68; 9886,960;  422,273;32898,129;29,14376
 577,26;10115,787;  451,214;33577,054;29,17533
 577,84;10210,850;  455,498;34085,120;29,00821
 578,42;10344,957;  499,201;34419,056;29,02653
 579,00;10230,335;  453,885;34499,448;28,71578
 579,58;10292,122;  494,352;34762,836;28,59120
 580,16;10225,564;  463,510;34720,555;28,49649
 580,74;10223,187;  469,742;34999,443;28,24654
 581,32;10228,540;  468,507;34998,792;28,26514
 581,90;10128,837;  496,279;34962,551;27,94778
 582,48;10104,587;  474,357;35030,909;27,86803
 583,06;10169,049;  478,276;35274,242;27,85028
 583,64;10099,811;  484,198;35241,277;27,66519
 584,22; 9960,943;  489,519;35129,513;27,34245
 584,80; 9820,938;  498,124;34846,492;27,14194
 585,38; 9713,314;  517,797;34446,987;27,10208
 585,96; 9582,173;  479,655;34460,178;26,78746
 586,54; 9587,992;  502,209;34444,318;26,76847
 587,12; 9559,300;  464,205;34628,958;26,62128
 587,70; 9623,872;  502,733;34745,450;26,63673
 588,28; 9483,980;  466,205;34788,386;26,27390
 588,86; 9473,811;  472,361;34790,816;26,22918
 589,44; 9432,907;  440,680;34892,229;26,10108
 590,02; 9428,113;  455,062;35066,005;25,92547
 590,59; 9344,957;  438,209;35229,930;25,60019
 591,17; 9420,310;  442,077;35454,411;25,64306
 591,75; 9393,856;  434,300;35548,657;25,51536
 592,33; 9403,741;  449,682;35684,014;25,41288
 592,91; 9336,022;  402,997;35979,050;25,10966
 593,49; 9448,738;  407,618;36252,507;25,22290
 594,07; 9453,549;  431,464;36510,042;25,00676
 594,65; 9435,375;  445,903;36473,655;24,95152
 595,23; 9479,109;  443,908;36899,907;24,78385
 595,81; 9449,297;  413,218;36986,144;24,70702
 596,39; 9443,336;  424,296;37078,246;24,60592
 596,97; 9451,977;  424,304;37280,341;24,49442
 597,55; 9387,178;  421,905;37309,661;24,30420
 598,12; 9312,541;  395,390;37275,975;24,17844
 598,70; 9262,533;  410,845;37385,292;23,94002
 599,28; 9337,139;  414,614;37516,125;24,04895
 599,86; 9255,847;  407,844;37574,361;23,80638
 600,44; 9278,279;  370,694;37647,632;23,89570
 601,02; 9254,632;  425,938;37762,855;23,64602
 601,60; 9178,045;  408,685;37705,661;23,51225
 602,18; 9141,887;  383,851;37747,488;23,44000
 602,75; 9069,367;  386,294;37756,486;23,23529
 603,33; 9035,569;  407,153;37790,142;23,08113
 603,91; 9045,481;  384,395;37721,005;23,19730
 604,49; 8958,079;  415,461;37758,719;22,87593
 605,07; 8928,458;  428,300;37840,623;22,72021
 605,65; 8970,751;  427,926;37978,541;22,75016
 606,23; 8932,924;  487,977;38103,897;22,45046
 606,80; 8908,015;  542,448;38058,931;22,29838
 607,38; 8878,906;  578,085;38170,951;22,08084
 607,96; 8804,518;  634,371;38194,081;21,75242
 608,54; 8874,706;  700,003;38186,986;21,80678
 609,12; 8839,697;  714,294;38354,841;21,58684
 609,70; 8765,590;  747,998;38368,755;21,31162
 610,27; 8793,344;  742,601;38434,389;21,35941
 610,85; 8801,904;  773,305;38529,208;21,26449
 611,43; 8741,896;  762,614;38461,630;21,16576
 612,01; 8629,931;  743,222;38276,607;21,01252
 612,59; 8580,799;  732,690;38270,554;20,90718
 613,16; 8540,141;  684,981;38193,761;20,94219
 613,74; 8441,252;  655,692;38003,668;20,84600
 614,32; 8401,501;  636,003;38082,592;20,73753
 614,90; 8327,431;  578,456;37936,711;20,74234
 615,48; 8228,124;  525,059;37630,400;20,75999
 616,05; 8168,647;  498,672;37543,036;20,70484
 616,63; 8134,324;  507,207;37447,978;20,64688
 617,21; 8054,706;  496,601;37336,804;20,51592
 617,79; 7966,657;  484,296;37268,587;20,34119
 618,36; 7969,182;  482,069;37275,913;20,34882
 618,94; 7764,967;  427,522;36803,429;20,17117
 619,52; 7704,565;  442,670;36682,811;20,03827
 620,10; 7657,194;  427,602;36564,307;20,00623
 620,67; 7597,699;  430,438;36475,273;19,88429
 621,25; 7533,407;  464,993;36341,460;19,70209
 621,83; 7486,528;  440,137;36286,399;19,65725
 622,41; 7515,457;  503,983;36333,853;19,56880
 622,98; 7364,981;  451,899;36021,051;19,43561
 623,56; 7355,233;  446,282;35995,510;19,43488
 624,14; 7290,092;  423,765;35918,701;19,34453
 624,72; 7245,592;  419,137;35827,288;19,27933
 625,29; 7181,300;  412,513;35931,420;19,05686
 625,87; 7202,548;  457,989;35809,835;19,07838
 626,45; 7102,635;  406,049;35661,101;18,99468
 627,02; 7080,687;  414,913;35708,369;18,88671
 627,60; 6979,013;  395,847;35519,474;18,74284
 628,18; 6922,774;  376,064;35613,072;18,57908
 628,76; 6898,449;  377,823;35574,709;18,52615
 629,33; 6948,824;  420,212;35594,440;18,56078
 629,91; 6901,271;  392,064;35549,845;18,51427
 630,49; 6939,150;  423,056;35731,416;18,45482
 631,06; 6887,248;  400,439;35821,413;18,31347
 631,64; 6847,027;  399,281;35757,143;18,23568
 632,22; 6821,177;  366,123;35640,993;18,29930
 632,79; 6887,322;  408,661;35986,595;18,20977
 633,37; 6817,759;  370,838;35965,811;18,11189
 633,95; 6764,093;  384,664;36011,080;17,90646
 634,52; 6799,095;  365,521;36189,746;17,95872
 635,10; 6787,020;  377,294;36134,077;17,92590
 635,68; 6756,277;  365,277;36399,578;17,73588
 636,25; 6717,333;  358,962;36258,939;17,71135
 636,83; 6740,142;  344,746;36618,786;17,63078
 637,41; 6736,218;  355,736;36545,939;17,63041
 637,98; 6746,563;  391,505;36757,760;17,47515
 638,56; 6724,985;  373,653;36902,018;17,38740
 639,13; 6688,317;  348,360;36975,552;17,30943
 639,71; 6759,437;  421,670;37153,186;17,25430
 640,29; 6662,222;  342,516;36922,296;17,27650
 640,86; 6628,584;  351,440;37025,954;17,11582
 641,44; 6594,099;  347,132;37082,535;17,00530
 642,02; 6622,846;  391,825;37072,039;16,98742
 642,59; 6602,438;  341,441;37344,697;16,92012
 643,17; 6544,953;  344,826;37240,431;16,80451
 643,74; 6557,930;  345,519;37332,781;16,79608
 644,32; 6583,369;  368,673;37176,285;16,88427
 644,89; 6530,423;  367,288;37273,866;16,69928
 645,47; 6498,015;  365,520;37273,601;16,61559
 646,05; 6497,992;  362,828;37166,720;16,66988
 646,62; 6458,430;  350,443;37172,070;16,58804
 647,20; 6482,254;  350,598;37345,959;16,57412
 647,77; 6383,769;  330,367;37107,617;16,45964
 648,35; 6412,054;  326,675;37019,429;16,58469
 648,92; 6372,954;  364,906;37109,163;16,35098
 649,50; 6295,238;  326,137;37018,975;16,26775
 650,08; 6294,369;  311,599;37002,864;16,30571
 650,65; 6324,115;  343,523;37153,906;16,24703
 651,23; 6402,092;  310,523;37858,641;16,22337
 651,80; 6536,377;  313,754;38886,914;16,13200
 652,38; 6585,739;  328,678;39315,956;16,04898
 652,95; 6677,023;  313,678;39767,691;16,12851
 653,53; 6691,692;  340,371;39916,195;16,04849
 654,10; 6774,746;  368,910;40112,391;16,11796
 654,68; 6681,493;  313,987;40043,126;16,02729
 655,25; 6699,008;  309,756;40190,399;16,02093
 655,83; 6691,831;  317,141;40149,673;16,00373
 656,40; 6664,193;  352,373;40164,484;15,85402
 656,98; 6637,400;  319,450;40117,296;15,87511
 657,55; 6618,531;  326,989;39966,800;15,87178
 658,13; 6557,739;  326,989;39564,150;15,87972
 658,70; 6491,024;  341,143;39353,577;15,76390
 659,28; 6358,693;  329,682;38518,389;15,78742
 659,85; 6235,978;  352,836;37644,816;15,77589
 660,43; 6251,185;  348,837;37703,627;15,80078
 661,00; 6193,624;  338,760;37690,824;15,67481
 661,58; 6256,216;  332,991;38098,943;15,68403
 662,15; 6282,039;  307,376;38278,293;15,73484
 662,73; 6357,324;  397,915;38514,951;15,63450
 663,30; 6361,839;  341,146;38722,532;15,68649
 663,88; 6379,662;  336,762;38917,882;15,66284
 664,45; 6400,793;  319,608;39128,386;15,66961
 665,03; 6462,693;  335,686;39535,275;15,63029
 665,60; 6611,824;  427,071;39975,317;15,63850
 666,17; 6519,570;  334,225;40085,206;15,56023
 666,75; 6576,932;  328,764;40366,325;15,60577
 667,32; 6670,217;  358,995;40701,444;15,64412
 667,90; 6685,963;  344,841;40865,410;15,64914
 668,47; 6758,478;  363,380;41122,145;15,69012
 669,05; 6767,917;  330,303;41525,418;15,62713
 669,62; 6750,201;  308,227;41570,152;15,61239
 670,19; 6774,332;  318,535;41644,041;15,62182
 670,77; 6802,694;  332,535;41806,699;15,60046
 671,34; 6838,901;  327,151;41733,895;15,72630
 671,92; 6838,340;  330,921;42058,707;15,59493
 672,49; 6893,317;  357,152;42205,442;15,61871
 673,06; 6858,140;  296,229;42138,792;15,68238
 673,64; 6830,886;  315,306;42104,065;15,59170
 674,21; 6866,632;  306,537;42078,646;15,70449
 674,79; 6910,148;  353,538;42393,304;15,59621
 675,36; 6980,971;  348,307;42591,808;15,70103
 675,93; 6913,025;  309,923;42368,773;15,69967
 676,51; 6970,386;  344,539;42560,431;15,69515
 677,08; 6958,517;  347,155;42653,935;15,62719
 677,65; 7003,110;  333,232;42768,747;15,71768
 678,23; 7098,240;  320,694;42960,481;15,89489
 678,80; 7068,525;  318,079;43157,062;15,75772
 679,38; 7134,117;  325,156;43234,797;15,86814
 679,95; 7178,710;  332,310;43585,839;15,82853
 680,52; 7237,917;  327,464;43712,189;15,92831
 681,10; 7338,433;  344,696;44094,693;15,98569
 681,67; 7376,564;  339,234;44358,197;15,98704
 682,24; 7380,771;  308,389;44439,086;16,02599
 682,82; 7478,056;  321,081;44980,975;16,02551
 683,39; 7595,264;  365,697;45322,786;16,08104
 683,96; 7673,625;  332,544;45596,752;16,21829
 684,54; 7696,141;  306,467;45884,717;16,21316
 685,11; 7799,041;  360,237;46233,990;16,21582
 685,68; 7877,479;  311,468;46585,648;16,35040
 686,25; 7876,764;  303,391;46650,383;16,34059
 686,83; 7976,126;  317,161;46974,502;16,41535
 687,40; 8057,718;  294,315;47295,314;16,51753
 687,97; 8152,541;  337,854;47525,126;16,56101
 688,55; 8204,364;  292,085;47628,091;16,71514
 689,12; 8183,264;  286,470;47867,057;16,59667
 689,69; 8287,472;  283,701;47921,253;16,80139
 690,26; 8286,449;  308,778;48096,295;16,69405
 690,84; 8413,580;  301,009;48252,646;16,91823
 691,41; 8446,326;  325,164;48323,073;16,91983
 691,98; 8538,841;  328,779;48542,730;17,02839
 692,56; 8524,126;  320,780;48735,388;16,94395
 693,13; 8609,487;  365,318;48732,354;17,04502
 693,70; 8644,541;  332,857;48950,165;17,09614
 694,27; 8651,595;  310,396;48987,362;17,13582
 694,84; 8722,572;  308,243;49159,404;17,22442
 695,42; 8817,165;  360,935;49321,370;17,27156
 695,99; 8830,834;  320,705;49499,028;17,30463
 696,56; 8859,118;  322,090;49347,147;17,41360
 697,13; 8980,480;  333,321;49731,497;17,50502
 697,71; 8998,765;  305,706;49833,078;17,55203
 698,28; 9049,126;  316,245;50208,428;17,50351
 698,85; 9046,796;  285,476;50168,855;17,56361
 699,42; 9144,157;  293,322;50374,128;17,67311
 699,99; 9207,749;  337,861;50482,632;17,68856
 700,57; 9268,342;  320,092;50544,444;17,81656
 701,14; 9317,088;  311,170;50638,332;17,89475
 701,71; 9465,296;  342,401;50861,529;18,05830
 702,28; 9428,042;  318,093;50900,033;18,01028
 702,85; 9524,865;  325,709;50990,537;18,15689
 703,43; 9612,457;  348,171;51200,810;18,21791
 704,00; 9679,127;  360,941;51443,006;18,24160
 704,57; 9717,719;  338,095;51548,356;18,31591
 705,14; 9832,619;  360,634;51643,245;18,47017
 705,71; 9896,904;  377,788;51681,441;18,55446
 706,28; 9886,035;  341,711;51600,484;18,61988
 706,86; 9999,012;  367,404;51881,295;18,69711
 707,43;10054,912;  392,558;51784,184;18,80142
 708,00;10054,427;  374,020;51829,688;18,81310
 708,57;10067,019;  357,174;51758,115;18,89040
 709,14;10176,304;  380,252;51864,465;19,02729
 709,71;10214,435;  356,175;51958,661;19,10423
 710,28;10318,873;  350,945;52143,011;19,24605
 710,86;10391,081;  353,637;52296,977;19,32383
 711,43;10468,289;  388,561;52232,712;19,44236
 712,00;10592,420;  347,099;52462,831;19,65879
 712,57;10617,320;  368,792;52613,181;19,61651
 713,14;10698,681;  345,485;52694,839;19,77712
 713,71;10705,274;  342,716;52622,189;19,82147
 714,28;10763,404;  329,562;52587,155;19,96617
 714,85;10851,227;  311,486;52370,428;20,24579
 715,42;10889,589;  318,179;52488,239;20,26337
 716,00;10997,566;  389,717;52650,513;20,29791
 716,57;11034,389;  323,410;52897,863;20,37297
 717,14;11039,828;  300,487;52773,751;20,46631
 717,71;11168,805;  280,872;52697,409;20,77194
 718,28;11259,782;  345,411;52941,529;20,75129
 718,85;11232,451;  294,796;52799,648;20,83170
 719,42;11389,735;  314,719;53093,690;20,98377
 719,99;11412,251;  280,874;52844,041;21,17714
 720,56;11528,151;  327,489;53152,468;21,20334
 721,13;11573,589;  295,413;53200,664;21,31769
 721,70;11637,259;  291,336;53172,091;21,45567
 722,27;11714,005;  327,029;53200,287;21,53636
 722,84;11920,136;  385,875;53456,945;21,73361
 723,41;11880,882;  290,107;53359,757;21,84069
 723,98;11953,320;  312,953;53547,107;21,86635
 724,55;12105,759;  333,030;53651,611;22,07997
 725,12;12091,044;  271,877;53561,499;22,17911
 725,69;12233,636;  289,493;53752,773;22,34084
 726,27;12339,459;  312,031;53853,507;22,46376
 726,84;12500,821;  315,186;54174,550;22,62491
 727,41;12615,721;  314,878;54087,361;22,87572
 727,98;12721,621;  324,648;54389,173;22,92996
 728,55;12848,521;  351,648;54299,215;23,16485
 729,12;12837,190;  298,341;54383,412;23,18357
 729,69;12967,475;  338,572;54596,223;23,27580
 730,26;13085,836;  326,342;54893,881;23,38294
 730,82;13169,967;  321,342;54664,001;23,64372
 731,39;13178,252;  331,650;54859,889;23,55954
 731,96;13362,998;  306,574;55130,547;23,81517
 732,53;13558,359;  335,882;55288,743;24,06149
 733,10;13616,798;  344,343;55336,401;24,13522
 733,67;13719,236;  339,575;55680,674;24,17672
 734,24;13690,521;  329,498;55314,486;24,29940
 734,81;13840,267;  351,960;55457,451;24,47725
 735,38;13770,937;  326,114;55160,648;24,51890
 735,95;13811,837;  331,499;54940,152;24,68535
 736,52;13950,583;  340,961;55244,348;24,78831
 737,09;13947,790;  354,654;54918,775;24,91223
 737,66;14102,614;  403,577;55065,510;25,06138
 738,23;14171,668;  345,424;55071,091;25,26464
 738,80;14327,029;  414,809;55413,749;25,29543
 739,37;14401,083;  371,270;55577,329;25,41354
 739,94;14501,368;  340,578;55636,987;25,60888
 740,51;14660,037;  472,733;55690,645;25,69330
 741,07;14597,552;  353,502;55597,764;25,78376
 741,64;14709,145;  374,503;55863,268;25,83341
 742,21;14827,660;  347,118;55899,157;26,06663
 742,78;14852,791;  317,580;55685,815;26,25189
 743,35;14985,460;  338,196;55994,011;26,31758
 743,92;15081,437;  375,658;55992,746;26,44112
 744,49;15219,799;  375,428;55892,942;26,73818
 745,06;15221,160;  345,274;55982,831;26,73713
 745,63;15261,599;  332,351;55944,873;26,84512
 746,19;15433,422;  334,659;55946,608;27,15021
 746,76;15458,553;  338,660;56009,573;27,15941
 747,33;15539,530;  355,122;55937,000;27,31899
 747,90;15653,891;  359,583;56211,274;27,38379
 748,47;15733,945;  355,968;56132,470;27,57071
 749,04;15892,768;  348,507;56220,743;27,82108
 749,61;15952,668;  373,738;56133,016;27,93962
 750,17;16008,261;  359,277;56134,674;28,05714
 750,74;16057,161;  354,431;56069,563;28,18396
 751,31;16101,445;  331,663;56056,836;28,29921
 751,88;16195,576;  326,278;55958,725;28,52526
 752,45;16325,092;  338,356;56058,613;28,69107
 753,02;16339,607;  358,048;55964,963;28,74024
 753,58;16450,276;  332,049;55822,313;29,04695
 754,15;16541,715;  326,818;55941,202;29,15594
 754,72;16556,615;  323,895;55777,860;29,27242
 755,29;16556,823;  310,204;55631,364;29,36782
 755,86;16696,799;  316,896;55711,868;29,56930
 756,42;16798,853;  330,512;55701,141;29,74202
 756,99;16812,523;  291,974;55721,106;29,80481
 757,56;16899,192;  300,436;55504,764;30,06785
 758,13;16946,092;  254,205;55387,884;30,27530
 758,70;17154,300;  277,360;55463,849;30,58165
 759,26;17213,584;  266,283;55611,968;30,62082
 759,83;17317,331;  282,283;55725,934;30,72497
 760,40;17392,769;  254,284;55604,130;30,96393
 760,97;17455,515;  253,130;55511,250;31,13096
 761,53;17478,415;  238,746;55224,369;31,35305
 762,10;17495,469;  226,439;55091,411;31,47551
 762,67;17589,446;  267,747;55061,685;31,61244
 763,24;17517,962;  220,209;54714,881;31,74210
 763,80;17630,015;  260,055;54863,231;31,81126
 764,37;17706,992;  264,517;54886,350;31,93316
 764,94;17692,969;  256,979;54448,085;32,17500
 765,50;17707,639;  261,595;54363,897;32,24640
 766,07;17838,154;  305,441;54565,170;32,31257
 766,64;17854,054;  285,672;54260,905;32,54897
 767,21;17888,262;  280,442;54071,639;32,73365
 767,77;17972,393;  308,134;54050,067;32,86867
 768,34;18053,062;  314,673;54016,263;33,03140
 768,91;18052,500;  327,058;53876,228;33,10125
 769,47;18120,862;  327,905;53913,732;33,20460
 770,04;18088,147;  320,905;53773,775;33,23908
 770,61;18070,970;  300,752;53592,663;33,34506
 771,18;18132,101;  295,829;53376,936;33,60192
 771,74;18294,539;  313,829;53561,671;33,76796
 772,31;18297,516;  311,291;53366,021;33,90127
 772,88;18277,185;  290,753;53131,910;34,03868
 773,44;18352,316;  296,830;53045,491;34,22928
 774,01;18453,293;  317,831;53152,764;34,32476
 774,58;18367,039;  305,062;52650,345;34,50545
 775,14;18468,093;  286,447;52948,387;34,52521
 775,71;18510,609;  302,832;52857,353;34,64550
 776,27;18640,662;  368,371;52715,395;34,90608
 776,84;18803,947;  397,525;52833,438;35,10270
 777,41;18763,847;  311,987;52554,249;35,31980
 777,97;18759,670;  308,295;52285,215;35,49917
 778,54;18846,724;  303,526;52279,488;35,67649
 779,11;18893,855;  326,988;52323,607;35,70783
 779,67;18917,524;  288,527;52191,727;35,89181
 780,24;18962,963;  307,450;52040,077;36,06141
 780,80;19007,863;  324,835;52063,427;36,11043
 781,37;19060,301;  324,758;51949,700;36,29165
 781,94;18978,817;  313,451;51784,743;36,26364
 782,50;19007,255;  317,144;51658,554;36,40358
 783,07;19087,386;  337,529;51743,289;36,47423
 783,63;19089,978;  304,683;51456,332;36,72471
 784,20;19170,955;  339,376;51300,528;36,95281
 784,77;19162,471;  311,453;51225,186;37,02541
 785,33;19099,755;  294,915;50983,074;37,09908
 785,90;19193,963;  303,915;51032,809;37,23726
 786,46;19193,017;  322,839;50900,159;37,30957
 787,03;19265,225;  301,993;50652,278;37,66261
 787,59;19248,048;  298,224;50513,936;37,73684
 788,16;19314,640;  313,301;50510,517;37,85337
 788,73;19327,848;  312,071;50512,483;37,87972
 789,29;19306,517;  285,840;50073,679;38,20346
 789,86;19425,879;  328,687;49922,875;38,50691
 790,42;19382,702;  301,918;49712,533;38,61677
 790,99;19321,063;  311,688;49431,806;38,69978
 791,55;19396,117;  296,380;49395,233;38,90058
 792,12;19401,017;  334,996;49436,045;38,83017
 792,68;19491,071;  312,842;49136,549;39,28057
 793,25;19425,587;  306,612;48929,591;39,32086
 793,81;19424,641;  383,305;48567,865;39,51750
 794,38;19276,464;  277,074;48364,061;39,51046
 794,94;19340,133;  281,075;48267,103;39,71793
 795,51;19298,571;  315,075;47920,300;39,87692
 796,07;19270,318;  294,614;47741,650;39,99344
 796,64;19398,987;  325,768;47878,769;40,10939
 797,20;19319,425;  303,307;47325,427;40,44079
 797,77;19232,556;  274,692;47092,700;40,49268
 798,33;19302,687;  310,384;46897,743;40,76707
 798,90;19285,433;  318,769;46832,554;40,77644
 799,46;19211,102;  290,924;46419,674;41,01602
 800,03;19314,310;  307,539;46231,408;41,38756
 800,59;19382,287;  311,078;46110,143;41,64104
 801,15;19322,341;  320,694;45870,109;41,71656
 801,72;19226,318;  300,694;45530,997;41,84280
 802,28;19233,064;  328,310;45259,578;42,07483
 802,85;19237,426;  302,618;45098,005;42,26955
 803,41;19220,634;  289,849;44987,740;42,35275
 803,98;19152,610;  294,003;44489,628;42,67076
 804,54;19135,126;  290,465;44177,363;42,93915
 805,11;19208,334;  311,004;44040,252;43,21439
 805,67;19294,080;  322,389;43948,294;43,48721
 806,23;19114,980;  307,543;43562,798;43,48012
 806,80;19071,803;  320,698;43519,687;43,40635
 807,36;19153,703;  333,698;43446,575;43,65286
 807,93;19113,065;  345,314;43091,618;43,90497
 808,49;19033,580;  296,468;42657,968;44,23147
 809,05;18925,942;  279,314;42565,241;44,09653
 809,62;18960,842;  306,238;42518,053;44,19285
 810,18;19015,126;  305,930;42428,711;44,41586
 810,74;18918,103;  271,239;42170,753;44,50377
 811,31;18839,465;  273,470;41899,949;44,60141
 811,87;18906,750;  306,393;41779,299;44,84942
 812,44;18883,342;  319,778;41752,265;44,80437
 813,00;18850,088;  250,009;41412,769;45,18667
 813,56;18983,988;  299,471;41490,811;45,36030
 814,13;18985,657;  287,933;41363,315;45,52051
 814,69;18922,404;  281,549;41238,973;45,51276
 815,25;18773,919;  254,241;40772,477;45,70702
 815,82;18868,665;  299,165;40720,673;45,93965
 816,38;18900,950;  331,242;40600,100;46,11431
 816,94;18833,234;  264,781;40284,912;46,39778
 817,51;18770,288;  257,012;40110,185;46,45371
 818,07;18778,035;  256,397;39827,074;46,80647
 818,63;18756,396;  291,090;39544,732;47,04100
 819,20;18808,758;  277,552;39453,005;47,30311
 819,76;18717,812;  256,552;39198,432;47,40721
 820,32;18656,865;  303,937;38981,551;47,45104
 820,89;18664,073;  282,091;38803,901;47,71838
 821,45;18620,666;  267,630;38485,944;48,02157
 822,01;18606,181;  288,784;38235,371;48,27153
 822,57;18565,466;  286,400;38185,336;48,23108
 823,14;18464,520;  245,323;37953,917;48,31577
 823,70;18438,650;  258,785;37624,267;48,65417
 824,26;18368,089;  259,862;37509,541;48,61311
 824,82;18389,066;  300,094;37435,352;48,71104
 825,39;18336,581;  263,940;37111,241;49,04739
 825,95;18435,635;  290,171;37266,206;49,07358
 826,51;18264,074;  274,018;36743,710;49,32878
 827,08;18412,358;  315,249;36809,907;49,58838
 827,64;18279,643;  297,249;36649,180;49,46751
 828,20;18285,312;  257,403;36443,299;49,82026
 828,76;18267,751;  296,173;36381,188;49,80344
 829,32;18228,805;  313,635;36132,615;50,01586
 829,89;18199,243;  249,866;36017,657;50,18307
 830,45;18255,912;  271,174;36062,315;50,24913
 831,01;18220,274;  279,405;35843,896;50,44602
 831,57;18259,097;  283,175;35652,708;50,82318
 832,14;18176,997;  258,637;35711,366;50,54155
 832,70;18131,512;  260,099;35426,331;50,81981
 833,26;18180,489;  233,945;35366,373;51,08256
 833,82;18221,082;  268,484;35296,031;51,25280
 834,38;18219,366;  257,330;35233,689;51,35479
 834,95;18222,190;  255,715;35182,193;51,44084
 835,51;18156,474;  243,254;35039,466;51,48037
 836,07;18243,374;  271,255;35112,201;51,58333
 836,63;18370,582;  304,870;35036,859;52,01462
 837,19;18310,482;  277,717;34829,286;52,19087
 837,75;18191,997;  245,948;34607,559;52,22703
 838,32;18306,051;  290,487;34752,602;52,27643
 838,88;18386,413;  290,718;34674,259;52,62894
 839,44;18392,082;  294,411;34681,456;52,62933
 840,00;18367,521;  276,488;34592,652;52,71869
 840,56;18315,959;  262,181;34297,540;53,04418
 841,12;18375,321;  260,489;34213,660;53,35240
 841,68;18323,836;  238,412;34080,395;53,44079
 842,25;18380,275;  253,566;34154,052;53,47035
 842,81;18374,636;  258,567;33854,479;53,92343
 843,37;18417,152;  243,028;33824,753;54,11909
 843,93;18454,590;  264,260;33801,257;54,23959
 844,49;18509,029;  281,491;33788,914;54,39851
 845,05;18484,236;  226,414;33613,957;54,68453
 845,61;18627,290;  278,184;33598,845;55,06825
 846,17;18594,575;  262,338;33423,196;55,28276
 846,73;18616,321;  272,031;33429,700;55,32443
 847,29;18523,067;  249,492;33178,127;55,49448
 847,86;18520,583;  250,647;33157,861;55,51955
 848,42;18532,406;  244,416;33008,442;55,81728
 848,98;18528,460;  267,186;32922,562;55,92119
 849,54;18625,283;  250,340;32905,066;56,27039
 850,10;18561,875;  262,725;32723,185;56,37366
 850,66;18508,698;  241,033;32620,150;56,41805
 851,22;18478,983;  240,418;32551,501;56,44678
 851,78;18649,114;  284,034;32665,620;56,71458
 852,34;18662,322;  269,419;32323,124;57,38152
 852,90;18599,299;  252,573;32188,320;57,44887
 853,46;18538,199;  242,727;31997,670;57,61456
 854,02;18644,637;  266,881;32021,020;57,87515
 854,58;18530,306;  252,036;31732,217;58,06279
 855,14;18588,206;  242,728;31675,105;58,36491
 855,70;18525,414;  230,498;31478,609;58,54727
 856,26;18476,083;  261,652;31426,959;58,44457
 856,82;18608,599;  249,575;31362,002;59,00865
 857,38;18556,191;  301,730;31168,583;59,13937
 857,94;18471,322;  260,730;31128,625;58,99525
 858,50;18451,684;  272,577;30932,668;59,29241
 859,06;18273,122;  258,731;30843,633;58,89962
 859,62;18407,099;  280,577;30800,368;59,39268
 860,18;18274,384;  266,347;30540,795;59,48263
 860,74;18257,668;  236,116;30480,376;59,58669
 861,30;18191,722;  239,271;30208,034;59,90388
 861,86;18376,545;  311,117;30398,922;60,04236
 862,42;18198,676;  251,579;30109,349;60,10863
 862,98;18335,268;  286,810;30098,776;60,54099
 863,54;18195,168;  251,503;29904,203;60,51275
 864,10;18229,761;  268,119;29954,015;60,50564
 864,66;18067,969;  228,888;29743,904;60,44069
 865,22;18105,869;  247,273;29580,946;60,88087
 865,78;18024,461;  260,889;29447,373;60,86232
 866,34;17965,361;  246,428;29419,031;60,73827
 866,90;17911,107;  258,274;29261,150;60,86580
 867,45;17885,161;  250,813;29022,039;61,29161
 868,01;17877,600;  244,583;28907,543;61,51848
 868,57;17757,038;  249,045;28737,278;61,45693
 869,13;17790,246;  237,506;28576,012;61,93954
 869,69;17803,069;  240,199;28538,901;62,06246
 870,25;17800,277;  236,969;28389,482;62,38629
 870,81;17801,792;  245,046;28317,832;62,54009
 871,37;17815,923;  269,662;28271,259;62,66164
 871,93;17759,361;  283,739;28096,686;62,83269
 872,49;17732,569;  296,893;27928,728;63,09996
 873,04;17665,315;  240,817;27787,309;63,25487
 873,60;17537,215;  240,894;27667,890;63,06313
 874,16;17566,115;  271,433;27518,163;63,47434
 874,72;17446,654;  254,433;27458,856;63,19642
 875,28;17496,423;  251,433;27358,933;63,61704
 875,84;17547,808;  261,817;27373,779;63,75780
 876,40;17476,423;  243,510;27305,779;63,67875
 876,95;17639,731;  247,356;27243,010;64,42657
 877,51;17661,269;  283,202;27220,471;64,51310
 878,07;17745,115;  290,971;27186,010;64,89726
 878,63;17761,962;  258,048;27179,163;65,01927
 879,19;17733,346;  264,740;27231,625;64,77799
 879,75;17759,423;  254,279;27203,010;64,95721
 880,30;17779,577;  246,048;27291,010;64,83104
 880,86;17925,577;  299,433;27390,625;65,06227
 881,42;17941,038;  233,510;27328,933;65,35247
 881,98;18088,808;  264,894;27395,548;65,69659
 882,54;18229,500;  241,356;27527,625;65,92380
 883,09;18301,962;  265,433;27595,548;65,99507
 883,65;18354,654;  250,433;27656,548;66,05906
 884,21;18610,115;  294,202;27779,240;66,63958
 884,77;18626,269;  235,587;27917,548;66,43562
 885,32;18800,269;  258,279;28054,702;66,70639
 885,88;19007,346;  280,894;28194,779;67,08651
 886,44;19110,269;  255,971;28265,779;67,31320
 887,00;19133,885;  273,971;28209,394;67,51254
 887,56;19218,654;  256,894;28435,010;67,29250
 888,11;19282,038;  269,663;28349,702;67,70780
 888,67;19421,192;  277,740;28548,394;67,71492
 889,23;19443,500;  254,125;28482,010;67,98021
 889,79;19342,115;  244,356;28431,856;67,75258
 890,34;19414,115;  268,125;28384,163;68,09633
 890,90;19562,423;  333,202;28557,779;68,12935
 891,46;19507,500;  244,202;28416,471;68,37681
 892,01;19427,115;  267,048;28408,933;68,08381
 892,57;19463,654;  296,048;28336,240;68,35761
 893,13;19287,654;  243,663;28152,471;68,23649
 893,69;19423,500;  236,048;28070,625;68,93387
 894,24;19391,115;  248,125;27938,933;69,13121
 894,80;19359,038;  255,202;27894,010;69,11961
 895,36;19272,962;  243,356;27727,471;69,23856
 895,91;19156,962;  249,433;27520,779;69,33112
 896,47;19102,038;  272,125;27423,548;69,35148
 897,03;19017,885;  246,663;27244,394;69,52888
 897,58;19008,115;  255,433;27167,779;69,68059
 898,14;18966,346;  262,433;27009,779;69,92811
 898,70;18845,731;  214,125;26779,856;70,13399
 899,25;18956,115;  254,971;26867,240;70,27264
 899,81;18880,885;  259,740;26652,471;70,55406
 900,37;18746,731;  211,279;26454,163;70,63039
 900,92;18770,885;  248,433;26442,163;70,71330
 901,48;18700,423;  236,510;26289,856;70,86964
 902,03;18703,038;  237,048;26127,163;71,32448
 902,59;18705,731;  239,048;26029,856;71,60180
 903,15;18644,654;  262,356;25902,163;71,69437
 903,70;18543,885;  241,279;25715,010;71,84894
 904,26;18545,962;  237,587;25565,471;72,28545
 904,82;18623,885;  241,510;25528,702;72,69441
 905,37;18462,038;  252,587;25409,625;72,38313
 905,93;18377,654;  231,510;25257,163;72,51017
 906,48;18501,962;  249,202;25269,240;72,95256
 907,04;18501,885;  254,817;25191,933;73,17233
 907,60;18434,269;  250,587;24960,010;73,59007
 908,15;18308,038;  236,279;24885,010;73,31720
 908,71;18380,115;  260,971;24848,548;73,69227
 909,26;18281,269;  230,740;24733,163;73,66834
 909,82;18243,654;  255,279;24547,548;74,04979
 910,37;18226,192;  279,894;24504,317;74,08349
 910,93;18094,962;  235,817;24324,625;74,13876
 911,48;17983,269;  211,279;24223,548;74,01212
 912,04;17949,500;  229,510;24064,779;74,34357
 912,60;17999,962;  243,356;24029,163;74,65210
 913,15;17896,346;  245,048;23886,394;74,66283
 913,71;17706,038;  225,587;23652,856;74,61583
 914,26;17687,731;  218,740;23636,010;74,59875
 914,82;17677,192;  247,740;23560,856;74,76243
 915,37;17636,423;  230,663;23486,856;74,84355
 915,93;17525,192;  303,202;23381,471;74,62427
 916,48;17498,577;  221,817;23217,548;75,13029
 917,04;17456,192;  259,663;23063,394;75,41103
 917,59;17458,962;  270,740;23124,548;75,20944
 918,15;17325,269;  205,202;22832,394;75,66147
 918,70;17280,115;  230,817;22744,933;75,72715
 919,26;17215,423;  240,740;22600,702;75,91553
 919,81;17116,192;  219,433;22460,471;75,97109
 920,37;17142,731;  245,433;22430,317;76,16581
 920,92;17039,808;  263,125;22403,625;75,77373
 921,48;16963,808;  223,894;22091,394;76,55156
 922,03;17026,577;  233,048;22110,163;76,76299
 922,59;16945,192;  232,817;22055,702;76,58188
 923,14;16890,654;  244,510;21812,163;77,18106
 923,69;16891,500;  254,510;21781,163;77,28554
 924,25;16929,962;  265,048;21795,010;77,40336
 924,80;16809,192;  239,587;21542,471;77,78104
 925,36;16824,500;  225,202;21428,625;78,28594
 925,91;16732,115;  219,048;21370,010;78,07242
 926,47;16749,038;  217,279;21331,394;78,29719
 927,02;16729,962;  291,971;21219,317;78,54790
 927,57;16759,500;  225,279;21006,087;79,56486
 928,13;16667,500;  225,279;20948,010;79,34389
 928,68;16691,577;  233,817;20900,933;79,63259
 929,24;16519,962;  201,971;20710,625;79,56637
 929,79;16489,808;  219,587;20580,240;79,91011
 930,34;16452,731;  226,356;20442,317;80,26517
 930,90;16444,423;  225,663;20414,856;80,33387
 931,45;16433,269;  231,894;20431,779;80,20528
 932,01;16391,423;  235,048;20330,317;80,39890
 932,56;16284,346;  250,663;20097,779;80,78596
 933,11;16420,115;  258,587;20132,548;81,32012
 933,67;16269,654;  220,202;19943,317;81,37382
 934,22;16228,192;  230,125;19903,317;81,31912
 934,77;16165,577;  252,202;19720,779;81,73877
 935,33;16070,577;  232,971;19621,779;81,68427
 935,88;16039,731;  239,202;19570,317;81,73625
 936,43;16044,192;  228,740;19440,933;82,31987
 936,99;16029,346;  232,202;19387,779;82,46760
 937,54;15894,269;  204,894;19253,394;82,36541
 938,09;15866,962;  237,587;19226,317;82,30869
 938,65;15836,500;  237,433;19047,317;82,93016
 939,20;15706,885;  210,356;19020,779;82,38267
 939,75;15670,038;  214,740;18954,471;82,47343
 940,31;15649,731;  213,125;18819,933;82,96214
 940,86;15704,577;  225,740;18780,163;83,42397
 941,41;15662,962;  315,510;18720,317;83,38828
 941,96;15572,500;  220,048;18550,471;83,75394
 942,52;15524,731;  222,125;18442,856;83,98459
 943,07;15443,885;  199,740;18381,087;83,84497
 943,62;15441,808;  217,587;18287,010;84,25405
 944,18;15467,654;  209,971;18255,317;84,55190
 944,73;15464,269;  234,433;18020,240;85,62915
 945,28;15259,192;  196,894;17911,933;85,02549
 945,83;15344,269;  221,663;17909,087;85,49920
 946,39;15334,192;  218,279;17914,702;85,41790
 946,94;15297,962;  243,817;17736,010;86,06208
 947,49;15224,038;  216,510;17631,625;86,17531
 948,04;15253,423;  262,356;17690,317;86,01733
 948,59;15199,577;  241,971;17645,163;85,94748
 949,15;15092,192;  207,740;17503,625;86,05777
 949,70;15078,269;  229,433;17385,471;86,55166
 950,25;15020,192;  231,663;17277,010;86,75992
 950,80;14960,423;  186,663;17122,702;87,23268
 951,36;14863,423;  192,587;17124,548;86,64582
 951,91;14912,500;  243,356;17139,933;86,81725
 952,46;14780,038;  202,663;16908,394;87,25973
 953,01;14809,115;  236,202;16897,010;87,46823
 953,56;14708,654;  201,125;16755,471;87,63577
 954,11;14720,346;  234,663;16748,317;87,71943
 954,67;14625,423;  218,894;16653,087;87,66192
 955,22;14574,346;  196,279;16463,625;88,38607
 955,77;14578,269;  243,894;16551,240;87,90134
 956,32;14514,038;  281,894;16403,163;88,28178
 956,87;14366,731;  216,433;16257,240;88,21437
 957,42;14354,192;  230,125;16189,933;88,49773
 957,98;14294,346;  217,587;16138,933;88,41438
 958,53;14369,808;  248,356;16123,010;88,95597
 959,08;14239,885;  204,356;15932,779;89,23672
 959,63;14332,115;  209,817;15836,471;90,37314
 960,18;14208,654;  240,433;15843,548;89,52200
 960,73;14171,808;  224,048;15819,087;89,43716
 961,28;14113,269;  206,663;15655,010;90,02003
 961,83;14036,115;  247,894;15641,548;89,57081
 962,39;13975,115;  203,894;15504,702;90,00323
 962,94;13877,808;  224,663;15445,163;89,70234
 963,49;13793,808;  227,202;15295,779;90,03243
 964,04;13748,808;  228,971;15216,548;90,20695
 964,59;13720,577;  203,125;15139,317;90,50132
 965,14;13715,115;  244,894;15098,856;90,68437
 965,69;13621,269;  237,202;14957,163;90,92461
 966,24;13572,808;  217,279;14840,317;91,33211
 966,79;13492,500;  237,048;14789,394;91,08807
 967,34;13428,192;  205,510;14734,856;91,00673
 967,89;13468,269;  216,663;14617,625;92,01890
 968,44;13419,885;  222,740;14560,933;92,04190
 968,99;13392,423;  229,433;14552,625;91,89984
 969,55;13286,577;  227,356;14408,625;92,08782
 970,10;13244,808;  236,048;14297,702;92,51230
 970,65;13140,500;  253,971;14166,471;92,62554
 971,20;13045,731;  207,817;14077,240;92,56271
 971,75;12995,038;  196,433;13935,163;93,15712
 972,30;12951,346;  232,587;13902,010;93,04533
 972,85;12872,885;  212,817;13824,240;93,01061
 973,40;12824,115;  217,971;13728,163;93,30840
 973,95;12791,500;  234,740;13695,010;93,28758
 974,50;12765,962;  256,202;13630,317;93,53710
 975,05;12642,115;  232,356;13502,240;93,51822
 975,60;12588,346;  246,587;13442,010;93,53061
 976,15;12580,500;  220,356;13283,010;94,62200
 976,70;12440,346;  228,663;13184,856;94,25364
 977,25;12470,269;  245,740;13159,010;94,66641
 977,80;12351,269;  227,356;13054,240;94,51955
 978,35;12195,346;  239,279;12839,394;94,88855
 978,89;12157,269;  204,817;12779,702;95,05019
 979,44;12147,885;  226,048;12821,779;94,64982
 979,99;12071,654;  212,817;12606,625;95,68356
 980,54;12005,885;  247,125;12527,010;95,75627
 981,09;11923,038;  256,279;12521,856;95,11790
 981,64;11811,115;  241,663;12382,933;95,29030
 982,19;11793,885;  276,894;12315,933;95,66371
 982,74;11660,885;  241,048;12229,010;95,26087
 983,29;11461,500;  219,587;12037,625;95,12504
 983,84;11461,654;  226,740;11923,702;96,04985
 984,39;11537,500;  318,202;11991,625;96,10975
 984,94;11324,577;  204,894;11736,779;96,42555
 985,49;11302,500;  263,587;11708,163;96,45541
 986,03;11258,192;  262,971;11659,548;96,47828
 986,58;11136,962;  288,356;11489,240;96,85490
 987,13;11022,346;  237,202;11355,394;97,00448
 987,68;10967,962;  258,510;11278,625;97,18094
 988,23;10880,577;  254,356;11222,317;96,88419
 988,78;10803,808;  236,356;11108,548;97,19707
 989,33;10751,192;  249,202;11009,548;97,59900
 989,88;10705,885;  273,510;10959,625;97,62551
 990,42;10516,115;  236,971;10761,856;97,66515
 990,97;10397,500;  240,202;10640,163;97,66669
 991,52;10372,962;  255,356;10569,779;98,09182
 992,07;10288,962;  270,817;10517,317;97,77138
 992,62;10179,423;  241,279;10391,856;97,90719
 993,17;10055,654;  255,356;10232,933;98,22323
 993,71;10019,808;  258,587;10219,010;98,00007
 994,26; 9891,115;  227,817; 9997,471;98,91137
 994,81; 9842,192;  257,587;10026,471;98,11361
 995,36; 9703,808;  233,663; 9858,779;98,38993
 995,91; 9704,115;  246,356; 9744,163;99,57834
 996,45; 9604,654;  243,048; 9689,625;99,10051
 997,00; 9477,269;  218,125; 9582,010;98,88144
 997,55; 9484,577;  251,356; 9489,933;99,94203
 998,10; 9348,423;  269,433; 9388,933;99,55579
 998,65; 9342,577;  237,356; 9351,163;99,90579
 999,19; 9209,731;  263,510; 9219,625;99,88953
 999,74; 9070,731;  283,587; 9113,163;99,51943
1000,29; 9021,192;  254,356; 9071,317;99,43149
1000,84; 8926,269;  247,356; 8884,625;100,48215
1001,38; 8819,269;  251,510; 8792,087;100,31828
1001,93; 8772,885;  246,125; 8761,702;100,13132
1002,48; 8631,885;  226,971; 8619,087;100,15250
1003,03; 8577,885;  254,433; 8565,471;100,14936
1003,57; 8463,423;  255,279; 8497,317;99,58876
1004,12; 8451,654;  288,048; 8389,702;100,76468
1004,67; 8324,423;  238,202; 8254,087;100,87746
1005,22; 8212,731;  229,279; 8159,702;100,66868
1005,76; 8107,346;  218,279; 8040,548;100,85395
1006,31; 8064,654;  257,202; 7979,240;101,10610
1006,86; 7944,269;  234,740; 7830,087;101,50332
1007,40; 7799,423;  216,663; 7735,856;100,84540
1007,95; 7734,885;  239,663; 7658,625;101,02790
1008,50; 7593,577;  248,587; 7545,702;100,65608
1009,04; 7529,654;  236,048; 7434,240;101,32552
1009,59; 7391,423;  247,971; 7270,317;101,72458
1010,14; 7265,808;  228,279; 7237,087;100,40979
1010,68; 7208,731;  243,433; 7149,548;100,85696
1011,23; 7112,731;  227,587; 6996,548;101,71640
1011,78; 7080,192;  253,894; 6943,856;102,03793
1012,32; 7000,038;  272,125; 6822,394;102,71201
1012,87; 6924,577;  269,894; 6837,548;101,32511
1013,42; 6885,500;  225,048; 6690,702;103,01281
1013,96; 6886,192;  270,125; 6717,240;102,62058
1014,51; 6787,346;  207,817; 6585,163;103,17033
1015,06; 6782,962;  216,202; 6554,240;103,60871
1015,60; 6846,577;  275,817; 6607,087;103,78266
1016,15; 6817,346;  230,663; 6560,856;104,05186
1016,69; 6850,115;  237,202; 6614,856;103,68881
1017,24; 6924,269;  223,433; 6589,394;105,26040
1017,79; 6991,577;  277,510; 6636,317;105,58689
1018,33; 7003,500;  231,510; 6634,779;105,75833
1018,88; 7095,885;  251,971; 6665,548;106,70977
1019,42; 7091,038;  231,971; 6630,163;107,20321
1019,97; 7155,962;  227,894; 6621,625;108,35719
1020,51; 7222,115;  268,356; 6689,548;108,29390
1021,06; 7217,962;  227,125; 6628,625;109,20623
1021,61; 7187,808;  201,740; 6623,933;108,78010
1022,15; 7128,423;  188,510; 6586,702;108,46678
1022,70; 7142,500;  241,740; 6589,856;108,70564
1023,24; 7091,808;  217,971; 6503,702;109,35620
1023,79; 7085,654;  225,356; 6506,702;109,21700
1024,33; 6998,269;  217,817; 6428,010;109,18264
1024,88; 6964,192;  244,817; 6364,010;109,80820
1025,42; 6861,346;  249,971; 6247,702;110,23127
1025,97; 6760,500;  220,048; 6179,240;109,75400
1026,51; 6663,115;  200,894; 6035,548;110,75586
1027,06; 6610,577;  215,202; 5981,933;110,90122
1027,60; 6505,962;  244,817; 5897,933;110,75564
1028,15; 6438,346;  251,048; 5856,087;110,38815
1028,69; 6314,885;  192,587; 5682,548;111,51805
1029,24; 6308,500;  232,587; 5602,548;113,14631
1029,78; 6155,346;  219,510; 5551,394;111,32718
1030,33; 6017,885;  202,663; 5448,317;110,85789
1030,87; 5973,808;  224,894; 5380,548;111,50697
1031,42; 5854,577;  212,356; 5271,625;111,52245
1031,96; 5839,577;  241,971; 5232,625;112,16177
1032,51; 5714,731;  211,817; 5156,702;111,28497
1033,05; 5687,885;  237,048; 5132,702;111,34032
1033,60; 5526,192;  197,587; 4966,702;111,73153
1034,14; 5463,731;  215,894; 4919,394;111,57301
1034,69; 5422,885;  223,740; 4855,933;112,23939
1035,23; 5310,346;  216,894; 4821,702;110,61161
1035,77; 5305,269;  215,817; 4729,010;112,76834
1036,32; 5148,577;  192,433; 4662,702;110,86903
1036,86; 5116,731;  230,279; 4599,163;111,84667
1037,41; 5005,115;  239,740; 4541,240;110,78403
1037,95; 4961,192;  188,279; 4430,548;112,50850
1038,50; 4930,346;  213,202; 4401,317;112,63167
1039,04; 4867,885;  235,740; 4344,933;112,72639
1039,58; 4785,500;  199,433; 4289,856;112,11719
1040,13; 4707,115;  221,740; 4213,856;112,35585
1040,67; 4718,192;  252,817; 4231,010;112,24633
1041,21; 4665,500;  258,279; 4144,856;113,39596
1041,76; 4550,423;  204,202; 4034,163;113,47950
1042,30; 4491,038;  221,510; 4012,471;112,62390
1042,85; 4465,192;  215,894; 3952,856;113,70998
1043,39; 4393,423;  212,433; 3862,625;114,54165
1043,93; 4347,577;  241,817; 3872,087;113,09794
1044,48; 4314,038;  230,510; 3825,471;113,59033
1045,02; 4222,115;  219,202; 3715,933;114,47588
1045,56; 4218,038;  252,894; 3728,471;114,08593
1046,11; 4110,577;  228,433; 3609,087;114,83412
1046,65; 4091,346;  230,433; 3572,087;115,53900
1047,19; 4026,962;  218,279; 3512,625;115,61270
1047,74; 3952,808;  197,356; 3469,856;114,75789
1048,28; 3930,346;  223,048; 3423,317;115,84332
1048,82; 3896,885;  256,971; 3420,317;115,06529
1049,37; 3842,962;  241,048; 3322,471;116,89123
1049,91; 3781,731;  231,587; 3308,856;115,36671
1050,45; 3743,808;  233,740; 3246,240;116,51676
1050,99; 3702,346;  227,433; 3231,163;115,68658
1051,54; 3660,654;  214,125; 3142,625;117,68922
1052,08; 3669,731;  246,894; 3127,702;118,81517
1052,62; 3584,654;  247,433; 3097,240;117,10338
1053,16; 3516,654;  226,125; 3032,317;117,25956
1053,71; 3486,731;  234,663; 3025,163;116,54067
1054,25; 3430,731;  245,510; 2963,394;117,19486
1054,79; 3397,269;  242,894; 2893,010;119,02784
1055,33; 3336,731;  199,356; 2849,010;118,40698
1055,88; 3307,962;  246,202; 2846,779;117,73386
1056,42; 3286,885;  247,433; 2797,471;119,19240
1056,96; 3229,962;  244,817; 2790,317;117,27143
1057,50; 3184,962;  239,125; 2715,702;118,94791
1058,05; 3142,115;  236,587; 2651,240;120,32900
1058,59; 3075,885;  253,587; 2637,933;118,36780
1059,13; 3036,808;  218,510; 2573,163;119,69055
1059,67; 3022,269;  242,817; 2560,548;119,92126
1060,21; 2957,808;  237,125; 2497,933;120,34118
1060,76; 2912,885;  243,356; 2515,625;117,48295
1061,30; 2905,885;  256,202; 2489,779;118,62957
1061,84; 2827,423;  240,433; 2418,856;118,75519
1062,38; 2784,962;  219,587; 2340,163;120,97533
1062,92; 2812,808;  274,587; 2379,702;120,57397
1063,46; 2770,654;  249,663; 2320,471;121,73947
1064,01; 2692,577;  232,894; 2289,856;119,57845
1064,55; 2691,731;  235,279; 2254,625;121,64591
1065,09; 2618,500;  208,048; 2167,625;123,00879
1065,63; 2617,500;  259,971; 2212,163;120,76315
1066,17; 2597,962;  282,740; 2185,317;121,68870
1066,71; 2535,885;  260,048; 2159,702;119,80270
1067,25; 2492,808;  238,433; 2102,087;120,96533
1067,80; 2483,577;  252,587; 2086,240;121,66911
1068,34; 2459,346;  269,817; 2096,702;119,85042
1068,88; 2416,346;  242,279; 2011,702;122,86871
1069,42; 2393,192;  259,740; 2022,240;121,04692
1069,96; 2370,192;  246,587; 1975,548;122,82551
1070,50; 2371,038;  274,202; 1998,163;121,62896
1071,04; 2264,808;  228,817; 1931,394;119,58287
1071,58; 2273,731;  236,740; 1905,856;122,04012
1072,12; 2246,885;  235,894; 1914,548;119,79780
1072,66; 2229,192;  240,587; 1872,702;121,84223
1073,21; 2231,192;  250,356; 1855,779;123,38408
1073,75; 2194,885;  239,817; 1843,163;121,93669
1074,29; 2149,962;  238,740; 1820,010;120,86627
1074,83; 2161,731;  269,510; 1805,240;123,21308
1075,37; 2138,654;  263,433; 1800,010;122,03887
1075,91; 2104,731;  256,125; 1753,010;123,49688
1076,45; 2091,269;  244,894; 1728,548;124,44783
1076,99; 2040,808;  257,202; 1729,087;121,17837
1077,53; 2003,269;  235,433; 1662,548;123,87481
1078,07; 2003,346;  244,740; 1679,240;122,59364
1078,61; 1949,577;  249,587; 1643,087;121,99429
1079,15; 1944,115;  242,202; 1623,240;123,23433
1079,69; 1926,423;  239,279; 1606,240;123,42295
1080,23; 1943,962;  262,587; 1587,702;126,88518
1080,77; 1944,192;  302,971; 1626,625;123,99172
1081,31; 1864,115;  236,740; 1546,548;124,24534
1081,85; 1873,808;  268,510; 1558,625;124,43058
1082,39; 1821,808;  238,433; 1515,163;124,01792
1082,93; 1839,500;  249,125; 1515,087;125,62585
1083,47; 1765,423;  235,125; 1445,471;126,43475
1084,01; 1795,423;  253,740; 1488,317;124,87539
1084,55; 1755,500;  241,510; 1434,779;126,87752
1085,09; 1750,731;  256,587; 1444,933;125,73308
1085,63; 1730,192;  249,663; 1423,317;126,14698
1086,17; 1691,269;  228,663; 1396,317;125,26022
1086,71; 1667,500;  224,279; 1372,010;125,74562
1087,24; 1679,192;  261,663; 1402,163;124,29012
1087,78; 1660,962;  259,279; 1373,702;125,77653
1088,32; 1571,423;  230,971; 1326,625;122,34265
1088,86; 1633,423;  257,356; 1332,394;128,00168
1089,40; 1591,654;  250,587; 1322,548;125,10405
1089,94; 1561,346;  222,356; 1272,010;127,56495
1090,48; 1541,577;  262,125; 1279,933;125,70665
1091,02; 1549,654;  266,048; 1280,625;126,51636
1091,56; 1520,962;  250,894; 1249,548;127,17793
1092,10; 1459,962;  229,510; 1219,933;124,23498
1092,63; 1488,115;  268,048; 1259,625;123,04313
1093,17; 1468,500;  251,510; 1227,779;124,65725
1093,71; 1430,192;  231,356; 1181,625;126,15757
1094,25; 1424,423;  269,663; 1208,779;122,96249
1094,79; 1397,269;  239,663; 1163,548;125,29766
1095,33; 1406,423;  256,048; 1162,163;126,95679
1095,87; 1390,115;  246,433; 1143,087;127,55008
1096,40; 1350,500;  235,048; 1108,856;127,65417
1096,94; 1342,577;  242,279; 1113,240;126,33142
1097,48; 1346,808;  260,433; 1126,625;125,41961
1098,02; 1304,731;  237,663; 1066,856;128,68756
1098,56; 1257,885;  216,202; 1053,010;124,48293
1099,10; 1240,423;  216,971; 1052,317;122,51830
1099,63; 1247,115;  223,433; 1027,779;127,26892
1100,17; 1268,885;  251,510; 1050,856;127,27590
1100,71; 1282,423;  265,740; 1058,779;128,20093

