
Integration time [ms]: 140,000
Averaging Nr. [scans]: 13
Smoothing Nr. [pixels]: 0
Data measured with spectrometer [name]: 2009305U1
Wave   ;Sample   ;Dark     ;Reference;Reflectance
[nm]   ;[counts] ;[counts] ;[counts] ;[%]

 175,72;  225,217;  211,117;  215,673;309,49639
 176,32;  240,310;  252,041;  241,025; 0,00000
 176,92;  274,481;  291,656;  266,109; 0,00000
 177,52;  286,059;  273,732;  267,675; 0,00000
 178,12;  254,929;  258,425;  238,311; 0,00000
 178,72;  284,644;  288,810;  258,525; 0,00000
 179,32;  261,988;  270,810;  258,748; 0,00000
 179,92;  275,885;  275,579;  262,806; 0,00000
 180,52;  261,610;  257,347;  261,455;103,75377
 181,12;  273,017;  270,502;  266,130; 0,00000
 181,73;  284,529;  299,271;  277,919; 0,00000
 182,33;  401,709;  414,655;  397,957; 0,00000
 182,93;  305,156;  297,963;  286,949; 0,00000
 183,53;  255,567;  259,734;  247,813; 0,00000
 184,13;  251,755;  261,503;  237,845; 0,00000
 184,73;  304,436;  313,426;  296,892; 0,00000
 185,33;  301,432;  256,201;  361,143;43,10132
 185,93;  309,483;  265,279;  381,547;38,01935
 186,53;  334,135;  269,125;  410,327;46,04041
 187,13;  342,005;  288,431;  420,213;40,65366
 187,73;  316,591;  261,433;  382,447;45,57976
 188,33;  317,728;  248,971;  381,863;51,73859
 188,93;  334,305;  275,357;  387,891;52,38252
 189,53;  325,590;  267,128;  380,542;51,54736
 190,13;  376,278;  306,437;  423,007;59,91356
 190,73;  314,961;  242,897;  387,302;49,90406
 191,34;  344,095;  282,358;  406,760;49,62754
 191,94;  315,121;  260,203;  387,164;43,25550
 192,54;  329,277;  263,662;  415,221;43,29304
 193,14;  333,474;  284,047;  415,304;37,65678
 193,74;  337,531;  288,970;  398,242;44,44058
 194,34;  327,498;  277,662;  415,805;36,07517
 194,94;  290,186;  241,662;  367,347;38,60755
 195,54;  273,960;  213,278;  345,997;45,72229
 196,14;  298,646;  250,047;  381,829;36,87889
 196,74;  276,552;  250,124;  371,341;21,80190
 197,34;  269,209;  219,738;  367,061;33,57969
 197,94;  292,553;  246,355;  398,110;30,44263
 198,54;  310,863;  260,124;  414,320;32,90557
 199,14;  281,744;  233,738;  389,582;30,80378
 199,74;  279,724;  212,584;  394,616;36,88368
 200,34;  263,125;  213,277;  412,777;24,98677
 200,94;  305,799;  252,892;  440,849;28,14831
 201,54;  292,214;  230,738;  443,845;28,84755
 202,14;  340,585;  280,122;  509,855;26,31879
 202,74;  289,259;  236,123;  483,408;21,48796
 203,34;  276,609;  206,045;  505,069;23,59815
 203,94;  241,949;  189,199;  503,718;16,77147
 204,54;  328,412;  251,970;  595,985;22,22047
 205,14;  287,268;  226,969;  614,536;15,55844
 205,74;  340,110;  262,276;  713,847;17,23628
 206,34;  294,822;  218,892;  712,928;15,36926
 206,94;  323,748;  232,738;  764,426;17,11719
 207,54;  281,587;  198,584;  808,104;13,61777
 208,14;  307,666;  210,661;  894,372;14,18802
 208,74;  317,572;  226,123;  969,173;12,30731
 209,34;  320,714;  220,507; 1054,701;12,01236
 209,94;  347,585;  234,584; 1142,048;12,45236
 210,54;  359,138;  222,584; 1275,922;12,96399
 211,14;  356,932;  224,892; 1378,519;11,44564
 211,73;  382,894;  225,046; 1485,662;12,52150
 212,33;  399,588;  245,662; 1585,815;11,48572
 212,93;  389,150;  225,431; 1695,643;11,13577
 213,53;  382,399;  196,354; 1731,515;12,11894
 214,13;  426,577;  228,506; 1852,881;12,19367
 214,73;  401,970;  204,584; 1865,086;11,88713
 215,33;  390,585;  187,892; 1889,894;11,90909
 215,93;  451,198;  223,045; 2025,839;12,65549
 216,53;  418,867;  192,046; 2077,759;12,02842
 217,13;  494,028;  237,199; 2288,601;12,51965
 217,73;  504,466;  215,814; 2523,291;12,50940
 218,33;  515,103;  163,814; 2679,717;13,96275
 218,93;  597,811;  209,659; 3016,014;13,83118
 219,53;  626,161;  197,506; 3295,597;13,83608
 220,13;  649,742;  169,737; 3615,373;13,93082
 220,73;  722,699;  209,046; 3981,424;13,61618
 221,32;  795,265;  210,046; 4393,481;13,98895
 221,92;  853,710;  205,045; 4824,839;14,04100
 222,52;  903,623;  186,968; 5274,577;14,08629
 223,12;  972,641;  208,968; 5727,756;13,83770
 223,72; 1043,006;  208,276; 6131,713;14,09200
 224,32; 1103,130;  207,122; 6567,755;14,08677
 224,92; 1154,486;  195,660; 6890,969;14,32086
 225,52; 1237,651;  233,199; 7257,152;14,30038
 226,12; 1271,187;  207,892; 7552,443;14,47733
 226,72; 1277,972;  167,430; 7885,662;14,38855
 227,31; 1362,943;  177,892; 8271,414;14,64198
 227,91; 1460,735;  218,969; 8671,474;14,69111
 228,51; 1518,470;  191,200; 9080,788;14,93061
 229,11; 1582,584;  203,584; 9437,453;14,93415
 229,71; 1645,064;  196,354; 9761,515;15,14570
 230,31; 1734,837;  188,968;10198,283;15,44430
 230,91; 1779,924;  177,662;10495,044;15,52974
 231,51; 1835,976;  186,353;10729,351;15,64662
 232,10; 1909,671;  189,660;11125,042;15,72885
 232,70; 1984,267;  200,585;11327,421;16,03045
 233,30; 2052,949;  234,199;11566,044;16,04990
 233,90; 2089,920;  197,815;11672,874;16,48885
 234,50; 2110,500;  187,584;11762,227;16,61318
 235,10; 2131,871;  184,507;11763,892;16,81751
 235,70; 2220,664;  223,277;11795,777;17,25977
 236,29; 2212,136;  201,507;11790,212;17,34990
 236,89; 2192,908;  186,892;11668,517;17,47153
 237,49; 2249,634;  198,892;11531,473;18,09599
 238,09; 2231,822;  194,815;11258,005;18,41247
 238,69; 2232,857;  235,200;10981,786;18,58876
 239,29; 2157,458;  206,123;10668,835;18,65038
 239,89; 2140,167;  202,662;10293,457;19,20072
 240,48; 2097,716;  189,584; 9905,604;19,63903
 241,08; 2086,796;  205,815; 9504,563;20,22833
 241,68; 2070,412;  216,199; 9188,966;20,66489
 242,28; 1995,561;  182,738; 8793,143;21,05386
 242,88; 1999,019;  247,199; 8481,530;21,27459
 243,48; 1996,192;  236,507; 8141,747;22,25973
 244,07; 1916,245;  206,815; 7914,995;22,17683
 244,67; 1932,934;  215,199; 7750,440;22,79602
 245,27; 1943,279;  217,277; 7569,124;23,47712
 245,87; 1931,656;  219,814; 7508,591;23,48599
 246,47; 1964,077;  201,354; 7502,141;24,14429
 247,06; 2007,444;  194,276; 7436,481;25,03613
 247,66; 2026,791;  194,353; 7536,970;24,95620
 248,26; 2123,195;  222,431; 7659,802;25,55693
 248,86; 2191,730;  219,584; 7773,824;26,10647
 249,46; 2246,072;  165,738; 8056,240;26,36505
 250,05; 2386,909;  216,661; 8430,382;26,42223
 250,65; 2509,608;  186,354; 8749,185;27,13184
 251,25; 2634,235;  199,430; 9257,926;26,87868
 251,85; 2852,047;  203,662; 9838,778;27,48681
 252,44; 3032,774;  173,507;10487,925;27,72107
 253,04; 3302,238;  202,892;11180,039;28,23453
 253,64; 3494,153;  160,200;11919,352;28,35199
 254,24; 3851,698;  223,507;12914,502;28,58870
 254,84; 4149,226;  193,968;13814,933;29,03802
 255,43; 4476,980;  191,892;14851,732;29,23012
 256,03; 4840,094;  187,200;15905,993;29,60084
 256,63; 5194,418;  195,662;17012,116;29,72539
 257,23; 5523,008;  183,585;17967,154;30,02448
 257,82; 5916,696;  209,662;18985,983;30,39485
 258,42; 6207,582;  165,970;19935,819;30,55973
 259,02; 6578,320;  227,738;20864,266;30,77350
 259,62; 6825,537;  184,124;21654,872;30,93238
 260,21; 7098,020;  201,892;22196,203;31,35414
 260,81; 7343,764;  194,815;22801,606;31,62302
 261,41; 7515,208;  185,816;23313,600;31,69085
 262,01; 7777,642;  221,432;23821,639;32,01756
 262,60; 7870,162;  181,354;24241,692;31,95636
 263,20; 8073,515;  194,508;24635,120;32,23736
 263,80; 8172,955;  210,432;24852,328;32,31295
 264,40; 8301,544;  177,970;25095,732;32,60154
 264,99; 8394,399;  207,278;25238,610;32,70749
 265,59; 8415,731;  190,971;25477,207;32,52663
 266,19; 8472,243;  184,201;25585,669;32,62820
 266,78; 8589,064;  231,586;25736,284;32,76839
 267,38; 8571,391;  211,971;25781,847;32,69245
 267,98; 8574,332;  202,278;25840,891;32,65408
 268,58; 8577,670;  206,740;25858,599;32,63284
 269,17; 8559,830;  189,971;25860,805;32,60455
 269,77; 8494,546;  210,431;25655,750;32,55654
 270,37; 8412,404;  165,663;25618,299;32,40034
 270,96; 8353,297;  228,893;25438,167;32,22784
 271,56; 8178,235;  196,123;25228,560;31,88708
 272,16; 8101,512;  197,201;25020,391;31,84245
 272,75; 8066,333;  194,277;25016,044;31,71432
 273,35; 8020,176;  218,662;24855,008;31,66668
 273,95; 7940,775;  208,893;24737,232;31,52224
 274,54; 7874,761;  186,738;24928,455;31,07312
 275,14; 7954,430;  228,431;25139,722;31,01404
 275,74; 7868,939;  171,124;25213,532;30,73912
 276,33; 7960,657;  235,739;25691,686;30,34622
 276,93; 7968,882;  203,892;26054,556;30,03788
 277,53; 8133,116;  193,354;26511,015;30,16895
 278,12; 8203,713;  172,277;27017,644;29,91740
 278,72; 8419,161;  258,661;27762,943;29,66992
 279,32; 8566,128;  190,815;28294,102;29,80190
 279,91; 8755,314;  177,508;28957,693;29,80456
 280,51; 8938,832;  189,277;29510,574;29,84027
 281,11; 9084,824;  207,431;30262,599;29,53699
 281,70; 9228,980;  178,200;30711,540;29,64228
 282,30; 9388,928;  188,277;31444,406;29,43631
 282,90; 9516,962;  188,585;31805,496;29,50439
 283,49; 9730,233;  212,739;32334,427;29,62950
 284,09; 9911,760;  236,123;32725,455;29,78096
 284,69; 9999,182;  227,969;33260,773;29,58033
 285,28;10135,087;  214,892;33621,729;29,69510
 285,88;10318,392;  267,816;33732,635;30,03326
 286,47;10408,904;  202,046;33898,539;30,29056
 287,07;10548,302;  231,046;33912,914;30,63148
 287,67;10670,807;  215,507;34022,901;30,92608
 288,26;10805,293;  197,123;34016,478;31,36716
 288,86;10949,264;  190,046;34056,750;31,76931
 289,46;11197,814;  214,815;34230,300;32,28823
 290,05;11375,408;  189,430;34225,200;32,86536
 290,65;11639,214;  193,431;34400,326;33,46045
 291,24;11924,810;  202,661;34523,264;34,15485
 291,84;12238,033;  214,892;34720,346;34,84417
 292,44;12458,421;  211,891;34843,036;35,36276
 293,03;12846,565;  293,508;34928,448;36,24391
 293,63;12998,394;  205,354;35113,556;36,64766
 294,22;13301,685;  229,661;35285,108;37,28956
 294,82;13465,644;  200,047;35265,138;37,83135
 295,41;13483,364;  181,431;34979,002;38,22662
 296,01;13652,317;  240,047;34862,268;38,73891
 296,61;13696,815;  231,431;34641,414;39,13220
 297,20;13638,349;  216,739;34275,725;39,40696
 297,80;13680,516;  218,738;34039,254;39,80358
 298,39;13563,971;  184,585;33651,009;39,97853
 298,99;13646,172;  233,970;33553,030;40,25384
 299,58;13604,262;  209,892;33451,560;40,29392
 300,18;13585,460;  221,661;33178,930;40,54887
 300,78;13493,778;  198,892;32763,057;40,82674
 301,37;13494,069;  222,278;32759,607;40,78943
 301,97;13586,939;  222,815;32712,436;41,13352
 302,56;13583,978;  207,739;32605,176;41,28795
 303,16;13608,841;  187,200;32422,182;41,63688
 303,75;13654,617;  197,661;32489,889;41,67243
 304,35;13788,262;  183,814;32689,675;41,85229
 304,94;13960,577;  200,200;32786,534;42,22745
 305,54;13990,342;  219,661;32726,019;42,36304
 306,13;13976,699;  186,814;32615,867;42,52324
 306,73;14019,609;  181,199;32401,511;42,94934
 307,33;14105,818;  201,892;32387,508;43,19919
 307,92;14163,748;  226,046;32372,003;43,35756
 308,52;14452,866;  177,277;32855,760;43,68498
 309,11;14872,963;  193,278;33394,380;44,21445
 309,71;15157,195;  183,201;33672,532;44,71273
 310,30;15257,696;  190,046;33821,965;44,80163
 310,90;15623,773;  238,969;34177,350;45,33158
 311,49;15794,384;  208,046;34320,218;45,69143
 312,09;15986,719;  172,584;34482,793;46,09163
 312,68;16414,553;  274,815;34917,591;46,58904
 313,28;16485,748;  172,277;35101,003;46,70503
 313,87;16735,273;  160,892;35171,589;47,34091
 314,47;17013,363;  198,816;35477,156;47,66252
 315,06;17262,511;  186,046;35522,007;48,32603
 315,66;17490,489;  186,507;35733,947;48,67856
 316,25;17495,384;  176,431;35683,007;48,77675
 316,85;17719,022;  170,969;35742,567;49,33164
 317,44;17986,952;  188,662;35869,926;49,88133
 318,04;18066,144;  183,277;35916,590;50,04537
 318,63;18277,777;  168,892;35908,327;50,66920
 319,22;18520,681;  195,123;36093,245;51,04879
 319,82;18619,386;  191,123;35976,755;51,49626
 320,41;18728,117;  215,277;35992,053;51,74541
 321,01;18912,505;  210,738;36146,166;52,04270
 321,60;19105,947;  202,508;36070,930;52,70218
 322,20;19201,309;  187,815;36028,101;53,05062
 322,79;19384,910;  216,507;36180,362;53,29908
 323,39;19534,648;  192,430;36242,924;53,65313
 323,98;19708,342;  169,354;36090,019;54,39484
 324,58;19732,727;  182,200;36020,884;54,55146
 325,17;19825,883;  192,200;35870,151;55,03030
 325,76;19912,803;  211,354;35657,923;55,58069
 326,36;19821,000;  186,200;35334,794;55,86226
 326,95;19878,076;  221,662;35040,737;56,45301
 327,55;19834,838;  185,662;34519,396;57,22994
 328,14;19724,394;  188,199;34236,326;57,37818
 328,74;19653,613;  219,431;33788,296;57,89347
 329,33;19558,991;  202,969;33387,282;58,32883
 329,92;19384,986;  183,662;32810,785;58,85080
 330,52;19181,537;  203,353;32188,411;59,33453
 331,11;19105,116;  196,046;31720,361;59,98249
 331,71;18798,391;  186,969;31220,770;59,97146
 332,30;18665,039;  213,969;30698,073;60,52686
 332,89;18432,449;  266,584;30113,996;60,86245
 333,49;18214,783;  211,123;29589,246;61,28254
 334,08;18028,285;  194,969;29096,811;61,70304
 334,68;17854,252;  203,815;28649,029;62,05064
 335,27;17765,419;  206,353;28405,999;62,26697
 335,86;17670,193;  268,815;28031,208;62,67967
 336,46;17551,904;  210,199;27752,328;62,96429
 337,05;17568,318;  188,123;27515,575;63,59976
 337,65;17541,035;  190,123;27432,691;63,69044
 338,24;17683,145;  238,046;27393,801;64,24089
 338,83;17631,769;  226,123;27260,698;64,38291
 339,43;17707,868;  186,123;27263,797;64,70920
 340,02;17752,562;  196,816;27114,892;65,21917
 340,61;17901,959;  205,507;27199,191;65,55775
 341,21;18018,074;  226,585;27164,989;66,04508
 341,80;18085,488;  199,277;27122,563;66,43398
 342,40;18190,777;  206,199;27247,077;66,50885
 342,99;18445,680;  200,353;27356,765;67,18607
 343,58;18635,145;  201,430;27478,513;67,57950
 344,18;18833,408;  218,738;27601,431;67,97969
 344,77;19152,750;  192,970;27959,751;68,28224
 345,36;19443,922;  182,431;28209,737;68,72402
 345,96;19778,712;  231,277;28494,299;69,16258
 346,55;20061,826;  189,045;28716,329;69,66236
 347,14;20429,589;  189,738;29085,295;70,04486
 347,74;20793,288;  183,352;29550,925;70,17923
 348,33;21327,833;  192,583;30209,862;70,41028
 348,92;21964,458;  220,275;30725,797;71,27950
 349,52;22228,549;  179,891;31257,287;70,94757
 350,11;22503,949;  198,047;31541,063;71,16706
 350,70;22695,531;  194,200;31685,435;71,45268
 351,29;22581,727;  181,047;31461,114;71,61328
 351,89;22714,102;  224,585;31392,717;72,15548
 352,48;22832,488;  173,815;31412,140;72,53485
 353,07;22855,274;  208,276;31342,589;72,73968
 353,67;22858,351;  215,660;31275,378;72,90050
 354,26;22786,373;  209,353;31048,188;73,20970
 354,85;22721,142;  208,430;31019,938;73,06592
 355,45;22664,042;  173,739;30726,474;73,61142
 356,04;22695,922;  205,584;30690,353;73,77565
 356,63;22520,946;  237,354;30434,989;73,79251
 357,22;22547,823;  210,663;30226,312;74,41838
 357,82;22420,481;  213,355;30104,087;74,29435
 358,41;22423,381;  234,508;29983,240;74,58763
 359,00;22240,267;  187,893;29761,074;74,56883
 359,60;22268,130;  205,738;29763,524;74,64156
 360,19;22205,088;  230,507;29572,844;74,89036
 360,78;22062,776;  202,969;29434,366;74,78194
 361,37;21967,679;  192,123;29202,554;75,06113
 361,97;21923,363;  205,892;29156,830;75,01474
 362,56;21780,800;  200,662;28846,136;75,33524
 363,15;21635,339;  277,431;28535,867;75,58065
 363,74;21314,281;  214,816;28197,699;75,40133
 364,34;21089,426;  221,123;27826,455;75,59519
 364,93;20808,816;  199,277;27426,893;75,69351
 365,52;20485,885;  184,508;27035,361;75,60794
 366,11;20257,205;  203,508;26767,506;75,49201
 366,71;19981,988;  198,431;26287,784;75,83000
 367,30;19654,125;  206,892;25978,720;75,45927
 367,89;19492,685;  247,046;25806,704;75,29694
 368,48;19243,934;  227,431;25384,459;75,59122
 369,07;18912,223;  207,584;24999,127;75,44766
 369,67;18606,500;  228,431;24635,535;75,29803
 370,26;18345,723;  199,969;24350,656;75,13556
 370,85;18235,794;  204,046;24181,776;75,20206
 371,44;18046,661;  221,585;23928,164;75,19042
 372,03;17783,979;  181,970;23678,733;74,91249
 372,63;17523,763;  177,431;23427,203;74,60861
 373,22;17351,758;  184,431;23100,841;74,91281
 373,81;17011,625;  187,815;22741,652;74,59400
 374,40;16914,639;  206,046;22536,065;74,82570
 374,99;16633,114;  201,046;22255,171;74,50791
 375,59;16327,068;  169,969;21927,532;74,25969
 376,18;16255,704;  222,508;21828,824;74,20606
 376,77;16111,833;  217,661;21650,650;74,15751
 377,36;15978,981;  243,815;21528,174;73,92831
 377,95;15752,795;  219,354;21280,852;73,75278
 378,55;15611,043;  194,584;21060,243;73,88436
 379,14;15486,659;  231,739;21020,434;73,38085
 379,73;15323,602;  217,739;20886,074;73,08699
 380,32;15406,223;  223,277;20967,569;73,19096
 380,91;15232,861;  200,739;20786,052;73,02353
 381,50;15239,088;  211,123;20788,016;73,03321
 382,10;15105,531;  202,661;20650,569;72,88212
 382,69;14988,540;  186,123;20617,678;72,44880
 383,28;14953,115;  233,123;20536,939;72,49865
 383,87;14801,625;  200,739;20358,768;72,43211
 384,46;14742,225;  198,201;20349,510;72,17409
 385,05;14694,459;  221,508;20343,508;71,92600
 385,64;14650,743;  211,200;20334,968;71,75368
 386,24;14556,188;  187,124;20228,134;71,69830
 386,83;14577,993;  230,586;20334,857;71,36497
 387,42;14578,396;  232,431;20459,728;70,92379
 388,01;14664,207;  216,740;20576,120;70,96222
 388,60;14849,420;  204,893;20827,863;71,01076
 389,19;14910,045;  200,279;21101,875;70,37628
 389,78;15021,483;  202,586;21319,797;70,17450
 390,37;15419,363;  274,740;21778,099;70,42910
 390,96;15440,626;  219,585;21931,882;70,10332
 391,56;15477,315;  213,356;22109,404;69,71102
 392,15;15617,115;  200,355;22334,496;69,65149
 392,74;15698,500;  178,818;22547,688;69,38071
 393,33;15839,783;  222,048;22808,033;69,14790
 393,92;16140,563;  218,203;23277,774;69,04881
 394,51;16252,683;  202,894;23463,397;69,00018
 395,10;16353,081;  243,358;23664,751;68,78208
 395,69;16387,355;  226,896;23849,834;68,41003
 396,28;16485,323;  225,820;23985,185;68,43408
 396,87;16430,213;  230,975;24001,921;68,14721
 397,46;16487,342;  249,898;24097,362;68,08877
 398,06;16563,506;  263,130;24304,566;67,80117
 398,65;16556,340;  228,132;24408,209;67,52753
 399,24;16654,769;  262,286;24575,099;67,42323
 399,83;16579,228;  226,596;24616,465;67,04682
 400,42;16677,485;  273,676;24717,963;67,10692
 401,01;16711,489;  240,371;24823,113;67,00277
 401,60;16676,351;  251,836;24869,234;66,71913
 402,19;16636,881;  283,993;24838,259;66,59897
 402,78;16658,331;  275,229;24874,996;66,59861
 403,37;16418,847;  260,926;24657,434;66,23046
 403,96;16289,039;  257,315;24584,423;65,90066
 404,55;16240,110;  273,860;24486,578;65,94158
 405,14;16131,443;  245,942;24325,384;65,97122
 405,73;16034,348;  267,410;24215,857;65,83699
 406,32;15997,498;  265,798;24158,146;65,84409
 406,91;15718,015;  256,034;23903,949;65,38412
 407,50;15661,859;  261,960;23743,123;65,58406
 408,09;15438,946;  236,423;23438,307;65,52279
 408,68;15316,185;  256,116;23348,146;65,21760
 409,27;15106,805;  224,653;23096,682;65,06704
 409,86;14965,956;  247,342;22907,263;64,95439
 410,45;14945,114;  286,877;22908,280;64,79809
 411,04;14787,973;  277,335;22826,099;64,35225
 411,63;14571,686;  261,331;22601,988;64,05521
 412,22;14449,936;  263,174;22399,880;64,08705
 412,81;14283,006;  281,634;22137,078;64,06354
 413,40;14067,924;  281,555;21770,582;64,15539
 413,99;13837,056;  332,094;21514,368;63,75596
 414,58;13522,012;  252,478;21002,093;63,95075
 415,17;13304,448;  261,711;20794,881;63,52033
 415,76;13233,594;  249,789;20690,617;63,51898
 416,35;13020,302;  240,788;20435,067;63,28284
 416,94;13046,939;  266,712;20468,723;63,26215
 417,53;13116,535;  251,711;20661,892;63,03141
 418,12;13171,184;  242,710;20730,002;63,10484
 418,71;13359,817;  279,786;21138,316;62,70831
 419,30;13378,511;  256,864;21254,449;62,49122
 419,89;13471,218;  241,017;21375,380;62,60042
 420,48;13640,350;  275,324;21641,859;62,55121
 421,07;13673,861;  274,016;21753,803;62,38351
 421,66;13622,908;  225,477;21830,402;62,01101
 422,25;13623,791;  245,322;21813,606;62,02843
 422,84;13647,925;  273,398;21774,986;62,20251
 423,43;13358,094;  246,476;21522,667;61,62578
 424,02;13248,989;  281,629;21273,919;61,77201
 424,60;12933,329;  244,012;20895,165;61,44604
 425,19;12713,737;  260,321;20576,013;61,29949
 425,78;12646,599;  270,321;20533,943;61,07634
 426,37;12530,661;  275,012;20311,570;61,16644
 426,96;12441,564;  262,935;20209,604;61,05596
 427,55;12304,899;  255,165;20098,007;60,72585
 428,14;12181,899;  245,395;19836,295;60,92882
 428,73;12023,882;  258,473;19605,346;60,81297
 429,32;11987,553;  272,320;19611,131;60,57887
 429,91;12008,775;  289,935;19588,850;60,72279
 430,50;11865,629;  273,934;19440,017;60,48025
 431,08;11715,378;  274,703;19350,167;59,97586
 431,67;11722,613;  322,472;19182,511;60,44601
 432,26;11558,334;  330,240;19155,739;59,64301
 432,85;11425,041;  359,856;18684,997;60,38253
 433,44;11120,890;  361,086;18412,188;59,60746
 434,03;10939,741;  377,624;18036,127;59,81321
 434,62;10665,951;  334,624;17571,200;59,93839
 435,21;10513,846;  364,625;17407,817;59,55000
 435,79;10407,463;  344,009;17202,200;59,69474
 436,38;10281,368;  331,008;17105,118;59,31975
 436,97;10189,128;  327,546;17034,240;59,02773
 437,56;10106,231;  330,929;16753,433;59,52382
 438,15; 9965,694;  301,699;16653,567;59,10025
 438,74; 9940,728;  321,468;16701,368;58,72600
 439,33; 9945,969;  295,776;16706,956;58,80255
 439,91; 9908,811;  268,160;16797,114;58,32584
 440,50; 9891,761;  306,390;16821,882;58,03866
 441,09; 9983,785;  301,620;16962,768;58,11223
 441,68; 9981,246;  282,312;16895,307;58,38161
 442,27; 9913,704;  274,697;16926,060;57,88719
 442,86; 9960,699;  247,311;16917,102;58,26941
 443,44; 9927,114;  270,080;16958,484;57,86673
 444,03;10030,842;  344,849;17011,572;58,11577
 444,62; 9856,982;  265,310;16877,679;57,73813
 445,21; 9785,738;  272,311;16743,861;57,75672
 445,80; 9737,772;  326,694;16620,048;57,76022
 446,39; 9598,715;  352,771;16340,226;57,83249
 446,97; 9347,942;  262,617;16108,364;57,33605
 447,56; 9205,437;  270,308;15926,377;57,07134
 448,15; 9103,101;  273,693;15814,667;56,81373
 448,74; 8988,285;  288,386;15502,029;57,18485
 449,33; 8891,066;  267,000;15334,790;57,23511
 449,91; 8713,966;  270,000;15119,481;56,86371
 450,50; 8577,346;  266,923;15001,407;56,40119
 451,09; 8485,343;  287,153;14839,679;56,33517
 451,68; 8474,288;  302,999;14679,951;56,83603
 452,26; 8356,194;  304,076;14621,445;56,24021
 452,85; 8304,716;  283,999;14589,803;56,06617
 453,44; 8306,938;  285,998;14524,425;56,33305
 454,03; 8220,513;  263,999;14532,629;55,76229
 454,61; 8185,988;  269,536;14408,138;55,99176
 455,20; 8311,000;  286,613;14606,802;56,03548
 455,79; 8207,195;  288,460;14599,771;55,33201
 456,38; 8311,301;  312,535;14697,326;55,60571
 456,97; 8321,380;  285,535;14764,556;55,49992
 457,55; 8279,003;  273,996;14841,339;54,95173
 458,14; 8317,630;  298,074;14834,503;55,16868
 458,73; 8199,438;  294,304;14726,820;54,77308
 459,31; 8249,530;  314,996;14761,347;54,92414
 459,90; 8251,379;  332,611;14809,037;54,70113
 460,49; 8340,959;  382,842;14942,507;54,65865
 461,08; 8293,447;  285,687;14982,141;54,48770
 461,66; 8281,541;  288,996;15006,878;54,30500
 462,25; 8369,143;  293,918;15146,311;54,36986
 462,84; 8344,035;  309,072;15159,238;54,10689
 463,43; 8315,257;  259,302;15173,534;54,01522
 464,01; 8251,669;  293,686;15166,802;53,50583
 464,60; 8288,237;  339,148;15137,837;53,71482
 465,19; 8066,802;  261,147;14904,298;53,30584
 465,77; 8056,323;  283,147;14883,177;53,24082
 466,36; 8033,272;  313,609;14725,196;53,56566
 466,95; 7832,749;  287,763;14453,511;53,26218
 467,53; 7697,367;  295,992;14207,375;53,20373
 468,12; 7513,532;  314,300;13891,232;53,02547
 468,71; 7343,035;  283,993;13630,874;52,88907
 469,29; 7200,653;  267,915;13356,641;52,96725
 469,88; 6996,874;  275,530;13135,149;52,26705
 470,47; 7086,415;  357,222;13265,570;52,13055
 471,06; 7017,265;  291,530;13220,317;52,02139
 471,64; 7055,973;  290,145;13284,517;52,06737
 472,23; 7013,560;  265,452;13267,731;51,89943
 472,81; 7075,533;  264,529;13414,963;51,79299
 473,40; 7127,983;  277,759;13581,645;51,49040
 473,99; 7320,088;  386,221;13753,277;51,87281
 474,57; 7266,133;  283,144;13879,513;51,35922
 475,16; 7336,057;  293,837;14023,474;51,29211
 475,75; 7393,449;  309,989;14136,680;51,23033
 476,33; 7436,893;  314,143;14221,809;51,21456
 476,92; 7479,037;  314,221;14265,335;51,35658
 477,51; 7416,170;  295,451;14364,120;50,61402
 478,09; 7468,612;  313,374;14420,616;50,72032
 478,68; 7402,745;  311,758;14328,112;50,59080
 479,27; 7436,899;  329,836;14399,919;50,51188
 479,85; 7378,601;  300,604;14334,797;50,43395
 480,44; 7457,410;  277,296;14525,536;50,39299
 481,02; 7973,002;  300,373;15641,632;50,01303
 481,61; 9023,590;  327,450;17838,460;49,66098
 482,20; 9668,227;  309,604;19086,866;49,84019
 482,78;10072,596;  333,220;19995,974;49,53211
 483,37;10369,661;  318,141;20514,022;49,77015
 483,95;10530,801;  358,064;20894,302;49,53554
 484,54;10611,463;  372,604;21020,824;49,58712
 485,13;10552,398;  323,294;21004,797;49,46016
 485,71;10427,342;  306,064;20789,146;49,41287
 486,30;10342,399;  353,295;20504,103;49,57173
 486,88;10188,226;  406,141;20102,079;49,66549
 487,47; 9795,668;  378,910;19352,517;49,63083
 488,05; 9367,337;  359,602;18537,919;49,55209
 488,64; 8743,657;  346,524;17242,064;49,70029
 489,23; 7923,184;  352,986;15413,400;50,26554
 489,81; 6726,578;  354,217;13197,316;49,61700
 490,40; 6282,757;  307,755;12419,682;49,33155
 490,98; 6139,451;  293,370;12201,969;49,09126
 491,57; 6092,883;  318,294;12017,048;49,36072
 492,15; 6034,390;  303,293;11982,283;49,07186
 492,74; 5975,244;  312,602;11912,700;48,81547
 493,32; 5935,789;  340,601;11860,619;48,56927
 493,91; 5853,396;  299,447;11670,779;48,84168
 494,50; 5884,568;  299,753;11641,362;49,24182
 495,08; 5778,829;  280,138;11616,013;48,50698
 495,67; 5812,115;  312,216;11611,836;48,67331
 496,25; 5669,449;  259,292;11469,259;48,26202
 496,84; 5716,545;  265,524;11434,149;48,80655
 497,42; 5633,265;  263,369;11368,782;48,35386
 498,01; 5620,382;  279,293;11358,501;48,20822
 498,59; 5543,161;  251,831;11226,340;48,21474
 499,18; 5527,346;  252,370;11196,086;48,20096
 499,76; 5525,290;  284,369;11118,571;48,37385
 500,35; 5377,921;  269,292;10916,098;47,98274
 500,93; 5349,108;  278,446;10882,188;47,81955
 501,52; 5291,936;  253,138;10789,798;47,82159
 502,10; 5294,889;  283,907;10811,006;47,60079
 502,69; 5169,090;  250,752;10642,086;47,33115
 503,27; 5110,495;  240,446;10388,494;47,99000
 503,86; 5033,397;  262,830;10347,452;47,30537
 504,44; 4963,080;  233,291;10188,037;47,51290
 505,03; 4822,940;  209,829;10037,699;46,93907
 505,61; 4752,353;  235,522; 9844,697;47,00540
 506,19; 4692,273;  261,060; 9739,815;46,74889
 506,78; 4534,260;  233,367; 9486,017;46,48282
 507,36; 4459,865;  236,829; 9362,102;46,27846
 507,95; 4396,682;  237,674; 9190,431;46,45505
 508,53; 4311,866;  229,521; 9055,889;46,25170
 509,12; 4277,979;  244,136; 8923,036;46,47874
 509,70; 4203,080;  266,905; 8747,999;46,41117
 510,29; 4126,568;  275,751; 8644,959;46,01173
 510,87; 4000,760;  216,290; 8452,257;45,95053
 511,46; 3914,943;  221,521; 8258,370;45,95610
 512,04; 3859,455;  226,828; 8129,275;45,96839
 512,62; 3773,847;  244,444; 7965,173;45,71333
 513,21; 3701,649;  226,828; 7825,629;45,72854
 513,79; 3641,071;  225,442; 7658,275;45,95326
 514,38; 3546,006;  206,288; 7517,323;45,68051
 514,96; 3540,797;  261,212; 7468,307;45,50495
 515,54; 3442,890;  213,673; 7323,410;45,41964
 516,13; 3400,835;  241,750; 7239,029;45,14734
 516,71; 3325,075;  231,672; 7048,137;45,38134
 517,30; 3250,765;  221,749; 6947,063;45,03903
 517,88; 3222,328;  233,518; 6878,640;44,97751
 518,46; 3126,880;  222,210; 6730,611;44,62954
 519,05; 3117,071;  226,210; 6703,333;44,63188
 519,63; 3079,293;  228,595; 6616,340;44,62762
 520,22; 3051,233;  246,209; 6593,731;44,19085
 520,80; 2994,967;  223,825; 6508,854;44,09116
 521,38; 2999,868;  280,133; 6486,640;43,82070
 521,97; 2949,620;  222,209; 6443,422;43,84051
 522,55; 2932,424;  238,747; 6389,435;43,79472
 523,13; 2901,483;  215,286; 6387,909;43,51792
 523,72; 2850,981;  217,672; 6378,496;42,74281
 524,30; 2925,498;  246,593; 6516,379;42,72721
 524,89; 2911,354;  204,132; 6523,006;42,84342
 525,47; 2950,162;  241,362; 6618,150;42,47906
 526,05; 2933,967;  198,670; 6671,354;42,25908
 526,64; 2967,720;  237,054; 6804,078;41,58149
 527,22; 3033,244;  237,362; 6914,608;41,87178
 527,80; 3082,856;  274,670; 7003,360;41,73452
 528,39; 3046,713;  219,438; 7098,852;41,09762
 528,97; 3111,973;  220,208; 7247,004;41,15339
 529,55; 3161,742;  234,132; 7432,849;40,66850
 530,14; 3237,626;  242,977; 7651,572;40,42129
 530,72; 3236,107;  217,592; 7691,269;40,38862
 531,30; 3268,898;  196,669; 7850,156;40,14156
 531,89; 3309,254;  227,515; 7970,985;39,79791
 532,47; 3372,124;  258,900; 8056,487;39,92548
 533,05; 3358,337;  242,439; 8120,403;39,55208
 533,63; 3391,895;  245,746; 8132,062;39,89377
 534,22; 3371,938;  222,438; 8165,049;39,65320
 534,80; 3431,865;  255,361; 8286,546;39,55213
 535,38; 3538,444;  342,130; 8387,112;39,73052
 535,97; 3395,364;  238,515; 8292,999;39,19368
 536,55; 3480,306;  289,591; 8392,947;39,37522
 537,13; 3442,111;  278,746; 8402,746;38,93851
 537,71; 3514,608;  327,438; 8388,624;39,53724
 538,30; 3487,514;  338,899; 8503,060;38,56630
 538,88; 3530,439;  366,822; 8579,232;38,52239
 539,46; 3635,053;  431,514; 8757,867;38,47469
 540,05; 3669,828;  435,206; 8896,209;38,22977
 540,63; 3743,775;  469,053; 9121,692;37,84651
 541,21; 3786,390;  493,898; 9215,345;37,75167
 541,79; 3842,362;  511,898; 9361,944;37,63216
 542,38; 3899,479;  567,283; 9493,009;37,33249
 542,96; 3925,624;  557,206; 9675,574;36,94102
 543,54; 4012,594;  587,668; 9843,577;37,00260
 544,12; 4041,965;  549,744; 9988,780;36,99764
 544,70; 4041,795;  531,129;10076,676;36,77806
 545,29; 4058,705;  543,745;10209,475;36,36518
 545,87; 4052,670;  516,975;10317,020;36,07835
 546,45; 4025,197;  492,668;10274,433;36,11341
 547,03; 4038,703;  473,668;10355,245;36,07760
 547,62; 4050,745;  430,745;10495,003;35,96887
 548,20; 4103,289;  428,667;10633,114;36,01001
 548,78; 4081,062;  401,436;10763,419;35,51083
 549,36; 4108,892;  371,436;10946,028;35,34374
 549,94; 4118,289;  331,052;11069,248;35,26883
 550,53; 4169,449;  343,205;11307,205;34,89825
 551,11; 4171,926;  308,974;11423,540;34,75576
 551,69; 4264,315;  326,513;11763,498;34,43043
 552,27; 4288,855;  275,436;12006,016;34,21330
 552,85; 4364,715;  279,820;12368,352;33,79149
 553,44; 4478,628;  292,974;12606,340;33,99277
 554,02; 4548,378;  296,974;12948,701;33,60335
 554,60; 4607,876;  231,897;13286,616;33,52029
 555,18; 4705,248;  272,513;13666,087;33,09598
 555,76; 4775,931;  258,820;13938,209;33,02129
 556,34; 4884,485;  275,127;14286,410;32,89747
 556,93; 4994,775;  245,974;14742,172;32,75894
 557,51; 5065,494;  232,358;15086,384;32,53755
 558,09; 5162,655;  269,743;15381,647;32,37787
 558,67; 5240,600;  256,435;15790,824;32,08472
 559,25; 5294,625;  271,819;15994,843;31,94554
 559,83; 5351,847;  246,973;16349,542;31,70223
 560,41; 5443,816;  231,743;16741,412;31,56982
 561,00; 5577,936;  251,512;17058,456;31,69181
 561,58; 5574,672;  233,589;17295,942;31,30332
 562,16; 5658,815;  233,128;17563,758;31,30692
 562,74; 5717,652;  216,666;18019,534;30,89944
 563,32; 5828,713;  214,665;18463,047;30,76463
 563,90; 5945,230;  237,358;18751,178;30,83033
 564,48; 6018,685;  237,743;19141,490;30,58093
 565,06; 6204,664;  231,896;19742,025;30,61368
 565,65; 6384,703;  251,280;20392,804;30,45163
 566,23; 6627,671;  292,588;21174,520;30,33763
 566,81; 6765,875;  236,589;21803,886;30,27401
 567,39; 7017,858;  242,973;22719,322;30,14228
 567,97; 7203,079;  261,358;23375,137;30,03283
 568,55; 7461,137;  290,742;24221,748;29,96278
 569,13; 7650,142;  236,127;24876,340;30,08909
 569,71; 7855,296;  228,051;25867,724;29,74783
 570,29; 8238,858;  275,820;26786,630;30,03694
 570,87; 8417,064;  276,897;27584,995;29,80862
 571,45; 8531,947;  256,742;28290,910;29,51828
 572,03; 8585,441;  231,588;28672,731;29,37242
 572,61; 8754,065;  221,357;29338,205;29,30505
 573,20; 8955,454;  250,204;30011,990;29,24976
 573,78; 9120,420;  226,434;30679,324;29,20572
 574,36; 9239,659;  245,358;31202,664;29,05389
 574,94; 9312,409;  314,280;31659,909;28,70617
 575,52; 9296,924;  236,203;31794,562;28,71100
 576,10; 9489,124;  287,972;32346,027;28,70153
 576,68; 9545,783;  267,896;32898,129;28,43341
 577,26; 9750,243;  306,895;33577,054;28,38384
 577,84; 9855,614;  289,204;34085,120;28,30641
 578,42; 9892,803;  332,357;34419,056;28,04744
 579,00; 9829,357;  278,204;34499,448;27,91001
 579,58; 9928,635;  326,665;34762,836;27,88338
 580,16; 9795,882;  281,357;34720,555;27,62702
 580,74; 9772,006;  290,434;34999,443;27,31732
 581,32; 9731,719;  287,357;34998,792;27,20822
 581,90; 9694,657;  306,049;34962,551;27,09047
 582,48; 9617,742;  288,357;35030,909;26,85291
 583,06; 9580,581;  291,511;35274,242;26,55330
 583,64; 9552,765;  284,742;35241,277;26,51299
 584,22; 9444,117;  288,049;35129,513;26,27923
 584,80; 9269,658;  311,742;34846,492;25,93885
 585,38; 9105,202;  313,358;34446,987;25,75713
 585,96; 9029,590;  282,973;34460,178;25,59196
 586,54; 8945,044;  297,587;34444,318;25,32440
 587,12; 8878,728;  274,434;34628,958;25,04559
 587,70; 8923,790;  308,050;34745,450;25,01856
 588,28; 8806,056;  279,895;34788,386;24,70743
 588,86; 8759,124;  289,203;34790,816;24,54935
 589,44; 8717,830;  254,202;34892,229;24,43450
 590,02; 8693,821;  268,971;35066,005;24,21140
 590,59; 8642,972;  260,433;35229,930;23,97100
 591,17; 8620,074;  277,817;35454,411;23,71536
 591,75; 8564,567;  257,740;35548,657;23,53814
 592,33; 8590,270;  280,356;35684,014;23,47191
 592,91; 8548,555;  227,894;35979,050;23,27382
 593,49; 8553,305;  246,355;36252,507;23,07092
 594,07; 8584,157;  258,509;36510,042;22,96633
 594,65; 8529,749;  273,433;36473,655;22,80736
 595,23; 8532,490;  259,587;36899,907;22,57869
 595,81; 8565,071;  252,587;36986,144;22,62913
 596,39; 8533,935;  234,971;37078,246;22,52504
 596,97; 8464,219;  242,125;37280,341;22,19895
 597,55; 8471,869;  244,049;37309,661;22,19799
 598,12; 8378,041;  221,355;37275,975;22,01260
 598,70; 8382,489;  217,817;37385,292;21,96725
 599,28; 8364,840;  246,432;37516,125;21,78287
 599,86; 8343,423;  235,509;37574,361;21,71442
 600,44; 8271,062;  198,894;37647,632;21,55525
 601,02; 8266,841;  253,508;37762,855;21,36356
 601,60; 8209,023;  234,433;37705,661;21,28190
 602,18; 8144,330;  219,970;37747,488;21,11613
 602,75; 8068,255;  216,125;37756,486;20,91650
 603,33; 8075,561;  223,509;37790,142;20,90166
 603,91; 7950,283;  210,355;37721,005;20,63395
 604,49; 8006,766;  227,971;37758,719;20,72646
 605,07; 7905,356;  243,125;37840,623;20,37963
 605,65; 7896,055;  254,663;37978,541;20,25611
 606,23; 7878,888;  287,049;38103,897;20,07528
 606,80; 7848,073;  296,741;38058,931;19,99707
 607,38; 7816,021;  317,509;38170,951;19,80933
 607,96; 7757,309;  348,279;38194,081;19,57689
 608,54; 7816,257;  398,047;38186,986;19,63064
 609,12; 7761,347;  386,279;38354,841;19,42414
 609,70; 7735,770;  402,509;38368,755;19,31521
 610,27; 7649,282;  403,587;38434,389;19,05218
 610,85; 7682,550;  438,202;38529,208;19,01853
 611,43; 7641,629;  426,432;38461,630;18,96979
 612,01; 7500,993;  391,894;38276,607;18,76509
 612,59; 7464,909;  393,663;38270,554;18,66903
 613,16; 7366,530;  372,895;38193,761;18,49147
 613,74; 7345,681;  358,124;38003,668;18,56144
 614,32; 7288,141;  351,355;38082,592;18,38473
 614,90; 7214,444;  334,586;37936,711;18,29646
 615,48; 7086,806;  296,741;37630,400;18,18752
 616,05; 7050,985;  270,587;37543,036;18,19145
 616,63; 7020,625;  290,203;37447,978;18,11309
 617,21; 6934,114;  267,818;37336,804;17,98349
 617,79; 6856,993;  271,433;37268,587;17,80018
 618,36; 6826,251;  281,048;37275,913;17,69219
 618,94; 6680,665;  231,356;36803,429;17,63452
 619,52; 6631,849;  248,972;36682,811;17,51909
 620,10; 6601,341;  226,356;36564,307;17,54360
 620,67; 6565,899;  245,818;36475,273;17,44459
 621,25; 6498,009;  266,971;36341,460;17,27270
 621,83; 6398,295;  242,587;36286,399;17,07840
 622,41; 6430,844;  285,433;36333,853;17,04766
 622,98; 6344,784;  254,434;36021,051;17,02803
 623,56; 6282,762;  264,357;35995,510;16,84358
 624,14; 6242,816;  263,125;35918,701;16,77071
 624,72; 6233,006;  240,587;35827,288;16,83893
 625,29; 6164,267;  243,434;35931,420;16,59055
 625,87; 6201,714;  278,740;35809,835;16,66983
 626,45; 6078,948;  223,895;35661,101;16,52233
 627,02; 6003,207;  248,125;35708,369;16,22968
 627,60; 5986,759;  231,509;35519,474;16,30939
 628,18; 5937,808;  212,741;35613,072;16,17236
 628,76; 5876,754;  213,203;35574,709;16,01615
 629,33; 5961,189;  254,202;35594,440;16,14869
 629,91; 5880,572;  242,741;35549,845;15,96798
 630,49; 5892,605;  258,356;35731,416;15,88318
 631,06; 5823,199;  236,357;35821,413;15,69997
 631,64; 5813,303;  243,511;35757,143;15,68353
 632,22; 5748,656;  215,972;35640,993;15,61801
 632,79; 5745,238;  235,742;35986,595;15,41081
 633,37; 5720,771;  217,663;35965,811;15,39411
 633,95; 5741,540;  237,511;36011,080;15,38574
 634,52; 5739,781;  218,202;36189,746;15,34985
 635,10; 5734,237;  232,664;36134,077;15,32411
 635,68; 5711,978;  229,280;36399,578;15,15801
 636,25; 5632,446;  214,665;36258,939;15,03091
 636,83; 5617,292;  205,049;36618,786;14,86319
 637,41; 5644,472;  223,357;36545,939;14,92492
 637,98; 5699,608;  248,280;36757,760;14,93127
 638,56; 5639,931;  223,127;36902,018;14,76818
 639,13; 5621,578;  203,280;36975,552;14,73474
 639,71; 5676,578;  283,126;37153,186;14,62827
 640,29; 5500,204;  177,510;36922,296;14,48558
 640,86; 5597,826;  201,433;37025,954;14,65434
 641,44; 5537,370;  203,664;37082,535;14,46277
 642,02; 5554,684;  239,587;37072,039;14,43047
 642,59; 5526,152;  204,126;37344,697;14,32942
 643,17; 5489,313;  206,203;37240,431;14,26548
 643,74; 5512,857;  199,510;37332,781;14,30886
 644,32; 5497,325;  233,818;37176,285;14,24785
 644,89; 5452,639;  232,356;37273,866;14,09306
 645,47; 5449,723;  245,972;37273,601;14,05370
 646,05; 5425,037;  242,895;37166,720;14,03468
 646,62; 5343,428;  214,741;37172,070;13,87732
 647,20; 5344,050;  228,433;37345,959;13,78221
 647,77; 5346,364;  201,895;37107,617;13,93949
 648,35; 5306,524;  203,125;37019,429;13,86179
 648,92; 5285,223;  213,202;37109,163;13,74682
 649,50; 5224,152;  177,895;37018,975;13,69737
 650,08; 5191,774;  182,818;37002,864;13,60388
 650,65; 5250,549;  200,971;37153,906;13,66489
 651,23; 5248,710;  173,895;37858,641;13,46650
 651,80; 5446,331;  182,971;38886,914;13,59903
 652,38; 5488,568;  201,587;39315,956;13,51672
 652,95; 5494,036;  184,510;39767,691;13,41359
 653,53; 5548,735;  208,279;39916,195;13,44935
 654,10; 5562,972;  252,818;40112,391;13,32216
 654,68; 5530,825;  192,971;40043,126;13,39481
 655,25; 5520,908;  189,279;40190,399;13,32870
 655,83; 5519,222;  187,587;40149,673;13,34173
 656,40; 5526,152;  235,125;40164,484;13,25097
 656,98; 5478,466;  197,202;40117,296;13,22959
 657,55; 5429,780;  202,587;39966,800;13,14547
 658,13; 5333,709;  205,202;39564,150;13,03009
 658,70; 5267,562;  225,356;39353,577;12,88637
 659,28; 5176,260;  204,510;38518,389;12,97637
 659,85; 5031,574;  225,663;37644,816;12,84345
 660,43; 5005,273;  229,433;37703,627;12,74434
 661,00; 4958,818;  189,125;37690,824;12,71861
 661,58; 5019,901;  193,510;38098,943;12,73272
 662,15; 5018,138;  181,202;38278,293;12,69634
 662,73; 5138,299;  268,433;38514,951;12,73283
 663,30; 5048,767;  201,740;38722,532;12,58288
 663,88; 5060,388;  200,894;38917,882;12,55132
 664,45; 5077,395;  188,279;39128,386;12,55548
 665,03; 5116,324;  192,586;39535,275;12,51500
 665,60; 5264,331;  292,279;39975,317;12,52941
 666,17; 5130,568;  200,971;40085,206;12,35976
 666,75; 5172,036;  201,663;40366,325;12,37499
 667,32; 5236,657;  215,663;40701,444;12,40187
 667,90; 5269,510;  192,971;40865,410;12,48152
 668,47; 5259,209;  219,355;41122,145;12,32154
 669,05; 5270,830;  186,279;41525,418;12,29961
 669,62; 5296,991;  167,279;41570,152;12,38975
 670,19; 5286,535;  180,817;41644,041;12,31385
 670,77; 5307,465;  199,278;41806,699;12,27710
 671,34; 5325,856;  189,048;41733,895;12,36449
 671,92; 5310,401;  177,894;42058,707;12,25503
 672,49; 5338,484;  213,048;42205,442;12,20563
 673,06; 5325,798;  161,278;42138,792;12,30306
 673,64; 5309,958;  174,894;42104,065;12,24700
 674,21; 5293,195;  171,971;42078,646;12,22055
 674,79; 5381,663;  208,817;42393,304;12,26244
 675,36; 5325,131;  206,817;42591,808;12,07577
 675,93; 5330,138;  164,201;42368,773;12,24023
 676,51; 5352,682;  198,124;42560,431;12,16779
 677,08; 5324,227;  197,047;42653,935;12,07620
 677,65; 5350,926;  190,663;42768,747;12,11953
 678,23; 5356,317;  190,894;42960,481;12,07733
 678,80; 5391,323;  183,278;43157,062;12,11912
 679,38; 5370,714;  193,509;43234,797;12,02846
 679,95; 5457,875;  200,894;43585,839;12,11706
 680,52; 5433,650;  187,201;43712,189;12,05388
 681,10; 5503,349;  208,586;44094,693;12,06478
 681,67; 5583,201;  205,817;44358,197;12,17915
 682,24; 5501,208;  170,124;44439,086;12,04249
 682,82; 5602,368;  179,278;44980,975;12,10465
 683,39; 5697,451;  242,047;45322,786;12,10141
 683,96; 5693,458;  196,816;45596,752;12,10716
 684,54; 5745,464;  177,047;45884,717;12,18267
 685,11; 5804,855;  245,432;46233,990;12,08871
 685,68; 5828,938;  196,047;46585,648;12,14257
 686,25; 5810,791;  177,124;46650,383;12,12238
 686,83; 5881,413;  187,201;46974,502;12,17042
 687,40; 5896,804;  169,509;47295,314;12,15320
 687,97; 5977,733;  232,201;47525,126;12,14882
 688,55; 5962,509;  175,124;47628,091;12,19604
 689,12; 5997,592;  162,509;47867,057;12,23171
 689,69; 5994,829;  171,585;47921,253;12,19536
 690,26; 6072,297;  184,739;48096,295;12,28839
 690,84; 6026,150;  177,509;48252,646;12,16563
 691,41; 6068,617;  198,201;48323,073;12,19830
 691,98; 6135,547;  206,508;48542,730;12,26624
 692,56; 6117,246;  190,432;48735,388;12,20892
 693,13; 6212,098;  237,278;48732,354;12,32047
 693,70; 6187,874;  195,355;48950,165;12,29113
 694,27; 6221,419;  180,431;48987,362;12,37731
 694,84; 6263,733;  171,662;49159,404;12,43591
 695,42; 6288,047;  225,585;49321,370;12,34823
 695,99; 6299,053;  194,047;49499,028;12,38213
 696,56; 6277,290;  185,124;49347,147;12,39202
 697,13; 6346,681;  206,354;49731,497;12,39840
 697,71; 6341,072;  176,124;49833,078;12,41508
 698,28; 6392,002;  180,124;50208,428;12,41673
 698,85; 6380,546;  143,431;50168,855;12,46789
 699,42; 6373,245;  156,816;50374,128;12,37906
 699,99; 6441,252;  204,047;50482,632;12,40529
 700,57; 6463,181;  191,354;50544,444;12,45569
 701,14; 6481,880;  161,124;50638,332;12,52200
 701,71; 6522,271;  202,354;50861,529;12,47536
 702,28; 6567,431;  172,893;50900,033;12,60575
 702,85; 6552,668;  175,739;50990,537;12,54935
 703,43; 6615,982;  199,431;51200,810;12,58113
 704,00; 6646,681;  204,893;51443,006;12,57226
 704,57; 6688,841;  180,816;51548,356;12,66953
 705,14; 6719,386;  205,046;51643,245;12,66440
 705,71; 6741,392;  205,816;51681,441;12,69645
 706,28; 6702,476;  179,123;51600,484;12,68607
 706,86; 6759,020;  200,585;51881,295;12,69030
 707,43; 6817,488;  240,200;51784,184;12,76053
 708,00; 6815,187;  201,893;51829,688;12,80956
 708,57; 6811,501;  169,277;51758,115;12,87531
 709,14; 6819,200;  198,816;51864,465;12,81390
 709,71; 6840,821;  175,969;51958,661;12,87081
 710,28; 6925,828;  183,739;52143,011;12,97572
 710,86; 6969,373;  186,969;52296,977;13,01555
 711,43; 7025,533;  217,508;52232,712;13,08853
 712,00; 7033,616;  192,969;52462,831;13,08717
 712,57; 7075,084;  204,200;52613,181;13,11013
 713,14; 7102,398;  184,508;52694,839;13,17434
 713,71; 7117,866;  206,892;52622,189;13,18503
 714,28; 7120,180;  188,892;52587,155;13,22809
 714,85; 7091,033;  184,585;52370,428;13,23433
 715,42; 7155,039;  189,815;52488,239;13,31823
 716,00; 7288,045;  289,200;52650,513;13,36644
 716,57; 7225,360;  197,354;52897,863;13,33575
 717,14; 7265,751;  188,738;52773,751;13,45823
 717,71; 7263,526;  176,508;52697,409;13,49371
 718,28; 7365,379;  222,123;52941,529;13,54958
 718,85; 7337,770;  179,508;52799,648;13,60365
 719,42; 7423,238;  201,661;53093,690;13,65343
 719,99; 7341,167;  165,738;52844,041;13,62122
 720,56; 7484,327;  220,738;53152,468;13,72256
 721,13; 7493,718;  182,354;53200,664;13,79026
 721,70; 7502,878;  181,815;53172,091;13,81586
 722,27; 7506,731;  212,661;53200,287;13,76561
 722,84; 7681,353;  268,430;53456,945;13,93707
 723,41; 7585,744;  174,430;53359,757;13,93488
 723,98; 7641,596;  196,430;53547,107;13,95515
 724,55; 7737,526;  215,969;53651,611;14,07592
 725,12; 7715,532;  144,892;53561,499;14,17282
 725,69; 7754,308;  188,353;53752,773;14,12496
 726,27; 7841,929;  186,507;53853,507;14,26467
 726,84; 7884,705;  201,584;54174,550;14,23513
 727,41; 7933,250;  220,200;54087,361;14,31865
 727,98; 8002,026;  206,430;54389,173;14,38760
 728,55; 8068,186;  243,507;54299,215;14,47521
 729,12; 8079,961;  183,661;54383,412;14,56889
 729,69; 8128,429;  204,276;54596,223;14,56861
 730,26; 8202,051;  212,969;54893,881;14,61037
 730,82; 8242,980;  193,815;54664,001;14,77720
 731,39; 8255,833;  200,430;54859,889;14,73744
 731,96; 8358,686;  178,661;55130,547;14,88579
 732,53; 8394,538;  200,046;55288,743;14,87509
 733,10; 8485,698;  216,892;55336,401;15,00160
 733,67; 8469,859;  202,353;55680,674;14,90223
 734,24; 8497,634;  174,815;55314,486;15,09407
 734,81; 8557,948;  219,892;55457,451;15,09490
 735,38; 8590,031;  195,892;55160,648;15,27186
 735,95; 8581,499;  194,738;54940,152;15,31957
 736,52; 8605,737;  206,353;55244,348;15,26106
 737,09; 8617,589;  203,661;54918,775;15,37770
 737,66; 8719,288;  241,507;55065,510;15,46363
 738,23; 8722,448;  185,276;55071,091;15,55442
 738,80; 8925,301;  274,968;55413,749;15,68829
 739,37; 8898,768;  226,507;55577,329;15,66781
 739,94; 8956,621;  196,891;55636,987;15,80035
 740,51; 9075,243;  338,814;55690,645;15,78345
 741,07; 8984,403;  201,276;55597,764;15,85502
 741,64; 9039,717;  230,507;55863,268;15,83457
 742,21; 9114,416;  208,891;55899,157;15,99117
 742,78; 9095,345;  173,276;55685,815;16,07217
 743,35; 9181,505;  196,891;55994,011;16,10229
 743,92; 9326,589;  241,199;55992,746;16,29621
 744,49; 9296,057;  240,122;55892,942;16,27219
 745,06; 9334,909;  190,199;55982,831;16,39053
 745,63; 9314,839;  172,276;55944,873;16,39257
 746,19; 9400,383;  197,660;55946,608;16,50744
 746,76; 9452,390;  183,353;56009,573;16,60338
 747,33; 9476,704;  203,276;55937,000;16,63881
 747,90; 9543,633;  220,737;56211,274;16,65084
 748,47; 9581,255;  205,737;56132,470;16,76393
 749,04; 9627,569;  206,737;56220,743;16,81871
 749,61; 9706,499;  246,968;56133,016;16,92646
 750,17; 9751,428;  221,045;56134,674;17,04483
 750,74; 9758,588;  201,814;56069,563;17,10607
 751,31; 9861,364;  194,353;56056,836;17,30502
 751,88; 9838,139;  185,122;55958,725;17,30750
 752,45; 9919,684;  191,429;56058,613;17,41318
 753,02; 9988,306;  225,045;55964,963;17,51574
 753,58;10004,851;  189,814;55822,313;17,64263
 754,15;10027,165;  192,814;55941,202;17,64060
 754,72; 9962,864;  191,891;55777,860;17,57813
 755,29;10012,101;  187,814;55631,364;17,71944
 755,86;10074,723;  201,737;55711,868;17,78592
 756,42;10127,190;  226,275;55701,141;17,84757
 756,99;10158,120;  175,891;55721,106;17,97136
 757,56;10226,126;  195,429;55504,764;18,13563
 758,13;10215,671;  149,814;55387,884;18,22268
 758,70;10322,447;  196,583;55463,849;18,32163
 759,26;10397,069;  194,660;55611,968;18,41015
 759,83;10396,767;  214,198;55725,934;18,34309
 760,40;10430,850;  188,121;55604,130;18,48334
 760,97;10435,934;  191,275;55511,250;18,51891
 761,53;10502,325;  175,429;55224,369;18,75948
 762,10;10474,562;  171,429;55091,411;18,76026
 762,67;10572,568;  202,968;55061,685;18,90238
 763,24;10508,421;  155,967;54714,881;18,97482
 763,80;10577,273;  199,967;54863,231;18,98406
 764,37;10660,587;  184,967;54886,350;19,15056
 764,94;10620,286;  171,429;54448,085;19,25111
 765,50;10613,292;  162,352;54363,897;19,28163
 766,07;10733,760;  209,275;54565,170;19,36218
 766,64;10720,921;  179,506;54260,905;19,49176
 767,21;10708,235;  180,198;54071,639;19,53564
 767,77;10778,395;  207,506;54050,067;19,63296
 768,34;10778,940;  191,506;54016,263;19,67019
 768,91;10777,485;  215,275;53876,228;19,68323
 769,47;10818,645;  195,121;53913,732;19,77624
 770,04;10818,574;  188,429;53773,775;19,83778
 770,61;10809,581;  184,890;53592,663;19,89353
 771,18;10822,741;  173,890;53376,936;20,01549
 771,74;10924,670;  183,659;53561,671;20,12254
 772,31;10883,523;  198,813;53366,021;20,09643
 772,88;10896,298;  177,813;53131,910;20,24109
 773,44;10875,305;  171,198;53045,491;20,24444
 774,01;10961,157;  200,582;53152,764;20,32131
 774,58;10980,010;  173,121;52650,345;20,59348
 775,14;11037,016;  171,198;52948,387;20,58810
 775,71;11067,792;  178,967;52857,353;20,67038
 776,27;11115,875;  240,044;52715,395;20,72560
 776,84;11220,497;  292,582;52833,438;20,79889
 777,41;11195,503;  184,659;52554,249;21,02526
 777,97;11159,125;  185,275;52285,215;21,06308
 778,54;11184,670;  197,352;52279,488;21,09614
 779,11;11212,984;  233,121;52323,607;21,07844
 779,67;11291,683;  177,352;52191,727;21,36781
 780,24;11233,304;  198,813;52040,077;21,28515
 780,80;11324,157;  198,890;52063,427;21,45062
 781,37;11371,317;  221,967;51949,700;21,55391
 781,94;11408,554;  210,351;51784,743;21,71272
 782,50;11459,253;  205,813;51658,554;21,87141
 783,07;11508,413;  223,121;51743,289;21,90461
 783,63;11466,189;  197,044;51456,332;21,98459
 784,20;11548,426;  218,274;51300,528;22,18021
 784,77;11556,971;  200,505;51225,186;22,25681
 785,33;11505,746;  175,121;50983,074;22,30089
 785,90;11606,445;  206,736;51032,809;22,42886
 786,46;11602,144;  229,890;50900,159;22,44364
 787,03;11581,996;  190,813;50652,278;22,57402
 787,59;11650,387;  204,736;50513,936;22,75061
 788,16;11635,394;  215,890;50510,517;22,70522
 788,73;11726,400;  222,890;50512,483;22,87453
 789,29;11638,253;  197,967;50073,679;22,93759
 789,86;11757,490;  237,043;49922,875;23,18658
 790,42;11732,804;  207,813;49712,533;23,28059
 790,99;11695,349;  216,274;49431,806;23,32409
 791,55;11727,970;  218,890;49395,233;23,40369
 792,12;11769,592;  241,736;49436,045;23,43331
 792,68;11758,829;  222,351;49136,549;23,58513
 793,25;11744,682;  228,351;48929,591;23,64689
 793,81;11834,304;  308,274;48567,865;23,88340
 794,38;11640,310;  190,736;48364,061;23,76746
 794,94;11746,086;  194,889;48267,103;24,02884
 795,51;11695,092;  213,428;47920,300;24,06711
 796,07;11699,406;  213,889;47741,650;24,16591
 796,64;11834,105;  236,428;47878,769;24,34321
 797,20;11691,573;  220,428;47325,427;24,35229
 797,77;11633,271;  188,197;47092,700;24,40080
 798,33;11693,355;  222,428;46897,743;24,57600
 798,90;11693,669;  236,735;46832,554;24,58790
 799,46;11681,752;  203,043;46419,674;24,83675
 800,03;11735,220;  218,274;46231,408;25,02969
 800,59;11718,611;  237,812;46110,143;25,02772
 801,15;11697,540;  248,197;45870,109;25,09615
 801,72;11660,008;  206,581;45530,997;25,26988
 802,28;11653,707;  246,812;45259,578;25,34147
 802,85;11691,944;  216,889;45098,005;25,56767
 803,41;11664,566;  218,428;44987,740;25,56693
 803,98;11580,803;  211,966;44489,628;25,67624
 804,54;11615,963;  215,120;44177,363;25,93326
 805,11;11596,739;  232,966;44040,252;25,94037
 805,67;11661,438;  241,735;43948,294;26,12812
 806,23;11569,367;  217,120;43562,798;26,19003
 806,80;11587,296;  239,889;43519,687;26,21872
 807,36;11639,764;  242,043;43446,575;26,38085
 807,93;11627,078;  262,812;43091,618;26,53417
 808,49;11566,085;  219,735;42657,968;26,73615
 809,05;11513,707;  193,966;42565,241;26,71560
 809,62;11527,944;  237,427;42518,053;26,70376
 810,18;11551,104;  229,043;42428,711;26,82974
 810,74;11512,264;  197,350;42170,753;26,95734
 811,31;11519,040;  211,658;41899,949;27,12364
 811,87;11606,585;  235,427;41779,299;27,37144
 812,44;11602,206;  246,427;41752,265;27,35947
 813,00;11499,059;  171,658;41412,769;27,46628
 813,56;11609,681;  243,120;41490,811;27,55684
 814,13;11613,225;  236,889;41363,315;27,66187
 814,69;11617,001;  216,043;41238,973;27,79167
 815,25;11500,700;  194,966;40772,477;27,86207
 815,82;11548,168;  246,581;40720,673;27,92301
 816,38;11634,174;  282,658;40600,100;28,15535
 816,94;11552,719;  222,966;40284,912;28,28059
 817,51;11541,571;  199,273;40110,185;28,41904
 818,07;11515,501;  209,581;39827,074;28,53770
 818,63;11493,430;  233,504;39544,732;28,64303
 819,20;11522,975;  229,196;39453,005;28,79317
 819,76;11417,289;  216,119;39198,432;28,73398
 820,32;11450,911;  251,504;38981,551;28,91659
 820,89;11378,840;  233,196;38803,901;28,89666
 821,45;11392,539;  226,812;38485,944;29,18448
 822,01;11366,007;  232,119;38235,371;29,29720
 822,57;11355,629;  238,196;38185,336;29,29716
 823,14;11327,712;  187,658;37953,917;29,49737
 823,70;11286,334;  209,735;37624,267;29,60507
 824,26;11246,340;  211,427;37509,541;29,58571
 824,82;11311,193;  247,196;37435,352;29,75140
 825,39;11255,199;  210,734;37111,241;29,93039
 825,95;11328,975;  237,504;37266,206;29,95371
 826,51;11243,904;  231,504;36743,710;30,16087
 827,08;11314,757;  273,119;36809,907;30,22060
 827,64;11307,917;  250,427;36649,180;30,37876
 828,20;11275,308;  214,273;36443,299;30,53086
 828,76;11297,007;  260,427;36381,188;30,55467
 829,32;11319,628;  274,580;36132,615;30,80216
 829,89;11214,635;  202,504;36017,657;30,74713
 830,45;11278,180;  241,965;36062,315;30,80990
 831,01;11302,263;  237,119;35843,896;31,07595
 831,57;11309,808;  226,811;35652,708;31,28501
 832,14;11276,122;  226,042;35711,366;31,13986
 832,70;11262,820;  204,888;35426,331;31,39546
 833,26;11246,365;  193,811;35366,373;31,42380
 833,82;11275,218;  230,965;35296,031;31,49646
 834,38;11350,686;  211,811;35233,689;31,80548
 834,95;11321,231;  203,119;35182,193;31,78504
 835,51;11330,622;  176,196;35039,466;31,99478
 836,07;11438,320;  222,503;35112,201;32,14650
 836,63;11460,634;  236,426;35036,859;32,25307
 837,19;11409,487;  231,042;34829,286;32,30928
 837,75;11377,570;  188,811;34607,559;32,50775
 838,32;11484,038;  243,272;34752,602;32,57312
 838,88;11497,891;  244,272;34674,259;32,68551
 839,44;11511,589;  244,349;34681,456;32,71831
 840,00;11511,365;  235,811;34592,652;32,81895
 840,56;11462,064;  212,272;34297,540;33,00485
 841,12;11558,685;  215,272;34213,660;33,36456
 841,68;11472,692;  190,118;34080,395;33,29148
 842,25;11525,313;  208,965;34154,052;33,33722
 842,81;11486,320;  205,811;33854,479;33,52438
 843,37;11521,403;  182,657;33824,753;33,70404
 843,93;11513,410;  221,965;33801,257;33,62622
 844,49;11587,954;  229,272;33788,914;33,84626
 845,05;11550,038;  180,041;33613,957;34,00737
 845,61;11673,198;  229,734;33598,845;34,29358
 846,17;11656,281;  206,580;33423,196;34,46980
 846,73;11639,595;  227,195;33429,700;34,37211
 847,29;11638,217;  207,734;33178,127;34,66893
 847,86;11611,916;  197,349;33157,861;34,63104
 848,42;11589,768;  210,811;33008,442;34,69445
 848,98;11652,544;  225,887;32922,562;34,94746
 849,54;11729,781;  201,887;32905,066;35,25007
 850,10;11762,249;  232,272;32723,185;35,48677
 850,66;11668,486;  203,887;32620,150;35,36681
 851,22;11734,031;  194,734;32551,501;35,66270
 851,78;11780,191;  256,580;32665,620;35,55678
 852,34;11713,736;  221,887;32323,124;35,79877
 852,90;11725,127;  209,964;32188,320;36,00924
 853,46;11708,287;  201,810;31997,670;36,18860
 854,02;11769,063;  224,887;32021,020;36,30685
 854,58;11720,300;  211,580;31732,217;36,51170
 855,14;11735,537;  202,656;31675,105;36,64437
 855,70;11706,236;  174,964;31478,609;36,83683
 856,26;11681,858;  217,426;31426,959;36,73375
 856,82;11704,556;  210,041;31362,002;36,89821
 857,38;11699,793;  265,656;31168,583;37,00018
 857,94;11761,954;  224,349;31128,625;37,33336
 858,50;11742,114;  251,118;30932,668;37,45246
 859,06;11616,197;  208,964;30843,633;37,23635
 859,62;11715,896;  237,349;30800,368;37,55698
 860,18;11663,979;  212,118;30540,795;37,75918
 860,74;11652,601;  192,656;30480,376;37,83693
 861,30;11668,223;  187,195;30208,034;38,24353
 861,86;11755,690;  277,579;30398,922;38,10624
 862,42;11653,005;  224,656;30109,349;38,24148
 862,98;11730,857;  254,272;30098,776;38,45460
 863,54;11632,171;  210,810;29904,203;38,46432
 864,10;11730,562;  206,272;29954,015;38,74005
 864,66;11598,261;  203,195;29743,904;38,57411
 865,22;11640,960;  218,271;29580,946;38,90207
 865,78;11675,427;  217,964;29447,373;39,19841
 866,34;11673,511;  199,887;29419,031;39,26749
 866,90;11677,440;  224,964;29261,150;39,44208
 867,45;11628,370;  224,656;29022,039;39,59983
 868,01;11637,607;  213,733;28907,543;39,81303
 868,57;11555,767;  212,271;28737,278;39,76685
 869,13;11522,081;  201,964;28576,012;39,89602
 869,69;11547,472;  213,117;28538,901;40,01427
 870,25;11462,863;  205,656;28389,482;39,94208
 870,81;11549,485;  210,425;28317,832;40,34189
 871,37;11527,799;  236,502;28271,259;40,27606
 871,93;11548,651;  239,733;28096,686;40,59639
 872,49;11507,427;  266,348;27928,728;40,63670
 873,04;11361,895;  207,502;27787,309;40,44406
 873,60;11379,594;  207,963;27667,890;40,68339
 874,16;11364,292;  233,579;27518,163;40,79488
 874,72;11361,754;  210,887;27458,856;40,92366
 875,28;11495,215;  215,502;27358,933;41,55596
 875,84;11455,369;  228,579;27373,779;41,35829
 876,40;11424,600;  215,887;27305,779;41,37600
 876,95;11446,754;  227,656;27243,010;41,52860
 877,51;11498,292;  245,579;27220,471;41,71551
 878,07;11498,062;  270,887;27186,010;41,71326
 878,63;11514,600;  221,117;27179,163;41,89281
 879,19;11562,754;  239,887;27231,625;41,94938
 879,75;11583,677;  215,579;27203,010;42,12368
 880,30;11606,985;  218,117;27291,010;42,06742
 880,86;11753,523;  266,040;27390,625;42,35082
 881,42;11771,985;  208,194;27328,933;42,63818
 881,98;11820,446;  229,040;27395,548;42,66800
 882,54;11973,831;  211,348;27527,625;43,06034
 883,09;12029,062;  234,887;27595,548;43,10632
 883,65;12045,985;  203,502;27656,548;43,13723
 884,21;12205,600;  251,271;27779,240;43,42612
 884,77;12224,677;  204,963;27917,548;43,37276
 885,32;12334,215;  224,810;28054,702;43,51223
 885,88;12452,754;  246,963;28194,779;43,67350
 886,44;12522,985;  222,117;28265,779;43,86327
 887,00;12599,754;  251,656;28209,394;44,16701
 887,56;12625,754;  214,117;28435,010;43,98031
 888,11;12777,138;  218,810;28349,702;44,64248
 888,67;12874,908;  256,348;28548,394;44,60109
 889,23;12840,677;  229,040;28482,010;44,63827
 889,79;12851,138;  213,117;28431,856;44,78592
 890,34;12849,523;  222,348;28384,163;44,83793
 890,90;13015,600;  301,579;28557,779;44,99551
 891,46;12910,523;  217,963;28416,471;45,01146
 892,01;12913,523;  242,810;28408,933;44,98565
 892,57;12984,754;  254,963;28336,240;45,33195
 893,13;12896,985;  245,963;28152,471;45,33359
 893,69;12804,985;  219,656;28070,625;45,18812
 894,24;12783,369;  230,887;27938,933;45,30266
 894,80;12715,292;  228,502;27894,010;45,13487
 895,36;12639,138;  227,887;27727,471;45,13251
 895,91;12630,677;  227,194;27520,779;45,44468
 896,47;12699,985;  251,733;27423,548;45,81310
 897,03;12578,754;  226,194;27244,394;45,71940
 897,58;12521,831;  236,040;27167,779;45,61826
 898,14;12477,215;  243,040;27009,779;45,70663
 898,70;12393,292;  198,810;26779,856;45,87661
 899,25;12495,908;  242,502;26867,240;46,02263
 899,81;12452,600;  240,348;26652,471;46,23730
 900,37;12332,062;  192,502;26454,163;46,22541
 900,92;12295,985;  223,117;26442,163;46,04617
 901,48;12335,908;  214,425;26289,856;46,48622
 902,03;12283,292;  223,963;26127,163;46,55536
 902,59;12288,523;  225,040;26029,856;46,74896
 903,15;12252,215;  240,810;25902,163;46,80737
 903,70;12169,908;  227,887;25715,010;46,85512
 904,26;12187,138;  217,656;25565,471;47,22096
 904,82;12167,523;  220,117;25528,702;47,20693
 905,37;12153,292;  232,887;25409,625;47,34690
 905,93;12044,754;  224,040;25257,163;47,22029
 906,48;12057,754;  240,656;25269,240;47,21441
 907,04;12128,062;  247,887;25191,933;47,62730
 907,60;12009,600;  235,425;24960,010;47,62133
 908,15;12006,446;  209,348;24885,010;47,80864
 908,71;11975,523;  237,656;24848,548;47,69379
 909,26;11942,446;  234,887;24733,163;47,78932
 909,82;11953,677;  243,425;24547,548;48,18216
 910,37;12015,908;  271,425;24504,317;48,46505
 910,93;11886,292;  214,733;24324,625;48,40984
 911,48;11789,985;  221,810;24223,548;48,19724
 912,04;11766,831;  219,887;24064,779;48,42523
 912,60;11842,369;  229,348;24029,163;48,79459
 913,15;11692,292;  224,425;23886,394;48,46540
 913,71;11627,985;  217,117;23652,856;48,69003
 914,26;11605,754;  198,348;23636,010;48,67126
 914,82;11592,600;  228,194;23560,856;48,70600
 915,37;11567,754;  211,579;23486,856;48,79072
 915,93;11579,138;  282,810;23381,471;48,90469
 916,48;11506,062;  221,040;23217,548;49,07276
 917,04;11524,754;  245,887;23063,394;49,43076
 917,59;11585,754;  262,656;23124,548;49,52826
 918,15;11422,292;  201,271;22832,394;49,58226
 918,70;11461,369;  224,194;22744,933;49,89701
 919,26;11394,523;  227,271;22600,702;49,91301
 919,81;11415,523;  216,425;22460,471;50,34650
 920,37;11371,062;  223,887;22430,317;50,19796
 920,92;11364,600;  244,502;22403,625;50,18293
 921,48;11245,677;  212,656;22091,394;50,42805
 922,03;11261,600;  222,194;22110,163;50,43595
 922,59;11227,369;  222,348;22055,702;50,40463
 923,14;11229,138;  228,733;21812,163;50,96690
 923,69;11155,600;  247,887;21781,163;50,65515
 924,25;11180,215;  260,733;21795,010;50,70745
 924,80;11055,523;  227,502;21542,471;50,80008
 925,36;11087,600;  215,194;21428,625;51,25246
 925,91;11003,985;  224,117;21370,010;50,97854
 926,47;10972,215;  196,810;21331,394;50,98471
 927,02;11089,754;  308,810;21219,317;51,55754
 927,57;10954,446;  210,579;21006,087;51,66437
 928,13;10962,831;  205,963;20948,010;51,86020
 928,68;10876,292;  222,656;20900,933;51,52091
 929,24;10827,831;  191,963;20710,625;51,83509
 929,79;10819,600;  215,348;20580,240;52,07124
 930,34;10702,446;  229,117;20442,317;51,81430
 930,90;10745,446;  218,579;20414,856;52,12281
 931,45;10702,985;  230,271;20431,779;51,84125
 932,01;10711,600;  234,656;20330,317;52,13535
 932,56;10696,369;  251,348;20097,779;52,62922
 933,11;10723,523;  267,040;20132,548;52,63637
 933,67;10583,138;  216,656;19943,317;52,55062
 934,22;10593,985;  236,425;19903,317;52,66495
 934,77;10555,600;  258,271;19720,779;52,90854
 935,33;10572,600;  232,810;19621,779;53,32821
 935,88;10443,138;  242,271;19570,317;52,77754
 936,43;10445,523;  231,425;19440,933;53,17210
 936,99;10400,292;  231,502;19387,779;53,08333
 937,54;10370,215;  200,348;19253,394;53,37660
 938,09;10347,985;  233,810;19226,317;53,25350
 938,65;10269,369;  247,425;19047,317;53,30852
 939,20;10243,600;  219,117;19020,779;53,31700
 939,75;10167,292;  212,887;18954,471;53,11400
 940,31;10202,062;  210,348;18819,933;53,69122
 940,86;10201,831;  227,194;18780,163;53,76302
 941,41;10263,754;  322,887;18720,317;54,03400
 941,96;10130,677;  221,502;18550,471;54,06291
 942,52;10093,600;  221,040;18442,856;54,17989
 943,07;10074,754;  210,117;18381,087;54,28789
 943,62;10058,523;  212,271;18287,010;54,47521
 944,18;10026,446;  203,502;18255,317;54,41527
 944,73; 9967,908;  230,733;18020,240;54,73549
 945,28; 9885,831;  188,425;17911,933;54,71494
 945,83; 9998,062;  217,810;17909,087;55,28291
 946,39; 9939,831;  213,963;17914,702;54,94611
 946,94; 9922,754;  258,425;17736,010;55,29556
 947,49; 9897,677;  219,656;17631,625;55,58258
 948,04; 9859,062;  273,502;17690,317;55,03624
 948,59; 9851,215;  237,579;17645,163;55,22671
 949,15; 9845,908;  209,579;17503,625;55,72050
 949,70; 9788,369;  223,887;17385,471;55,73193
 950,25; 9729,138;  228,348;17277,010;55,72749
 950,80; 9660,523;  190,810;17122,702;55,92826
 951,36; 9619,600;  187,194;17124,548;55,68996
 951,91; 9754,754;  237,502;17139,933;56,30700
 952,46; 9595,985;  225,963;16908,394;56,16700
 953,01; 9631,215;  236,348;16897,010;56,38952
 953,56; 9555,754;  199,194;16755,471;56,51367
 954,11; 9544,677;  232,656;16748,317;56,38297
 954,67; 9440,754;  209,963;16653,087;56,13770
 955,22; 9407,677;  207,040;16463,625;56,59637
 955,77; 9440,985;  239,656;16551,240;56,40978
 956,32; 9421,215;  283,502;16403,163;56,68676
 956,87; 9355,831;  217,040;16257,240;56,97429
 957,42; 9331,831;  219,656;16189,933;57,05709
 957,98; 9268,600;  214,579;16138,933;56,85644
 958,53; 9279,677;  246,733;16123,010;56,89586
 959,08; 9236,369;  210,887;15932,779;57,40710
 959,63; 9233,215;  212,425;15836,471;57,73658
 960,18; 9219,600;  230,887;15843,548;57,57323
 960,73; 9156,215;  224,502;15819,087;57,27446
 961,28; 9123,523;  206,502;15655,010;57,72092
 961,83; 9154,446;  238,348;15641,548;57,88471
 962,39; 9121,215;  204,117;15504,702;58,27946
 962,94; 9082,677;  228,733;15445,163;58,18673
 963,49; 8991,908;  229,733;15295,779;58,15842
 964,04; 9040,138;  245,733;15216,548;58,74367
 964,59; 8965,523;  196,040;15139,317;58,68514
 965,14; 8988,446;  252,348;15098,856;58,84278
 965,69; 8905,985;  219,502;14957,163;58,94071
 966,24; 8875,831;  206,348;14840,317;59,24218
 966,79; 8847,446;  245,579;14789,394;59,14450
 967,34; 8767,062;  189,194;14734,856;58,97200
 967,89; 8821,446;  223,579;14617,625;59,73211
 968,44; 8737,754;  225,656;14560,933;59,37868
 968,99; 8748,215;  231,810;14552,625;59,46872
 969,55; 8700,600;  227,963;14408,625;59,74782
 970,10; 8638,677;  239,810;14297,702;59,74485
 970,65; 8596,369;  241,348;14166,471;59,99962
 971,20; 8557,062;  218,425;14077,240;60,16847
 971,75; 8453,754;  198,887;13935,163;60,09538
 972,30; 8468,754;  216,271;13902,010;60,29987
 972,85; 8403,446;  210,040;13824,240;60,18279
 973,40; 8322,369;  209,271;13728,163;60,01304
 973,95; 8327,369;  239,733;13695,010;60,10754
 974,50; 8341,677;  248,348;13630,317;60,47936
 975,05; 8229,062;  224,810;13502,240;60,28464
 975,60; 8283,677;  234,117;13442,010;60,94507
 976,15; 8245,138;  211,425;13283,010;61,45937
 976,70; 8220,446;  222,810;13184,856;61,70042
 977,25; 8231,215;  242,887;13159,010;61,84773
 977,80; 8105,754;  219,887;13054,240;61,44343
 978,35; 8048,831;  237,656;12839,394;61,98490
 978,89; 7995,677;  202,733;12779,702;61,96202
 979,44; 8012,985;  224,425;12821,779;61,82695
 979,99; 7910,600;  213,040;12606,625;62,10923
 980,54; 7874,523;  253,733;12527,010;62,09255
 981,09; 7838,446;  247,194;12521,856;61,84490
 981,64; 7797,369;  236,502;12382,933;62,24765
 982,19; 7798,215;  269,040;12315,933;62,49890
 982,74; 7726,369;  231,502;12229,010;62,47020
 983,29; 7616,677;  211,348;12037,625;62,61758
 983,84; 7568,831;  224,425;11923,702;62,77658
 984,39; 7661,677;  336,733;11991,625;62,84867
 984,94; 7515,215;  196,963;11736,779;63,41741
 985,49; 7502,677;  261,579;11708,163;63,25990
 986,03; 7458,369;  248,810;11659,548;63,18224
 986,58; 7425,062;  277,963;11489,240;63,74919
 987,13; 7314,908;  230,271;11355,394;63,68142
 987,68; 7295,138;  249,271;11278,625;63,88287
 988,23; 7242,754;  237,040;11222,317;63,77366
 988,78; 7193,600;  227,194;11108,548;64,02150
 989,33; 7149,754;  247,040;11009,548;64,13666
 989,88; 7182,369;  268,733;10959,625;64,66847
 990,42; 7051,677;  222,502;10761,856;64,79690
 990,97; 6977,908;  224,425;10640,163;64,83921
 991,52; 7010,062;  258,810;10569,779;65,47640
 992,07; 6932,138;  285,194;10517,317;64,96154
 992,62; 6881,523;  239,425;10391,856;65,42372
 993,17; 6819,369;  249,656;10232,933;65,80718
 993,71; 6784,677;  255,271;10219,010;65,53169
 994,26; 6681,600;  226,502; 9997,471;66,06405
 994,81; 6662,446;  263,040;10026,471;65,54464
 995,36; 6563,677;  222,502; 9858,779;65,80524
 995,91; 6520,523;  245,040; 9744,163;66,06381
 996,45; 6461,369;  237,810; 9689,625;65,84512
 997,00; 6372,754;  216,963; 9582,010;65,73155
 997,55; 6379,600;  245,579; 9489,933;66,35424
 998,10; 6323,523;  261,425; 9388,933;66,41570
 998,65; 6286,985;  235,887; 9351,163;66,38414
 999,19; 6203,369;  260,348; 9219,625;66,33371
 999,74; 6166,677;  274,117; 9113,163;66,66511
1000,29; 6129,754;  245,348; 9071,317;66,67150
1000,84; 6041,523;  236,579; 8884,625;67,12434
1001,38; 5969,600;  247,425; 8792,087;66,96784
1001,93; 5972,754;  250,887; 8761,702;67,23054
1002,48; 5843,677;  216,348; 8619,087;66,97018
1003,03; 5908,523;  253,040; 8565,471;68,03645
1003,57; 5765,600;  250,194; 8497,317;66,87672
1004,12; 5758,523;  283,887; 8389,702;67,53962
1004,67; 5673,369;  230,963; 8254,087;67,83401
1005,22; 5569,062;  227,425; 8159,702;67,34052
1005,76; 5501,369;  220,502; 8040,548;67,52987
1006,31; 5503,062;  258,117; 7979,240;67,92981
1006,86; 5442,523;  227,348; 7830,087;68,59601
1007,40; 5348,754;  237,040; 7735,856;68,16695
1007,95; 5340,215;  238,810; 7658,625;68,75381
1008,50; 5236,369;  237,810; 7545,702;68,39947
1009,04; 5190,831;  237,963; 7434,240;68,82541
1009,59; 5110,062;  251,887; 7270,317;69,22025
1010,14; 5038,985;  226,040; 7237,087;68,64802
1010,68; 5000,754;  247,656; 7149,548;68,86659
1011,23; 4875,677;  242,579; 6996,548;68,59815
1011,78; 4888,138;  255,117; 6943,856;69,26599
1012,32; 4834,215;  276,656; 6822,394;69,62636
1012,87; 4797,600;  268,963; 6837,548;68,94387
1013,42; 4695,908;  219,733; 6690,702;69,17318
1013,96; 4721,985;  283,348; 6717,240;68,98836
1014,51; 4651,908;  212,656; 6585,163;69,66256
1015,06; 4647,754;  227,271; 6554,240;69,86730
1015,60; 4733,062;  281,117; 6607,087;70,37569
1016,15; 4672,600;  224,733; 6560,856;70,19856
1016,69; 4711,831;  236,040; 6614,856;70,16648
1017,24; 4719,369;  220,117; 6589,394;70,63992
1017,79; 4771,215;  273,040; 6636,317;70,68960
1018,33; 4780,523;  238,348; 6634,779;71,01109
1018,88; 4828,600;  251,579; 6665,548;71,36020
1019,42; 4834,985;  227,887; 6630,163;71,96031
1019,97; 4859,369;  221,425; 6621,625;72,46561
1020,51; 4921,754;  273,963; 6689,548;72,44531
1021,06; 4863,215;  213,810; 6628,625;72,47918
1021,61; 4868,062;  202,579; 6623,933;72,65575
1022,15; 4825,446;  184,810; 6586,702;72,48851
1022,70; 4875,831;  227,194; 6589,856;73,06119
1023,24; 4802,292;  216,502; 6503,702;72,93852
1023,79; 4805,677;  231,194; 6506,702;72,89422
1024,33; 4764,754;  225,733; 6428,010;73,18314
1024,88; 4747,062;  248,656; 6364,010;73,55921
1025,42; 4717,523;  241,502; 6247,702;74,52335
1025,97; 4661,831;  221,271; 6179,240;74,53143
1026,51; 4543,908;  203,963; 6035,548;74,42135
1027,06; 4528,677;  219,810; 5981,933;74,77916
1027,60; 4460,062;  242,040; 5897,933;74,57747
1028,15; 4448,754;  250,963; 5856,087;74,89203
1028,69; 4347,523;  191,348; 5682,548;75,68792
1029,24; 4284,677;  220,348; 5602,548;75,51427
1029,78; 4245,138;  214,733; 5551,394;75,52298
1030,33; 4155,677;  208,117; 5448,317;75,33223
1030,87; 4136,677;  214,348; 5380,548;75,92290
1031,42; 4040,908;  208,194; 5271,625;75,69400
1031,96; 4063,985;  235,348; 5232,625;76,61446
1032,51; 3971,677;  210,656; 5156,702;76,04096
1033,05; 3919,062;  232,963; 5132,702;75,23051
1033,60; 3801,831;  195,271; 4966,702;75,58654
1034,14; 3787,138;  216,502; 4919,394;75,92427
1034,69; 3769,600;  224,733; 4855,933;76,54317
1035,23; 3712,138;  218,348; 4821,702;75,89663
1035,77; 3685,215;  230,194; 4729,010;76,79846
1036,32; 3608,985;  202,194; 4662,702;76,37674
1036,86; 3558,369;  241,502; 4599,163;76,11576
1037,41; 3552,985;  238,733; 4541,240;77,03070
1037,95; 3425,292;  196,733; 4430,548;76,25650
1038,50; 3430,908;  209,271; 4401,317;76,85117
1039,04; 3428,446;  247,040; 4344,933;77,63517
1039,58; 3367,523;  211,502; 4289,856;77,38468
1040,13; 3339,215;  221,579; 4213,856;78,09169
1040,67; 3352,138;  252,887; 4231,010;77,90739
1041,21; 3282,523;  257,348; 4144,856;77,81785
1041,76; 3204,292;  214,194; 4034,163;78,27545
1042,30; 3188,831;  217,810; 4012,471;78,29476
1042,85; 3127,446;  213,502; 3952,856;77,92641
1043,39; 3086,446;  207,425; 3862,625;78,76508
1043,93; 3080,523;  247,656; 3872,087;78,16034
1044,48; 3023,985;  250,887; 3825,471;77,57819
1045,02; 2966,369;  217,194; 3715,933;78,57618
1045,56; 2971,600;  257,733; 3728,471;78,19279
1046,11; 2942,754;  241,502; 3609,087;80,21333
1046,65; 2907,062;  242,502; 3572,087;80,02679
1047,19; 2826,677;  220,117; 3512,625;79,16639
1047,74; 2793,523;  212,425; 3469,856;79,23724
1048,28; 2766,831;  230,502; 3423,317;79,43863
1048,82; 2788,446;  259,733; 3420,317;80,00778
1049,37; 2721,062;  243,579; 3322,471;80,46669
1049,91; 2702,831;  246,656; 3308,856;80,20949
1050,45; 2651,985;  236,810; 3246,240;80,25355
1050,99; 2610,138;  246,117; 3231,163;79,19546
1051,54; 2580,138;  219,810; 3142,625;80,75532
1052,08; 2564,062;  261,656; 3127,702;80,33387
1052,62; 2533,908;  241,963; 3097,240;80,27047
1053,16; 2510,138;  235,040; 3032,317;81,33260
1053,71; 2468,677;  238,579; 3025,163;80,02980
1054,25; 2425,831;  254,425; 2963,394;80,15616
1054,79; 2408,985;  251,040; 2893,010;81,67939
1055,33; 2337,138;  203,963; 2849,010;80,64793
1055,88; 2378,062;  239,348; 2846,779;82,02379
1056,42; 2327,062;  261,963; 2797,471;81,44712
1056,96; 2304,600;  248,348; 2790,317;80,89209
1057,50; 2311,292;  241,425; 2715,702;83,65544
1058,05; 2256,677;  242,733; 2651,240;83,61793
1058,59; 2215,677;  267,425; 2637,933;82,18712
1059,13; 2156,369;  216,040; 2573,163;82,31767
1059,67; 2150,831;  249,963; 2560,548;82,26781
1060,21; 2104,754;  241,040; 2497,933;82,57875
1060,76; 2100,292;  247,117; 2515,625;81,69137
1061,30; 2103,908;  263,271; 2489,779;82,66922
1061,84; 2076,369;  249,963; 2418,856;84,20915
1062,38; 1978,831;  225,348; 2340,163;82,91422
1062,92; 2044,062;  282,194; 2379,702;83,99813
1063,46; 1974,908;  258,502; 2320,471;83,24110
1064,01; 1950,446;  244,963; 2289,856;83,40208
1064,55; 1941,985;  251,502; 2254,625;84,39235
1065,09; 1882,677;  221,194; 2167,625;85,36048
1065,63; 1916,215;  271,194; 2212,163;84,75256
1066,17; 1893,369;  279,810; 2185,317;84,67872
1066,71; 1880,600;  271,194; 2159,702;85,22103
1067,25; 1840,062;  246,579; 2102,087;85,87853
1067,80; 1843,215;  255,194; 2086,240;86,72753
1068,34; 1828,446;  272,271; 2096,702;85,29647
1068,88; 1783,369;  231,117; 2011,702;87,17653
1069,42; 1776,369;  268,348; 2022,240;85,98140
1069,96; 1740,446;  239,502; 1975,548;86,45762
1070,50; 1755,292;  290,425; 1998,163;85,77820
1071,04; 1698,523;  227,656; 1931,394;86,33175
1071,58; 1676,677;  245,963; 1905,856;86,19315
1072,12; 1676,677;  245,579; 1914,548;85,74742
1072,66; 1652,138;  248,887; 1872,702;86,41696
1073,21; 1652,985;  257,425; 1855,779;87,31231
1073,75; 1633,369;  243,502; 1843,163;86,88509
1074,29; 1603,523;  247,117; 1820,010;86,23640
1074,83; 1616,369;  268,579; 1805,240;87,70899
1075,37; 1590,600;  262,656; 1800,010;86,37857
1075,91; 1584,292;  256,810; 1753,010;88,72361
1076,45; 1545,985;  259,579; 1728,548;87,57200
1076,99; 1537,523;  270,963; 1729,087;86,86233
1077,53; 1488,754;  242,810; 1662,548;87,75872
1078,07; 1501,446;  257,040; 1679,240;87,49865
1078,61; 1448,446;  251,656; 1643,087;86,01149
1079,15; 1456,677;  247,194; 1623,240;87,89550
1079,69; 1449,754;  252,117; 1606,240;88,44370
1080,23; 1456,523;  276,733; 1587,702;89,99375
1080,77; 1507,215;  332,810; 1626,625;90,77074
1081,31; 1419,215;  241,271; 1546,548;90,24478
1081,85; 1406,831;  268,887; 1558,625;88,23062
1082,39; 1374,600;  245,733; 1515,163;88,92705
1082,93; 1384,215;  270,040; 1515,087;89,48865
1083,47; 1346,908;  231,194; 1445,471;91,88295
1084,01; 1361,446;  260,963; 1488,317;89,66303
1084,55; 1309,523;  250,117; 1434,779;89,42687
1085,09; 1334,985;  267,579; 1444,933;90,66142
1085,63; 1316,446;  257,425; 1423,317;90,83353
1086,17; 1283,446;  242,810; 1396,317;90,21496
1086,71; 1252,523;  247,579; 1372,010;89,37360
1087,24; 1280,215;  273,425; 1402,163;89,19607
1087,78; 1274,215;  277,040; 1373,702;90,92824
1088,32; 1210,908;  236,040; 1326,625;89,38942
1088,86; 1233,754;  269,348; 1332,394;90,72097
1089,40; 1214,831;  268,887; 1322,548;89,77686
1089,94; 1170,754;  239,425; 1272,010;90,19395
1090,48; 1171,446;  257,425; 1279,933;89,39015
1091,02; 1190,600;  266,040; 1280,625;91,12691
1091,56; 1148,215;  249,656; 1249,548;89,86564
1092,10; 1151,677;  227,348; 1219,933;93,12343
1092,63; 1143,369;  276,040; 1259,625;88,18040
1093,17; 1141,677;  266,963; 1227,779;91,03866
1093,71; 1108,677;  241,502; 1181,625;92,24058
1094,25; 1119,600;  273,656; 1208,779;90,46341
1094,79; 1081,062;  244,425; 1163,548;91,02552
1095,33; 1084,446;  264,117; 1162,163;91,34596
1095,87; 1063,369;  250,887; 1143,087;91,06509
1096,40; 1025,985;  234,348; 1108,856;90,52368
1096,94; 1037,523;  250,040; 1113,240;91,22830
1097,48; 1046,754;  267,963; 1126,625;90,69818
1098,02; 1024,754;  239,271; 1066,856;94,91267
1098,56;  991,908;  224,425; 1053,010;92,62575
1099,10;  969,677;  238,425; 1052,317;89,84628
1099,63;  962,831;  223,887; 1027,779;91,92080
1100,17;  983,523;  246,271; 1050,856;91,63137
1100,71; 1008,985;  288,656; 1058,779;93,53425

