
Integration time [ms]: 140,000
Averaging Nr. [scans]: 13
Smoothing Nr. [pixels]: 0
Data measured with spectrometer [name]: 2009305U1
Wave   ;Sample   ;Dark     ;Reference;Reflectance
[nm]   ;[counts] ;[counts] ;[counts] ;[%]

 175,72;  222,461;  207,672;  215,673;184,85336
 176,32;  239,008;  238,424;  241,025;22,45936
 176,92;  285,753;  272,128;  266,109; 0,00000
 177,52;  278,460;  265,361;  267,675;566,04022
 178,12;  244,826;  258,117;  238,311; 0,00000
 178,72;  285,309;  276,958;  258,525; 0,00000
 179,32;  274,766;  279,578;  258,748; 0,00000
 179,92;  271,187;  269,431;  262,806; 0,00000
 180,52;  259,569;  254,297;  261,455;73,65533
 181,12;  277,108;  273,355;  266,130; 0,00000
 181,73;  289,316;  284,895;  277,919; 0,00000
 182,33;  389,792;  381,443;  397,957;50,55562
 182,93;  288,876;  280,130;  286,949;128,25645
 183,53;  257,972;  255,340;  247,813; 0,00000
 184,13;  252,890;  242,804;  237,845; 0,00000
 184,73;  299,561;  293,338;  296,892;175,08881
 185,33;  296,437;  261,312;  361,143;35,18453
 185,93;  286,931;  243,376;  381,547;31,52284
 186,53;  313,572;  260,229;  410,327;35,53853
 187,13;  322,260;  280,704;  420,213;29,78712
 187,73;  303,955;  257,224;  382,447;37,31804
 188,33;  303,115;  249,678;  381,863;40,42555
 188,93;  304,068;  263,040;  387,891;32,86111
 189,53;  312,168;  261,946;  380,542;42,34651
 190,13;  353,489;  304,841;  423,007;41,16932
 190,73;  293,347;  226,937;  387,302;41,41166
 191,34;  331,319;  266,803;  406,760;46,09717
 191,94;  300,557;  249,363;  387,164;37,15036
 192,54;  311,747;  271,253;  415,221;28,12740
 193,14;  328,635;  271,395;  415,304;39,77543
 193,74;  317,729;  275,854;  398,242;34,21461
 194,34;  305,129;  265,090;  415,805;26,56590
 194,94;  273,128;  230,318;  367,347;31,24180
 195,54;  261,320;  226,774;  345,997;28,97620
 196,14;  271,139;  238,863;  381,829;22,57608
 196,74;  274,211;  237,002;  371,341;27,69793
 197,34;  258,845;  212,871;  367,061;29,81659
 197,94;  288,097;  246,858;  398,110;27,26525
 198,54;  284,589;  250,016;  414,320;21,04180
 199,14;  266,009;  227,106;  389,582;23,94360
 199,74;  258,055;  216,953;  394,616;23,13466
 200,34;  252,297;  205,647;  412,777;22,52230
 200,94;  299,303;  245,177;  440,849;27,66184
 201,54;  270,433;  228,181;  443,845;19,59146
 202,14;  301,048;  260,035;  509,855;16,41691
 202,74;  274,391;  231,337;  483,408;17,08008
 203,34;  250,802;  198,887;  505,069;16,95558
 203,94;  230,199;  174,805;  503,718;16,84149
 204,54;  302,599;  257,705;  595,985;13,27119
 205,14;  263,690;  217,029;  614,536;11,73831
 205,74;  318,403;  257,732;  713,847;13,30154
 206,34;  272,375;  215,112;  712,928;11,50297
 206,94;  288,164;  225,648;  764,426;11,60326
 207,54;  265,634;  199,803;  808,104;10,82213
 208,14;  286,943;  211,343;  894,372;11,06824
 208,74;  288,103;  218,875;  969,173; 9,22672
 209,34;  291,938;  202,492; 1054,701;10,49580
 209,94;  316,604;  229,414; 1142,048; 9,55369
 210,54;  313,165;  221,730; 1275,922; 8,67352
 211,14;  330,667;  229,798; 1378,519; 8,78095
 211,73;  330,085;  228,180; 1485,662; 8,10388
 212,33;  358,104;  231,561; 1585,815; 9,34409
 212,93;  347,858;  215,259; 1695,643; 8,95704
 213,53;  337,764;  183,413; 1731,515; 9,97030
 214,13;  380,558;  207,122; 1852,881;10,53836
 214,73;  350,663;  193,189; 1865,086; 9,41890
 215,33;  339,066;  177,568; 1889,894; 9,43149
 215,93;  386,904;  214,578; 2025,839; 9,51414
 216,53;  372,447;  165,412; 2077,759;10,82622
 217,13;  433,738;  230,730; 2288,601; 9,86495
 217,73;  442,995;  207,271; 2523,291;10,17799
 218,33;  416,547;  175,201; 2679,717; 9,63646
 218,93;  498,244;  191,675; 3016,014;10,85452
 219,53;  523,208;  193,509; 3295,597;10,62832
 220,13;  528,580;  162,127; 3615,373;10,61184
 220,73;  600,080;  197,261; 3981,424;10,64488
 221,32;  637,795;  199,413; 4393,481;10,45243
 221,92;  702,816;  207,818; 4824,839;10,72115
 222,52;  733,582;  188,348; 5274,577;10,71981
 223,12;  806,104;  188,657; 5727,756;11,14707
 223,72;  852,150;  208,042; 6131,713;10,87346
 224,32;  904,156;  210,196; 6567,755;10,91550
 224,92;  935,210;  184,735; 6890,969;11,19071
 225,52; 1010,902;  217,033; 7257,152;11,27636
 226,12; 1041,989;  196,345; 7552,443;11,49582
 226,72; 1078,664;  162,729; 7885,662;11,85993
 227,31; 1115,410;  161,190; 8271,414;11,76564
 227,91; 1219,047;  204,032; 8671,474;11,98727
 228,51; 1257,070;  197,485; 9080,788;11,92782
 229,11; 1315,230;  190,959; 9437,453;12,15889
 229,71; 1367,481;  182,182; 9761,515;12,37351
 230,31; 1432,735;  178,045;10198,283;12,52156
 230,91; 1476,251;  174,328;10495,044;12,61466
 231,51; 1554,357;  179,117;10729,351;13,03516
 232,10; 1623,647;  181,970;11125,042;13,17434
 232,70; 1693,975;  197,706;11327,421;13,44392
 233,30; 1777,228;  217,962;11566,044;13,74035
 233,90; 1791,283;  184,193;11672,874;13,98846
 234,50; 1845,192;  184,348;11762,227;14,34498
 235,10; 1888,056;  181,042;11763,892;14,73742
 235,70; 1965,605;  199,801;11795,777;15,22773
 236,29; 1976,615;  199,490;11790,212;15,33231
 236,89; 1985,730;  173,867;11668,517;15,76266
 237,49; 2026,208;  194,422;11531,473;16,15752
 238,09; 2018,375;  184,188;11258,005;16,56328
 238,69; 2050,954;  225,709;10981,786;16,96943
 239,29; 2014,762;  177,187;10668,835;17,51465
 239,89; 1992,214;  207,482;10293,457;17,69518
 240,48; 1951,737;  187,496; 9905,604;18,15416
 241,08; 1952,910;  193,033; 9504,563;18,89998
 241,68; 1946,170;  210,727; 9188,966;19,32943
 242,28; 1908,641;  184,346; 8793,143;20,02946
 242,88; 1929,219;  230,430; 8481,530;20,58864
 243,48; 1904,239;  238,191; 8141,747;21,07973
 244,07; 1873,024;  198,262; 7914,995;21,70299
 244,67; 1867,572;  216,267; 7750,440;21,91754
 245,27; 1864,469;  214,795; 7569,124;22,43134
 245,87; 1867,375;  207,352; 7508,591;22,73619
 246,47; 1896,185;  205,257; 7502,141;23,17328
 247,06; 1888,366;  196,187; 7436,481;23,37169
 247,66; 1951,612;  190,882; 7536,970;23,96827
 248,26; 1999,632;  215,797; 7659,802;23,96338
 248,86; 2078,584;  208,027; 7773,824;24,72386
 249,46; 2088,158;  157,732; 8056,240;24,44038
 250,05; 2245,492;  203,419; 8430,382;24,82171
 250,65; 2288,780;  170,717; 8749,185;24,69045
 251,25; 2394,907;  192,186; 9257,926;24,29720
 251,85; 2585,949;  189,328; 9838,778;24,83687
 252,44; 2661,772;  157,644;10487,925;24,24066
 253,04; 2899,927;  212,953;11180,039;24,50034
 253,64; 3020,078;  159,100;11919,352;24,32752
 254,24; 3280,215;  214,265;12914,502;24,14089
 254,84; 3478,311;  185,194;13814,933;24,16127
 255,43; 3725,875;  184,183;14851,732;24,14645
 256,03; 3943,138;  190,255;15905,993;23,87978
 256,63; 4138,245;  194,944;17012,116;23,44807
 257,23; 4325,964;  170,483;17967,154;23,34977
 257,82; 4611,626;  202,554;18985,983;23,47320
 258,42; 4738,505;  145,935;19935,819;23,20665
 259,02; 4989,485;  201,184;20864,266;23,17322
 259,62; 5097,547;  183,087;21654,872;22,88799
 260,21; 5190,553;  197,029;22196,203;22,69869
 260,81; 5298,667;  190,268;22801,606;22,59220
 261,41; 5353,959;  177,399;23313,600;22,37429
 262,01; 5435,617;  211,316;23821,639;22,12719
 262,60; 5487,041;  172,944;24241,692;22,07882
 263,20; 5505,335;  176,487;24635,120;21,78719
 263,80; 5522,945;  207,546;24852,328;21,56805
 264,40; 5508,230;  167,317;25095,732;21,42500
 264,99; 5479,500;  195,545;25238,610;21,09947
 265,59; 5461,617;  171,614;25477,207;20,90448
 266,19; 5438,144;  182,546;25585,669;20,68879
 266,78; 5465,342;  226,003;25736,284;20,53815
 267,38; 5383,421;  201,923;25781,847;20,25611
 267,98; 5329,203;  189,696;25840,891;20,03613
 268,58; 5286,091;  194,077;25858,599;19,84067
 269,17; 5286,023;  178,070;25860,805;19,88866
 269,77; 5179,011;  207,403;25655,750;19,53607
 270,37; 5118,828;  166,545;25618,299;19,45753
 270,96; 5062,153;  223,169;25438,167;19,19089
 271,56; 4942,838;  190,174;25228,560;18,98151
 272,16; 4877,448;  182,321;25020,391;18,90295
 272,75; 4814,628;  195,860;25016,044;18,60892
 273,35; 4744,993;  200,708;24855,008;18,43202
 273,95; 4686,751;  192,860;24737,232;18,30925
 274,54; 4652,512;  179,495;24928,455;18,07355
 275,14; 4692,381;  220,401;25139,722;17,94583
 275,74; 4636,559;  169,091;25213,532;17,83817
 276,33; 4715,515;  217,942;25691,686;17,65572
 276,93; 4747,777;  204,036;26054,556;17,57698
 277,53; 4810,969;  193,567;26511,015;17,54502
 278,12; 4864,235;  174,715;27017,644;17,47022
 278,72; 5040,666;  233,104;27762,943;17,46310
 279,32; 5082,287;  192,411;28294,102;17,40065
 279,91; 5202,329;  182,563;28957,693;17,44481
 280,51; 5315,664;  189,798;29510,574;17,48203
 281,11; 5464,384;  200,640;30262,599;17,50965
 281,70; 5531,201;  174,024;30711,540;17,54294
 282,30; 5655,915;  187,021;31444,406;17,49633
 282,90; 5747,650;  185,020;31805,496;17,59186
 283,49; 5886,808;  195,170;32334,427;17,70930
 284,09; 6004,010;  215,177;32725,455;17,80616
 284,69; 6158,284;  221,180;33260,773;17,96966
 285,28; 6298,272;  210,331;33621,729;18,22115
 285,88; 6451,876;  261,859;33732,635;18,49379
 286,47; 6484,374;  203,405;33898,539;18,64058
 287,07; 6612,934;  221,719;33912,914;18,96999
 287,67; 6770,932;  206,806;34022,901;19,41125
 288,26; 6890,558;  188,565;34016,478;19,81202
 288,86; 7050,967;  175,562;34056,750;20,29269
 289,46; 7258,959;  200,718;34230,300;20,74149
 290,05; 7468,939;  191,570;34225,200;21,38287
 290,65; 7707,652;  193,942;34400,326;21,96581
 291,24; 7974,094;  196,104;34523,264;22,65841
 291,84; 8198,169;  214,867;34720,346;23,13633
 292,44; 8458,807;  196,346;34843,036;23,84776
 293,03; 8788,467;  274,566;34928,448;24,56839
 293,63; 8980,166;  187,251;35113,556;25,17562
 294,22; 9241,010;  215,871;35285,108;25,73520
 294,82; 9390,926;  187,394;35265,138;26,23752
 295,41; 9448,432;  173,331;34979,002;26,64824
 296,01; 9637,385;  225,089;34862,268;27,17397
 296,61; 9739,191;  225,258;34641,414;27,64380
 297,20; 9698,303;  200,859;34275,725;27,87229
 297,80; 9791,116;  211,803;34039,254;28,31816
 298,39; 9793,718;  175,713;33651,009;28,73165
 298,99; 9812,483;  223,400;33553,030;28,77045
 299,58; 9820,757;  223,420;33451,560;28,88316
 300,18; 9803,657;  218,725;33178,930;29,08032
 300,78; 9766,590;  196,414;32763,057;29,38644
 301,37; 9793,238;  207,236;32759,607;29,44794
 301,97; 9866,475;  207,333;32712,436;29,71577
 302,56; 9859,479;  200,327;32605,176;29,80773
 303,16; 9888,971;  173,556;32422,182;30,12660
 303,75; 9885,214;  197,877;32489,889;29,99918
 304,35;10031,124;  179,041;32689,675;30,30419
 304,94;10088,016;  184,026;32786,534;30,37800
 305,54;10043,026;  203,259;32726,019;30,25502
 306,13;10055,611;  170,119;32615,867;30,46776
 306,73; 9992,311;  176,500;32401,511;30,46023
 307,33;10034,356;  194,575;32387,508;30,56503
 307,92;10107,259;  217,258;32372,003;30,75752
 308,52;10252,253;  173,555;32855,760;30,83849
 309,11;10481,225;  192,858;33394,380;30,98764
 309,71;10571,167;  167,777;33672,532;31,05049
 310,30;10671,695;  186,411;33821,965;31,17321
 310,90;10866,695;  234,796;34177,350;31,32321
 311,49;10900,031;  207,949;34320,218;31,34380
 312,09;10973,910;  160,802;34482,793;31,50490
 312,68;11215,918;  252,952;34917,591;31,62579
 313,28;11186,028;  174,950;35101,003;31,52683
 313,87;11308,219;  159,411;35171,589;31,84266
 314,47;11437,776;  183,013;35477,156;31,88847
 315,06;11484,624;  179,951;35522,007;31,98646
 315,66;11615,295;  176,186;35733,947;32,17050
 316,25;11578,173;  157,480;35683,007;32,14785
 316,85;11674,429;  165,879;35742,567;32,34857
 317,44;11726,263;  179,551;35869,926;32,35245
 318,04;11772,673;  176,097;35916,590;32,44660
 318,63;11829,938;  165,500;35908,327;32,63435
 319,22;11887,518;  193,788;36093,245;32,57356
 319,82;11934,126;  202,099;35976,755;32,79424
 320,41;12013,544;  202,942;35992,053;33,00055
 321,01;12075,970;  207,724;36146,166;33,02382
 321,60;12106,668;  207,946;36070,930;33,17828
 322,20;12096,493;  173,797;36028,101;33,25318
 322,79;12199,712;  215,566;36180,362;33,32188
 323,39;12284,557;  183,271;36242,924;33,55907
 323,98;12294,795;  172,029;36090,019;33,75124
 324,58;12323,649;  180,863;36020,884;33,88052
 325,17;12337,957;  185,865;35870,151;34,05446
 325,76;12338,535;  209,949;35657,923;34,21517
 326,36;12248,474;  180,493;35334,794;34,32860
 326,95;12230,848;  213,331;35040,737;34,50592
 327,55;12178,981;  179,561;34519,396;34,94315
 328,14;12029,803;  176,804;34236,326;34,80084
 328,74;12019,587;  210,865;33788,296;35,16863
 329,33;11929,482;  208,723;33387,282;35,32631
 329,92;11763,767;  181,704;32810,785;35,49613
 330,52;11598,455;  198,112;32188,411;35,63688
 331,11;11516,141;  186,100;31720,361;35,92930
 331,71;11278,176;  188,179;31220,770;35,73661
 332,30;11227,478;  207,410;30698,073;36,14243
 332,89;11167,126;  253,492;30113,996;36,54873
 333,49;10924,320;  218,331;29589,246;36,45099
 334,08;10815,970;  189,253;29096,811;36,76103
 334,68;10719,158;  199,945;28649,029;36,97558
 335,27;10687,037;  207,729;28405,999;37,16295
 335,86;10660,218;  253,023;28031,208;37,46535
 336,46;10573,194;  202,499;27752,328;37,64341
 337,05;10537,580;  196,484;27515,575;37,85300
 337,65;10557,708;  179,253;27432,691;38,08127
 338,24;10680,607;  232,259;27393,801;38,46743
 338,83;10715,522;  210,952;27260,698;38,83426
 339,43;10758,638;  187,403;27263,797;39,04226
 340,02;10770,763;  186,941;27114,892;39,30422
 340,61;10903,305;  191,105;27199,191;39,66294
 341,21;11000,587;  223,173;27164,989;40,00255
 341,80;11073,101;  185,330;27122,563;40,41904
 342,40;11167,985;  188,189;27247,077;40,57741
 342,99;11270,972;  194,723;27356,765;40,77841
 343,58;11420,713;  183,493;27478,513;41,16949
 344,18;11580,323;  208,416;27601,431;41,51389
 344,77;11791,652;  183,325;27959,751;41,79201
 345,36;12016,617;  163,562;28209,737;42,26264
 345,96;12294,121;  204,108;28494,299;42,73571
 346,55;12441,252;  177,656;28716,329;42,97185
 347,14;12702,327;  175,959;29085,295;43,32984
 347,74;12990,801;  153,510;29550,925;43,66810
 348,33;13371,792;  182,740;30209,862;43,92380
 348,92;13757,227;  207,437;30725,797;44,39881
 349,52;14020,132;  168,666;31257,287;44,55478
 350,11;14301,042;  193,632;31541,063;45,00340
 350,70;14401,578;  186,027;31685,435;45,12958
 351,29;14404,550;  168,003;31461,114;45,49419
 351,89;14486,599;  207,165;31392,717;45,78862
 352,48;14649,544;  162,412;31412,140;46,35923
 353,07;14678,798;  194,498;31342,589;46,50140
 353,67;14678,849;  202,438;31275,378;46,58848
 354,26;14724,723;  189,728;31048,188;47,10214
 354,85;14717,617;  191,110;31019,938;47,11988
 355,45;14680,006;  171,329;30726,474;47,48358
 356,04;14755,561;  184,422;30690,353;47,76494
 356,63;14759,851;  235,332;30434,989;48,09498
 357,22;14766,255;  199,237;30226,312;48,51294
 357,82;14766,088;  196,086;30104,087;48,71607
 358,41;14760,444;  211,718;29983,240;48,86793
 359,00;14772,726;  170,096;29761,074;49,34825
 359,60;14809,134;  193,951;29763,524;49,42643
 360,19;14786,602;  208,193;29572,844;49,64612
 360,78;14823,377;  199,484;29434,366;50,02207
 361,37;14768,346;  192,407;29202,554;50,24428
 361,97;14819,614;  193,871;29156,830;50,49810
 362,56;14733,831;  181,247;28846,136;50,76798
 363,15;14734,274;  249,329;28535,867;51,20791
 363,74;14589,679;  200,090;28197,699;51,39578
 364,34;14463,515;  213,480;27826,455;51,60630
 364,93;14333,660;  196,246;27426,893;51,91729
 365,52;14112,833;  161,715;27035,361;51,91375
 366,11;14055,815;  185,326;26767,506;52,17965
 366,71;13903,826;  171,788;26287,784;52,58095
 367,30;13782,363;  198,023;25978,720;52,69190
 367,89;13701,714;  228,725;25806,704;52,67417
 368,48;13603,617;  196,399;25384,459;53,22847
 369,07;13422,270;  191,104;24999,127;53,33422
 369,67;13295,284;  213,554;24635,535;53,56539
 370,26;13168,439;  174,951;24350,656;53,74605
 370,85;13065,437;  190,408;24181,776;53,66526
 371,44;12953,853;  196,794;23928,164;53,75610
 372,03;12844,758;  175,557;23678,733;53,90421
 372,63;12670,597;  171,485;23427,203;53,74640
 373,22;12598,145;  180,411;23100,841;54,17758
 373,81;12439,272;  169,023;22741,652;54,35897
 374,40;12315,122;  188,573;22536,065;54,26358
 374,99;12227,679;  175,175;22255,171;54,58563
 375,59;12036,666;  178,803;21927,532;54,52210
 376,18;12070,858;  209,330;21828,824;54,86497
 376,77;11955,067;  211,564;21650,650;54,77614
 377,36;11909,787;  216,177;21528,174;54,86868
 377,95;11724,840;  202,712;21280,852;54,66388
 378,55;11664,124;  185,262;21060,243;54,98861
 379,14;11642,084;  203,484;21020,434;54,94849
 379,73;11631,470;  198,866;20886,074;55,26413
 380,32;11588,010;  201,025;20967,569;54,83332
 380,91;11620,742;  183,630;20786,052;55,51343
 381,50;11540,954;  196,094;20788,016;55,09374
 382,10;11536,318;  173,179;20650,569;55,49115
 382,69;11506,203;  171,561;20617,678;55,43665
 383,28;11489,467;  209,710;20536,939;55,49087
 383,87;11366,905;  186,171;20358,768;55,42536
 384,46;11370,883;  168,702;20349,510;55,50908
 385,05;11400,788;  203,632;20343,508;55,59695
 385,64;11386,584;  191,480;20334,968;55,57679
 386,24;11368,253;  175,240;20228,134;55,81745
 386,83;11368,498;  204,931;20334,857;55,45756
 387,42;11458,214;  199,635;20459,728;55,57022
 388,01;11559,889;  193,463;20576,120;55,76518
 388,60;11697,946;  203,242;20827,863;55,73292
 389,19;11804,934;  184,069;21101,875;55,55490
 389,78;11963,499;  180,917;21319,797;55,73891
 390,37;12280,534;  257,005;21778,099;55,86858
 390,96;12314,635;  201,009;21931,882;55,74385
 391,56;12416,275;  197,604;22109,404;55,76297
 392,15;12605,896;  181,688;22334,496;56,08412
 392,74;12647,585;  165,592;22547,688;55,76776
 393,33;12866,728;  191,680;22808,033;56,04373
 393,92;13123,716;  186,355;23277,774;56,02671
 394,51;13189,725;  180,372;23463,397;55,87484
 395,10;13385,711;  214,182;23664,751;56,16720
 395,69;13476,082;  191,185;23849,834;56,15239
 396,28;13507,663;  208,560;23985,185;55,93352
 396,87;13636,492;  201,005;24001,921;56,44945
 397,46;13694,064;  225,763;24097,362;56,41977
 398,06;13775,034;  233,596;24304,566;56,25630
 398,65;13819,152;  204,487;24408,209;56,25030
 399,24;13984,637;  221,865;24575,099;56,51312
 399,83;14004,081;  188,740;24616,465;56,55599
 400,42;14038,913;  230,158;24717,963;56,39033
 401,01;14128,655;  213,724;24823,113;56,54318
 401,60;14178,693;  221,426;24869,234;56,62681
 402,19;14159,981;  246,757;24838,259;56,57737
 402,78;14138,639;  241,521;24874,996;56,41558
 403,37;14030,930;  229,904;24657,434;56,49784
 403,96;13934,679;  230,813;24584,423;56,27037
 404,55;13897,968;  232,018;24486,578;56,34384
 405,14;13817,984;  225,003;24325,384;56,40152
 405,73;13801,636;  236,356;24215,857;56,57032
 406,32;13706,632;  248,205;24158,146;56,28800
 406,91;13607,298;  232,429;23903,949;56,50194
 407,50;13509,261;  240,770;23743,123;56,45601
 408,09;13352,411;  217,586;23438,307;56,56510
 408,68;13256,447;  223,564;23348,146;56,35943
 409,27;13188,510;  216,669;23096,682;56,69508
 409,86;13095,636;  234,427;22907,263;56,72519
 410,45;13056,175;  264,098;22908,280;56,49167
 411,04;12970,273;  257,693;22826,099;56,32910
 411,63;12801,721;  254,536;22601,988;56,14593
 412,22;12689,802;  258,757;22399,880;56,14460
 412,81;12474,152;  262,165;22137,078;55,82645
 413,40;12275,330;  270,118;21770,582;55,83699
 413,99;12171,364;  320,032;21514,368;55,91745
 414,58;11939,801;  245,500;21002,093;56,34018
 415,17;11806,120;  252,165;20794,881;56,24356
 415,76;11685,653;  245,677;20690,617;55,95505
 416,35;11545,350;  241,306;20435,067;55,97790
 416,94;11507,342;  273,837;20468,723;55,62549
 417,53;11632,420;  247,090;20661,892;55,76998
 418,12;11626,089;  250,789;20730,002;55,54559
 418,71;11840,028;  284,196;21138,316;55,41270
 419,30;11836,073;  243,406;21254,449;55,17416
 419,89;11942,989;  238,489;21375,380;55,37475
 420,48;12085,854;  277,427;21641,859;55,27143
 421,07;12104,121;  271,278;21753,803;55,08125
 421,66;12089,350;  232,062;21830,402;54,89907
 422,25;12133,379;  256,011;21813,606;55,09598
 422,84;12050,791;  271,170;21774,986;54,77921
 423,43;11903,733;  243,543;21522,667;54,79638
 424,02;11783,230;  295,856;21273,919;54,75898
 424,60;11514,374;  252,196;20895,165;54,55697
 425,19;11353,019;  272,872;20576,013;54,57356
 425,78;11211,800;  272,566;20533,943;53,99058
 426,37;11159,781;  265,731;20311,570;54,34569
 426,96;11060,903;  261,347;20209,604;54,13785
 427,55;10985,852;  245,441;20098,007;54,10087
 428,14;10835,401;  251,296;19836,295;54,04190
 428,73;10762,166;  261,358;19605,346;54,28461
 429,32;10696,142;  282,422;19611,131;53,87696
 429,91;10686,326;  284,281;19588,850;53,88385
 430,50;10596,280;  273,829;19440,017;53,85761
 431,08;10499,597;  283,454;19350,167;53,58104
 431,67;10424,272;  318,462;19182,511;53,57180
 432,26;10353,921;  331,086;19155,739;53,24313
 432,85;10173,134;  370,314;18684,997;53,52438
 433,44; 9985,713;  372,634;18412,188;53,28890
 434,03; 9773,169;  376,958;18036,127;53,20868
 434,62; 9493,115;  339,404;17571,200;53,12105
 435,21; 9384,562;  349,008;17407,817;52,96709
 435,79; 9258,181;  357,875;17202,200;52,83860
 436,38; 9178,249;  346,583;17105,118;52,69951
 436,97; 9117,748;  341,278;17034,240;52,57587
 437,56; 8942,323;  340,148;16753,433;52,40983
 438,15; 8895,774;  318,296;16653,567;52,50894
 438,74; 8847,076;  334,914;16701,368;52,00982
 439,33; 8874,164;  313,603;16706,956;52,21971
 439,91; 8822,030;  270,537;16797,114;51,74389
 440,50; 8871,851;  317,538;16821,882;51,83068
 441,09; 8927,078;  331,321;16962,768;51,68376
 441,68; 8878,792;  300,719;16895,307;51,69199
 442,27; 8830,146;  287,252;16926,060;51,34319
 442,86; 8836,247;  266,821;16917,102;51,46715
 443,44; 8831,951;  283,353;16958,484;51,26556
 444,03; 8895,207;  362,206;17011,572;51,25121
 444,62; 8760,503;  295,206;16877,679;51,04967
 445,21; 8629,895;  284,125;16743,861;50,70416
 445,80; 8636,451;  330,527;16620,048;50,98937
 446,39; 8487,145;  355,677;16340,226;50,87080
 446,97; 8283,484;  289,850;16108,364;50,53341
 447,56; 8163,856;  294,172;15926,377;50,34276
 448,15; 8064,350;  283,311;15814,667;50,09890
 448,74; 7938,604;  303,698;15502,029;50,23516
 449,33; 7818,531;  296,246;15334,790;50,02003
 449,91; 7719,502;  289,955;15119,481;50,09969
 450,50; 7571,270;  290,105;15001,407;49,49368
 451,09; 7526,097;  306,338;14839,679;49,67721
 451,68; 7436,495;  320,114;14679,951;49,55753
 452,26; 7375,446;  321,967;14621,445;49,32683
 452,85; 7284,635;  292,425;14589,803;48,90554
 453,44; 7272,369;  301,292;14524,425;49,01224
 454,03; 7277,929;  292,818;14532,629;49,05340
 454,61; 7188,577;  288,063;14408,138;48,87024
 455,20; 7311,705;  318,378;14606,802;48,94400
 455,79; 7307,669;  313,981;14599,771;48,95556
 456,38; 7290,985;  323,467;14697,326;48,47354
 456,97; 7336,927;  298,233;14764,556;48,65572
 457,55; 7289,189;  300,165;14841,339;48,06369
 458,14; 7299,544;  335,922;14834,503;48,02968
 458,73; 7228,167;  312,859;14726,820;47,97646
 459,31; 7246,863;  343,949;14761,347;47,87906
 459,90; 7285,516;  360,711;14809,037;47,92808
 460,49; 7329,213;  408,784;14942,507;47,61636
 461,08; 7327,085;  308,955;14982,141;47,82962
 461,66; 7265,903;  318,718;15006,878;47,29786
 462,25; 7306,807;  326,808;15146,311;47,10009
 462,84; 7340,601;  339,803;15159,238;47,24065
 463,43; 7286,151;  285,899;15173,534;47,02058
 464,01; 7304,185;  321,136;15166,802;47,03762
 464,60; 7293,754;  369,663;15137,837;46,88522
 465,19; 7119,827;  298,140;14904,298;46,70418
 465,77; 7088,239;  325,609;14883,177;46,45440
 466,36; 7081,393;  348,053;14725,196;46,83365
 466,95; 6890,328;  323,593;14453,511;46,47398
 467,53; 6722,285;  317,463;14207,375;46,11132
 468,12; 6591,969;  360,004;13891,232;46,05617
 468,71; 6460,904;  332,526;13630,874;46,08375
 469,29; 6301,158;  314,621;13356,641;45,90191
 469,88; 6117,869;  331,242;13135,149;45,19423
 470,47; 6204,295;  392,485;13265,570;45,14698
 471,06; 6142,343;  344,178;13220,317;45,03031
 471,64; 6161,604;  337,867;13284,517;44,98258
 472,23; 6139,720;  316,122;13267,731;44,96428
 472,81; 6208,628;  309,418;13414,963;45,01308
 473,40; 6205,889;  312,738;13581,645;44,41323
 473,99; 6342,527;  429,815;13753,277;44,37819
 474,57; 6364,994;  339,891;13879,513;44,49978
 475,16; 6404,415;  340,190;14023,474;44,31849
 475,75; 6445,410;  369,054;14136,680;44,13510
 476,33; 6453,698;  362,295;14221,809;43,95106
 476,92; 6445,376;  357,279;14265,335;43,77389
 477,51; 6468,337;  359,752;14364,120;43,61914
 478,09; 6485,768;  341,522;14420,616;43,64092
 478,68; 6411,948;  348,525;14328,112;43,37341
 479,27; 6436,524;  385,670;14399,919;43,17644
 479,85; 6346,834;  353,063;14334,797;42,86858
 480,44; 6433,109;  340,991;14525,536;42,94899
 481,02; 6866,069;  354,461;15641,632;42,59525
 481,61; 7765,373;  381,919;17838,460;42,29620
 482,20; 8267,434;  365,846;19086,866;42,20704
 482,78; 8671,921;  391,912;19995,974;42,23619
 483,37; 8858,481;  379,244;20514,022;42,11239
 483,95; 9002,037;  421,785;20894,302;41,91108
 484,54; 9037,472;  428,687;21020,824;41,80618
 485,13; 9015,893;  392,334;21004,797;41,83662
 485,71; 8912,789;  377,484;20789,146;41,81582
 486,30; 8846,835;  421,407;20504,103;41,95367
 486,88; 8724,756;  465,487;20102,079;42,06060
 487,47; 8366,831;  419,182;19352,517;41,97701
 488,05; 7985,348;  405,572;18537,919;41,80251
 488,64; 7437,582;  418,428;17242,064;41,72198
 489,23; 6742,839;  419,113;15413,400;42,17424
 489,81; 5767,475;  421,501;13197,316;41,84449
 490,40; 5371,479;  374,656;12419,682;41,48453
 490,98; 5263,355;  374,122;12201,969;41,33662
 491,57; 5195,244;  402,268;12017,048;41,26618
 492,15; 5122,213;  374,047;11982,283;40,90342
 492,74; 5098,596;  384,111;11912,700;40,89386
 493,32; 5052,272;  393,968;11860,619;40,62480
 493,91; 4972,368;  363,821;11670,779;40,75850
 494,50; 4946,248;  372,223;11641,362;40,58895
 495,08; 4922,627;  362,223;11616,013;40,52328
 495,67; 4876,006;  385,281;11611,836;40,00091
 496,25; 4829,251;  329,291;11469,259;40,39473
 496,84; 4788,088;  340,665;11434,149;40,09041
 497,42; 4757,979;  336,602;11368,782;40,07709
 498,01; 4739,126;  362,590;11358,501;39,80148
 498,59; 4670,495;  329,835;11226,340;39,83534
 499,18; 4664,035;  321,284;11196,086;39,93407
 499,76; 4631,770;  355,599;11118,571;39,73039
 500,35; 4545,236;  331,689;10916,098;39,80899
 500,93; 4479,315;  333,525;10882,188;39,30157
 501,52; 4410,515;  331,834;10789,798;39,00071
 502,10; 4433,791;  339,774;10811,006;39,09776
 502,69; 4376,317;  322,395;10642,086;39,28336
 503,27; 4252,374;  301,916;10388,494;39,16549
 503,86; 4218,441;  325,008;10347,452;38,84714
 504,44; 4144,383;  301,706;10188,037;38,86859
 505,03; 4048,702;  292,629;10037,699;38,54332
 505,61; 4017,619;  309,088; 9844,697;38,89139
 506,19; 3934,984;  330,321; 9739,815;38,30879
 506,78; 3849,889;  307,949; 9486,017;38,59134
 507,36; 3778,597;  307,167; 9362,102;38,33744
 507,95; 3677,423;  305,647; 9190,431;37,95000
 508,53; 3676,051;  295,641; 9055,889;38,58806
 509,12; 3615,893;  320,030; 8923,036;38,31060
 509,70; 3555,387;  342,648; 8747,999;38,22254
 510,29; 3506,266;  346,886; 8644,959;38,07366
 510,87; 3407,259;  297,949; 8452,257;38,13089
 511,46; 3326,080;  301,182; 8258,370;38,01466
 512,04; 3287,501;  318,112; 8129,275;38,01469
 512,62; 3225,664;  313,798; 7965,173;38,05677
 513,21; 3101,469;  290,502; 7825,629;37,30483
 513,79; 3096,640;  296,137; 7658,275;38,03927
 514,38; 3006,054;  277,822; 7517,323;37,68535
 514,96; 2991,287;  324,283; 7468,307;37,33196
 515,54; 2900,329;  289,518; 7323,410;37,11758
 516,13; 2898,668;  319,981; 7239,029;37,26939
 516,71; 2840,209;  295,912; 7048,137;37,68087
 517,30; 2784,710;  297,381; 6947,063;37,40523
 517,88; 2765,223;  317,227; 6878,640;37,30897
 518,46; 2687,754;  285,076; 6730,611;37,27662
 519,05; 2632,519;  294,698; 6703,333;36,47924
 519,63; 2644,421;  302,310; 6616,340;37,09376
 520,22; 2604,089;  314,938; 6593,731;36,45846
 520,80; 2584,691;  297,708; 6508,854;36,82062
 521,38; 2611,032;  346,545; 6486,640;36,88033
 521,97; 2538,610;  294,483; 6443,422;36,49616
 522,55; 2565,652;  305,560; 6389,435;37,14890
 523,13; 2495,343;  297,334; 6387,909;36,08870
 523,72; 2489,728;  291,384; 6378,496;36,11473
 524,30; 2570,952;  326,954; 6516,379;36,25535
 524,89; 2527,365;  291,176; 6523,006;35,88334
 525,47; 2597,420;  309,803; 6618,150;36,26333
 526,05; 2578,155;  286,035; 6671,354;35,89672
 526,64; 2627,510;  315,193; 6804,078;35,63505
 527,22; 2635,209;  312,264; 6914,608;35,18364
 527,80; 2712,911;  358,961; 7003,360;35,42758
 528,39; 2696,394;  295,504; 7098,852;35,28983
 528,97; 2740,080;  307,809; 7247,004;35,05120
 529,55; 2824,289;  317,718; 7432,849;35,22874
 530,14; 2867,692;  339,200; 7651,572;34,57827
 530,72; 2869,972;  303,963; 7691,269;34,73538
 531,30; 2922,755;  288,355; 7850,156;34,83826
 531,89; 2967,116;  322,970; 7970,985;34,57298
 532,47; 3005,687;  334,281; 8056,487;34,59382
 533,05; 3007,250;  336,884; 8120,403;34,30795
 533,63; 3037,611;  339,898; 8132,062;34,62084
 534,22; 3017,414;  316,975; 8165,049;34,40894
 534,80; 3075,320;  324,599; 8286,546;34,54835
 535,38; 3145,775;  428,279; 8387,112;34,14440
 535,97; 3016,448;  323,050; 8292,999;33,79441
 536,55; 3115,472;  377,985; 8392,947;34,15471
 537,13; 3111,233;  378,431; 8402,746;34,05651
 537,71; 3125,401;  414,891; 8388,624;33,99298
 538,30; 3150,150;  438,209; 8503,060;33,62668
 538,88; 3214,143;  486,299; 8579,232;33,70650
 539,46; 3283,209;  526,599; 8757,867;33,48950
 540,05; 3336,826;  563,988; 8896,209;33,27850
 540,63; 3407,290;  590,912; 9121,692;33,01432
 541,21; 3477,118;  627,994; 9215,345;33,17815
 541,79; 3495,942;  675,378; 9361,944;32,47041
 542,38; 3584,224;  708,756; 9493,009;32,73435
 542,96; 3624,331;  708,462; 9675,574;32,51737
 543,54; 3687,374;  729,685; 9843,577;32,45254
 544,12; 3700,392;  708,919; 9988,780;32,23619
 544,70; 3710,699;  689,463;10076,676;32,18459
 545,29; 3763,205;  693,987;10209,475;32,25497
 545,87; 3735,480;  679,455;10317,020;31,70951
 546,45; 3706,122;  622,910;10274,433;31,94534
 547,03; 3722,570;  624,530;10355,245;31,83775
 547,62; 3769,278;  580,918;10495,003;32,15991
 548,20; 3797,280;  582,077;10633,114;31,98877
 548,78; 3801,072;  539,787;10763,419;31,89948
 549,36; 3812,291;  506,785;10946,028;31,66423
 549,94; 3824,020;  466,613;11069,248;31,66578
 550,53; 3919,908;  482,628;11307,205;31,75440
 551,11; 3900,469;  436,405;11423,540;31,52836
 551,69; 4021,892;  452,323;11763,498;31,55789
 552,27; 4050,727;  414,624;12006,016;31,36899
 552,85; 4147,269;  410,405;12368,352;31,25005
 553,44; 4230,450;  417,553;12606,340;31,28200
 554,02; 4341,294;  416,172;12948,701;31,31948
 554,60; 4381,290;  360,176;13286,616;31,10767
 555,18; 4541,114;  406,785;13666,087;31,18059
 555,76; 4584,998;  381,095;13938,209;31,00883
 556,34; 4722,973;  392,798;14286,410;31,16666
 556,93; 4836,305;  369,862;14742,172;31,07672
 557,51; 4898,118;  364,106;15086,384;30,79695
 558,09; 5028,040;  384,324;15381,647;30,96363
 558,67; 5115,046;  370,726;15790,824;30,76712
 559,25; 5221,606;  391,185;15994,843;30,95698
 559,83; 5258,087;  368,423;16349,542;30,59651
 560,41; 5359,177;  358,718;16741,412;30,52281
 561,00; 5470,684;  380,573;17058,456;30,52013
 561,58; 5482,601;  365,256;17295,942;30,22527
 562,16; 5582,195;  352,636;17563,758;30,38477
 562,74; 5658,482;  343,172;18019,534;30,07016
 563,32; 5782,426;  340,884;18463,047;30,02700
 563,90; 5927,980;  374,111;18751,178;30,22174
 564,48; 6025,843;  383,409;19141,490;30,08002
 565,06; 6143,929;  369,418;19742,025;29,80761
 565,65; 6378,705;  380,354;20392,804;29,97309
 566,23; 6627,564;  417,727;21174,520;29,91713
 566,81; 6765,022;  365,877;21803,886;29,84953
 567,39; 7026,464;  377,348;22719,322;29,76064
 567,97; 7193,076;  395,417;23375,137;29,58112
 568,55; 7500,181;  408,653;24221,748;29,77995
 569,13; 7615,633;  367,112;24876,340;29,57466
 569,71; 7871,150;  372,944;25867,724;29,41075
 570,29; 8168,556;  416,862;26786,630;29,39614
 570,87; 8404,995;  405,557;27584,995;29,43195
 571,45; 8542,493;  400,111;28290,910;29,19379
 572,03; 8661,345;  355,581;28672,731;29,33121
 572,61; 8832,278;  353,499;29338,205;29,25259
 573,20; 9010,517;  376,952;30011,990;29,13296
 573,78; 9202,437;  371,423;30679,324;29,13766
 574,36; 9300,630;  390,267;31202,664;28,91811
 574,94; 9469,072;  455,967;31659,909;28,88451
 575,52; 9475,984;  394,055;31794,562;28,92287
 576,10; 9630,854;  433,666;32346,027;28,82014
 576,68; 9767,541;  422,273;32898,129;28,77605
 577,26; 9874,390;  451,214;33577,054;28,44660
 577,84;10047,702;  455,498;34085,120;28,52308
 578,42;10096,939;  499,201;34419,056;28,29534
 579,00;10078,372;  453,885;34499,448;28,26943
 579,58;10107,590;  494,352;34762,836;28,05271
 580,16;10076,401;  463,510;34720,555;28,06106
 580,74;10063,407;  469,742;34999,443;27,78381
 581,32;10085,072;  468,507;34998,792;27,84965
 581,90;10015,651;  496,279;34962,551;27,61938
 582,48; 9981,566;  474,357;35030,909;27,51203
 583,06; 9970,439;  478,276;35274,242;27,27949
 583,64; 9949,818;  484,198;35241,277;27,23365
 584,22; 9801,230;  489,519;35129,513;26,88139
 584,80; 9664,469;  498,124;34846,492;26,68640
 585,38; 9570,331;  517,797;34446,987;26,68067
 585,96; 9472,219;  479,655;34460,178;26,46388
 586,54; 9458,403;  502,209;34444,318;26,38667
 587,12; 9396,892;  464,205;34628,958;26,14591
 587,70; 9386,378;  502,733;34745,450;25,94317
 588,28; 9337,846;  466,205;34788,386;25,84813
 588,86; 9313,961;  472,361;34790,816;25,76340
 589,44; 9276,426;  440,680;34892,229;25,64687
 590,02; 9321,174;  455,062;35066,005;25,61650
 590,59; 9227,346;  438,209;35229,930;25,26215
 591,17; 9289,737;  442,077;35454,411;25,27012
 591,75; 9253,952;  434,300;35548,657;25,11694
 592,33; 9269,654;  449,682;35684,014;25,03232
 592,91; 9281,893;  402,997;35979,050;24,95751
 593,49; 9264,690;  407,618;36252,507;24,70944
 594,07; 9350,787;  431,464;36510,042;24,72194
 594,65; 9343,135;  445,903;36473,655;24,69550
 595,23; 9370,171;  443,908;36899,907;24,48503
 595,81; 9384,543;  413,218;36986,144;24,52996
 596,39; 9320,141;  424,296;37078,246;24,26981
 596,97; 9315,716;  424,304;37280,341;24,12471
 597,55; 9315,738;  421,905;37309,661;24,11053
 598,12; 9251,215;  395,390;37275,975;24,01216
 598,70; 9222,424;  410,845;37385,292;23,83154
 599,28; 9253,919;  414,614;37516,125;23,82465
 599,86; 9252,848;  407,844;37574,361;23,79831
 600,44; 9186,496;  370,694;37647,632;23,64948
 601,02; 9223,865;  425,938;37762,855;23,56361
 601,60; 9176,393;  408,685;37705,661;23,50783
 602,18; 9077,847;  383,851;37747,488;23,26860
 602,75; 9089,383;  386,294;37756,486;23,28885
 603,33; 9085,173;  407,153;37790,142;23,21382
 603,91; 9010,313;  384,395;37721,005;23,10311
 604,49; 8981,584;  415,461;37758,719;22,93887
 605,07; 8965,368;  428,300;37840,623;22,81887
 605,65; 8945,120;  427,926;37978,541;22,68190
 606,23; 8920,710;  487,977;38103,897;22,41799
 606,80; 8930,206;  542,448;38058,931;22,35753
 607,38; 8838,675;  578,085;38170,951;21,97382
 607,96; 8863,841;  634,371;38194,081;21,91037
 608,54; 8891,636;  700,003;38186,986;21,85194
 609,12; 8836,702;  714,294;38354,841;21,57888
 609,70; 8818,064;  747,998;38368,755;21,45110
 610,27; 8801,482;  742,601;38434,389;21,38100
 610,85; 8792,258;  773,305;38529,208;21,23894
 611,43; 8695,874;  762,614;38461,630;21,04368
 612,01; 8615,370;  743,222;38276,607;20,97372
 612,59; 8588,899;  732,690;38270,554;20,92876
 613,16; 8455,483;  684,981;38193,761;20,71649
 613,74; 8428,515;  655,692;38003,668;20,81190
 614,32; 8415,804;  636,003;38082,592;20,77573
 614,90; 8283,052;  578,456;37936,711;20,62354
 615,48; 8224,210;  525,059;37630,400;20,74944
 616,05; 8129,386;  498,672;37543,036;20,59885
 616,63; 8052,485;  507,207;37447,978;20,42534
 617,21; 8006,778;  496,601;37336,804;20,38582
 617,79; 7947,418;  484,296;37268,587;20,28888
 618,36; 7923,575;  482,069;37275,913;20,22487
 618,94; 7766,712;  427,522;36803,429;20,17596
 619,52; 7683,032;  442,670;36682,811;19,97885
 620,10; 7584,528;  427,602;36564,307;19,80514
 620,67; 7550,904;  430,438;36475,273;19,75447
 621,25; 7494,305;  464,993;36341,460;19,59310
 621,83; 7434,416;  440,137;36286,399;19,51188
 622,41; 7432,840;  503,983;36333,853;19,33822
 622,98; 7307,889;  451,899;36021,051;19,27510
 623,56; 7295,088;  446,282;35995,510;19,26570
 624,14; 7221,272;  423,765;35918,701;19,15064
 624,72; 7139,755;  419,137;35827,288;18,98043
 625,29; 7107,584;  412,513;35931,420;18,84932
 625,87; 7088,210;  457,989;35809,835;18,75495
 626,45; 6976,592;  406,049;35661,101;18,63717
 627,02; 6912,973;  414,913;35708,369;18,41152
 627,60; 6887,439;  395,847;35519,474;18,48212
 628,18; 6864,933;  376,064;35613,072;18,41493
 628,76; 6796,818;  377,823;35574,709;18,23740
 629,33; 6765,364;  420,212;35594,440;18,03921
 629,91; 6722,990;  392,064;35549,845;18,00718
 630,49; 6726,944;  423,056;35731,416;17,85381
 631,06; 6712,605;  400,439;35821,413;17,82042
 631,64; 6643,059;  399,281;35757,143;17,65881
 632,22; 6563,699;  366,123;35640,993;17,56938
 632,79; 6637,041;  408,661;35986,595;17,50630
 633,37; 6548,977;  370,838;35965,811;17,35677
 633,95; 6533,589;  384,664;36011,080;17,25945
 634,52; 6558,698;  365,521;36189,746;17,28768
 635,10; 6506,169;  377,294;36134,077;17,14045
 635,68; 6524,787;  365,277;36399,578;17,09346
 636,25; 6431,797;  358,962;36258,939;16,91598
 636,83; 6448,203;  344,746;36618,786;16,82596
 637,41; 6461,676;  355,736;36545,939;16,87180
 637,98; 6457,539;  391,505;36757,760;16,68039
 638,56; 6437,617;  373,653;36902,018;16,60070
 639,13; 6403,402;  348,360;36975,552;16,53155
 639,71; 6460,893;  421,670;37153,186;16,44153
 640,29; 6311,362;  342,516;36922,296;16,31734
 640,86; 6355,121;  351,440;37025,954;16,37017
 641,44; 6260,803;  347,132;37082,535;16,09801
 642,02; 6276,023;  391,825;37072,039;16,04189
 642,59; 6269,936;  341,441;37344,697;16,02155
 643,17; 6219,541;  344,826;37240,431;15,92253
 643,74; 6238,838;  345,519;37332,781;15,93337
 644,32; 6210,750;  368,673;37176,285;15,87193
 644,89; 6189,432;  367,288;37273,866;15,77535
 645,47; 6184,268;  365,520;37273,601;15,76551
 646,05; 6114,565;  362,828;37166,720;15,62807
 646,62; 6130,631;  350,443;37172,070;15,69781
 647,20; 6081,082;  350,598;37345,959;15,48974
 647,77; 6026,149;  330,367;37107,617;15,48724
 648,35; 5986,984;  326,675;37019,429;15,42623
 648,92; 6019,128;  364,906;37109,163;15,38804
 649,50; 5924,194;  326,137;37018,975;15,25654
 650,08; 5866,030;  311,599;37002,864;15,13829
 650,65; 5901,096;  343,523;37153,906;15,09784
 651,23; 5937,393;  310,523;37858,641;14,98576
 651,80; 6114,152;  313,754;38886,914;15,03739
 652,38; 6176,757;  328,678;39315,956;14,99997
 652,95; 6145,285;  313,678;39767,691;14,78077
 653,53; 6200,044;  340,371;39916,195;14,80619
 654,10; 6231,803;  368,910;40112,391;14,75184
 654,68; 6163,484;  313,987;40043,126;14,72344
 655,25; 6144,320;  309,756;40190,399;14,63006
 655,83; 6113,386;  317,141;40149,673;14,55154
 656,40; 6145,991;  352,373;40164,484;14,55240
 656,98; 6077,288;  319,450;40117,296;14,46771
 657,55; 6009,355;  326,989;39966,800;14,33500
 658,13; 5927,421;  326,989;39564,150;14,27329
 658,70; 5852,334;  341,143;39353,577;14,12675
 659,28; 5678,246;  329,682;38518,389;14,00562
 659,85; 5548,236;  352,836;37644,816;13,93168
 660,43; 5512,918;  348,837;37703,627;13,82441
 661,00; 5468,215;  338,760;37690,824;13,73272
 661,58; 5506,281;  332,991;38098,943;13,69829
 662,15; 5498,194;  307,376;38278,293;13,67051
 662,73; 5562,953;  397,915;38514,951;13,55047
 663,30; 5519,019;  341,146;38722,532;13,49058
 663,88; 5525,085;  336,762;38917,882;13,44783
 664,45; 5552,383;  319,608;39128,386;13,48348
 665,03; 5555,064;  335,686;39535,275;13,31488
 665,60; 5648,592;  427,071;39975,317;13,20292
 666,17; 5567,120;  334,225;40085,206;13,16419
 666,75; 5599,110;  328,764;40366,325;13,16350
 667,32; 5637,099;  358,995;40701,444;13,08325
 667,90; 5639,089;  344,841;40865,410;13,06558
 668,47; 5681,078;  363,380;41122,145;13,04676
 669,05; 5643,914;  330,303;41525,418;12,89864
 669,62; 5638,442;  308,227;41570,152;12,91800
 670,19; 5637,508;  318,535;41644,041;12,87092
 670,77; 5592,113;  332,535;41806,699;12,68158
 671,34; 5575,641;  327,151;41733,895;12,67545
 671,92; 5600,015;  330,921;42058,707;12,62730
 672,49; 5589,082;  357,152;42205,442;12,50214
 673,06; 5537,071;  296,229;42138,792;12,52515
 673,64; 5516,368;  315,306;42104,065;12,44608
 674,21; 5497,589;  306,537;42078,646;12,42708
 674,79; 5535,040;  353,538;42393,304;12,32524
 675,36; 5515,491;  348,307;42591,808;12,23190
 675,93; 5467,249;  309,923;42368,773;12,26217
 676,51; 5466,239;  344,539;42560,431;12,13216
 677,08; 5471,305;  347,155;42653,935;12,11189
 677,65; 5464,141;  333,232;42768,747;12,09107
 678,23; 5466,438;  320,694;42960,481;12,06794
 678,80; 5461,582;  318,079;43157,062;12,00659
 679,38; 5457,417;  325,156;43234,797;11,96062
 679,95; 5485,791;  332,310;43585,839;11,91459
 680,52; 5464,396;  327,464;43712,189;11,84042
 681,10; 5508,770;  344,696;44094,693;11,80360
 681,67; 5550,144;  339,234;44358,197;11,83788
 682,24; 5509,519;  308,389;44439,086;11,78574
 682,82; 5577,585;  321,081;44980,975;11,77008
 683,39; 5650,805;  365,697;45322,786;11,75590
 683,96; 5602,026;  332,544;45596,752;11,64161
 684,54; 5634,015;  306,467;45884,717;11,68879
 685,11; 5710,543;  360,237;46233,990;11,66311
 685,68; 5655,532;  311,468;46585,648;11,54870
 686,25; 5700,214;  303,391;46650,383;11,64439
 686,83; 5713,511;  317,161;46974,502;11,56592
 687,40; 5719,501;  294,315;47295,314;11,54270
 687,97; 5791,952;  337,854;47525,126;11,55841
 688,55; 5744,711;  292,085;47628,091;11,51898
 689,12; 5728,623;  286,470;47867,057;11,43776
 689,69; 5766,997;  283,701;47921,253;11,51045
 690,26; 5719,987;  308,778;48096,295;11,32348
 690,84; 5750,592;  301,009;48252,646;11,36475
 691,41; 5779,966;  325,164;48323,073;11,36467
 691,98; 5813,494;  328,779;48542,730;11,37578
 692,56; 5775,637;  320,780;48735,388;11,26697
 693,13; 5833,319;  365,318;48732,354;11,30522
 693,70; 5835,308;  332,857;48950,165;11,31789
 694,27; 5777,298;  310,396;48987,362;11,23098
 694,84; 5797,826;  308,243;49159,404;11,23737
 695,42; 5895,739;  360,935;49321,370;11,30464
 695,99; 5806,882;  320,705;49499,028;11,15568
 696,56; 5794,794;  322,090;49347,147;11,16308
 697,13; 5876,630;  333,321;49731,497;11,22169
 697,71; 5888,620;  305,706;49833,078;11,27238
 698,28; 5881,378;  316,245;50208,428;11,15432
 698,85; 5808,752;  285,476;50168,855;11,07238
 699,42; 5846,357;  293,322;50374,128;11,08815
 699,99; 5878,962;  337,861;50482,632;11,05021
 700,57; 5902,952;  320,092;50544,444;11,11584
 701,14; 5869,403;  311,170;50638,332;11,04420
 701,71; 5916,469;  342,401;50861,529;11,03358
 702,28; 5888,305;  318,093;50900,033;11,01225
 702,85; 5917,833;  325,709;50990,537;11,03749
 703,43; 5957,976;  348,171;51200,810;11,03149
 704,00; 5972,273;  360,941;51443,006;10,98494
 704,57; 5941,032;  338,095;51548,356;10,94104
 705,14; 5949,714;  360,634;51643,245;10,89859
 705,71; 5962,396;  377,788;51681,441;10,88540
 706,28; 5943,539;  341,711;51600,484;10,92852
 706,86; 5978,682;  367,404;51881,295;10,89275
 707,43; 6042,210;  392,558;51784,184;10,99333
 708,00; 5972,046;  374,020;51829,688;10,87932
 708,57; 5948,497;  357,174;51758,115;10,87786
 709,14; 6004,102;  380,252;51864,465;10,92345
 709,71; 5969,168;  356,175;51958,661;10,87737
 710,28; 6004,235;  350,945;52143,011;10,91536
 710,86; 5985,455;  353,637;52296,977;10,84223
 711,43; 6082,444;  388,561;52232,712;10,98269
 712,00; 6014,895;  347,099;52462,831;10,87540
 712,57; 6070,193;  368,792;52613,181;10,91294
 713,14; 6061,951;  345,485;52694,839;10,91984
 713,71; 6044,710;  342,716;52622,189;10,90676
 714,28; 6041,546;  329,562;52587,155;10,93044
 714,85; 6045,612;  311,486;52370,428;11,01468
 715,42; 6072,755;  318,179;52488,239;11,03042
 716,00; 6133,745;  389,717;52650,513;10,99108
 716,57; 6057,504;  323,410;52897,863;10,90662
 717,14; 6084,032;  300,487;52773,751;11,02189
 717,71; 6116,329;  280,872;52697,409;11,13285
 718,28; 6147,549;  345,411;52941,529;11,03149
 718,85; 6079,539;  294,796;52799,648;11,01754
 719,42; 6171,451;  314,719;53093,690;11,09671
 719,99; 6106,056;  280,874;52844,041;11,08225
 720,56; 6210,969;  327,489;53152,468;11,13768
 721,13; 6158,650;  295,413;53200,664;11,08252
 721,70; 6156,178;  291,336;53172,091;11,09069
 722,27; 6165,476;  327,029;53200,287;11,04234
 722,84; 6287,080;  385,875;53456,945;11,11944
 723,41; 6220,147;  290,107;53359,757;11,17407
 723,98; 6249,367;  312,953;53547,107;11,15151
 724,55; 6313,741;  333,030;53651,611;11,21694
 725,12; 6269,885;  271,877;53561,499;11,25549
 725,69; 6334,566;  289,493;53752,773;11,30696
 726,27; 6377,094;  312,031;53853,507;11,32778
 726,84; 6411,622;  315,186;54174,550;11,31918
 727,41; 6425,689;  314,878;54087,361;11,36420
 727,98; 6462,755;  324,648;54389,173;11,35330
 728,55; 6521,899;  351,648;54299,215;11,43749
 729,12; 6470,119;  298,341;54383,412;11,41124
 729,69; 6588,801;  338,572;54596,223;11,51953
 730,26; 6551,252;  326,342;54893,881;11,40772
 730,82; 6518,318;  321,342;54664,001;11,40352
 731,39; 6599,231;  331,650;54859,889;11,49419
 731,96; 6642,143;  306,574;55130,547;11,55620
 732,53; 6670,363;  335,882;55288,743;11,52712
 733,10; 6718,430;  344,343;55336,401;11,59092
 733,67; 6783,035;  339,575;55680,674;11,64317
 734,24; 6742,640;  329,498;55314,486;11,66344
 734,81; 6799,552;  351,960;55457,451;11,70045
 735,38; 6757,696;  326,114;55160,648;11,72907
 735,95; 6744,531;  331,499;54940,152;11,74362
 736,52; 6782,059;  340,961;55244,348;11,73170
 737,09; 6809,049;  354,654;54918,775;11,82901
 737,66; 6860,346;  403,577;55065,510;11,81219
 738,23; 6889,258;  345,424;55071,091;11,95752
 738,80; 7011,325;  414,809;55413,749;11,99390
 739,37; 6961,314;  371,270;55577,329;11,93717
 739,94; 6947,996;  340,578;55636,987;11,94909
 740,51; 7153,986;  472,733;55690,645;12,09979
 741,07; 7019,437;  353,502;55597,764;12,06629
 741,64; 7095,965;  374,503;55863,268;12,11319
 742,21; 7113,800;  347,118;55899,157;12,18080
 742,78; 7147,482;  317,580;55685,815;12,33542
 743,35; 7182,548;  338,196;55994,011;12,29764
 743,92; 7321,000;  375,658;55992,746;12,48778
 744,49; 7337,374;  375,428;55892,942;12,54009
 745,06; 7313,363;  345,274;55982,831;12,52407
 745,63; 7292,737;  332,351;55944,873;12,51586
 746,19; 7319,881;  334,659;55946,608;12,56065
 746,76; 7351,793;  338,660;56009,573;12,59748
 747,33; 7361,167;  355,122;55937,000;12,60491
 747,90; 7464,464;  359,583;56211,274;12,72098
 748,47; 7478,685;  355,968;56132,470;12,77010
 749,04; 7533,828;  348,507;56220,743;12,86027
 749,61; 7582,279;  373,738;56133,016;12,92797
 750,17; 7655,269;  359,277;56134,674;13,08102
 750,74; 7639,335;  354,431;56069,563;13,07527
 751,31; 7648,940;  331,663;56056,836;13,13101
 751,88; 7645,545;  326,278;55958,725;13,15647
 752,45; 7754,765;  338,356;56058,613;13,31008
 753,02; 7726,908;  358,048;55964,963;13,25170
 753,58; 7750,282;  332,049;55822,313;13,36853
 754,15; 7773,272;  326,818;55941,202;13,38944
 754,72; 7812,108;  323,895;55777,860;13,50347
 755,29; 7788,097;  310,204;55631,364;13,51724
 755,86; 7834,240;  316,896;55711,868;13,57045
 756,42; 7925,230;  330,512;55701,141;13,71615
 756,99; 7948,450;  291,974;55721,106;13,81309
 757,56; 7907,132;  300,436;55504,764;13,77917
 758,13; 7955,198;  254,205;55387,884;13,96786
 758,70; 8037,726;  277,360;55463,849;14,06208
 759,26; 8091,716;  266,283;55611,968;14,13919
 759,83; 8029,475;  282,283;55725,934;13,97309
 760,40; 8093,695;  254,284;55604,130;14,16338
 760,97; 8088,069;  253,130;55511,250;14,17880
 761,53; 8058,212;  238,746;55224,369;14,22093
 762,10; 8095,279;  226,439;55091,411;14,34219
 762,67; 8200,884;  267,747;55061,685;14,47813
 763,24; 8128,181;  220,209;54714,881;14,51146
 763,80; 8174,786;  260,055;54863,231;14,49500
 764,37; 8193,391;  264,517;54886,350;14,51594
 764,94; 8147,688;  256,979;54448,085;14,56089
 765,50; 8246,754;  261,595;54363,897;14,75937
 766,07; 8284,667;  305,441;54565,170;14,70561
 766,64; 8284,502;  285,672;54260,905;14,81945
 767,21; 8199,723;  280,442;54071,639;14,72226
 767,77; 8338,558;  308,134;54050,067;14,94257
 768,34; 8327,163;  314,673;54016,263;14,92040
 768,91; 8349,537;  327,058;53876,228;14,98152
 769,47; 8376,373;  327,905;53913,732;15,01977
 770,04; 8361,747;  320,905;53773,775;15,04286
 770,61; 8339,198;  300,752;53592,663;15,08380
 771,18; 8388,572;  295,829;53376,936;15,24600
 771,74; 8433,177;  313,829;53561,671;15,24822
 772,31; 8424,474;  311,291;53366,021;15,29210
 772,88; 8377,772;  290,753;53131,910;15,30439
 773,44; 8365,761;  296,830;53045,491;15,29694
 774,01; 8475,750;  317,831;53152,764;15,44039
 774,58; 8419,125;  305,062;52650,345;15,50104
 775,14; 8433,806;  286,447;52948,387;15,47106
 775,71; 8422,873;  302,832;52857,353;15,45070
 776,27; 8590,939;  368,371;52715,395;15,70781
 776,84; 8657,390;  397,525;52833,438;15,75231
 777,41; 8619,226;  311,987;52554,249;15,90138
 777,97; 8600,215;  308,295;52285,215;15,95308
 778,54; 8612,205;  303,526;52279,488;15,98562
 779,11; 8731,041;  326,988;52323,607;16,16269
 779,67; 8741,415;  288,527;52191,727;16,28587
 780,24; 8742,250;  307,450;52040,077;16,30460
 780,80; 8767,701;  324,835;52063,427;16,31831
 781,37; 8775,691;  324,758;51949,700;16,36986
 781,94; 8822,680;  313,451;51784,743;16,53199
 782,50; 8824,593;  317,144;51658,554;16,57035
 783,07; 8925,890;  337,529;51743,289;16,70700
 783,63; 8883,110;  304,683;51456,332;16,77058
 784,20; 8991,946;  339,376;51300,528;16,97876
 784,77; 8959,705;  311,453;51225,186;16,98609
 785,33; 8951,540;  294,915;50983,074;17,07820
 785,90; 8942,376;  303,915;51032,809;17,02868
 786,46; 9035,904;  322,839;50900,159;17,22722
 787,03; 9042,970;  301,993;50652,278;17,36033
 787,59; 9030,498;  298,224;50513,936;17,38953
 788,16; 9047,334;  313,301;50510,517;17,39944
 788,73; 9083,170;  312,071;50512,483;17,47217
 789,29; 8987,621;  285,840;50073,679;17,47772
 789,86; 9047,995;  328,687;49922,875;17,58131
 790,42; 9115,600;  301,918;49712,533;17,83763
 790,99; 9059,205;  311,688;49431,806;17,80842
 791,55; 9068,425;  296,380;49395,233;17,86609
 792,12; 9101,876;  334,996;49436,045;17,85477
 792,68; 9049,712;  312,842;49136,549;17,89473
 793,25; 9095,316;  306,612;48929,591;18,07521
 793,81; 9098,537;  383,305;48567,865;18,08719
 794,38; 9012,603;  277,074;48364,061;18,16610
 794,94; 9031,593;  281,075;48267,103;18,23555
 795,51; 9082,967;  315,075;47920,300;18,41792
 796,07; 8995,572;  294,614;47741,650;18,33825
 796,64; 9146,407;  325,768;47878,769;18,54907
 797,20; 9054,166;  303,307;47325,427;18,61009
 797,77; 8977,925;  274,692;47092,700;18,58950
 798,33; 8979,837;  310,384;46897,743;18,60902
 798,90; 9049,981;  318,769;46832,554;18,77123
 799,46; 8940,509;  290,924;46419,674;18,75096
 800,03; 8991,267;  307,539;46231,408;18,90896
 800,59; 8990,334;  311,078;46110,143;18,95073
 801,15; 8993,477;  320,694;45870,109;19,04038
 801,72; 8970,620;  300,694;45530,997;19,16840
 802,28; 8982,687;  328,310;45259,578;19,26137
 802,85; 8924,215;  302,618;45098,005;19,24662
 803,41; 8949,897;  289,849;44987,740;19,37462
 803,98; 8875,271;  294,003;44489,628;19,41655
 804,54; 8893,491;  290,465;44177,363;19,60272
 805,11; 8919,788;  311,004;44040,252;19,68656
 805,67; 8892,701;  322,389;43948,294;19,64501
 806,23; 8850,998;  307,543;43562,798;19,75125
 806,80; 8920,064;  320,698;43519,687;19,90641
 807,36; 8955,823;  333,698;43446,575;19,99896
 807,93; 8903,428;  345,314;43091,618;20,02071
 808,49; 8848,648;  296,468;42657,968;20,18857
 809,05; 8807,022;  279,314;42565,241;20,16678
 809,62; 8916,243;  306,238;42518,053;20,39714
 810,18; 8876,694;  305,930;42428,711;20,34710
 810,74; 8828,145;  271,239;42170,753;20,42245
 811,31; 8834,750;  273,470;41899,949;20,56691
 811,87; 8889,277;  306,393;41779,299;20,69516
 812,44; 8920,652;  319,778;41752,265;20,75877
 813,00; 8838,872;  250,009;41412,769;20,86561
 813,56; 8946,477;  299,471;41490,811;20,99229
 814,13; 8972,928;  287,933;41363,315;21,14404
 814,69; 8979,994;  281,549;41238,973;21,23777
 815,25; 8914,599;  254,241;40772,477;21,37398
 815,82; 8954,281;  299,165;40720,673;21,41216
 816,38; 9019,655;  331,242;40600,100;21,57601
 816,94; 8939,798;  264,781;40284,912;21,67663
 817,51; 8949,557;  257,012;40110,185;21,81143
 818,07; 8955,008;  256,397;39827,074;21,98247
 818,63; 8944,536;  291,090;39544,732;22,04495
 819,20; 8960,756;  277,552;39453,005;22,16491
 819,76; 8851,054;  256,552;39198,432;22,07007
 820,32; 8900,735;  303,937;38981,551;22,22681
 820,89; 8821,417;  282,091;38803,901;22,16751
 821,45; 8808,714;  267,630;38485,944;22,34815
 822,01; 8820,242;  288,784;38235,371;22,48281
 822,57; 8850,001;  286,400;38185,336;22,59589
 823,14; 8825,914;  245,323;37953,917;22,75500
 823,70; 8736,288;  258,785;37624,267;22,68806
 824,26; 8735,354;  259,862;37509,541;22,75319
 824,82; 8770,267;  300,094;37435,352;22,80898
 825,39; 8710,718;  263,940;37111,241;22,92374
 825,95; 8752,938;  290,171;37266,206;22,88717
 826,51; 8685,620;  274,018;36743,710;23,06464
 827,08; 8760,378;  315,249;36809,907;23,14073
 827,64; 8735,137;  297,249;36649,180;23,21166
 828,20; 8734,588;  257,403;36443,299;23,42677
 828,76; 8790,347;  296,173;36381,188;23,53934
 829,32; 8773,183;  313,635;36132,615;23,61750
 829,89; 8768,557;  249,866;36017,657;23,81665
 830,45; 8774,700;  271,174;36062,315;23,75875
 831,01; 8825,843;  279,405;35843,896;24,03082
 831,57; 8788,525;  283,175;35652,708;24,04711
 832,14; 8778,053;  258,637;35711,366;24,03035
 832,70; 8831,350;  260,099;35426,331;24,37353
 833,26; 8790,186;  233,945;35366,373;24,35425
 833,82; 8842,329;  268,484;35296,031;24,47744
 834,38; 8830,703;  257,330;35233,689;24,51191
 834,95; 8814,462;  255,715;35182,193;24,50504
 835,51; 8788,836;  243,254;35039,466;24,55894
 836,07; 8850,518;  271,255;35112,201;24,62408
 836,63; 8892,969;  304,870;35036,859;24,72677
 837,19; 8869,266;  277,717;34829,286;24,86587
 837,75; 8792,640;  245,948;34607,559;24,87279
 838,32; 8896,168;  290,487;34752,602;24,97143
 838,88; 8945,081;  290,718;34674,259;25,17007
 839,44; 8987,301;  294,411;34681,456;25,27955
 840,00; 8961,752;  276,488;34592,652;25,30954
 840,56; 8865,511;  262,181;34297,540;25,27762
 841,12; 8881,039;  260,489;34213,660;25,38953
 841,68; 8920,105;  238,412;34080,395;25,65362
 842,25; 8898,556;  253,566;34154,052;25,50108
 842,81; 8923,007;  258,567;33854,479;25,79016
 843,37; 8916,151;  243,028;33824,753;25,82691
 843,93; 8904,448;  264,260;33801,257;25,76315
 844,49; 8962,822;  281,491;33788,914;25,90868
 845,05; 8883,196;  226,414;33613,957;25,92818
 845,61; 9024,801;  278,184;33598,845;26,24983
 846,17; 8981,021;  262,338;33423,196;26,29209
 846,73; 9008,319;  272,031;33429,700;26,34771
 847,29; 8987,923;  249,492;33178,127;26,53748
 847,86; 8985,144;  250,647;33157,861;26,54280
 848,42; 8991,749;  244,416;33008,442;26,69798
 848,98; 9022,200;  267,186;32922,562;26,81033
 849,54; 9051,728;  250,340;32905,066;26,95288
 850,10; 9063,794;  262,725;32723,185;27,11320
 850,66; 9056,014;  241,033;32620,150;27,22428
 851,22; 9014,388;  240,418;32551,501;27,15468
 851,78; 9139,301;  284,034;32665,620;27,34661
 852,34; 9060,906;  269,419;32323,124;27,42737
 852,90; 9111,665;  252,573;32188,320;27,74036
 853,46; 9058,116;  242,727;31997,670;27,76068
 854,02; 9081,105;  266,881;32021,020;27,75772
 854,58; 9001,710;  252,036;31732,217;27,79423
 855,14; 9001,776;  242,728;31675,105;27,86632
 855,70; 8979,920;  230,498;31478,609;27,99984
 856,26; 9008,448;  261,652;31426,959;28,06581
 856,82; 8968,745;  249,575;31362,002;28,02472
 857,38; 9009,581;  301,730;31168,583;28,21101
 857,94; 8982,801;  260,730;31128,625;28,25612
 858,50; 8997,175;  272,577;30932,668;28,45588
 859,06; 8958,472;  258,731;30843,633;28,44456
 859,62; 9010,077;  280,577;30800,368;28,60275
 860,18; 8984,528;  266,347;30540,795;28,79716
 860,74; 8897,133;  236,116;30480,376;28,63689
 861,30; 8892,199;  239,271;30208,034;28,87316
 861,86; 9016,112;  311,117;30398,922;28,93197
 862,42; 8965,948;  251,579;30109,349;29,18627
 862,98; 9019,937;  286,810;30098,776;29,29403
 863,54; 8988,850;  251,503;29904,203;29,46560
 864,10; 9067,608;  268,119;29954,015;29,64199
 864,66; 8998,752;  228,888;29743,904;29,71323
 865,22; 9029,049;  247,273;29580,946;29,93753
 865,78; 8964,961;  260,889;29447,373;29,82227
 866,34; 8971,489;  246,428;29419,031;29,90841
 866,90; 9001,094;  258,274;29261,150;30,14467
 867,45; 8938,007;  250,813;29022,039;30,19403
 868,01; 8980,458;  244,583;28907,543;30,47792
 868,57; 8962,447;  249,045;28737,278;30,58597
 869,13; 8910,129;  237,506;28576,012;30,60367
 869,69; 8925,503;  240,199;28538,901;30,69153
 870,25; 8911,493;  236,969;28389,482;30,81261
 870,81; 8960,559;  245,046;28317,832;31,04613
 871,37; 8913,395;  269,662;28271,259;30,86871
 871,93; 8921,846;  283,739;28096,686;31,05786
 872,49; 8887,835;  296,893;27928,728;31,09074
 873,04; 8850,748;  240,817;27787,309;31,25600
 873,60; 8830,122;  240,894;27667,890;31,31669
 874,16; 8836,573;  271,433;27518,163;31,43548
 874,72; 8797,342;  254,433;27458,856;31,40265
 875,28; 8881,035;  251,433;27358,933;31,83474
 875,84; 8943,727;  261,817;27373,779;32,02243
 876,40; 8933,265;  243,510;27305,779;32,11023
 876,95; 8907,035;  247,356;27243,010;32,07805
 877,51; 8972,419;  283,202;27220,471;32,25723
 878,07; 9008,650;  290,971;27186,010;32,41371
 878,63; 9032,342;  258,048;27179,163;32,59261
 879,19; 9046,727;  264,740;27231,625;32,56582
 879,75; 9075,419;  254,279;27203,010;32,73305
 880,30; 9135,035;  246,048;27291,010;32,86744
 880,86; 9247,727;  299,433;27390,625;33,03027
 881,42; 9190,342;  233,510;27328,933;33,05663
 881,98; 9288,958;  264,894;27395,548;33,26150
 882,54; 9335,881;  241,356;27527,625;33,33004
 883,09; 9407,265;  265,433;27595,548;33,44967
 883,65; 9462,573;  250,433;27656,548;33,61345
 884,21; 9619,188;  294,202;27779,240;33,92750
 884,77; 9607,650;  235,587;27917,548;33,85621
 885,32; 9726,035;  258,279;28054,702;34,06106
 885,88; 9791,419;  280,894;28194,779;34,07095
 886,44; 9863,881;  255,971;28265,779;34,30195
 887,00; 9900,881;  273,971;28209,394;34,46130
 887,56; 9993,573;  256,894;28435,010;34,55405
 888,11;10061,727;  269,663;28349,702;34,87197
 888,67;10138,188;  277,740;28548,394;34,87874
 889,23;10143,496;  254,125;28482,010;35,03405
 889,79;10147,727;  244,356;28431,856;35,13391
 890,34;10229,958;  268,125;28384,163;35,43114
 890,90;10340,650;  333,202;28557,779;35,45650
 891,46;10273,342;  244,202;28416,471;35,59933
 892,01;10269,958;  267,048;28408,933;35,54456
 892,57;10251,419;  296,048;28336,240;35,50393
 893,13;10204,035;  243,663;28152,471;35,68899
 893,69;10196,573;  236,048;28070,625;35,78472
 894,24;10182,496;  248,125;27938,933;35,87606
 894,80;10178,419;  255,202;27894,010;35,90320
 895,36;10223,650;  243,356;27727,471;36,31295
 895,91;10144,188;  249,433;27520,779;36,28261
 896,47;10129,727;  272,125;27423,548;36,30602
 897,03;10110,342;  246,663;27244,394;36,53521
 897,58;10044,188;  255,433;27167,779;36,37273
 898,14;10049,881;  262,433;27009,779;36,59222
 898,70; 9938,035;  214,125;26779,856;36,60321
 899,25; 9983,419;  254,971;26867,240;36,55625
 899,81; 9917,804;  259,740;26652,471;36,59365
 900,37; 9810,573;  211,279;26454,163;36,57866
 900,92; 9873,265;  248,433;26442,163;36,74480
 901,48; 9848,342;  236,510;26289,856;36,89289
 902,03; 9816,112;  237,048;26127,163;36,99892
 902,59; 9849,419;  239,048;26029,856;37,26278
 903,15; 9820,188;  262,356;25902,163;37,27732
 903,70; 9740,650;  241,279;25715,010;37,29085
 904,26; 9800,573;  237,587;25565,471;37,75675
 904,82; 9738,573;  241,510;25528,702;37,55681
 905,37; 9790,188;  252,587;25409,625;37,91226
 905,93; 9740,112;  231,510;25257,163;37,99542
 906,48; 9827,035;  249,202;25269,240;38,28065
 907,04; 9848,342;  254,817;25191,933;38,47087
 907,60; 9807,342;  250,587;24960,010;38,67656
 908,15; 9771,804;  236,279;24885,010;38,68566
 908,71; 9739,727;  260,971;24848,548;38,55100
 909,26; 9807,573;  230,740;24733,163;39,08525
 909,82; 9777,958;  255,279;24547,548;39,20045
 910,37; 9785,342;  279,894;24504,317;39,23911
 910,93; 9723,342;  235,817;24324,625;39,38561
 911,48; 9682,727;  211,279;24223,548;39,44420
 912,04; 9680,188;  229,510;24064,779;39,64998
 912,60; 9700,804;  243,356;24029,163;39,76089
 913,15; 9629,804;  245,048;23886,394;39,69637
 913,71; 9624,342;  225,587;23652,856;40,11887
 914,26; 9595,804;  218,740;23636,010;40,04337
 914,82; 9616,112;  247,740;23560,856;40,18498
 915,37; 9596,573;  230,663;23486,856;40,27276
 915,93; 9577,881;  303,202;23381,471;40,18793
 916,48; 9529,112;  221,817;23217,548;40,47401
 917,04; 9496,496;  259,663;23063,394;40,50580
 917,59; 9523,496;  270,740;23124,548;40,48671
 918,15; 9418,573;  205,202;22832,394;40,71814
 918,70; 9342,112;  230,817;22744,933;40,46925
 919,26; 9364,419;  240,740;22600,702;40,80364
 919,81; 9288,112;  219,433;22460,471;40,77453
 920,37; 9331,804;  245,433;22430,317;40,95749
 920,92; 9310,112;  263,125;22403,625;40,86171
 921,48; 9283,881;  223,894;22091,394;41,43129
 922,03; 9241,804;  233,048;22110,163;41,17890
 922,59; 9246,188;  232,817;22055,702;41,30238
 923,14; 9135,265;  244,510;21812,163;41,22264
 923,69; 9194,573;  254,510;21781,163;41,53020
 924,25; 9216,958;  265,048;21795,010;41,57885
 924,80; 9060,958;  239,587;21542,471;41,40928
 925,36; 9055,958;  225,202;21428,625;41,64778
 925,91; 9063,035;  219,048;21370,010;41,81364
 926,47; 9026,496;  217,279;21331,394;41,72193
 927,02; 9102,265;  291,971;21219,317;42,09943
 927,57; 9010,958;  225,279;21006,087;42,27785
 928,13; 8963,419;  225,279;20948,010;42,16693
 928,68; 8988,342;  233,817;20900,933;42,35969
 929,24; 8972,342;  201,971;20710,625;42,76425
 929,79; 8929,265;  219,587;20580,240;42,77701
 930,34; 8895,112;  226,356;20442,317;42,88075
 930,90; 8924,035;  225,663;20414,856;43,08429
 931,45; 8962,419;  231,894;20431,779;43,22067
 932,01; 8840,419;  235,048;20330,317;42,82287
 932,56; 8895,496;  250,663;20097,779;43,55712
 933,11; 8883,342;  258,587;20132,548;43,39727
 933,67; 8769,573;  220,202;19943,317;43,34696
 934,22; 8809,958;  230,125;19903,317;43,61180
 934,77; 8786,958;  252,202;19720,779;43,83862
 935,33; 8717,342;  232,971;19621,779;43,75912
 935,88; 8716,265;  239,202;19570,317;43,85191
 936,43; 8685,342;  228,740;19440,933;44,01685
 936,99; 8652,419;  232,202;19387,779;43,95700
 937,54; 8583,496;  204,894;19253,394;43,98563
 938,09; 8606,650;  237,587;19226,317;44,07384
 938,65; 8586,881;  237,433;19047,317;44,38862
 939,20; 8482,112;  210,356;19020,779;43,97432
 939,75; 8475,419;  214,740;18954,471;44,08110
 940,31; 8509,804;  213,125;18819,933;44,58948
 940,86; 8471,419;  225,740;18780,163;44,44050
 941,41; 8513,804;  315,510;18720,317;44,54431
 941,96; 8427,035;  220,048;18550,471;44,77249
 942,52; 8406,881;  222,125;18442,856;44,92002
 943,07; 8386,265;  199,740;18381,087;45,02706
 943,62; 8360,958;  217,587;18287,010;45,06713
 944,18; 8336,035;  209,971;18255,317;45,03135
 944,73; 8317,573;  234,433;18020,240;45,44714
 945,28; 8220,419;  196,894;17911,933;45,29217
 945,83; 8297,573;  221,663;17909,087;45,65905
 946,39; 8289,650;  218,279;17914,702;45,61018
 946,94; 8263,265;  243,817;17736,010;45,84587
 947,49; 8262,188;  216,510;17631,625;46,19940
 948,04; 8277,188;  262,356;17690,317;45,98835
 948,59; 8256,804;  241,971;17645,163;46,05381
 949,15; 8197,958;  207,740;17503,625;46,19722
 949,70; 8259,804;  229,433;17385,471;46,80784
 950,25; 8231,112;  231,663;17277,010;46,93039
 950,80; 8157,035;  186,663;17122,702;47,06160
 951,36; 8136,727;  192,587;17124,548;46,91802
 951,91; 8183,035;  243,356;17139,933;46,98987
 952,46; 8070,265;  202,663;16908,394;47,09523
 953,01; 8152,650;  236,202;16897,010;47,51539
 953,56; 8072,650;  201,125;16755,471;47,54960
 954,11; 8117,958;  234,663;16748,317;47,73804
 954,67; 8105,727;  218,894;16653,087;47,99039
 955,22; 8093,496;  196,279;16463,625;48,54644
 955,77; 8112,342;  243,894;16551,240;48,25094
 956,32; 8073,881;  281,894;16403,163;48,33358
 956,87; 7980,342;  216,433;16257,240;48,40099
 957,42; 7990,650;  230,125;16189,933;48,62543
 957,98; 7957,342;  217,587;16138,933;48,61245
 958,53; 7986,188;  248,356;16123,010;48,74332
 959,08; 7926,496;  204,356;15932,779;49,09672
 959,63; 7906,112;  209,817;15836,471;49,25107
 960,18; 7878,112;  240,433;15843,548;48,94970
 960,73; 7904,727;  224,048;15819,087;49,25078
 961,28; 7858,496;  206,663;15655,010;49,53173
 961,83; 7859,342;  247,894;15641,548;49,44536
 962,39; 7805,650;  203,894;15504,702;49,68206
 962,94; 7839,342;  224,663;15445,163;50,02910
 963,49; 7728,727;  227,202;15295,779;49,78257
 964,04; 7725,881;  228,971;15216,548;50,02082
 964,59; 7663,958;  203,125;15139,317;49,95137
 965,14; 7698,035;  244,894;15098,856;50,17611
 965,69; 7631,881;  237,202;14957,163;50,23572
 966,24; 7607,650;  217,279;14840,317;50,53923
 966,79; 7608,265;  237,048;14789,394;50,65312
 967,34; 7524,496;  205,510;14734,856;50,37382
 967,89; 7541,573;  216,663;14617,625;50,86403
 968,44; 7473,958;  222,740;14560,933;50,57274
 968,99; 7451,881;  229,433;14552,625;50,42485
 969,55; 7473,650;  227,356;14408,625;51,09764
 970,10; 7432,804;  236,048;14297,702;51,18001
 970,65; 7393,650;  253,971;14166,471;51,31845
 971,20; 7389,342;  207,817;14077,240;51,77955
 971,75; 7316,727;  196,433;13935,163;51,82643
 972,30; 7289,112;  232,587;13902,010;51,62270
 972,85; 7210,188;  212,817;13824,240;51,40808
 973,40; 7182,342;  217,971;13728,163;51,54902
 973,95; 7200,727;  234,740;13695,010;51,75221
 974,50; 7251,650;  256,202;13630,317;52,30588
 975,05; 7159,112;  232,356;13502,240;52,19907
 975,60; 7107,188;  246,587;13442,010;51,99228
 976,15; 7066,496;  220,356;13283,010;52,41003
 976,70; 7022,573;  228,663;13184,856;52,43755
 977,25; 7053,727;  245,740;13159,010;52,72086
 977,80; 7007,804;  227,356;13054,240;52,86122
 978,35; 6936,419;  239,279;12839,394;53,15142
 978,89; 6930,804;  204,817;12779,702;53,48746
 979,44; 6888,727;  226,048;12821,779;52,89633
 979,99; 6795,265;  212,817;12606,625;53,11078
 980,54; 6832,881;  247,125;12527,010;53,63044
 981,09; 6815,035;  256,279;12521,856;53,47287
 981,64; 6746,650;  241,663;12382,933;53,57748
 982,19; 6735,573;  276,894;12315,933;53,64780
 982,74; 6647,573;  241,048;12229,010;53,44132
 983,29; 6631,650;  219,587;12037,625;54,25658
 983,84; 6571,265;  226,740;11923,702;54,24080
 984,39; 6646,958;  318,202;11991,625;54,21508
 984,94; 6488,342;  204,894;11736,779;54,48761
 985,49; 6490,804;  263,587;11708,163;54,41195
 986,03; 6466,496;  262,971;11659,548;54,43323
 986,58; 6428,035;  288,356;11489,240;54,81423
 987,13; 6314,112;  237,202;11355,394;54,65735
 987,68; 6287,804;  258,510;11278,625;54,71172
 988,23; 6287,573;  254,356;11222,317;55,00764
 988,78; 6233,881;  236,356;11108,548;55,16390
 989,33; 6144,804;  249,202;11009,548;54,79008
 989,88; 6202,342;  273,510;10959,625;55,48165
 990,42; 6086,419;  236,971;10761,856;55,57731
 990,97; 6043,650;  240,202;10640,163;55,80259
 991,52; 6061,188;  255,356;10569,779;56,28849
 992,07; 6024,650;  270,817;10517,317;56,15413
 992,62; 5940,804;  241,279;10391,856;56,14976
 993,17; 5897,188;  255,356;10232,933;56,54512
 993,71; 5883,958;  258,587;10219,010;56,47723
 994,26; 5767,881;  227,817; 9997,471;56,70686
 994,81; 5798,188;  257,587;10026,471;56,71683
 995,36; 5699,573;  233,663; 9858,779;56,78799
 995,91; 5689,496;  246,356; 9744,163;57,30944
 996,45; 5646,419;  243,048; 9689,625;57,19925
 997,00; 5575,112;  218,125; 9582,010;57,20902
 997,55; 5576,265;  251,356; 9489,933;57,63777
 998,10; 5523,496;  269,433; 9388,933;57,61350
 998,65; 5508,881;  237,356; 9351,163;57,84108
 999,19; 5418,958;  263,510; 9219,625;57,56344
 999,74; 5394,035;  283,587; 9113,163;57,87874
1000,29; 5380,881;  254,356; 9071,317;58,14390
1000,84; 5267,419;  247,356; 8884,625;58,12096
1001,38; 5203,881;  251,510; 8792,087;57,98638
1001,93; 5190,419;  246,125; 8761,702;58,06176
1002,48; 5120,496;  226,971; 8619,087;58,31098
1003,03; 5123,265;  254,433; 8565,471;58,58272
1003,57; 5035,727;  255,279; 8497,317;58,00080
1004,12; 5033,419;  288,048; 8389,702;58,57287
1004,67; 4930,188;  238,202; 8254,087;58,53361
1005,22; 4866,112;  229,279; 8159,702;58,46892
1005,76; 4819,112;  218,279; 8040,548;58,81711
1006,31; 4806,881;  257,202; 7979,240;58,91811
1006,86; 4751,727;  234,740; 7830,087;59,47045
1007,40; 4653,419;  216,663; 7735,856;59,00575
1007,95; 4599,112;  239,663; 7658,625;58,76089
1008,50; 4536,496;  248,587; 7545,702;58,76171
1009,04; 4494,265;  236,048; 7434,240;59,15676
1009,59; 4403,188;  247,971; 7270,317;59,17135
1010,14; 4365,650;  228,279; 7237,087;59,03103
1010,68; 4280,342;  243,433; 7149,548;58,45413
1011,23; 4226,342;  227,587; 6996,548;59,07488
1011,78; 4189,573;  253,894; 6943,856;58,82962
1012,32; 4134,419;  272,125; 6822,394;58,96390
1012,87; 4145,958;  269,894; 6837,548;59,01747
1013,42; 4080,112;  225,048; 6690,702;59,62372
1013,96; 4068,727;  270,125; 6717,240;58,91940
1014,51; 3969,035;  207,817; 6585,163;58,97778
1015,06; 4010,265;  216,202; 6554,240;59,86179
1015,60; 4070,342;  275,817; 6607,087;59,93309
1016,15; 4011,342;  230,663; 6560,856;59,72455
1016,69; 4083,342;  237,202; 6614,856;60,30651
1017,24; 4076,804;  223,433; 6589,394;60,53086
1017,79; 4156,265;  277,510; 6636,317;60,99816
1018,33; 4125,881;  231,510; 6634,779;60,81848
1018,88; 4195,573;  251,971; 6665,548;61,48834
1019,42; 4221,496;  231,971; 6630,163;62,35394
1019,97; 4222,035;  227,894; 6621,625;62,46964
1020,51; 4261,342;  268,356; 6689,548;62,18450
1021,06; 4216,342;  227,125; 6628,625;62,31691
1021,61; 4218,342;  201,740; 6623,933;62,54254
1022,15; 4193,419;  188,510; 6586,702;62,59439
1022,70; 4238,804;  241,740; 6589,856;62,96457
1023,24; 4186,804;  217,971; 6503,702;63,14035
1023,79; 4144,958;  225,356; 6506,702;62,40067
1024,33; 4138,342;  217,817; 6428,010;63,13049
1024,88; 4116,342;  244,817; 6364,010;63,26856
1025,42; 4050,958;  249,971; 6247,702;63,37374
1025,97; 3975,188;  220,048; 6179,240;63,01425
1026,51; 3911,804;  200,894; 6035,548;63,60120
1027,06; 3907,650;  215,202; 5981,933;64,03018
1027,60; 3810,958;  244,817; 5897,933;63,08275
1028,15; 3767,188;  251,048; 5856,087;62,73178
1028,69; 3691,188;  192,587; 5682,548;63,72726
1029,24; 3649,342;  232,587; 5602,548;63,62719
1029,78; 3587,496;  219,510; 5551,394;63,16691
1030,33; 3529,727;  202,663; 5448,317;63,42514
1030,87; 3522,112;  224,894; 5380,548;63,95343
1031,42; 3475,496;  212,356; 5271,625;64,49826
1031,96; 3437,342;  241,971; 5232,625;64,02710
1032,51; 3374,650;  211,817; 5156,702;63,96171
1033,05; 3356,342;  237,048; 5132,702;63,71558
1033,60; 3242,727;  197,587; 4966,702;63,85126
1034,14; 3214,496;  215,894; 4919,394;63,75257
1034,69; 3188,265;  223,740; 4855,933;63,99831
1035,23; 3175,958;  216,894; 4821,702;64,26030
1035,77; 3111,650;  215,817; 4729,010;64,16373
1036,32; 3064,573;  192,433; 4662,702;64,24983
1036,86; 3049,342;  230,279; 4599,163;64,52593
1037,41; 3015,804;  239,740; 4541,240;64,53710
1037,95; 2921,112;  188,279; 4430,548;64,41912
1038,50; 2905,112;  213,202; 4401,317;64,27496
1039,04; 2912,650;  235,740; 4344,933;65,14442
1039,58; 2870,035;  199,433; 4289,856;65,28914
1040,13; 2833,188;  221,740; 4213,856;65,41515
1040,67; 2849,958;  252,817; 4231,010;65,28444
1041,21; 2799,573;  258,279; 4144,856;65,38644
1041,76; 2719,496;  204,202; 4034,163;65,67414
1042,30; 2710,188;  221,510; 4012,471;65,64769
1042,85; 2617,804;  215,894; 3952,856;64,27440
1043,39; 2594,573;  212,433; 3862,625;65,26068
1043,93; 2620,958;  241,817; 3872,087;65,53620
1044,48; 2536,342;  230,510; 3825,471;64,14068
1045,02; 2502,342;  219,202; 3715,933;65,29357
1045,56; 2521,958;  252,894; 3728,471;65,28595
1046,11; 2452,265;  228,433; 3609,087;65,78114
1046,65; 2433,573;  230,433; 3572,087;65,92964
1047,19; 2395,342;  218,279; 3512,625;66,08484
1047,74; 2347,265;  197,356; 3469,856;65,69624
1048,28; 2338,881;  223,048; 3423,317;66,11421
1048,82; 2344,265;  256,971; 3420,317;65,98374
1049,37; 2304,265;  241,048; 3322,471;66,95664
1049,91; 2285,265;  231,587; 3308,856;66,73705
1050,45; 2234,958;  233,740; 3246,240;66,43045
1050,99; 2194,035;  227,433; 3231,163;65,47198
1051,54; 2149,496;  214,125; 3142,625;66,08746
1052,08; 2156,342;  246,894; 3127,702;66,28169
1052,62; 2148,342;  247,433; 3097,240;66,70308
1053,16; 2105,496;  226,125; 3032,317;66,97229
1053,71; 2072,573;  234,663; 3025,163;65,86309
1054,25; 2051,265;  245,510; 2963,394;66,43975
1054,79; 2035,419;  242,894; 2893,010;67,63951
1055,33; 1959,804;  199,356; 2849,010;66,44068
1055,88; 1994,419;  246,202; 2846,779;67,22421
1056,42; 1972,342;  247,433; 2797,471;67,64249
1056,96; 1940,035;  244,817; 2790,317;66,59663
1057,50; 1919,573;  239,125; 2715,702;67,85366
1058,05; 1888,958;  236,587; 2651,240;68,43097
1058,59; 1886,112;  253,587; 2637,933;68,46846
1059,13; 1829,804;  218,510; 2573,163;68,43020
1059,67; 1832,342;  242,817; 2560,548;68,58109
1060,21; 1838,188;  237,125; 2497,933;70,81821
1060,76; 1787,188;  243,356; 2515,625;67,94233
1061,30; 1778,342;  256,202; 2489,779;68,14811
1061,84; 1734,958;  240,433; 2418,856;68,60582
1062,38; 1680,188;  219,587; 2340,163;68,87757
1062,92; 1753,265;  274,587; 2379,702;70,24218
1063,46; 1701,419;  249,663; 2320,471;70,10577
1064,01; 1627,958;  232,894; 2289,856;67,82156
1064,55; 1662,112;  235,279; 2254,625;70,65815
1065,09; 1598,881;  208,048; 2167,625;70,97617
1065,63; 1644,496;  259,971; 2212,163;70,92155
1066,17; 1639,650;  282,740; 2185,317;71,31957
1066,71; 1593,112;  260,048; 2159,702;70,17402
1067,25; 1555,958;  238,433; 2102,087;70,69580
1067,80; 1562,188;  252,587; 2086,240;71,42035
1068,34; 1569,958;  269,817; 2096,702;71,16708
1068,88; 1512,958;  242,279; 2011,702;71,81317
1069,42; 1499,265;  259,740; 2022,240;70,32766
1069,96; 1491,496;  246,587; 1975,548;72,00331
1070,50; 1510,804;  274,202; 1998,163;71,73025
1071,04; 1440,496;  228,817; 1931,394;71,16735
1071,58; 1432,419;  236,740; 1905,856;71,63548
1072,12; 1437,419;  235,894; 1914,548;71,57670
1072,66; 1411,035;  240,587; 1872,702;71,71356
1073,21; 1406,881;  250,356; 1855,779;72,03864
1073,75; 1384,265;  239,817; 1843,163;71,37873
1074,29; 1379,112;  238,740; 1820,010;72,11746
1074,83; 1364,573;  269,510; 1805,240;71,30569
1075,37; 1347,188;  263,433; 1800,010;70,53052
1075,91; 1325,419;  256,125; 1753,010;71,43465
1076,45; 1320,804;  244,894; 1728,548;72,51756
1076,99; 1300,650;  257,202; 1729,087;70,89198
1077,53; 1258,650;  235,433; 1662,548;71,69829
1078,07; 1264,727;  244,740; 1679,240;71,10398
1078,61; 1263,573;  249,587; 1643,087;72,76545
1079,15; 1235,419;  242,202; 1623,240;71,91815
1079,69; 1233,727;  239,279; 1606,240;72,74880
1080,23; 1252,804;  262,587; 1587,702;74,72687
1080,77; 1272,804;  302,971; 1626,625;73,26936
1081,31; 1195,496;  236,740; 1546,548;73,19821
1081,85; 1193,496;  268,510; 1558,625;71,69797
1082,39; 1179,188;  238,433; 1515,163;73,68474
1082,93; 1174,419;  249,125; 1515,087;73,09023
1083,47; 1146,727;  235,125; 1445,471;75,31746
1084,01; 1163,342;  253,740; 1488,317;73,67722
1084,55; 1123,265;  241,510; 1434,779;73,89412
1085,09; 1122,573;  256,587; 1444,933;72,87326
1085,63; 1103,881;  249,663; 1423,317;72,78273
1086,17; 1098,650;  228,663; 1396,317;74,50723
1086,71; 1073,804;  224,279; 1372,010;74,01779
1087,24; 1115,958;  261,663; 1402,163;74,90524
1087,78; 1093,342;  259,279; 1373,702;74,84262
1088,32; 1035,881;  230,971; 1326,625;73,46386
1088,86; 1050,958;  257,356; 1332,394;73,82079
1089,40; 1033,958;  250,587; 1322,548;73,07829
1089,94; 1010,804;  222,356; 1272,010;75,11506
1090,48; 1004,265;  262,125; 1279,933;72,91558
1091,02; 1026,112;  266,048; 1280,625;74,91433
1091,56;  979,881;  250,894; 1249,548;72,99692
1092,10;  975,188;  229,510; 1219,933;75,28892
1092,63; 1012,112;  268,048; 1259,625;75,03840
1093,17;  963,881;  251,510; 1227,779;72,96872
1093,71;  953,112;  231,356; 1181,625;75,95277
1094,25;  972,188;  269,663; 1208,779;74,80710
1094,79;  949,804;  239,663; 1163,548;76,86462
1095,33;  941,496;  256,048; 1162,163;75,64689
1095,87;  918,112;  246,433; 1143,087;74,90949
1096,40;  886,958;  235,048; 1108,856;74,60562
1096,94;  901,496;  242,279; 1113,240;75,68845
1097,48;  912,188;  260,433; 1126,625;75,24377
1098,02;  867,958;  237,663; 1066,856;76,01303
1098,56;  844,112;  216,202; 1053,010;75,03631
1099,10;  857,881;  216,971; 1052,317;76,72384
1099,63;  824,804;  223,433; 1027,779;74,76522
1100,17;  853,573;  251,510; 1050,856;75,31949
1100,71;  883,112;  265,740; 1058,779;77,84883

