
Integration time [ms]: 140,000
Averaging Nr. [scans]: 13
Smoothing Nr. [pixels]: 0
Data measured with spectrometer [name]: 2009305U1
Wave   ;Sample   ;Dark     ;Reference;Reflectance
[nm]   ;[counts] ;[counts] ;[counts] ;[%]

 175,72;  204,812;  198,885;  194,139; 0,00000
 176,32;  225,603;  212,577;  214,894;562,16654
 176,92;  259,138;  235,808;  244,072;282,29942
 177,52;  265,587;  242,038;  254,270;192,51638
 178,12;  233,542;  232,038;  214,800; 0,00000
 178,72;  257,722;  256,423;  239,900; 0,00000
 179,32;  257,133;  236,500;  245,616;226,34442
 179,92;  248,147;  240,192;  244,573;181,60266
 180,52;  248,394;  221,269;  247,993;101,50100
 181,12;  261,239;  239,115;  248,829;227,76129
 181,73;  275,296;  260,038;  272,399;123,43715
 182,33;  352,903;  313,423;  327,745;275,65344
 182,93;  280,169;  247,885;  257,773;326,48409
 183,53;  238,205;  238,115;  216,783; 0,00000
 184,13;  238,235;  237,731;  227,450; 0,00000
 184,73;  275,363;  250,500;  265,230;168,78925
 185,33;  278,627;  224,808;  337,380;47,80857
 185,93;  282,042;  222,192;  357,456;44,24662
 186,53;  301,201;  240,269;  368,442;47,53882
 187,13;  312,998;  264,269;  410,740;33,26854
 187,73;  285,364;  231,654;  360,523;41,67753
 188,33;  282,247;  235,038;  362,886;36,92600
 188,93;  302,680;  245,346;  364,048;48,30049
 189,53;  289,462;  247,423;  379,952;31,72044
 190,13;  333,912;  267,192;  399,816;50,30767
 190,73;  284,768;  217,115;  348,335;51,55672
 191,34;  308,862;  241,885;  382,405;47,66367
 191,94;  290,209;  238,885;  363,129;41,30930
 192,54;  294,228;  244,269;  382,672;36,09691
 193,14;  296,282;  258,423;  381,975;30,64233
 193,74;  302,261;  249,577;  378,895;40,73988
 194,34;  297,320;  246,115;  391,808;35,14545
 194,94;  264,633;  208,885;  348,554;39,91447
 195,54;  228,173;  211,962;  329,008;13,85021
 196,14;  259,725;  214,115;  355,392;32,28377
 196,74;  259,828;  219,269;  350,867;30,81989
 197,34;  243,565;  193,346;  344,458;33,23303
 197,94;  264,202;  227,500;  369,717;25,80736
 198,54;  272,870;  221,731;  381,114;32,08587
 199,14;  256,275;  198,423;  392,861;29,75346
 199,74;  236,770;  189,577;  384,358;24,22893
 200,34;  231,468;  185,269;  383,225;23,33808
 200,94;  277,124;  228,192;  430,230;24,21925
 201,54;  262,732;  204,885;  445,029;24,08856
 202,14;  279,582;  221,808;  459,331;24,32352
 202,74;  266,062;  211,577;  467,298;21,30649
 203,34;  249,059;  184,269;  506,588;20,10115
 203,94;  226,058;  161,731;  498,587;19,09639
 204,54;  288,500;  227,654;  568,369;17,85828
 205,14;  262,344;  197,500;  584,198;16,76852
 205,74;  302,914;  219,577;  676,516;18,23823
 206,34;  273,155;  191,731;  688,401;16,39398
 206,94;  277,577;  201,269;  739,114;14,18769
 207,54;  261,831;  169,808;  782,495;15,01965
 208,14;  279,598;  199,654;  878,083;11,78365
 208,74;  297,405;  199,269;  955,907;12,96992
 209,34;  301,239;  192,115; 1027,063;13,06956
 209,94;  316,933;  207,731; 1128,175;11,86404
 210,54;  327,030;  197,038; 1247,802;12,37114
 211,14;  324,019;  205,192; 1350,488;10,37520
 211,73;  347,512;  201,038; 1429,915;11,91927
 212,33;  370,552;  210,731; 1566,271;11,79023
 212,93;  345,875;  197,885; 1674,297;10,02368
 213,53;  348,361;  173,346; 1722,943;11,29424
 214,13;  367,367;  197,885; 1797,819;10,59311
 214,73;  368,812;  182,500; 1804,177;11,48887
 215,33;  357,086;  150,038; 1838,021;12,26600
 215,93;  395,522;  187,654; 1998,888;11,47663
 216,53;  382,723;  152,731; 2035,716;12,21421
 217,13;  457,978;  211,885; 2258,867;12,02227
 217,73;  468,436;  182,500; 2461,267;12,54784
 218,33;  459,741;  144,269; 2676,129;12,46007
 218,93;  541,949;  171,192; 2966,220;13,26485
 219,53;  587,390;  179,731; 3295,780;13,08256
 220,13;  588,547;  155,423; 3570,116;12,68414
 220,73;  669,308;  180,346; 3949,708;12,97200
 221,32;  733,174;  181,885; 4374,676;13,14850
 221,92;  799,284;  180,885; 4782,807;13,43784
 222,52;  850,298;  160,731; 5215,943;13,64072
 223,12;  922,784;  168,962; 5654,204;13,74274
 223,72;  969,818;  183,115; 6040,009;13,43208
 224,32; 1046,013;  184,115; 6387,058;13,89498
 224,92; 1061,227;  165,423; 6707,578;13,69279
 225,52; 1144,765;  193,808; 7079,458;13,81071
 226,12; 1185,167;  180,500; 7367,553;13,97884
 226,72; 1213,348;  158,577; 7643,073;14,09275
 227,31; 1274,870;  144,346; 8072,747;14,25916
 227,91; 1370,972;  183,038; 8400,077;14,45695
 228,51; 1428,216;  166,962; 8796,101;14,61623
 229,11; 1481,871;  166,346; 9149,705;14,64401
 229,71; 1530,286;  171,731; 9467,089;14,61542
 230,31; 1622,615;  162,269; 9866,529;15,04850
 230,91; 1660,667;  156,346;10119,172;15,09934
 231,51; 1694,496;  160,115;10463,788;14,89159
 232,10; 1787,527;  167,423;10748,070;15,31195
 232,70; 1843,397;  170,731;10896,423;15,59494
 233,30; 1910,344;  188,038;11097,703;15,78697
 233,90; 1945,558;  170,808;11212,685;16,07290
 234,50; 1983,488;  167,192;11365,048;16,22003
 235,10; 2012,381;  170,962;11313,117;16,52660
 235,70; 2068,776;  184,346;11380,379;16,83123
 236,29; 2068,944;  184,731;11221,557;17,07206
 236,89; 2055,948;  156,346;11176,730;17,23717
 237,49; 2085,235;  184,731;11057,044;17,48022
 238,09; 2061,232;  171,346;10711,017;17,93116
 238,69; 2060,605;  200,962;10453,966;18,13754
 239,29; 1987,524;  176,808;10203,068;18,05974
 239,89; 1977,042;  185,885; 9735,825;18,75569
 240,48; 1916,984;  170,500; 9401,768;18,91922
 241,08; 1884,791;  168,500; 9000,173;19,43336
 241,68; 1873,769;  183,269; 8756,597;19,71813
 242,28; 1804,636;  163,192; 8416,797;19,88760
 242,88; 1818,555;  200,038; 8101,316;20,48424
 243,48; 1795,817;  198,192; 7858,316;20,85638
 244,07; 1743,494;  191,038; 7637,367;20,84860
 244,67; 1749,204;  186,654; 7467,463;21,46121
 245,27; 1739,050;  195,885; 7301,300;21,71816
 245,87; 1744,002;  201,885; 7239,829;21,91147
 246,47; 1752,836;  183,423; 7237,856;22,24719
 247,06; 1746,208;  173,346; 7239,251;22,25988
 247,66; 1799,350;  175,962; 7345,911;22,64156
 248,26; 1842,843;  206,269; 7426,757;22,66569
 248,86; 1922,211;  191,654; 7645,928;23,21564
 249,46; 1944,078;  146,577; 7907,598;23,16062
 250,05; 2069,070;  190,269; 8311,619;23,13410
 250,65; 2148,727;  153,423; 8633,197;23,53016
 251,25; 2296,886;  171,962; 9141,457;23,69057
 251,85; 2438,555;  170,885; 9627,836;23,97887
 252,44; 2602,772;  144,808;10290,197;24,22741
 253,04; 2815,539;  191,269;11056,016;24,15399
 253,64; 2971,012;  139,962;11781,817;24,31786
 254,24; 3261,421;  194,731;12753,506;24,41871
 254,84; 3502,232;  171,346;13701,290;24,61862
 255,43; 3787,617;  182,346;14745,393;24,75630
 256,03; 4074,113;  180,423;15726,694;25,04581
 256,63; 4376,162;  172,577;16777,635;25,31509
 257,23; 4600,238;  156,423;17678,524;25,36120
 257,82; 4929,111;  182,115;18683,692;25,65725
 258,42; 5118,912;  144,577;19470,350;25,73938
 259,02; 5391,958;  188,654;20408,779;25,73329
 259,62; 5645,812;  166,731;21227,235;26,01591
 260,21; 5855,319;  173,577;21700,167;26,39406
 260,81; 5999,484;  171,423;22238,712;26,41041
 261,41; 6167,498;  151,577;22766,146;26,60197
 262,01; 6358,928;  212,423;23282,445;26,64282
 262,60; 6449,699;  165,192;23627,754;26,78525
 263,20; 6598,392;  171,654;23933,216;27,04678
 263,80; 6697,655;  202,346;24178,746;27,09043
 264,40; 6756,020;  162,885;24506,470;27,08366
 264,99; 6789,323;  185,192;24597,638;27,05231
 265,59; 6879,466;  169,962;24750,016;27,29654
 266,19; 6924,150;  169,423;24877,551;27,33808
 266,78; 6993,423;  199,654;25111,361;27,27139
 267,38; 6995,180;  192,038;25081,439;27,33349
 267,98; 6963,106;  170,654;25055,971;27,29502
 268,58; 6999,856;  189,115;25099,729;27,34072
 269,17; 6967,414;  164,269;25101,731;27,28082
 269,77; 6906,644;  183,192;24914,407;27,18610
 270,37; 6866,742;  159,115;24814,247;27,20580
 270,96; 6841,718;  202,115;24738,414;27,06033
 271,56; 6705,068;  174,885;24422,386;26,93137
 272,16; 6650,405;  173,577;24236,163;26,91659
 272,75; 6625,019;  181,962;24253,436;26,76636
 273,35; 6546,982;  182,346;24217,954;26,48003
 273,95; 6489,746;  183,962;24113,241;26,35175
 274,54; 6461,182;  160,500;24177,459;26,23430
 275,14; 6593,964;  184,038;24551,286;26,30550
 275,74; 6505,815;  151,115;24636,228;25,95332
 276,33; 6638,311;  192,808;25057,265;25,92256
 276,93; 6710,897;  182,962;25419,497;25,86700
 277,53; 6769,901;  172,731;25939,208;25,60369
 278,12; 6883,381;  157,808;26549,484;25,48369
 278,72; 7077,483;  197,423;27036,823;25,63418
 279,32; 7196,143;  176,500;27638,360;25,56143
 279,91; 7284,505;  153,038;28385,629;25,25970
 280,51; 7494,344;  177,269;28964,002;25,41822
 281,11; 7650,796;  175,346;29611,535;25,39544
 281,70; 7781,353;  154,346;30149,776;25,42723
 282,30; 7892,145;  164,654;30724,079;25,28677
 282,90; 8034,735;  164,038;31099,244;25,44252
 283,49; 8216,554;  191,038;31658,220;25,50440
 284,09; 8413,115;  197,346;32141,071;25,71951
 284,69; 8535,468;  197,962;32410,566;25,88275
 285,28; 8667,389;  192,731;32713,804;26,05897
 285,88; 8818,995;  216,885;33022,175;26,22172
 286,47; 8857,778;  175,885;33040,747;26,41695
 287,07; 8997,340;  203,115;33209,939;26,64366
 287,67; 9176,586;  191,731;33227,393;27,19744
 288,26; 9236,058;  168,731;33261,270;27,39991
 288,86; 9437,832;  174,192;33178,675;28,06782
 289,46; 9643,496;  175,038;33425,470;28,47619
 290,05; 9889,621;  165,346;33465,267;29,20210
 290,65;10140,566;  181,423;33691,372;29,71996
 291,24;10325,073;  179,885;33790,296;30,18466
 291,84;10674,854;  195,192;33940,866;31,05483
 292,44;10886,183;  177,577;34099,844;31,56807
 293,03;11135,296;  233,962;34218,710;32,07714
 293,63;11294,564;  175,192;34392,765;32,49609
 294,22;11602,189;  204,500;34567,197;33,16878
 294,82;11739,233;  178,654;34475,494;33,70742
 295,41;11735,122;  157,038;34206,853;34,00337
 296,01;11857,168;  212,346;34142,416;34,32006
 296,61;11900,724;  188,192;33924,443;34,71794
 297,20;11872,277;  186,808;33479,263;35,09945
 297,80;11881,327;  193,885;33355,335;35,24406
 298,39;11808,170;  165,346;32937,221;35,52688
 298,99;11839,197;  182,577;32776,047;35,76367
 299,58;11793,939;  183,731;32564,734;35,85500
 300,18;11786,543;  210,038;32367,463;35,99948
 300,78;11658,634;  168,500;32039,565;36,05193
 301,37;11711,590;  190,808;32069,394;36,13957
 301,97;11773,633;  184,731;32099,529;36,31200
 302,56;11798,455;  173,577;32028,071;36,49368
 303,16;11753,347;  169,500;32023,062;36,36594
 303,75;11875,350;  186,577;32042,022;36,69317
 304,35;11995,280;  166,038;32181,044;36,94905
 304,94;12008,153;  179,808;32172,938;36,97152
 305,54;12078,789;  200,577;32176,138;37,14778
 306,13;12077,818;  148,192;32032,317;37,41557
 306,73;11994,850;  158,731;31845,702;37,35327
 307,33;12100,886;  197,038;31844,380;37,61405
 307,92;12130,313;  181,423;31842,574;37,73991
 308,52;12404,425;  162,269;32376,636;38,00216
 309,11;12615,819;  177,962;32817,982;38,10616
 309,71;12822,167;  167,038;33109,877;38,41542
 310,30;12960,775;  159,731;33236,224;38,70133
 310,90;13185,083;  185,500;33657,455;38,83724
 311,49;13325,144;  171,423;33826,856;39,08350
 312,09;13404,637;  152,654;34043,096;39,10242
 312,68;13692,131;  212,115;34361,328;39,47387
 313,28;13862,082;  160,192;34513,882;39,88477
 313,87;13951,015;  151,115;34608,998;40,04860
 314,47;14184,440;  168,577;34826,849;40,44017
 315,06;14254,355;  154,654;35044,811;40,41169
 315,66;14462,252;  163,500;35269,404;40,73034
 316,25;14510,747;  150,808;34996,738;41,20980
 316,85;14630,141;  144,115;35097,641;41,44367
 317,44;14813,365;  166,269;35279,072;41,71440
 318,04;14855,598;  153,500;35247,416;41,89358
 318,63;14883,243;  147,192;35260,288;41,96739
 319,22;15115,062;  171,654;35497,982;42,30105
 319,82;15319,338;  167,192;35447,366;42,94805
 320,41;15328,446;  181,808;35402,101;43,00543
 321,01;15466,972;  178,269;35423,385;43,37822
 321,60;15568,859;  172,577;35509,159;43,57038
 322,20;15633,756;  168,269;35551,521;43,70850
 322,79;15832,209;  194,500;35612,551;44,15181
 323,39;15952,684;  165,269;35640,824;44,50223
 323,98;15940,481;  162,423;35611,523;44,50905
 324,58;16032,202;  159,731;35507,991;44,90312
 325,17;16124,276;  164,423;35274,887;45,45612
 325,76;16144,195;  193,808;35144,329;45,63705
 326,36;16060,639;  146,731;34762,320;45,97324
 326,95;16055,704;  186,577;34398,048;46,38540
 327,55;15957,826;  156,577;34057,004;46,61077
 328,14;15889,591;  150,885;33691,567;46,92423
 328,74;15834,728;  194,962;33252,112;47,31130
 329,33;15731,434;  180,654;32756,420;47,73727
 329,92;15565,493;  156,346;32223,853;48,05221
 330,52;15400,137;  177,808;31630,810;48,39706
 331,11;15278,021;  169,577;31175,745;48,72722
 331,71;15085,043;  173,808;30580,399;49,03949
 332,30;15021,384;  191,500;30132,092;49,53103
 332,89;14855,342;  211,808;29601,975;49,82460
 333,49;14658,866;  180,577;29070,403;50,11553
 334,08;14480,125;  173,654;28700,572;50,15078
 334,68;14370,535;  169,962;28175,868;50,70564
 335,27;14346,263;  184,885;27899,410;51,09731
 335,86;14282,175;  210,192;27655,591;51,27265
 336,46;14253,322;  193,115;27396,127;51,68621
 337,05;14249,312;  164,731;27230,573;52,03821
 337,65;14266,697;  162,731;27034,608;52,48597
 338,24;14361,379;  218,962;27080,226;52,64986
 338,83;14425,891;  198,885;26935,049;53,21259
 339,43;14483,037;  161,731;26876,070;53,60906
 340,02;14525,364;  161,038;26844,927;53,83145
 340,61;14641,654;  165,038;26857,687;54,23447
 341,21;14752,575;  199,500;26897,728;54,50952
 341,80;14863,108;  168,192;26766,016;55,24857
 342,40;14994,803;  178,808;26944,325;55,35479
 342,99;15105,188;  169,115;27100,513;55,45970
 343,58;15288,588;  166,962;27219,650;55,89695
 344,18;15544,698;  182,423;27366,421;56,51220
 344,77;15780,800;  154,500;27598,630;56,93859
 345,36;15962,396;  156,885;28008,355;56,74929
 345,96;16310,913;  199,731;28273,361;57,38902
 346,55;16535,435;  156,885;28512,771;57,76067
 347,14;16808,751;  159,654;28927,314;57,87435
 347,74;17141,909;  142,269;29353,274;58,19601
 348,33;17582,270;  166,577;29983,124;58,40949
 348,92;18070,739;  181,423;30668,026;58,67927
 349,52;18320,769;  144,808;31141,726;58,63796
 350,11;18579,382;  162,269;31290,860;59,16462
 350,70;18719,629;  168,808;31340,391;59,51196
 351,29;18756,406;  154,731;31139,804;60,03431
 351,89;18831,195;  182,885;31082,858;60,35057
 352,48;18971,988;  150,962;31065,171;60,88147
 353,07;19010,852;  178,192;31061,464;60,98013
 353,67;18975,780;  187,962;31072,844;60,83176
 354,26;18891,606;  178,192;30734,438;61,24252
 354,85;18978,166;  172,038;30678,630;61,64611
 355,45;18883,751;  145,115;30396,381;61,94331
 356,04;18924,115;  168,192;30312,157;62,22115
 356,63;18880,302;  202,885;30175,072;62,31583
 357,22;18884,178;  173,731;29950,105;62,83655
 357,82;18799,567;  178,423;29870,287;62,71463
 358,41;18784,513;  190,500;29675,411;63,06281
 359,00;18778,584;  167,577;29525,425;63,39363
 359,60;18831,063;  189,577;29497,410;63,60582
 360,19;18708,336;  181,346;29239,656;63,75797
 360,78;18731,681;  186,808;29153,513;64,02134
 361,37;18722,253;  182,423;28860,857;64,64729
 361,97;18687,180;  183,577;28806,611;64,64585
 362,56;18495,340;  157,269;28486,469;64,73205
 363,15;18455,989;  206,423;28210,625;65,16724
 363,74;18273,174;  170,731;27883,625;65,32138
 364,34;18130,388;  198,192;27509,034;65,65962
 364,93;17852,060;  159,192;27082,604;65,71555
 365,52;17609,406;  152,577;26680,822;65,80469
 366,11;17455,592;  172,808;26402,780;65,88945
 366,71;17230,139;  158,423;25936,443;66,22586
 367,30;17069,533;  172,731;25597,107;66,45907
 367,89;16935,124;  203,500;25423,854;66,34175
 368,48;16749,780;  192,192;25166,158;66,29939
 369,07;16470,936;  179,962;24689,775;66,46715
 369,67;16288,855;  180,346;24427,088;66,43577
 370,26;16100,004;  169,346;24088,847;66,60113
 370,85;15981,013;  180,654;23843,928;66,77165
 371,44;15830,591;  176,808;23599,019;66,83307
 372,03;15719,550;  147,500;23372,697;67,04809
 372,63;15502,746;  150,808;23094,439;66,91155
 373,22;15316,613;  166,654;22806,023;66,91865
 373,81;15126,850;  141,192;22460,112;67,14330
 374,40;15011,523;  168,962;22231,229;67,27577
 374,99;14843,870;  163,423;21964,388;67,33852
 375,59;14603,105;  160,423;21639,921;67,23939
 376,18;14645,638;  195,808;21552,968;67,65801
 376,77;14451,462;  183,885;21385,665;67,29424
 377,36;14478,987;  198,423;21377,171;67,42875
 377,95;14240,668;  177,192;21035,822;67,42282
 378,55;14210,357;  164,577;20844,385;67,92026
 379,14;14083,517;  180,885;20816,046;67,37351
 379,73;14018,659;  173,192;20742,202;67,31227
 380,32;14045,650;  179,808;20758,659;67,37909
 380,91;13968,104;  163,731;20626,987;67,45932
 381,50;13980,297;  178,808;20542,120;67,77625
 382,10;13896,881;  158,269;20457,428;67,68070
 382,69;13835,723;  155,115;20419,596;67,51028
 383,28;13829,526;  190,654;20370,974;67,58501
 383,87;13696,509;  166,962;20289,495;67,23581
 384,46;13679,950;  163,038;20098,329;67,80394
 385,05;13642,212;  191,962;20229,150;67,12644
 385,64;13718,208;  171,962;20169,242;67,74044
 386,24;13598,037;  161,346;20096,796;67,40099
 386,83;13670,568;  183,038;20207,818;67,35420
 387,42;13722,429;  189,808;20262,314;67,41870
 388,01;13866,606;  180,577;20564,026;67,14285
 388,60;14042,880;  172,577;20826,076;67,15716
 389,19;14125,485;  160,346;20959,788;67,14190
 389,78;14285,789;  170,115;21232,880;67,01720
 390,37;14600,120;  216,731;21729,423;66,86002
 390,96;14652,439;  177,808;21820,464;66,88011
 391,56;14769,670;  172,346;21984,215;66,92377
 392,15;14908,872;  167,192;22264,900;66,71135
 392,74;14996,504;  151,962;22434,173;66,62060
 393,33;15252,647;  159,192;22691,681;66,98530
 393,92;15491,404;  178,962;23182,903;66,56443
 394,51;15584,434;  164,192;23298,502;66,65529
 395,10;15723,820;  203,192;23474,279;66,69490
 395,69;15795,208;  182,423;23640,999;66,55470
 396,28;15825,951;  193,192;23718,659;66,45037
 396,87;15927,664;  196,962;23793,576;66,66508
 397,46;15911,230;  192,808;23921,394;66,24256
 398,06;16031,562;  199,577;24191,723;65,98820
 398,65;16102,771;  194,962;24250,735;66,12886
 399,24;16207,474;  200,269;24425,885;66,07553
 399,83;16233,729;  177,192;24481,033;66,06584
 400,42;16355,957;  213,654;24594,354;66,20935
 401,01;16342,650;  189,962;24687,506;65,93595
 401,60;16351,331;  198,423;24757,495;65,77165
 402,19;16309,671;  224,192;24675,494;65,78578
 402,78;16267,480;  233,346;24669,751;65,61577
 403,37;16145,334;  219,192;24545,357;65,46918
 403,96;16022,903;  210,500;24369,797;65,45059
 404,55;16035,763;  227,423;24315,474;65,62731
 405,14;15890,035;  200,885;24176,646;65,43755
 405,73;15801,257;  221,038;24017,900;65,47174
 406,32;15787,956;  224,500;23938,473;65,62990
 406,91;15546,795;  223,731;23678,165;65,33120
 407,50;15473,084;  217,885;23458,314;65,64078
 408,09;15323,718;  208,423;23197,340;65,75036
 408,68;15195,807;  221,269;23125,012;65,38031
 409,27;15045,664;  200,192;22901,995;65,39336
 409,86;14897,380;  204,962;22684,541;65,35895
 410,45;14826,155;  252,500;22717,906;64,87154
 411,04;14703,963;  248,192;22594,854;64,68873
 411,63;14500,057;  239,500;22354,466;64,48374
 412,22;14296,044;  244,808;22046,718;64,44956
 412,81;14174,414;  244,038;21829,481;64,53597
 413,40;13850,814;  249,885;21506,218;63,98530
 413,99;13640,300;  293,654;21279,086;63,59958
 414,58;13391,982;  228,731;20860,935;63,79954
 415,17;13235,524;  228,038;20574,901;63,92870
 415,76;12991,091;  230,269;20479,744;63,01804
 416,35;12914,375;  208,115;20292,758;63,26356
 416,94;12854,423;  257,038;20381,895;62,59614
 417,53;13010,957;  240,038;20620,005;62,66408
 418,12;13030,638;  229,038;20699,315;62,53750
 418,71;13238,086;  258,654;21009,266;62,54963
 419,30;13316,506;  239,038;21115,781;62,64132
 419,89;13290,394;  225,115;21325,907;61,91843
 420,48;13530,282;  256,038;21608,811;62,16637
 421,07;13540,145;  246,500;21657,564;62,08774
 421,66;13523,309;  213,654;21694,041;61,96190
 422,25;13498,990;  230,731;21640,523;61,97285
 422,84;13477,749;  260,346;21648,714;61,79716
 423,43;13259,479;  246,577;21326,230;61,73205
 424,02;13074,342;  262,423;21026,906;61,70112
 424,60;12752,406;  233,885;20579,320;61,52988
 425,19;12602,383;  240,269;20367,811;61,41890
 425,78;12517,004;  253,500;20225,370;61,40389
 426,37;12385,352;  268,500;20185,854;60,83565
 426,96;12250,463;  241,577;20030,582;60,68464
 427,55;12140,004;  226,500;19881,046;60,61450
 428,14;12005,016;  216,115;19635,934;60,70552
 428,73;11872,427;  243,346;19428,255;60,61577
 429,32;11887,415;  253,808;19467,248;60,54932
 429,91;11858,545;  268,500;19446,765;60,43323
 430,50;11716,896;  264,654;19259,311;60,29191
 431,08;11534,769;  275,038;19128,378;59,72274
 431,67;11539,182;  307,577;19098,864;59,77028
 432,26;11366,057;  330,192;18834,846;59,63832
 432,85;11151,087;  345,115;18517,623;59,46329
 433,44;10900,074;  353,038;18154,677;59,24756
 434,03;10703,806;  366,654;17737,743;59,50780
 434,62;10401,585;  315,731;17372,696;59,13042
 435,21;10250,443;  332,808;17199,685;58,79948
 435,79;10162,655;  338,423;17040,077;58,82191
 436,38;10032,789;  330,731;16915,580;58,49953
 436,97; 9949,640;  326,423;16833,796;58,29648
 437,56; 9792,042;  324,115;16596,252;58,18490
 438,15; 9747,489;  302,269;16520,645;58,23777
 438,74; 9740,673;  317,038;16594,542;57,89361
 439,33; 9746,841;  282,269;16637,952;57,86718
 439,91; 9660,566;  251,423;16603,577;57,54069
 440,50; 9673,872;  304,500;16674,662;57,23445
 441,09; 9699,668;  296,962;16796,960;56,98611
 441,68; 9656,618;  275,885;16823,839;56,68818
 442,27; 9671,646;  270,192;16806,084;56,85483
 442,86; 9615,585;  247,885;16803,744;56,58238
 443,44; 9642,817;  264,808;16870,232;56,47558
 444,03; 9680,361;  305,808;16863,372;56,61795
 444,62; 9558,968;  261,808;16724,325;56,47472
 445,21; 9390,539;  279,654;16509,095;56,13801
 445,80; 9336,057;  297,423;16452,409;55,94950
 446,39; 9227,737;  311,577;16239,180;55,97930
 446,97; 9010,935;  260,885;16007,154;55,56904
 447,56; 8922,475;  249,346;15756,045;55,93150
 448,15; 8764,278;  268,962;15634,610;55,28772
 448,74; 8612,369;  283,577;15353,447;55,26784
 449,33; 8482,352;  275,423;15234,745;54,86163
 449,91; 8374,221;  275,731;14981,562;55,06992
 450,50; 8208,457;  259,038;14769,309;54,78477
 451,09; 8178,343;  283,962;14666,365;54,88916
 451,68; 8048,186;  304,423;14631,535;54,04971
 452,26; 7980,558;  286,885;14510,161;54,09213
 452,85; 7938,036;  275,423;14440,024;54,09692
 453,44; 7923,639;  290,038;14420,890;54,02081
 454,03; 7880,738;  270,962;14396,457;53,87263
 454,61; 7830,696;  257,962;14329,230;53,81700
 455,20; 7924,085;  300,577;14583,181;53,37618
 455,79; 7871,527;  292,731;14596,204;52,98570
 456,38; 7912,791;  292,885;14623,027;53,17398
 456,97; 7901,216;  282,962;14682,383;52,90667
 457,55; 7865,337;  275,423;14642,160;52,82977
 458,14; 7870,127;  304,192;14650,077;52,73941
 458,73; 7758,163;  290,500;14569,499;52,29823
 459,31; 7839,910;  326,654;14623,436;52,55208
 459,90; 7809,606;  315,038;14745,224;51,93674
 460,49; 7885,117;  344,654;14814,739;52,11071
 461,08; 7848,351;  276,115;14869,819;51,88701
 461,66; 7867,518;  288,500;15002,885;51,50754
 462,25; 7886,324;  292,346;15087,958;51,32588
 462,84; 7899,408;  318,269;15062,158;51,41886
 463,43; 7795,033;  260,192;15007,447;51,09318
 464,01; 7839,988;  298,500;15034,302;51,17800
 464,60; 7845,726;  328,500;14994,096;51,25756
 465,19; 7679,289;  270,423;14778,213;51,06819
 465,77; 7636,892;  291,269;14693,454;51,00353
 466,36; 7594,965;  316,500;14609,032;50,92495
 466,95; 7424,355;  295,269;14254,822;51,06959
 467,53; 7266,776;  293,731;13964,023;51,00875
 468,12; 7096,208;  327,115;13707,665;50,58905
 468,71; 6973,825;  303,423;13520,801;50,46691
 469,29; 6803,461;  289,192;13215,549;50,39524
 469,88; 6653,118;  285,731;12971,948;50,19137
 470,47; 6730,567;  344,192;13156,156;49,84696
 471,06; 6674,352;  293,423;13102,523;49,81559
 471,64; 6686,478;  311,038;13185,542;49,51988
 472,23; 6674,016;  276,269;13233,945;49,37419
 472,81; 6710,797;  292,808;13358,857;49,11959
 473,40; 6749,930;  285,038;13534,247;48,79455
 473,99; 6852,793;  372,500;13625,112;48,89823
 474,57; 6863,068;  296,346;13821,726;48,55111
 475,16; 6926,459;  300,269;13958,618;48,51384
 475,75; 6928,189;  318,885;14022,272;48,23117
 476,33; 7019,462;  321,192;14161,476;48,39691
 476,92; 7019,695;  332,115;14214,263;48,17396
 477,51; 7010,931;  320,038;14247,446;48,04120
 478,09; 6998,965;  330,038;14237,712;47,95142
 478,68; 6950,651;  321,192;14190,008;47,80119
 479,27; 7008,273;  339,038;14340,592;47,63210
 479,85; 6896,182;  324,654;14312,072;46,98171
 480,44; 6955,071;  309,192;14442,464;47,02293
 481,02; 7641,389;  313,962;16237,470;46,01642
 481,61; 8506,875;  334,577;18065,654;46,09025
 482,20; 9043,970;  346,192;19261,169;45,98355
 482,78; 9391,279;  370,269;20017,502;45,91491
 483,37; 9623,306;  364,577;20535,348;45,90171
 483,95; 9764,892;  374,038;20726,878;46,14026
 484,54; 9775,433;  385,115;20918,545;45,73185
 485,13; 9692,531;  348,346;20788,995;45,71374
 485,71; 9637,153;  351,962;20577,622;45,90798
 486,30; 9465,572;  372,885;20234,658;45,77983
 486,88; 9295,891;  402,346;19772,426;45,91383
 487,47; 8970,903;  403,500;19052,270;45,94085
 488,05; 8526,416;  365,808;18095,940;46,02678
 488,64; 7930,784;  367,269;16734,931;46,21011
 489,23; 7095,933;  387,115;14659,210;47,00654
 489,81; 6115,116;  387,500;12725,996;46,42070
 490,40; 5803,788;  346,654;12241,916;45,87653
 490,98; 5686,917;  328,654;12004,774;45,89078
 491,57; 5614,657;  365,654;11997,638;45,12561
 492,15; 5580,000;  334,654;11876,102;45,44790
 492,74; 5487,620;  339,192;11739,805;45,15922
 493,32; 5481,030;  347,808;11723,726;45,12358
 493,91; 5397,145;  321,654;11586,405;45,05639
 494,50; 5361,559;  336,500;11527,354;44,90326
 495,08; 5312,056;  314,654;11498,998;44,68212
 495,67; 5313,164;  345,962;11453,143;44,72064
 496,25; 5197,156;  285,038;11338,258;44,44060
 496,84; 5214,516;  299,808;11302,603;44,66782
 497,42; 5165,021;  296,192;11254,423;44,43080
 498,01; 5141,444;  323,269;11204,050;44,28152
 498,59; 5030,617;  284,346;11152,763;43,67031
 499,18; 5057,527;  290,038;11067,644;44,23514
 499,76; 4988,275;  300,423;11015,880;43,74850
 500,35; 4878,021;  297,654;10782,586;43,68524
 500,93; 4834,544;  290,269;10803,209;43,22554
 501,52; 4796,960;  293,038;10691,218;43,31452
 502,10; 4759,308;  293,885;10684,011;42,97757
 502,69; 4662,537;  282,731;10497,599;42,87677
 503,27; 4570,805;  264,423;10357,876;42,66511
 503,86; 4556,404;  286,731;10238,483;42,90374
 504,44; 4434,984;  267,654;10168,421;42,09098
 505,03; 4310,146;  251,500; 9868,622;42,20230
 505,61; 4293,877;  272,654; 9744,293;42,45541
 506,19; 4163,147;  289,500; 9634,888;41,44983
 506,78; 4060,184;  249,731; 9435,422;41,48249
 507,36; 3984,011;  269,115; 9220,863;41,49911
 507,95; 3933,747;  275,885; 9106,111;41,42433
 508,53; 3866,980;  262,423; 9018,291;41,16733
 509,12; 3777,853;  271,885; 8835,469;40,94043
 509,70; 3763,890;  288,192; 8699,609;41,32120
 510,29; 3684,153;  292,654; 8553,080;41,05719
 510,87; 3572,194;  253,269; 8342,965;41,02657
 511,46; 3494,112;  267,885; 8182,792;40,76140
 512,04; 3456,510;  267,192; 8088,826;40,77560
 512,62; 3381,530;  270,962; 7935,905;40,58176
 513,21; 3291,400;  250,962; 7716,140;40,72827
 513,79; 3221,835;  266,654; 7617,093;40,20415
 514,38; 3157,044;  242,423; 7468,781;40,33319
 514,96; 3144,798;  287,577; 7364,448;40,37407
 515,54; 3054,859;  240,731; 7239,431;40,20930
 516,13; 3035,822;  264,885; 7121,291;40,41385
 516,71; 2964,731;  257,423; 7055,155;39,82663
 517,30; 2876,958;  241,500; 6876,059;39,72318
 517,88; 2883,574;  270,885; 6839,248;39,77687
 518,46; 2765,927;  252,192; 6701,170;38,97880
 519,05; 2795,182;  250,115; 6656,705;39,72575
 519,63; 2719,153;  261,269; 6602,304;38,76155
 520,22; 2714,764;  278,885; 6527,944;38,97993
 520,80; 2660,232;  262,038; 6453,768;38,73221
 521,38; 2669,487;  286,500; 6409,559;38,91825
 521,97; 2599,102;  254,731; 6418,688;38,03355
 522,55; 2607,461;  277,808; 6375,545;38,20521
 523,13; 2562,163;  254,038; 6394,209;37,59056
 523,72; 2537,774;  255,808; 6373,128;37,30336
 524,30; 2600,436;  283,962; 6483,181;37,36719
 524,89; 2561,032;  248,500; 6512,512;36,91774
 525,47; 2591,013;  265,192; 6650,126;36,42670
 526,05; 2563,215;  240,269; 6681,649;36,06287
 526,64; 2610,089;  278,346; 6804,861;35,72723
 527,22; 2606,201;  277,423; 6939,889;34,95370
 527,80; 2655,065;  308,269; 7078,907;34,66137
 528,39; 2621,322;  260,654; 7158,435;34,22359
 528,97; 2666,668;  276,731; 7323,336;33,91615
 529,55; 2703,334;  281,346; 7490,150;33,59764
 530,14; 2748,923;  287,808; 7755,564;32,95656
 530,72; 2766,702;  275,192; 7793,834;33,13776
 531,30; 2750,776;  247,192; 7946,773;32,51584
 531,89; 2787,067;  275,500; 8033,216;32,37508
 532,47; 2831,796;  297,423; 8136,818;32,32868
 533,05; 2820,493;  286,808; 8142,718;32,25196
 533,63; 2819,870;  295,269; 8185,637;31,99599
 534,22; 2826,357;  281,962; 8260,549;31,89030
 534,80; 2858,231;  303,038; 8357,574;31,72365
 535,38; 2935,808;  371,269; 8428,816;31,82778
 535,97; 2832,078;  271,500; 8438,180;31,35396
 536,55; 2885,862;  335,500; 8436,984;31,48018
 537,13; 2867,751;  337,962; 8424,050;31,28571
 537,71; 2900,206;  398,115; 8497,302;30,89311
 538,30; 2925,480;  405,038; 8573,814;30,85458
 538,88; 2942,295;  456,269; 8638,626;30,38276
 539,46; 3041,360;  504,423; 8857,816;30,37014
 540,05; 3046,274;  515,731; 9022,196;29,74847
 540,63; 3089,026;  579,038; 9196,528;29,12666
 541,21; 3132,521;  607,192; 9335,299;28,93329
 541,79; 3182,735;  625,577; 9481,666;28,87457
 542,38; 3233,729;  669,500; 9671,679;28,48454
 542,96; 3236,705;  683,731; 9754,889;28,14387
 543,54; 3303,369;  709,808;10000,676;27,91516
 544,12; 3295,954;  663,962;10109,591;27,86466
 544,70; 3273,961;  647,346;10233,843;27,39911
 545,29; 3366,541;  651,115;10370,917;27,93705
 545,87; 3337,273;  614,500;10354,743;27,95385
 546,45; 3291,115;  582,038;10386,253;27,63175
 547,03; 3279,731;  558,654;10467,715;27,46050
 547,62; 3284,716;  530,962;10653,348;27,20460
 548,20; 3353,015;  538,115;10779,728;27,48493
 548,78; 3317,267;  486,423;10925,398;27,11802
 549,36; 3337,184;  453,962;11155,455;26,94225
 549,94; 3340,344;  422,346;11245,765;26,96004
 550,53; 3338,788;  424,885;11498,226;26,31458
 551,11; 3361,731;  394,577;11672,315;26,30983
 551,69; 3406,117;  396,115;11948,922;26,05429
 552,27; 3403,871;  365,038;12236,161;25,59853
 552,85; 3474,236;  377,423;12632,125;25,27040
 553,44; 3510,382;  353,346;12964,685;25,03331
 554,02; 3568,625;  376,269;13292,914;24,71506
 554,60; 3548,729;  322,885;13590,015;24,31456
 555,18; 3619,860;  353,038;13980,822;23,97177
 555,76; 3684,018;  330,654;14322,884;23,96590
 556,34; 3745,786;  341,885;14749,859;23,62512
 556,93; 3799,483;  336,885;15172,681;23,33948
 557,51; 3841,144;  322,192;15452,758;23,25724
 558,09; 3901,226;  341,731;15818,308;22,99924
 558,67; 3968,887;  333,577;16272,778;22,80736
 559,25; 3986,294;  342,346;16498,620;22,55439
 559,83; 4037,717;  321,346;16792,069;22,56350
 560,41; 4077,713;  321,654;17089,920;22,39981
 561,00; 4133,443;  324,808;17544,950;22,11733
 561,58; 4162,552;  325,115;17802,215;21,95694
 562,16; 4212,679;  310,808;18089,765;21,94657
 562,74; 4204,650;  296,500;18466,364;21,50897
 563,32; 4294,530;  296,885;18901,956;21,48686
 563,90; 4386,896;  319,500;19225,980;21,51324
 564,48; 4461,871;  331,115;19715,059;21,31019
 565,06; 4571,744;  309,808;20302,203;21,31779
 565,65; 4701,164;  332,962;21053,394;21,08162
 566,23; 4878,006;  375,808;21763,708;21,05021
 566,81; 4979,645;  320,731;22534,276;20,97330
 567,39; 5160,996;  323,731;23391,095;20,97017
 567,97; 5296,472;  337,654;24075,923;20,88955
 568,55; 5483,078;  340,192;24940,500;20,90578
 569,13; 5615,595;  319,269;25716,915;20,85361
 569,71; 5755,646;  326,115;26523,806;20,72522
 570,29; 5969,979;  360,423;27524,520;20,65062
 570,87; 6105,802;  351,038;28246,294;20,62990
 571,45; 6198,358;  349,731;28940,168;20,45659
 572,03; 6249,326;  309,500;29319,672;20,47498
 572,61; 6357,189;  318,346;30091,570;20,28280
 573,20; 6505,520;  343,577;30802,984;20,23002
 573,78; 6620,153;  334,885;31392,619;20,23737
 574,36; 6679,610;  345,731;31858,325;20,09952
 574,94; 6735,348;  390,346;32171,479;19,96468
 575,52; 6714,953;  344,423;32508,833;19,80615
 576,10; 6850,499;  398,038;33097,726;19,73248
 576,68; 6929,454;  384,346;33670,068;19,66341
 577,26; 7012,672;  404,423;34392,207;19,44301
 577,84; 7068,412;  419,192;34817,019;19,33035
 578,42; 7117,531;  456,192;35116,188;19,21910
 579,00; 7075,547;  402,808;35219,589;19,16529
 579,58; 7075,468;  433,500;35475,101;18,95452
 580,16; 6980,528;  407,346;35395,084;18,78710
 580,74; 6939,493;  416,577;35642,363;18,51745
 581,32; 6860,961;  421,423;35722,222;18,24190
 581,90; 6844,255;  440,731;35659,616;18,18208
 582,48; 6806,921;  437,346;35790,362;18,01706
 583,06; 6729,065;  442,038;35917,433;17,72222
 583,64; 6698,024;  434,962;35964,923;17,62755
 584,22; 6537,325;  443,577;35726,262;17,27122
 584,80; 6421,043;  456,269;35520,473;17,01101
 585,38; 6299,787;  453,577;35051,432;16,89761
 585,96; 6163,005;  428,115;35327,639;16,43257
 586,54; 6090,594;  443,962;35329,283;16,18627
 587,12; 6020,814;  409,500;35514,893;15,98419
 587,70; 6000,508;  442,269;35567,765;15,82394
 588,28; 5932,165;  419,808;35550,241;15,69112
 588,86; 5862,401;  432,269;35756,535;15,37224
 589,44; 5785,996;  415,192;35741,883;15,20325
 590,02; 5729,198;  417,038;35957,790;14,94667
 590,59; 5739,782;  387,115;36167,431;14,95981
 591,17; 5667,976;  390,885;36466,616;14,62781
 591,75; 5612,535;  384,808;36467,884;14,48803
 592,33; 5604,857;  393,962;36730,062;14,34082
 592,91; 5511,118;  353,115;37037,925;14,06032
 593,49; 5552,570;  358,654;37303,963;14,05839
 594,07; 5553,297;  363,423;37459,341;13,99042
 594,65; 5497,430;  387,654;37510,166;13,76463
 595,23; 5458,369;  376,423;37928,304;13,53313
 595,81; 5458,681;  362,731;38015,640;13,53401
 596,39; 5454,013;  363,577;38176,593;13,46213
 596,97; 5440,331;  354,192;38384,908;13,37377
 597,55; 5351,664;  367,577;38254,886;13,15503
 598,12; 5311,189;  332,577;38262,299;13,12589
 598,70; 5255,935;  341,577;38486,106;12,88352
 599,28; 5283,268;  361,500;38511,633;12,90105
 599,86; 5237,543;  346,500;38552,862;12,80164
 600,44; 5194,811;  321,962;38576,311;12,73803
 601,02; 5223,291;  373,500;38749,100;12,63770
 601,60; 5126,500;  341,038;38697,659;12,47623
 602,18; 5106,780;  329,346;38785,576;12,42304
 602,75; 5052,486;  328,269;38803,283;12,27866
 603,33; 5030,438;  337,731;38876,651;12,17654
 603,91; 5004,215;  334,269;38762,903;12,15225
 604,49; 4978,284;  354,500;39019,770;11,95849
 605,07; 4934,040;  367,115;38929,309;11,84301
 605,65; 4892,373;  372,500;39057,384;11,68382
 606,23; 4942,751;  441,654;39162,772;11,62440
 606,80; 4901,776;  484,038;39179,650;11,41664
 607,38; 4831,508;  532,346;39252,605;11,10313
 607,96; 4838,657;  585,731;39311,182;10,98225
 608,54; 4834,510;  650,346;39361,750;10,80861
 609,12; 4819,109;  648,808;39457,869;10,74569
 609,70; 4800,937;  681,731;39456,329;10,62346
 610,27; 4759,044;  698,346;39510,790;10,46236
 610,85; 4744,621;  715,269;39531,316;10,38063
 611,43; 4705,311;  724,269;39489,366;10,26965
 612,01; 4637,486;  691,885;39247,438;10,23355
 612,59; 4615,467;  666,346;39372,282;10,20288
 613,16; 4566,804;  630,962;39262,357;10,18820
 613,74; 4490,233;  587,346;39180,255;10,11296
 614,32; 4433,346;  558,038;39119,207;10,04977
 614,90; 4397,242;  505,654;39002,028;10,10897
 615,48; 4312,672;  452,269;38679,472;10,09858
 616,05; 4258,849;  442,038;38711,468; 9,97352
 616,63; 4221,256;  435,962;38426,617; 9,96375
 617,21; 4204,728;  430,500;38429,589; 9,93242
 617,79; 4122,508;  412,269;38349,321; 9,77999
 618,36; 4107,638;  436,038;38212,522; 9,71927
 618,94; 3990,739;  359,577;37842,202; 9,68759
 619,52; 3973,280;  386,269;37594,074; 9,64048
 620,10; 3911,075;  379,346;37596,029; 9,48964
 620,67; 3875,820;  376,654;37423,836; 9,44516
 621,25; 3846,338;  389,346;37387,458; 9,34370
 621,83; 3809,209;  382,731;37283,018; 9,28578
 622,41; 3796,048;  415,808;37245,313; 9,17808
 622,98; 3731,137;  381,500;37057,687; 9,13300
 623,56; 3691,328;  374,269;37060,904; 9,04160
 624,14; 3690,307;  372,038;36896,492; 9,08506
 624,72; 3644,406;  366,423;36805,059; 8,99590
 625,29; 3612,814;  338,731;36811,585; 8,97677
 625,87; 3598,448;  386,654;36768,570; 8,82800
 626,45; 3530,920;  346,808;36602,712; 8,78233
 627,02; 3496,019;  359,962;36497,571; 8,67810
 627,60; 3464,384;  341,269;36387,766; 8,66413
 628,18; 3467,725;  321,038;36548,946; 8,68581
 628,76; 3411,101;  322,731;36569,121; 8,52049
 629,33; 3406,368;  359,808;36454,192; 8,44054
 629,91; 3368,536;  343,423;36571,106; 8,35028
 630,49; 3361,038;  350,346;36709,000; 8,28054
 631,06; 3356,920;  349,731;36822,755; 8,24497
 631,64; 3325,346;  343,808;36825,530; 8,17269
 632,22; 3264,354;  304,885;36673,961; 8,13732
 632,79; 3316,533;  339,577;36958,411; 8,12958
 633,37; 3273,229;  312,731;37034,338; 8,06201
 633,95; 3262,477;  326,577;37104,995; 7,98267
 634,52; 3258,748;  313,038;37302,515; 7,96364
 635,10; 3250,923;  303,423;37244,330; 7,97896
 635,68; 3268,286;  306,269;37506,855; 7,96228
 636,25; 3205,459;  297,654;37350,088; 7,84781
 636,83; 3202,948;  286,808;37668,813; 7,80092
 637,41; 3199,417;  297,346;37698,432; 7,75932
 637,98; 3230,239;  328,115;37810,401; 7,74265
 638,56; 3200,925;  316,577;37946,227; 7,66509
 639,13; 3192,600;  300,500;38049,722; 7,66135
 639,71; 3227,347;  329,192;38263,761; 7,63988
 640,29; 3119,661;  269,500;37964,487; 7,56111
 640,86; 3134,787;  293,423;38153,763; 7,50486
 641,44; 3117,605;  281,346;38199,193; 7,48001
 642,02; 3154,654;  321,731;38183,930; 7,48219
 642,59; 3098,242;  282,346;38318,514; 7,40321
 643,17; 3106,060;  290,192;38282,328; 7,41171
 643,74; 3106,571;  290,808;38244,219; 7,41900
 644,32; 3083,235;  321,577;38250,111; 7,28122
 644,89; 3072,207;  313,269;38269,617; 7,26871
 645,47; 3066,949;  321,654;38218,124; 7,24420
 646,05; 3034,383;  306,885;38210,092; 7,19596
 646,62; 2992,278;  293,654;38114,522; 7,13528
 647,20; 3024,327;  302,962;38329,721; 7,15645
 647,77; 2980,991;  272,808;38130,920; 7,15351
 648,35; 2939,887;  266,423;37999,119; 7,08527
 648,92; 2944,628;  306,885;38079,088; 6,98329
 649,50; 2917,677;  262,115;38039,902; 7,02943
 650,08; 2900,265;  265,962;37965,947; 6,98754
 650,65; 2901,468;  272,269;38310,762; 6,91194
 651,23; 2996,440;  255,423;39231,114; 7,03263
 651,80; 3083,104;  277,115;40069,929; 7,05150
 652,38; 3150,769;  287,038;40408,436; 7,13766
 652,95; 3138,203;  256,885;40720,481; 7,12077
 653,53; 3141,867;  282,577;40985,372; 7,02480
 654,10; 3184,455;  309,192;41108,802; 7,04728
 654,68; 3160,735;  265,731;40947,001; 7,11631
 655,25; 3162,784;  262,269;41112,277; 7,10040
 655,83; 3131,679;  266,654;41205,245; 6,99835
 656,40; 3173,959;  300,423;41075,906; 7,04721
 656,98; 3123,546;  271,654;41032,412; 6,99666
 657,55; 3094,903;  279,808;40907,458; 6,92901
 658,13; 3041,337;  274,808;40464,657; 6,88365
 658,70; 3030,309;  295,269;40129,163; 6,86611
 659,28; 2928,051;  262,346;39177,132; 6,85011
 659,85; 2848,946;  274,038;38537,946; 6,72934
 660,43; 2845,918;  290,654;38646,991; 6,66191
 661,00; 2812,967;  293,038;38760,729; 6,55077
 661,58; 2821,093;  275,885;39129,774; 6,55072
 662,15; 2837,219;  262,346;39264,434; 6,60189
 662,73; 2917,422;  323,038;39606,710; 6,60423
 663,30; 2872,394;  291,808;39815,525; 6,52921
 663,88; 2875,290;  279,885;40035,493; 6,52840
 664,45; 2872,646;  273,423;40158,846; 6,51673
 665,03; 2932,849;  276,731;40622,814; 6,58334
 665,60; 3024,283;  333,423;41056,475; 6,60771
 666,17; 2959,486;  283,731;41113,597; 6,55343
 666,75; 2990,920;  274,885;41549,719; 6,58037
 667,32; 3002,277;  298,808;41808,610; 6,51284
 667,90; 2991,480;  284,115;42052,040; 6,48192
 668,47; 3016,144;  299,885;42370,008; 6,45650
 669,05; 3018,655;  271,423;42644,130; 6,48349
 669,62; 3016,396;  249,808;42709,329; 6,51583
 670,19; 3051,984;  262,192;42779,528; 6,56154
 670,77; 3047,110;  273,731;42938,804; 6,50035
 671,34; 3035,005;  266,808;42901,849; 6,49277
 671,92; 3014,823;  272,500;43237,048; 6,38276
 672,49; 3079,488;  295,346;43311,248; 6,47235
 673,06; 3024,768;  239,500;43309,754; 6,46680
 673,64; 3036,125;  259,115;43204,722; 6,46634
 674,21; 3045,712;  251,654;43246,460; 6,49859
 674,79; 3096,146;  286,115;43497,428; 6,50300
 675,36; 3115,195;  291,192;43619,166; 6,51774
 675,93; 3064,552;  253,423;43560,442; 6,49116
 676,51; 3135,985;  283,038;43729,871; 6,56652
 677,08; 3092,265;  277,885;43754,763; 6,47328
 677,65; 3131,545;  278,269;43940,500; 6,53488
 678,23; 3132,594;  281,346;44130,161; 6,50245
 678,80; 3151,720;  270,885;44373,129; 6,53217
 679,38; 3176,846;  266,577;44304,790; 6,60851
 679,95; 3165,588;  275,962;44614,296; 6,51722
 680,52; 3203,175;  264,192;44900,265; 6,58432
 681,10; 3257,071;  278,808;45342,079; 6,60907
 681,67; 3290,427;  288,423;45536,970; 6,63448
 682,24; 3261,630;  243,808;45571,323; 6,65782
 682,82; 3304,295;  257,346;46229,061; 6,62788
 683,39; 3394,959;  297,962;46520,952; 6,70012
 683,96; 3400,547;  267,731;46722,305; 6,74383
 684,54; 3394,827;  243,962;47125,735; 6,72087
 685,11; 3466,261;  293,423;47460,472; 6,72681
 685,68; 3463,694;  278,346;47742,364; 6,71108
 686,25; 3459,590;  249,192;47904,101; 6,73676
 686,83; 3529,177;  257,654;48006,992; 6,85145
 687,40; 3545,919;  244,577;48348,961; 6,86287
 687,97; 3581,045;  288,500;48733,237; 6,79650
 688,55; 3568,248;  239,115;48764,743; 6,86056
 689,12; 3585,450;  217,654;49038,558; 6,89827
 689,69; 3609,038;  242,346;49099,680; 6,89086
 690,26; 3639,472;  259,731;49118,417; 6,91738
 690,84; 3641,290;  252,423;49439,847; 6,88970
 691,41; 3668,801;  260,038;49440,354; 6,93115
 691,98; 3726,850;  262,423;49817,322; 6,99109
 692,56; 3702,130;  250,115;49900,367; 6,95266
 693,13; 3790,179;  306,192;49890,259; 7,02642
 693,70; 3767,613;  271,731;50019,458; 7,02722
 694,27; 3736,739;  258,423;50213,272; 6,96292
 694,84; 3769,634;  252,654;50310,548; 7,02583
 695,42; 3857,991;  300,962;50417,208; 7,09756
 695,99; 3847,655;  269,654;50645,407; 7,10263
 696,56; 3829,320;  254,500;50515,453; 7,11252
 697,13; 3888,984;  267,654;50913,421; 7,15031
 697,71; 3885,649;  243,577;50972,235; 7,17952
 698,28; 3940,159;  256,269;51287,357; 7,21891
 698,85; 3952,747;  225,654;51342,710; 7,29129
 699,42; 3977,104;  229,731;51554,525; 7,30129
 699,99; 4047,076;  270,346;51607,339; 7,35674
 700,57; 4033,894;  262,654;51750,769; 7,32449
 701,14; 4061,559;  254,808;51804,583; 7,38461
 701,71; 4089,300;  277,346;51996,090; 7,37055
 702,28; 4114,888;  260,577;52057,520; 7,44119
 702,85; 4118,168;  270,731;52204,103; 7,40841
 703,43; 4161,447;  282,269;52378,302; 7,44621
 704,00; 4206,189;  293,808;52569,194; 7,48417
 704,57; 4218,469;  275,269;52546,931; 7,54367
 705,14; 4228,595;  304,731;52893,284; 7,46144
 705,71; 4249,182;  318,885;52852,637; 7,48147
 706,28; 4261,847;  280,962;52672,528; 7,59833
 706,86; 4351,896;  304,885;53007,112; 7,67901
 707,43; 4327,560;  325,654;52823,234; 7,62303
 708,00; 4327,148;  313,654;53015,587; 7,61546
 708,57; 4312,351;  275,038;52818,401; 7,68377
 709,14; 4380,554;  316,885;52948,216; 7,72101
 709,71; 4405,757;  282,346;53138,261; 7,80123
 710,28; 4419,421;  280,192;53277,152; 7,81031
 710,86; 4467,240;  279,423;53350,505; 7,89096
 711,43; 4501,750;  310,577;53411,858; 7,89279
 712,00; 4445,953;  285,808;53506,057; 7,81685
 712,57; 4533,618;  302,192;53589,410; 7,94079
 713,14; 4552,359;  277,885;53697,917; 8,00163
 713,71; 4556,793;  288,577;53589,270; 8,00781
 714,28; 4589,688;  268,962;53752,545; 8,07860
 714,85; 4575,891;  249,423;53429,591; 8,13549
 715,42; 4570,633;  263,885;53628,328; 8,07044
 716,00; 4712,682;  320,577;53693,604; 8,22907
 716,57; 4675,731;  256,885;53922,726; 8,23400
 717,14; 4712,318;  243,269;53812,310; 8,34260
 717,71; 4711,368;  235,192;53903,663; 8,34042
 718,28; 4779,724;  268,577;53911,323; 8,40961
 718,85; 4776,927;  243,192;53946,215; 8,44223
 719,42; 4836,899;  271,962;54165,029; 8,47036
 719,99; 4823,256;  247,346;53946,074; 8,52145
 720,56; 4876,536;  257,269;54266,812; 8,55269
 721,13; 4875,431;  253,346;54251,934; 8,55964
 721,70; 4900,942;  247,192;54074,517; 8,64570
 722,27; 4939,684;  271,423;54144,178; 8,66535
 722,84; 5016,656;  309,423;54464,377; 8,69216
 723,41; 4971,859;  240,500;54436,191; 8,73014
 723,98; 5018,292;  261,423;54679,160; 8,74139
 724,55; 5093,495;  275,577;54755,513; 8,84347
 725,12; 5029,544;  230,115;54644,712; 8,82011
 725,69; 5111,824;  242,038;54851,834; 8,91742
 726,27; 5142,412;  260,577;54974,033; 8,92255
 726,84; 5201,999;  252,423;55210,078; 9,00616
 727,41; 5233,356;  271,962;55244,431; 9,02524
 727,98; 5270,175;  270,962;55533,322; 9,04633
 728,55; 5324,608;  286,500;55444,675; 9,13393
 729,12; 5285,657;  242,038;55556,259; 9,11812
 729,69; 5399,553;  271,808;55690,919; 9,25267
 730,26; 5418,140;  289,500;55942,195; 9,21544
 730,82; 5395,651;  269,500;55695,933; 9,24857
 731,39; 5406,469;  265,885;55874,285; 9,24426
 731,96; 5510,365;  242,115;56214,638; 9,41221
 732,53; 5602,260;  280,885;56462,760; 9,47169
 733,10; 5576,078;  281,423;56431,190; 9,42952
 733,67; 5689,204;  287,346;56770,235; 9,56371
 734,24; 5640,715;  268,115;56295,896; 9,58917
 734,81; 5685,918;  294,115;56373,710; 9,61455
 735,38; 5693,275;  274,500;56148,756; 9,69816
 735,95; 5709,170;  262,346;56016,416; 9,76937
 736,52; 5733,527;  287,038;56195,077; 9,74187
 737,09; 5732,268;  279,808;55860,276; 9,81003
 737,66; 5820,086;  321,269;56040,705; 9,86876
 738,23; 5795,520;  268,731;56052,674; 9,90749
 738,80; 5929,262;  332,500;56347,873; 9,99147
 739,37; 5880,388;  299,192;56498,687; 9,93104
 739,94; 5948,744;  280,808;56708,655;10,04457
 740,51; 6054,870;  367,885;56626,239;10,10870
 741,07; 5986,843;  283,885;56573,515;10,13145
 741,64; 6046,430;  311,115;56893,637;10,13620
 742,21; 6042,787;  278,654;56898,144;10,18048
 742,78; 6056,375;  252,654;56613,574;10,29742
 743,35; 6103,193;  276,654;57035,234;10,26548
 743,92; 6187,550;  314,038;56995,972;10,36223
 744,49; 6203,522;  306,269;56873,940;10,42513
 745,06; 6192,417;  280,269;56886,447;10,44435
 745,63; 6214,543;  261,654;56945,415;10,50193
 746,19; 6247,362;  274,885;57000,845;10,52865
 746,76; 6263,180;  281,038;56956,659;10,55505
 747,33; 6289,075;  279,577;56968,935;10,60075
 747,90; 6351,817;  301,423;57139,980;10,64488
 748,47; 6358,712;  290,038;57165,333;10,67014
 749,04; 6376,222;  291,808;57131,071;10,70460
 749,61; 6414,733;  311,423;57093,039;10,74874
 750,17; 6441,782;  282,115;57106,546;10,83982
 750,74; 6496,601;  286,423;57024,898;10,94527
 751,31; 6450,111;  264,038;56927,174;10,91728
 751,88; 6477,006;  257,577;56853,373;10,98921
 752,45; 6528,748;  272,192;57005,188;11,02807
 753,02; 6511,797;  291,346;56822,002;11,00368
 753,58; 6530,385;  272,346;56781,817;11,07432
 754,15; 6592,280;  271,346;56886,554;11,16473
 754,72; 6594,867;  260,577;56616,522;11,23979
 755,29; 6537,455;  271,346;56526,029;11,13882
 755,86; 6652,889;  279,346;56682,767;11,29992
 756,42; 6690,476;  299,038;56458,350;11,38090
 756,99; 6675,987;  241,885;56505,318;11,43567
 757,56; 6683,344;  245,269;56515,671;11,44132
 758,13; 6692,393;  214,808;56396,024;11,52981
 758,70; 6792,211;  229,346;56416,839;11,68030
 759,26; 6864,722;  238,885;56489,191;11,77920
 759,83; 6868,848;  231,577;56605,083;11,77374
 760,40; 6890,820;  215,731;56292,820;11,90342
 760,97; 6867,331;  214,500;56490,327;11,82183
 761,53; 6904,688;  197,885;55935,911;12,03272
 762,10; 6904,044;  198,115;56052,187;12,00616
 762,67; 6958,093;  227,885;55988,155;12,06990
 763,24; 6910,527;  193,808;55567,508;12,12980
 763,80; 6967,422;  216,423;55749,168;12,15679
 764,37; 6970,087;  227,885;55640,752;12,16721
 764,94; 6965,521;  212,962;55194,797;12,28144
 765,50; 6999,262;  217,423;55227,458;12,32837
 766,07; 7031,773;  249,500;55253,195;12,33058
 766,64; 7031,668;  231,269;54899,317;12,43944
 767,21; 7034,025;  240,577;54836,593;12,44312
 767,77; 7070,074;  258,346;54683,023;12,51588
 768,34; 7081,969;  264,115;54707,299;12,52288
 768,91; 7026,403;  258,885;54516,729;12,47288
 769,47; 7090,144;  252,192;54527,697;12,59860
 770,04; 7064,578;  252,038;54450,665;12,56958
 770,61; 7056,858;  255,577;54103,095;12,63063
 771,18; 7061,061;  239,115;54046,756;12,67840
 771,74; 7112,572;  253,115;54264,108;12,70011
 772,31; 7110,313;  253,654;53998,384;12,75783
 772,88; 7109,285;  234,192;53686,660;12,86207
 773,44; 7085,642;  235,115;53561,167;12,84649
 774,01; 7110,922;  263,346;53655,443;12,82507
 774,58; 7100,817;  248,038;53352,565;12,90432
 775,14; 7185,328;  231,500;53508,841;13,05213
 775,71; 7173,223;  232,500;53351,502;13,06637
 776,27; 7267,580;  294,269;53306,701;13,15410
 776,84; 7322,552;  303,808;53375,053;13,22514
 777,41; 7291,293;  269,269;53063,406;13,30077
 777,97; 7260,035;  240,192;52818,682;13,35117
 778,54; 7279,469;  258,500;52950,189;13,32462
 779,11; 7349,210;  274,269;52843,619;13,45830
 779,67; 7356,644;  234,500;52834,818;13,54012
 780,24; 7325,000;  256,192;52506,863;13,52865
 780,80; 7405,819;  262,962;52651,601;13,63436
 781,37; 7365,791;  255,654;52612,030;13,58027
 781,94; 7381,379;  253,808;52334,229;13,68570
 782,50; 7393,966;  268,654;52248,582;13,70781
 783,07; 7443,554;  279,423;52270,166;13,77963
 783,63; 7384,526;  242,577;52036,211;13,78924
 784,20; 7457,960;  272,731;51992,410;13,89264
 784,77; 7421,316;  262,038;51822,378;13,88524
 785,33; 7447,519;  224,577;51675,577;14,03849
 785,90; 7473,030;  252,269;51602,853;14,06169
 786,46; 7493,079;  266,885;51617,129;14,07237
 787,03; 7517,590;  241,500;51368,405;14,23143
 787,59; 7504,254;  247,423;51254,450;14,22712
 788,16; 7534,765;  256,808;51280,034;14,26401
 788,73; 7574,353;  267,885;51134,695;14,36392
 789,29; 7527,632;  250,423;50709,817;14,42191
 789,86; 7538,682;  266,269;50648,862;14,43437
 790,42; 7543,731;  258,962;50533,676;14,48993
 790,99; 7552,703;  268,038;50126,183;14,61078
 791,55; 7544,367;  235,115;50160,767;14,64027
 792,12; 7575,109;  264,269;50128,043;14,66163
 792,68; 7531,927;  249,808;49828,242;14,68808
 793,25; 7548,592;  264,192;49595,979;14,76614
 793,81; 7561,179;  304,038;49274,563;14,81941
 794,38; 7471,997;  224,654;48975,916;14,86596
 794,94; 7493,970;  246,423;48913,961;14,89195
 795,51; 7527,326;  263,885;48574,775;15,03479
 796,07; 7473,837;  251,192;48310,590;15,02858
 796,64; 7490,425;  266,654;48374,250;15,01586
 797,20; 7431,320;  253,962;47899,218;15,06416
 797,77; 7374,138;  229,808;47614,802;15,07720
 798,33; 7423,803;  248,577;47427,847;15,20843
 798,90; 7427,467;  274,654;47415,200;15,17338
 799,46; 7359,978;  251,654;46928,938;15,22866
 800,03; 7346,719;  251,115;46876,137;15,21845
 800,59; 7415,076;  266,808;46620,336;15,42120
 801,15; 7380,048;  269,423;46291,688;15,45040
 801,72; 7368,559;  258,038;46018,118;15,53870
 802,28; 7407,762;  294,346;45817,240;15,62602
 802,85; 7316,657;  248,423;45549,209;15,60290
 803,41; 7379,014;  252,346;45477,023;15,75836
 803,98; 7309,832;  246,038;44988,837;15,78755
 804,54; 7266,651;  246,962;44593,575;15,82914
 805,11; 7307,161;  254,808;44499,543;15,93942
 805,67; 7315,903;  276,885;44357,588;15,96848
 806,23; 7257,644;  261,731;43924,864;16,02247
 806,80; 7246,155;  270,346;43861,063;16,00297
 807,36; 7325,358;  279,423;43848,416;16,17190
 807,93; 7292,792;  283,654;43528,769;16,20793
 808,49; 7267,610;  242,500;43195,660;16,35528
 809,05; 7223,044;  229,269;42921,552;16,38182
 809,62; 7279,708;  267,115;42966,135;16,42331
 810,18; 7292,988;  262,885;42795,719;16,52865
 810,74; 7272,422;  232,962;42509,533;16,65097
 811,31; 7207,086;  238,038;42307,425;16,56560
 811,87; 7267,751;  245,962;42167,855;16,74969
 812,44; 7305,492;  274,500;42128,438;16,79888
 813,00; 7186,541;  207,962;41752,329;16,79790
 813,56; 7291,360;  252,654;41901,452;16,90014
 814,13; 7266,716;  253,346;41790,958;16,88438
 814,69; 7310,535;  243,962;41632,157;17,07389
 815,25; 7158,815;  220,038;41120,741;16,96493
 815,82; 7242,864;  247,500;41064,402;17,13840
 816,38; 7260,374;  274,269;40862,601;17,21210
 816,94; 7190,962;  233,423;40639,492;17,21904
 817,51; 7148,242;  218,269;40420,383;17,23783
 818,07; 7136,983;  222,962;40125,967;17,32707
 818,63; 7192,878;  241,346;39966,781;17,49895
 819,20; 7167,697;  252,577;39812,980;17,47990
 819,76; 7058,669;  224,192;39399,641;17,44582
 820,32; 7096,872;  269,423;39327,609;17,48020
 820,89; 7097,998;  257,192;39165,347;17,58193
 821,45; 7056,893;  237,808;38806,776;17,68024
 822,01; 7039,250;  242,962;38571,591;17,73162
 822,57; 7064,530;  253,885;38439,328;17,83571
 823,14; 7049,194;  220,423;38234,912;17,96360
 823,70; 7040,936;  238,731;37973,419;18,02640
 824,26; 6974,216;  235,654;37874,233;17,90334
 824,82; 7021,649;  255,500;37617,586;18,10967
 825,39; 6954,391;  225,731;37362,785;18,11845
 825,95; 7019,671;  258,962;37430,369;18,18793
 826,51; 6961,951;  255,269;37014,952;18,24467
 827,08; 7075,384;  275,038;37182,690;18,42530
 827,64; 6989,049;  248,115;36880,273;18,40168
 828,20; 6984,098;  223,192;36556,703;18,60791
 828,76; 6991,378;  257,654;36628,133;18,51426
 829,32; 7016,812;  250,731;36463,024;18,68449
 829,89; 6954,245;  216,269;36350,069;18,64729
 830,45; 6999,371;  241,577;36198,192;18,79430
 831,01; 6992,574;  226,192;36027,006;18,90008
 831,57; 6974,777;  243,346;35901,974;18,87743
 832,14; 6955,826;  235,808;36020,712;18,77892
 832,70; 6948,029;  225,885;35719,065;18,93926
 833,26; 6933,001;  208,577;35634,725;18,98153
 833,82; 6972,204;  229,115;35582,540;19,07337
 834,38; 7001,023;  225,962;35534,739;19,18804
 834,95; 6975,687;  218,962;35426,399;19,19119
 835,51; 6908,890;  194,731;35223,906;19,16734
 836,07; 7010,170;  244,192;35315,413;19,29211
 836,63; 7023,296;  249,269;35359,073;19,29383
 837,19; 6989,038;  237,192;35115,580;19,35825
 837,75; 6932,856;  205,115;34793,625;19,45080
 838,32; 7012,905;  248,962;35016,670;19,45467
 838,88; 7096,416;  251,577;34949,100;19,72717
 839,44; 7028,542;  243,115;34841,914;19,61174
 840,00; 7030,206;  237,115;34913,267;19,59009
 840,56; 7031,794;  225,269;34495,082;19,86158
 841,12; 7011,689;  221,192;34474,435;19,82439
 841,68; 6981,815;  204,115;34229,710;19,91942
 842,25; 6962,710;  211,038;34307,063;19,80193
 842,81; 6941,683;  216,962;34010,493;19,89943
 843,37; 6979,962;  210,192;34050,692;20,00494
 843,93; 6997,550;  217,808;33889,968;20,13456
 844,49; 7003,368;  234,346;33999,629;20,04728
 845,05; 6949,648;  204,731;33864,828;20,03832
 845,61; 7030,774;  240,885;33911,642;20,16554
 846,17; 6986,208;  219,115;33661,149;20,23529
 846,73; 6994,103;  236,654;33700,194;20,19347
 847,29; 6972,922;  206,654;33508,624;20,31792
 847,86; 7007,740;  221,423;33454,130;20,42060
 848,42; 6944,404;  207,423;33202,176;20,41834
 848,98; 7003,223;  227,500;33204,452;20,54684
 849,54; 7006,887;  207,500;33322,497;20,53265
 850,10; 7033,321;  235,192;33044,696;20,72000
 850,66; 7008,755;  203,500;32992,818;20,75449
 851,22; 6989,804;  212,038;32836,094;20,77536
 851,78; 7039,084;  256,577;33003,447;20,71192
 852,34; 7038,133;  233,346;32705,723;20,95562
 852,90; 7043,490;  216,269;32541,076;21,12068
 853,46; 6962,231;  220,962;32350,044;20,98183
 854,02; 7026,895;  226,192;32339,474;21,17723
 854,58; 6979,945;  218,962;32114,365;21,19736
 855,14; 6941,686;  209,577;31986,872;21,18528
 855,70; 6936,504;  195,269;31876,532;21,27830
 856,26; 6995,092;  243,192;31822,577;21,38072
 856,82; 6938,449;  209,962;31688,315;21,37497
 857,38; 6989,421;  244,500;31559,591;21,53888
 857,94; 6947,624;  218,577;31394,636;21,58402
 858,50; 6962,981;  226,885;31348,912;21,64414
 859,06; 6902,953;  219,423;31076,111;21,65991
 859,62; 6935,464;  244,654;31126,464;21,66586
 860,18; 6906,128;  226,731;30817,509;21,83468
 860,74; 6895,100;  198,577;30798,477;21,88413
 861,30; 6836,380;  193,423;30541,215;21,88942
 861,86; 6898,660;  255,115;30505,414;21,96191
 862,42; 6886,017;  230,192;30400,459;22,06087
 862,98; 6896,835;  240,423;30387,350;22,07990
 863,54; 6843,192;  228,038;30150,242;22,10784
 864,10; 6874,241;  219,962;30201,056;22,19492
 864,66; 6791,906;  205,192;29923,024;22,16418
 865,22; 6827,493;  217,577;29811,839;22,33513
 865,78; 6807,311;  223,731;29690,961;22,34204
 866,34; 6776,976;  211,885;29597,006;22,34155
 866,90; 6798,256;  222,346;29420,667;22,52153
 867,45; 6772,843;  235,654;29264,789;22,51941
 868,01; 6774,739;  213,962;29055,295;22,74783
 868,57; 6744,172;  220,808;28985,494;22,67838
 869,13; 6729,068;  207,423;28866,386;22,75604
 869,69; 6714,501;  215,654;28720,277;22,79928
 870,25; 6700,012;  205,038;28589,399;22,88223
 870,81; 6687,292;  214,885;28596,060;22,80528
 871,37; 6698,495;  225,038;28482,105;22,90916
 871,93; 6680,852;  241,731;28352,765;22,90603
 872,49; 6651,285;  248,115;28082,580;23,00447
 873,04; 6621,565;  200,038;27863,702;23,21286
 873,60; 6633,922;  207,038;27770,363;23,31679
 874,16; 6598,510;  234,346;27685,946;23,18322
 874,72; 6600,433;  226,962;27621,562;23,26543
 875,28; 6606,740;  229,423;27516,792;23,37095
 875,84; 6636,971;  216,423;27487,792;23,54318
 876,40; 6606,510;  213,423;27417,715;23,50029
 876,95; 6577,817;  235,346;27372,177;23,37219
 877,51; 6625,356;  243,654;27370,408;23,52549
 878,07; 6679,663;  258,038;27391,946;23,66642
 878,63; 6623,510;  219,577;27445,869;23,52113
 879,19; 6651,663;  230,885;27405,946;23,62747
 879,75; 6667,048;  221,577;27378,946;23,73378
 880,30; 6701,433;  219,731;27367,254;23,87585
 880,86; 6792,048;  254,269;27563,177;23,94010
 881,42; 6755,279;  206,654;27593,485;23,91158
 881,98; 6814,510;  235,962;27669,638;23,97983
 882,54; 6782,279;  219,577;27798,869;23,79576
 883,09; 6894,048;  226,346;27836,638;24,14933
 883,65; 6898,433;  209,962;27868,946;24,18191
 884,21; 7046,356;  241,885;28166,177;24,36757
 884,77; 6966,587;  216,423;28058,254;24,24468
 885,32; 7015,356;  219,423;28323,638;24,18119
 885,88; 7109,510;  249,115;28499,485;24,28426
 886,44; 7130,587;  233,731;28539,869;24,36523
 887,00; 7164,587;  235,192;28524,792;24,49449
 887,56; 7213,356;  224,038;28664,100;24,57561
 888,11; 7248,740;  215,731;28673,331;24,71399
 888,67; 7299,587;  249,346;28836,408;24,66235
 889,23; 7287,663;  233,577;28767,023;24,72217
 889,79; 7273,433;  211,808;28654,715;24,82737
 890,34; 7303,740;  221,346;28536,331;25,01288
 890,90; 7392,433;  280,192;28763,485;24,96987
 891,46; 7310,279;  223,346;28688,100;24,89722
 892,01; 7340,740;  236,269;28688,331;24,96997
 892,57; 7365,433;  261,808;28568,869;25,09489
 893,13; 7282,510;  222,577;28388,254;25,06573
 893,69; 7296,971;  216,885;28366,638;25,15150
 894,24; 7300,894;  230,962;28238,485;25,24298
 894,80; 7223,587;  228,654;28073,023;25,12153
 895,36; 7235,510;  226,269;27945,715;25,28637
 895,91; 7223,433;  224,115;27772,177;25,40766
 896,47; 7236,817;  227,654;27630,638;25,57810
 897,03; 7142,202;  207,423;27426,023;25,47809
 897,58; 7165,356;  229,885;27389,715;25,53577
 898,14; 7111,279;  234,115;27163,869;25,53742
 898,70; 7057,048;  200,192;27052,177;25,53575
 899,25; 7092,587;  214,192;27048,485;25,63285
 899,81; 7067,817;  240,423;26817,023;25,68949
 900,37; 7001,202;  195,654;26691,715;25,68513
 900,92; 7024,202;  226,577;26648,946;25,72678
 901,48; 6986,125;  210,885;26489,946;25,78190
 902,03; 6971,279;  222,192;26445,638;25,73684
 902,59; 6991,510;  216,577;26287,100;25,98695
 903,15; 6983,202;  228,577;26161,177;26,04685
 903,70; 6847,894;  213,500;25851,023;25,87767
 904,26; 6887,587;  211,962;25775,946;26,11340
 904,82; 6896,202;  214,192;25685,331;26,23365
 905,37; 6873,587;  221,038;25588,715;26,22451
 905,93; 6839,279;  205,192;25444,100;26,28516
 906,48; 6884,048;  229,577;25303,100;26,53983
 907,04; 6915,817;  238,500;25277,331;26,66785
 907,60; 6781,740;  218,115;25060,869;26,42068
 908,15; 6785,740;  206,038;24989,638;26,54861
 908,71; 6805,510;  246,654;25035,562;26,45883
 909,26; 6740,971;  204,808;24829,792;26,54281
 909,82; 6772,663;  243,423;24665,485;26,73501
 910,37; 6777,817;  260,577;24589,638;26,78788
 910,93; 6677,587;  203,500;24398,562;26,75788
 911,48; 6637,356;  203,192;24287,638;26,71502
 912,04; 6632,202;  203,192;24154,792;26,84167
 912,60; 6677,510;  225,269;24176,562;26,93901
 913,15; 6648,663;  218,808;23982,869;27,05706
 913,71; 6622,587;  215,192;23813,177;27,15229
 914,26; 6605,433;  195,577;23796,177;27,15972
 914,82; 6578,510;  220,423;23671,946;27,11161
 915,37; 6564,279;  202,115;23654,100;27,12847
 915,93; 6568,894;  247,885;23523,177;27,15759
 916,48; 6527,587;  208,423;23316,485;27,34614
 917,04; 6522,817;  234,192;23227,946;27,34928
 917,59; 6543,817;  249,346;23147,331;27,48919
 918,15; 6435,048;  189,192;22916,100;27,48221
 918,70; 6433,048;  211,500;22905,254;27,41524
 919,26; 6483,125;  213,885;22839,946;27,70805
 919,81; 6403,663;  198,731;22574,869;27,73013
 920,37; 6405,202;  210,115;22514,331;27,77541
 920,92; 6428,740;  221,962;22451,562;27,92123
 921,48; 6391,202;  191,885;22284,254;28,06090
 922,03; 6407,510;  211,346;22247,331;28,11839
 922,59; 6349,510;  210,192;22099,408;28,04722
 923,14; 6355,202;  201,885;22028,562;28,19173
 923,69; 6344,202;  229,731;21942,254;28,16103
 924,25; 6349,587;  231,654;21930,485;28,19476
 924,80; 6257,279;  215,269;21635,638;28,20684
 925,36; 6261,279;  205,115;21567,177;28,35009
 925,91; 6244,663;  216,115;21442,023;28,40184
 926,47; 6197,587;  201,500;21348,177;28,35475
 927,02; 6256,740;  241,885;21233,177;28,65405
 927,57; 6172,279;  211,808;21193,023;28,40861
 928,13; 6219,125;  205,500;21056,946;28,84033
 928,68; 6188,125;  206,423;20975,715;28,80070
 929,24; 6107,433;  173,423;20732,100;28,86377
 929,79; 6081,971;  196,808;20697,946;28,70652
 930,34; 6094,510;  206,731;20568,331;28,91609
 930,90; 6085,125;  193,577;20496,023;29,01891
 931,45; 6110,817;  214,038;20473,485;29,10632
 932,01; 6064,587;  222,577;20391,485;28,96542
 932,56; 6036,125;  227,346;20204,408;29,07724
 933,11; 6041,894;  226,500;20171,100;29,15774
 933,67; 6015,202;  206,192;20034,869;29,29600
 934,22; 5997,356;  205,654;19951,562;29,33115
 934,77; 6025,817;  228,654;19816,100;29,59632
 935,33; 5945,817;  219,654;19760,100;29,30416
 935,88; 5944,202;  215,115;19628,562;29,51092
 936,43; 5899,125;  201,731;19583,638;29,39543
 936,99; 5910,048;  213,038;19487,023;29,55803
 937,54; 5871,048;  190,731;19303,792;29,71956
 938,09; 5884,894;  218,885;19204,869;29,84312
 938,65; 5870,125;  213,423;19075,562;29,98972
 939,20; 5852,817;  191,192;19059,792;30,00554
 939,75; 5808,971;  194,423;18909,869;29,99954
 940,31; 5828,279;  187,346;18825,177;30,26604
 940,86; 5841,202;  218,654;18790,792;30,27410
 941,41; 5886,356;  270,192;18699,792;30,47360
 941,96; 5809,279;  202,192;18558,331;30,54611
 942,52; 5775,740;  201,654;18439,485;30,56332
 943,07; 5709,048;  190,577;18327,100;30,42739
 943,62; 5708,356;  199,962;18250,408;30,51667
 944,18; 5687,125;  186,731;18171,562;30,58352
 944,73; 5719,740;  204,808;18127,254;30,77109
 945,28; 5622,279;  172,423;17934,792;30,68203
 945,83; 5645,356;  197,115;17956,408;30,67825
 946,39; 5674,740;  197,654;17893,562;30,95115
 946,94; 5668,510;  217,500;17802,638;30,99782
 947,49; 5578,587;  198,038;17767,177;30,62500
 948,04; 5612,356;  230,038;17676,023;30,85132
 948,59; 5556,356;  218,885;17617,946;30,67678
 949,15; 5574,971;  183,192;17526,869;31,08786
 949,70; 5552,202;  205,731;17366,408;31,15536
 950,25; 5513,740;  222,654;17313,792;30,95807
 950,80; 5491,894;  179,115;17177,562;31,25450
 951,36; 5473,894;  177,038;17072,869;31,35008
 951,91; 5504,202;  220,577;17073,869;31,35070
 952,46; 5439,048;  190,654;16876,023;31,45507
 953,01; 5490,663;  216,192;16923,100;31,57060
 953,56; 5407,817;  179,115;16804,792;31,44956
 954,11; 5440,971;  202,500;16721,715;31,71138
 954,67; 5443,587;  195,885;16684,792;31,82565
 955,22; 5410,971;  171,577;16496,792;32,09388
 955,77; 5434,587;  233,885;16463,869;32,04379
 956,32; 5447,663;  244,423;16367,715;32,27158
 956,87; 5328,663;  191,269;16232,100;32,02698
 957,42; 5329,894;  195,500;16132,023;32,21778
 957,98; 5349,433;  200,192;16120,023;32,34482
 958,53; 5325,279;  219,115;16007,946;32,34035
 959,08; 5291,125;  187,808;15892,100;32,49632
 959,63; 5241,048;  195,500;15838,715;32,25391
 960,18; 5260,971;  220,192;15783,792;32,38826
 960,73; 5265,817;  206,115;15720,638;32,61268
 961,28; 5243,433;  177,885;15618,254;32,80717
 961,83; 5237,202;  225,962;15547,408;32,70736
 962,39; 5151,048;  194,808;15473,023;32,43992
 962,94; 5153,817;  215,115;15443,869;32,43011
 963,49; 5088,279;  207,115;15190,100;32,57804
 964,04; 5108,279;  216,038;15176,946;32,70016
 964,59; 5054,202;  181,808;15064,408;32,73886
 965,14; 5103,663;  223,115;15022,485;32,97808
 965,69; 5066,817;  211,115;14941,331;32,96423
 966,24; 5036,510;  202,577;14865,792;32,96639
 966,79; 5032,125;  216,731;14688,408;33,27461
 967,34; 4991,587;  186,731;14645,792;33,23076
 967,89; 4949,587;  205,500;14603,638;32,94930
 968,44; 4935,587;  213,885;14464,100;33,13425
 968,99; 4937,510;  208,577;14453,562;33,19718
 969,55; 4917,587;  221,885;14301,331;33,35147
 970,10; 4896,510;  218,808;14262,408;33,30842
 970,65; 4912,279;  225,654;14139,485;33,68321
 971,20; 4868,279;  196,269;14004,946;33,83387
 971,75; 4792,510;  177,115;13929,408;33,56091
 972,30; 4827,356;  207,808;13820,100;33,93659
 972,85; 4772,356;  195,346;13798,485;33,64672
 973,40; 4733,587;  194,500;13662,715;33,70221
 973,95; 4795,894;  212,192;13618,177;34,19146
 974,50; 4751,356;  230,808;13514,177;34,03164
 975,05; 4703,279;  216,115;13345,408;34,17674
 975,60; 4721,202;  225,269;13356,638;34,23811
 976,15; 4661,817;  200,731;13206,331;34,30127
 976,70; 4657,894;  210,038;13141,562;34,39545
 977,25; 4629,510;  215,654;13152,485;34,11852
 977,80; 4604,663;  197,500;12952,177;34,55331
 978,35; 4572,125;  215,962;12799,177;34,61884
 978,89; 4574,279;  193,115;12728,485;34,95041
 979,44; 4557,048;  208,192;12722,715;34,75047
 979,99; 4464,433;  192,577;12486,869;34,74666
 980,54; 4503,279;  232,808;12459,177;34,92837
 981,09; 4448,202;  213,962;12387,715;34,78172
 981,64; 4388,279;  222,808;12218,254;34,72544
 982,19; 4437,048;  246,577;12186,715;35,09567
 982,74; 4386,894;  229,038;12081,562;35,07992
 983,29; 4300,048;  193,269;11925,100;35,00544
 983,84; 4310,433;  221,346;11826,638;35,23467
 984,39; 4313,971;  245,808;11778,254;35,27581
 984,94; 4230,202;  182,577;11670,254;35,23450
 985,49; 4259,817;  243,192;11606,331;35,34785
 986,03; 4228,048;  228,808;11524,023;35,40650
 986,58; 4195,125;  244,346;11344,100;35,59339
 987,13; 4121,971;  214,346;11224,638;35,49066
 987,68; 4128,971;  223,038;11128,562;35,81610
 988,23; 4102,433;  225,885;11075,946;35,72835
 988,78; 4019,663;  212,808;10904,562;35,60553
 989,33; 4007,048;  218,500;10849,485;35,63685
 989,88; 4046,048;  234,269;10762,408;36,20563
 990,42; 3972,048;  211,269;10615,100;36,14802
 990,97; 3941,048;  212,654;10535,177;36,11902
 991,52; 3914,971;  228,962;10502,485;35,87873
 992,07; 3869,817;  248,423;10361,946;35,80745
 992,62; 3857,587;  225,038;10189,408;36,45537
 993,17; 3802,663;  225,269;10094,331;36,24858
 993,71; 3774,125;  219,885;10107,331;35,94700
 994,26; 3763,279;  205,731; 9964,254;36,45580
 994,81; 3771,587;  232,269; 9891,331;36,64246
 995,36; 3699,740;  208,115; 9678,946;36,86715
 995,91; 3663,971;  229,654; 9669,100;36,38261
 996,45; 3641,817;  218,885; 9569,254;36,60746
 997,00; 3573,817;  192,962; 9417,100;36,65227
 997,55; 3583,510;  221,192; 9413,177;36,57880
 998,10; 3578,510;  239,269; 9289,100;36,89837
 998,65; 3550,125;  211,731; 9197,946;37,15017
 999,19; 3535,510;  239,577; 9082,100;37,27367
 999,74; 3494,740;  251,577; 9015,562;37,00558
1000,29; 3472,356;  226,577; 8900,100;37,42169
1000,84; 3401,356;  213,346; 8722,792;37,46436
1001,38; 3391,433;  218,346; 8685,946;37,47327
1001,93; 3377,433;  227,115; 8630,408;37,48908
1002,48; 3304,971;  207,346; 8495,408;37,37454
1003,03; 3285,971;  221,038; 8441,177;37,28566
1003,57; 3278,433;  232,500; 8311,562;37,70157
1004,12; 3256,971;  242,962; 8265,100;37,57115
1004,67; 3221,740;  213,731; 8124,331;38,02505
1005,22; 3151,663;  208,115; 8027,485;37,64432
1005,76; 3107,048;  194,192; 7867,638;37,96020
1006,31; 3116,894;  231,731; 7860,331;37,82035
1006,86; 3075,048;  217,885; 7697,100;38,20138
1007,40; 2995,587;  196,038; 7572,638;37,95174
1007,95; 3016,817;  227,423; 7542,331;38,13301
1008,50; 2951,125;  215,962; 7394,638;38,10122
1009,04; 2912,048;  220,346; 7305,177;37,99247
1009,59; 2890,125;  228,577; 7163,408;38,37942
1010,14; 2851,894;  200,192; 7051,177;38,70541
1010,68; 2803,663;  216,885; 6957,100;38,37828
1011,23; 2790,587;  205,885; 6840,408;38,95837
1011,78; 2796,971;  227,654; 6773,485;39,25120
1012,32; 2765,740;  225,731; 6713,638;39,14990
1012,87; 2760,279;  245,577; 6661,408;39,19527
1013,42; 2688,510;  212,423; 6534,638;39,16486
1013,96; 2699,971;  230,962; 6541,023;39,12814
1014,51; 2653,125;  190,115; 6461,946;39,27098
1015,06; 2630,817;  196,038; 6426,869;39,07631
1015,60; 2736,971;  258,577; 6502,485;39,69300
1016,15; 2682,587;  205,115; 6444,562;39,70659
1016,69; 2694,510;  213,577; 6497,254;39,48218
1017,24; 2711,510;  176,192; 6482,023;40,20592
1017,79; 2741,279;  241,808; 6550,023;39,62248
1018,33; 2721,587;  199,654; 6533,792;39,81493
1018,88; 2775,202;  223,423; 6568,177;40,21872
1019,42; 2763,740;  211,192; 6560,792;40,20014
1019,97; 2765,894;  212,423; 6527,177;40,43659
1020,51; 2798,202;  224,962; 6566,562;40,57715
1021,06; 2773,048;  207,962; 6543,254;40,48884
1021,61; 2714,663;  181,115; 6513,792;40,00754
1022,15; 2724,279;  168,962; 6442,177;40,73377
1022,70; 2729,740;  203,731; 6440,946;40,49900
1023,24; 2706,125;  200,346; 6375,869;40,57598
1023,79; 2727,356;  220,192; 6347,177;40,92002
1024,33; 2678,356;  202,192; 6301,100;40,60011
1024,88; 2659,356;  208,577; 6204,023;40,87734
1025,42; 2639,356;  219,500; 6081,562;41,27994
1025,97; 2579,894;  206,269; 6018,254;40,84018
1026,51; 2538,202;  175,731; 5925,869;41,08547
1027,06; 2532,587;  201,423; 5861,715;41,18451
1027,60; 2509,279;  220,654; 5720,331;41,61381
1028,15; 2487,279;  223,423; 5677,485;41,50770
1028,69; 2416,433;  189,500; 5559,869;41,46703
1029,24; 2408,048;  194,038; 5506,869;41,67288
1029,78; 2368,202;  200,808; 5388,177;41,78215
1030,33; 2318,587;  185,423; 5294,177;41,75506
1030,87; 2300,894;  198,731; 5259,331;41,53981
1031,42; 2252,125;  189,808; 5108,869;41,92502
1031,96; 2235,356;  207,808; 5087,638;41,54956
1032,51; 2187,433;  183,346; 5015,408;41,47477
1033,05; 2195,125;  217,500; 4933,792;41,93177
1033,60; 2111,048;  177,577; 4828,408;41,57260
1034,14; 2116,817;  201,346; 4796,177;41,68752
1034,69; 2087,740;  204,038; 4723,946;41,67567
1035,23; 2077,125;  203,654; 4625,869;42,36499
1035,77; 2038,125;  196,577; 4560,792;42,19654
1036,32; 1991,356;  168,885; 4510,100;41,98067
1036,86; 2012,279;  206,038; 4476,254;42,29858
1037,41; 1987,356;  218,654; 4393,715;42,36349
1037,95; 1945,971;  173,885; 4305,715;42,88865
1038,50; 1921,740;  187,115; 4273,792;42,44586
1039,04; 1939,971;  209,115; 4244,562;42,89131
1039,58; 1872,894;  178,808; 4137,408;42,79509
1040,13; 1861,971;  198,115; 4066,946;43,00668
1040,67; 1884,279;  225,577; 4075,177;43,08764
1041,21; 1846,740;  224,115; 3994,023;43,04150
1041,76; 1776,894;  182,423; 3893,562;42,96447
1042,30; 1803,971;  201,269; 3857,946;43,82946
1042,85; 1761,587;  197,269; 3804,715;43,36357
1043,39; 1713,894;  199,577; 3746,638;42,69216
1043,93; 1727,510;  211,423; 3715,869;43,26180
1044,48; 1686,663;  209,808; 3657,408;42,83721
1045,02; 1658,510;  202,115; 3598,562;42,87994
1045,56; 1665,202;  225,115; 3584,100;42,87267
1046,11; 1632,279;  209,808; 3527,331;42,87751
1046,65; 1611,817;  208,962; 3443,331;43,37340
1047,19; 1582,663;  196,038; 3395,254;43,34266
1047,74; 1569,894;  190,731; 3358,100;43,54287
1048,28; 1565,279;  206,500; 3297,177;43,96379
1048,82; 1561,433;  226,038; 3301,254;43,42441
1049,37; 1541,817;  214,654; 3222,562;44,12248
1049,91; 1524,740;  203,115; 3174,331;44,48096
1050,45; 1512,663;  229,346; 3154,715;43,86856
1050,99; 1489,356;  206,577; 3058,177;44,98453
1051,54; 1459,510;  191,500; 3019,792;44,83305
1052,08; 1448,663;  227,885; 3021,408;43,70033
1052,62; 1432,433;  215,654; 2969,485;44,18495
1053,16; 1414,279;  201,115; 2912,100;44,74992
1053,71; 1402,587;  222,423; 2899,177;44,08935
1054,25; 1387,510;  216,731; 2838,408;44,65763
1054,79; 1373,279;  218,346; 2781,715;45,05526
1055,33; 1312,817;  183,115; 2715,946;44,60235
1055,88; 1332,894;  219,654; 2728,946;44,36472
1056,42; 1313,202;  220,192; 2698,946;44,09513
1056,96; 1316,125;  219,577; 2620,177;45,67808
1057,50; 1275,202;  219,192; 2593,254;44,48114
1058,05; 1261,279;  211,192; 2561,869;44,67167
1058,59; 1275,125;  231,731; 2519,792;45,60167
1059,13; 1207,740;  193,654; 2461,408;44,71766
1059,67; 1249,587;  220,731; 2447,485;46,20429
1060,21; 1202,202;  217,346; 2385,485;45,42403
1060,76; 1192,433;  226,269; 2370,869;45,05099
1061,30; 1211,125;  225,731; 2370,562;45,94275
1061,84; 1164,356;  214,115; 2323,869;45,04034
1062,38; 1142,125;  198,192; 2263,100;45,71307
1062,92; 1167,663;  242,038; 2284,485;45,31943
1063,46; 1139,971;  228,808; 2236,638;45,38049
1064,01; 1105,971;  212,346; 2186,331;45,27011
1064,55; 1094,587;  219,346; 2165,100;44,98207
1065,09; 1043,817;  193,885; 2086,562;44,90638
1065,63; 1105,433;  241,423; 2113,562;46,15095
1066,17; 1103,663;  231,654; 2096,408;46,76272
1066,71; 1084,510;  225,962; 2081,408;46,27179
1067,25; 1037,894;  203,577; 2020,408;45,92158
1067,80; 1055,048;  227,654; 2028,177;45,95299
1068,34; 1052,202;  239,192; 2025,023;45,52557
1068,88; 1013,279;  214,423; 1941,715;46,24902
1069,42; 1026,125;  239,192; 1969,177;45,48784
1069,96;  999,279;  213,577; 1901,331;46,55311
1070,50; 1033,433;  249,808; 1936,638;46,45546
1071,04;  959,279;  205,962; 1845,023;45,96028
1071,58;  968,279;  209,808; 1821,869;47,04976
1072,12;  961,048;  207,731; 1823,792;46,61439
1072,66;  952,048;  213,962; 1796,638;46,63533
1073,21;  954,587;  231,423; 1807,331;45,88869
1073,75;  931,971;  217,808; 1748,177;46,66609
1074,29;  930,125;  220,808; 1742,638;46,60947
1074,83;  925,587;  246,115; 1746,792;45,27764
1075,37;  929,740;  228,654; 1686,562;48,08854
1075,91;  898,279;  234,731; 1694,715;45,44898
1076,45;  896,587;  223,885; 1669,485;46,53444
1076,99;  895,356;  229,192; 1639,100;47,24873
1077,53;  854,817;  214,423; 1599,331;46,24093
1078,07;  867,356;  230,115; 1586,792;46,97068
1078,61;  851,433;  222,038; 1560,946;47,00804
1079,15;  847,971;  215,346; 1550,946;47,36635
1079,69;  845,356;  226,885; 1530,946;47,42653
1080,23;  849,663;  239,500; 1534,946;47,10064
1080,77;  863,048;  260,962; 1525,562;47,61083
1081,31;  796,279;  203,654; 1467,254;46,89973
1081,85;  816,433;  243,269; 1473,177;46,60215
1082,39;  792,125;  223,654; 1449,177;46,38600
1082,93;  803,587;  232,115; 1434,869;47,51356
1083,47;  766,510;  213,731; 1386,638;47,12893
1084,01;  800,971;  239,269; 1409,254;48,00934
1084,55;  772,894;  213,038; 1378,177;48,05058
1085,09;  781,817;  236,654; 1364,331;48,34394
1085,63;  756,433;  224,500; 1351,869;47,18354
1086,17;  745,740;  205,423; 1325,331;48,24659
1086,71;  720,971;  215,577; 1304,792;46,39984
1087,24;  761,587;  248,192; 1333,869;47,28794
1087,78;  741,202;  235,731; 1295,254;47,70742
1088,32;  697,125;  211,885; 1270,792;45,82462
1088,86;  739,587;  241,269; 1277,869;48,07229
1089,40;  724,356;  230,423; 1241,638;48,84545
1089,94;  688,894;  198,654; 1216,946;48,14338
1090,48;  699,279;  228,808; 1226,869;47,13849
1091,02;  711,740;  232,731; 1220,177;48,50995
1091,56;  683,356;  223,192; 1189,792;47,60640
1092,10;  669,894;  204,654; 1167,946;48,29691
1092,63;  708,587;  246,808; 1166,254;50,22359
1093,17;  677,971;  226,577; 1152,715;48,73939
1093,71;  653,817;  216,808; 1130,792;47,81367
1094,25;  677,356;  243,885; 1136,331;48,57113
1094,79;  652,817;  227,654; 1119,254;47,68545
1095,33;  632,356;  224,577; 1105,408;46,29480
1095,87;  655,894;  226,654; 1092,638;49,56674
1096,40;  597,740;  209,500; 1048,023;46,30050
1096,94;  641,125;  224,423; 1081,331;48,62857
1097,48;  639,894;  229,346; 1054,562;49,75041
1098,02;  620,663;  221,577; 1030,946;49,30834
1098,56;  586,971;  195,192;  992,715;49,12445
1099,10;  586,510;  199,346;  996,869;48,54574
1099,63;  581,279;  207,192;  988,485;47,88048
1100,17;  603,202;  227,654;  988,100;49,38523
1100,71;  609,202;  235,962;  995,946;49,11157

