
Integration time [ms]: 140,000
Averaging Nr. [scans]: 13
Smoothing Nr. [pixels]: 0
Data measured with spectrometer [name]: 2009305U1
Wave   ;Sample   ;Dark     ;Reference;Reflectance
[nm]   ;[counts] ;[counts] ;[counts] ;[%]

 175,72;  225,769;  207,672;  215,673;226,20689
 176,32;  248,337;  238,424;  241,025;381,05416
 176,92;  289,754;  272,128;  266,109; 0,00000
 177,52;  271,738;  265,361;  267,675;275,57695
 178,12;  247,838;  258,117;  238,311; 0,00000
 178,72;  278,928;  276,958;  258,525; 0,00000
 179,32;  276,634;  279,578;  258,748; 0,00000
 179,92;  276,266;  269,431;  262,806; 0,00000
 180,52;  266,747;  254,297;  261,455;173,91809
 181,12;  280,093;  273,355;  266,130; 0,00000
 181,73;  285,279;  284,895;  277,919; 0,00000
 182,33;  398,537;  381,443;  397,957;103,50878
 182,93;  290,081;  280,130;  286,949;145,92771
 183,53;  262,705;  255,340;  247,813; 0,00000
 184,13;  259,588;  242,804;  237,845; 0,00000
 184,73;  307,710;  293,338;  296,892;404,37134
 185,33;  281,510;  261,312;  361,143;20,23231
 185,93;  302,260;  243,376;  381,547;42,61715
 186,53;  318,036;  260,229;  410,327;38,51273
 187,13;  329,146;  280,704;  420,213;34,72341
 187,73;  306,412;  257,224;  382,447;39,28072
 188,33;  292,133;  249,678;  381,863;32,11776
 188,93;  311,483;  263,040;  387,891;38,80043
 189,53;  313,673;  261,946;  380,542;43,61616
 190,13;  351,315;  304,841;  423,007;39,32969
 190,73;  292,672;  226,937;  387,302;40,99075
 191,34;  321,365;  266,803;  406,760;38,98489
 191,94;  292,605;  249,363;  387,164;31,38002
 192,54;  316,645;  271,253;  415,221;31,52940
 193,14;  325,309;  271,395;  415,304;37,46428
 193,74;  323,360;  275,854;  398,242;38,81561
 194,34;  318,683;  265,090;  415,805;35,55881
 194,94;  285,190;  230,318;  367,347;40,04444
 195,54;  240,461;  226,774;  345,997;11,48065
 196,14;  277,420;  238,863;  381,829;26,96955
 196,74;  270,780;  237,002;  371,341;25,14424
 197,34;  264,470;  212,871;  367,061;33,46432
 197,94;  288,440;  246,858;  398,110;27,49196
 198,54;  305,717;  250,016;  414,320;33,90102
 199,14;  264,107;  227,106;  389,582;22,77278
 199,74;  261,687;  216,953;  394,616;25,17935
 200,34;  260,136;  205,647;  412,777;26,30692
 200,94;  294,188;  245,177;  440,849;25,04766
 201,54;  278,639;  228,181;  443,845;23,39682
 202,14;  319,836;  260,035;  509,855;23,93743
 202,74;  288,725;  231,337;  483,408;22,76679
 203,34;  259,662;  198,887;  505,069;19,84955
 203,94;  237,893;  174,805;  503,718;19,18056
 204,54;  307,004;  257,705;  595,985;14,57338
 205,14;  260,250;  217,029;  614,536;10,87294
 205,74;  316,655;  257,732;  713,847;12,91838
 206,34;  279,475;  215,112;  712,928;12,92917
 206,94;  295,753;  225,648;  764,426;13,01185
 207,54;  266,821;  199,803;  808,104;11,01716
 208,14;  284,182;  211,343;  894,372;10,66412
 208,74;  293,057;  218,875;  969,173; 9,88703
 209,34;  302,177;  202,492; 1054,701;11,69731
 209,94;  317,544;  229,414; 1142,048; 9,65663
 210,54;  303,300;  221,730; 1275,922; 7,73765
 211,14;  327,075;  229,798; 1378,519; 8,46826
 211,73;  333,306;  228,180; 1485,662; 8,36008
 212,33;  367,761;  231,561; 1585,815;10,05721
 212,93;  357,973;  215,259; 1695,643; 9,64031
 213,53;  330,791;  183,413; 1731,515; 9,51992
 214,13;  372,509;  207,122; 1852,881;10,04930
 214,73;  339,528;  193,189; 1865,086; 8,75287
 215,33;  327,698;  177,568; 1889,894; 8,76759
 215,93;  380,857;  214,578; 2025,839; 9,18031
 216,53;  339,878;  165,412; 2077,759; 9,12311
 217,13;  427,408;  230,730; 2288,601; 9,55735
 217,73;  436,942;  207,271; 2523,291; 9,91662
 218,33;  406,553;  175,201; 2679,717; 9,23740
 218,93;  468,985;  191,675; 3016,014; 9,81855
 219,53;  493,441;  193,509; 3295,597; 9,66873
 220,13;  516,695;  162,127; 3615,373;10,26769
 220,73;  580,859;  197,261; 3981,424;10,13694
 221,32;  611,442;  199,413; 4393,481; 9,82408
 221,92;  684,558;  207,818; 4824,839;10,32571
 222,52;  696,519;  188,348; 5274,577; 9,99111
 223,12;  748,723;  188,657; 5727,756;10,11114
 223,72;  805,996;  208,042; 6131,713;10,09431
 224,32;  862,066;  210,196; 6567,755;10,25346
 224,92;  883,199;  184,735; 6890,969;10,41515
 225,52;  948,872;  217,033; 7257,152;10,39527
 226,12;  984,586;  196,345; 7552,443;10,71548
 226,72; 1007,428;  162,729; 7885,662;10,93754
 227,31; 1054,330;  161,190; 8271,414;11,01252
 227,91; 1141,651;  204,032; 8671,474;11,07323
 228,51; 1187,937;  197,485; 9080,788;11,14959
 229,11; 1242,389;  190,959; 9437,453;11,37112
 229,71; 1304,525;  182,182; 9761,515;11,71630
 230,31; 1340,377;  178,045;10198,283;11,59984
 230,91; 1406,636;  174,328;10495,044;11,94015
 231,51; 1486,382;  179,117;10729,351;12,39086
 232,10; 1541,189;  181,970;11125,042;12,42082
 232,70; 1614,375;  197,706;11327,421;12,72871
 233,30; 1686,577;  217,962;11566,044;12,94153
 233,90; 1717,787;  184,193;11672,874;13,34874
 234,50; 1775,833;  184,348;11762,227;13,74592
 235,10; 1828,661;  181,042;11763,892;14,22464
 235,70; 1884,290;  199,801;11795,777;14,52650
 236,29; 1920,039;  199,490;11790,212;14,84419
 236,89; 1946,102;  173,867;11668,517;15,41791
 237,49; 1993,806;  194,422;11531,473;15,87171
 238,09; 2003,783;  184,188;11258,005;16,43150
 238,69; 2048,308;  225,709;10981,786;16,94483
 239,29; 2005,418;  177,187;10668,835;17,42558
 239,89; 2028,816;  207,482;10293,457;18,05808
 240,48; 2000,608;  187,496; 9905,604;18,65705
 241,08; 1989,963;  193,033; 9504,563;19,29790
 241,68; 1962,878;  210,727; 9188,966;19,51552
 242,28; 1933,461;  184,346; 8793,143;20,31776
 242,88; 1963,475;  230,430; 8481,530;21,00380
 243,48; 1953,764;  238,191; 8141,747;21,70635
 244,07; 1931,322;  198,262; 7914,995;22,45846
 244,67; 1956,113;  216,267; 7750,440;23,09273
 245,27; 1952,999;  214,795; 7569,124;23,63511
 245,87; 1975,341;  207,352; 7508,591;24,21491
 246,47; 1994,866;  205,257; 7502,141;24,52566
 247,06; 2000,023;  196,187; 7436,481;24,91385
 247,66; 2072,854;  190,882; 7536,970;25,61869
 248,26; 2137,682;  215,797; 7659,802;25,81789
 248,86; 2178,950;  208,027; 7773,824;26,05044
 249,46; 2231,801;  157,732; 8056,240;26,25900
 250,05; 2358,677;  203,419; 8430,382;26,19750
 250,65; 2469,019;  170,717; 8749,185;26,79151
 251,25; 2605,812;  192,186; 9257,926;26,62360
 251,85; 2756,784;  189,328; 9838,778;26,60728
 252,44; 2879,805;  157,644;10487,925;26,35128
 253,04; 3102,090;  212,953;11180,039;26,34370
 253,64; 3273,412;  159,100;11919,352;26,48168
 254,24; 3547,251;  214,265;12914,502;26,24349
 254,84; 3737,186;  185,194;13814,933;26,06061
 255,43; 4002,131;  184,183;14851,732;26,02990
 256,03; 4260,693;  190,255;15905,993;25,90039
 256,63; 4528,389;  194,944;17012,116;25,76798
 257,23; 4714,022;  170,483;17967,154;25,53028
 257,82; 4988,230;  202,554;18985,983;25,47818
 258,42; 5136,000;  145,935;19935,819;25,21523
 259,02; 5407,729;  201,184;20864,266;25,19733
 259,62; 5508,376;  183,087;21654,872;24,80133
 260,21; 5655,123;  197,029;22196,203;24,81045
 260,81; 5731,963;  190,268;22801,606;24,50848
 261,41; 5793,040;  177,399;23313,600;24,27210
 262,01; 5906,174;  211,316;23821,639;24,12021
 262,60; 5883,715;  172,944;24241,692;23,72691
 263,20; 5940,869;  176,487;24635,120;23,56788
 263,80; 5943,352;  207,546;24852,328;23,27392
 264,40; 5875,462;  167,317;25095,732;22,89815
 264,99; 5933,995;  195,545;25238,610;22,91433
 265,59; 5900,924;  171,614;25477,207;22,64049
 266,19; 5916,702;  182,546;25585,669;22,57264
 266,78; 5889,736;  226,003;25736,284;22,20177
 267,38; 5830,548;  201,923;25781,847;22,00407
 267,98; 5792,667;  189,696;25840,891;21,84292
 268,58; 5747,296;  194,077;25858,599;21,63773
 269,17; 5669,168;  178,070;25860,805;21,38050
 269,77; 5596,415;  207,403;25655,750;21,17627
 270,37; 5496,481;  166,545;25618,299;20,94133
 270,96; 5452,143;  223,169;25438,167;20,73755
 271,56; 5321,214;  190,174;25228,560;20,49269
 272,16; 5243,770;  182,321;25020,391;20,37779
 272,75; 5184,942;  195,860;25016,044;20,10091
 273,35; 5108,587;  200,708;24855,008;19,90679
 273,95; 5079,292;  192,860;24737,232;19,90856
 274,54; 5015,317;  179,495;24928,455;19,53949
 275,14; 5099,123;  220,401;25139,722;19,57807
 275,74; 5003,725;  169,091;25213,532;19,30422
 276,33; 5078,537;  217,942;25691,686;19,08081
 276,93; 5119,941;  204,036;26054,556;19,01666
 277,53; 5195,004;  193,567;26511,015;19,00426
 278,12; 5263,894;  174,715;27017,644;18,95911
 278,72; 5406,483;  233,104;27762,943;18,79189
 279,32; 5464,499;  192,411;28294,102;18,76075
 279,91; 5577,721;  182,563;28957,693;18,74938
 280,51; 5743,770;  189,798;29510,574;18,94211
 281,11; 5854,008;  200,640;30262,599;18,80572
 281,70; 5965,070;  174,024;30711,540;18,96371
 282,30; 6119,291;  187,021;31444,406;18,97878
 282,90; 6205,567;  185,020;31805,496;19,04003
 283,49; 6330,706;  195,170;32334,427;19,09047
 284,09; 6484,272;  215,177;32725,455;19,28343
 284,69; 6654,810;  221,180;33260,773;19,47249
 285,28; 6716,769;  210,331;33621,729;19,47371
 285,88; 6928,354;  261,859;33732,635;19,91736
 286,47; 6976,217;  203,405;33898,539;20,10027
 287,07; 7109,919;  221,719;33912,914;20,44510
 287,67; 7269,226;  206,806;34022,901;20,88479
 288,26; 7383,240;  188,565;34016,478;21,26846
 288,86; 7566,842;  175,562;34056,750;21,81529
 289,46; 7797,421;  200,718;34230,300;22,32382
 290,05; 8010,385;  191,570;34225,200;22,97379
 290,65; 8303,125;  193,942;34400,326;23,70664
 291,24; 8562,759;  196,104;34523,264;24,37328
 291,84; 8825,466;  214,867;34720,346;24,95429
 292,44; 9123,241;  196,346;34843,036;25,76550
 293,03; 9475,287;  274,566;34928,448;26,55033
 293,63; 9668,546;  187,251;35113,556;27,14657
 294,22;10023,788;  215,871;35285,108;27,96729
 294,82;10199,305;  187,394;35265,138;28,54206
 295,41;10279,916;  173,331;34979,002;29,03718
 296,01;10499,801;  225,089;34862,268;29,66382
 296,61;10577,090;  225,258;34641,414;30,07841
 297,20;10538,630;  200,859;34275,725;30,33841
 297,80;10649,383;  211,803;34039,254;30,85536
 298,39;10607,861;  175,713;33651,009;31,16372
 298,99;10703,779;  223,400;33553,030;31,44463
 299,58;10753,378;  223,420;33451,560;31,68988
 300,18;10763,172;  218,725;33178,930;31,99145
 300,78;10687,152;  196,414;32763,057;32,21314
 301,37;10797,675;  207,236;32759,607;32,53354
 301,97;10824,400;  207,333;32712,436;32,66277
 302,56;10871,563;  200,327;32605,176;32,93098
 303,16;10882,697;  173,556;32422,182;33,20805
 303,75;10938,835;  197,877;32489,889;33,26197
 304,35;11144,824;  179,041;32689,675;33,72983
 304,94;11160,012;  184,026;32786,534;33,66608
 305,54;11212,211;  203,259;32726,019;33,84999
 306,13;11173,226;  170,119;32615,867;33,91233
 306,73;11202,286;  176,500;32401,511;34,21500
 307,33;11218,966;  194,575;32387,508;34,24476
 307,92;11343,615;  217,258;32372,003;34,60254
 308,52;11528,141;  173,555;32855,760;34,74241
 309,11;11757,653;  192,858;33394,380;34,83212
 309,71;11915,492;  167,777;33672,532;35,06283
 310,30;12088,367;  186,411;33821,965;35,38504
 310,90;12340,059;  234,796;34177,350;35,66397
 311,49;12379,251;  207,949;34320,218;35,68013
 312,09;12497,886;  160,802;34482,793;35,94513
 312,68;12857,176;  252,952;34917,591;36,36047
 313,28;12891,077;  174,950;35101,003;36,40871
 313,87;13011,359;  159,411;35171,589;36,70708
 314,47;13159,641;  183,013;35477,156;36,76708
 315,06;13328,437;  179,951;35522,007;37,20351
 315,66;13501,809;  176,186;35733,947;37,47599
 316,25;13485,582;  157,480;35683,007;37,51697
 316,85;13610,708;  165,879;35742,567;37,79112
 317,44;13754,220;  179,551;35869,926;38,03454
 318,04;13852,511;  176,097;35916,590;38,26588
 318,63;13888,835;  165,500;35908,327;38,39465
 319,22;14068,149;  193,788;36093,245;38,64783
 319,82;14111,705;  202,099;35976,755;38,88117
 320,41;14167,014;  202,942;35992,053;39,01765
 321,01;14227,035;  207,724;36146,166;39,00924
 321,60;14378,318;  207,946;36070,930;39,51253
 322,20;14388,381;  173,797;36028,101;39,64541
 322,79;14515,986;  215,566;36180,362;39,76227
 323,39;14590,501;  183,271;36242,924;39,95388
 323,98;14668,057;  172,029;36090,019;40,35868
 324,58;14705,382;  180,863;36020,884;40,52598
 325,17;14703,282;  185,865;35870,151;40,68294
 325,76;14745,527;  209,949;35657,923;41,00538
 326,36;14591,311;  180,493;35334,794;40,99304
 326,95;14609,028;  213,331;35040,737;41,33439
 327,55;14567,257;  179,561;34519,396;41,89798
 328,14;14467,059;  176,804;34236,326;41,95671
 328,74;14360,520;  210,865;33788,296;42,14037
 329,33;14293,633;  208,723;33387,282;42,45184
 329,92;14111,881;  181,704;32810,785;42,69252
 330,52;13890,549;  198,112;32188,411;42,80184
 331,11;13846,328;  186,100;31720,361;43,31869
 331,71;13677,183;  188,179;31220,770;43,46722
 332,30;13486,705;  207,410;30698,073;43,55200
 332,89;13383,747;  253,492;30113,996;43,97198
 333,49;13142,192;  218,331;29589,246;44,00224
 334,08;13045,862;  189,253;29096,811;44,47491
 334,68;12851,278;  199,945;28649,029;44,47009
 335,27;12796,187;  207,729;28405,999;44,64266
 335,86;12770,174;  253,023;28031,208;45,06108
 336,46;12707,722;  202,499;27752,328;45,39129
 337,05;12657,615;  196,484;27515,575;45,61327
 337,65;12603,827;  179,253;27432,691;45,58902
 338,24;12739,948;  232,259;27393,801;46,04926
 338,83;12781,473;  210,952;27260,698;46,47186
 339,43;12742,195;  187,403;27263,797;46,36803
 340,02;12794,411;  186,941;27114,892;46,81927
 340,61;12862,196;  191,105;27199,191;46,91592
 341,21;12954,520;  223,173;27164,989;47,25497
 341,80;12980,149;  185,330;27122,563;47,49864
 342,40;13062,920;  188,189;27247,077;47,58041
 342,99;13225,132;  194,723;27356,765;47,97286
 343,58;13388,325;  183,493;27478,513;48,37817
 344,18;13463,385;  208,416;27601,431;48,38813
 344,77;13718,840;  183,325;27959,751;48,73023
 345,36;13915,028;  163,562;28209,737;49,03152
 345,96;14206,115;  204,108;28494,299;49,49421
 346,55;14378,190;  177,656;28716,329;49,75892
 347,14;14560,644;  175,959;29085,295;49,75792
 347,74;14882,935;  153,510;29550,925;50,10449
 348,33;15306,483;  182,740;30209,862;50,36694
 348,92;15708,453;  207,437;30725,797;50,79243
 349,52;15986,703;  168,666;31257,287;50,88047
 350,11;16273,703;  193,632;31541,063;51,29630
 350,70;16383,395;  186,027;31685,435;51,42118
 351,29;16315,254;  168,003;31461,114;51,60002
 351,89;16445,566;  207,165;31392,717;52,07027
 352,48;16491,056;  162,412;31412,140;52,25212
 353,07;16462,173;  194,498;31342,589;52,22688
 353,67;16580,140;  202,438;31275,378;52,70728
 354,26;16472,347;  189,728;31048,188;52,76549
 354,85;16578,355;  191,110;31019,938;53,15559
 355,45;16471,452;  171,329;30726,474;53,34657
 356,04;16478,541;  184,422;30690,353;53,41295
 356,63;16425,332;  235,332;30434,989;53,60988
 357,22;16385,987;  199,237;30226,312;53,90718
 357,82;16321,934;  196,086;30104,087;53,91817
 358,41;16388,211;  211,718;29983,240;54,33546
 359,00;16303,436;  170,096;29761,074;54,52114
 359,60;16305,476;  193,951;29763,524;54,48684
 360,19;16313,874;  208,193;29572,844;54,84717
 360,78;16260,114;  199,484;29434,366;54,93653
 361,37;16163,464;  192,407;29202,554;55,05335
 361,97;16214,623;  193,871;29156,830;55,31463
 362,56;16097,189;  181,247;28846,136;55,52417
 363,15;16023,096;  249,329;28535,867;55,76422
 363,74;15928,693;  200,090;28197,699;56,17838
 364,34;15702,922;  213,480;27826,455;56,09479
 364,93;15513,877;  196,246;27426,893;56,25144
 365,52;15286,097;  161,715;27035,361;56,27961
 366,11;15184,600;  185,326;26767,506;56,42605
 366,71;14990,380;  171,788;26287,784;56,74144
 367,30;14789,853;  198,023;25978,720;56,59983
 367,89;14716,456;  228,725;25806,704;56,64142
 368,48;14514,855;  196,399;25384,459;56,84620
 369,07;14309,010;  191,104;24999,127;56,90863
 369,67;14182,045;  213,554;24635,535;57,19639
 370,26;13984,326;  174,951;24350,656;57,12088
 370,85;13932,241;  190,408;24181,776;57,27824
 371,44;13778,329;  196,794;23928,164;57,23031
 372,03;13624,317;  175,557;23678,733;57,22103
 372,63;13458,619;  171,485;23427,203;57,13491
 373,22;13340,433;  180,411;23100,841;57,41612
 373,81;13168,307;  169,023;22741,652;57,58870
 374,40;12973,685;  188,573;22536,065;57,21050
 374,99;12837,889;  175,175;22255,171;57,34926
 375,59;12693,086;  178,803;21927,532;57,54030
 376,18;12647,215;  209,330;21828,824;57,53088
 376,77;12535,379;  211,564;21650,650;57,48293
 377,36;12559,132;  216,177;21528,174;57,91553
 377,95;12366,849;  202,712;21280,852;57,70973
 378,55;12301,343;  185,262;21060,243;58,04116
 379,14;12222,121;  203,484;21020,434;57,73486
 379,73;12141,626;  198,866;20886,074;57,73017
 380,32;12171,326;  201,025;20967,569;57,64224
 380,91;12094,586;  183,630;20786,052;57,81338
 381,50;12115,539;  196,094;20788,016;57,88408
 382,10;11950,095;  173,179;20650,569;57,51180
 382,69;11981,551;  171,561;20617,678;57,76153
 383,28;11966,267;  209,710;20536,939;57,83650
 383,87;11844,862;  186,171;20358,768;57,79469
 384,46;11814,798;  168,702;20349,510;57,70877
 385,05;11859,375;  203,632;20343,508;57,87395
 385,64;11808,985;  191,480;20334,968;57,67375
 386,24;11798,791;  175,240;20228,134;57,96446
 386,83;11833,052;  204,931;20334,857;57,76534
 387,42;11876,839;  199,635;20459,728;57,63648
 388,01;12029,311;  193,463;20576,120;58,06823
 388,60;12122,152;  203,242;20827,863;57,78972
 389,19;12246,411;  184,069;21101,875;57,66543
 389,78;12393,329;  180,917;21319,797;57,77228
 390,37;12652,357;  257,005;21778,099;57,59629
 390,96;12802,640;  201,009;21931,882;57,98953
 391,56;12859,950;  197,604;22109,404;57,78780
 392,15;12998,394;  181,688;22334,496;57,85590
 392,74;13091,358;  165,592;22547,688;57,75047
 393,33;13316,344;  191,680;22808,033;58,03174
 393,92;13550,964;  186,355;23277,774;57,87695
 394,51;13632,501;  180,372;23463,397;57,77655
 395,10;13825,217;  214,182;23664,751;58,04138
 395,69;13827,163;  191,185;23849,834;57,63633
 396,28;13985,189;  208,560;23985,185;57,94191
 396,87;14006,562;  201,005;24001,921;58,00431
 397,46;14055,674;  225,763;24097,362;57,93458
 398,06;14218,071;  233,596;24304,566;58,09685
 398,65;14254,873;  204,487;24408,209;58,05052
 399,24;14359,368;  221,865;24575,099;58,05185
 399,83;14290,113;  188,740;24616,465;57,72692
 400,42;14406,402;  230,158;24717,963;57,89104
 401,01;14468,773;  213,724;24823,113;57,92524
 401,60;14480,840;  221,426;24869,234;57,85266
 402,19;14525,962;  246,757;24838,259;58,06561
 402,78;14487,326;  241,521;24874,996;57,83108
 403,37;14317,957;  229,904;24657,434;57,67285
 403,96;14268,848;  230,813;24584,423;57,64252
 404,55;14209,663;  232,018;24486,578;57,62894
 405,14;14118,683;  225,003;24325,384;57,64921
 405,73;14177,257;  236,356;24215,857;58,13675
 406,32;14082,060;  248,205;24158,146;57,85817
 406,91;13897,000;  232,429;23903,949;57,72579
 407,50;13819,114;  240,770;23743,123;57,77440
 408,09;13682,928;  217,586;23438,307;57,98848
 408,68;13582,426;  223,564;23348,146;57,76909
 409,27;13437,553;  216,669;23096,682;57,78355
 409,86;13347,519;  234,427;22907,263;57,83614
 410,45;13326,119;  264,098;22908,280;57,68379
 411,04;13246,028;  257,693;22826,099;57,55097
 411,63;13064,044;  254,536;22601,988;57,31977
 412,22;12928,560;  258,757;22399,880;57,22295
 412,81;12777,963;  262,165;22137,078;57,21531
 413,40;12544,557;  270,118;21770,582;57,08918
 413,99;12390,031;  320,032;21514,368;56,94918
 414,58;12084,691;  245,500;21002,093;57,03822
 415,17;12018,851;  252,165;20794,881;57,27912
 415,76;11858,215;  245,677;20690,617;56,79908
 416,35;11742,955;  241,306;20435,067;56,95645
 416,94;11778,437;  273,837;20468,723;56,96789
 417,53;11845,738;  247,090;20661,892;56,81489
 418,12;11898,397;  250,789;20730,002;56,87527
 418,71;12094,320;  284,196;21138,316;56,63209
 419,30;12097,809;  243,406;21254,449;56,41987
 419,89;12230,188;  238,489;21375,380;56,73350
 420,48;12381,450;  277,427;21641,859;56,65502
 421,07;12393,259;  271,278;21753,803;56,42717
 421,66;12402,674;  232,062;21830,402;56,34976
 422,25;12436,716;  256,011;21813,606;56,50308
 422,84;12355,126;  271,170;21774,986;56,19447
 423,43;12214,231;  243,543;21522,667;56,25555
 424,02;12126,963;  295,856;21273,919;56,39752
 424,60;11777,042;  252,196;20895,165;55,82940
 425,19;11592,918;  272,872;20576,013;55,75515
 425,78;11480,752;  272,566;20533,943;55,31799
 426,37;11426,493;  265,731;20311,570;55,67620
 426,96;11282,305;  261,347;20209,604;55,24772
 427,55;11182,230;  245,441;20098,007;55,09005
 428,14;11036,052;  251,296;19836,295;55,06641
 428,73;10930,874;  261,358;19605,346;55,15675
 429,32;10935,649;  282,422;19611,131;55,11608
 429,91;10886,637;  284,281;19588,850;54,92148
 430,50;10819,999;  273,829;19440,017;55,02487
 431,08;10726,570;  283,454;19350,167;54,77145
 431,67;10619,893;  318,462;19182,511;54,60880
 432,26;10540,659;  331,086;19155,739;54,23512
 432,85;10325,601;  370,314;18684,997;54,35686
 433,44;10187,699;  372,634;18412,188;54,40858
 434,03; 9941,844;  376,958;18036,127;54,16385
 434,62; 9682,396;  339,404;17571,200;54,21949
 435,21; 9572,546;  349,008;17407,817;54,06906
 435,79; 9457,789;  357,875;17202,200;54,02362
 436,38; 9364,629;  346,583;17105,118;53,81166
 436,97; 9300,558;  341,278;17034,240;53,67100
 437,56; 9174,175;  340,148;16753,433;53,82242
 438,15; 9104,560;  318,296;16653,567;53,78708
 438,74; 9073,136;  334,914;16701,368;53,39105
 439,33; 9040,500;  313,603;16706,956;53,23436
 439,91; 9065,905;  270,537;16797,114;53,21954
 440,50; 9128,018;  317,538;16821,882;53,38280
 441,09; 9165,513;  331,321;16962,768;53,11740
 441,68; 9129,103;  300,719;16895,307;53,20038
 442,27; 9105,927;  287,252;16926,060;53,00064
 442,86; 9005,444;  266,821;16917,102;52,48334
 443,44; 9094,312;  283,353;16958,484;52,83892
 444,03; 9112,088;  362,206;17011,572;52,55385
 444,62; 9018,077;  295,206;16877,679;52,60296
 445,21; 8974,752;  284,125;16743,861;52,79931
 445,80; 8883,533;  330,527;16620,048;52,50619
 446,39; 8746,422;  355,677;16340,226;52,49285
 446,97; 8533,573;  289,850;16108,364;52,11439
 447,56; 8391,054;  294,172;15926,377;51,79616
 448,15; 8371,366;  283,311;15814,667;52,07565
 448,74; 8214,133;  303,698;15502,029;52,04805
 449,33; 8103,611;  296,246;15334,790;51,91570
 449,91; 8007,042;  289,955;15119,481;52,03867
 450,50; 7876,934;  290,105;15001,407;51,57143
 451,09; 7782,810;  306,338;14839,679;51,44359
 451,68; 7727,806;  320,114;14679,951;51,58619
 452,26; 7655,963;  321,967;14621,445;51,28856
 452,85; 7607,445;  292,425;14589,803;51,16337
 453,44; 7545,870;  301,292;14524,425;50,93518
 454,03; 7519,534;  292,818;14532,629;50,75008
 454,61; 7484,519;  288,063;14408,138;50,96613
 455,20; 7587,081;  318,378;14606,802;50,87127
 455,79; 7557,538;  313,981;14599,771;50,70463
 456,38; 7619,809;  323,467;14697,326;50,76119
 456,97; 7616,572;  298,233;14764,556;50,58880
 457,55; 7604,626;  300,165;14841,339;50,23295
 458,14; 7628,230;  335,922;14834,503;50,29670
 458,73; 7515,581;  312,859;14726,820;49,97046
 459,31; 7573,706;  343,949;14761,347;50,14606
 459,90; 7541,846;  360,711;14809,037;49,70219
 460,49; 7625,062;  408,784;14942,507;49,65196
 461,08; 7592,142;  308,955;14982,141;49,63603
 461,66; 7634,523;  318,718;15006,878;49,80750
 462,25; 7630,242;  326,808;15146,311;49,28258
 462,84; 7670,713;  339,803;15159,238;49,46822
 463,43; 7550,916;  285,899;15173,534;48,79900
 464,01; 7564,705;  321,136;15166,802;48,79248
 464,60; 7591,051;  369,663;15137,837;48,89831
 465,19; 7405,062;  298,140;14904,298;48,65702
 465,77; 7384,988;  325,609;14883,177;48,49285
 466,36; 7386,388;  348,053;14725,196;48,95503
 466,95; 7160,376;  323,593;14453,511;48,38515
 467,53; 7046,149;  317,463;14207,375;48,44297
 468,12; 6911,267;  360,004;13891,232;48,41588
 468,71; 6777,577;  332,526;13630,874;48,46505
 469,29; 6606,506;  314,621;13356,641;48,24318
 469,88; 6409,288;  331,242;13135,149;47,47024
 470,47; 6504,694;  392,485;13265,570;47,48053
 471,06; 6452,349;  344,178;13220,317;47,43790
 471,64; 6476,121;  337,867;13284,517;47,41191
 472,23; 6465,274;  316,122;13267,731;47,47790
 472,81; 6468,347;  309,418;13414,963;46,99483
 473,40; 6470,127;  312,738;13581,645;46,40464
 473,99; 6656,917;  429,815;13753,277;46,73787
 474,57; 6613,780;  339,891;13879,513;46,33725
 475,16; 6675,020;  340,190;14023,474;46,29613
 475,75; 6742,296;  369,054;14136,680;46,29151
 476,33; 6719,753;  362,295;14221,809;45,87071
 476,92; 6792,045;  357,279;14265,335;46,26647
 477,51; 6781,609;  359,752;14364,120;45,85610
 478,09; 6766,420;  341,522;14420,616;45,63432
 478,68; 6709,546;  348,525;14328,112;45,50221
 479,27; 6729,324;  385,670;14399,919;45,26574
 479,85; 6703,825;  353,063;14334,797;45,42185
 480,44; 6740,571;  340,991;14525,536;45,11657
 481,02; 7153,949;  354,461;15641,632;44,47840
 481,61; 8162,921;  381,919;17838,460;44,57356
 482,20; 8694,156;  365,846;19086,866;44,48641
 482,78; 9043,177;  391,912;19995,974;44,12996
 483,37; 9304,787;  379,244;20514,022;44,32899
 483,95; 9403,307;  421,785;20894,302;43,87112
 484,54; 9473,658;  428,687;21020,824;43,92439
 485,13; 9448,163;  392,334;21004,797;43,93375
 485,71; 9322,114;  377,484;20789,146;43,82117
 486,30; 9238,540;  421,407;20504,103;43,90413
 486,88; 9069,805;  465,487;20102,079;43,81778
 487,47; 8687,609;  419,182;19352,517;43,67126
 488,05; 8346,442;  405,572;18537,919;43,79394
 488,64; 7789,689;  418,428;17242,064;43,81491
 489,23; 7017,972;  419,113;15413,400;44,00916
 489,81; 5967,412;  421,501;13197,316;43,40945
 490,40; 5574,386;  374,656;12419,682;43,16911
 490,98; 5458,432;  374,122;12201,969;42,98593
 491,57; 5348,897;  402,268;12017,048;42,58908
 492,15; 5298,804;  374,047;11982,283;42,42468
 492,74; 5263,523;  384,111;11912,700;42,32445
 493,32; 5226,438;  393,968;11860,619;42,14370
 493,91; 5183,735;  363,821;11670,779;42,62786
 494,50; 5106,213;  372,223;11641,362;42,00844
 495,08; 5089,912;  362,223;11616,013;42,00975
 495,67; 5089,549;  385,281;11611,836;41,90304
 496,25; 4979,498;  329,291;11469,259;41,74345
 496,84; 4948,873;  340,665;11434,149;41,53977
 497,42; 4942,484;  336,602;11368,782;41,74952
 498,01; 4907,417;  362,590;11358,501;41,33197
 498,59; 4838,440;  329,835;11226,340;41,37662
 499,18; 4823,771;  321,284;11196,086;41,40294
 499,76; 4765,167;  355,599;11118,571;40,96979
 500,35; 4690,752;  331,689;10916,098;41,18381
 500,93; 4629,599;  333,525;10882,188;40,72624
 501,52; 4584,541;  331,834;10789,798;40,66477
 502,10; 4586,745;  339,774;10811,006;40,55846
 502,69; 4474,261;  322,395;10642,086;40,23246
 503,27; 4384,406;  301,916;10388,494;40,47448
 503,86; 4322,654;  325,008;10347,452;39,88693
 504,44; 4250,435;  301,706;10188,037;39,94130
 505,03; 4181,292;  292,629;10037,699;39,90390
 505,61; 4124,475;  309,088; 9844,697;40,01199
 506,19; 4083,966;  330,321; 9739,815;39,89211
 506,78; 3921,992;  307,949; 9486,017;39,37695
 507,36; 3887,892;  307,167; 9362,102;39,54447
 507,95; 3806,522;  305,647; 9190,431;39,40304
 508,53; 3744,083;  295,641; 9055,889;39,36466
 509,12; 3688,328;  320,030; 8923,036;39,15257
 509,70; 3690,240;  342,648; 8747,999;39,82691
 510,29; 3610,491;  346,886; 8644,959;39,32967
 510,87; 3483,831;  297,949; 8452,257;39,06993
 511,46; 3417,767;  301,182; 8258,370;39,16691
 512,04; 3398,015;  318,112; 8129,275;39,42950
 512,62; 3336,425;  313,798; 7965,173;39,50436
 513,21; 3210,683;  290,502; 7825,629;38,75424
 513,79; 3193,496;  296,137; 7658,275;39,35485
 514,38; 3094,237;  277,822; 7517,323;38,90344
 514,96; 3095,411;  324,283; 7468,307;38,78946
 515,54; 2992,237;  289,518; 7323,410;38,42423
 516,13; 3006,326;  319,981; 7239,029;38,82535
 516,71; 2923,595;  295,912; 7048,137;38,91581
 517,30; 2837,455;  297,381; 6947,063;38,19843
 517,88; 2837,130;  317,227; 6878,640;38,40488
 518,46; 2782,685;  285,076; 6730,611;38,74945
 519,05; 2740,523;  294,698; 6703,333;38,16453
 519,63; 2697,237;  302,310; 6616,340;37,93025
 520,22; 2712,423;  314,938; 6593,731;38,18386
 520,80; 2643,239;  297,708; 6508,854;37,76325
 521,38; 2658,174;  346,545; 6486,640;37,64811
 521,97; 2600,692;  294,483; 6443,422;37,50580
 522,55; 2575,968;  305,560; 6389,435;37,31845
 523,13; 2594,671;  297,334; 6387,909;37,71955
 523,72; 2552,975;  291,384; 6378,496;37,15376
 524,30; 2620,435;  326,954; 6516,379;37,05483
 524,89; 2595,661;  291,176; 6523,006;36,97927
 525,47; 2618,175;  309,803; 6618,150;36,59234
 526,05; 2619,120;  286,035; 6671,354;36,53827
 526,64; 2682,347;  315,193; 6804,078;36,48015
 527,22; 2713,661;  312,264; 6914,608;36,37188
 527,80; 2751,221;  358,961; 7003,360;36,00416
 528,39; 2752,715;  295,504; 7098,852;36,11767
 528,97; 2803,898;  307,809; 7247,004;35,97087
 529,55; 2849,154;  317,718; 7432,849;35,57820
 530,14; 2924,966;  339,200; 7651,572;35,36153
 530,72; 2945,940;  303,963; 7691,269;35,76374
 531,30; 2966,936;  288,355; 7850,156;35,42252
 531,89; 3016,530;  322,970; 7970,985;35,21907
 532,47; 3044,980;  334,281; 8056,487;35,10266
 533,05; 3039,179;  336,884; 8120,403;34,71816
 533,63; 3074,265;  339,898; 8132,062;35,09124
 534,22; 3068,374;  316,975; 8165,049;35,05826
 534,80; 3097,004;  324,599; 8286,546;34,82069
 535,38; 3195,629;  428,279; 8387,112;34,77080
 535,97; 3110,736;  323,050; 8292,999;34,97746
 536,55; 3139,369;  377,985; 8392,947;34,45286
 537,13; 3149,809;  378,431; 8402,746;34,53725
 537,71; 3152,839;  414,891; 8388,624;34,33710
 538,30; 3187,604;  438,209; 8503,060;34,09108
 538,88; 3188,948;  486,299; 8579,232;33,39517
 539,46; 3305,972;  526,599; 8757,867;33,76604
 540,05; 3346,134;  563,988; 8896,209;33,39021
 540,63; 3410,900;  590,912; 9121,692;33,05663
 541,21; 3474,961;  627,994; 9215,345;33,15303
 541,79; 3509,094;  675,378; 9361,944;32,62182
 542,38; 3592,703;  708,756; 9493,009;32,83087
 542,96; 3610,461;  708,462; 9675,574;32,36268
 543,54; 3703,079;  729,685; 9843,577;32,62485
 544,12; 3695,676;  708,919; 9988,780;32,18536
 544,70; 3722,895;  689,463;10076,676;32,31451
 545,29; 3802,756;  693,987;10209,475;32,67062
 545,87; 3808,017;  679,455;10317,020;32,46216
 546,45; 3731,993;  622,910;10274,433;32,21339
 547,03; 3751,532;  624,530;10355,245;32,13538
 547,62; 3763,186;  580,918;10495,003;32,09845
 548,20; 3876,040;  582,077;10633,114;32,77237
 548,78; 3846,661;  539,787;10763,419;32,34540
 549,36; 3880,058;  506,785;10946,028;32,31339
 549,94; 3896,202;  466,613;11069,248;32,34657
 550,53; 3937,639;  482,628;11307,205;31,91821
 551,11; 3977,856;  436,405;11423,540;32,23271
 551,69; 4078,435;  452,323;11763,498;32,05779
 552,27; 4113,898;  414,624;12006,016;31,91397
 552,85; 4211,045;  410,405;12368,352;31,78338
 553,44; 4338,767;  417,553;12606,340;32,17066
 554,02; 4404,032;  416,172;12948,701;31,82008
 554,60; 4439,738;  360,176;13286,616;31,55983
 555,18; 4556,575;  406,785;13666,087;31,29720
 555,76; 4666,889;  381,095;13938,209;31,61288
 556,34; 4767,021;  392,798;14286,410;31,48370
 556,93; 4859,988;  369,862;14742,172;31,24151
 557,51; 4912,930;  364,106;15086,384;30,89756
 558,09; 5027,188;  384,324;15381,647;30,95795
 558,67; 5114,627;  370,726;15790,824;30,76440
 559,25; 5235,310;  391,185;15994,843;31,04480
 559,83; 5307,222;  368,423;16349,542;30,90396
 560,41; 5375,795;  358,718;16741,412;30,62425
 561,00; 5462,110;  380,573;17058,456;30,46872
 561,58; 5503,151;  365,256;17295,942;30,34664
 562,16; 5597,042;  352,636;17563,758;30,47103
 562,74; 5661,525;  343,172;18019,534;30,08737
 563,32; 5799,411;  340,884;18463,047;30,12072
 563,90; 5892,946;  374,111;18751,178;30,03110
 564,48; 5982,338;  383,409;19141,490;29,84809
 565,06; 6161,679;  369,418;19742,025;29,89923
 565,65; 6363,415;  380,354;20392,804;29,89669
 566,23; 6525,065;  417,727;21174,520;29,42332
 566,81; 6682,345;  365,877;21803,886;29,46387
 567,39; 6928,801;  377,348;22719,322;29,32352
 567,97; 7140,762;  395,417;23375,137;29,35347
 568,55; 7394,865;  408,653;24221,748;29,33769
 569,13; 7553,667;  367,112;24876,340;29,32183
 569,71; 7785,461;  372,944;25867,724;29,07465
 570,29; 8137,782;  416,862;26786,630;29,27944
 570,87; 8356,484;  405,557;27584,995;29,25346
 571,45; 8459,158;  400,111;28290,910;28,89501
 572,03; 8517,118;  355,581;28672,731;28,82189
 572,61; 8725,812;  353,499;29338,205;28,88528
 573,20; 8931,091;  376,952;30011,990;28,86495
 573,78; 9099,575;  371,423;30679,324;28,79827
 574,36; 9260,647;  390,267;31202,664;28,78835
 574,94; 9390,203;  455,967;31659,909;28,63175
 575,52; 9372,958;  394,055;31794,562;28,59477
 576,10; 9567,430;  433,666;32346,027;28,62140
 576,68; 9695,778;  422,273;32898,129;28,55508
 577,26; 9840,837;  451,214;33577,054;28,34531
 577,84; 9973,015;  455,498;34085,120;28,30099
 578,42;10120,258;  499,201;34419,056;28,36409
 579,00;10054,586;  453,885;34499,448;28,19957
 579,58;10081,794;  494,352;34762,836;27,97743
 580,16; 9981,159;  463,510;34720,555;27,78304
 580,74;10044,460;  469,742;34999,443;27,72893
 581,32; 9985,488;  468,507;34998,792;27,56126
 581,90; 9969,721;  496,279;34962,551;27,48612
 582,48; 9930,631;  474,357;35030,909;27,36463
 583,06; 9917,330;  478,276;35274,242;27,12686
 583,64; 9932,490;  484,198;35241,277;27,18379
 584,22; 9813,943;  489,519;35129,513;26,91809
 584,80; 9708,014;  498,124;34846,492;26,81318
 585,38; 9506,926;  517,797;34446,987;26,49379
 585,96; 9449,255;  479,655;34460,178;26,39630
 586,54; 9445,451;  502,209;34444,318;26,34852
 587,12; 9378,535;  464,205;34628,958;26,09218
 587,70; 9407,249;  502,733;34745,450;26,00412
 588,28; 9331,262;  466,205;34788,386;25,82894
 588,86; 9341,422;  472,361;34790,816;25,84341
 589,44; 9269,722;  440,680;34892,229;25,62742
 590,02; 9235,590;  455,062;35066,005;25,36923
 590,59; 9224,552;  438,209;35229,930;25,25412
 591,17; 9285,870;  442,077;35454,411;25,25908
 591,75; 9254,185;  434,300;35548,657;25,11760
 592,33; 9268,395;  449,682;35684,014;25,02875
 592,91; 9265,912;  402,997;35979,050;24,91259
 593,49; 9275,708;  407,618;36252,507;24,74018
 594,07; 9314,886;  431,464;36510,042;24,62243
 594,65; 9310,785;  445,903;36473,655;24,60570
 595,23; 9347,363;  443,908;36899,907;24,42247
 595,81; 9325,540;  413,218;36986,144;24,36863
 596,39; 9321,205;  424,296;37078,246;24,27272
 596,97; 9340,199;  424,304;37280,341;24,19114
 597,55; 9278,731;  421,905;37309,661;24,01020
 598,12; 9195,193;  395,390;37275,975;23,86026
 598,70; 9195,645;  410,845;37385,292;23,75911
 599,28; 9220,830;  414,614;37516,125;23,73546
 599,86; 9149,847;  407,844;37574,361;23,52118
 600,44; 9098,990;  370,694;37647,632;23,41473
 601,02; 9178,782;  425,938;37762,855;23,44287
 601,60; 9068,237;  408,685;37705,661;23,21784
 602,18; 9000,297;  383,851;37747,488;23,06105
 602,75; 8945,854;  386,294;37756,486;22,90478
 603,33; 8950,852;  407,153;37790,142;22,85451
 603,91; 8890,610;  384,395;37721,005;22,78250
 604,49; 8866,639;  415,461;37758,719;22,63107
 605,07; 8874,142;  428,300;37840,623;22,57503
 605,65; 8847,904;  427,926;37978,541;22,42301
 606,23; 8876,628;  487,977;38103,897;22,30080
 606,80; 8839,525;  542,448;38058,931;22,11582
 607,38; 8741,996;  578,085;38170,951;21,71665
 607,96; 8751,396;  634,371;38194,081;21,61099
 608,54; 8779,113;  700,003;38186,986;21,55178
 609,12; 8675,403;  714,294;38354,841;21,15035
 609,70; 8659,917;  747,998;38368,755;21,03073
 610,27; 8561,360;  742,601;38434,389;20,74393
 610,85; 8612,734;  773,305;38529,208;20,76345
 611,43; 8535,634;  762,614;38461,630;20,61863
 612,01; 8427,085;  743,222;38276,607;20,47208
 612,59; 8370,829;  732,690;38270,554;20,34783
 613,16; 8250,964;  684,981;38193,761;20,17123
 613,74; 8222,960;  655,692;38003,668;20,26152
 614,32; 8133,659;  636,003;38082,592;20,02227
 614,90; 8083,029;  578,456;37936,711;20,08813
 615,48; 7901,665;  525,059;37630,400;19,88017
 616,05; 7853,193;  498,672;37543,036;19,85328
 616,63; 7793,414;  507,207;37447,978;19,72403
 617,21; 7765,349;  496,601;37336,804;19,73048
 617,79; 7655,247;  484,296;37268,587;19,49460
 618,36; 7556,121;  482,069;37275,913;19,22618
 618,94; 7414,152;  427,522;36803,429;19,20675
 619,52; 7389,405;  442,670;36682,811;19,16862
 620,10; 7255,533;  427,602;36564,307;18,89472
 620,67; 7169,061;  430,438;36475,273;18,69511
 621,25; 7129,919;  464,993;36341,460;18,57743
 621,83; 7056,547;  440,137;36286,399;18,45774
 622,41; 7037,903;  503,983;36333,853;18,23596
 622,98; 6934,438;  451,899;36021,051;18,22517
 623,56; 6894,503;  446,282;35995,510;18,13885
 624,14; 6814,995;  423,765;35918,701;18,00603
 624,72; 6715,966;  419,137;35827,288;17,78356
 625,29; 6656,074;  412,513;35931,420;17,57813
 625,87; 6694,807;  457,989;35809,835;17,64213
 626,45; 6574,802;  406,049;35661,101;17,49750
 627,02; 6483,482;  414,913;35708,369;17,19460
 627,60; 6471,553;  395,847;35519,474;17,29806
 628,18; 6365,634;  376,064;35613,072;16,99795
 628,76; 6323,740;  377,823;35574,709;16,89330
 629,33; 6308,842;  420,212;35594,440;16,74132
 629,91; 6235,456;  392,064;35549,845;16,62048
 630,49; 6283,910;  423,056;35731,416;16,59905
 631,06; 6221,283;  400,439;35821,413;16,43332
 631,64; 6193,104;  399,281;35757,143;16,38624
 632,22; 6110,883;  366,123;35640,993;16,28570
 632,79; 6128,530;  408,661;35986,595;16,07701
 633,37; 6150,072;  370,838;35965,811;16,23610
 633,95; 6124,421;  384,664;36011,080;16,11096
 634,52; 6045,914;  365,521;36189,746;15,85629
 635,10; 6049,574;  377,294;36134,077;15,86351
 635,68; 6031,201;  365,277;36399,578;15,72370
 636,25; 5958,458;  358,962;36258,939;15,59749
 636,83; 6018,971;  344,746;36618,786;15,64266
 637,41; 5940,731;  355,736;36545,939;15,43234
 637,98; 5982,374;  391,505;36757,760;15,37378
 638,56; 5940,386;  373,653;36902,018;15,23948
 639,13; 5942,420;  348,360;36975,552;15,27297
 639,71; 5963,028;  421,670;37153,186;15,08611
 640,29; 5797,727;  342,516;36922,296;14,91319
 640,86; 5818,019;  351,440;37025,954;14,90566
 641,44; 5732,158;  347,132;37082,535;14,65895
 642,02; 5774,373;  391,825;37072,039;14,67425
 642,59; 5734,511;  341,441;37344,697;14,57458
 643,17; 5650,726;  344,826;37240,431;14,38085
 643,74; 5630,634;  345,519;37332,781;14,28901
 644,32; 5596,926;  368,673;37176,285;14,20427
 644,89; 5575,526;  367,288;37273,866;14,11195
 645,47; 5552,972;  365,520;37273,601;14,05506
 646,05; 5501,418;  362,828;37166,720;13,96208
 646,62; 5422,018;  350,443;37172,070;13,77336
 647,20; 5427,002;  350,598;37345,959;13,72173
 647,77; 5350,217;  330,367;37107,617;13,64934
 648,35; 5298,202;  326,675;37019,429;13,54907
 648,92; 5300,571;  364,906;37109,163;13,43248
 649,50; 5226,478;  326,137;37018,975;13,35503
 650,08; 5196,617;  311,599;37002,864;13,31384
 650,65; 5139,293;  343,523;37153,906;13,02831
 651,23; 5197,893;  310,523;37858,641;13,01629
 651,80; 5346,801;  313,754;38886,914;13,04805
 652,38; 5362,016;  328,678;39315,956;12,91021
 652,95; 5378,154;  313,678;39767,691;12,83640
 653,53; 5390,369;  340,371;39916,195;12,76031
 654,10; 5456,046;  368,910;40112,391;12,79993
 654,68; 5348,800;  313,987;40043,126;12,67285
 655,25; 5310,092;  309,756;40190,399;12,53825
 655,83; 5313,923;  317,141;40149,673;12,54447
 656,40; 5288,292;  352,373;40164,484;12,39803
 656,98; 5188,199;  319,450;40117,296;12,23370
 657,55; 5153,876;  326,989;39966,800;12,17687
 658,13; 5076,245;  326,989;39564,150;12,10397
 658,70; 5034,614;  341,143;39353,577;12,03070
 659,28; 4854,521;  329,682;38518,389;11,84863
 659,85; 4739,198;  352,836;37644,816;11,76221
 660,43; 4670,029;  348,837;37703,627;11,56797
 661,00; 4632,552;  338,760;37690,824;11,49546
 661,58; 4645,228;  332,991;38098,943;11,41832
 662,15; 4633,828;  307,376;38278,293;11,39412
 662,73; 4760,659;  397,915;38514,951;11,44565
 663,30; 4654,105;  341,146;38722,532;11,23711
 663,88; 4620,551;  336,762;38917,882;11,10333
 664,45; 4618,612;  319,608;39128,386;11,07740
 665,03; 4645,366;  335,686;39535,275;10,99420
 665,60; 4756,504;  427,071;39975,317;10,94722
 666,17; 4658,642;  334,225;40085,206;10,87877
 666,75; 4666,088;  328,764;40366,325;10,83314
 667,32; 4731,073;  358,995;40701,444;10,83741
 667,90; 4700,365;  344,841;40865,410;10,74892
 668,47; 4733,965;  363,380;41122,145;10,72305
 669,05; 4682,257;  330,303;41525,418;10,56425
 669,62; 4670,472;  308,227;41570,152;10,57208
 670,19; 4644,995;  318,535;41644,041;10,46922
 670,77; 4655,672;  332,535;41806,699;10,42369
 671,34; 4615,118;  327,151;41733,895;10,35572
 671,92; 4604,333;  330,921;42058,707;10,24117
 672,49; 4614,856;  357,152;42205,442;10,17414
 673,06; 4570,917;  296,229;42138,792;10,21612
 673,64; 4546,363;  315,306;42104,065;10,12487
 674,21; 4492,117;  306,537;42078,646;10,02003
 674,79; 4515,947;  353,538;42393,304; 9,90112
 675,36; 4517,086;  348,307;42591,808; 9,86845
 675,93; 4458,686;  309,923;42368,773; 9,86418
 676,51; 4481,670;  344,539;42560,431; 9,79994
 677,08; 4438,347;  347,155;42653,935; 9,67030
 677,65; 4436,639;  333,232;42768,747; 9,66975
 678,23; 4451,700;  320,694;42960,481; 9,68815
 678,80; 4432,146;  318,079;43157,062; 9,60356
 679,38; 4423,208;  325,156;43234,797; 9,55042
 679,95; 4469,269;  332,310;43585,839; 9,56444
 680,52; 4448,792;  327,464;43712,189; 9,49949
 681,10; 4493,622;  344,696;44094,693; 9,48326
 681,67; 4524,222;  339,234;44358,197; 9,50724
 682,24; 4440,130;  308,389;44439,086; 9,36251
 682,82; 4502,499;  321,081;44980,975; 9,36280
 683,39; 4567,560;  365,697;45322,786; 9,34639
 683,96; 4564,852;  332,544;45596,752; 9,35023
 684,54; 4550,529;  306,467;45884,717; 9,31159
 685,11; 4644,437;  360,237;46233,990; 9,33911
 685,68; 4632,498;  311,468;46585,648; 9,33789
 686,25; 4578,482;  303,391;46650,383; 9,22410
 686,83; 4610,851;  317,161;46974,502; 9,20260
 687,40; 4599,451;  294,315;47295,314; 9,15967
 687,97; 4638,897;  337,854;47525,126; 9,11484
 688,55; 4644,189;  292,085;47628,091; 9,19407
 689,12; 4630,481;  286,470;47867,057; 9,12980
 689,69; 4645,158;  283,701;47921,253; 9,15550
 690,26; 4623,450;  308,778;48096,295; 9,02887
 690,84; 4618,050;  301,009;48252,646; 9,00291
 691,41; 4645,111;  325,164;48323,073; 9,00028
 691,98; 4685,481;  328,779;48542,730; 9,03618
 692,56; 4661,311;  320,780;48735,388; 8,96533
 693,13; 4681,065;  365,318;48732,354; 8,92291
 693,70; 4683,665;  332,857;48950,165; 8,94909
 694,27; 4611,649;  310,396;48987,362; 8,83632
 694,84; 4649,326;  308,243;49159,404; 8,88635
 695,42; 4700,003;  360,935;49321,370; 8,86240
 695,99; 4649,910;  320,705;49499,028; 8,80308
 696,56; 4661,048;  322,090;49347,147; 8,85049
 697,13; 4676,110;  333,321;49731,497; 8,79139
 697,71; 4675,786;  305,706;49833,078; 8,82357
 698,28; 4651,079;  316,245;50208,428; 8,68840
 698,85; 4641,294;  285,476;50168,855; 8,73200
 699,42; 4636,894;  293,322;50374,128; 8,67313
 699,99; 4683,955;  337,861;50482,632; 8,66709
 700,57; 4693,786;  320,092;50544,444; 8,70831
 701,14; 4675,693;  311,170;50638,332; 8,67230
 701,71; 4674,524;  342,401;50861,529; 8,57521
 702,28; 4683,970;  318,093;50900,033; 8,63129
 702,85; 4676,877;  325,709;50990,537; 8,58814
 703,43; 4724,323;  348,171;51200,810; 8,60556
 704,00; 4704,308;  360,941;51443,006; 8,50272
 704,57; 4686,907;  338,095;51548,356; 8,49207
 705,14; 4749,276;  360,634;51643,245; 8,55776
 705,71; 4749,722;  377,788;51681,441; 8,52168
 706,28; 4697,861;  341,711;51600,484; 8,49835
 706,86; 4783,614;  367,404;51881,295; 8,57285
 707,43; 4797,291;  392,558;51784,184; 8,57092
 708,00; 4755,583;  374,020;51829,688; 8,51522
 708,57; 4757,260;  357,174;51758,115; 8,56032
 709,14; 4787,091;  380,252;51864,465; 8,55959
 709,71; 4745,690;  356,175;51958,661; 8,50640
 710,28; 4809,829;  350,945;52143,011; 8,60920
 710,86; 4815,275;  353,637;52296,977; 8,58943
 711,43; 4837,874;  388,561;52232,712; 8,58209
 712,00; 4832,628;  347,099;52462,831; 8,60686
 712,57; 4888,613;  368,792;52613,181; 8,65130
 713,14; 4864,905;  345,485;52694,839; 8,63319
 713,71; 4884,658;  342,716;52622,189; 8,68781
 714,28; 4882,027;  329,562;52587,155; 8,71159
 714,85; 4854,166;  311,486;52370,428; 8,72603
 715,42; 4891,996;  318,179;52488,239; 8,76713
 716,00; 5006,211;  389,717;52650,513; 8,83357
 716,57; 4920,042;  323,410;52897,863; 8,74309
 717,14; 4929,642;  300,487;52773,751; 8,82193
 717,71; 4926,165;  280,872;52697,409; 8,86227
 718,28; 4982,534;  345,411;52941,529; 8,81647
 718,85; 4972,595;  294,796;52799,648; 8,90927
 719,42; 4999,118;  314,719;53093,690; 8,87550
 719,99; 4983,333;  280,874;52844,041; 8,94630
 720,56; 5021,395;  327,489;53152,468; 8,88577
 721,13; 5041,071;  295,413;53200,664; 8,97011
 721,70; 5051,902;  291,336;53172,091; 9,00245
 722,27; 5090,271;  327,029;53200,287; 9,00879
 722,84; 5128,025;  385,875;53456,945; 8,93547
 723,41; 5057,394;  290,107;53359,757; 8,98308
 723,98; 5107,147;  312,953;53547,107; 9,00586
 724,55; 5145,517;  333,030;53651,611; 9,02591
 725,12; 5098,886;  271,877;53561,499; 9,05807
 725,69; 5195,562;  289,493;53752,773; 9,17652
 726,27; 5194,008;  312,031;53853,507; 9,11812
 726,84; 5247,762;  315,186;54174,550; 9,15825
 727,41; 5271,208;  314,878;54087,361; 9,21722
 727,98; 5316,577;  324,648;54389,173; 9,23328
 728,55; 5351,946;  351,648;54299,215; 9,26881
 729,12; 5352,469;  298,341;54383,412; 9,34477
 729,69; 5389,992;  338,572;54596,223; 9,31006
 730,26; 5422,515;  326,342;54893,881; 9,33920
 730,82; 5408,191;  321,342;54664,001; 9,36069
 731,39; 5468,561;  331,650;54859,889; 9,42064
 731,96; 5477,853;  306,574;55130,547; 9,43251
 732,53; 5547,760;  335,882;55288,743; 9,48427
 733,10; 5647,514;  344,343;55336,401; 9,64352
 733,67; 5620,267;  339,575;55680,674; 9,54208
 734,24; 5629,713;  329,498;55314,486; 9,63939
 734,81; 5663,159;  351,960;55457,451; 9,63824
 735,38; 5675,452;  326,114;55160,648; 9,75542
 735,95; 5689,436;  331,499;54940,152; 9,81152
 736,52; 5695,036;  340,961;55244,348; 9,75181
 737,09; 5692,020;  354,654;54918,775; 9,78182
 737,66; 5773,774;  403,577;55065,510; 9,82438
 738,23; 5778,297;  345,424;55071,091; 9,92747
 738,80; 5920,127;  414,809;55413,749;10,00986
 739,37; 5882,727;  371,270;55577,329; 9,98343
 739,94; 5901,866;  340,578;55636,987;10,05723
 740,51; 6020,542;  472,733;55690,645;10,04712
 741,07; 5961,142;  353,502;55597,764;10,15063
 741,64; 5993,665;  374,503;55863,268;10,12667
 742,21; 5991,726;  347,118;55899,157;10,16094
 742,78; 6020,788;  317,580;55685,815;10,30050
 743,35; 6086,157;  338,196;55994,011;10,32769
 743,92; 6190,910;  375,658;55992,746;10,45587
 744,49; 6222,203;  375,428;55892,942;10,53141
 745,06; 6157,418;  345,274;55982,831;10,44644
 745,63; 6214,710;  332,351;55944,873;10,57740
 746,19; 6211,464;  334,659;55946,608;10,56752
 746,76; 6251,371;  338,660;56009,573;10,62083
 747,33; 6265,432;  355,122;55937,000;10,63352
 747,90; 6351,186;  359,583;56211,274;10,72770
 748,47; 6353,940;  355,968;56132,470;10,75358
 749,04; 6385,078;  348,507;56220,743;10,80424
 749,61; 6436,293;  373,738;56133,016;10,87273
 750,17; 6469,047;  359,277;56134,674;10,95424
 750,74; 6517,878;  354,431;56069,563;11,06243
 751,31; 6505,400;  331,663;56056,836;11,07890
 751,88; 6581,539;  326,278;55958,725;11,24391
 752,45; 6604,985;  338,356;56058,613;11,24659
 753,02; 6623,892;  358,048;55964,963;11,26810
 753,58; 6623,646;  332,049;55822,313;11,33820
 754,15; 6655,553;  326,818;55941,202;11,37967
 754,72; 6676,230;  323,895;55777,860;11,45515
 755,29; 6685,984;  310,204;55631,364;11,52503
 755,86; 6756,737;  316,896;55711,868;11,62532
 756,42; 6804,876;  330,512;55701,141;11,69278
 756,99; 6741,783;  291,974;55721,106;11,63614
 757,56; 6772,614;  300,436;55504,764;11,72404
 758,13; 6741,214;  254,205;55387,884;11,76596
 758,70; 6900,737;  277,360;55463,849;12,00181
 759,26; 6899,798;  266,283;55611,968;11,98560
 759,83; 7002,167;  282,283;55725,934;12,12020
 760,40; 6973,074;  254,284;55604,130;12,13877
 760,97; 6986,751;  253,130;55511,250;12,18576
 761,53; 6990,043;  238,746;55224,369;12,27830
 762,10; 6976,489;  226,439;55091,411;12,30302
 762,67; 7028,858;  267,747;55061,685;12,33916
 763,24; 6994,151;  220,209;54714,881;12,43047
 763,80; 7032,673;  260,055;54863,231;12,40334
 764,37; 7000,735;  264,517;54886,350;12,33246
 764,94; 6980,181;  256,979;54448,085;12,40647
 765,50; 7020,550;  261,595;54363,897;12,49292
 766,07; 7148,688;  305,441;54565,170;12,61202
 766,64; 7098,903;  285,672;54260,905;12,62288
 767,21; 7159,349;  280,442;54071,639;12,78817
 767,77; 7140,949;  308,134;54050,067;12,71412
 768,34; 7206,472;  314,673;54016,263;12,83351
 768,91; 7201,841;  327,058;53876,228;12,83826
 769,47; 7241,364;  327,905;53913,732;12,90166
 770,04; 7258,887;  320,905;53773,775;12,97962
 770,61; 7294,179;  300,752;53592,663;13,12287
 771,18; 7267,779;  295,829;53376,936;13,13452
 771,74; 7346,071;  313,829;53561,671;13,20662
 772,31; 7371,594;  311,291;53366,021;13,30758
 772,88; 7382,424;  290,753;53131,910;13,42073
 773,44; 7370,947;  296,830;53045,491;13,41099
 774,01; 7426,393;  317,831;53152,764;13,45429
 774,58; 7421,378;  305,062;52650,345;13,59495
 775,14; 7450,747;  286,447;52948,387;13,60432
 775,71; 7489,424;  302,832;52857,353;13,67455
 776,27; 7598,331;  368,371;52715,395;13,81160
 776,84; 7689,931;  397,525;52833,438;13,90727
 777,41; 7637,223;  311,987;52554,249;14,02167
 777,97; 7582,977;  308,295;52285,215;13,99598
 778,54; 7653,730;  303,526;52279,488;14,14155
 779,11; 7689,946;  326,988;52323,607;14,16045
 779,67; 7701,315;  288,527;52191,727;14,28195
 780,24; 7717,914;  307,450;52040,077;14,32455
 780,80; 7774,053;  324,835;52063,427;14,39780
 781,37; 7774,729;  324,758;51949,700;14,43095
 781,94; 7815,637;  313,451;51784,743;14,57548
 782,50; 7806,929;  317,144;51658,554;14,58820
 783,07; 7819,529;  337,529;51743,289;14,55479
 783,63; 7837,821;  304,683;51456,332;14,72707
 784,20; 7873,421;  339,376;51300,528;14,78390
 784,77; 7810,021;  311,453;51225,186;14,72799
 785,33; 7847,313;  294,915;50983,074;14,89973
 785,90; 7925,143;  303,915;51032,809;15,02345
 786,46; 7928,359;  322,839;50900,159;15,03741
 787,03; 7910,420;  301,993;50652,278;15,11099
 787,59; 7936,712;  298,224;50513,936;15,21135
 788,16; 7961,543;  313,301;50510,517;15,23639
 788,73; 8042,296;  312,071;50512,483;15,39873
 789,29; 7985,204;  285,840;50073,679;15,46435
 789,86; 8030,650;  328,687;49922,875;15,52997
 790,42; 8076,634;  301,918;49712,533;15,73491
 790,99; 7991,234;  311,688;49431,806;15,63422
 791,55; 8059,142;  296,380;49395,233;15,81047
 792,12; 8089,280;  334,996;49436,045;15,79250
 792,68; 8098,726;  312,842;49136,549;15,94693
 793,25; 8093,941;  306,612;48929,591;16,01574
 793,81; 8163,002;  383,305;48567,865;16,14562
 794,38; 8044,141;  277,074;48364,061;16,15212
 794,94; 8085,048;  281,075;48267,103;16,26301
 795,51; 8081,802;  315,075;47920,300;16,31486
 796,07; 8052,325;  294,614;47741,650;16,35025
 796,64; 8135,925;  325,768;47878,769;16,42411
 797,20; 8067,524;  303,307;47325,427;16,51184
 797,77; 8047,970;  274,692;47092,700;16,60318
 798,33; 8074,878;  310,384;46897,743;16,66652
 798,90; 8123,401;  318,769;46832,554;16,77918
 799,46; 8092,385;  290,924;46419,674;16,91236
 800,03; 8086,600;  307,539;46231,408;16,93904
 800,59; 8117,508;  311,078;46110,143;17,04495
 801,15; 8105,492;  320,694;45870,109;17,09089
 801,72; 8108,477;  300,694;45530,997;17,26228
 802,28; 8090,692;  328,310;45259,578;17,27612
 802,85; 8022,138;  302,618;45098,005;17,23285
 803,41; 8049,276;  289,849;44987,740;17,35972
 803,98; 8008,568;  294,003;44489,628;17,45549
 804,54; 8052,322;  290,465;44177,363;17,68605
 805,11; 8046,153;  311,004;44040,252;17,68873
 805,67; 8058,291;  322,389;43948,294;17,73236
 806,23; 8023,122;  307,543;43562,798;17,83732
 806,80; 8073,029;  320,698;43519,687;17,94563
 807,36; 8066,014;  333,698;43446,575;17,93505
 807,93; 8100,229;  345,314;43091,618;18,14172
 808,49; 8006,444;  296,468;42657,968;18,20043
 809,05; 8056,121;  279,314;42565,241;18,39100
 809,62; 8053,797;  306,238;42518,053;18,35401
 810,18; 8063,782;  305,930;42428,711;18,41724
 810,74; 8014,997;  271,239;42170,753;18,48174
 811,31; 8010,751;  273,470;41899,949;18,58740
 811,87; 8069,351;  306,393;41779,299;18,71814
 812,44; 8171,643;  319,778;41752,265;18,95099
 813,00; 8061,166;  250,009;41412,769;18,97627
 813,56; 8185,919;  299,471;41490,811;19,14589
 814,13; 8165,827;  287,933;41363,315;19,17911
 814,69; 8184,734;  281,549;41238,973;19,29610
 815,25; 8123,950;  254,241;40772,477;19,42263
 815,82; 8180,319;  299,165;40720,673;19,49743
 816,38; 8213,611;  331,242;40600,100;19,57435
 816,94; 8145,826;  264,781;40284,912;19,69270
 817,51; 8175,195;  257,012;40110,185;19,86839
 818,07; 8143,795;  256,397;39827,074;19,93243
 818,63; 8137,395;  291,090;39544,732;19,98873
 819,20; 8153,994;  277,552;39453,005;20,10556
 819,76; 8152,287;  256,552;39198,432;20,27569
 820,32; 8196,502;  303,937;38981,551;20,40603
 820,89; 8173,025;  282,091;38803,901;20,48433
 821,45; 8056,086;  267,630;38485,944;20,37886
 822,01; 8102,070;  288,784;38235,371;20,59022
 822,57; 8121,132;  286,400;38185,336;20,67270
 823,14; 8055,962;  245,323;37953,917;20,71315
 823,70; 8012,101;  258,785;37624,267;20,74994
 824,26; 8042,162;  259,862;37509,541;20,89226
 824,82; 8067,916;  300,094;37435,352;20,91765
 825,39; 7992,977;  263,940;37111,241;20,97586
 825,95; 8060,115;  290,171;37266,206;21,01346
 826,51; 8066,254;  274,018;36743,710;21,36633
 827,08; 8132,007;  315,249;36809,907;21,41891
 827,64; 8098,530;  297,249;36649,180;21,46043
 828,20; 8009,207;  257,403;36443,299;21,42217
 828,76; 8080,422;  296,173;36381,188;21,57197
 829,32; 8088,099;  313,635;36132,615;21,70487
 829,89; 8034,391;  249,866;36017,657;21,76406
 830,45; 8120,222;  271,174;36062,315;21,93014
 831,01; 8067,360;  279,405;35843,896;21,89812
 831,57; 8093,267;  283,175;35652,708;22,08141
 832,14; 8095,790;  258,637;35711,366;22,10592
 832,70; 8043,082;  260,099;35426,331;22,13198
 833,26; 8068,605;  233,945;35366,373;22,30037
 833,82; 8089,897;  268,484;35296,031;22,32932
 834,38; 8136,959;  257,330;35233,689;22,52844
 834,95; 8131,712;  255,715;35182,193;22,55022
 835,51; 8079,082;  243,254;35039,466;22,51920
 836,07; 8144,528;  271,255;35112,201;22,59776
 836,63; 8180,050;  304,870;35036,859;22,67414
 837,19; 8154,573;  277,717;34829,286;22,79739
 837,75; 8117,712;  245,948;34607,559;22,90860
 838,32; 8232,850;  290,487;34752,602;23,04665
 838,88; 8277,142;  290,718;34674,259;23,22746
 839,44; 8289,126;  294,411;34681,456;23,24921
 840,00; 8276,880;  276,488;34592,652;23,31377
 840,56; 8264,711;  262,181;34297,540;23,51240
 841,12; 8225,618;  260,489;34213,660;23,45916
 841,68; 8216,372;  238,412;34080,395;23,57415
 842,25; 8296,202;  253,566;34154,052;23,72425
 842,81; 8265,187;  258,567;33854,479;23,83213
 843,37; 8225,941;  243,028;33824,753;23,77160
 843,93; 8292,694;  264,260;33801,257;23,93904
 844,49; 8349,909;  281,491;33788,914;24,07950
 845,05; 8330,125;  226,414;33613,957;24,27166
 845,61; 8437,648;  278,184;33598,845;24,48770
 846,17; 8362,632;  262,338;33423,196;24,42728
 846,73; 8364,463;  272,031;33429,700;24,40591
 847,29; 8352,524;  249,492;33178,127;24,60786
 847,86; 8382,508;  250,647;33157,861;24,71149
 848,42; 8366,493;  244,416;33008,442;24,78962
 848,98; 8429,170;  267,186;32922,562;24,99430
 849,54; 8491,769;  250,340;32905,066;25,23809
 850,10; 8484,292;  262,725;32723,185;25,32794
 850,66; 8418,431;  241,033;32620,150;25,25516
 851,22; 8443,338;  240,418;32551,501;25,38733
 851,78; 8458,861;  284,034;32665,620;25,24530
 852,34; 8451,538;  269,419;32323,124;25,52628
 852,90; 8423,445;  252,573;32188,320;25,58535
 853,46; 8408,891;  242,727;31997,670;25,71620
 854,02; 8481,491;  266,881;32021,020;25,86941
 854,58; 8414,783;  252,036;31732,217;25,92980
 855,14; 8437,383;  242,728;31675,105;26,07074
 855,70; 8457,291;  230,498;31478,609;26,32733
 856,26; 8433,813;  261,652;31426,959;26,22198
 856,82; 8366,413;  249,575;31362,002;26,08873
 857,38; 8513,936;  301,730;31168,583;26,60526
 857,94; 8417,382;  260,730;31128,625;26,42439
 858,50; 8475,520;  272,577;30932,668;26,75447
 859,06; 8416,428;  258,731;30843,633;26,67230
 859,62; 8480,258;  280,577;30800,368;26,86677
 860,18; 8463,781;  266,347;30540,795;27,07707
 860,74; 8408,304;  236,116;30480,376;27,02062
 861,30; 8382,519;  239,271;30208,034;27,17246
 861,86; 8502,119;  311,117;30398,922;27,22366
 862,42; 8461,796;  251,579;30109,349;27,49776
 862,98; 8522,242;  286,810;30098,776;27,62458
 863,54; 8426,765;  251,503;29904,203;27,57004
 864,10; 8489,365;  268,119;29954,015;27,69411
 864,66; 8459,195;  228,888;29743,904;27,88515
 865,22; 8455,795;  247,273;29580,946;27,98327
 865,78; 8434,857;  260,889;29447,373;28,00600
 866,34; 8439,764;  246,428;29419,031;28,08572
 866,90; 8439,364;  258,274;29261,150;28,20786
 867,45; 8448,579;  250,813;29022,039;28,49293
 868,01; 8375,025;  244,583;28907,543;28,36568
 868,57; 8364,625;  249,045;28737,278;28,48748
 869,13; 8382,225;  237,506;28576,012;28,74082
 869,69; 8356,363;  240,199;28538,901;28,68034
 870,25; 8329,194;  236,969;28389,482;28,74424
 870,81; 8393,255;  245,046;28317,832;29,02530
 871,37; 8375,932;  269,662;28271,259;28,94931
 871,93; 8348,378;  283,739;28096,686;28,99599
 872,49; 8354,439;  296,893;27928,728;29,16037
 873,04; 8260,270;  240,817;27787,309;29,11243
 873,60; 8258,716;  240,894;27667,890;29,23332
 874,16; 8303,623;  271,433;27518,163;29,47946
 874,72; 8306,469;  254,433;27458,856;29,59826
 875,28; 8287,162;  251,433;27358,933;29,64393
 875,84; 8290,085;  261,817;27373,779;29,61153
 876,40; 8348,546;  243,510;27305,779;29,94958
 876,95; 8409,777;  247,356;27243,010;30,23606
 877,51; 8494,777;  283,202;27220,471;30,48407
 878,07; 8482,623;  290,971;27186,010;30,45786
 878,63; 8497,546;  258,048;27179,163;30,60608
 879,19; 8575,008;  264,740;27231,625;30,81656
 879,75; 8561,777;  254,279;27203,010;30,82705
 880,30; 8567,315;  246,048;27291,010;30,76827
 880,86; 8679,931;  299,433;27390,625;30,93440
 881,42; 8639,085;  233,510;27328,933;31,02212
 881,98; 8788,623;  264,894;27395,548;31,41734
 882,54; 8849,238;  241,356;27527,625;31,54657
 883,09; 8896,315;  265,433;27595,548;31,58012
 883,65; 8985,623;  250,433;27656,548;31,87314
 884,21; 9090,623;  294,202;27779,240;32,00440
 884,77; 9089,854;  235,587;27917,548;31,98569
 885,32; 9182,238;  258,279;28054,702;32,10470
 885,88; 9278,392;  280,894;28194,779;32,23306
 886,44; 9291,700;  255,971;28265,779;32,25916
 887,00; 9365,854;  273,971;28209,394;32,54607
 887,56; 9486,469;  256,894;28435,010;32,75441
 888,11; 9503,315;  269,663;28349,702;32,88333
 888,67; 9584,315;  277,740;28548,394;32,91956
 889,23; 9612,238;  254,125;28482,010;33,15202
 889,79; 9590,008;  244,356;28431,856;33,15531
 890,34; 9655,085;  268,125;28384,163;33,38649
 890,90; 9763,238;  333,202;28557,779;33,41073
 891,46; 9706,623;  244,202;28416,471;33,58771
 892,01; 9726,469;  267,048;28408,933;33,61332
 892,57; 9749,854;  296,048;28336,240;33,71520
 893,13; 9660,700;  243,663;28152,471;33,74217
 893,69; 9717,392;  236,048;28070,625;34,06319
 894,24; 9694,931;  248,125;27938,933;34,11531
 894,80; 9733,854;  255,202;27894,010;34,29472
 895,36; 9677,623;  243,356;27727,471;34,32625
 895,91; 9620,162;  249,433;27520,779;34,36108
 896,47; 9681,469;  272,125;27423,548;34,65507
 897,03; 9651,931;  246,663;27244,394;34,83725
 897,58; 9616,546;  255,433;27167,779;34,78371
 898,14; 9596,162;  262,433;27009,779;34,89591
 898,70; 9597,777;  214,125;26779,856;35,32239
 899,25; 9622,008;  254,971;26867,240;35,19819
 899,81; 9654,315;  259,740;26652,471;35,59531
 900,37; 9583,392;  211,279;26454,163;35,71297
 900,92; 9705,008;  248,433;26442,163;36,10244
 901,48; 9586,623;  236,510;26289,856;35,88834
 902,03; 9618,469;  237,048;26127,163;36,23553
 902,59; 9566,238;  239,048;26029,856;36,16479
 903,15; 9626,469;  262,356;25902,163;36,52178
 903,70; 9535,162;  241,279;25715,010;36,48418
 904,26; 9520,854;  237,587;25565,471;36,65236
 904,82; 9632,238;  241,510;25528,702;37,13630
 905,37; 9579,392;  252,587;25409,625;37,07434
 905,93; 9535,162;  231,510;25257,163;37,17646
 906,48; 9544,392;  249,202;25269,240;37,15098
 907,04; 9561,700;  254,817;25191,933;37,32141
 907,60; 9528,623;  250,587;24960,010;37,54858
 908,15; 9453,315;  236,279;24885,010;37,39355
 908,71; 9482,315;  260,971;24848,548;37,50408
 909,26; 9434,085;  230,740;24733,163;37,56096
 909,82; 9436,469;  255,279;24547,548;37,79470
 910,37; 9443,700;  279,894;24504,317;37,82879
 910,93; 9370,085;  235,817;24324,625;37,91913
 911,48; 9381,854;  211,279;24223,548;38,19121
 912,04; 9319,623;  229,510;24064,779;38,13724
 912,60; 9386,315;  243,356;24029,163;38,43872
 913,15; 9359,700;  245,048;23886,394;38,55386
 913,71; 9319,315;  225,587;23652,856;38,81685
 914,26; 9271,162;  218,740;23636,010;38,65703
 914,82; 9269,469;  247,740;23560,856;38,69808
 915,37; 9260,546;  230,663;23486,856;38,82786
 915,93; 9293,085;  303,202;23381,471;38,95389
 916,48; 9233,008;  221,817;23217,548;39,18636
 917,04; 9327,854;  259,663;23063,394;39,76626
 917,59; 9287,238;  270,740;23124,548;39,45294
 918,15; 9225,315;  205,202;22832,394;39,86404
 918,70; 9151,931;  230,817;22744,933;39,62453
 919,26; 9178,546;  240,740;22600,702;39,97237
 919,81; 9083,854;  219,433;22460,471;39,85615
 920,37; 9131,162;  245,433;22430,317;40,05308
 920,92; 9169,777;  263,125;22403,625;40,22787
 921,48; 9084,777;  223,894;22091,394;40,52079
 922,03; 9102,162;  233,048;22110,163;40,54060
 922,59; 9068,392;  232,817;22055,702;40,48766
 923,14; 9043,623;  244,510;21812,163;40,79773
 923,69; 9048,700;  254,510;21781,163;40,85257
 924,25; 9072,623;  265,048;21795,010;40,90846
 924,80; 8980,162;  239,587;21542,471;41,03001
 925,36; 8968,854;  225,202;21428,625;41,23698
 925,91; 8941,008;  219,048;21370,010;41,23671
 926,47; 8907,854;  217,279;21331,394;41,16002
 927,02; 8956,777;  291,971;21219,317;41,40423
 927,57; 8796,700;  225,279;21006,087;41,24681
 928,13; 8867,392;  225,279;20948,010;41,70355
 928,68; 8832,546;  233,817;20900,933;41,60585
 929,24; 8767,546;  201,971;20710,625;41,76566
 929,79; 8807,931;  219,587;20580,240;42,18108
 930,34; 8758,700;  226,356;20442,317;42,20598
 930,90; 8738,008;  225,663;20414,856;42,16288
 931,45; 8756,008;  231,894;20431,779;42,19882
 932,01; 8735,854;  235,048;20330,317;42,30252
 932,56; 8712,085;  250,663;20097,779;42,63300
 933,11; 8788,392;  258,587;20132,548;42,91950
 933,67; 8653,162;  220,202;19943,317;42,75673
 934,22; 8660,162;  230,125;19903,317;42,85037
 934,77; 8637,162;  252,202;19720,779;43,06920
 935,33; 8645,392;  232,971;19621,779;43,38803
 935,88; 8569,238;  239,202;19570,317;43,09134
 936,43; 8559,085;  228,740;19440,933;43,35968
 936,99; 8509,854;  232,202;19387,779;43,21275
 937,54; 8454,546;  204,894;19253,394;43,30867
 938,09; 8477,854;  237,587;19226,317;43,39557
 938,65; 8432,700;  237,433;19047,317;43,56894
 939,20; 8387,085;  210,356;19020,779;43,46914
 939,75; 8363,623;  214,740;18954,471;43,48452
 940,31; 8328,700;  213,125;18819,933;43,61616
 940,86; 8369,546;  225,740;18780,163;43,89145
 941,41; 8365,238;  315,510;18720,317;43,73710
 941,96; 8294,931;  220,048;18550,471;44,05181
 942,52; 8235,469;  222,125;18442,856;43,97927
 943,07; 8156,392;  199,740;18381,087;43,76272
 943,62; 8138,469;  217,587;18287,010;43,83584
 944,18; 8122,315;  209,971;18255,317;43,84701
 944,73; 8108,777;  234,433;18020,240;44,27319
 945,28; 8002,162;  196,894;17911,933;44,06012
 945,83; 8068,931;  221,663;17909,087;44,36637
 946,39; 8084,623;  218,279;17914,702;44,45161
 946,94; 7976,854;  243,817;17736,010;44,20850
 947,49; 7973,392;  216,510;17631,625;44,54109
 948,04; 8032,085;  262,356;17690,317;44,58197
 948,59; 7937,546;  241,971;17645,163;44,21933
 949,15; 7953,469;  207,740;17503,625;44,78365
 949,70; 7906,623;  229,433;17385,471;44,74920
 950,25; 7904,085;  231,663;17277,010;45,01182
 950,80; 7880,469;  186,663;17122,702;45,42860
 951,36; 7839,238;  192,587;17124,548;45,16105
 951,91; 7938,162;  243,356;17139,933;45,54062
 952,46; 7818,238;  202,663;16908,394;45,58660
 953,01; 7807,315;  236,202;16897,010;45,44266
 953,56; 7800,315;  201,125;16755,471;45,90450
 954,11; 7791,085;  234,663;16748,317;45,75863
 954,67; 7775,238;  218,894;16653,087;45,97941
 955,22; 7692,931;  196,279;16463,625;46,08405
 955,77; 7720,546;  243,894;16551,240;45,84837
 956,32; 7696,315;  281,894;16403,163;45,99155
 956,87; 7625,085;  216,433;16257,240;46,18628
 957,42; 7646,085;  230,125;16189,933;46,46647
 957,98; 7604,546;  217,587;16138,933;46,39658
 958,53; 7659,008;  248,356;16123,010;46,68229
 959,08; 7591,854;  204,356;15932,779;46,96910
 959,63; 7558,085;  209,817;15836,471;47,02393
 960,18; 7560,623;  240,433;15843,548;46,91493
 960,73; 7544,008;  224,048;15819,087;46,93775
 961,28; 7510,777;  206,663;15655,010;47,28088
 961,83; 7560,931;  247,894;15641,548;47,50683
 962,39; 7522,008;  203,894;15504,702;47,82828
 962,94; 7512,008;  224,663;15445,163;47,87848
 963,49; 7446,700;  227,202;15295,779;47,91095
 964,04; 7496,315;  228,971;15216,548;48,48912
 964,59; 7465,700;  203,125;15139,317;48,62401
 965,14; 7453,392;  244,894;15098,856;48,52913
 965,69; 7369,315;  237,202;14957,163;48,45198
 966,24; 7350,162;  217,279;14840,317;48,77839
 966,79; 7322,777;  237,048;14789,394;48,69132
 967,34; 7249,777;  205,510;14734,856;48,48303
 967,89; 7294,777;  216,663;14617,625;49,15028
 968,44; 7271,777;  222,740;14560,933;49,16266
 968,99; 7184,546;  229,433;14552,625;48,55840
 969,55; 7206,854;  227,356;14408,625;49,21631
 970,10; 7176,623;  236,048;14297,702;49,35817
 970,65; 7148,777;  253,971;14166,471;49,55835
 971,20; 7104,777;  207,817;14077,240;49,72780
 971,75; 7025,623;  196,433;13935,163;49,70758
 972,30; 7024,623;  232,587;13902,010;49,68781
 972,85; 7008,854;  212,817;13824,240;49,92892
 973,40; 6938,315;  217,971;13728,163;49,74277
 973,95; 6969,931;  234,740;13695,010;50,03756
 974,50; 6916,238;  256,202;13630,317;49,79796
 975,05; 6914,546;  232,356;13502,240;50,35605
 975,60; 6883,238;  246,587;13442,010;50,29511
 976,15; 6853,623;  220,356;13283,010;50,78040
 976,70; 6848,392;  228,663;13184,856;51,09317
 977,25; 6858,315;  245,740;13159,010;51,20760
 977,80; 6809,700;  227,356;13054,240;51,31678
 978,35; 6713,008;  239,279;12839,394;51,37833
 978,89; 6711,623;  204,817;12779,702;51,74446
 979,44; 6708,392;  226,048;12821,779;51,46461
 979,99; 6581,008;  212,817;12606,625;51,38203
 980,54; 6626,931;  247,125;12527,010;51,95330
 981,09; 6559,162;  256,279;12521,856;51,38676
 981,64; 6538,008;  241,663;12382,933;51,85903
 982,19; 6570,315;  276,894;12315,933;52,27511
 982,74; 6484,623;  241,048;12229,010;52,08204
 983,29; 6431,854;  219,587;12037,625;52,56598
 983,84; 6411,700;  226,740;11923,702;52,87663
 984,39; 6510,392;  318,202;11991,625;53,04520
 984,94; 6335,854;  204,894;11736,779;53,16529
 985,49; 6346,162;  263,587;11708,163;53,14810
 986,03; 6319,392;  262,971;11659,548;53,14246
 986,58; 6271,623;  288,356;11489,240;53,41781
 987,13; 6202,008;  237,202;11355,394;53,64906
 987,68; 6193,700;  258,510;11278,625;53,85779
 988,23; 6161,008;  254,356;11222,317;53,85369
 988,78; 6063,008;  236,356;11108,548;53,59224
 989,33; 6010,854;  249,202;11009,548;53,54523
 989,88; 5992,008;  273,510;10959,625;53,51335
 990,42; 5905,162;  236,971;10761,856;53,85513
 990,97; 5819,238;  240,202;10640,163;53,64478
 991,52; 5830,008;  255,356;10569,779;54,04715
 992,07; 5850,700;  270,817;10517,317;54,45647
 992,62; 5756,315;  241,279;10391,856;54,33225
 993,17; 5703,469;  255,356;10232,933;54,60357
 993,71; 5718,931;  258,587;10219,010;54,82040
 994,26; 5602,700;  227,817; 9997,471;55,01610
 994,81; 5632,162;  257,587;10026,471;55,01728
 995,36; 5532,392;  233,663; 9858,779;55,05107
 995,91; 5535,469;  246,356; 9744,163;55,68773
 996,45; 5497,392;  243,048; 9689,625;55,62167
 997,00; 5372,854;  218,125; 9582,010;55,04904
 997,55; 5431,162;  251,356; 9489,933;56,06714
 998,10; 5350,777;  269,433; 9388,933;55,71955
 998,65; 5340,008;  237,356; 9351,163;55,98815
 999,19; 5316,854;  263,510; 9219,625;56,42339
 999,74; 5228,854;  283,587; 9113,163;56,00798
1000,29; 5160,238;  254,356; 9071,317;55,64142
1000,84; 5117,546;  247,356; 8884,625;56,38577
1001,38; 5058,931;  251,510; 8792,087;56,28919
1001,93; 5018,777;  246,125; 8761,702;56,04614
1002,48; 4948,392;  226,971; 8619,087;56,26020
1003,03; 4943,700;  254,433; 8565,471;56,42216
1003,57; 4908,854;  255,279; 8497,317;56,46146
1004,12; 4853,777;  288,048; 8389,702;56,35552
1004,67; 4785,777;  238,202; 8254,087;56,73204
1005,22; 4699,085;  229,279; 8159,702;56,36277
1005,76; 4643,085;  218,279; 8040,548;56,56678
1006,31; 4634,469;  257,202; 7979,240;56,68539
1006,86; 4561,546;  234,740; 7830,087;56,96654
1007,40; 4480,931;  216,663; 7735,856;56,71177
1007,95; 4474,392;  239,663; 7658,625;57,07981
1008,50; 4402,392;  248,587; 7545,702;56,92394
1009,04; 4354,238;  236,048; 7434,240;57,21145
1009,59; 4320,700;  247,971; 7270,317;57,99670
1010,14; 4266,085;  228,279; 7237,087;57,61045
1010,68; 4191,700;  243,433; 7149,548;57,17060
1011,23; 4189,315;  227,587; 6996,548;58,52787
1011,78; 4137,085;  253,894; 6943,856;58,04503
1012,32; 4085,238;  272,125; 6822,394;58,21308
1012,87; 4091,392;  269,894; 6837,548;58,18665
1013,42; 4008,008;  225,048; 6690,702;58,50854
1013,96; 4038,315;  270,125; 6717,240;58,44770
1014,51; 3958,008;  207,817; 6585,163;58,80487
1015,06; 3977,777;  216,202; 6554,240;59,34920
1015,60; 4063,854;  275,817; 6607,087;59,83060
1016,15; 4011,777;  230,663; 6560,856;59,73142
1016,69; 4015,238;  237,202; 6614,856;59,23866
1017,24; 4043,854;  223,433; 6589,394;60,01326
1017,79; 4116,777;  277,510; 6636,317;60,37716
1018,33; 4109,392;  231,510; 6634,779;60,56098
1018,88; 4128,546;  251,971; 6665,548;60,44326
1019,42; 4133,315;  231,971; 6630,163;60,97573
1019,97; 4132,623;  227,894; 6621,625;61,07121
1020,51; 4210,931;  268,356; 6689,548;61,39942
1021,06; 4186,008;  227,125; 6628,625;61,84305
1021,61; 4159,469;  201,740; 6623,933;61,62582
1022,15; 4175,162;  188,510; 6586,702;62,30904
1022,70; 4184,623;  241,740; 6589,856;62,11107
1023,24; 4183,315;  217,971; 6503,702;63,08486
1023,79; 4140,931;  225,356; 6506,702;62,33656
1024,33; 4111,623;  217,817; 6428,010;62,70024
1024,88; 4098,931;  244,817; 6364,010;62,98402
1025,42; 4030,700;  249,971; 6247,702;63,03599
1025,97; 3962,546;  220,048; 6179,240;62,80210
1026,51; 3899,469;  200,894; 6035,548;63,38979
1027,06; 3875,854;  215,202; 5981,933;63,47881
1027,60; 3850,238;  244,817; 5897,933;63,77760
1028,15; 3812,777;  251,048; 5856,087;63,54513
1028,69; 3695,700;  192,587; 5682,548;63,80944
1029,24; 3661,623;  232,587; 5602,548;63,85589
1029,78; 3613,392;  219,510; 5551,394;63,65259
1030,33; 3542,546;  202,663; 5448,317;63,66952
1030,87; 3514,315;  224,894; 5380,548;63,80221
1031,42; 3476,315;  212,356; 5271,625;64,51445
1031,96; 3432,854;  241,971; 5232,625;63,93717
1032,51; 3410,315;  211,817; 5156,702;64,68297
1033,05; 3344,162;  237,048; 5132,702;63,46677
1033,60; 3271,238;  197,587; 4966,702;64,44910
1034,14; 3237,085;  215,894; 4919,394;64,23281
1034,69; 3210,392;  223,740; 4855,933;64,47599
1035,23; 3195,469;  216,894; 4821,702;64,68403
1035,77; 3180,315;  215,817; 4729,010;65,68517
1036,32; 3079,700;  192,433; 4662,702;64,58822
1036,86; 3066,777;  230,279; 4599,163;64,92499
1037,41; 3040,008;  239,740; 4541,240;65,09979
1037,95; 2974,854;  188,279; 4430,548;65,68595
1038,50; 2948,623;  213,202; 4401,317;65,31389
1039,04; 2948,469;  235,740; 4344,933;66,01611
1039,58; 2861,162;  199,433; 4289,856;65,07221
1040,13; 2859,854;  221,740; 4213,856;66,08310
1040,67; 2854,854;  252,817; 4231,010;65,40751
1041,21; 2824,238;  258,279; 4144,856;66,02107
1041,76; 2730,546;  204,202; 4034,163;65,96265
1042,30; 2720,931;  221,510; 4012,471;65,93106
1042,85; 2678,623;  215,894; 3952,856;65,90191
1043,39; 2674,392;  212,433; 3862,625;67,44739
1043,93; 2666,238;  241,817; 3872,087;66,78351
1044,48; 2608,854;  230,510; 3825,471;66,15771
1045,02; 2569,008;  219,202; 3715,933;67,20008
1045,56; 2536,162;  252,894; 3728,471;65,69463
1046,11; 2505,469;  228,433; 3609,087;67,35492
1046,65; 2456,315;  230,433; 3572,087;66,61021
1047,19; 2402,315;  218,279; 3512,625;66,29651
1047,74; 2361,777;  197,356; 3469,856;66,13968
1048,28; 2376,162;  223,048; 3423,317;67,27914
1048,82; 2368,931;  256,971; 3420,317;66,76347
1049,37; 2325,623;  241,048; 3322,471;67,64975
1049,91; 2302,623;  231,587; 3308,856;67,30112
1050,45; 2272,238;  233,740; 3246,240;67,66799
1050,99; 2244,854;  227,433; 3231,163;67,16385
1051,54; 2198,238;  214,125; 3142,625;67,75187
1052,08; 2206,700;  246,894; 3127,702;68,02973
1052,62; 2172,008;  247,433; 3097,240;67,53350
1053,16; 2090,392;  226,125; 3032,317;66,43405
1053,71; 2080,008;  234,663; 3025,163;66,12952
1054,25; 2047,700;  245,510; 2963,394;66,30857
1054,79; 2047,238;  242,894; 2893,010;68,08550
1055,33; 1986,085;  199,356; 2849,010;67,43254
1055,88; 2014,315;  246,202; 2846,779;67,98928
1056,42; 2000,469;  247,433; 2797,471;68,74549
1056,96; 1967,931;  244,817; 2790,317;67,69253
1057,50; 1954,623;  239,125; 2715,702;69,26892
1058,05; 1899,623;  236,587; 2651,240;68,87267
1058,59; 1920,469;  253,587; 2637,933;69,90943
1059,13; 1839,931;  218,510; 2573,163;68,86028
1059,67; 1857,162;  242,817; 2560,548;69,65193
1060,21; 1833,623;  237,125; 2497,933;70,61627
1060,76; 1792,238;  243,356; 2515,625;68,16458
1061,30; 1797,931;  256,202; 2489,779;69,02511
1061,84; 1750,854;  240,433; 2418,856;69,33553
1062,38; 1706,469;  219,587; 2340,163;70,11689
1062,92; 1746,085;  274,587; 2379,702;69,90107
1063,46; 1679,085;  249,663; 2320,471;69,02723
1064,01; 1646,700;  232,894; 2289,856;68,73273
1064,55; 1639,238;  235,279; 2254,625;69,52546
1065,09; 1574,700;  208,048; 2167,625;69,74219
1065,63; 1616,315;  259,971; 2212,163;69,47800
1066,17; 1605,777;  282,740; 2185,317;69,53919
1066,71; 1583,546;  260,048; 2159,702;69,67049
1067,25; 1559,854;  238,433; 2102,087;70,90486
1067,80; 1534,085;  252,587; 2086,240;69,88768
1068,34; 1547,469;  269,817; 2096,702;69,93610
1068,88; 1497,315;  242,279; 2011,702;70,92914
1069,42; 1515,162;  259,740; 2022,240;71,22957
1069,96; 1456,008;  246,587; 1975,548;69,95073
1070,50; 1496,777;  274,202; 1998,163;70,91661
1071,04; 1425,085;  228,817; 1931,394;70,26216
1071,58; 1438,238;  236,740; 1905,856;71,98412
1072,12; 1418,162;  235,894; 1914,548;70,42949
1072,66; 1408,700;  240,587; 1872,702;71,57052
1073,21; 1421,008;  250,356; 1855,779;72,91859
1073,75; 1357,008;  239,817; 1843,163;69,67868
1074,29; 1371,854;  238,740; 1820,010;71,65848
1074,83; 1391,777;  269,510; 1805,240;73,07709
1075,37; 1370,777;  263,433; 1800,010;72,06566
1075,91; 1342,931;  256,125; 1753,010;72,60451
1076,45; 1317,854;  244,894; 1728,548;72,31873
1076,99; 1322,469;  257,202; 1729,087;72,37438
1077,53; 1278,469;  235,433; 1662,548;73,08705
1078,07; 1275,392;  244,740; 1679,240;71,84747
1078,61; 1264,315;  249,587; 1643,087;72,81872
1079,15; 1242,700;  242,202; 1623,240;72,44534
1079,69; 1239,777;  239,279; 1606,240;73,19138
1080,23; 1241,546;  262,587; 1587,702;73,87731
1080,77; 1290,469;  302,971; 1626,625;74,60395
1081,31; 1208,546;  236,740; 1546,548;74,19454
1081,85; 1217,700;  268,510; 1558,625;73,57407
1082,39; 1185,085;  238,433; 1515,163;74,14656
1082,93; 1181,238;  249,125; 1515,087;73,62889
1083,47; 1142,162;  235,125; 1445,471;74,94026
1084,01; 1150,085;  253,740; 1488,317;72,60335
1084,55; 1128,931;  241,510; 1434,779;74,36890
1085,09; 1140,392;  256,587; 1444,933;74,37275
1085,63; 1100,931;  249,663; 1423,317;72,53138
1086,17; 1094,469;  228,663; 1396,317;74,14918
1086,71; 1078,854;  224,279; 1372,010;74,45779
1087,24; 1101,238;  261,663; 1402,163;73,61464
1087,78; 1077,931;  259,279; 1373,702;73,45971
1088,32; 1034,162;  230,971; 1326,625;73,30695
1088,86; 1060,700;  257,356; 1332,394;74,72702
1089,40; 1029,315;  250,587; 1322,548;72,64522
1089,94; 1013,315;  222,356; 1272,010;75,35433
1090,48; 1023,469;  262,125; 1279,933;74,80237
1091,02; 1011,085;  266,048; 1280,625;73,43322
1091,56;  996,008;  250,894; 1249,548;74,61179
1092,10;  957,315;  229,510; 1219,933;73,48433
1092,63; 1006,777;  268,048; 1259,625;74,50041
1093,17;  991,315;  251,510; 1227,779;75,77887
1093,71;  951,315;  231,356; 1181,625;75,76375
1094,25;  979,008;  269,663; 1208,779;75,53324
1094,79;  924,777;  239,663; 1163,548;74,15574
1095,33;  932,546;  256,048; 1162,163;74,65915
1095,87;  913,700;  246,433; 1143,087;74,41749
1096,40;  880,700;  235,048; 1108,856;73,88948
1096,94;  904,008;  242,279; 1113,240;75,97682
1097,48;  903,238;  260,433; 1126,625;74,21051
1098,02;  868,854;  237,663; 1066,856;76,12111
1098,56;  832,700;  216,202; 1053,010;73,67261
1099,10;  845,162;  216,971; 1052,317;75,20121
1099,63;  827,238;  223,433; 1027,779;75,06790
1100,17;  835,546;  251,510; 1050,856;73,06428
1100,71;  880,623;  265,740; 1058,779;77,53504

