
Integration time [ms]: 140,000
Averaging Nr. [scans]: 13
Smoothing Nr. [pixels]: 0
Data measured with spectrometer [name]: 2009305U1
Wave   ;Sample   ;Dark     ;Reference;Reflectance
[nm]   ;[counts] ;[counts] ;[counts] ;[%]

 175,72;  222,420;  207,672;  215,673;184,34456
 176,32;  244,661;  238,424;  241,025;239,75405
 176,92;  277,973;  272,128;  266,109; 0,00000
 177,52;  268,699;  265,361;  267,675;144,21120
 178,12;  259,408;  258,117;  238,311; 0,00000
 178,72;  271,772;  276,958;  258,525; 0,00000
 179,32;  271,803;  279,578;  258,748; 0,00000
 179,92;  269,590;  269,431;  262,806; 0,00000
 180,52;  267,993;  254,297;  261,455;191,33138
 181,12;  274,598;  273,355;  266,130; 0,00000
 181,73;  289,974;  284,895;  277,919; 0,00000
 182,33;  394,074;  381,443;  397,957;76,48681
 182,93;  297,497;  280,130;  286,949;254,68594
 183,53;  245,566;  255,340;  247,813; 0,00000
 184,13;  256,275;  242,804;  237,845; 0,00000
 184,73;  293,675;  293,338;  296,892; 9,47500
 185,33;  278,278;  261,312;  361,143;16,99551
 185,93;  303,280;  243,376;  381,547;43,35488
 186,53;  308,670;  260,229;  410,327;32,27318
 187,13;  326,168;  280,704;  420,213;32,58851
 187,73;  296,241;  257,224;  382,447;31,15846
 188,33;  288,341;  249,678;  381,863;29,24924
 188,93;  313,408;  263,040;  387,891;40,34217
 189,53;  304,052;  261,946;  380,542;35,50327
 190,13;  343,517;  304,841;  423,007;32,73000
 190,73;  281,693;  226,937;  387,302;34,14424
 191,34;  313,834;  266,803;  406,760;33,60399
 191,94;  285,642;  249,363;  387,164;26,32666
 192,54;  308,357;  271,253;  415,221;25,77281
 193,14;  319,071;  271,395;  415,304;33,12926
 193,74;  317,144;  275,854;  398,242;33,73663
 194,34;  307,437;  265,090;  415,805;28,09735
 194,94;  270,946;  230,318;  367,347;29,64951
 195,54;  244,936;  226,774;  345,997;15,23408
 196,14;  281,857;  238,863;  381,829;30,07302
 196,74;  274,185;  237,002;  371,341;27,67892
 197,34;  241,404;  212,871;  367,061;18,50524
 197,94;  274,778;  246,858;  398,110;18,45915
 198,54;  288,768;  250,016;  414,320;23,58531
 199,14;  262,684;  227,106;  389,582;21,89748
 199,74;  245,425;  216,953;  394,616;16,02571
 200,34;  243,759;  205,647;  412,777;18,40011
 200,94;  283,537;  245,177;  440,849;19,60420
 201,54;  271,320;  228,181;  443,845;20,00266
 202,14;  317,925;  260,035;  509,855;23,17272
 202,74;  270,139;  231,337;  483,408;15,39357
 203,34;  258,651;  198,887;  505,069;19,51928
 203,94;  237,395;  174,805;  503,718;19,02921
 204,54;  309,058;  257,705;  595,985;15,18050
 205,14;  267,980;  217,029;  614,536;12,81764
 205,74;  323,171;  257,732;  713,847;14,34698
 206,34;  284,250;  215,112;  712,928;13,88834
 206,94;  283,868;  225,648;  764,426;10,80591
 207,54;  264,119;  199,803;  808,104;10,57297
 208,14;  292,287;  211,343;  894,372;11,85075
 208,74;  303,618;  218,875;  969,173;11,29462
 209,34;  308,082;  202,492; 1054,701;12,39023
 209,94;  317,975;  229,414; 1142,048; 9,70386
 210,54;  322,528;  221,730; 1275,922; 9,56161
 211,14;  337,187;  229,798; 1378,519; 9,34855
 211,73;  356,809;  228,180; 1485,662;10,22908
 212,33;  375,258;  231,561; 1585,815;10,61079
 212,93;  373,215;  215,259; 1695,643;10,66993
 213,53;  365,127;  183,413; 1731,515;11,73786
 214,13;  413,908;  207,122; 1852,881;12,56476
 214,73;  383,233;  193,189; 1865,086;11,36697
 215,33;  377,437;  177,568; 1889,894;11,67233
 215,93;  415,129;  214,578; 2025,839;11,07243
 216,53;  398,107;  165,412; 2077,759;12,16804
 217,13;  471,871;  230,730; 2288,601;11,71798
 217,73;  502,609;  207,271; 2523,291;12,75196
 218,33;  482,987;  175,201; 2679,717;12,28927
 218,93;  553,490;  191,675; 3016,014;12,81061
 219,53;  592,343;  193,509; 3295,597;12,85696
 220,13;  616,508;  162,127; 3615,373;13,15808
 220,73;  689,455;  197,261; 3981,424;13,00669
 221,32;  737,310;  199,413; 4393,481;12,82519
 221,92;  819,506;  207,818; 4824,839;13,24854
 222,52;  851,432;  188,348; 5274,577;13,03685
 223,12;  911,576;  188,657; 5727,756;13,05120
 223,72;  996,085;  208,042; 6131,713;13,30329
 224,32; 1046,714;  210,196; 6567,755;13,15784
 224,92; 1068,921;  184,735; 6890,969;13,18454
 225,52; 1149,685;  217,033; 7257,152;13,24767
 226,12; 1184,658;  196,345; 7552,443;13,43528
 226,72; 1217,863;  162,729; 7885,662;13,66235
 227,31; 1287,839;  161,190; 8271,414;13,89171
 227,91; 1387,357;  204,032; 8671,474;13,97501
 228,51; 1408,545;  197,485; 9080,788;13,63298
 229,11; 1494,270;  190,959; 9437,453;14,09519
 229,71; 1529,451;  182,182; 9761,515;14,06433
 230,31; 1601,239;  178,045;10198,283;14,20320
 230,91; 1630,538;  174,328;10495,044;14,10958
 231,51; 1729,893;  179,117;10729,351;14,69897
 232,10; 1759,550;  181,970;11125,042;14,41624
 232,70; 1842,899;  197,706;11327,421;14,78199
 233,30; 1918,524;  217,962;11566,044;14,98546
 233,90; 1926,269;  184,193;11672,874;15,16342
 234,50; 2008,188;  184,348;11762,227;15,75280
 235,10; 2029,459;  181,042;11763,892;15,95822
 235,70; 2058,990;  199,801;11795,777;16,03305
 236,29; 2066,511;  199,490;11790,212;16,10789
 236,89; 2058,563;  173,867;11668,517;16,39629
 237,49; 2123,953;  194,422;11531,473;17,01969
 238,09; 2079,019;  184,188;11258,005;17,11091
 238,69; 2149,058;  225,709;10981,786;17,88151
 239,29; 2111,165;  177,187;10668,835;18,43350
 239,89; 2089,279;  207,482;10293,457;18,65756
 240,48; 2018,380;  187,496; 9905,604;18,83992
 241,08; 2004,075;  193,033; 9504,563;19,44946
 241,68; 1987,742;  210,727; 9188,966;19,79246
 242,28; 1929,239;  184,346; 8793,143;20,26872
 242,88; 1985,109;  230,430; 8481,530;21,26600
 243,48; 1963,367;  238,191; 8141,747;21,82785
 244,07; 1926,179;  198,262; 7914,995;22,39182
 244,67; 1966,537;  216,267; 7750,440;23,23108
 245,27; 1954,193;  214,795; 7569,124;23,65135
 245,87; 2009,178;  207,352; 7508,591;24,67836
 246,47; 2006,910;  205,257; 7502,141;24,69071
 247,06; 2036,692;  196,187; 7436,481;25,42030
 247,66; 2089,417;  190,882; 7536,970;25,84417
 248,26; 2198,367;  215,797; 7659,802;26,63312
 248,86; 2294,159;  208,027; 7773,824;27,57320
 249,46; 2331,768;  157,732; 8056,240;27,52464
 250,05; 2516,592;  203,419; 8430,382;28,11698
 250,65; 2618,647;  170,717; 8749,185;28,53575
 251,25; 2769,837;  192,186; 9257,926;28,43288
 251,85; 2960,166;  189,328; 9838,778;28,71498
 252,44; 3194,671;  157,644;10487,925;29,39927
 253,04; 3453,301;  212,953;11180,039;29,54612
 253,64; 3644,934;  159,100;11919,352;29,64081
 254,24; 3988,160;  214,265;12914,502;29,71516
 254,84; 4292,999;  185,194;13814,933;30,13855
 255,43; 4603,240;  184,183;14851,732;30,12812
 256,03; 4964,386;  190,255;15905,993;30,37802
 256,63; 5262,693;  194,944;17012,116;30,13437
 257,23; 5559,954;  170,483;17967,154;30,28359
 257,82; 5886,257;  202,554;18985,983;30,25914
 258,42; 6181,571;  145,935;19935,819;30,49859
 259,02; 6503,934;  201,184;20864,266;30,50247
 259,62; 6689,597;  183,087;21654,872;30,30261
 260,21; 6902,068;  197,029;22196,203;30,47859
 260,81; 7018,716;  190,268;22801,606;30,19922
 261,41; 7187,273;  177,399;23313,600;30,29829
 262,01; 7368,646;  211,316;23821,639;30,31441
 262,60; 7403,570;  172,944;24241,692;30,04155
 263,20; 7535,826;  176,487;24635,120;30,08892
 263,80; 7541,125;  207,546;24852,328;29,75713
 264,40; 7568,424;  167,317;25095,732;29,68944
 264,99; 7623,059;  195,545;25238,610;29,65896
 265,59; 7555,026;  171,614;25477,207;29,17700
 266,19; 7615,250;  182,546;25585,669;29,25901
 266,78; 7631,792;  226,003;25736,284;29,03060
 267,38; 7518,384;  201,923;25781,847;28,60236
 267,98; 7522,426;  189,696;25840,891;28,58631
 268,58; 7442,668;  194,077;25858,599;28,24362
 269,17; 7400,082;  178,070;25860,805;28,12010
 269,77; 7319,364;  207,403;25655,750;27,94665
 270,37; 7191,383;  166,545;25618,299;27,60061
 270,96; 7125,091;  223,169;25438,167;27,37229
 271,56; 6979,977;  190,174;25228,560;27,11757
 272,16; 6822,526;  182,321;25020,391;26,73398
 272,75; 6779,403;  195,860;25016,044;26,52496
 273,35; 6693,247;  200,708;24855,008;26,33430
 273,95; 6620,681;  192,860;24737,232;26,18857
 274,54; 6560,302;  179,495;24928,455;25,78212
 275,14; 6633,407;  220,401;25139,722;25,73508
 275,74; 6534,793;  169,091;25213,532;25,41763
 276,33; 6683,020;  217,942;25691,686;25,37938
 276,93; 6720,737;  204,036;26054,556;25,20917
 277,53; 6779,405;  193,567;26511,015;25,02461
 278,12; 6868,080;  174,715;27017,644;24,93530
 278,72; 7058,788;  233,104;27762,943;24,79376
 279,32; 7104,479;  192,411;28294,102;24,59662
 279,91; 7282,043;  182,563;28957,693;24,67228
 280,51; 7416,796;  189,798;29510,574;24,64804
 281,11; 7594,712;  200,640;30262,599;24,59611
 281,70; 7685,367;  174,024;30711,540;24,59710
 282,30; 7889,515;  187,021;31444,406;24,64216
 282,90; 7998,018;  185,020;31805,496;24,70866
 283,49; 8180,217;  195,170;32334,427;24,84515
 284,09; 8365,478;  215,177;32725,455;25,06992
 284,69; 8461,241;  221,180;33260,773;24,93996
 285,28; 8643,815;  210,331;33621,729;25,24134
 285,88; 8768,721;  261,859;33732,635;25,41579
 286,47; 8883,662;  203,405;33898,539;25,76116
 287,07; 9008,431;  221,719;33912,914;26,08014
 287,67; 9121,444;  206,806;34022,901;26,36211
 288,26; 9235,667;  188,565;34016,478;26,74449
 288,86; 9428,514;  175,562;34056,750;27,31000
 289,46; 9618,062;  200,718;34230,300;27,67399
 290,05; 9834,636;  191,570;34225,200;28,33393
 290,65;10113,856;  193,942;34400,326;29,00018
 291,24;10381,983;  196,104;34523,264;29,67294
 291,84;10606,616;  214,867;34720,346;30,11623
 292,44;10833,789;  196,346;34843,036;30,70262
 293,03;11138,355;  274,566;34928,448;31,34942
 293,63;11313,763;  187,251;35113,556;31,85711
 294,22;11573,185;  215,871;35285,108;32,38540
 294,82;11671,584;  187,394;35265,138;32,73925
 295,41;11668,982;  173,331;34979,002;33,02810
 296,01;11758,607;  225,089;34862,268;33,29809
 296,61;11773,769;  225,258;34641,414;33,55549
 297,20;11667,147;  200,859;34275,725;33,65028
 297,80;11666,674;  211,803;34039,254;33,86265
 298,39;11497,320;  175,713;33651,009;33,82078
 298,99;11485,115;  223,400;33553,030;33,78890
 299,58;11403,258;  223,420;33451,560;33,64569
 300,18;11220,435;  218,725;33178,930;33,37877
 300,78;11115,956;  196,414;32763,057;33,52984
 301,37;11026,553;  207,236;32759,607;33,23665
 301,97;10978,577;  207,333;32712,436;33,13708
 302,56;10903,377;  200,327;32605,176;33,02916
 303,16;10791,161;  173,556;32422,182;32,92421
 303,75;10719,207;  197,877;32489,889;32,58184
 304,35;10780,208;  179,041;32689,675;32,60831
 304,94;10749,045;  184,026;32786,534;32,40554
 305,54;10663,695;  203,259;32726,019;32,16343
 306,13;10535,470;  170,119;32615,867;31,94672
 306,73;10371,907;  176,500;32401,511;31,63818
 307,33;10275,940;  194,575;32387,508;31,31546
 307,92;10229,610;  217,258;32372,003;31,13802
 308,52;10289,592;  173,555;32855,760;30,95274
 309,11;10351,055;  192,858;33394,380;30,59558
 309,71;10407,274;  167,777;33672,532;30,56132
 310,30;10362,272;  186,411;33821,965;30,25329
 310,90;10474,733;  234,796;34177,350;30,16844
 311,49;10410,833;  207,949;34320,218;29,90972
 312,09;10388,382;  160,802;34482,793;29,79891
 312,68;10462,435;  252,952;34917,591;29,45215
 313,28;10355,148;  174,950;35101,003;29,14786
 313,87;10349,176;  159,411;35171,589;29,10349
 314,47;10399,082;  183,013;35477,156;28,94551
 315,06;10307,900;  179,951;35522,007;28,65693
 315,66;10337,690;  176,186;35733,947;28,57746
 316,25;10227,369;  157,480;35683,007;28,34550
 316,85;10194,058;  165,879;35742,567;28,18750
 317,44;10218,405;  179,551;35869,926;28,12762
 318,04;10113,426;  176,097;35916,590;27,80412
 318,63;10062,919;  165,500;35908,327;27,69064
 319,22;10062,104;  193,788;36093,245;27,48876
 319,82;10025,359;  202,099;35976,755;27,45871
 320,41; 9947,596;  202,942;35992,053;27,22798
 321,01; 9925,896;  207,724;36146,166;27,04116
 321,60; 9898,750;  207,946;36070,930;27,02174
 322,20; 9873,155;  173,797;36028,101;27,05214
 322,79; 9873,220;  215,566;36180,362;26,85308
 323,39; 9834,171;  183,271;36242,924;26,76371
 323,98; 9781,233;  172,029;36090,019;26,75318
 324,58; 9727,680;  180,863;36020,884;26,63731
 325,17; 9691,157;  185,865;35870,151;26,63719
 325,76; 9619,951;  209,949;35657,923;26,54595
 326,36; 9566,244;  180,493;35334,794;26,69873
 326,95; 9467,550;  213,331;35040,737;26,57166
 327,55; 9369,133;  179,561;34519,396;26,76068
 328,14; 9307,445;  176,804;34236,326;26,80790
 328,74; 9214,329;  210,865;33788,296;26,81403
 329,33; 9121,557;  208,723;33387,282;26,86323
 329,92; 8995,216;  181,704;32810,785;27,01122
 330,52; 8817,411;  198,112;32188,411;26,94348
 331,11; 8737,224;  186,100;31720,361;27,11693
 331,71; 8648,736;  188,179;31220,770;27,26346
 332,30; 8548,506;  207,410;30698,073;27,35623
 332,89; 8515,657;  253,492;30113,996;27,66921
 333,49; 8388,485;  218,331;29589,246;27,81716
 334,08; 8272,583;  189,253;29096,811;27,96269
 334,68; 8193,234;  199,945;28649,029;28,09682
 335,27; 8200,620;  207,729;28405,999;28,34533
 335,86; 8183,224;  253,023;28031,208;28,54830
 336,46; 8179,165;  202,499;27752,328;28,95360
 337,05; 8147,969;  196,484;27515,575;29,10596
 337,65; 8183,861;  179,253;27432,691;29,37100
 338,24; 8265,967;  232,259;27393,801;29,57751
 338,83; 8345,346;  210,952;27260,698;30,07198
 339,43; 8334,376;  187,403;27263,797;30,08884
 340,02; 8420,338;  186,941;27114,892;30,57566
 340,61; 8540,735;  191,105;27199,191;30,91530
 341,21; 8638,868;  223,173;27164,989;31,23655
 341,80; 8710,097;  185,330;27122,563;31,64678
 342,40; 8776,405;  188,189;27247,077;31,73898
 342,99; 8971,195;  194,723;27356,765;32,31153
 343,58; 9125,942;  183,493;27478,513;32,76220
 344,18; 9293,174;  208,416;27601,431;33,16451
 344,77; 9482,303;  183,325;27959,751;33,47795
 345,36; 9748,319;  163,562;28209,737;34,17492
 345,96; 9995,274;  204,108;28494,299;34,60975
 346,55;10190,255;  177,656;28716,329;35,08432
 347,14;10435,441;  175,959;29085,295;35,48847
 347,74;10712,642;  153,510;29550,925;35,91857
 348,33;11111,314;  182,740;30209,862;36,39568
 348,92;11429,413;  207,437;30725,797;36,77123
 349,52;11821,219;  168,666;31257,287;37,48173
 350,11;12018,224;  193,632;31541,063;37,72109
 350,70;12242,622;  186,027;31685,435;38,27562
 351,29;12248,460;  168,003;31461,114;38,60421
 351,89;12452,812;  207,165;31392,717;39,26705
 352,48;12617,971;  162,412;31412,140;39,85814
 353,07;12741,692;  194,498;31342,589;40,28238
 353,67;12790,272;  202,438;31275,378;40,51060
 354,26;12869,530;  189,728;31048,188;41,09020
 354,85;13023,555;  191,110;31019,938;41,62482
 355,45;13021,072;  171,329;30726,474;42,05427
 356,04;13144,155;  184,422;30690,353;42,48267
 356,63;13233,095;  235,332;30434,989;43,03944
 357,22;13291,040;  199,237;30226,312;43,59999
 357,82;13359,128;  196,086;30104,087;44,01177
 358,41;13523,163;  211,718;29983,240;44,71201
 359,00;13534,541;  170,096;29761,074;45,16392
 359,60;13655,032;  193,951;29763,524;45,52342
 360,19;13743,127;  208,193;29572,844;46,09261
 360,78;13807,761;  199,484;29434,366;46,54808
 361,37;13876,962;  192,407;29202,554;47,17162
 361,97;13932,558;  193,871;29156,830;47,43537
 362,56;13941,780;  181,247;28846,136;48,00483
 363,15;14014,499;  249,329;28535,867;48,66333
 363,74;13899,142;  200,090;28197,699;48,92936
 364,34;13862,251;  213,480;27826,455;49,42883
 364,93;13799,601;  196,246;27426,893;49,95605
 365,52;13677,762;  161,715;27035,361;50,29480
 366,11;13614,630;  185,326;26767,506;50,51995
 366,71;13534,181;  171,788;26287,784;51,16555
 367,30;13451,295;  198,023;25978,720;51,40773
 367,89;13551,034;  228,725;25806,704;52,08507
 368,48;13431,468;  196,399;25384,459;52,54501
 369,07;13253,468;  191,104;24999,127;52,65379
 369,67;13214,760;  213,554;24635,535;53,23567
 370,26;13116,794;  174,951;24350,656;53,53243
 370,85;13083,673;  190,408;24181,776;53,74127
 371,44;13056,256;  196,794;23928,164;54,18761
 372,03;12970,571;  175,557;23678,733;54,43951
 372,63;12883,610;  171,485;23427,203;54,66236
 373,22;12875,260;  180,411;23100,841;55,38661
 373,81;12694,738;  169,023;22741,652;55,49072
 374,40;12705,842;  188,573;22536,065;56,01196
 374,99;12523,132;  175,175;22255,171;55,92373
 375,59;12486,379;  178,803;21927,532;56,58986
 376,18;12477,086;  209,330;21828,824;56,74395
 376,77;12426,937;  211,564;21650,650;56,97712
 377,36;12464,099;  216,177;21528,174;57,46961
 377,95;12311,199;  202,712;21280,852;57,44571
 378,55;12260,973;  185,262;21060,243;57,84777
 379,14;12317,087;  203,484;21020,434;58,19105
 379,73;12317,679;  198,866;20886,074;58,58120
 380,32;12442,031;  201,025;20967,569;58,94580
 380,91;12343,369;  183,630;20786,052;59,02092
 381,50;12416,905;  196,094;20788,016;59,34759
 382,10;12353,647;  173,179;20650,569;59,48252
 382,69;12391,282;  171,561;20617,678;59,76548
 383,28;12389,350;  209,710;20536,939;59,91786
 383,87;12368,249;  186,171;20358,768;60,38924
 384,46;12378,697;  168,702;20349,510;60,50300
 385,05;12422,585;  203,632;20343,508;60,67045
 385,64;12445,938;  191,480;20334,968;60,83583
 386,24;12492,832;  175,240;20228,134;61,42551
 386,83;12547,682;  204,931;20334,857;61,31543
 387,42;12620,726;  199,635;20459,728;61,30816
 388,01;12853,628;  193,463;20576,120;62,11244
 388,60;12998,462;  203,242;20827,863;62,03857
 389,19;13178,286;  184,069;21101,875;62,12036
 389,78;13335,332;  180,917;21319,797;62,22853
 390,37;13689,695;  257,005;21778,099;62,41639
 390,96;13806,518;  201,009;21931,882;62,60912
 391,56;13952,908;  197,604;22109,404;62,77578
 392,15;14086,051;  181,688;22334,496;62,76569
 392,74;14233,034;  165,592;22547,688;62,85132
 393,33;14492,273;  191,680;22808,033;63,23121
 393,92;14719,881;  186,355;23277,774;62,93908
 394,51;14817,958;  180,372;23463,397;62,86806
 395,10;15112,872;  214,182;23664,751;63,53232
 395,69;15134,960;  191,185;23849,834;63,16411
 396,28;15246,457;  208,560;23985,185;63,24656
 396,87;15333,298;  201,005;24001,921;63,57861
 397,46;15394,621;  225,763;24097,362;63,54354
 398,06;15636,703;  233,596;24304,566;63,99039
 398,65;15600,931;  204,487;24408,209;63,61188
 399,24;15744,056;  221,865;24575,099;63,73770
 399,83;15769,775;  188,740;24616,465;63,78422
 400,42;15866,390;  230,158;24717,963;63,85314
 401,01;15981,320;  213,724;24823,113;64,07146
 401,60;15989,165;  221,426;24869,234;63,97218
 402,19;15988,378;  246,757;24838,259;64,01244
 402,78;15994,018;  241,521;24874,996;63,94753
 403,37;15854,022;  229,904;24657,434;63,96110
 403,96;15676,522;  230,813;24584,423;63,42267
 404,55;15739,086;  232,018;24486,578;63,93465
 405,14;15652,229;  225,003;24325,384;64,01238
 405,73;15565,102;  236,356;24215,857;63,92437
 406,32;15588,546;  248,205;24158,146;64,15884
 406,91;15383,331;  232,429;23903,949;64,00477
 407,50;15285,692;  240,770;23743,123;64,01453
 408,09;15039,348;  217,586;23438,307;63,82989
 408,68;14982,273;  223,564;23348,146;63,82260
 409,27;14848,962;  216,669;23096,682;63,95229
 409,86;14718,807;  234,427;22907,263;63,88429
 410,45;14698,591;  264,098;22908,280;63,74482
 411,04;14588,562;  257,693;22826,099;63,49970
 411,63;14387,184;  254,536;22601,988;63,24053
 412,22;14169,842;  258,757;22399,880;62,82917
 412,81;14059,700;  262,165;22137,078;63,07470
 413,40;13752,138;  270,118;21770,582;62,70572
 413,99;13646,784;  320,032;21514,368;62,87884
 414,58;13234,044;  245,500;21002,093;62,57551
 415,17;13102,978;  252,165;20794,881;62,55654
 415,76;12995,441;  245,677;20690,617;62,36146
 416,35;12820,790;  241,306;20435,067;62,29391
 416,94;12836,333;  273,837;20468,723;62,20632
 417,53;12892,219;  247,090;20661,892;61,94098
 418,12;12917,939;  250,789;20730,002;61,85370
 418,71;13148,998;  284,196;21138,316;61,68950
 419,30;13156,713;  243,406;21254,449;61,45962
 419,89;13254,598;  238,489;21375,380;61,58006
 420,48;13380,827;  277,427;21641,859;61,33278
 421,07;13497,445;  271,278;21753,803;61,56710
 421,66;13475,488;  232,062;21830,402;61,31687
 422,25;13423,357;  256,011;21813,606;61,07985
 422,84;13418,201;  271,170;21774,986;61,13813
 423,43;13222,429;  243,543;21522,667;60,99352
 424,02;13088,971;  295,856;21273,919;60,98330
 424,60;12758,465;  252,196;20895,165;60,58368
 425,19;12538,200;  272,872;20576,013;60,41099
 425,78;12471,995;  272,566;20533,943;60,21027
 426,37;12331,767;  265,731;20311,570;60,19223
 426,96;12253,738;  261,347;20209,604;60,11749
 427,55;12107,533;  245,441;20098,007;59,75093
 428,14;11960,689;  251,296;19836,295;59,78756
 428,73;11823,787;  261,358;19605,346;59,77273
 429,32;11831,652;  282,422;19611,131;59,75169
 429,91;11733,185;  284,281;19588,850;59,30671
 430,50;11618,989;  273,829;19440,017;59,19361
 431,08;11509,922;  283,454;19350,167;58,87993
 431,67;11422,132;  318,462;19182,511;58,86154
 432,26;11375,697;  331,086;19155,739;58,67100
 432,85;11084,734;  370,314;18684,997;58,50180
 433,44;10889,726;  372,634;18412,188;58,30018
 434,03;10679,169;  376,958;18036,127;58,33916
 434,62;10371,520;  339,404;17571,200;58,21864
 435,21;10190,328;  349,008;17407,817;57,69055
 435,79;10034,437;  357,875;17202,200;57,44701
 436,38; 9985,181;  346,583;17105,118;57,51456
 436,97; 9883,469;  341,278;17034,240;57,16296
 437,56; 9742,483;  340,148;16753,433;57,28490
 438,15; 9628,803;  318,296;16653,567;56,99634
 438,74; 9642,434;  334,914;16701,368;56,86950
 439,33; 9594,340;  313,603;16706,956;56,61280
 439,91; 9581,608;  270,537;16797,114;56,33998
 440,50; 9594,515;  317,538;16821,882;56,20930
 441,09; 9614,166;  331,321;16962,768;55,81502
 441,68; 9551,618;  300,719;16895,307;55,74648
 442,27; 9565,151;  287,252;16926,060;55,76060
 442,86; 9465,513;  266,821;16917,102;55,24647
 443,44; 9492,626;  283,353;16958,484;55,22759
 444,03; 9581,478;  362,206;17011,572;55,37311
 444,62; 9448,851;  295,206;16877,679;55,20072
 445,21; 9365,827;  284,125;16743,861;55,17526
 445,80; 9238,987;  330,527;16620,048;54,68829
 446,39; 9069,579;  355,677;16340,226;54,51453
 446,97; 8881,003;  289,850;16108,364;54,31075
 447,56; 8767,880;  294,172;15926,377;54,20673
 448,15; 8634,789;  283,311;15814,667;53,77173
 448,74; 8546,290;  303,698;15502,029;54,23353
 449,33; 8360,455;  296,246;15334,790;53,62360
 449,91; 8258,721;  289,955;15119,481;53,73581
 450,50; 8092,691;  290,105;15001,407;53,03804
 451,09; 8007,612;  306,338;14839,679;52,99039
 451,68; 7952,068;  320,114;14679,951;53,14791
 452,26; 7863,234;  321,967;14621,445;52,73806
 452,85; 7752,155;  292,425;14589,803;52,17552
 453,44; 7753,614;  301,292;14524,425;52,39578
 454,03; 7698,065;  292,818;14532,629;52,00383
 454,61; 7643,605;  288,063;14408,138;52,09280
 455,20; 7712,719;  318,378;14606,802;51,75057
 455,79; 7687,187;  313,981;14599,771;51,61217
 456,38; 7719,178;  323,467;14697,326;51,45250
 456,97; 7680,857;  298,233;14764,556;51,03318
 457,55; 7664,661;  300,165;14841,339;50,64582
 458,14; 7647,527;  335,922;14834,503;50,42980
 458,73; 7574,421;  312,859;14726,820;50,37867
 459,31; 7603,693;  343,949;14761,347;50,35405
 459,90; 7583,130;  360,711;14809,037;49,98793
 460,49; 7679,022;  408,784;14942,507;50,02323
 461,08; 7569,971;  308,955;14982,141;49,48493
 461,66; 7565,189;  318,718;15006,878;49,33546
 462,25; 7592,130;  326,808;15146,311;49,02541
 462,84; 7591,116;  339,803;15159,238;48,93110
 463,43; 7522,292;  285,899;15173,534;48,60673
 464,01; 7491,995;  321,136;15166,802;48,30271
 464,60; 7495,082;  369,663;15137,837;48,24847
 465,19; 7365,517;  298,140;14904,298;48,38628
 465,77; 7329,530;  325,609;14883,177;48,11189
 466,36; 7260,073;  348,053;14725,196;48,07645
 466,95; 7057,869;  323,593;14453,511;47,65969
 467,53; 6915,645;  317,463;14207,375;47,50341
 468,12; 6731,885;  360,004;13891,232;47,09019
 468,71; 6614,301;  332,526;13630,874;47,23726
 469,29; 6474,243;  314,621;13356,641;47,22905
 469,88; 6301,621;  331,242;13135,149;46,62935
 470,47; 6373,151;  392,485;13265,570;46,45869
 471,06; 6267,667;  344,178;13220,317;46,00361
 471,64; 6308,667;  337,867;13284,517;46,11849
 472,23; 6292,148;  316,122;13267,731;46,14119
 472,81; 6295,341;  309,418;13414,963;45,67473
 473,40; 6347,705;  312,738;13581,645;45,48202
 473,99; 6486,037;  429,815;13753,277;45,45532
 474,57; 6447,035;  339,891;13879,513;45,10572
 475,16; 6474,381;  340,190;14023,474;44,82981
 475,75; 6514,608;  369,054;14136,680;44,63772
 476,33; 6483,827;  362,295;14221,809;44,16845
 476,92; 6523,212;  357,279;14265,335;44,33354
 477,51; 6519,275;  359,752;14364,120;43,98287
 478,09; 6497,322;  341,522;14420,616;43,72299
 478,68; 6448,690;  348,525;14328,112;43,63623
 479,27; 6456,189;  385,670;14399,919;43,31676
 479,85; 6417,340;  353,063;14334,797;43,37285
 480,44; 6385,425;  340,991;14525,536;42,61282
 481,02; 6831,458;  354,461;15641,632;42,36884
 481,61; 7639,499;  381,919;17838,460;41,57513
 482,20; 8102,133;  365,846;19086,866;41,32407
 482,78; 8410,452;  391,912;19995,974;40,90244
 483,37; 8661,216;  379,244;20514,022;41,13267
 483,95; 8737,102;  421,785;20894,302;40,61697
 484,54; 8815,662;  428,687;21020,824;40,72902
 485,13; 8752,973;  392,334;21004,797;40,56109
 485,71; 8598,990;  377,484;20789,146;40,27847
 486,30; 8544,422;  421,407;20504,103;40,44783
 486,88; 8424,291;  465,487;20102,079;40,53048
 487,47; 8093,622;  419,182;19352,517;40,53401
 488,05; 7761,335;  405,572;18537,919;40,56707
 488,64; 7197,346;  418,428;17242,064;40,29401
 489,23; 6496,233;  419,113;15413,400;40,52957
 489,81; 5558,895;  421,501;13197,316;40,21187
 490,40; 5196,224;  374,656;12419,682;40,02954
 490,98; 5084,675;  374,122;12201,969;39,82596
 491,57; 4967,188;  402,268;12017,048;39,30268
 492,15; 4933,625;  374,047;11982,283;39,27882
 492,74; 4901,283;  384,111;11912,700;39,18235
 493,32; 4831,047;  393,968;11860,619;38,69551
 493,91; 4757,670;  363,821;11670,779;38,85969
 494,50; 4744,470;  372,223;11641,362;38,79841
 495,08; 4659,149;  362,223;11616,013;38,18204
 495,67; 4679,756;  385,281;11611,836;38,25283
 496,25; 4564,779;  329,291;11469,259;38,02065
 496,84; 4522,062;  340,665;11434,149;37,69237
 497,42; 4520,537;  336,602;11368,782;37,92482
 498,01; 4479,119;  362,590;11358,501;37,43691
 498,59; 4391,297;  329,835;11226,340;37,27307
 499,18; 4338,962;  321,284;11196,086;36,94483
 499,76; 4342,993;  355,599;11118,571;37,04733
 500,35; 4232,188;  331,689;10916,098;36,85136
 500,93; 4177,329;  333,525;10882,188;36,43878
 501,52; 4123,237;  331,834;10789,798;36,25374
 502,10; 4089,881;  339,774;10811,006;35,81343
 502,69; 4006,537;  322,395;10642,086;35,70012
 503,27; 3923,601;  301,916;10388,494;35,90598
 503,86; 3870,793;  325,008;10347,452;35,37844
 504,44; 3788,555;  301,706;10188,037;35,26939
 505,03; 3640,797;  292,629;10037,699;34,35756
 505,61; 3606,385;  309,088; 9844,697;34,57877
 506,19; 3551,382;  330,321; 9739,815;34,23203
 506,78; 3450,707;  307,949; 9486,017;34,24204
 507,36; 3362,068;  307,167; 9362,102;33,73742
 507,95; 3315,368;  305,647; 9190,431;33,87500
 508,53; 3269,943;  295,641; 9055,889;33,95226
 509,12; 3200,743;  320,030; 8923,036;33,48497
 509,70; 3160,494;  342,648; 8747,999;33,52443
 510,29; 3092,506;  346,886; 8644,959;33,08744
 510,87; 3000,458;  297,949; 8452,257;33,14210
 511,46; 2921,918;  301,182; 8258,370;32,93545
 512,04; 2888,398;  318,112; 8129,275;32,90529
 512,62; 2827,658;  313,798; 7965,173;32,85501
 513,21; 2757,560;  290,502; 7825,629;32,74077
 513,79; 2685,057;  296,137; 7658,275;32,44873
 514,38; 2620,566;  277,822; 7517,323;32,36056
 514,96; 2609,558;  324,283; 7468,307;31,98862
 515,54; 2526,021;  289,518; 7323,410;31,79609
 516,13; 2514,219;  319,981; 7239,029;31,71300
 516,71; 2465,293;  295,912; 7048,137;32,12838
 517,30; 2388,163;  297,381; 6947,063;31,44184
 517,88; 2348,671;  317,227; 6878,640;30,96047
 518,46; 2291,080;  285,076; 6730,611;31,12238
 519,05; 2271,126;  294,698; 6703,333;30,84008
 519,63; 2245,695;  302,310; 6616,340;30,77883
 520,22; 2229,083;  314,938; 6593,731;30,48588
 520,80; 2157,926;  297,708; 6508,854;29,94967
 521,38; 2196,341;  346,545; 6486,640;30,12651
 521,97; 2117,587;  294,483; 6443,422;29,64908
 522,55; 2120,859;  305,560; 6389,435;29,83787
 523,13; 2081,050;  297,334; 6387,909;29,28650
 523,72; 2045,511;  291,384; 6378,496;28,81707
 524,30; 2094,166;  326,954; 6516,379;28,55212
 524,89; 2056,429;  291,176; 6523,006;28,32639
 525,47; 2080,810;  309,803; 6618,150;28,07402
 526,05; 2056,481;  286,035; 6671,354;27,72682
 526,64; 2088,097;  315,193; 6804,078;27,32217
 527,22; 2094,134;  312,264; 6914,608;26,98845
 527,80; 2153,184;  358,961; 7003,360;27,00354
 528,39; 2092,092;  295,504; 7098,852;26,40740
 528,97; 2100,064;  307,809; 7247,004;25,82799
 529,55; 2132,459;  317,718; 7432,849;25,50537
 530,14; 2184,648;  339,200; 7651,572;25,23734
 530,72; 2197,188;  303,963; 7691,269;25,62808
 531,30; 2183,798;  288,355; 7850,156;25,06603
 531,89; 2201,082;  322,970; 7970,985;24,55685
 532,47; 2260,371;  334,281; 8056,487;24,94223
 533,05; 2259,752;  336,884; 8120,403;24,70435
 533,63; 2265,694;  339,898; 8132,062;24,71452
 534,22; 2249,422;  316,975; 8165,049;24,62320
 534,80; 2268,248;  324,599; 8286,546;24,41172
 535,38; 2386,291;  428,279; 8387,112;24,60175
 535,97; 2252,520;  323,050; 8292,999;24,20931
 536,55; 2319,794;  377,985; 8392,947;24,22731
 537,13; 2307,731;  378,431; 8402,746;24,04318
 537,71; 2359,812;  414,891; 8388,624;24,39160
 538,30; 2366,569;  438,209; 8503,060;23,91068
 538,88; 2409,675;  486,299; 8579,232;23,76612
 539,46; 2491,289;  526,599; 8757,867;23,86862
 540,05; 2500,487;  563,988; 8896,209;23,24109
 540,63; 2576,724;  590,912; 9121,692;23,27821
 541,21; 2632,059;  627,994; 9215,345;23,33741
 541,79; 2652,497;  675,378; 9361,944;22,76065
 542,38; 2698,183;  708,756; 9493,009;22,64765
 542,96; 2714,101;  708,462; 9675,574;22,36661
 543,54; 2777,690;  729,685; 9843,577;22,47125
 544,12; 2803,115;  708,919; 9988,780;22,56711
 544,70; 2774,860;  689,463;10076,676;22,21529
 545,29; 2809,012;  693,987;10209,475;22,22718
 545,87; 2778,881;  679,455;10317,020;21,78378
 546,45; 2712,614;  622,910;10274,433;21,65155
 547,03; 2692,794;  624,530;10355,245;21,25500
 547,62; 2689,226;  580,918;10495,003;21,26579
 548,20; 2697,040;  582,077;10633,114;21,04224
 548,78; 2657,521;  539,787;10763,419;20,71411
 549,36; 2671,571;  506,785;10946,028;20,73700
 549,94; 2616,680;  466,613;11069,248;20,27861
 550,53; 2657,086;  482,628;11307,205;20,08816
 551,11; 2643,177;  436,405;11423,540;20,08506
 551,69; 2676,014;  452,323;11763,498;19,65924
 552,27; 2687,026;  414,624;12006,016;19,60422
 552,85; 2698,360;  410,405;12368,352;19,13335
 553,44; 2748,108;  417,553;12606,340;19,12048
 554,02; 2784,438;  416,172;12948,701;18,89696
 554,60; 2753,623;  360,176;13286,616;18,51591
 555,18; 2842,316;  406,785;13666,087;18,36847
 555,76; 2872,143;  381,095;13938,209;18,37447
 556,34; 2921,363;  392,798;14286,410;18,19948
 556,93; 2950,282;  369,862;14742,172;17,95410
 557,51; 2961,281;  364,106;15086,384;17,64112
 558,09; 3054,554;  384,324;15381,647;17,80471
 558,67; 3084,716;  370,726;15790,824;17,60034
 559,25; 3099,018;  391,185;15994,843;17,35384
 559,83; 3138,103;  368,423;16349,542;17,33095
 560,41; 3186,933;  358,718;16741,412;17,26343
 561,00; 3203,125;  380,573;17058,456;16,92392
 561,58; 3225,198;  365,256;17295,942;16,89206
 562,16; 3243,906;  352,636;17563,758;16,79884
 562,74; 3271,013;  343,172;18019,534;16,56359
 563,32; 3311,132;  340,884;18463,047;16,39014
 563,90; 3430,959;  374,111;18751,178;16,63403
 564,48; 3455,887;  383,409;19141,490;16,37949
 565,06; 3568,975;  369,418;19742,025;16,51588
 565,65; 3645,561;  380,354;20392,804;16,31588
 566,23; 3794,545;  417,727;21174,520;16,26850
 566,81; 3859,663;  365,877;21803,886;16,29716
 567,39; 4003,804;  377,348;22719,322;16,23158
 567,97; 4114,346;  395,417;23375,137;16,18353
 568,55; 4290,575;  408,653;24221,748;16,30163
 569,13; 4339,694;  367,112;24876,340;16,20851
 569,71; 4467,858;  372,944;25867,724;16,06177
 570,29; 4661,760;  416,862;26786,630;16,09760
 570,87; 4784,382;  405,557;27584,995;16,11080
 571,45; 4861,928;  400,111;28290,910;15,99745
 572,03; 4880,624;  355,581;28672,731;15,97987
 572,61; 5003,669;  353,499;29338,205;16,04353
 573,20; 5122,684;  376,952;30011,990;16,01392
 573,78; 5184,913;  371,423;30679,324;15,88196
 574,36; 5247,240;  390,267;31202,664;15,76305
 574,94; 5356,906;  455,967;31659,909;15,70615
 575,52; 5305,375;  394,055;31794,562;15,64089
 576,10; 5420,438;  433,666;32346,027;15,62646
 576,68; 5448,511;  422,273;32898,129;15,47685
 577,26; 5597,052;  451,214;33577,054;15,53421
 577,84; 5650,780;  455,498;34085,120;15,44853
 578,42; 5719,337;  499,201;34419,056;15,38962
 579,00; 5688,694;  453,885;34499,448;15,37589
 579,58; 5694,888;  494,352;34762,836;15,17586
 580,16; 5641,429;  463,510;34720,555;15,11490
 580,74; 5648,211;  469,742;34999,443;14,99714
 581,32; 5592,613;  468,507;34998,792;14,83945
 581,90; 5537,677;  496,279;34962,551;14,62705
 582,48; 5556,825;  474,357;35030,909;14,70768
 583,06; 5530,664;  478,276;35274,242;14,52004
 583,64; 5490,343;  484,198;35241,277;14,40324
 584,22; 5388,562;  489,519;35129,513;14,14274
 584,80; 5314,486;  498,124;34846,492;14,02210
 585,38; 5181,255;  517,797;34446,987;13,74468
 585,96; 5090,940;  479,655;34460,178;13,57037
 586,54; 5100,488;  502,209;34444,318;13,54742
 587,12; 5026,173;  464,205;34628,958;13,35285
 587,70; 5028,491;  502,733;34745,450;13,21670
 588,28; 4960,048;  466,205;34788,386;13,09312
 588,86; 4929,336;  472,361;34790,816;12,98711
 589,44; 4874,671;  440,680;34892,229;12,87022
 590,02; 4825,931;  455,062;35066,005;12,62858
 590,59; 4807,659;  438,209;35229,930;12,55888
 591,17; 4757,543;  442,077;35454,411;12,32556
 591,75; 4746,004;  434,300;35548,657;12,27903
 592,33; 4755,371;  449,682;35684,014;12,22015
 592,91; 4715,213;  402,997;35979,050;12,12112
 593,49; 4721,826;  407,618;36252,507;12,03577
 594,07; 4738,228;  431,464;36510,042;11,93718
 594,65; 4691,922;  445,903;36473,655;11,78541
 595,23; 4727,540;  443,908;36899,907;11,75014
 595,81; 4708,167;  413,218;36986,144;11,74352
 596,39; 4688,387;  424,296;37078,246;11,63337
 596,97; 4692,266;  424,304;37280,341;11,58009
 597,55; 4669,471;  421,905;37309,661;11,51484
 598,12; 4642,068;  395,390;37275,975;11,51467
 598,70; 4598,991;  410,845;37385,292;11,32714
 599,28; 4647,412;  414,614;37516,125;11,40869
 599,86; 4642,487;  407,844;37574,361;11,39370
 600,44; 4568,315;  370,694;37647,632;11,26064
 601,02; 4618,878;  425,938;37762,855;11,23001
 601,60; 4566,371;  408,685;37705,661;11,14752
 602,18; 4531,617;  383,851;37747,488;11,10108
 602,75; 4480,922;  386,294;37756,486;10,95694
 603,33; 4507,590;  407,153;37790,142;10,96872
 603,91; 4483,975;  384,395;37721,005;10,98006
 604,49; 4497,389;  415,461;37758,719;10,93083
 605,07; 4446,110;  428,300;37840,623;10,73927
 605,65; 4460,951;  427,926;37978,541;10,74024
 606,23; 4480,704;  487,977;38103,897;10,61446
 606,80; 4458,283;  542,448;38058,931;10,43764
 607,38; 4496,783;  578,085;38170,951;10,42405
 607,96; 4496,531;  634,371;38194,081;10,28272
 608,54; 4540,850;  700,003;38186,986;10,24582
 609,12; 4534,550;  714,294;38354,841;10,14931
 609,70; 4529,084;  747,998;38368,755;10,05053
 610,27; 4493,624;  742,601;38434,389; 9,95183
 610,85; 4527,734;  773,305;38529,208; 9,94395
 611,43; 4502,133;  762,614;38461,630; 9,91941
 612,01; 4431,333;  743,222;38276,607; 9,82621
 612,59; 4385,226;  732,690;38270,554; 9,73027
 613,16; 4341,432;  684,981;38193,761; 9,74826
 613,74; 4308,164;  655,692;38003,668; 9,77957
 614,32; 4274,022;  636,003;38082,592; 9,71522
 614,90; 4226,427;  578,456;37936,711; 9,76483
 615,48; 4171,098;  525,059;37630,400; 9,82618
 616,05; 4085,708;  498,672;37543,036; 9,68308
 616,63; 4100,856;  507,207;37447,978; 9,72814
 617,21; 4064,150;  496,601;37336,804; 9,68385
 617,79; 4053,665;  484,296;37268,587; 9,70351
 618,36; 4042,471;  482,069;37275,913; 9,67662
 618,94; 3948,917;  427,522;36803,429; 9,68057
 619,52; 3909,569;  442,670;36682,811; 9,56646
 620,10; 3921,071;  427,602;36564,307; 9,66737
 620,67; 3865,277;  430,438;36475,273; 9,52935
 621,25; 3879,975;  464,993;36341,460; 9,51872
 621,83; 3858,159;  440,137;36286,399; 9,53523
 622,41; 3887,963;  503,983;36333,853; 9,44458
 622,98; 3813,181;  451,899;36021,051; 9,44999
 623,56; 3815,137;  446,282;35995,510; 9,47659
 624,14; 3792,892;  423,765;35918,701; 9,49185
 624,72; 3746,881;  419,137;35827,288; 9,39824
 625,29; 3764,173;  412,513;35931,420; 9,43627
 625,87; 3804,997;  457,989;35809,835; 9,46770
 626,45; 3725,471;  406,049;35661,101; 9,41545
 627,02; 3688,383;  414,913;35708,369; 9,27501
 627,60; 3649,486;  395,847;35519,474; 9,26339
 628,18; 3629,550;  376,064;35613,072; 9,23315
 628,76; 3640,887;  377,823;35574,709; 9,27089
 629,33; 3627,545;  420,212;35594,440; 9,11842
 629,91; 3609,609;  392,064;35549,845; 9,15173
 630,49; 3653,648;  423,056;35731,416; 9,14965
 631,06; 3638,297;  400,439;35821,413; 9,14107
 631,64; 3617,023;  399,281;35757,143; 9,10050
 632,22; 3552,855;  366,123;35640,993; 9,03400
 632,79; 3595,353;  408,661;35986,595; 8,95693
 633,37; 3568,635;  370,838;35965,811; 8,98385
 633,95; 3619,080;  384,664;36011,080; 9,07870
 634,52; 3553,898;  365,521;36189,746; 8,90006
 635,10; 3588,548;  377,294;36134,077; 8,98083
 635,68; 3609,637;  365,277;36399,578; 9,00353
 636,25; 3568,282;  358,962;36258,939; 8,93961
 636,83; 3586,810;  344,746;36618,786; 8,93770
 637,41; 3621,278;  355,736;36545,939; 9,02328
 637,98; 3626,981;  391,505;36757,760; 8,89692
 638,56; 3600,313;  373,653;36902,018; 8,83330
 639,13; 3612,843;  348,360;36975,552; 8,91273
 639,71; 3643,203;  421,670;37153,186; 8,77049
 640,29; 3542,134;  342,516;36922,296; 8,74696
 640,86; 3560,511;  351,440;37025,954; 8,75014
 641,44; 3558,888;  347,132;37082,535; 8,74294
 642,02; 3575,189;  391,825;37072,039; 8,67869
 642,59; 3577,258;  341,441;37344,697; 8,74468
 643,17; 3567,174;  344,826;37240,431; 8,73369
 643,74; 3551,551;  345,519;37332,781; 8,66794
 644,32; 3546,928;  368,673;37176,285; 8,63478
 644,89; 3563,151;  367,288;37273,866; 8,65933
 645,47; 3592,759;  365,520;37273,601; 8,74399
 646,05; 3553,290;  362,828;37166,720; 8,66882
 646,62; 3552,745;  350,443;37172,070; 8,69679
 647,20; 3534,583;  350,598;37345,959; 8,60645
 647,77; 3530,268;  330,367;37107,617; 8,70076
 648,35; 3511,261;  326,675;37019,429; 8,67906
 648,92; 3545,022;  364,906;37109,163; 8,65473
 649,50; 3475,553;  326,137;37018,975; 8,58319
 650,08; 3489,085;  311,599;37002,864; 8,66006
 650,65; 3530,308;  343,523;37153,906; 8,65730
 651,23; 3565,762;  310,523;37858,641; 8,66951
 651,80; 3742,678;  313,754;38886,914; 8,88940
 652,38; 3812,439;  328,678;39315,956; 8,93564
 652,95; 3847,970;  313,678;39767,691; 8,95800
 653,53; 3885,501;  340,371;39916,195; 8,95782
 654,10; 3906,494;  368,910;40112,391; 8,90104
 654,68; 3875,102;  313,987;40043,126; 8,96348
 655,25; 3888,248;  309,756;40190,399; 8,97300
 655,83; 3887,856;  317,141;40149,673; 8,96432
 656,40; 3918,926;  352,373;40164,484; 8,95846
 656,98; 3898,303;  319,450;40117,296; 8,99258
 657,55; 3895,911;  326,989;39966,800; 9,00338
 658,13; 3802,442;  326,989;39564,150; 8,85755
 658,70; 3773,204;  341,143;39353,577; 8,79735
 659,28; 3683,581;  329,682;38518,389; 8,78244
 659,85; 3568,804;  352,836;37644,816; 8,62375
 660,43; 3571,874;  348,837;37703,627; 8,62818
 661,00; 3546,097;  338,760;37690,824; 8,58677
 661,58; 3579,628;  332,991;38098,943; 8,59673
 662,15; 3588,082;  307,376;38278,293; 8,64005
 662,73; 3757,459;  397,915;38514,951; 8,81376
 663,30; 3658,837;  341,146;38722,532; 8,64401
 663,88; 3703,214;  336,762;38917,882; 8,72565
 664,45; 3700,668;  319,608;39128,386; 8,71210
 665,03; 3752,353;  335,686;39535,275; 8,71608
 665,60; 3895,115;  427,071;39975,317; 8,76915
 666,17; 3794,261;  334,225;40085,206; 8,70428
 666,75; 3816,946;  328,764;40366,325; 8,71227
 667,32; 3897,631;  358,995;40701,444; 8,77150
 667,90; 3910,085;  344,841;40865,410; 8,79860
 668,47; 3914,462;  363,380;41122,145; 8,71244
 669,05; 3963,608;  330,303;41525,418; 8,81975
 669,62; 3941,447;  308,227;41570,152; 8,80526
 670,19; 3980,594;  318,535;41644,041; 8,86150
 670,77; 3996,432;  332,535;41806,699; 8,83417
 671,34; 3991,579;  327,151;41733,895; 8,84983
 671,92; 4047,956;  330,921;42058,707; 8,90782
 672,49; 4059,179;  357,152;42205,442; 8,84631
 673,06; 4027,710;  296,229;42138,792; 8,91791
 673,64; 4041,472;  315,306;42104,065; 8,91667
 674,21; 4042,311;  306,537;42078,646; 8,94322
 674,79; 4136,073;  353,538;42393,304; 8,99752
 675,36; 4134,988;  348,307;42591,808; 8,96394
 675,93; 4070,596;  309,923;42368,773; 8,94145
 676,51; 4134,281;  344,539;42560,431; 8,97705
 677,08; 4157,658;  347,155;42653,935; 9,00684
 677,65; 4162,958;  333,232;42768,747; 9,02481
 678,23; 4197,413;  320,694;42960,481; 9,09179
 678,80; 4203,328;  318,079;43157,062; 9,06942
 679,38; 4231,782;  325,156;43234,797; 9,10431
 679,95; 4265,159;  332,310;43585,839; 9,09255
 680,52; 4284,691;  327,464;43712,189; 9,12124
 681,10; 4383,991;  344,696;44094,693; 9,23268
 681,67; 4394,829;  339,234;44358,197; 9,21329
 682,24; 4398,284;  308,389;44439,086; 9,26769
 682,82; 4437,122;  321,081;44980,975; 9,21641
 683,39; 4538,038;  365,697;45322,786; 9,28072
 683,96; 4538,954;  332,544;45596,752; 9,29302
 684,54; 4560,869;  306,467;45884,717; 9,33428
 685,11; 4685,708;  360,237;46233,990; 9,42908
 685,68; 4702,854;  311,468;46585,648; 9,48993
 686,25; 4727,539;  303,391;46650,383; 9,54571
 686,83; 4779,070;  317,161;46974,502; 9,56315
 687,40; 4806,371;  294,315;47295,314; 9,59991
 687,97; 4870,517;  337,854;47525,126; 9,60569
 688,55; 4869,817;  292,085;47628,091; 9,67072
 689,12; 4901,964;  286,470;47867,057; 9,70037
 689,69; 4943,110;  283,701;47921,253; 9,78096
 690,26; 4960,410;  308,778;48096,295; 9,73399
 690,84; 4987,557;  301,009;48252,646; 9,77349
 691,41; 5053,242;  325,164;48323,073; 9,85059
 691,98; 5110,926;  328,779;48542,730; 9,91860
 692,56; 5133,611;  320,780;48735,388; 9,94087
 693,13; 5202,681;  365,318;48732,354;10,00136
 693,70; 5183,289;  332,857;48950,165; 9,97676
 694,27; 5208,051;  310,396;48987,362;10,06154
 694,84; 5200,043;  308,243;49159,404;10,01368
 695,42; 5316,420;  360,935;49321,370;10,12141
 695,99; 5281,028;  320,705;49499,028;10,08640
 696,56; 5304,713;  322,090;49347,147;10,16342
 697,13; 5360,167;  333,321;49731,497;10,17618
 697,71; 5399,237;  305,706;49833,078;10,28427
 698,28; 5436,614;  316,245;50208,428;10,26287
 698,85; 5413,760;  285,476;50168,855;10,28055
 699,42; 5481,445;  293,322;50374,128;10,35950
 699,99; 5558,284;  337,861;50482,632;10,41070
 700,57; 5556,738;  320,092;50544,444;10,42651
 701,14; 5542,423;  311,170;50638,332;10,39449
 701,71; 5641,339;  342,401;50861,529;10,48897
 702,28; 5620,408;  318,093;50900,033;10,48262
 702,85; 5650,631;  325,709;50990,537;10,51010
 703,43; 5722,470;  348,171;51200,810;10,56838
 704,00; 5824,309;  360,941;51443,006;10,69528
 704,57; 5784,148;  338,095;51548,356;10,63469
 705,14; 5877,294;  360,634;51643,245;10,75737
 705,71; 5888,440;  377,788;51681,441;10,74125
 706,28; 5838,048;  341,711;51600,484;10,72272
 706,86; 5912,502;  367,404;51881,295;10,76428
 707,43; 5977,649;  392,558;51784,184;10,86771
 708,00; 6015,180;  374,020;51829,688;10,96315
 708,57; 5995,711;  357,174;51758,115;10,96971
 709,14; 6070,396;  380,252;51864,465;11,05221
 709,71; 6074,004;  356,175;51958,661;11,08053
 710,28; 6148,842;  350,945;52143,011;11,19457
 710,86; 6145,527;  353,637;52296,977;11,15040
 711,43; 6230,520;  388,561;52232,712;11,26831
 712,00; 6260,282;  347,099;52462,831;11,34625
 712,57; 6336,890;  368,792;52613,181;11,42342
 713,14; 6326,113;  345,485;52694,839;11,42445
 713,71; 6354,644;  342,716;52622,189;11,49960
 714,28; 6441,406;  329,562;52587,155;11,69561
 714,85; 6389,475;  311,486;52370,428;11,67521
 715,42; 6479,929;  318,179;52488,239;11,81089
 716,00; 6596,614;  389,717;52650,513;11,87677
 716,57; 6546,068;  323,410;52897,863;11,83590
 717,14; 6588,369;  300,487;52773,751;11,98302
 717,71; 6615,592;  280,872;52697,409;12,08535
 718,28; 6718,046;  345,411;52941,529;12,11617
 718,85; 6679,577;  294,796;52799,648;12,16036
 719,42; 6761,570;  314,719;53093,690;12,21481
 719,99; 6758,870;  280,874;52844,041;12,32421
 720,56; 6833,016;  327,489;53152,468;12,31525
 721,13; 6865,163;  295,413;53200,664;12,41795
 721,70; 6831,232;  291,336;53172,091;12,36725
 722,27; 6892,302;  327,029;53200,287;12,41700
 722,84; 7050,217;  385,875;53456,945;12,55739
 723,41; 6981,825;  290,107;53359,757;12,60931
 723,98; 7021,741;  312,953;53547,107;12,60241
 724,55; 7137,195;  333,030;53651,611;12,76134
 725,12; 7116,880;  271,877;53561,499;12,84491
 725,69; 7180,565;  289,493;53752,773;12,88936
 726,27; 7216,788;  312,031;53853,507;12,89609
 726,84; 7309,165;  315,186;54174,550;12,98563
 727,41; 7359,158;  314,878;54087,361;13,10016
 727,98; 7387,920;  324,648;54389,173;13,06452
 728,55; 7411,451;  351,648;54299,215;13,08641
 729,12; 7455,674;  298,341;54383,412;13,23347
 729,69; 7479,282;  338,572;54596,223;13,16074
 730,26; 7561,582;  326,342;54893,881;13,25924
 730,82; 7584,344;  321,342;54664,001;13,36519
 731,39; 7617,952;  331,650;54859,889;13,36244
 731,96; 7706,945;  306,574;55130,547;13,49842
 732,53; 7766,629;  335,882;55288,743;13,52204
 733,10; 7815,622;  344,343;55336,401;13,58610
 733,67; 7869,076;  339,575;55680,674;13,60562
 734,24; 7866,376;  329,498;55314,486;13,70716
 734,81; 7908,600;  351,960;55457,451;13,71304
 735,38; 7927,515;  326,114;55160,648;13,86243
 735,95; 7919,739;  331,499;54940,152;13,89567
 736,52; 8040,500;  340,961;55244,348;14,02380
 737,09; 7959,801;  354,654;54918,775;13,93800
 737,66; 8073,947;  403,577;55065,510;14,03238
 738,23; 8104,863;  345,424;55071,091;14,17879
 738,80; 8290,625;  414,809;55413,749;14,31994
 739,37; 8222,617;  371,270;55577,329;14,22189
 739,94; 8293,148;  340,578;55636,987;14,38171
 740,51; 8422,525;  472,733;55690,645;14,39713
 741,07; 8319,903;  353,502;55597,764;14,42032
 741,64; 8432,818;  374,503;55863,268;14,52243
 742,21; 8434,349;  347,118;55899,157;14,55794
 742,78; 8459,496;  317,580;55685,815;14,70503
 743,35; 8490,411;  338,196;55994,011;14,64755
 743,92; 8632,327;  375,658;55992,746;14,84556
 744,49; 8662,166;  375,428;55892,942;14,92635
 745,06; 8626,543;  345,274;55982,831;14,88431
 745,63; 8600,612;  332,351;55944,873;14,86762
 746,19; 8665,605;  334,659;55946,608;14,98050
 746,76; 8694,828;  338,660;56009,573;15,00994
 747,33; 8740,898;  355,122;55937,000;15,08725
 747,90; 8819,659;  359,583;56211,274;15,14739
 748,47; 8852,190;  355,968;56132,470;15,23262
 749,04; 8862,798;  348,507;56220,743;15,23886
 749,61; 8968,637;  373,738;56133,016;15,41429
 750,17; 9024,476;  359,277;56134,674;15,53588
 750,74; 9030,853;  354,431;56069,563;15,57283
 751,31; 8974,461;  331,663;56056,836;15,50968
 751,88; 9038,069;  326,278;55958,725;15,65955
 752,45; 9136,369;  338,356;56058,613;15,78961
 753,02; 9096,054;  358,048;55964,963;15,71388
 753,58; 9170,431;  332,049;55822,313;15,92781
 754,15; 9211,347;  326,818;55941,202;15,97524
 754,72; 9228,032;  323,895;55777,860;16,05681
 755,29; 9203,563;  310,204;55631,364;16,07587
 755,86; 9266,555;  316,896;55711,868;16,15609
 756,42; 9357,163;  330,512;55701,141;16,30224
 756,99; 9352,694;  291,974;55721,106;16,34650
 757,56; 9396,841;  300,436;55504,764;16,47770
 758,13; 9380,603;  254,205;55387,884;16,55322
 758,70; 9506,134;  277,360;55463,849;16,72289
 759,26; 9513,203;  266,283;55611,968;16,70757
 759,83; 9544,349;  282,283;55725,934;16,70537
 760,40; 9630,188;  254,284;55604,130;16,93935
 760,97; 9622,335;  253,130;55511,250;16,95534
 761,53; 9612,019;  238,746;55224,369;17,04677
 762,10; 9628,551;  226,439;55091,411;17,13682
 762,67; 9714,697;  267,747;55061,685;17,24087
 763,24; 9610,536;  220,209;54714,881;17,23164
 763,80; 9666,836;  260,055;54863,231;17,22753
 764,37; 9720,367;  264,517;54886,350;17,31148
 764,94; 9687,590;  256,979;54448,085;17,40251
 765,50; 9714,044;  261,595;54363,897;17,47144
 766,07; 9822,575;  305,441;54565,170;17,53996
 766,64; 9795,722;  285,672;54260,905;17,61928
 767,21; 9776,945;  280,442;54071,639;17,65438
 767,77; 9783,399;  308,134;54050,067;17,63105
 768,34; 9860,315;  314,673;54016,263;17,77534
 768,91; 9831,077;  327,058;53876,228;17,74821
 769,47; 9890,992;  327,905;53913,732;17,84630
 770,04; 9849,908;  320,905;53773,775;17,82692
 770,61; 9899,593;  300,752;53592,663;18,01182
 771,18; 9912,893;  295,829;53376,936;18,11768
 771,74; 9948,809;  313,829;53561,671;18,09459
 772,31; 9992,109;  311,291;53366,021;18,24685
 772,88; 9906,794;  290,753;53131,910;18,19801
 773,44; 9972,556;  296,830;53045,491;18,34307
 774,01;10033,164;  317,831;53152,764;18,38809
 774,58; 9935,464;  305,062;52650,345;18,39784
 775,14;10046,303;  286,447;52948,387;18,53303
 775,71;10034,680;  302,832;52857,353;18,51762
 776,27;10092,980;  368,371;52715,395;18,57720
 776,84;10219,973;  397,525;52833,438;18,73229
 777,41;10081,273;  311,987;52554,249;18,69997
 777,97;10115,958;  308,295;52285,215;18,86927
 778,54;10128,258;  303,526;52279,488;18,90245
 779,11;10206,558;  326,988;52323,607;19,00041
 779,67;10184,320;  288,527;52191,727;19,06586
 780,24;10235,082;  307,450;52040,077;19,19027
 780,80;10309,536;  324,835;52063,427;19,29836
 781,37;10280,375;  324,758;51949,700;19,28451
 781,94;10255,290;  313,451;51784,743;19,31531
 782,50;10313,206;  317,144;51658,554;19,46978
 783,07;10378,968;  337,529;51743,289;19,53368
 783,63;10331,960;  304,683;51456,332;19,60304
 784,20;10373,953;  339,376;51300,528;19,69064
 784,77;10365,638;  311,453;51225,186;19,74749
 785,33;10335,553;  294,915;50983,074;19,80865
 785,90;10446,238;  303,915;51032,809;19,99319
 786,46;10414,846;  322,839;50900,159;19,95362
 787,03;10412,531;  301,993;50652,278;20,08040
 787,59;10431,985;  298,224;50513,936;20,18046
 788,16;10500,285;  313,301;50510,517;20,29392
 788,73;10505,124;  312,071;50512,483;20,30472
 789,29;10429,348;  285,840;50073,679;20,37346
 789,86;10499,263;  328,687;49922,875;20,50760
 790,42;10474,333;  301,918;49712,533;20,58751
 790,99;10468,787;  311,688;49431,806;20,67808
 791,55;10443,702;  296,380;49395,233;20,66713
 792,12;10489,464;  334,996;49436,045;20,68076
 792,68;10495,226;  312,842;49136,549;20,85541
 793,25;10486,680;  306,612;48929,591;20,93674
 793,81;10456,750;  383,305;48567,865;20,90596
 794,38;10320,204;  277,074;48364,061;20,88534
 794,94;10326,504;  281,075;48267,103;20,93407
 795,51;10332,727;  315,075;47920,300;21,04318
 796,07;10303,643;  294,614;47741,650;21,09516
 796,64;10446,251;  325,768;47878,769;21,28253
 797,20;10341,628;  303,307;47325,427;21,34808
 797,77;10287,698;  274,692;47092,700;21,38708
 798,33;10332,459;  310,384;46897,743;21,51243
 798,90;10348,837;  318,769;46832,554;21,56364
 799,46;10284,983;  290,924;46419,674;21,66558
 800,03;10251,052;  307,539;46231,408;21,65217
 800,59;10351,430;  311,078;46110,143;21,92261
 801,15;10338,499;  320,694;45870,109;21,99327
 801,72;10258,415;  300,694;45530,997;22,01560
 802,28;10264,100;  328,310;45259,578;22,11331
 802,85;10195,477;  302,618;45098,005;22,08455
 803,41;10202,085;  289,849;44987,740;22,17607
 803,98;10153,923;  294,003;44489,628;22,30972
 804,54;10152,531;  290,465;44177,363;22,47155
 805,11;10166,062;  311,004;44040,252;22,53654
 805,67;10172,055;  322,389;43948,294;22,57756
 806,23;10067,509;  307,543;43562,798;22,56365
 806,80;10102,809;  320,698;43519,687;22,64431
 807,36;10138,648;  333,698;43446,575;22,74251
 807,93;10137,333;  345,314;43091,618;22,90729
 808,49;10008,864;  296,468;42657,968;22,92741
 809,05;10023,549;  279,314;42565,241;23,04368
 809,62; 9984,003;  306,238;42518,053;22,92667
 810,18;10015,688;  305,930;42428,711;23,05108
 810,74; 9953,604;  271,239;42170,753;23,10854
 811,31; 9914,673;  273,470;41899,949;23,16123
 811,87; 9952,358;  306,393;41779,299;23,25847
 812,44; 9964,966;  319,778;41752,265;23,27929
 813,00; 9944,728;  250,009;41412,769;23,55216
 813,56; 9964,028;  299,471;41490,811;23,46259
 814,13; 9980,251;  287,933;41363,315;23,59642
 814,69; 9956,859;  281,549;41238,973;23,62285
 815,25; 9892,775;  254,241;40772,477;23,78814
 815,82; 9901,383;  299,165;40720,673;23,75522
 816,38; 9944,837;  331,242;40600,100;23,87352
 816,94; 9837,829;  264,781;40284,912;23,92058
 817,51; 9830,976;  257,012;40110,185;24,02309
 818,07; 9823,507;  256,397;39827,074;24,17727
 818,63; 9781,653;  291,090;39544,732;24,17754
 819,20; 9852,107;  277,552;39453,005;24,44019
 819,76; 9718,485;  256,552;39198,432;24,29758
 820,32; 9796,554;  303,937;38981,551;24,54292
 820,89; 9739,624;  282,091;38803,901;24,55111
 821,45; 9697,308;  267,630;38485,944;24,67319
 822,01; 9686,378;  288,784;38235,371;24,76532
 822,57; 9729,832;  286,400;38185,336;24,91741
 823,14; 9686,055;  245,323;37953,917;25,03602
 823,70; 9655,356;  258,785;37624,267;25,14773
 824,26; 9580,502;  259,862;37509,541;25,02207
 824,82; 9734,802;  300,094;37435,352;25,40634
 825,39; 9587,718;  263,940;37111,241;25,30383
 825,95; 9652,941;  290,171;37266,206;25,32118
 826,51; 9577,242;  274,018;36743,710;25,50947
 827,08; 9641,234;  315,249;36809,907;25,55438
 827,64; 9581,919;  297,249;36649,180;25,54106
 828,20; 9533,142;  257,403;36443,299;25,63358
 828,76; 9564,981;  296,173;36381,188;25,68603
 829,32; 9604,127;  313,635;36132,615;25,93735
 829,89; 9518,889;  249,866;36017,657;25,91444
 830,45; 9551,882;  271,174;36062,315;25,93018
 831,01; 9561,720;  279,405;35843,896;26,09995
 831,57; 9602,944;  283,175;35652,708;26,34971
 832,14; 9571,783;  258,637;35711,366;26,26919
 832,70; 9564,852;  260,099;35426,331;26,45934
 833,26; 9551,998;  233,945;35366,373;26,52266
 833,82; 9591,837;  268,484;35296,031;26,61720
 834,38; 9616,291;  257,330;35233,689;26,75796
 834,95; 9606,745;  255,715;35182,193;26,77347
 835,51; 9560,584;  243,254;35039,466;26,77685
 836,07; 9568,731;  271,255;35112,201;26,68549
 836,63; 9620,031;  304,870;35036,859;26,82012
 837,19; 9654,485;  277,717;34829,286;27,13847
 837,75; 9540,324;  245,948;34607,559;27,04872
 838,32; 9624,008;  290,487;34752,602;27,08343
 838,88; 9645,770;  290,718;34674,259;27,20794
 839,44; 9634,301;  294,411;34681,456;27,16107
 840,00; 9673,371;  276,488;34592,652;27,38326
 840,56; 9612,056;  262,181;34297,540;27,47106
 841,12; 9642,587;  260,489;34213,660;27,63246
 841,68; 9586,810;  238,412;34080,395;27,62367
 842,25; 9637,495;  253,566;34154,052;27,68081
 842,81; 9586,872;  258,567;33854,479;27,76619
 843,37; 9634,711;  243,028;33824,753;27,96665
 843,93; 9666,780;  264,260;33801,257;28,03626
 844,49; 9709,773;  281,491;33788,914;28,13789
 845,05; 9651,842;  226,414;33613,957;28,23037
 845,61; 9746,604;  278,184;33598,845;28,41606
 846,17; 9674,904;  262,338;33423,196;28,38457
 846,73; 9709,435;  272,031;33429,700;28,46221
 847,29; 9748,659;  249,492;33178,127;28,84774
 847,86; 9767,497;  250,647;33157,861;28,92026
 848,42; 9675,875;  244,416;33008,442;28,78602
 848,98; 9787,406;  267,186;32922,562;29,15361
 849,54; 9771,475;  250,340;32905,066;29,15699
 850,10; 9765,852;  262,725;32723,185;29,27601
 850,66; 9745,230;  241,033;32620,150;29,35286
 851,22; 9791,068;  240,418;32551,501;29,55843
 851,78; 9848,753;  284,034;32665,620;29,53753
 852,34; 9762,823;  269,419;32323,124;29,61718
 852,90; 9778,123;  252,573;32188,320;29,82723
 853,46; 9744,962;  242,727;31997,670;29,92364
 854,02; 9778,185;  266,881;32021,020;29,95296
 854,58; 9738,562;  252,036;31732,217;30,13492
 855,14; 9689,785;  242,728;31675,105;30,05518
 855,70; 9670,855;  230,498;31478,609;30,21097
 856,26; 9686,617;  261,652;31426,959;30,24185
 856,82; 9644,455;  249,575;31362,002;30,19655
 857,38; 9664,910;  301,730;31168,583;30,33409
 857,94; 9608,441;  260,730;31128,625;30,28295
 858,50; 9634,895;  272,577;30932,668;30,53585
 859,06; 9528,349;  258,731;30843,633;30,30782
 859,62; 9551,495;  280,577;30800,368;30,37674
 860,18; 9529,180;  266,347;30540,795;30,59621
 860,74; 9512,173;  236,116;30480,376;30,67047
 861,30; 9511,627;  239,271;30208,034;30,94007
 861,86; 9509,389;  311,117;30398,922;30,57143
 862,42; 9483,458;  251,579;30109,349;30,91952
 862,98; 9580,604;  286,810;30098,776;31,17471
 863,54; 9455,982;  251,503;29904,203;31,04095
 864,10; 9465,205;  268,119;29954,015;30,98133
 864,66; 9430,121;  228,888;29743,904;31,17475
 865,22; 9415,344;  247,273;29580,946;31,25443
 865,78; 9393,644;  260,889;29447,373;31,29104
 866,34; 9391,021;  246,428;29419,031;31,34651
 866,90; 9396,475;  258,274;29261,150;31,50791
 867,45; 9315,853;  250,813;29022,039;31,50731
 868,01; 9281,768;  244,583;28907,543;31,52914
 868,57; 9253,684;  249,045;28737,278;31,60828
 869,13; 9238,523;  237,506;28576,012;31,76249
 869,69; 9229,669;  240,199;28538,901;31,76637
 870,25; 9176,123;  236,969;28389,482;31,75260
 870,81; 9183,731;  245,046;28317,832;31,84110
 871,37; 9227,262;  269,662;28271,259;31,98961
 871,93; 9201,870;  283,739;28096,686;32,06468
 872,49; 9097,170;  296,893;27928,728;31,84833
 873,04; 9084,317;  240,817;27787,309;32,10391
 873,60; 9107,002;  240,894;27667,890;32,32621
 874,16; 9052,840;  271,433;27518,163;32,22922
 874,72; 9038,994;  254,433;27458,856;32,29093
 875,28; 9052,071;  251,433;27358,933;32,46570
 875,84; 9028,148;  261,817;27373,779;32,33381
 876,40; 8988,840;  243,510;27305,779;32,31559
 876,95; 9044,917;  247,356;27243,010;32,58881
 877,51; 9104,763;  283,202;27220,471;32,74854
 878,07; 9155,994;  290,971;27186,010;32,96156
 878,63; 9142,917;  258,048;27179,163;33,00335
 879,19; 9228,225;  264,740;27231,625;33,23886
 879,75; 9216,071;  254,279;27203,010;33,25497
 880,30; 9244,456;  246,048;27291,010;33,27203
 880,86; 9364,917;  299,433;27390,625;33,46285
 881,42; 9392,840;  233,510;27328,933;33,80398
 881,98; 9444,994;  264,894;27395,548;33,83663
 882,54; 9513,225;  241,356;27527,625;33,97998
 883,09; 9580,456;  265,433;27595,548;34,08337
 883,65; 9595,610;  250,433;27656,548;34,09887
 884,21; 9722,071;  294,202;27779,240;34,30182
 884,77; 9732,071;  235,587;27917,548;34,30568
 885,32; 9839,379;  258,279;28054,702;34,46882
 885,88; 9960,071;  280,894;28194,779;34,67513
 886,44;10048,456;  255,971;28265,779;34,96091
 887,00;10095,840;  273,971;28209,394;35,15919
 887,56;10158,917;  256,894;28435,010;35,14083
 888,11;10175,687;  269,663;28349,702;35,27781
 888,67;10294,071;  277,740;28548,394;35,43013
 889,23;10288,456;  254,125;28482,010;35,54758
 889,79;10285,610;  244,356;28431,856;35,62307
 890,34;10326,917;  268,125;28384,163;35,77599
 890,90;10418,071;  333,202;28557,779;35,73081
 891,46;10335,533;  244,202;28416,471;35,82008
 892,01;10379,071;  267,048;28408,933;35,93229
 892,57;10368,071;  296,048;28336,240;35,91995
 893,13;10341,379;  243,663;28152,471;36,18111
 893,69;10379,610;  236,048;28070,625;36,44231
 894,24;10368,148;  248,125;27938,933;36,54651
 894,80;10337,456;  255,202;27894,010;36,47861
 895,36;10336,302;  243,356;27727,471;36,72283
 895,91;10264,225;  249,433;27520,779;36,72276
 896,47;10248,302;  272,125;27423,548;36,74274
 897,03;10139,379;  246,663;27244,394;36,64277
 897,58;10188,456;  255,433;27167,779;36,90880
 898,14;10195,148;  262,433;27009,779;37,13533
 898,70;10105,071;  214,125;26779,856;37,23197
 899,25;10107,763;  254,971;26867,240;37,02350
 899,81;10093,533;  259,740;26652,471;37,25947
 900,37; 9976,533;  211,279;26454,163;37,21105
 900,92;10019,687;  248,433;26442,163;37,30379
 901,48; 9994,225;  236,510;26289,856;37,45283
 902,03; 9927,379;  237,048;26127,163;37,42869
 902,59; 9951,225;  239,048;26029,856;37,65751
 903,15; 9938,917;  262,356;25902,163;37,74038
 903,70; 9899,225;  241,279;25715,010;37,91336
 904,26; 9867,302;  237,587;25565,471;38,02021
 904,82; 9883,148;  241,510;25528,702;38,12854
 905,37; 9848,994;  252,587;25409,625;38,14602
 905,93; 9816,763;  231,510;25257,163;38,30171
 906,48; 9862,302;  249,202;25269,240;38,42160
 907,04; 9876,610;  254,817;25191,933;38,58422
 907,60; 9860,456;  250,587;24960,010;38,89152
 908,15; 9840,610;  236,279;24885,010;38,96481
 908,71; 9820,148;  260,971;24848,548;38,87808
 909,26; 9810,840;  230,740;24733,163;39,09858
 909,82; 9785,379;  255,279;24547,548;39,23100
 910,37; 9813,840;  279,894;24504,317;39,35675
 910,93; 9682,533;  235,817;24324,625;39,21620
 911,48; 9669,533;  211,279;24223,548;39,38925
 912,04; 9712,917;  229,510;24064,779;39,78729
 912,60; 9750,610;  243,356;24029,163;39,97028
 913,15; 9669,840;  245,048;23886,394;39,86572
 913,71; 9622,610;  225,587;23652,856;40,11147
 914,26; 9611,840;  218,740;23636,010;40,11185
 914,82; 9682,379;  247,740;23560,856;40,46923
 915,37; 9641,994;  230,663;23486,856;40,46806
 915,93; 9657,763;  303,202;23381,471;40,53407
 916,48; 9577,379;  221,817;23217,548;40,68391
 917,04; 9605,379;  259,663;23063,394;40,98327
 917,59; 9612,763;  270,740;23124,548;40,87732
 918,15; 9504,917;  205,202;22832,394;41,09973
 918,70; 9530,610;  230,817;22744,933;41,30650
 919,26; 9516,917;  240,740;22600,702;41,48566
 919,81; 9453,610;  219,433;22460,471;41,51864
 920,37; 9429,763;  245,433;22430,317;41,39905
 920,92; 9416,687;  263,125;22403,625;41,34307
 921,48; 9360,148;  223,894;22091,394;41,78006
 922,03; 9354,379;  233,048;22110,163;41,69348
 922,59; 9308,687;  232,817;22055,702;41,58877
 923,14; 9283,610;  244,510;21812,163;41,91045
 923,69; 9260,687;  254,510;21781,163;41,83733
 924,25; 9244,840;  265,048;21795,010;41,70835
 924,80; 9114,456;  239,587;21542,471;41,66041
 925,36; 9160,071;  225,202;21428,625;42,13881
 925,91; 9067,610;  219,048;21370,010;41,83527
 926,47; 9038,533;  217,279;21331,394;41,77894
 927,02; 9107,379;  291,971;21219,317;42,12387
 927,57; 9014,687;  225,279;21006,087;42,29579
 928,13; 8998,917;  225,279;20948,010;42,33824
 928,68; 8957,225;  233,817;20900,933;42,20912
 929,24; 8908,379;  201,971;20710,625;42,45236
 929,79; 8874,148;  219,587;20580,240;42,50630
 930,34; 8872,071;  226,356;20442,317;42,76678
 930,90; 8847,917;  225,663;20414,856;42,70727
 931,45; 8843,917;  231,894;20431,779;42,63402
 932,01; 8835,840;  235,048;20330,317;42,80008
 932,56; 8817,840;  250,663;20097,779;43,16585
 933,11; 8837,379;  258,587;20132,548;43,16599
 933,67; 8724,763;  220,202;19943,317;43,11977
 934,22; 8742,071;  230,125;19903,317;43,26673
 934,77; 8698,071;  252,202;19720,779;43,38206
 935,33; 8662,302;  232,971;19621,779;43,47524
 935,88; 8658,071;  239,202;19570,317;43,55087
 936,43; 8583,917;  228,740;19440,933;43,48893
 936,99; 8611,379;  232,202;19387,779;43,74275
 937,54; 8607,456;  204,894;19253,394;44,11141
 938,09; 8603,917;  237,587;19226,317;44,05945
 938,65; 8572,456;  237,433;19047,317;44,31193
 939,20; 8573,994;  210,356;19020,779;44,46279
 939,75; 8514,687;  214,740;18954,471;44,29064
 940,31; 8557,379;  213,125;18819,933;44,84517
 940,86; 8567,148;  225,740;18780,163;44,95644
 941,41; 8572,994;  315,510;18720,317;44,86591
 941,96; 8503,917;  220,048;18550,471;45,19192
 942,52; 8497,687;  222,125;18442,856;45,41838
 943,07; 8446,533;  199,740;18381,087;45,35854
 943,62; 8426,456;  217,587;18287,010;45,42961
 944,18; 8405,533;  209,971;18255,317;45,41648
 944,73; 8389,994;  234,433;18020,240;45,85432
 945,28; 8349,379;  196,894;17911,933;46,02014
 945,83; 8330,225;  221,663;17909,087;45,84366
 946,39; 8346,610;  218,279;17914,702;45,93205
 946,94; 8324,610;  243,817;17736,010;46,19657
 947,49; 8256,840;  216,510;17631,625;46,16869
 948,04; 8293,610;  262,356;17690,317;46,08258
 948,59; 8257,148;  241,971;17645,163;46,05579
 949,15; 8206,533;  207,740;17503,625;46,24680
 949,70; 8180,071;  229,433;17385,471;46,34309
 950,25; 8163,302;  231,663;17277,010;46,53257
 950,80; 8101,148;  186,663;17122,702;46,73162
 951,36; 8065,533;  192,587;17124,548;46,49754
 951,91; 8120,840;  243,356;17139,933;46,62178
 952,46; 8002,071;  202,663;16908,394;46,68702
 953,01; 8016,610;  236,202;16897,010;46,69886
 953,56; 7896,533;  201,125;16755,471;46,48572
 954,11; 7950,610;  234,663;16748,317;46,72465
 954,67; 7945,533;  218,894;16653,087;47,01563
 955,22; 7880,533;  196,279;16463,625;47,23729
 955,77; 7900,456;  243,894;16551,240;46,95161
 956,32; 7936,994;  281,894;16403,163;47,48447
 956,87; 7812,302;  216,433;16257,240;47,35341
 957,42; 7790,994;  230,125;16189,933;47,37444
 957,98; 7785,225;  217,587;16138,933;47,53140
 958,53; 7785,917;  248,356;16123,010;47,48174
 959,08; 7712,379;  204,356;15932,779;47,73538
 959,63; 7721,302;  209,817;15836,471;48,06841
 960,18; 7681,687;  240,433;15843,548;47,69082
 960,73; 7661,840;  224,048;15819,087;47,69332
 961,28; 7568,379;  206,663;15655,010;47,65374
 961,83; 7622,225;  247,894;15641,548;47,90501
 962,39; 7552,225;  203,894;15504,702;48,02577
 962,94; 7526,225;  224,663;15445,163;47,97189
 963,49; 7479,687;  227,202;15295,779;48,12986
 964,04; 7473,148;  228,971;15216,548;48,33454
 964,59; 7414,840;  203,125;15139,317;48,28349
 965,14; 7422,994;  244,894;15098,856;48,32448
 965,69; 7358,225;  237,202;14957,163;48,37664
 966,24; 7294,456;  217,279;14840,317;48,39744
 966,79; 7298,379;  237,048;14789,394;48,52366
 967,34; 7216,840;  205,510;14734,856;48,25634
 967,89; 7228,994;  216,663;14617,625;48,69349
 968,44; 7161,533;  222,740;14560,933;48,39377
 968,99; 7167,687;  229,433;14552,625;48,44069
 969,55; 7100,148;  227,356;14408,625;48,46387
 970,10; 7096,917;  236,048;14297,702;48,79134
 970,65; 7090,610;  253,971;14166,471;49,14026
 971,20; 6993,148;  207,817;14077,240;48,92295
 971,75; 6944,610;  196,433;13935,163;49,11791
 972,30; 6940,917;  232,587;13902,010;49,07545
 972,85; 6905,994;  212,817;13824,240;49,17323
 973,40; 6902,225;  217,971;13728,163;49,47564
 973,95; 6871,994;  234,740;13695,010;49,30996
 974,50; 6827,840;  256,202;13630,317;49,13700
 975,05; 6774,071;  232,356;13502,240;49,29745
 975,60; 6686,610;  246,587;13442,010;48,80498
 976,15; 6682,533;  220,356;13283,010;49,47063
 976,70; 6657,456;  228,663;13184,856;49,61946
 977,25; 6621,533;  245,740;13159,010;49,37396
 977,80; 6539,148;  227,356;13054,240;49,20752
 978,35; 6505,687;  239,279;12839,394;49,73294
 978,89; 6430,840;  204,817;12779,702;49,51157
 979,44; 6409,456;  226,048;12821,779;49,09130
 979,99; 6323,379;  212,817;12606,625;49,30334
 980,54; 6317,994;  247,125;12527,010;49,43751
 981,09; 6298,763;  256,279;12521,856;49,26376
 981,64; 6221,225;  241,663;12382,933;49,24989
 982,19; 6221,763;  276,894;12315,933;49,37993
 982,74; 6152,225;  241,048;12229,010;49,30928
 983,29; 6050,456;  219,587;12037,625;49,33872
 983,84; 6066,840;  226,740;11923,702;49,92835
 984,39; 6122,687;  318,202;11991,625;49,72393
 984,94; 6011,687;  204,894;11736,779;50,35424
 985,49; 6000,302;  263,587;11708,163;50,12606
 986,03; 5978,687;  262,971;11659,548;50,15291
 986,58; 5966,840;  288,356;11489,240;50,69675
 987,13; 5879,610;  237,202;11355,394;50,74933
 987,68; 5821,610;  258,510;11278,625;50,48132
 988,23; 5860,456;  254,356;11222,317;51,11342
 988,78; 5744,994;  236,356;11108,548;50,66723
 989,33; 5698,840;  249,202;11009,548;50,64557
 989,88; 5717,763;  273,510;10959,625;50,94699
 990,42; 5614,148;  236,971;10761,856;51,09013
 990,97; 5557,379;  240,202;10640,163;51,12689
 991,52; 5554,994;  255,356;10569,779;51,38085
 992,07; 5523,610;  270,817;10517,317;51,26426
 992,62; 5459,840;  241,279;10391,856;51,41148
 993,17; 5411,840;  255,356;10232,933;51,68073
 993,71; 5374,225;  258,587;10219,010;51,35965
 994,26; 5264,763;  227,817; 9997,471;51,55706
 994,81; 5275,071;  257,587;10026,471;51,36190
 995,36; 5164,071;  233,663; 9858,779;51,22440
 995,91; 5153,763;  246,356; 9744,163;51,66885
 996,45; 5110,071;  243,048; 9689,625;51,52155
 997,00; 5028,225;  218,125; 9582,010;51,36864
 997,55; 5016,610;  251,356; 9489,933;51,57996
 998,10; 4980,379;  269,433; 9388,933;51,65794
 998,65; 4937,840;  237,356; 9351,163;51,57542
 999,19; 4911,071;  263,510; 9219,625;51,89260
 999,74; 4844,840;  283,587; 9113,163;51,65880
1000,29; 4837,840;  254,356; 9071,317;51,98485
1000,84; 4765,456;  247,356; 8884,625;52,30936
1001,38; 4756,687;  251,510; 8792,087;52,75026
1001,93; 4717,840;  246,125; 8761,702;52,51218
1002,48; 4602,148;  226,971; 8619,087;52,13438
1003,03; 4614,456;  254,433; 8565,471;52,46063
1003,57; 4550,994;  255,279; 8497,317;52,11957
1004,12; 4573,994;  288,048; 8389,702;52,90211
1004,67; 4504,840;  238,202; 8254,087;53,22729
1005,22; 4408,610;  229,279; 8159,702;52,69997
1005,76; 4337,763;  218,279; 8040,548;52,66355
1006,31; 4334,533;  257,202; 7979,240;52,80122
1006,86; 4260,840;  234,740; 7830,087;53,00746
1007,40; 4177,763;  216,663; 7735,856;52,67986
1007,95; 4176,456;  239,663; 7658,625;53,06393
1008,50; 4104,763;  248,587; 7545,702;52,84522
1009,04; 4061,917;  236,048; 7434,240;53,15042
1009,59; 3977,994;  247,971; 7270,317;53,11648
1010,14; 3939,302;  228,279; 7237,087;52,94799
1010,68; 3903,379;  243,433; 7149,548;52,99573
1011,23; 3817,917;  227,587; 6996,548;53,04109
1011,78; 3796,840;  253,894; 6943,856;52,95914
1012,32; 3795,610;  272,125; 6822,394;53,79145
1012,87; 3770,763;  269,894; 6837,548;53,30472
1013,42; 3649,763;  225,048; 6690,702;52,96781
1013,96; 3692,071;  270,125; 6717,240;53,07717
1014,51; 3593,225;  207,817; 6585,163;53,08490
1015,06; 3636,610;  216,202; 6554,240;53,96634
1015,60; 3726,302;  275,817; 6607,087;54,49910
1016,15; 3646,225;  230,663; 6560,856;53,95668
1016,69; 3673,840;  237,202; 6614,856;53,88562
1017,24; 3688,302;  223,433; 6589,394;54,42806
1017,79; 3767,071;  277,510; 6636,317;54,87761
1018,33; 3723,917;  231,510; 6634,779;54,54101
1018,88; 3772,302;  251,971; 6665,548;54,88873
1019,42; 3742,840;  231,971; 6630,163;54,87283
1019,97; 3773,840;  227,894; 6621,625;55,45974
1020,51; 3846,763;  268,356; 6689,548;55,72809
1021,06; 3829,148;  227,125; 6628,625;56,26842
1021,61; 3797,148;  201,740; 6623,933;55,98412
1022,15; 3761,225;  188,510; 6586,702;55,83945
1022,70; 3814,917;  241,740; 6589,856;56,28721
1023,24; 3792,456;  217,971; 6503,702;56,86665
1023,79; 3748,071;  225,356; 6506,702;56,08217
1024,33; 3723,994;  217,817; 6428,010;56,45843
1024,88; 3703,533;  244,817; 6364,010;56,52242
1025,42; 3640,840;  249,971; 6247,702;56,53587
1025,97; 3549,917;  220,048; 6179,240;55,87786
1026,51; 3521,302;  200,894; 6035,548;56,90839
1027,06; 3502,456;  215,202; 5981,933;57,00377
1027,60; 3460,610;  244,817; 5897,933;56,88531
1028,15; 3426,148;  251,048; 5856,087;56,64725
1028,69; 3295,763;  192,587; 5682,548;56,52457
1029,24; 3288,379;  232,587; 5602,548;56,90529
1029,78; 3225,071;  219,510; 5551,394;56,36959
1030,33; 3198,456;  202,663; 5448,317;57,10999
1030,87; 3176,225;  224,894; 5380,548;57,24455
1031,42; 3119,687;  212,356; 5271,625;57,46543
1031,96; 3107,071;  241,971; 5232,625;57,40931
1032,51; 3053,456;  211,817; 5156,702;57,46622
1033,05; 3029,302;  237,048; 5132,702;57,03536
1033,60; 2917,533;  197,587; 4966,702;57,03251
1034,14; 2903,610;  215,894; 4919,394;57,14288
1034,69; 2904,610;  223,740; 4855,933;57,87474
1035,23; 2875,379;  216,894; 4821,702;57,73280
1035,77; 2840,302;  215,817; 4729,010;58,15140
1036,32; 2775,148;  192,433; 4662,702;57,77539
1036,86; 2750,840;  230,279; 4599,163;57,69348
1037,41; 2706,687;  239,740; 4541,240;57,35083
1037,95; 2648,763;  188,279; 4430,548;57,99926
1038,50; 2666,763;  213,202; 4401,317;58,58391
1039,04; 2638,610;  235,740; 4344,933;58,47546
1039,58; 2581,994;  199,433; 4289,856;58,24731
1040,13; 2534,148;  221,740; 4213,856;57,92437
1040,67; 2562,456;  252,817; 4231,010;58,05749
1041,21; 2507,840;  258,279; 4144,856;57,88028
1041,76; 2428,379;  204,202; 4034,163;58,07309
1042,30; 2418,456;  221,510; 4012,471;57,95221
1042,85; 2365,302;  215,894; 3952,856;57,51752
1043,39; 2338,533;  212,433; 3862,625;58,24625
1043,93; 2347,763;  241,817; 3872,087;58,01074
1044,48; 2320,379;  230,510; 3825,471;58,13328
1045,02; 2270,148;  219,202; 3715,933;58,65325
1045,56; 2278,379;  252,894; 3728,471;58,27765
1046,11; 2255,148;  228,433; 3609,087;59,95040
1046,65; 2205,071;  230,433; 3572,087;59,09165
1047,19; 2174,994;  218,279; 3512,625;59,39617
1047,74; 2136,763;  197,356; 3469,856;59,26380
1048,28; 2125,840;  223,048; 3423,317;59,45726
1048,82; 2105,533;  256,971; 3420,317;58,43690
1049,37; 2111,994;  241,048; 3322,471;60,71695
1049,91; 2062,456;  231,587; 3308,856;59,49656
1050,45; 2035,379;  233,740; 3246,240;59,80543
1050,99; 2005,840;  227,433; 3231,163;59,20663
1051,54; 1970,994;  214,125; 3142,625;59,99212
1052,08; 1991,763;  246,894; 3127,702;60,56875
1052,62; 1949,456;  247,433; 3097,240;59,72414
1053,16; 1924,687;  226,125; 3032,317;60,52905
1053,71; 1914,456;  234,663; 3025,163;60,19682
1054,25; 1902,225;  245,510; 2963,394;60,95606
1054,79; 1855,379;  242,894; 2893,010;60,84583
1055,33; 1813,917;  199,356; 2849,010;60,93481
1055,88; 1829,071;  246,202; 2846,779;60,86608
1056,42; 1788,687;  247,433; 2797,471;60,44042
1056,96; 1784,917;  244,817; 2790,317;60,50285
1057,50; 1754,533;  239,125; 2715,702;61,18961
1058,05; 1735,917;  236,587; 2651,240;62,09299
1058,59; 1737,456;  253,587; 2637,933;62,23380
1059,13; 1664,225;  218,510; 2573,163;61,39821
1059,67; 1675,687;  242,817; 2560,548;61,82207
1060,21; 1647,456;  237,125; 2497,933;62,38172
1060,76; 1645,994;  243,356; 2515,625;61,72853
1061,30; 1628,379;  256,202; 2489,779;61,43406
1061,84; 1584,533;  240,433; 2418,856;61,70059
1062,38; 1539,148;  219,587; 2340,163;62,22653
1062,92; 1583,610;  274,587; 2379,702;62,18296
1063,46; 1538,148;  249,663; 2320,471;62,22136
1064,01; 1503,994;  232,894; 2289,856;61,79503
1064,55; 1510,302;  235,279; 2254,625;63,14039
1065,09; 1442,225;  208,048; 2167,625;62,98181
1065,63; 1470,302;  259,971; 2212,163;61,99854
1066,17; 1464,687;  282,740; 2185,317;62,12344
1066,71; 1446,302;  260,048; 2159,702;62,44579
1067,25; 1391,840;  238,433; 2102,087;61,88959
1067,80; 1400,456;  252,587; 2086,240;62,60010
1068,34; 1383,994;  269,817; 2096,702;60,98781
1068,88; 1336,148;  242,279; 2011,702;61,82067
1069,42; 1358,763;  259,740; 2022,240;62,35592
1069,96; 1306,225;  246,587; 1975,548;61,28757
1070,50; 1343,840;  274,202; 1998,163;62,04538
1071,04; 1276,840;  228,817; 1931,394;61,55511
1071,58; 1256,610;  236,740; 1905,856;61,10238
1072,12; 1270,840;  235,894; 1914,548;61,65334
1072,66; 1264,610;  240,587; 1872,702;62,74208
1073,21; 1261,071;  250,356; 1855,779;62,95633
1073,75; 1202,379;  239,817; 1843,163;60,03454
1074,29; 1210,917;  238,740; 1820,010;61,48080
1074,83; 1222,840;  269,510; 1805,240;62,07669
1075,37; 1204,763;  263,433; 1800,010;61,26155
1075,91; 1187,840;  256,125; 1753,010;62,24363
1076,45; 1157,379;  244,894; 1728,548;61,50253
1076,99; 1159,687;  257,202; 1729,087;61,31490
1077,53; 1123,763;  235,433; 1662,548;62,24660
1078,07; 1130,456;  244,740; 1679,240;61,74384
1078,61; 1122,763;  249,587; 1643,087;62,66070
1079,15; 1091,148;  242,202; 1623,240;61,47158
1079,69; 1090,456;  239,279; 1606,240;62,26780
1080,23; 1097,763;  262,587; 1587,702;63,02673
1080,77; 1140,994;  302,971; 1626,625;63,31135
1081,31; 1048,687;  236,740; 1546,548;61,98972
1081,85; 1056,610;  268,510; 1558,625;61,08756
1082,39; 1028,840;  238,433; 1515,163;61,90872
1082,93; 1038,610;  249,125; 1515,087;62,36245
1083,47; 1006,917;  235,125; 1445,471;63,76625
1084,01; 1020,763;  253,740; 1488,317;62,12842
1084,55;  987,533;  241,510; 1434,779;62,51926
1085,09; 1013,610;  256,587; 1444,933;63,70392
1085,63;  972,687;  249,663; 1423,317;61,60446
1086,17;  956,994;  228,663; 1396,317;62,37557
1086,71;  919,994;  224,279; 1372,010;60,61660
1087,24;  973,994;  261,663; 1402,163;62,45776
1087,78;  956,533;  259,279; 1373,702;62,56635
1088,32;  913,687;  230,971; 1326,625;62,31123
1088,86;  928,225;  257,356; 1332,394;62,40421
1089,40;  916,763;  250,587; 1322,548;62,14560
1089,94;  898,071;  222,356; 1272,010;64,37507
1090,48;  868,687;  262,125; 1279,933;59,59491
1091,02;  894,225;  266,048; 1280,625;61,91516
1091,56;  858,533;  250,894; 1249,548;60,84575
1092,10;  848,302;  229,510; 1219,933;62,47757
1092,63;  869,148;  268,048; 1259,625;60,62061
1093,17;  850,302;  251,510; 1227,779;61,33475
1093,71;  820,148;  231,356; 1181,625;61,96058
1094,25;  846,533;  269,663; 1208,779;61,42687
1094,79;  823,840;  239,663; 1163,548;63,23051
1095,33;  811,456;  256,048; 1162,163;61,29547
1095,87;  804,917;  246,433; 1143,087;62,28542
1096,40;  773,148;  235,048; 1108,856;61,58106
1096,94;  790,456;  242,279; 1113,240;62,93928
1097,48;  791,840;  260,433; 1126,625;61,34985
1098,02;  753,687;  237,663; 1066,856;62,23201
1098,56;  727,071;  216,202; 1053,010;61,04978
1099,10;  731,994;  216,971; 1052,317;61,65385
1099,63;  718,840;  223,433; 1027,779;61,59135
1100,17;  754,687;  251,510; 1050,856;62,94856
1100,71;  760,302;  265,740; 1058,779;62,36287

