
Integration time [ms]: 140,000
Averaging Nr. [scans]: 13
Smoothing Nr. [pixels]: 0
Data measured with spectrometer [name]: 2009305U1
Wave   ;Sample   ;Dark     ;Reference;Reflectance
[nm]   ;[counts] ;[counts] ;[counts] ;[%]

 175,72;  218,454;  207,672;  215,673;134,76967
 176,32;  244,221;  238,424;  241,025;222,85149
 176,92;  291,577;  272,128;  266,109; 0,00000
 177,52;  276,043;  265,361;  267,675;461,58761
 178,12;  250,676;  258,117;  238,311; 0,00000
 178,72;  287,931;  276,958;  258,525; 0,00000
 179,32;  272,285;  279,578;  258,748; 0,00000
 179,92;  278,302;  269,431;  262,806; 0,00000
 180,52;  263,465;  254,297;  261,455;128,07483
 181,12;  287,952;  273,355;  266,130; 0,00000
 181,73;  304,208;  284,895;  277,919; 0,00000
 182,33;  407,917;  381,443;  397,957;160,31194
 182,93;  297,374;  280,130;  286,949;252,88723
 183,53;  261,743;  255,340;  247,813; 0,00000
 184,13;  260,814;  242,804;  237,845; 0,00000
 184,73;  308,802;  293,338;  296,892;435,11191
 185,33;  295,944;  261,312;  361,143;34,69058
 185,93;  302,047;  243,376;  381,547;42,46252
 186,53;  325,819;  260,229;  410,327;43,69821
 187,13;  338,083;  280,704;  420,213;41,12921
 187,73;  301,356;  257,224;  382,447;35,24279
 188,33;  295,299;  249,678;  381,863;34,51312
 188,93;  321,630;  263,040;  387,891;46,92778
 189,53;  316,734;  261,946;  380,542;46,19722
 190,13;  355,418;  304,841;  423,007;42,80190
 190,73;  289,944;  226,937;  387,302;39,28965
 191,34;  332,526;  266,803;  406,760;46,95960
 191,94;  295,892;  249,363;  387,164;33,76546
 192,54;  316,574;  271,253;  415,221;31,48034
 193,14;  339,649;  271,395;  415,304;47,42896
 193,74;  333,130;  275,854;  398,242;46,79884
 194,34;  328,392;  265,090;  415,805;42,00096
 194,94;  283,673;  230,318;  367,347;38,93724
 195,54;  257,846;  226,774;  345,997;26,06224
 196,14;  283,801;  238,863;  381,829;31,43264
 196,74;  284,334;  237,002;  371,341;35,23344
 197,34;  265,765;  212,871;  367,061;34,30476
 197,94;  287,547;  246,858;  398,110;26,90164
 198,54;  301,556;  250,016;  414,320;31,36881
 199,14;  265,918;  227,106;  389,582;23,88757
 199,74;  259,125;  216,953;  394,616;23,73716
 200,34;  250,806;  205,647;  412,777;21,80210
 200,94;  294,313;  245,177;  440,849;25,11142
 201,54;  289,810;  228,181;  443,845;28,57633
 202,14;  319,745;  260,035;  509,855;23,90119
 202,74;  275,671;  231,337;  483,408;17,58799
 203,34;  267,368;  198,887;  505,069;22,36620
 203,94;  244,627;  174,805;  503,718;21,22795
 204,54;  313,389;  257,705;  595,985;16,46087
 205,14;  261,905;  217,029;  614,536;11,28920
 205,74;  334,569;  257,732;  713,847;16,84594
 206,34;  294,294;  215,112;  712,928;15,90591
 206,94;  297,483;  225,648;  764,426;13,33297
 207,54;  277,147;  199,803;  808,104;12,71479
 208,14;  289,815;  211,343;  894,372;11,48872
 208,74;  301,835;  218,875;  969,173;11,05697
 209,34;  304,412;  202,492; 1054,701;11,95953
 209,94;  319,600;  229,414; 1142,048; 9,88190
 210,54;  317,562;  221,730; 1275,922; 9,09054
 211,14;  325,493;  229,798; 1378,519; 8,33057
 211,73;  341,968;  228,180; 1485,662; 9,04889
 212,33;  364,952;  231,561; 1585,815; 9,84976
 212,93;  362,498;  215,259; 1695,643; 9,94599
 213,53;  336,273;  183,413; 1731,515; 9,87400
 214,13;  377,186;  207,122; 1852,881;10,33348
 214,73;  350,360;  193,189; 1865,086; 9,40079
 215,33;  343,984;  177,568; 1889,894; 9,71873
 215,93;  386,436;  214,578; 2025,839; 9,48831
 216,53;  347,993;  165,412; 2077,759; 9,54749
 217,13;  429,755;  230,730; 2288,601; 9,67142
 217,73;  428,004;  207,271; 2523,291; 9,53071
 218,33;  415,148;  175,201; 2679,717; 9,58058
 218,93;  505,024;  191,675; 3016,014;11,09459
 219,53;  514,740;  193,509; 3295,597;10,35531
 220,13;  531,044;  162,127; 3615,373;10,68321
 220,73;  600,783;  197,261; 3981,424;10,66345
 221,32;  627,527;  199,413; 4393,481;10,20761
 221,92;  708,025;  207,818; 4824,839;10,83398
 222,52;  730,920;  188,348; 5274,577;10,66746
 223,12;  769,618;  188,657; 5727,756;10,48837
 223,72;  811,748;  208,042; 6131,713;10,19143
 224,32;  875,473;  210,196; 6567,755;10,46434
 224,92;  908,062;  184,735; 6890,969;10,78589
 225,52;  990,152;  217,033; 7257,152;10,98162
 226,12;  982,920;  196,345; 7552,443;10,69282
 226,72; 1025,951;  162,729; 7885,662;11,17738
 227,31; 1071,693;  161,190; 8271,414;11,22661
 227,91; 1169,257;  204,032; 8671,474;11,39925
 228,51; 1187,040;  197,485; 9080,788;11,13950
 229,11; 1248,112;  190,959; 9437,453;11,43301
 229,71; 1292,187;  182,182; 9761,515;11,58750
 230,31; 1338,905;  178,045;10198,283;11,58515
 230,91; 1390,406;  174,328;10495,044;11,78289
 231,51; 1446,131;  179,117;10729,351;12,00935
 232,10; 1508,790;  181,970;11125,042;12,12475
 232,70; 1572,931;  197,706;11327,421;12,35633
 233,30; 1651,353;  217,962;11566,044;12,63113
 233,90; 1621,096;  184,193;11672,874;12,50712
 234,50; 1702,349;  184,348;11762,227;13,11122
 235,10; 1729,446;  181,042;11763,892;13,36808
 235,70; 1798,036;  199,801;11795,777;13,78267
 236,29; 1798,331;  199,490;11790,212;13,79414
 236,89; 1800,298;  173,867;11668,517;14,14946
 237,49; 1850,291;  194,422;11531,473;14,60582
 238,09; 1802,986;  184,188;11258,005;14,61824
 238,69; 1877,931;  225,709;10981,786;15,36082
 239,29; 1838,720;  177,187;10668,835;15,83672
 239,89; 1819,555;  207,482;10293,457;15,98331
 240,48; 1804,113;  187,496; 9905,604;16,63510
 241,08; 1779,456;  193,033; 9504,563;17,03720
 241,68; 1791,491;  210,727; 9188,966;17,60661
 242,28; 1728,361;  184,346; 8793,143;17,93531
 242,88; 1765,470;  230,430; 8481,530;18,60407
 243,48; 1759,622;  238,191; 8141,747;19,24996
 244,07; 1707,846;  198,262; 7914,995;19,56247
 244,67; 1736,383;  216,267; 7750,440;20,17628
 245,27; 1763,199;  214,795; 7569,124;21,05432
 245,87; 1793,358;  207,352; 7508,591;21,72242
 246,47; 1789,149;  205,257; 7502,141;21,70641
 247,06; 1823,783;  196,187; 7436,481;22,47970
 247,66; 1871,096;  190,882; 7536,970;22,87223
 248,26; 1950,325;  215,797; 7659,802;23,30100
 248,86; 2016,024;  208,027; 7773,824;23,89699
 249,46; 2051,001;  157,732; 8056,240;23,96996
 250,05; 2218,468;  203,419; 8430,382;24,49324
 250,65; 2284,933;  170,717; 8749,185;24,64561
 251,25; 2430,056;  192,186; 9257,926;24,68491
 251,85; 2577,669;  189,328; 9838,778;24,75106
 252,44; 2719,501;  157,644;10487,925;24,79949
 253,04; 2946,245;  212,953;11180,039;24,92268
 253,64; 3128,653;  159,100;11919,352;25,25076
 254,24; 3414,261;  214,265;12914,502;25,19635
 254,84; 3628,847;  185,194;13814,933;25,26573
 255,43; 3925,928;  184,183;14851,732;25,51036
 256,03; 4159,274;  190,255;15905,993;25,25506
 256,63; 4430,502;  194,944;17012,116;25,18591
 257,23; 4666,314;  170,483;17967,154;25,26220
 257,82; 4953,945;  202,554;18985,983;25,29566
 258,42; 5183,113;  145,935;19935,819;25,45329
 259,02; 5441,255;  201,184;20864,266;25,35958
 259,62; 5614,252;  183,087;21654,872;25,29442
 260,21; 5757,976;  197,029;22196,203;25,27798
 260,81; 5877,352;  190,268;22801,606;25,15147
 261,41; 5990,475;  177,399;23313,600;25,12546
 262,01; 6112,475;  211,316;23821,639;24,99398
 262,60; 6138,853;  172,944;24241,692;24,78695
 263,20; 6218,440;  176,487;24635,120;24,70274
 263,80; 6228,024;  207,546;24852,328;24,42902
 264,40; 6223,126;  167,317;25095,732;24,29280
 264,99; 6269,402;  195,545;25238,610;24,25365
 265,59; 6282,026;  171,614;25477,207;24,14649
 266,19; 6244,923;  182,546;25585,669;23,86469
 266,78; 6287,975;  226,003;25736,284;23,76286
 267,38; 6203,041;  201,923;25781,847;23,46027
 267,98; 6172,543;  189,696;25840,891;23,32385
 268,58; 6129,476;  194,077;25858,599;23,12686
 269,17; 6076,897;  178,070;25860,805;22,96806
 269,77; 5991,511;  207,403;25655,750;22,72881
 270,37; 5830,259;  166,545;25618,299;22,25275
 270,96; 5825,471;  223,169;25438,167;22,21813
 271,56; 5669,706;  190,174;25228,560;21,88452
 272,16; 5554,790;  182,321;25020,391;21,62998
 272,75; 5469,833;  195,860;25016,044;21,24873
 273,35; 5409,875;  200,708;24855,008;21,12883
 273,95; 5321,809;  192,860;24737,232;20,89664
 274,54; 5295,171;  179,495;24928,455;20,67027
 275,14; 5323,352;  220,401;25139,722;20,47789
 275,74; 5221,907;  169,091;25213,532;20,17540
 276,33; 5249,009;  217,942;25691,686;19,75001
 276,93; 5286,878;  204,036;26054,556;19,66244
 277,53; 5345,230;  193,567;26511,015;19,57509
 278,12; 5352,387;  174,715;27017,644;19,28877
 278,72; 5546,288;  233,104;27762,943;19,29973
 279,32; 5574,499;  192,411;28294,102;19,15219
 279,91; 5677,254;  182,563;28957,693;19,09528
 280,51; 5772,092;  189,798;29510,574;19,03870
 281,11; 5900,381;  200,640;30262,599;18,95998
 281,70; 5999,783;  174,024;30711,540;19,07738
 282,30; 6137,475;  187,021;31444,406;19,03696
 282,90; 6242,435;  185,020;31805,496;19,15662
 283,49; 6337,851;  195,170;32334,427;19,11270
 284,09; 6467,804;  215,177;32725,455;19,23277
 284,69; 6636,098;  221,180;33260,773;19,41585
 285,28; 6709,674;  210,331;33621,729;19,45247
 285,88; 6889,673;  261,859;33732,635;19,80179
 286,47; 6929,228;  203,405;33898,539;19,96082
 287,07; 7106,600;  221,719;33912,914;20,43525
 287,67; 7260,392;  206,806;34022,901;20,85866
 288,26; 7375,520;  188,565;34016,478;21,24564
 288,86; 7596,228;  175,562;34056,750;21,90203
 289,46; 7852,668;  200,718;34230,300;22,48617
 290,05; 8056,772;  191,570;34225,200;23,11009
 290,65; 8391,246;  193,942;34400,326;23,96425
 291,24; 8634,017;  196,104;34523,264;24,58086
 291,84; 8989,348;  214,867;34720,346;25,42924
 292,44; 9297,143;  196,346;34843,036;26,26744
 293,03; 9678,542;  274,566;34928,448;27,13686
 293,63; 9901,947;  187,251;35113,556;27,81484
 294,22;10330,779;  215,871;35285,108;28,84268
 294,82;10554,219;  187,394;35265,138;29,55385
 295,41;10662,014;  173,331;34979,002;30,13498
 296,01;10924,922;  225,089;34862,268;30,89118
 296,61;11022,027;  225,258;34641,414;31,37122
 297,20;10998,941;  200,859;34275,725;31,68929
 297,80;11158,312;  211,803;34039,254;32,35984
 298,39;11175,515;  175,713;33651,009;32,85946
 298,99;11334,728;  223,400;33553,030;33,33769
 299,58;11360,406;  223,420;33451,560;33,51673
 300,18;11479,968;  218,725;33178,930;34,16618
 300,78;11427,416;  196,414;32763,057;34,48622
 301,37;11530,173;  207,236;32759,607;34,78375
 301,97;11627,949;  207,333;32712,436;35,13484
 302,56;11692,159;  200,327;32605,176;35,46331
 303,16;11744,284;  173,556;32422,182;35,87976
 303,75;11872,081;  197,877;32489,889;36,15199
 304,35;12057,244;  179,041;32689,675;36,53636
 304,94;12187,196;  184,026;32786,534;36,81671
 305,54;12233,066;  203,259;32726,019;36,98889
 306,13;12266,210;  170,119;32615,867;37,28097
 306,73;12304,949;  176,500;32401,511;37,63676
 307,33;12402,797;  194,575;32387,508;37,92206
 307,92;12503,953;  217,258;32372,003;38,21114
 308,52;12778,703;  173,555;32855,760;38,56884
 309,11;13125,505;  192,858;33394,380;38,95197
 309,71;13282,180;  167,777;33672,532;39,14192
 310,30;13545,218;  186,411;33821,965;39,71633
 310,90;13787,526;  234,796;34177,350;39,92843
 311,49;13938,225;  207,949;34320,218;40,25026
 312,09;14072,995;  160,802;34482,793;40,53434
 312,68;14443,581;  252,952;34917,591;40,93690
 313,28;14546,492;  174,950;35101,003;41,14848
 313,87;14666,804;  159,411;35171,589;41,43528
 314,47;14877,877;  183,013;35477,156;41,63542
 315,06;15065,405;  179,951;35522,007;42,11824
 315,66;15259,303;  176,186;35733,947;42,41863
 316,25;15264,046;  157,480;35683,007;42,52313
 316,85;15342,908;  165,879;35742,567;42,66004
 317,44;15524,099;  179,551;35869,926;42,99352
 318,04;15614,847;  176,097;35916,590;43,19680
 318,63;15667,347;  165,500;35908,327;43,37051
 319,22;15845,102;  193,788;36093,245;43,59764
 319,82;15917,671;  202,099;35976,755;43,92934
 320,41;15985,299;  202,942;35992,053;44,09821
 321,01;16058,488;  207,724;36146,166;44,10532
 321,60;16180,072;  207,946;36070,930;44,53652
 322,20;16186,354;  173,797;36028,101;44,66007
 322,79;16245,726;  215,566;36180,362;44,57181
 323,39;16401,261;  183,271;36242,924;44,97545
 323,98;16352,450;  172,029;36090,019;45,04824
 324,58;16379,793;  180,863;36020,884;45,19788
 325,17;16388,460;  185,865;35870,151;45,40541
 325,76;16392,186;  209,949;35657,923;45,65067
 326,36;16270,986;  180,493;35334,794;45,77105
 326,95;16186,114;  213,331;35040,737;45,86268
 327,55;16095,437;  179,561;34519,396;46,34814
 328,14;15916,177;  176,804;34236,326;46,21137
 328,74;15850,567;  210,865;33788,296;46,57802
 329,33;15737,214;  208,723;33387,282;46,80279
 329,92;15587,598;  181,704;32810,785;47,21522
 330,52;15279,926;  198,112;32188,411;47,14496
 331,11;15101,623;  186,100;31720,361;47,29942
 331,71;14834,100;  188,179;31220,770;47,19529
 332,30;14742,350;  207,410;30698,073;47,67013
 332,89;14588,221;  253,492;30113,996;48,00565
 333,49;14259,128;  218,331;29589,246;47,80511
 334,08;14164,654;  189,253;29096,811;48,34515
 334,68;13926,079;  199,945;28649,029;48,24807
 335,27;13820,091;  207,729;28405,999;48,27375
 335,86;13775,085;  253,023;28031,208;48,67871
 336,46;13670,108;  202,499;27752,328;48,88455
 337,05;13588,751;  196,484;27515,575;49,02164
 337,65;13518,631;  179,253;27432,691;48,94567
 338,24;13624,949;  232,259;27393,801;49,30755
 338,83;13619,183;  210,952;27260,698;49,56879
 339,43;13598,293;  187,403;27263,797;49,52982
 340,02;13641,388;  186,941;27114,892;49,96462
 340,61;13734,853;  191,105;27199,191;50,14701
 341,21;13718,721;  223,173;27164,989;50,09146
 341,80;13815,089;  185,330;27122,563;50,59822
 342,40;13882,467;  188,189;27247,077;50,60917
 342,99;14024,760;  194,723;27356,765;50,91678
 343,58;14132,829;  183,493;27478,513;51,10579
 344,18;14260,156;  208,416;27601,431;51,29680
 344,77;14449,809;  183,325;27959,751;51,36184
 345,36;14648,345;  163,562;28209,737;51,64620
 345,96;14878,394;  204,108;28494,299;51,87058
 346,55;15139,047;  177,656;28716,329;52,42497
 347,14;15341,276;  175,959;29085,295;52,45820
 347,74;15621,072;  153,510;29550,925;52,61538
 348,33;16003,947;  182,740;30209,862;52,68972
 348,92;16395,095;  207,437;30725,797;53,04236
 349,52;16705,612;  168,666;31257,287;53,19292
 350,11;16905,252;  193,632;31541,063;53,31097
 350,70;17031,197;  186,027;31685,435;53,47774
 351,29;16942,717;  168,003;31461,114;53,60514
 351,89;16972,414;  207,165;31392,717;53,75967
 352,48;17059,311;  162,412;31412,140;54,07055
 353,07;17106,325;  194,498;31342,589;54,29491
 353,67;17103,127;  202,438;31275,378;54,39038
 354,26;17064,828;  189,728;31048,188;54,68549
 354,85;17053,025;  191,110;31019,938;54,69528
 355,45;16889,120;  171,329;30726,474;54,71351
 356,04;16956,575;  184,422;30690,353;54,97997
 356,63;16842,515;  235,332;30434,989;54,99130
 357,22;16815,834;  199,237;30226,312;55,33871
 357,82;16717,678;  196,086;30104,087;55,24138
 358,41;16752,694;  211,718;29983,240;55,55973
 359,00;16576,153;  170,096;29761,074;55,44277
 359,60;16681,782;  193,951;29763,524;55,75945
 360,19;16564,417;  208,193;29572,844;55,70039
 360,78;16521,758;  199,484;29434,366;55,83150
 361,37;16424,965;  192,407;29202,554;55,95476
 361,97;16364,381;  193,871;29156,830;55,83169
 362,56;16221,108;  181,247;28846,136;55,95647
 363,15;16153,100;  249,329;28535,867;56,22381
 363,74;15933,175;  200,090;28197,699;56,19439
 364,34;15810,163;  213,480;27826,455;56,48317
 364,93;15498,601;  196,246;27426,893;56,19534
 365,52;15363,469;  161,715;27035,361;56,56752
 366,11;15167,089;  185,326;26767,506;56,36017
 366,71;14966,102;  171,788;26287,784;56,64848
 367,30;14729,088;  198,023;25978,720;56,36413
 367,89;14677,420;  228,725;25806,704;56,48881
 368,48;14446,435;  196,399;25384,459;56,57457
 369,07;14221,428;  191,104;24999,127;56,55559
 369,67;14064,444;  213,554;24635,535;56,71485
 370,26;13897,381;  174,951;24350,656;56,76124
 370,85;13709,379;  190,408;24181,776;56,34931
 371,44;13691,301;  196,794;23928,164;56,86358
 372,03;13439,023;  175,557;23678,733;56,43265
 372,63;13305,873;  171,485;23427,203;56,47810
 373,22;13133,589;  180,411;23100,841;56,51368
 373,81;12940,443;  169,023;22741,652;56,57923
 374,40;12813,498;  188,573;22536,065;56,49370
 374,99;12625,341;  175,175;22255,171;56,38663
 375,59;12463,633;  178,803;21927,532;56,48528
 376,18;12418,614;  209,330;21828,824;56,47350
 376,77;12314,845;  211,564;21650,650;56,45428
 377,36;12234,185;  216,177;21528,174;56,39082
 377,95;12122,747;  202,712;21280,852;56,55165
 378,55;11972,180;  185,262;21060,243;56,46433
 379,14;11948,864;  203,484;21020,434;56,42219
 379,73;11894,931;  198,866;20886,074;56,53767
 380,32;11874,163;  201,025;20967,569;56,21127
 380,91;11814,658;  183,630;20786,052;56,45466
 381,50;11778,085;  196,094;20788,016;56,24531
 382,10;11709,933;  173,179;20650,569;56,33898
 382,69;11657,901;  171,561;20617,678;56,17859
 383,28;11667,786;  209,710;20536,939;56,36812
 383,87;11519,682;  186,171;20358,768;56,18271
 384,46;11477,413;  168,702;20349,510;56,03696
 385,05;11499,610;  203,632;20343,508;56,08762
 385,64;11475,474;  191,480;20334,968;56,01807
 386,24;11453,460;  175,240;20228,134;56,24236
 386,83;11517,746;  204,931;20334,857;56,19899
 387,42;11498,888;  199,635;20459,728;55,77098
 388,01;11582,535;  193,463;20576,120;55,87629
 388,60;11714,589;  203,242;20827,863;55,81362
 389,19;11806,832;  184,069;21101,875;55,56397
 389,78;11969,235;  180,917;21319,797;55,76605
 390,37;12203,621;  257,005;21778,099;55,51119
 390,96;12278,905;  201,009;21931,882;55,57943
 391,56;12391,461;  197,604;22109,404;55,64973
 392,15;12470,223;  181,688;22334,496;55,47168
 392,74;12596,925;  165,592;22547,688;55,54142
 393,33;12801,797;  191,680;22808,033;55,75663
 393,92;12972,553;  186,355;23277,774;55,37208
 394,51;13044,549;  180,372;23463,397;55,25132
 395,10;13187,906;  214,182;23664,751;55,32371
 395,69;13281,057;  191,185;23849,834;55,32806
 396,28;13343,030;  208,560;23985,185;55,24110
 396,87;13394,652;  201,005;24001,921;55,43336
 397,46;13434,961;  225,763;24097,362;55,33437
 398,06;13502,196;  233,596;24304,566;55,12283
 398,65;13585,322;  204,487;24408,209;55,28420
 399,24;13693,542;  221,865;24575,099;55,31782
 399,83;13611,330;  188,740;24616,465;54,94818
 400,42;13769,444;  230,158;24717,963;55,28991
 401,01;13803,106;  213,724;24823,113;55,22032
 401,60;13801,295;  221,426;24869,234;55,09564
 402,19;13755,081;  246,757;24838,259;54,93086
 402,78;13796,569;  241,521;24874,996;55,02694
 403,37;13679,746;  229,904;24657,434;55,06018
 403,96;13619,584;  230,813;24584,423;54,97654
 404,55;13558,246;  232,018;24486,578;54,94318
 405,14;13409,165;  225,003;24325,384;54,70520
 405,73;13353,841;  236,356;24215,857;54,70291
 406,32;13387,339;  248,205;24158,146;54,95260
 406,91;13210,465;  232,429;23903,949;54,82553
 407,50;13200,014;  240,770;23743,123;55,14020
 408,09;13008,984;  217,586;23438,307;55,08614
 408,68;12910,271;  223,564;23348,146;54,86242
 409,27;12782,741;  216,669;23096,682;54,92161
 409,86;12730,283;  234,427;22907,263;55,11378
 410,45;12681,230;  264,098;22908,280;54,83586
 411,04;12624,932;  257,693;22826,099;54,79890
 411,63;12485,978;  254,536;22601,988;54,73305
 412,22;12347,672;  258,757;22399,880;54,59938
 412,81;12279,592;  262,165;22137,078;54,93703
 413,40;12104,939;  270,118;21770,582;55,04449
 413,99;11926,915;  320,032;21514,368;54,76408
 414,58;11666,541;  245,500;21002,093;55,02368
 415,17;11538,337;  252,165;20794,881;54,94002
 415,76;11385,755;  245,677;20690,617;54,48819
 416,35;11322,016;  241,306;20435,067;54,87195
 416,94;11324,699;  273,837;20468,723;54,72109
 417,53;11384,700;  247,090;20661,892;54,55654
 418,12;11426,095;  250,789;20730,002;54,56902
 418,71;11620,972;  284,196;21138,316;54,36228
 419,30;11674,922;  243,406;21254,449;54,40718
 419,89;11718,850;  238,489;21375,380;54,31433
 420,48;11910,115;  277,427;21641,859;54,44885
 421,07;11964,388;  271,278;21753,803;54,43080
 421,66;11892,129;  232,062;21830,402;53,98594
 422,25;11943,584;  256,011;21813,606;54,21557
 422,84;11955,090;  271,170;21774,986;54,33417
 423,43;11764,139;  243,543;21522,667;54,14037
 424,02;11627,027;  295,856;21273,919;54,01438
 424,60;11427,001;  252,196;20895,165;54,13371
 425,19;11219,523;  272,872;20576,013;53,91605
 425,78;11123,665;  272,566;20533,943;53,55559
 426,37;11057,924;  265,731;20311,570;53,83757
 426,96;10960,208;  261,347;20209,604;53,63306
 427,55;10858,173;  245,441;20098,007;53,45773
 428,14;10725,660;  251,296;19836,295;53,48157
 428,73;10594,732;  261,358;19605,346;53,41905
 429,32;10625,153;  282,422;19611,131;53,50969
 429,91;10643,303;  284,281;19588,850;53,66099
 430,50;10485,852;  273,829;19440,017;53,28145
 431,08;10415,298;  283,454;19350,167;53,13891
 431,67;10379,239;  318,462;19182,511;53,33307
 432,26;10275,599;  331,086;19155,739;52,82707
 432,85;10032,963;  370,314;18684,997;52,75903
 433,44; 9902,843;  372,634;18412,188;52,82952
 434,03; 9690,887;  376,958;18036,127;52,74274
 434,62; 9473,581;  339,404;17571,200;53,00769
 435,21; 9281,359;  349,008;17407,817;52,36211
 435,79; 9243,094;  357,875;17202,200;52,74903
 436,38; 9172,659;  346,583;17105,118;52,66616
 436,97; 9087,306;  341,278;17034,240;52,39350
 437,56; 8931,322;  340,148;16753,433;52,34280
 438,15; 8840,194;  318,296;16653,567;52,16870
 438,74; 8879,804;  334,914;16701,368;52,20978
 439,33; 8815,329;  313,603;16706,956;51,86081
 439,91; 8856,916;  270,537;16797,114;51,95498
 440,50; 8848,541;  317,538;16821,882;51,68944
 441,09; 8941,805;  331,321;16962,768;51,77231
 441,68; 8893,419;  300,719;16895,307;51,78013
 442,27; 8886,204;  287,252;16926,060;51,68010
 442,86; 8832,321;  266,821;16917,102;51,44357
 443,44; 8868,451;  283,353;16958,484;51,48444
 444,03; 8944,300;  362,206;17011,572;51,54607
 444,62; 8844,441;  295,206;16877,679;51,55585
 445,21; 8754,795;  284,125;16743,861;51,46298
 445,80; 8646,404;  330,527;16620,048;51,05047
 446,39; 8569,701;  355,677;16340,226;51,38728
 446,97; 8398,699;  289,850;16108,364;51,26176
 447,56; 8266,966;  294,172;15926,377;51,00236
 448,15; 8136,940;  283,311;15814,667;50,56628
 448,74; 8035,865;  303,698;15502,029;50,87511
 449,33; 7911,560;  296,246;15334,790;50,63864
 449,91; 7803,423;  289,955;15119,481;50,66560
 450,50; 7654,320;  290,105;15001,407;50,05821
 451,09; 7589,054;  306,338;14839,679;50,11040
 451,68; 7529,736;  320,114;14679,951;50,20685
 452,26; 7453,217;  321,967;14621,445;49,87070
 452,85; 7375,887;  292,425;14589,803;49,54378
 453,44; 7365,216;  301,292;14524,425;49,66503
 454,03; 7321,921;  292,818;14532,629;49,36234
 454,61; 7320,318;  288,063;14408,138;49,80324
 455,20; 7386,441;  318,378;14606,802;49,46706
 455,79; 7395,157;  313,981;14599,771;49,56797
 456,38; 7446,242;  323,467;14697,326;49,55367
 456,97; 7423,456;  298,233;14764,556;49,25387
 457,55; 7426,390;  300,165;14841,339;49,00722
 458,14; 7403,292;  335,922;14834,503;48,74525
 458,73; 7327,107;  312,859;14726,820;48,66288
 459,31; 7396,214;  343,949;14761,347;48,91497
 459,90; 7408,105;  360,711;14809,037;48,77654
 460,49; 7450,597;  408,784;14942,507;48,45155
 461,08; 7431,332;  308,955;14982,141;48,54008
 461,66; 7425,851;  318,718;15006,878;48,38681
 462,25; 7505,469;  326,808;15146,311;48,44064
 462,84; 7531,280;  339,803;15159,238;48,52733
 463,43; 7404,190;  285,899;15173,534;47,81345
 464,01; 7395,421;  321,136;15166,802;47,65219
 464,60; 7484,483;  369,663;15137,837;48,17671
 465,19; 7269,491;  298,140;14904,298;47,72885
 465,77; 7239,126;  325,609;14883,177;47,49088
 466,36; 7233,204;  348,053;14725,196;47,88956
 466,95; 7039,269;  323,593;14453,511;47,52806
 467,53; 6932,114;  317,463;14207,375;47,62198
 468,12; 6780,938;  360,004;13891,232;47,45271
 468,71; 6622,697;  332,526;13630,874;47,30039
 469,29; 6477,646;  314,621;13356,641;47,25514
 469,88; 6373,001;  331,242;13135,149;47,18684
 470,47; 6409,804;  392,485;13265,570;46,74341
 471,06; 6329,336;  344,178;13220,317;46,48255
 471,64; 6336,332;  337,867;13284,517;46,33218
 472,23; 6334,518;  316,122;13267,731;46,46833
 472,81; 6353,911;  309,418;13414,963;46,12165
 473,40; 6446,009;  312,738;13581,645;46,22288
 473,99; 6581,575;  429,815;13753,277;46,17238
 474,57; 6567,401;  339,891;13879,513;45,99471
 475,16; 6626,240;  340,190;14023,474;45,93963
 475,75; 6724,104;  369,054;14136,680;46,15937
 476,33; 6709,235;  362,295;14221,809;45,79482
 476,92; 6736,027;  357,279;14265,335;45,86369
 477,51; 6787,353;  359,752;14364,120;45,89712
 478,09; 6789,560;  341,522;14420,616;45,79868
 478,68; 6775,861;  348,525;14328,112;45,97657
 479,27; 6794,853;  385,670;14399,919;45,73333
 479,85; 6751,420;  353,063;14334,797;45,76226
 480,44; 6745,151;  340,991;14525,536;45,14885
 481,02; 7250,296;  354,461;15641,632;45,10864
 481,61; 8254,022;  381,919;17838,460;45,09544
 482,20; 8779,593;  365,846;19086,866;44,94278
 482,78; 9234,828;  391,912;19995,974;45,10757
 483,37; 9449,891;  379,244;20514,022;45,04965
 483,95; 9608,989;  421,785;20894,302;44,87579
 484,54; 9660,843;  428,687;21020,824;44,83341
 485,13; 9642,640;  392,334;21004,797;44,87725
 485,71; 9505,724;  377,484;20789,146;44,72071
 486,30; 9430,855;  421,407;20504,103;44,86174
 486,88; 9290,942;  465,487;20102,079;44,94392
 487,47; 8944,260;  419,182;19352,517;45,02682
 488,05; 8564,158;  405,572;18537,919;44,99465
 488,64; 7988,854;  418,428;17242,064;44,99875
 489,23; 7192,885;  419,113;15413,400;45,17569
 489,81; 6149,845;  421,501;13197,316;44,83741
 490,40; 5739,298;  374,656;12419,682;44,53823
 490,98; 5607,076;  374,122;12201,969;44,24266
 491,57; 5526,639;  402,268;12017,048;44,11940
 492,15; 5507,833;  374,047;11982,283;44,22538
 492,74; 5465,512;  384,111;11912,700;44,07652
 493,32; 5393,428;  393,968;11860,619;43,60000
 493,91; 5348,066;  363,821;11670,779;44,08122
 494,50; 5337,951;  372,223;11641,362;44,06484
 495,08; 5285,303;  362,223;11616,013;43,74598
 495,67; 5291,117;  385,281;11611,836;43,69850
 496,25; 5186,980;  329,291;11469,259;43,60595
 496,84; 5172,944;  340,665;11434,149;43,55962
 497,42; 5163,432;  336,602;11368,782;43,75227
 498,01; 5176,360;  362,590;11358,501;43,77782
 498,59; 5086,534;  329,835;11226,340;43,65344
 499,18; 5044,152;  321,284;11196,086;43,42946
 499,76; 5083,662;  355,599;11118,571;43,92897
 500,35; 4937,769;  331,689;10916,098;43,51759
 500,93; 4943,054;  333,525;10882,188;43,69776
 501,52; 4874,544;  331,834;10789,798;43,43780
 502,10; 4887,237;  339,774;10811,006;43,42816
 502,69; 4804,338;  322,395;10642,086;43,43098
 503,27; 4694,174;  301,916;10388,494;43,54557
 503,86; 4670,073;  325,008;10347,452;43,35335
 504,44; 4574,813;  301,706;10188,037;43,22237
 505,03; 4467,980;  292,629;10037,699;42,84578
 505,61; 4428,895;  309,088; 9844,697;43,20445
 506,19; 4359,245;  330,321; 9739,815;42,81765
 506,78; 4217,556;  307,949; 9486,017;42,59727
 507,36; 4229,767;  307,167; 9362,102;43,32003
 507,95; 4130,423;  305,647; 9190,431;43,04860
 508,53; 4054,014;  295,641; 9055,889;42,90259
 509,12; 4017,291;  320,030; 8923,036;42,97639
 509,70; 3947,034;  342,648; 8747,999;42,88204
 510,29; 3869,880;  346,886; 8644,959;42,45557
 510,87; 3746,911;  297,949; 8452,257;42,29619
 511,46; 3694,741;  301,182; 8258,370;42,64771
 512,04; 3610,065;  318,112; 8129,275;42,14421
 512,62; 3544,640;  313,798; 7965,173;42,22564
 513,21; 3481,565;  290,502; 7825,629;42,34916
 513,79; 3446,431;  296,137; 7658,275;42,79048
 514,38; 3342,786;  277,822; 7517,323;42,33667
 514,96; 3326,674;  324,283; 7468,307;42,02660
 515,54; 3242,542;  289,518; 7323,410;41,98279
 516,13; 3202,233;  319,981; 7239,029;41,65677
 516,71; 3128,646;  295,912; 7048,137;41,95260
 517,30; 3091,756;  297,381; 6947,063;42,02268
 517,88; 3084,328;  317,227; 6878,640;42,17234
 518,46; 2980,281;  285,076; 6730,611;41,81506
 519,05; 2939,533;  294,698; 6703,333;41,26986
 519,63; 2930,880;  302,310; 6616,340;41,63063
 520,22; 2907,697;  314,938; 6593,731;41,29392
 520,80; 2869,719;  297,708; 6508,854;41,40961
 521,38; 2894,695;  346,545; 6486,640;41,50018
 521,97; 2813,202;  294,483; 6443,422;40,96185
 522,55; 2815,008;  305,560; 6389,435;41,24753
 523,13; 2790,224;  297,334; 6387,909;40,93030
 523,72; 2777,392;  291,384; 6378,496;40,84052
 524,30; 2840,229;  326,954; 6516,379;40,60595
 524,89; 2816,301;  291,176; 6523,006;40,51980
 525,47; 2857,313;  309,803; 6618,150;40,38317
 526,05; 2842,556;  286,035; 6671,354;40,03748
 526,64; 2898,174;  315,193; 6804,078;39,80625
 527,22; 2927,939;  312,264; 6914,608;39,61737
 527,80; 3029,399;  358,961; 7003,360;40,19081
 528,39; 3000,181;  295,504; 7098,852;39,75508
 528,97; 3075,327;  307,809; 7247,004;39,88240
 529,55; 3136,866;  317,718; 7432,849;39,62187
 530,14; 3198,886;  339,200; 7651,572;39,10751
 530,72; 3212,534;  303,963; 7691,269;39,37255
 531,30; 3267,601;  288,355; 7850,156;39,39863
 531,89; 3312,190;  322,970; 7970,985;39,08491
 532,47; 3364,317;  334,281; 8056,487;39,23796
 533,05; 3377,884;  336,884; 8120,403;39,06974
 533,63; 3397,138;  339,898; 8132,062;39,23480
 534,22; 3379,409;  316,975; 8165,049;39,02147
 534,80; 3444,196;  324,599; 8286,546;39,18133
 535,38; 3521,509;  428,279; 8387,112;38,86537
 535,97; 3402,397;  323,050; 8292,999;38,63696
 536,55; 3458,001;  377,985; 8392,947;38,42833
 537,13; 3443,133;  378,431; 8402,746;38,19269
 537,71; 3468,111;  414,891; 8388,624;38,29097
 538,30; 3514,780;  438,209; 8503,060;38,14790
 538,88; 3561,643;  486,299; 8579,232;38,00036
 539,46; 3606,694;  526,599; 8757,867;37,41945
 540,05; 3627,312;  563,988; 8896,209;36,76479
 540,63; 3733,866;  590,912; 9121,692;36,84252
 541,21; 3775,165;  627,994; 9215,345;36,64892
 541,79; 3826,216;  675,378; 9361,944;36,27253
 542,38; 3892,905;  708,756; 9493,009;36,24837
 542,96; 3936,439;  708,462; 9675,574;35,99795
 543,54; 3992,464;  729,685; 9843,577;35,80006
 544,12; 4007,716;  708,919; 9988,780;35,54791
 544,70; 4047,522;  689,463;10076,676;35,77269
 545,29; 4129,817;  693,987;10209,475;36,10777
 545,87; 4146,292;  679,455;10317,020;35,97213
 546,45; 4096,016;  622,910;10274,433;35,98506
 547,03; 4080,834;  624,530;10355,245;35,51953
 547,62; 4145,429;  580,918;10495,003;35,95401
 548,20; 4180,200;  582,077;10633,114;35,79852
 548,78; 4191,148;  539,787;10763,419;35,71492
 549,36; 4237,776;  506,785;10946,028;35,74005
 549,94; 4242,012;  466,613;11069,248;35,60812
 550,53; 4310,150;  482,628;11307,205;35,35955
 551,11; 4351,573;  436,405;11423,540;35,63411
 551,69; 4421,746;  452,323;11763,498;35,09293
 552,27; 4505,618;  414,624;12006,016;35,29338
 552,85; 4594,212;  410,405;12368,352;34,98767
 553,44; 4693,602;  417,553;12606,340;35,08183
 554,02; 4829,613;  416,172;12948,701;35,21589
 554,60; 4846,813;  360,176;13286,616;34,70899
 555,18; 5021,134;  406,785;13666,087;34,80084
 555,76; 5124,626;  381,095;13938,209;34,98924
 556,34; 5199,007;  392,798;14286,410;34,59294
 556,93; 5337,036;  369,862;14742,172;34,56072
 557,51; 5438,164;  364,106;15086,384;34,46517
 558,09; 5546,073;  384,324;15381,647;34,41780
 558,67; 5688,412;  370,726;15790,824;34,48542
 559,25; 5724,258;  391,185;15994,843;34,17835
 559,83; 5802,973;  368,423;16349,542;34,00607
 560,41; 5912,835;  358,718;16741,412;33,90234
 561,00; 6008,362;  380,573;17058,456;33,74403
 561,58; 6061,010;  365,256;17295,942;33,64160
 562,16; 6119,690;  352,636;17563,758;33,50772
 562,74; 6237,422;  343,172;18019,534;33,34538
 563,32; 6322,381;  340,884;18463,047;33,00653
 563,90; 6445,118;  374,111;18751,178;33,03578
 564,48; 6571,894;  383,409;19141,490;32,99104
 565,06; 6695,724;  369,418;19742,025;32,65594
 565,65; 6947,540;  380,354;20392,804;32,81550
 566,23; 7202,094;  417,727;21174,520;32,68505
 566,81; 7351,590;  365,877;21803,886;32,58564
 567,39; 7619,336;  377,348;22719,322;32,41427
 567,97; 7732,923;  395,417;23375,137;31,93035
 568,55; 8024,813;  408,653;24221,748;31,98308
 569,13; 8193,174;  367,112;24876,340;31,93108
 569,71; 8504,944;  372,944;25867,724;31,89673
 570,29; 8794,200;  416,862;26786,630;31,76872
 570,87; 8986,739;  405,557;27584,995;31,57233
 571,45; 9126,383;  400,111;28290,910;31,28728
 572,03; 9242,274;  355,581;28672,731;31,38272
 572,61; 9466,054;  353,499;29338,205;31,43918
 573,20; 9648,270;  376,952;30011,990;31,28499
 573,78; 9797,318;  371,423;30679,324;31,10045
 574,36; 9959,825;  390,267;31202,664;31,05749
 574,94;10040,288;  455,967;31659,909;30,71510
 575,52;10021,314;  394,055;31794,562;30,65956
 576,10;10164,663;  433,666;32346,027;30,49288
 576,68;10276,387;  422,273;32898,129;30,34289
 577,26;10480,557;  451,214;33577,054;30,27649
 577,84;10624,383;  455,498;34085,120;30,23788
 578,42;10678,633;  499,201;34419,056;30,01025
 579,00;10593,716;  453,885;34499,448;29,78312
 579,58;10647,509;  494,352;34762,836;29,62826
 580,16;10551,223;  463,510;34720,555;29,44712
 580,74;10571,871;  469,742;34999,443;29,25635
 581,32;10596,186;  468,507;34998,792;29,32984
 581,90;10510,003;  496,279;34962,551;29,05369
 582,48;10475,237;  474,357;35030,909;28,94062
 583,06;10395,064;  478,276;35274,242;28,49982
 583,64;10425,262;  484,198;35241,277;28,60155
 584,22;10276,703;  489,519;35129,513;28,25400
 584,80;10165,175;  498,124;34846,492;28,14413
 585,38; 9950,041;  517,797;34446,987;27,79979
 585,96; 9868,383;  479,655;34460,178;27,62973
 586,54; 9838,969;  502,209;34444,318;27,50790
 587,12; 9742,719;  464,205;34628,958;27,15815
 587,70; 9765,723;  502,733;34745,450;27,05098
 588,28; 9693,820;  466,205;34788,386;26,88528
 588,86; 9707,312;  472,361;34790,816;26,90958
 589,44; 9561,060;  440,680;34892,229;26,47306
 590,02; 9625,638;  455,062;35066,005;26,49618
 590,59; 9583,749;  438,209;35229,930;26,28654
 591,17; 9601,269;  442,077;35454,411;26,15990
 591,75; 9536,263;  434,300;35548,657;25,92091
 592,33; 9527,326;  449,682;35684,014;25,76363
 592,91; 9516,951;  402,997;35979,050;25,61823
 593,49; 9546,995;  407,618;36252,507;25,49702
 594,07; 9590,852;  431,464;36510,042;25,38733
 594,65; 9506,119;  445,903;36473,655;25,14788
 595,23; 9525,160;  443,908;36899,907;24,91017
 595,81; 9528,388;  413,218;36986,144;24,92327
 596,39; 9507,702;  424,296;37078,246;24,78152
 596,97; 9498,616;  424,304;37280,341;24,62097
 597,55; 9426,808;  421,905;37309,661;24,41163
 598,12; 9346,531;  395,390;37275,975;24,27060
 598,70; 9321,852;  410,845;37385,292;24,10045
 599,28; 9332,199;  414,614;37516,125;24,03564
 599,86; 9252,565;  407,844;37574,361;23,79755
 600,44; 9197,307;  370,694;37647,632;23,67848
 601,02; 9228,558;  425,938;37762,855;23,57618
 601,60; 9175,406;  408,685;37705,661;23,50518
 602,18; 9092,140;  383,851;37747,488;23,30686
 602,75; 9013,356;  386,294;37756,486;23,08541
 603,33; 8994,841;  407,153;37790,142;22,97218
 603,91; 8935,389;  384,395;37721,005;22,90244
 604,49; 8883,115;  415,461;37758,719;22,67519
 605,07; 8831,825;  428,300;37840,623;22,46192
 605,65; 8858,587;  427,926;37978,541;22,45146
 606,23; 8842,994;  487,977;38103,897;22,21139
 606,80; 8837,560;  542,448;38058,931;22,11058
 607,38; 8750,849;  578,085;38170,951;21,74020
 607,96; 8752,570;  634,371;38194,081;21,61412
 608,54; 8664,945;  700,003;38186,986;21,24722
 609,12; 8631,292;  714,294;38354,841;21,03316
 609,70; 8662,381;  747,998;38368,755;21,03728
 610,27; 8602,177;  742,601;38434,389;20,85222
 610,85; 8581,633;  773,305;38529,208;20,68108
 611,43; 8488,531;  762,614;38461,630;20,49368
 612,01; 8422,789;  743,222;38276,607;20,46063
 612,59; 8361,676;  732,690;38270,554;20,32344
 613,16; 8289,037;  684,981;38193,761;20,27274
 613,74; 8204,189;  655,692;38003,668;20,21126
 614,32; 8206,975;  636,003;38082,592;20,21805
 614,90; 8108,187;  578,456;37936,711;20,15547
 615,48; 7948,975;  525,059;37630,400;20,00767
 616,05; 7872,206;  498,672;37543,036;19,90461
 616,63; 7816,898;  507,207;37447,978;19,78760
 617,21; 7700,779;  496,601;37336,804;19,55521
 617,79; 7680,755;  484,296;37268,587;19,56395
 618,36; 7592,644;  482,069;37275,913;19,32545
 618,94; 7471,432;  427,522;36803,429;19,36422
 619,52; 7447,332;  442,670;36682,811;19,32846
 620,10; 7332,436;  427,602;36564,307;19,10753
 620,67; 7219,477;  430,438;36475,273;18,83498
 621,25; 7221,931;  464,993;36341,460;18,83390
 621,83; 7128,907;  440,137;36286,399;18,65960
 622,41; 7140,082;  503,983;36333,853;18,52114
 622,98; 7018,832;  451,899;36021,051;18,46244
 623,56; 6952,679;  446,282;35995,510;18,30250
 624,14; 6891,534;  423,765;35918,701;18,22167
 624,72; 6813,239;  419,137;35827,288;18,05828
 625,29; 6740,411;  412,513;35931,420;17,81558
 625,87; 6741,551;  457,989;35809,835;17,77435
 626,45; 6630,280;  406,049;35661,101;17,65486
 627,02; 6564,340;  414,913;35708,369;17,42370
 627,60; 6560,241;  395,847;35519,474;17,55056
 628,18; 6473,292;  376,064;35613,072;17,30348
 628,76; 6486,864;  377,823;35574,709;17,35677
 629,33; 6454,693;  420,212;35594,440;17,15597
 629,91; 6423,666;  392,064;35549,845;17,15581
 630,49; 6411,524;  423,056;35731,416;16,96048
 631,06; 6401,218;  400,439;35821,413;16,94131
 631,64; 6325,543;  399,281;35757,143;16,76080
 632,22; 6277,661;  366,123;35640,993;16,75850
 632,79; 6355,009;  408,661;35986,595;16,71358
 633,37; 6264,254;  370,838;35965,811;16,55688
 633,95; 6275,494;  384,664;36011,080;16,53501
 634,52; 6271,403;  365,521;36189,746;16,48572
 635,10; 6216,273;  377,294;36134,077;16,32971
 635,68; 6256,521;  365,277;36399,578;16,34899
 636,25; 6171,942;  358,962;36258,939;16,19215
 636,83; 6173,864;  344,746;36618,786;16,06967
 637,41; 6156,429;  355,736;36545,939;16,02835
 637,98; 6163,500;  391,505;36757,760;15,87184
 638,56; 6150,540;  373,653;36902,018;15,81480
 639,13; 6098,019;  348,360;36975,552;15,69779
 639,71; 6157,131;  421,670;37153,186;15,61455
 640,29; 6017,524;  342,516;36922,296;15,51406
 640,86; 6028,294;  351,440;37025,954;15,47902
 641,44; 5978,064;  347,132;37082,535;15,32835
 642,02; 6026,757;  391,825;37072,039;15,36232
 642,59; 5933,834;  341,441;37344,697;15,11325
 643,17; 5933,604;  344,826;37240,431;15,14754
 643,74; 5903,835;  345,519;37332,781;15,02765
 644,32; 5871,682;  368,673;37176,285;14,95074
 644,89; 5852,913;  367,288;37273,866;14,86354
 645,47; 5828,606;  365,520;37273,601;14,80187
 646,05; 5797,838;  362,828;37166,720;14,76749
 646,62; 5715,223;  350,443;37172,070;14,56964
 647,20; 5688,454;  350,598;37345,959;14,42845
 647,77; 5681,301;  330,367;37107,617;14,54958
 648,35; 5620,609;  326,675;37019,429;14,42774
 648,92; 5620,610;  364,906;37109,163;14,30347
 649,50; 5530,533;  326,137;37018,975;14,18368
 650,08; 5515,457;  311,599;37002,864;14,18282
 650,65; 5507,304;  343,523;37153,906;14,02805
 651,23; 5577,843;  310,523;37858,641;14,02819
 651,80; 5679,228;  313,754;38886,914;13,90986
 652,38; 5741,998;  328,678;39315,956;13,88484
 652,95; 5772,383;  313,678;39767,691;13,83561
 653,53; 5795,691;  340,371;39916,195;13,78448
 654,10; 5857,538;  368,910;40112,391;13,81013
 654,68; 5756,461;  313,987;40043,126;13,69895
 655,25; 5730,231;  309,756;40190,399;13,59174
 655,83; 5735,693;  317,141;40149,673;13,60333
 656,40; 5745,771;  352,373;40164,484;13,54713
 656,98; 5687,848;  319,450;40117,296;13,48917
 657,55; 5640,310;  326,989;39966,800;13,40400
 658,13; 5583,080;  326,989;39564,150;13,39570
 658,70; 5507,311;  341,143;39353,577;13,24236
 659,28; 5354,927;  329,682;38518,389;13,15898
 659,85; 5222,543;  352,836;37644,816;13,05832
 660,43; 5203,467;  348,837;37703,627;12,99600
 661,00; 5169,160;  338,760;37690,824;12,93208
 661,58; 5183,853;  332,991;38098,943;12,84454
 662,15; 5171,622;  307,376;38278,293;12,81045
 662,73; 5287,315;  397,915;38514,951;12,82734
 663,30; 5228,623;  341,146;38722,532;12,73398
 663,88; 5246,086;  336,762;38917,882;12,72468
 664,45; 5218,317;  319,608;39128,386;12,62268
 665,03; 5282,087;  335,686;39535,275;12,61850
 665,60; 5393,395;  427,071;39975,317;12,55763
 666,17; 5291,242;  334,225;40085,206;12,47017
 666,75; 5312,396;  328,764;40366,325;12,44739
 667,32; 5360,243;  358,995;40701,444;12,39699
 667,90; 5336,628;  344,841;40865,410;12,31914
 668,47; 5440,475;  363,380;41122,145;12,45645
 669,05; 5425,090;  330,303;41525,418;12,36745
 669,62; 5387,630;  308,227;41570,152;12,31014
 670,19; 5401,630;  318,535;41644,041;12,30014
 670,77; 5420,400;  332,535;41806,699;12,26755
 671,34; 5423,554;  327,151;41733,895;12,30815
 671,92; 5450,016;  330,921;42058,707;12,26783
 672,49; 5438,171;  357,152;42205,442;12,14152
 673,06; 5396,633;  296,229;42138,792;12,18951
 673,64; 5436,787;  315,306;42104,065;12,25564
 674,21; 5401,942;  306,537;42078,646;12,19810
 674,79; 5440,250;  353,538;42393,304;12,09976
 675,36; 5457,250;  348,307;42591,808;12,09403
 675,93; 5393,482;  309,923;42368,773;12,08678
 676,51; 5422,021;  344,539;42560,431;12,02742
 677,08; 5440,329;  347,155;42653,935;12,03867
 677,65; 5455,330;  333,232;42768,747;12,07031
 678,23; 5465,253;  320,694;42960,481;12,06516
 678,80; 5464,946;  318,079;43157,062;12,01445
 679,38; 5442,100;  325,156;43234,797;11,92493
 679,95; 5490,255;  332,310;43585,839;11,92491
 680,52; 5499,486;  327,464;43712,189;11,92130
 681,10; 5550,564;  344,696;44094,693;11,89913
 681,67; 5585,410;  339,234;44358,197;11,91799
 682,24; 5563,180;  308,389;44439,086;11,90734
 682,82; 5663,565;  321,081;44980,975;11,96260
 683,39; 5731,027;  365,697;45322,786;11,93434
 683,96; 5704,951;  332,544;45596,752;11,86900
 684,54; 5733,798;  306,467;45884,717;11,90772
 685,11; 5821,414;  360,237;46233,990;11,90480
 685,68; 5812,337;  311,468;46585,648;11,88756
 686,25; 5831,646;  303,391;46650,383;11,92797
 686,83; 5836,261;  317,161;46974,502;11,82901
 687,40; 5884,339;  294,315;47295,314;11,89342
 687,97; 5988,032;  337,854;47525,126;11,97395
 688,55; 5924,417;  292,085;47628,091;11,89862
 689,12; 5954,725;  286,470;47867,057;11,91296
 689,69; 5951,649;  283,701;47921,253;11,89807
 690,26; 5965,880;  308,778;48096,295;11,83803
 690,84; 5972,265;  301,009;48252,646;11,82703
 691,41; 6057,727;  325,164;48323,073;11,94336
 691,98; 6080,266;  328,779;48542,730;11,92909
 692,56; 6086,729;  320,780;48735,388;11,90952
 693,13; 6110,652;  365,318;48732,354;11,87861
 693,70; 6135,883;  332,857;48950,165;11,93613
 694,27; 6095,576;  310,396;48987,362;11,88484
 694,84; 6141,885;  308,243;49159,404;11,94166
 695,42; 6226,808;  360,935;49321,370;11,98084
 695,99; 6176,578;  320,705;49499,028;11,90743
 696,56; 6166,655;  322,090;49347,147;11,92159
 697,13; 6233,810;  333,321;49731,497;11,94475
 697,71; 6256,964;  305,706;49833,078;12,01610
 698,28; 6256,042;  316,245;50208,428;11,90527
 698,85; 6256,735;  285,476;50168,855;11,97044
 699,42; 6287,351;  293,322;50374,128;11,96871
 699,99; 6366,736;  337,861;50482,632;12,02294
 700,57; 6331,813;  320,092;50544,444;11,96973
 701,14; 6343,814;  311,170;50638,332;11,98686
 701,71; 6393,660;  342,401;50861,529;11,97816
 702,28; 6383,584;  318,093;50900,033;11,99142
 702,85; 6414,892;  325,709;50990,537;12,01856
 703,43; 6446,893;  348,171;51200,810;11,99293
 704,00; 6523,970;  360,941;51443,006;12,06496
 704,57; 6516,817;  338,095;51548,356;12,06540
 705,14; 6577,895;  360,634;51643,245;12,12353
 705,71; 6579,664;  377,788;51681,441;12,08857
 706,28; 6580,588;  341,711;51600,484;12,17133
 706,86; 6651,896;  367,404;51881,295;12,19961
 707,43; 6698,051;  392,558;51784,184;12,26949
 708,00; 6676,743;  374,020;51829,688;12,24884
 708,57; 6629,359;  357,174;51758,115;12,20247
 709,14; 6697,360;  380,252;51864,465;12,26999
 709,71; 6734,745;  356,175;51958,661;12,36097
 710,28; 6791,899;  350,945;52143,011;12,43618
 710,86; 6831,746;  353,637;52296,977;12,47149
 711,43; 6895,054;  388,561;52232,712;12,55010
 712,00; 6914,901;  347,099;52462,831;12,60234
 712,57; 6995,902;  368,792;52613,181;12,68483
 713,14; 6964,210;  345,485;52694,839;12,64337
 713,71; 6953,826;  342,716;52622,189;12,64571
 714,28; 7006,673;  329,562;52587,155;12,77730
 714,85; 6990,981;  311,486;52370,428;12,83064
 715,42; 7079,904;  318,179;52488,239;12,96093
 716,00; 7186,905;  389,717;52650,513;13,00628
 716,57; 7093,059;  323,410;52897,863;12,87631
 717,14; 7105,291;  300,487;52773,751;12,96813
 717,71; 7115,061;  280,872;52697,409;13,03823
 718,28; 7226,600;  345,411;52941,529;13,08307
 718,85; 7191,985;  294,796;52799,648;13,13629
 719,42; 7288,139;  314,719;53093,690;13,21250
 719,99; 7247,524;  280,874;52844,041;13,25386
 720,56; 7305,833;  327,489;53152,468;13,21031
 721,13; 7319,064;  295,413;53200,664;13,27591
 721,70; 7333,757;  291,336;53172,091;13,31755
 722,27; 7382,526;  327,029;53200,287;13,34417
 722,84; 7513,758;  385,875;53456,945;13,43082
 723,41; 7417,835;  290,107;53359,757;13,43089
 723,98; 7452,144;  312,953;53547,107;13,41092
 724,55; 7534,452;  333,030;53651,611;13,50640
 725,12; 7487,837;  271,877;53561,499;13,54102
 725,69; 7562,453;  289,493;53752,773;13,60366
 726,27; 7616,453;  312,031;53853,507;13,64255
 726,84; 7679,146;  315,186;54174,550;13,67257
 727,41; 7735,993;  314,878;54087,361;13,80095
 727,98; 7776,609;  324,648;54389,173;13,78346
 728,55; 7831,763;  351,648;54299,215;13,86553
 729,12; 7861,533;  298,341;54383,412;13,98388
 729,69; 7930,611;  338,572;54596,223;13,99257
 730,26; 7964,688;  326,342;54893,881;13,99797
 730,82; 7922,304;  321,342;54664,001;13,98710
 731,39; 8013,228;  331,650;54859,889;14,08734
 731,96; 8101,844;  306,574;55130,547;14,21873
 732,53; 8142,536;  335,882;55288,743;14,20609
 733,10; 8209,537;  344,343;55336,401;14,30242
 733,67; 8242,845;  339,575;55680,674;14,28101
 734,24; 8263,307;  329,498;55314,486;14,42905
 734,81; 8306,000;  351,960;55457,451;14,43421
 735,38; 8248,539;  326,114;55160,648;14,44788
 735,95; 8272,770;  331,499;54940,152;14,54215
 736,52; 8316,386;  340,961;55244,348;14,52629
 737,09; 8329,695;  354,654;54918,775;14,61591
 737,66; 8419,388;  403,577;55065,510;14,66434
 738,23; 8456,696;  345,424;55071,091;14,82170
 738,80; 8624,158;  414,809;55413,749;14,92638
 739,37; 8610,466;  371,270;55577,329;14,92444
 739,94; 8655,082;  340,578;55636,987;15,03625
 740,51; 8813,467;  472,733;55690,645;15,10512
 741,07; 8739,083;  353,502;55597,764;15,17910
 741,64; 8836,084;  374,503;55863,268;15,24918
 742,21; 8856,161;  347,118;55899,157;15,31725
 742,78; 8820,854;  317,580;55685,815;15,35768
 743,35; 8943,855;  338,196;55994,011;15,46228
 743,92; 9027,624;  375,658;55992,746;15,55631
 744,49; 9062,548;  375,428;55892,942;15,64753
 745,06; 9058,779;  345,274;55982,831;15,66119
 745,63; 9078,934;  332,351;55944,873;15,72772
 746,19; 9123,242;  334,659;55946,608;15,80341
 746,76; 9167,089;  338,660;56009,573;15,85824
 747,33; 9208,551;  355,122;55937,000;15,92863
 747,90; 9290,167;  359,583;56211,274;15,98982
 748,47; 9283,244;  355,968;56132,470;16,00544
 749,04; 9343,014;  348,507;56220,743;16,09835
 749,61; 9388,630;  373,738;56133,016;16,16752
 750,17; 9488,323;  359,277;56134,674;16,36751
 750,74; 9486,862;  354,431;56069,563;16,39129
 751,31; 9439,862;  331,663;56056,836;16,34486
 751,88; 9507,940;  326,278;55958,725;16,50415
 752,45; 9554,863;  338,356;56058,613;16,54068
 753,02; 9577,249;  358,048;55964,963;16,57923
 753,58; 9610,326;  332,049;55822,313;16,72055
 754,15; 9696,327;  326,818;55941,202;16,84728
 754,72; 9672,866;  323,895;55777,860;16,85898
 755,29; 9715,097;  310,204;55631,364;17,00054
 755,86; 9761,482;  316,896;55711,868;17,04954
 756,42; 9835,713;  330,512;55701,141;17,16650
 756,99; 9838,945;  291,974;55721,106;17,22374
 757,56; 9869,330;  300,436;55504,764;17,33359
 758,13; 9906,715;  254,205;55387,884;17,50747
 758,70;10048,331;  277,360;55463,849;17,70537
 759,26;10081,562;  266,283;55611,968;17,73450
 759,83;10118,948;  282,283;55725,934;17,74173
 760,40;10127,717;  254,284;55604,130;17,83823
 760,97;10197,487;  253,130;55511,250;17,99619
 761,53;10157,257;  238,746;55224,369;18,03837
 762,10;10191,334;  226,439;55091,411;18,16258
 762,67;10269,720;  267,747;55061,685;18,25379
 763,24;10243,028;  220,209;54714,881;18,39229
 763,80;10277,721;  260,055;54863,231;18,34631
 764,37;10313,260;  264,517;54886,350;18,39693
 764,94;10331,106;  256,979;54448,085;18,59000
 765,50;10328,722;  261,595;54363,897;18,60758
 766,07;10359,338;  305,441;54565,170;18,52921
 766,64;10331,723;  285,672;54260,905;18,61234
 767,21;10379,185;  280,442;54071,639;18,77397
 767,77;10422,417;  308,134;54050,067;18,82009
 768,34;10365,187;  314,673;54016,263;18,71549
 768,91;10439,110;  327,058;53876,228;18,88368
 769,47;10470,803;  327,905;53913,732;18,92832
 770,04;10476,727;  320,905;53773,775;18,99958
 770,61;10490,420;  300,752;53592,663;19,12048
 771,18;10467,343;  295,829;53376,936;19,16221
 771,74;10581,190;  313,829;53561,671;19,28221
 772,31;10589,729;  311,291;53366,021;19,37327
 772,88;10615,729;  290,753;53131,910;19,53965
 773,44;10594,807;  296,830;53045,491;19,52273
 774,01;10704,807;  317,831;53152,764;19,65930
 774,58;10663,577;  305,062;52650,345;19,78882
 775,14;10687,193;  286,447;52948,387;19,75002
 775,71;10675,425;  302,832;52857,353;19,73682
 776,27;10801,348;  368,371;52715,395;19,93041
 776,84;10874,887;  397,525;52833,438;19,98127
 777,41;10800,118;  311,987;52554,249;20,07595
 777,97;10737,734;  308,295;52285,215;20,06552
 778,54;10841,812;  303,526;52279,488;20,27531
 779,11;10847,659;  326,988;52323,607;20,23337
 779,67;10874,044;  288,527;52191,727;20,39473
 780,24;10893,506;  307,450;52040,077;20,46302
 780,80;10972,429;  324,835;52063,427;20,57960
 781,37;11005,584;  324,758;51949,700;20,68927
 781,94;10961,661;  313,451;51784,743;20,68767
 782,50;11026,123;  317,144;51658,554;20,85837
 783,07;11083,509;  337,529;51743,289;20,90423
 783,63;11036,509;  304,683;51456,332;20,98041
 784,20;11148,510;  339,376;51300,528;21,21054
 784,77;11084,818;  311,453;51225,186;21,16004
 785,33;11099,972;  294,915;50983,074;21,31673
 785,90;11171,588;  303,915;51032,809;21,42304
 786,46;11178,050;  322,839;50900,159;21,46261
 787,03;11245,359;  301,993;50652,278;21,73447
 787,59;11259,359;  298,224;50513,936;21,82810
 788,16;11301,206;  313,301;50510,517;21,88947
 788,73;11305,514;  312,071;50512,483;21,89911
 789,29;11247,207;  285,840;50073,679;22,01615
 789,86;11294,746;  328,687;49922,875;22,11158
 790,42;11281,593;  301,918;49712,533;22,22129
 790,99;11292,363;  311,688;49431,806;22,35474
 791,55;11248,132;  296,380;49395,233;22,30552
 792,12;11334,210;  334,996;49436,045;22,40118
 792,68;11329,210;  312,842;49136,549;22,56356
 793,25;11308,672;  306,612;48929,591;22,62729
 793,81;11365,365;  383,305;48567,865;22,79166
 794,38;11155,289;  277,074;48364,061;22,62195
 794,94;11263,366;  281,075;48267,103;22,88644
 795,51;11287,828;  315,075;47920,300;23,04947
 796,07;11187,906;  294,614;47741,650;22,95885
 796,64;11323,830;  325,768;47878,769;23,12801
 797,20;11242,676;  303,307;47325,427;23,26430
 797,77;11151,523;  274,692;47092,700;23,23215
 798,33;11182,600;  310,384;46897,743;23,33727
 798,90;11243,139;  318,769;46832,554;23,48631
 799,46;11147,832;  290,924;46419,674;23,53610
 800,03;11148,294;  307,539;46231,408;23,60593
 800,59;11168,833;  311,078;46110,143;23,70737
 801,15;11155,911;  320,694;45870,109;23,78783
 801,72;11084,911;  300,694;45530,997;23,84290
 802,28;11034,989;  328,310;45259,578;23,82902
 802,85;11027,451;  302,618;45098,005;23,94182
 803,41;10971,836;  289,849;44987,740;23,89819
 803,98;10962,914;  294,003;44489,628;24,14020
 804,54;10911,607;  290,465;44177,363;24,20117
 805,11;10912,992;  311,004;44040,252;24,24461
 805,67;10912,915;  322,389;43948,294;24,27577
 806,23;10806,531;  307,543;43562,798;24,27217
 806,80;10835,993;  320,698;43519,687;24,34153
 807,36;10877,763;  333,698;43446,575;24,45688
 807,93;10849,148;  345,314;43091,618;24,57250
 808,49;10769,380;  296,468;42657,968;24,72271
 809,05;10760,226;  279,314;42565,241;24,78582
 809,62;10833,304;  306,238;42518,053;24,93867
 810,18;10793,227;  305,930;42428,711;24,89697
 810,74;10771,690;  271,239;42170,753;25,06103
 811,31;10762,382;  273,470;41899,949;25,19769
 811,87;10774,921;  306,393;41779,299;25,24185
 812,44;10806,230;  319,778;41752,265;25,30973
 813,00;10741,076;  250,009;41412,769;25,48679
 813,56;10835,692;  299,471;41490,811;25,57873
 814,13;10875,077;  287,933;41363,315;25,77491
 814,69;10803,616;  281,549;41238,973;25,69026
 815,25;10759,694;  254,241;40772,477;25,92771
 815,82;10774,541;  299,165;40720,673;25,91535
 816,38;10845,464;  331,242;40600,100;26,11006
 816,94;10716,080;  264,781;40284,912;26,11511
 817,51;10688,235;  257,012;40110,185;26,17413
 818,07;10669,004;  256,397;39827,074;26,31395
 818,63;10643,697;  291,090;39544,732;26,37362
 819,20;10689,390;  277,552;39453,005;26,57746
 819,76;10588,237;  256,552;39198,432;26,53104
 820,32;10657,314;  303,937;38981,551;26,76840
 820,89;10635,699;  282,091;38803,901;26,87726
 821,45;10564,085;  267,630;38485,944;26,94115
 822,01;10584,008;  288,784;38235,371;27,13083
 822,57;10613,470;  286,400;38185,336;27,24897
 823,14;10479,471;  245,323;37953,917;27,14009
 823,70;10538,702;  258,785;37624,267;27,51180
 824,26;10506,472;  259,862;37509,541;27,50791
 824,82;10530,934;  300,094;37435,352;27,55021
 825,39;10389,319;  263,940;37111,241;27,47930
 825,95;10528,397;  290,171;37266,206;27,68881
 826,51;10483,936;  274,018;36743,710;27,99562
 827,08;10556,782;  315,249;36809,907;28,06310
 827,64;10478,475;  297,249;36649,180;28,00739
 828,20;10450,784;  257,403;36443,299;28,16948
 828,76;10516,169;  296,173;36381,188;28,32199
 829,32;10551,246;  313,635;36132,615;28,58153
 829,89;10507,093;  249,866;36017,657;28,67727
 830,45;10545,170;  271,174;36062,315;28,70542
 831,01;10453,786;  279,405;35843,896;28,60826
 831,57;10484,325;  283,175;35652,708;28,84163
 832,14;10466,787;  258,637;35711,366;28,79370
 832,70;10476,019;  260,099;35426,331;29,05037
 833,26;10438,635;  233,945;35366,373;29,04635
 833,82;10495,174;  268,484;35296,031;29,19613
 834,38;10536,559;  257,330;35233,689;29,38908
 834,95;10485,867;  255,715;35182,193;29,29053
 835,51;10481,560;  243,254;35039,466;29,42362
 836,07;10558,022;  271,255;35112,201;29,52494
 836,63;10621,792;  304,870;35036,859;29,70438
 837,19;10539,100;  277,717;34829,286;29,69875
 837,75;10533,870;  245,948;34607,559;29,94016
 838,32;10600,640;  290,487;34752,602;29,91735
 838,88;10612,871;  290,718;34674,259;30,02062
 839,44;10714,025;  294,411;34681,456;30,30099
 840,00;10645,949;  276,488;34592,652;30,21743
 840,56;10581,411;  262,181;34297,540;30,31915
 841,12;10606,181;  260,489;34213,660;30,47047
 841,68;10528,258;  238,412;34080,395;30,40557
 842,25;10599,720;  253,566;34154,052;30,51919
 842,81;10556,644;  258,567;33854,479;30,65277
 843,37;10619,798;  243,028;33824,753;30,90005
 843,93;10634,876;  264,260;33801,257;30,92291
 844,49;10706,107;  281,491;33788,914;31,11136
 845,05;10611,877;  226,414;33613,957;31,10580
 845,61;10730,031;  278,184;33598,845;31,36747
 846,17;10671,724;  262,338;33423,196;31,39058
 846,73;10660,879;  272,031;33429,700;31,33166
 847,29;10659,033;  249,492;33178,127;31,61243
 847,86;10724,572;  250,647;33157,861;31,82866
 848,42;10620,957;  244,416;33008,442;31,67053
 848,98;10673,958;  267,186;32922,562;31,86848
 849,54;10705,189;  250,340;32905,066;32,01634
 850,10;10726,344;  262,725;32723,185;32,23497
 850,66;10702,806;  241,033;32620,150;32,31025
 851,22;10785,499;  240,418;32551,501;32,63611
 851,78;10742,884;  284,034;32665,620;32,29876
 852,34;10726,423;  269,419;32323,124;32,62339
 852,90;10732,346;  252,573;32188,320;32,81518
 853,46;10650,347;  242,727;31997,670;32,77480
 854,02;10698,424;  266,881;32021,020;32,85097
 854,58;10680,040;  252,036;31732,217;33,12562
 855,14;10674,425;  242,728;31675,105;33,18775
 855,70;10612,041;  230,498;31478,609;33,22295
 856,26;10622,196;  261,652;31426,959;33,24384
 856,82;10572,273;  249,575;31362,002;33,17870
 857,38;10612,197;  301,730;31168,583;33,40304
 857,94;10613,813;  260,730;31128,625;33,53997
 858,50;10621,890;  272,577;30932,668;33,75500
 859,06;10608,737;  258,731;30843,633;33,84025
 859,62;10599,122;  280,577;30800,368;33,80936
 860,18;10603,969;  266,347;30540,795;34,14636
 860,74;10557,431;  236,116;30480,376;34,12652
 861,30;10523,124;  239,271;30208,034;34,31524
 861,86;10659,663;  311,117;30398,922;34,39449
 862,42;10580,510;  251,579;30109,349;34,59378
 862,98;10608,049;  286,810;30098,776;34,62113
 863,54;10547,434;  251,503;29904,203;34,72173
 864,10;10544,819;  268,119;29954,015;34,61812
 864,66;10484,435;  228,888;29743,904;34,74688
 865,22;10472,205;  247,273;29580,946;34,85732
 865,78;10456,436;  260,889;29447,373;34,93243
 866,34;10451,513;  246,428;29419,031;34,98175
 866,90;10408,822;  258,274;29261,150;34,99842
 867,45;10373,745;  250,813;29022,039;35,18422
 868,01;10333,669;  244,583;28907,543;35,19904
 868,57;10289,823;  249,045;28737,278;35,24535
 869,13;10239,593;  237,506;28576,012;35,29504
 869,69;10311,824;  240,199;28538,901;35,59041
 870,25;10290,133;  236,969;28389,482;35,70965
 870,81;10319,749;  245,046;28317,832;35,88779
 871,37;10299,826;  269,662;28271,259;35,81997
 871,93;10299,134;  283,739;28096,686;36,00983
 872,49;10257,673;  296,893;27928,728;36,04820
 873,04;10205,905;  240,817;27787,309;36,17552
 873,60;10206,674;  240,894;27667,890;36,33566
 874,16;10221,521;  271,433;27518,163;36,51847
 874,72;10229,675;  254,433;27458,856;36,66772
 875,28;10227,983;  251,433;27358,933;36,80365
 875,84;10212,521;  261,817;27373,779;36,70226
 876,40;10238,137;  243,510;27305,779;36,93196
 876,95;10273,290;  247,356;27243,010;37,13907
 877,51;10283,983;  283,202;27220,471;37,12619
 878,07;10288,060;  290,971;27186,010;37,17075
 878,63;10284,290;  258,048;27179,163;37,24304
 879,19;10305,060;  264,740;27231,625;37,23203
 879,75;10348,675;  254,279;27203,010;37,45778
 880,30;10341,367;  246,048;27291,010;37,32791
 880,86;10536,367;  299,433;27390,625;37,78695
 881,42;10492,137;  233,510;27328,933;37,86111
 881,98;10574,752;  264,894;27395,548;38,00077
 882,54;10673,829;  241,356;27527,625;38,23342
 883,09;10694,598;  265,433;27595,548;38,15998
 883,65;10791,213;  250,433;27656,548;38,46142
 884,21;10905,906;  294,202;27779,240;38,60902
 884,77;10939,598;  235,587;27917,548;38,66782
 885,32;11083,752;  258,279;28054,702;38,94556
 885,88;11161,675;  280,894;28194,779;38,97982
 886,44;11231,060;  255,971;28265,779;39,18302
 887,00;11243,213;  273,971;28209,394;39,26643
 887,56;11317,290;  256,894;28435,010;39,25172
 888,11;11411,060;  269,663;28349,702;39,67728
 888,67;11531,290;  277,740;28548,394;39,80647
 889,23;11490,444;  254,125;28482,010;39,80574
 889,79;11421,213;  244,356;28431,856;39,65182
 890,34;11458,598;  268,125;28384,163;39,80103
 890,90;11513,213;  333,202;28557,779;39,61091
 891,46;11515,598;  244,202;28416,471;40,00883
 892,01;11579,752;  267,048;28408,933;40,19881
 892,57;11565,906;  296,048;28336,240;40,19180
 893,13;11517,829;  243,663;28152,471;40,39644
 893,69;11499,521;  236,048;28070,625;40,46576
 894,24;11495,906;  248,125;27938,933;40,61919
 894,80;11471,060;  255,202;27894,010;40,58011
 895,36;11472,675;  243,356;27727,471;40,85749
 895,91;11393,752;  249,433;27520,779;40,86457
 896,47;11391,521;  272,125;27423,548;40,95327
 897,03;11353,060;  246,663;27244,394;41,13826
 897,58;11290,906;  255,433;27167,779;41,00524
 898,14;11272,444;  262,433;27009,779;41,16301
 898,70;11238,290;  214,125;26779,856;41,49769
 899,25;11267,367;  254,971;26867,240;41,38090
 899,81;11233,521;  259,740;26652,471;41,57880
 900,37;11146,829;  211,279;26454,163;41,67053
 900,92;11177,367;  248,433;26442,163;41,72347
 901,48;11144,137;  236,510;26289,856;41,86651
 902,03;11132,060;  237,048;26127,163;42,08174
 902,59;11040,137;  239,048;26029,856;41,87961
 903,15;11046,521;  262,356;25902,163;42,06024
 903,70;10955,060;  241,279;25715,010;42,05815
 904,26;10987,675;  237,587;25565,471;42,44369
 904,82;10967,829;  241,510;25528,702;42,41799
 905,37;10945,983;  252,587;25409,625;42,50658
 905,93;10867,521;  231,510;25257,163;42,50043
 906,48;10948,367;  249,202;25269,240;42,76239
 907,04;10886,983;  254,817;25191,933;42,63591
 907,60;10861,367;  250,587;24960,010;42,94224
 908,15;10830,367;  236,279;24885,010;42,98026
 908,71;10887,752;  260,971;24848,548;43,22012
 909,26;10821,829;  230,740;24733,163;43,22466
 909,82;10756,906;  255,279;24547,548;43,23032
 910,37;10781,906;  279,894;24504,317;43,35299
 910,93;10712,675;  235,817;24324,625;43,49264
 911,48;10623,137;  211,279;24223,548;43,36057
 912,04;10626,213;  229,510;24064,779;43,61899
 912,60;10697,983;  243,356;24029,163;43,95321
 913,15;10618,675;  245,048;23886,394;43,87917
 913,71;10522,983;  225,587;23652,856;43,95474
 914,26;10530,367;  218,740;23636,010;44,03428
 914,82;10550,983;  247,740;23560,856;44,19505
 915,37;10579,983;  230,663;23486,856;44,50135
 915,93;10591,983;  303,202;23381,471;44,58212
 916,48;10523,444;  221,817;23217,548;44,79800
 917,04;10519,213;  259,663;23063,394;44,99066
 917,59;10564,521;  270,740;23124,548;45,04186
 918,15;10400,367;  205,202;22832,394;45,05714
 918,70;10491,983;  230,817;22744,933;45,57659
 919,26;10462,290;  240,740;22600,702;45,71363
 919,81;10440,367;  219,433;22460,471;45,95529
 920,37;10465,444;  245,433;22430,317;46,06745
 920,92;10420,213;  263,125;22403,625;45,87561
 921,48;10380,367;  223,894;22091,394;46,44552
 922,03;10347,983;  233,048;22110,163;46,23523
 922,59;10331,290;  232,817;22055,702;46,27469
 923,14;10338,598;  244,510;21812,163;46,80198
 923,69;10293,675;  254,510;21781,163;46,63598
 924,25;10296,983;  265,048;21795,010;46,59523
 924,80;10211,983;  239,587;21542,471;46,81242
 925,36;10218,060;  225,202;21428,625;47,12851
 925,91;10151,137;  219,048;21370,010;46,95809
 926,47;10163,675;  217,279;21331,394;47,10780
 927,02;10239,444;  291,971;21219,317;47,53337
 927,57;10143,060;  225,279;21006,087;47,72568
 928,13;10088,444;  225,279;20948,010;47,59588
 928,68;10150,213;  233,817;20900,933;47,98152
 929,24;10013,137;  201,971;20710,625;47,83915
 929,79; 9980,906;  219,587;20580,240;47,94207
 930,34; 9996,213;  226,356;20442,317;48,32744
 930,90;10042,060;  225,663;20414,856;48,62204
 931,45;10025,521;  231,894;20431,779;48,48358
 932,01; 9952,213;  235,048;20330,317;48,35549
 932,56; 9980,444;  250,663;20097,779;49,02365
 933,11; 9983,675;  258,587;20132,548;48,93382
 933,67; 9913,444;  220,202;19943,317;49,14661
 934,22; 9909,521;  230,125;19903,317;49,20094
 934,77; 9919,137;  252,202;19720,779;49,65404
 935,33; 9834,444;  232,971;19621,779;49,52070
 935,88; 9826,521;  239,202;19570,317;49,59527
 936,43; 9805,906;  228,740;19440,933;49,84941
 936,99; 9851,290;  232,202;19387,779;50,21560
 937,54; 9775,675;  204,894;19253,394;50,24428
 938,09; 9892,829;  237,587;19226,317;50,84722
 938,65; 9733,444;  237,433;19047,317;50,48416
 939,20; 9711,137;  210,356;19020,779;50,50807
 939,75; 9724,290;  214,740;18954,471;50,74539
 940,31; 9644,521;  213,125;18819,933;50,68788
 940,86; 9701,444;  225,740;18780,163;51,06978
 941,41; 9731,367;  315,510;18720,317;51,15977
 941,96; 9600,983;  220,048;18550,471;51,17686
 942,52; 9616,060;  222,125;18442,856;51,55630
 943,07; 9525,444;  199,740;18381,087;51,29270
 943,62; 9626,367;  217,587;18287,010;52,07018
 944,18; 9578,213;  209,971;18255,317;51,91500
 944,73; 9585,675;  234,433;18020,240;52,57699
 945,28; 9456,367;  196,894;17911,933;52,26900
 945,83; 9458,213;  221,663;17909,087;52,22100
 946,39; 9488,521;  218,279;17914,702;52,38484
 946,94; 9461,521;  243,817;17736,010;52,69610
 947,49; 9367,829;  216,510;17631,625;52,54814
 948,04; 9446,290;  262,356;17690,317;52,69655
 948,59; 9404,367;  241,971;17645,163;52,64779
 949,15; 9372,290;  207,740;17503,625;52,98688
 949,70; 9303,521;  229,433;17385,471;52,89151
 950,25; 9341,598;  231,663;17277,010;53,44529
 950,80; 9271,444;  186,663;17122,702;53,64171
 951,36; 9225,213;  192,587;17124,548;53,34661
 951,91; 9254,598;  243,356;17139,933;53,33176
 952,46; 9178,060;  202,663;16908,394;53,72645
 953,01; 9219,290;  236,202;16897,010;53,91748
 953,56; 9150,675;  201,125;16755,471;54,06163
 954,11; 9158,521;  234,663;16748,317;54,03927
 954,67; 9103,444;  218,894;16653,087;54,06137
 955,22; 9079,983;  196,279;16463,625;54,61065
 955,77; 9142,829;  243,894;16551,240;54,57010
 956,32; 9141,444;  281,894;16403,163;54,95566
 956,87; 9005,367;  216,433;16257,240;54,79110
 957,42; 9003,137;  230,125;16189,933;54,96941
 957,98; 8932,675;  217,587;16138,933;54,73839
 958,53; 8985,213;  248,356;16123,010;55,03652
 959,08; 8899,829;  204,356;15932,779;55,28509
 959,63; 8886,598;  209,817;15836,471;55,52552
 960,18; 8836,137;  240,433;15843,548;55,08966
 960,73; 8862,906;  224,048;15819,087;55,39491
 961,28; 8761,444;  206,663;15655,010;55,37668
 961,83; 8772,675;  247,894;15641,548;55,37854
 962,39; 8738,367;  203,894;15504,702;55,77793
 962,94; 8698,598;  224,663;15445,163;55,67448
 963,49; 8610,213;  227,202;15295,779;55,63240
 964,04; 8593,367;  228,971;15216,548;55,80886
 964,59; 8560,675;  203,125;15139,317;55,95502
 965,14; 8556,290;  244,894;15098,856;55,95407
 965,69; 8544,906;  237,202;14957,163;56,43835
 966,24; 8479,444;  217,279;14840,317;56,50102
 966,79; 8460,675;  237,048;14789,394;56,51066
 967,34; 8405,060;  205,510;14734,856;56,43440
 967,89; 8368,367;  216,663;14617,625;56,60527
 968,44; 8390,675;  222,740;14560,933;56,96628
 968,99; 8404,521;  229,433;14552,625;57,07588
 969,55; 8350,829;  227,356;14408,625;57,28312
 970,10; 8287,906;  236,048;14297,702;57,26110
 970,65; 8248,829;  253,971;14166,471;57,46528
 971,20; 8164,598;  207,817;14077,240;57,36923
 971,75; 8064,752;  196,433;13935,163;57,27108
 972,30; 8098,521;  232,587;13902,010;57,54401
 972,85; 8041,290;  212,817;13824,240;57,51399
 973,40; 7980,752;  217,971;13728,163;57,45870
 973,95; 7973,521;  234,740;13695,010;57,49351
 974,50; 7892,906;  256,202;13630,317;57,10063
 975,05; 7849,213;  232,356;13502,240;57,39958
 975,60; 7856,983;  246,587;13442,010;57,67451
 976,15; 7795,983;  220,356;13283,010;57,99455
 976,70; 7739,675;  228,663;13184,856;57,97237
 977,25; 7728,598;  245,740;13159,010;57,94704
 977,80; 7707,137;  227,356;13054,240;58,31331
 978,35; 7608,983;  239,279;12839,394;58,48918
 978,89; 7561,983;  204,817;12779,702;58,50682
 979,44; 7560,521;  226,048;12821,779;58,22983
 979,99; 7477,137;  212,817;12606,625;58,61249
 980,54; 7503,444;  247,125;12527,010;59,09110
 981,09; 7426,598;  256,279;12521,856;58,45888
 981,64; 7384,060;  241,663;12382,933;58,82743
 982,19; 7375,906;  276,894;12315,933;58,96660
 982,74; 7252,983;  241,048;12229,010;58,49147
 983,29; 7202,906;  219,587;12037,625;59,09034
 983,84; 7164,906;  226,740;11923,702;59,31596
 984,39; 7188,829;  318,202;11991,625;58,85700
 984,94; 7025,829;  204,894;11736,779;59,14848
 985,49; 7036,213;  263,587;11708,163;59,17761
 986,03; 7007,060;  262,971;11659,548;59,17644
 986,58; 6960,290;  288,356;11489,240;59,56614
 987,13; 6891,906;  237,202;11355,394;59,85419
 987,68; 6794,598;  258,510;11278,625;59,31053
 988,23; 6796,829;  254,356;11222,317;59,65077
 988,78; 6686,521;  236,356;11108,548;59,32718
 989,33; 6676,752;  249,202;11009,548;59,73367
 989,88; 6632,444;  273,510;10959,625;59,50651
 990,42; 6530,444;  236,971;10761,856;59,79612
 990,97; 6500,983;  240,202;10640,163;60,20004
 991,52; 6433,598;  255,356;10569,779;59,89906
 992,07; 6401,137;  270,817;10517,317;59,82842
 992,62; 6335,521;  241,279;10391,856;60,03838
 993,17; 6310,906;  255,356;10232,933;60,69159
 993,71; 6256,675;  258,587;10219,010;60,21921
 994,26; 6192,521;  227,817; 9997,471;61,05338
 994,81; 6176,752;  257,587;10026,471;60,59203
 995,36; 6086,598;  233,663; 9858,779;60,80898
 995,91; 6059,213;  246,356; 9744,163;61,20210
 996,45; 5984,060;  243,048; 9689,625;60,77346
 997,00; 5938,829;  218,125; 9582,010;61,09328
 997,55; 5918,752;  251,356; 9489,933;61,34490
 998,10; 5865,213;  269,433; 9388,933;61,36061
 998,65; 5774,521;  237,356; 9351,163;60,75578
 999,19; 5763,752;  263,510; 9219,625;61,41326
 999,74; 5712,829;  283,587; 9113,163;61,48927
1000,29; 5642,444;  254,356; 9071,317;61,11049
1000,84; 5598,060;  247,356; 8884,625;61,94902
1001,38; 5586,983;  251,510; 8792,087;62,47205
1001,93; 5536,752;  246,125; 8761,702;62,12881
1002,48; 5438,444;  226,971; 8619,087;62,09964
1003,03; 5432,752;  254,433; 8565,471;62,30652
1003,57; 5366,752;  255,279; 8497,317;62,01710
1004,12; 5405,367;  288,048; 8389,702;63,16388
1004,67; 5315,829;  238,202; 8254,087;63,34456
1005,22; 5212,598;  229,279; 8159,702;62,83800
1005,76; 5148,521;  218,279; 8040,548;63,02829
1006,31; 5151,367;  257,202; 7979,240;63,37919
1006,86; 5052,829;  234,740; 7830,087;63,43474
1007,40; 4966,752;  216,663; 7735,856;63,17286
1007,95; 4943,367;  239,663; 7658,625;63,40111
1008,50; 4855,367;  248,587; 7545,702;63,13153
1009,04; 4809,060;  236,048; 7434,240;63,53000
1009,59; 4746,213;  247,971; 7270,317;64,05612
1010,14; 4678,290;  228,279; 7237,087;63,49171
1010,68; 4623,290;  243,433; 7149,548;63,41999
1011,23; 4591,060;  227,587; 6996,548;64,46296
1011,78; 4583,983;  253,894; 6943,856;64,72516
1012,32; 4482,752;  272,125; 6822,394;64,28174
1012,87; 4466,367;  269,894; 6837,548;63,89608
1013,42; 4401,598;  225,048; 6690,702;64,59594
1013,96; 4407,444;  270,125; 6717,240;64,17318
1014,51; 4356,444;  207,817; 6585,163;65,05256
1015,06; 4334,137;  216,202; 6554,240;64,97175
1015,60; 4445,906;  275,817; 6607,087;65,86497
1016,15; 4427,906;  230,663; 6560,856;66,30513
1016,69; 4465,752;  237,202; 6614,856;66,30259
1017,24; 4437,137;  223,433; 6589,394;66,19116
1017,79; 4523,367;  277,510; 6636,317;66,77129
1018,33; 4542,675;  231,510; 6634,779;67,32757
1018,88; 4557,367;  251,971; 6665,548;67,12941
1019,42; 4573,675;  231,971; 6630,163;67,85829
1019,97; 4581,137;  227,894; 6621,625;68,08611
1020,51; 4631,675;  268,356; 6689,548;67,95185
1021,06; 4543,906;  227,125; 6628,625;67,43389
1021,61; 4564,137;  201,740; 6623,933;67,92690
1022,15; 4521,290;  188,510; 6586,702;67,71883
1022,70; 4547,367;  241,740; 6589,856;67,82528
1023,24; 4542,752;  217,971; 6503,702;68,80315
1023,79; 4539,598;  225,356; 6506,702;68,68340
1024,33; 4504,752;  217,817; 6428,010;69,03063
1024,88; 4423,060;  244,817; 6364,010;68,28094
1025,42; 4375,521;  249,971; 6247,702;68,78518
1025,97; 4347,829;  220,048; 6179,240;69,26745
1026,51; 4246,290;  200,894; 6035,548;69,33395
1027,06; 4229,521;  215,202; 5981,933;69,61170
1027,60; 4191,906;  244,817; 5897,933;69,82147
1028,15; 4149,213;  251,048; 5856,087;69,54752
1028,69; 4016,137;  192,587; 5682,548;69,64621
1029,24; 3994,060;  232,587; 5602,548;70,04656
1029,78; 3917,367;  219,510; 5551,394;69,35367
1030,33; 3855,137;  202,663; 5448,317;69,62856
1030,87; 3835,521;  224,894; 5380,548;70,03238
1031,42; 3779,598;  212,356; 5271,625;70,50904
1031,96; 3748,213;  241,971; 5232,625;70,25617
1032,51; 3680,675;  211,817; 5156,702;70,15043
1033,05; 3644,137;  237,048; 5132,702;69,59415
1033,60; 3537,060;  197,587; 4966,702;70,02290
1034,14; 3525,675;  215,894; 4919,394;70,36847
1034,69; 3513,213;  223,740; 4855,933;71,01331
1035,23; 3454,829;  216,894; 4821,702;70,31639
1035,77; 3413,598;  215,817; 4729,010;70,85408
1036,32; 3397,598;  192,433; 4662,702;71,69961
1036,86; 3364,060;  230,279; 4599,163;71,72954
1037,41; 3304,906;  239,740; 4541,240;71,25806
1037,95; 3216,675;  188,279; 4430,548;71,38623
1038,50; 3209,906;  213,202; 4401,317;71,55256
1039,04; 3171,752;  235,740; 4344,933;71,44985
1039,58; 3115,060;  199,433; 4289,856;71,27935
1040,13; 3102,983;  221,740; 4213,856;72,17332
1040,67; 3098,829;  252,817; 4231,010;71,54032
1041,21; 3086,983;  258,279; 4144,856;72,78137
1041,76; 2988,675;  204,202; 4034,163;72,70238
1042,30; 2969,060;  221,510; 4012,471;72,47634
1042,85; 2923,983;  215,894; 3952,856;72,46766
1043,39; 2863,983;  212,433; 3862,625;72,64138
1043,93; 2861,444;  241,817; 3872,087;72,16068
1044,48; 2839,983;  230,510; 3825,471;72,58695
1045,02; 2763,521;  219,202; 3715,933;72,76280
1045,56; 2786,752;  252,894; 3728,471;72,90466
1046,11; 2709,983;  228,433; 3609,087;73,40444
1046,65; 2666,675;  230,433; 3572,087;72,90529
1047,19; 2606,906;  218,279; 3512,625;72,50686
1047,74; 2590,752;  197,356; 3469,856;73,13663
1048,28; 2563,367;  223,048; 3423,317;73,12882
1048,82; 2564,060;  256,971; 3420,317;72,93190
1049,37; 2520,444;  241,048; 3322,471;73,97219
1049,91; 2510,521;  231,587; 3308,856;74,05704
1050,45; 2466,675;  233,740; 3246,240;74,12231
1050,99; 2439,060;  227,433; 3231,163;73,62933
1051,54; 2376,137;  214,125; 3142,625;73,82658
1052,08; 2403,290;  246,894; 3127,702;74,85387
1052,62; 2336,367;  247,433; 3097,240;73,30090
1053,16; 2283,213;  226,125; 3032,317;73,30533
1053,71; 2298,521;  234,663; 3025,163;73,96014
1054,25; 2253,983;  245,510; 2963,394;73,89839
1054,79; 2229,521;  242,894; 2893,010;74,96379
1055,33; 2161,367;  199,356; 2849,010;74,04784
1055,88; 2169,675;  246,202; 2846,779;73,96332
1056,42; 2153,752;  247,433; 2797,471;74,75649
1056,96; 2133,290;  244,817; 2790,317;74,18869
1057,50; 2134,444;  239,125; 2715,702;76,52979
1058,05; 2065,752;  236,587; 2651,240;75,75270
1058,59; 2074,290;  253,587; 2637,933;76,36072
1059,13; 1989,752;  218,510; 2573,163;75,22304
1059,67; 1998,521;  242,817; 2560,548;75,75098
1060,21; 1957,829;  237,125; 2497,933;76,11014
1060,76; 1940,598;  243,356; 2515,625;74,69372
1061,30; 1934,983;  256,202; 2489,779;75,16109
1061,84; 1904,598;  240,433; 2418,856;76,39312
1062,38; 1865,906;  219,587; 2340,163;77,63544
1062,92; 1884,983;  274,587; 2379,702;76,49919
1063,46; 1835,829;  249,663; 2320,471;76,59646
1064,01; 1797,444;  232,894; 2289,856;76,06122
1064,55; 1783,829;  235,279; 2254,625;76,68571
1065,09; 1730,829;  208,048; 2167,625;77,70967
1065,63; 1760,060;  259,971; 2212,163;76,84122
1066,17; 1729,521;  282,740; 2185,317;76,04322
1066,71; 1708,367;  260,048; 2159,702;76,24122
1067,25; 1696,752;  238,433; 2102,087;78,25054
1067,80; 1652,983;  252,587; 2086,240;76,37189
1068,34; 1677,675;  269,817; 2096,702;77,06331
1068,88; 1597,829;  242,279; 2011,702;76,60972
1069,42; 1626,829;  259,740; 2022,240;77,56530
1069,96; 1568,829;  246,587; 1975,548;76,47610
1070,50; 1600,137;  274,202; 1998,163;76,91208
1071,04; 1532,137;  228,817; 1931,394;76,54980
1071,58; 1529,752;  236,740; 1905,856;77,46688
1072,12; 1502,675;  235,894; 1914,548;75,46409
1072,66; 1495,829;  240,587; 1872,702;76,90892
1073,21; 1509,444;  250,356; 1855,779;78,42721
1073,75; 1473,444;  239,817; 1843,163;76,94077
1074,29; 1452,290;  238,740; 1820,010;76,74531
1074,83; 1447,290;  269,510; 1805,240;76,69188
1075,37; 1447,598;  263,433; 1800,010;77,06515
1075,91; 1392,983;  256,125; 1753,010;75,94825
1076,45; 1401,829;  244,894; 1728,548;77,97874
1076,99; 1399,213;  257,202; 1729,087;77,58839
1077,53; 1348,367;  235,433; 1662,548;77,98491
1078,07; 1359,290;  244,740; 1679,240;77,69606
1078,61; 1336,829;  249,587; 1643,087;78,02241
1079,15; 1330,598;  242,202; 1623,240;78,80998
1079,69; 1320,906;  239,279; 1606,240;79,12636
1080,23; 1314,906;  262,587; 1587,702;79,41340
1080,77; 1361,752;  302,971; 1626,625;79,98925
1081,31; 1259,906;  236,740; 1546,548;78,11570
1081,85; 1288,444;  268,510; 1558,625;79,05763
1082,39; 1257,906;  238,433; 1515,163;79,85028
1082,93; 1261,675;  249,125; 1515,087;79,98268
1083,47; 1227,444;  235,125; 1445,471;81,98640
1084,01; 1241,213;  253,740; 1488,317;79,98473
1084,55; 1196,213;  241,510; 1434,779;80,00741
1085,09; 1206,521;  256,587; 1444,933;79,93753
1085,63; 1206,521;  249,663; 1423,317;81,52810
1086,17; 1176,983;  228,663; 1396,317;81,21578
1086,71; 1152,675;  224,279; 1372,010;80,88972
1087,24; 1168,521;  261,663; 1402,163;79,51405
1087,78; 1166,290;  259,279; 1373,702;81,38844
1088,32; 1119,675;  230,971; 1326,625;81,11174
1088,86; 1135,675;  257,356; 1332,394;81,70119
1089,40; 1126,213;  250,587; 1322,548;81,68455
1089,94; 1093,213;  222,356; 1272,010;82,96618
1090,48; 1085,213;  262,125; 1279,933;80,86876
1091,02; 1095,213;  266,048; 1280,625;81,72524
1091,56; 1065,983;  250,894; 1249,548;81,61872
1092,10; 1033,829;  229,510; 1219,933;81,20966
1092,63; 1064,906;  268,048; 1259,625;80,36267
1093,17; 1046,290;  251,510; 1227,779;81,41000
1093,71; 1002,367;  231,356; 1181,625;81,13612
1094,25; 1039,752;  269,663; 1208,779;82,00147
1094,79; 1000,290;  239,663; 1163,548;82,32921
1095,33;  999,060;  256,048; 1162,163;81,99966
1095,87;  983,060;  246,433; 1143,087;82,15288
1096,40;  949,367;  235,048; 1108,856;81,74788
1096,94;  972,829;  242,279; 1113,240;83,87856
1097,48;  977,213;  260,433; 1126,625;82,75077
1098,02;  940,521;  237,663; 1066,856;84,76414
1098,56;  900,213;  216,202; 1053,010;81,74059
1099,10;  897,444;  216,971; 1052,317;81,46001
1099,63;  887,367;  223,433; 1027,779;82,54339
1100,17;  916,598;  251,510; 1050,856;83,20406
1100,71;  935,367;  265,740; 1058,779;84,43814

