
Integration time [ms]: 140,000
Averaging Nr. [scans]: 13
Smoothing Nr. [pixels]: 0
Data measured with spectrometer [name]: 2009305U1
Wave   ;Sample   ;Dark     ;Reference;Reflectance
[nm]   ;[counts] ;[counts] ;[counts] ;[%]

 175,72;  215,977;  207,672;  215,673;103,80943
 176,32;  238,957;  238,424;  241,025;20,47498
 176,92;  273,502;  272,128;  266,109; 0,00000
 177,52;  275,852;  265,361;  267,675;453,31929
 178,12;  252,293;  258,117;  238,311; 0,00000
 178,72;  282,676;  276,958;  258,525; 0,00000
 179,32;  269,863;  279,578;  258,748; 0,00000
 179,92;  275,857;  269,431;  262,806; 0,00000
 180,52;  264,172;  254,297;  261,455;137,95842
 181,12;  277,188;  273,355;  266,130; 0,00000
 181,73;  289,756;  284,895;  277,919; 0,00000
 182,33;  396,150;  381,443;  397,957;89,05741
 182,93;  286,862;  280,130;  286,949;98,72470
 183,53;  249,271;  255,340;  247,813; 0,00000
 184,13;  251,087;  242,804;  237,845; 0,00000
 184,73;  305,982;  293,338;  296,892;355,74447
 185,33;  293,564;  261,312;  361,143;32,30742
 185,93;  297,381;  243,376;  381,547;39,08566
 186,53;  309,512;  260,229;  410,327;32,83376
 187,13;  326,653;  280,704;  420,213;32,93615
 187,73;  302,015;  257,224;  382,447;35,76940
 188,33;  298,434;  249,678;  381,863;36,88411
 188,93;  314,180;  263,040;  387,891;40,96081
 189,53;  319,446;  261,946;  380,542;48,48347
 190,13;  352,410;  304,841;  423,007;40,25575
 190,73;  298,180;  226,937;  387,302;44,42520
 191,34;  329,577;  266,803;  406,760;44,85247
 191,94;  299,703;  249,363;  387,164;36,53043
 192,54;  322,910;  271,253;  415,221;35,88071
 193,14;  322,151;  271,395;  415,304;35,26953
 193,74;  320,505;  275,854;  398,242;36,48278
 194,34;  319,287;  265,090;  415,805;35,95991
 194,94;  280,546;  230,318;  367,347;36,65530
 195,54;  274,499;  226,774;  345,997;40,03056
 196,14;  291,237;  238,863;  381,829;36,63406
 196,74;  275,132;  237,002;  371,341;28,38380
 197,34;  269,183;  212,871;  367,061;36,52146
 197,94;  287,752;  246,858;  398,110;27,03710
 198,54;  307,989;  250,016;  414,320;35,28412
 199,14;  280,503;  227,106;  389,582;32,86453
 199,74;  257,339;  216,953;  394,616;22,73180
 200,34;  263,957;  205,647;  412,777;28,15135
 200,94;  286,927;  245,177;  440,849;21,33716
 201,54;  276,736;  228,181;  443,845;22,51430
 202,14;  311,242;  260,035;  509,855;20,49769
 202,74;  292,695;  231,337;  483,408;24,34170
 203,34;  267,168;  198,887;  505,069;22,30102
 203,94;  243,189;  174,805;  503,718;20,79091
 204,54;  323,726;  257,705;  595,985;19,51668
 205,14;  277,102;  217,029;  614,536;15,11243
 205,74;  324,497;  257,732;  713,847;14,63776
 206,34;  281,698;  215,112;  712,928;13,37569
 206,94;  303,091;  225,648;  764,426;14,37376
 207,54;  274,131;  199,803;  808,104;12,21893
 208,14;  301,194;  211,343;  894,372;13,15474
 208,74;  301,612;  218,875;  969,173;11,02726
 209,34;  318,735;  202,492; 1054,701;13,64026
 209,94;  330,817;  229,414; 1142,048;11,11099
 210,54;  338,664;  221,730; 1275,922;11,09229
 211,14;  347,146;  229,798; 1378,519;10,21550
 211,73;  364,378;  228,180; 1485,662;10,83098
 212,33;  376,323;  231,561; 1585,815;10,68941
 212,93;  383,864;  215,259; 1695,643;11,38929
 213,53;  367,448;  183,413; 1731,515;11,88774
 214,13;  408,148;  207,122; 1852,881;12,21477
 214,73;  389,089;  193,189; 1865,086;11,71721
 215,33;  371,279;  177,568; 1889,894;11,31270
 215,93;  432,639;  214,578; 2025,839;12,03920
 216,53;  392,407;  165,412; 2077,759;11,86997
 217,13;  485,406;  230,730; 2288,601;12,37570
 217,73;  491,849;  207,271; 2523,291;12,28737
 218,33;  471,348;  175,201; 2679,717;11,82453
 218,93;  567,236;  191,675; 3016,014;13,29728
 219,53;  614,722;  193,509; 3295,597;13,57838
 220,13;  621,023;  162,127; 3615,373;13,28883
 220,73;  703,950;  197,261; 3981,424;13,38972
 221,32;  756,535;  199,413; 4393,481;13,28357
 221,92;  828,269;  207,818; 4824,839;13,43833
 222,52;  866,954;  188,348; 5274,577;13,34202
 223,12;  954,153;  188,657; 5727,756;13,81987
 223,72; 1009,143;  208,042; 6131,713;13,52372
 224,32; 1072,990;  210,196; 6567,755;13,57115
 224,92; 1104,034;  184,735; 6890,969;13,70813
 225,52; 1209,465;  217,033; 7257,152;14,09680
 226,12; 1225,323;  196,345; 7552,443;13,98809
 226,72; 1256,536;  162,729; 7885,662;14,16311
 227,31; 1314,811;  161,190; 8271,414;14,22427
 227,91; 1431,809;  204,032; 8671,474;14,49998
 228,51; 1465,797;  197,485; 9080,788;14,27748
 229,11; 1533,738;  190,959; 9437,453;14,52204
 229,71; 1606,688;  182,182; 9761,515;14,87062
 230,31; 1646,335;  178,045;10198,283;14,65324
 230,91; 1710,643;  174,328;10495,044;14,88575
 231,51; 1799,354;  179,117;10729,351;15,35736
 232,10; 1849,612;  181,970;11125,042;15,23925
 232,70; 1941,441;  197,706;11327,421;15,66739
 233,30; 2025,517;  217,962;11566,044;15,92829
 233,90; 2052,177;  184,193;11672,874;16,25934
 234,50; 2104,030;  184,348;11762,227;16,58060
 235,10; 2151,572;  181,042;11763,892;17,01248
 235,70; 2245,264;  199,801;11795,777;17,63943
 236,29; 2233,771;  199,490;11790,212;17,55094
 236,89; 2228,046;  173,867;11668,517;17,87074
 237,49; 2290,153;  194,422;11531,473;18,48568
 238,09; 2264,390;  184,188;11258,005;18,78487
 238,69; 2295,995;  225,709;10981,786;19,24760
 239,29; 2235,213;  177,187;10668,835;19,61584
 239,89; 2234,386;  207,482;10293,457;20,09626
 240,48; 2197,434;  187,496; 9905,604;20,68240
 241,08; 2156,596;  193,033; 9504,563;21,08744
 241,68; 2181,155;  210,727; 9188,966;21,94670
 242,28; 2128,797;  184,346; 8793,143;22,58679
 242,88; 2132,522;  230,430; 8481,530;23,05258
 243,48; 2109,933;  238,191; 8141,747;23,68227
 244,07; 2061,468;  198,262; 7914,995;24,14501
 244,67; 2112,096;  216,267; 7750,440;25,16307
 245,27; 2085,916;  214,795; 7569,124;25,44244
 245,87; 2118,959;  207,352; 7508,591;26,18196
 246,47; 2146,641;  205,257; 7502,141;26,60567
 247,06; 2179,658;  196,187; 7436,481;27,39489
 247,66; 2202,622;  190,882; 7536,970;27,38519
 248,26; 2329,879;  215,797; 7659,802;28,39980
 248,86; 2407,697;  208,027; 7773,824;29,07387
 249,46; 2466,903;  157,732; 8056,240;29,23554
 250,05; 2626,917;  203,419; 8430,382;29,45799
 250,65; 2745,200;  170,717; 8749,185;30,01099
 251,25; 2946,480;  192,186; 9257,926;30,38135
 251,85; 3129,798;  189,328; 9838,778;30,47293
 252,44; 3298,194;  157,644;10487,925;30,40140
 253,04; 3616,026;  212,953;11180,039;31,02988
 253,64; 3783,006;  159,100;11919,352;30,81486
 254,24; 4139,235;  214,265;12914,502;30,90470
 254,84; 4457,211;  185,194;13814,933;31,34335
 255,43; 4746,420;  184,183;14851,732;31,10429
 256,03; 5103,820;  190,255;15905,993;31,26525
 256,63; 5425,859;  194,944;17012,116;31,10460
 257,23; 5686,085;  170,483;17967,154;30,99232
 257,82; 6105,015;  202,554;18985,983;31,42377
 258,42; 6307,555;  145,935;19935,819;31,13520
 259,02; 6621,251;  201,184;20864,266;31,07023
 259,62; 6825,134;  183,087;21654,872;30,93384
 260,21; 7041,057;  197,029;22196,203;31,11039
 260,81; 7210,191;  190,268;22801,606;31,04603
 261,41; 7269,563;  177,399;23313,600;30,65397
 262,01; 7473,224;  211,316;23821,639;30,75734
 262,60; 7457,854;  172,944;24241,692;30,26709
 263,20; 7564,833;  176,487;24635,120;30,20752
 263,80; 7602,680;  207,546;24852,328;30,00689
 264,40; 7601,632;  167,317;25095,732;29,82266
 264,99; 7687,712;  195,545;25238,610;29,91713
 265,59; 7610,809;  171,614;25477,207;29,39743
 266,19; 7615,131;  182,546;25585,669;29,25855
 266,78; 7585,316;  226,003;25736,284;28,84842
 267,38; 7510,152;  201,923;25781,847;28,57018
 267,98; 7492,372;  189,696;25840,891;28,46914
 268,58; 7447,196;  194,077;25858,599;28,26127
 269,17; 7404,807;  178,070;25860,805;28,13850
 269,77; 7282,987;  207,403;25655,750;27,80371
 270,37; 7146,013;  166,545;25618,299;27,42235
 270,96; 7079,307;  223,169;25438,167;27,19071
 271,56; 6940,672;  190,174;25228,560;26,96059
 272,16; 6807,766;  182,321;25020,391;26,67455
 272,75; 6690,069;  195,860;25016,044;26,16503
 273,35; 6640,214;  200,708;24855,008;26,11920
 273,95; 6577,366;  192,860;24737,232;26,01209
 274,54; 6497,757;  179,495;24928,455;25,52940
 275,14; 6589,792;  220,401;25139,722;25,56005
 275,74; 6452,584;  169,091;25213,532;25,08938
 276,33; 6561,168;  217,942;25691,686;24,90104
 276,93; 6562,870;  204,036;26054,556;24,59848
 277,53; 6641,222;  193,567;26511,015;24,49954
 278,12; 6756,366;  174,715;27017,644;24,51913
 278,72; 6908,545;  233,104;27762,943;24,24802
 279,32; 6982,944;  192,411;28294,102;24,16414
 279,91; 7160,601;  182,563;28957,693;24,25024
 280,51; 7304,030;  189,798;29510,574;24,26345
 281,11; 7428,491;  200,640;30262,599;24,04318
 281,70; 7529,149;  174,024;30711,540;24,08554
 282,30; 7707,133;  187,021;31444,406;24,05867
 282,90; 7818,853;  185,020;31805,496;24,14205
 283,49; 8042,588;  195,170;32334,427;24,41692
 284,09; 8141,983;  215,177;32725,455;24,38246
 284,69; 8255,367;  221,180;33260,773;24,31685
 285,28; 8395,609;  210,331;33621,729;24,49846
 285,88; 8563,793;  261,859;33732,635;24,80353
 286,47; 8627,786;  203,405;33898,539;25,00177
 287,07; 8777,647;  221,719;33912,914;25,39515
 287,67; 8915,240;  206,806;34022,901;25,75233
 288,26; 9014,548;  188,565;34016,478;26,09083
 288,86; 9193,110;  175,562;34056,750;26,61521
 289,46; 9376,272;  200,718;34230,300;26,96347
 290,05; 9592,567;  191,570;34225,200;27,62267
 290,65; 9821,752;  193,942;34400,326;28,14624
 291,24;10071,879;  196,104;34523,264;28,76957
 291,84;10309,012;  214,867;34720,346;29,25375
 292,44;10558,352;  196,346;34843,036;29,90763
 293,03;10875,709;  274,566;34928,448;30,59150
 293,63;11045,127;  187,251;35113,556;31,08796
 294,22;11201,738;  215,871;35285,108;31,32622
 294,82;11362,364;  187,394;35265,138;31,85772
 295,41;11408,380;  173,331;34979,002;32,27936
 296,01;11559,066;  225,089;34862,268;32,72200
 296,61;11565,873;  225,258;34641,414;32,95143
 297,20;11456,051;  200,859;34275,725;33,03077
 297,80;11484,202;  211,803;34039,254;33,32323
 298,39;11373,337;  175,713;33651,009;33,45041
 298,99;11329,417;  223,400;33553,030;33,32175
 299,58;11286,106;  223,420;33451,560;33,29312
 300,18;11246,947;  218,725;33178,930;33,45920
 300,78;11097,377;  196,414;32763,057;33,47279
 301,37;11106,792;  207,236;32759,607;33,48314
 301,97;11028,239;  207,333;32712,436;33,28987
 302,56;10978,912;  200,327;32605,176;33,26226
 303,16;10995,090;  173,556;32422,182;33,55657
 303,75;10900,802;  197,877;32489,889;33,14419
 304,35;11007,147;  179,041;32689,675;33,30635
 304,94;10972,124;  184,026;32786,534;33,08978
 305,54;10935,843;  203,259;32726,019;33,00022
 306,13;10883,758;  170,119;32615,867;33,02016
 306,73;10779,148;  176,500;32401,511;32,90192
 307,33;10797,844;  194,575;32387,508;32,93663
 307,92;10739,050;  217,258;32372,003;32,72236
 308,52;10852,479;  173,555;32855,760;32,67504
 309,11;11071,834;  192,858;33394,380;32,76650
 309,71;11131,548;  167,777;33672,532;32,72303
 310,30;11218,747;  186,411;33821,965;32,79962
 310,90;11344,978;  234,796;34177,350;32,73231
 311,49;11373,334;  207,949;34320,218;32,73129
 312,09;11420,981;  160,802;34482,793;32,80747
 312,68;11587,601;  252,952;34917,591;32,69802
 313,28;11586,819;  174,950;35101,003;32,67437
 313,87;11665,845;  159,411;35171,589;32,86409
 314,47;11765,298;  183,013;35477,156;32,81645
 315,06;11823,517;  179,951;35522,007;32,94536
 315,66;11884,827;  176,186;35733,947;32,92851
 316,25;11811,811;  157,480;35683,007;32,80551
 316,85;11913,294;  165,879;35742,567;33,01998
 317,44;11952,615;  179,551;35869,926;32,98666
 318,04;11990,424;  176,097;35916,590;33,05586
 318,63;12010,626;  165,500;35908,327;33,13987
 319,22;12138,515;  193,788;36093,245;33,27272
 319,82;12173,971;  202,099;35976,755;33,46467
 320,41;12227,280;  202,942;35992,053;33,59775
 321,01;12258,963;  207,724;36146,166;33,53300
 321,60;12319,703;  207,946;36070,930;33,77231
 322,20;12377,550;  173,797;36028,101;34,03707
 322,79;12457,919;  215,566;36180,362;34,03982
 323,39;12517,882;  183,271;36242,924;34,20613
 323,98;12577,843;  172,029;36090,019;34,53928
 324,58;12618,573;  180,863;36020,884;34,70341
 325,17;12641,328;  185,865;35870,151;34,90462
 325,76;12703,592;  209,949;35657,923;35,24501
 326,36;12586,451;  180,493;35334,794;35,29002
 326,95;12651,236;  213,331;35040,737;35,71298
 327,55;12570,410;  179,561;34519,396;36,08302
 328,14;12499,956;  176,804;34236,326;36,18122
 328,74;12495,307;  210,865;33788,296;36,58541
 329,33;12476,198;  208,723;33387,282;36,97410
 329,92;12323,642;  181,704;32810,785;37,21201
 330,52;12244,045;  198,112;32188,411;37,65496
 331,11;12134,565;  186,100;31720,361;37,89042
 331,71;12039,601;  188,179;31220,770;38,19024
 332,30;11927,970;  207,410;30698,073;38,43983
 332,89;11903,554;  253,492;30113,996;39,01496
 333,49;11779,484;  218,331;29589,246;39,36259
 334,08;11693,317;  189,253;29096,811;39,79604
 334,68;11616,905;  199,945;28649,029;40,13120
 335,27;11625,135;  207,729;28405,999;40,48974
 335,86;11668,258;  253,023;28031,208;41,09424
 336,46;11671,405;  202,499;27752,328;41,62968
 337,05;11620,609;  196,484;27515,575;41,81737
 337,65;11725,614;  179,253;27432,691;42,36662
 338,24;11845,716;  232,259;27393,801;42,75699
 338,83;11906,123;  210,952;27260,698;43,23579
 339,43;11980,927;  187,403;27263,797;43,55648
 340,02;12109,739;  186,941;27114,892;44,27666
 340,61;12311,039;  191,105;27199,191;44,87521
 341,21;12440,999;  223,173;27164,989;45,34893
 341,80;12499,976;  185,330;27122,563;45,71608
 342,40;12723,144;  188,189;27247,077;46,32472
 342,99;12860,170;  194,723;27356,765;46,62921
 343,58;13072,890;  183,493;27478,513;47,22253
 344,18;13341,029;  208,416;27601,431;47,94147
 344,77;13570,766;  183,325;27959,751;48,19713
 345,36;13927,006;  163,562;28209,737;49,07423
 345,96;14251,308;  204,108;28494,299;49,65396
 346,55;14535,383;  177,656;28716,329;50,30972
 347,14;14847,348;  175,959;29085,295;50,74966
 347,74;15180,828;  153,510;29550,925;51,11782
 348,33;15725,711;  182,740;30209,862;51,76311
 348,92;16181,159;  207,437;30725,797;52,34135
 349,52;16606,001;  168,666;31257,287;52,87251
 350,11;17013,243;  193,632;31541,063;53,65547
 350,70;17148,066;  186,027;31685,435;53,84876
 351,29;17201,129;  168,003;31461,114;54,43091
 351,89;17393,202;  207,165;31392,717;55,10897
 352,48;17546,786;  162,412;31412,140;55,63048
 353,07;17714,157;  194,498;31342,589;56,24633
 353,67;17855,314;  202,438;31275,378;56,81109
 354,26;17840,980;  189,728;31048,188;57,20069
 354,85;17888,959;  191,110;31019,938;57,40682
 355,45;17978,497;  171,329;30726,474;58,27879
 356,04;18110,527;  184,422;30690,353;58,76269
 356,63;18199,891;  235,332;30434,989;59,48597
 357,22;18210,579;  199,237;30226,312;59,98367
 357,82;18343,341;  196,086;30104,087;60,67693
 358,41;18394,921;  211,718;29983,240;61,07583
 359,00;18442,944;  170,096;29761,074;61,75141
 359,60;18595,161;  193,951;29763,524;62,23022
 360,19;18628,808;  208,193;29572,844;62,73058
 360,78;18630,427;  199,484;29434,366;63,04435
 361,37;18685,262;  192,407;29202,554;63,74616
 361,97;18804,799;  193,871;29156,830;64,25769
 362,56;18736,391;  181,247;28846,136;64,73126
 363,15;18751,355;  249,329;28535,867;65,40930
 363,74;18616,535;  200,090;28197,699;65,77863
 364,34;18511,707;  213,480;27826,455;66,26677
 364,93;18372,988;  196,246;27426,893;66,75105
 365,52;18143,642;  161,715;27035,361;66,91287
 366,11;18116,037;  185,326;26767,506;67,45388
 366,71;17923,515;  171,788;26287,784;67,97262
 367,30;17802,434;  198,023;25978,720;68,28524
 367,89;17790,107;  228,725;25806,704;68,65821
 368,48;17648,898;  196,399;25384,459;69,28878
 369,07;17434,143;  191,104;24999,127;69,50590
 369,67;17410,581;  213,554;24635,535;70,41618
 370,26;17218,122;  174,951;24350,656;70,49710
 370,85;17134,780;  190,408;24181,776;70,62695
 371,44;17112,776;  196,794;23928,164;71,28110
 372,03;16990,339;  175,557;23678,733;71,54259
 372,63;16899,242;  171,485;23427,203;71,92965
 373,22;16742,499;  180,411;23100,841;72,25906
 373,81;16598,609;  169,023;22741,652;72,78543
 374,40;16537,665;  188,573;22536,065;73,15851
 374,99;16343,118;  175,175;22255,171;73,22439
 375,59;16291,296;  178,803;21927,532;74,08476
 376,18;16279,498;  209,330;21828,824;74,33184
 376,77;16137,129;  211,564;21650,650;74,28285
 377,36;16158,653;  216,177;21528,174;74,80517
 377,95;16070,571;  202,712;21280,852;75,28112
 378,55;15940,347;  185,262;21060,243;75,47353
 379,14;15931,636;  203,484;21020,434;75,55455
 379,73;15958,857;  198,866;20886,074;76,18230
 380,32;16030,661;  201,025;20967,569;76,22663
 380,91;15944,927;  183,630;20786,052;76,50215
 381,50;15890,765;  196,094;20788,016;76,21761
 382,10;15853,508;  173,179;20650,569;76,57386
 382,69;15873,664;  171,561;20617,678;76,79748
 383,28;15894,448;  209,710;20536,939;77,16122
 383,87;15834,491;  186,171;20358,768;77,57217
 384,46;15780,952;  168,702;20349,510;77,36187
 385,05;15754,979;  203,632;20343,508;77,21670
 385,64;15868,729;  191,480;20334,968;77,82788
 386,24;15800,819;  175,240;20228,134;77,92182
 386,83;15862,197;  204,931;20334,857;77,78104
 387,42;15952,170;  199,635;20459,728;77,75154
 388,01;16093,307;  193,463;20576,120;78,00673
 388,60;16319,652;  203,242;20827,863;78,14160
 389,19;16498,420;  184,069;21101,875;77,99265
 389,78;16646,170;  180,917;21319,797;77,89085
 390,37;17082,391;  257,005;21778,099;78,18090
 390,96;17237,088;  201,009;21931,882;78,39574
 391,56;17417,344;  197,604;22109,404;78,58661
 392,15;17525,096;  181,688;22334,496;78,28989
 392,74;17722,688;  165,592;22547,688;78,44259
 393,33;17954,919;  191,680;22808,033;78,54157
 393,92;18330,135;  186,355;23277,774;78,57369
 394,51;18410,187;  180,372;23463,397;78,29660
 395,10;18628,443;  214,182;23664,751;78,52373
 395,69;18751,128;  191,185;23849,834;78,44887
 396,28;18871,740;  208,560;23985,185;78,49382
 396,87;18918,172;  201,005;24001,921;78,64053
 397,46;18969,359;  225,763;24097,362;78,51839
 398,06;19109,245;  233,596;24304,566;78,41665
 398,65;19162,285;  204,487;24408,209;78,32596
 399,24;19318,875;  221,865;24575,099;78,41673
 399,83;19346,550;  188,740;24616,465;78,42650
 400,42;19454,838;  230,158;24717,963;78,50716
 401,01;19440,319;  213,724;24823,113;78,12707
 401,60;19534,785;  221,426;24869,234;78,35731
 402,19;19415,656;  246,757;24838,259;77,94928
 402,78;19472,303;  241,521;24874,996;78,06768
 403,37;19323,401;  229,904;24657,434;78,16384
 403,96;19185,303;  230,813;24584,423;77,83031
 404,55;19166,536;  232,018;24486,578;78,06580
 405,14;19030,387;  225,003;24325,384;78,02941
 405,73;18937,067;  236,356;24215,857;77,98624
 406,32;18897,293;  248,205;24158,146;77,99721
 406,91;18602,085;  232,429;23903,949;77,60235
 407,50;18599,340;  240,770;23743,123;78,11375
 408,09;18232,684;  217,586;23438,307;77,58199
 408,68;18109,740;  223,564;23348,146;77,34702
 409,27;17927,699;  216,669;23096,682;77,40830
 409,86;17878,725;  234,427;22907,263;77,82131
 410,45;17673,307;  264,098;22908,280;76,88160
 411,04;17613,178;  257,693;22826,099;76,90169
 411,63;17342,996;  254,536;22601,988;76,46715
 412,22;17148,096;  258,757;22399,880;76,28041
 412,81;16962,949;  262,165;22137,078;76,34675
 413,40;16661,522;  270,118;21770,582;76,23744
 413,99;16436,310;  320,032;21514,368;76,04050
 414,58;16037,643;  245,500;21002,093;76,08254
 415,17;15898,092;  252,165;20794,881;76,16290
 415,76;15685,664;  245,677;20690,617;75,51984
 416,35;15530,551;  241,306;20435,067;75,71272
 416,94;15467,375;  273,837;20468,723;75,23458
 417,53;15625,639;  247,090;20661,892;75,33039
 418,12;15638,665;  250,789;20730,002;75,13900
 418,71;15839,908;  284,196;21138,316;74,59299
 419,30;15882,311;  243,406;21254,449;74,43184
 419,89;16004,369;  238,489;21375,380;74,58940
 420,48;16131,144;  277,427;21641,859;74,20613
 421,07;16215,383;  271,278;21753,803;74,21895
 421,66;16180,486;  232,062;21830,402;73,84097
 422,25;16179,025;  256,011;21813,606;73,86266
 422,84;16118,978;  271,170;21774,986;73,69766
 423,43;15861,340;  243,543;21522,667;73,39493
 424,02;15692,733;  295,856;21273,919;73,39513
 424,60;15283,857;  252,196;20895,165;72,81734
 425,19;15037,739;  272,872;20576,013;72,72208
 425,78;14932,818;  272,566;20533,943;72,35566
 426,37;14716,764;  265,731;20311,570;72,08994
 426,96;14612,369;  261,347;20209,604;71,94123
 427,55;14436,209;  245,441;20098,007;71,48077
 428,14;14229,962;  251,296;19836,295;71,37435
 428,73;14081,088;  261,358;19605,346;71,44199
 429,32;14063,206;  282,422;19611,131;71,29697
 429,91;14033,013;  284,281;19588,850;71,22009
 430,50;13910,516;  273,829;19440,017;71,14971
 431,08;13715,831;  283,454;19350,167;70,44936
 431,67;13641,152;  318,462;19182,511;70,62476
 432,26;13515,938;  331,086;19155,739;70,04035
 432,85;13252,627;  370,314;18684,997;70,33872
 433,44;13017,925;  372,634;18412,188;70,09758
 434,03;12699,768;  376,958;18036,127;69,78137
 434,62;12345,635;  339,404;17571,200;69,67487
 435,21;12167,640;  349,008;17407,817;69,28170
 435,79;12074,649;  357,875;17202,200;69,55918
 436,38;11916,069;  346,583;17105,118;69,03638
 436,97;11827,221;  341,278;17034,240;68,80710
 437,56;11688,905;  340,148;16753,433;69,14373
 438,15;11519,907;  318,296;16653,567;68,57316
 438,74;11531,954;  334,914;16701,368;68,41458
 439,33;11520,922;  313,603;16706,956;68,36502
 439,91;11487,394;  270,537;16797,114;67,87163
 440,50;11528,077;  317,538;16821,882;67,92478
 441,09;11557,911;  331,321;16962,768;67,50218
 441,68;11519,816;  300,719;16895,307;67,60696
 442,27;11453,132;  287,252;16926,060;67,10745
 442,86;11433,319;  266,821;16917,102;67,06492
 443,44;11437,047;  283,353;16958,484;66,88819
 444,03;11457,639;  362,206;17011,572;66,64178
 444,62;11298,238;  295,206;16877,679;66,35338
 445,21;11185,782;  284,125;16743,861;66,23227
 445,80;11076,966;  330,527;16620,048;65,97149
 446,39;10862,418;  355,677;16340,226;65,73060
 446,97;10731,643;  289,850;16108,364;66,00995
 447,56;10515,038;  294,172;15926,377;65,38339
 448,15;10359,714;  283,311;15814,667;64,87781
 448,74;10137,964;  303,698;15502,029;64,70623
 449,33;10016,880;  296,246;15334,790;64,63813
 449,91; 9853,459;  289,955;15119,481;64,48962
 450,50; 9681,026;  290,105;15001,407;63,83474
 451,09; 9589,325;  306,338;14839,679;63,87374
 451,68; 9461,363;  320,114;14679,951;63,65845
 452,26; 9372,764;  321,967;14621,445;63,29460
 452,85; 9318,433;  292,425;14589,803;63,13051
 453,44; 9259,762;  301,292;14524,425;62,98521
 454,03; 9179,254;  292,818;14532,629;62,40558
 454,61; 9135,484;  288,063;14408,138;62,65846
 455,20; 9192,764;  318,378;14606,802;62,10892
 455,79; 9193,866;  313,981;14599,771;62,15887
 456,38; 9215,732;  323,467;14697,326;61,86415
 456,97; 9199,370;  298,233;14764,556;61,53006
 457,55; 9157,565;  300,165;14841,339;60,91255
 458,14; 9179,129;  335,922;14834,503;60,99361
 458,73; 9049,979;  312,859;14726,820;60,61568
 459,31; 9031,790;  343,949;14761,347;60,25942
 459,90; 9078,527;  360,711;14809,037;60,33789
 460,49; 9119,262;  408,784;14942,507;59,93288
 461,08; 9043,025;  308,955;14982,141;59,52402
 461,66; 9047,778;  318,718;15006,878;59,42923
 462,25; 9083,941;  326,808;15146,311;59,09195
 462,84; 9072,824;  339,803;15159,238;58,92951
 463,43; 8973,440;  285,899;15173,534;58,35407
 464,01; 9006,857;  321,136;15166,802;58,50678
 464,60; 8987,543;  369,663;15137,837;58,35440
 465,19; 8765,593;  298,140;14904,298;57,97180
 465,77; 8717,378;  325,609;14883,177;57,64541
 466,36; 8681,765;  348,053;14725,196;57,96501
 466,95; 8449,690;  323,593;14453,511;57,50987
 467,53; 8256,412;  317,463;14207,375;57,15622
 468,12; 8086,498;  360,004;13891,232;57,10120
 468,71; 7895,041;  332,526;13630,874;56,86807
 469,29; 7682,226;  314,621;13356,641;56,49129
 469,88; 7558,356;  331,242;13135,149;56,44460
 470,47; 7576,731;  392,485;13265,570;55,80827
 471,06; 7522,605;  344,178;13220,317;55,74984
 471,64; 7538,336;  337,867;13284,517;55,61647
 472,23; 7496,598;  316,122;13267,731;55,44080
 472,81; 7503,911;  309,418;13414,963;54,89655
 473,40; 7527,731;  312,738;13581,645;54,37519
 473,99; 7681,533;  429,815;13753,277;54,42818
 474,57; 7658,241;  339,891;13879,513;54,05136
 475,16; 7741,837;  340,190;14023,474;54,09263
 475,75; 7762,359;  369,054;14136,680;53,70065
 476,33; 7740,703;  362,295;14221,809;53,23714
 476,92; 7774,943;  357,279;14265,335;53,33358
 477,51; 7801,356;  359,752;14364,120;53,13773
 478,09; 7800,345;  341,522;14420,616;52,97801
 478,68; 7688,467;  348,525;14328,112;52,50471
 479,27; 7691,986;  385,670;14399,919;52,13491
 479,85; 7632,993;  353,063;14334,797;52,06743
 480,44; 7682,901;  340,991;14525,536;51,75993
 481,02; 8200,727;  354,461;15641,632;51,32582
 481,61; 9215,331;  381,919;17838,460;50,60231
 482,20; 9802,118;  365,846;19086,866;50,40469
 482,78;10298,096;  391,912;19995,974;50,53128
 483,37;10449,417;  379,244;20514,022;50,01383
 483,95;10601,344;  421,785;20894,302;49,72305
 484,54;10702,686;  428,687;21020,824;49,89283
 485,13;10629,261;  392,334;21004,797;49,66378
 485,71;10431,909;  377,484;20789,146;49,25824
 486,30;10361,976;  421,407;20504,103;49,49818
 486,88;10183,986;  465,487;20102,079;49,49178
 487,47; 9761,688;  419,182;19352,517;49,34421
 488,05; 9349,074;  405,572;18537,919;49,32347
 488,64; 8690,990;  418,428;17242,064;49,17226
 489,23; 7813,940;  419,113;15413,400;49,31763
 489,81; 6636,906;  421,501;13197,316;48,64978
 490,40; 6168,778;  374,656;12419,682;48,10385
 490,98; 6023,323;  374,122;12201,969;47,76187
 491,57; 5981,767;  402,268;12017,048;48,03792
 492,15; 5950,787;  374,047;11982,283;48,04123
 492,74; 5858,707;  384,111;11912,700;47,48713
 493,32; 5771,167;  393,968;11860,619;46,89425
 493,91; 5710,822;  363,821;11670,779;47,28947
 494,50; 5681,023;  372,223;11641,362;47,10919
 495,08; 5586,330;  362,223;11616,013;46,42087
 495,67; 5564,253;  385,281;11611,836;46,13145
 496,25; 5479,032;  329,291;11469,259;46,22761
 496,84; 5449,499;  340,665;11434,149;46,05257
 497,42; 5399,131;  336,602;11368,782;45,88874
 498,01; 5371,036;  362,590;11358,501;45,54825
 498,59; 5251,160;  329,835;11226,340;45,16425
 499,18; 5217,197;  321,284;11196,086;45,02071
 499,76; 5191,192;  355,599;11118,571;44,92804
 500,35; 5100,156;  331,689;10916,098;45,05180
 500,93; 5032,564;  333,525;10882,188;44,54630
 501,52; 4996,154;  331,834;10789,798;44,60065
 502,10; 4973,079;  339,774;10811,006;44,24795
 502,69; 4850,660;  322,395;10642,086;43,87985
 503,27; 4765,360;  301,916;10388,494;44,25131
 503,86; 4695,101;  325,008;10347,452;43,60307
 504,44; 4659,307;  301,706;10188,037;44,07703
 505,03; 4504,093;  292,629;10037,699;43,21636
 505,61; 4464,798;  309,088; 9844,697;43,58096
 506,19; 4355,944;  330,321; 9739,815;42,78257
 506,78; 4255,183;  307,949; 9486,017;43,00724
 507,36; 4190,520;  307,167; 9362,102;42,88660
 507,95; 4101,126;  305,647; 9190,431;42,71886
 508,53; 4035,468;  295,641; 9055,889;42,69088
 509,12; 3962,579;  320,030; 8923,036;42,34042
 509,70; 3913,715;  342,648; 8747,999;42,48564
 510,29; 3857,439;  346,886; 8644,959;42,30565
 510,87; 3709,281;  297,949; 8452,257;41,83473
 511,46; 3645,104;  301,182; 8258,370;42,02392
 512,04; 3571,482;  318,112; 8129,275;41,65027
 512,62; 3503,863;  313,798; 7965,173;41,69270
 513,21; 3416,314;  290,502; 7825,629;41,48320
 513,79; 3340,239;  296,137; 7658,275;41,34807
 514,38; 3265,536;  277,822; 7517,323;41,26961
 514,96; 3229,667;  324,283; 7468,307;40,66873
 515,54; 3140,843;  289,518; 7323,410;40,53695
 516,13; 3107,763;  319,981; 7239,029;40,29141
 516,71; 3050,616;  295,912; 7048,137;40,79698
 517,30; 2955,110;  297,381; 6947,063;39,96777
 517,88; 2917,346;  317,227; 6878,640;39,62742
 518,46; 2873,725;  285,076; 6730,611;40,16189
 519,05; 2847,283;  294,698; 6703,333;39,83040
 519,63; 2788,471;  302,310; 6616,340;39,37518
 520,22; 2801,401;  314,938; 6593,731;39,60098
 520,80; 2724,947;  297,708; 6508,854;39,07876
 521,38; 2746,273;  346,545; 6486,640;39,08293
 521,97; 2669,812;  294,483; 6443,422;38,62991
 522,55; 2667,455;  305,560; 6389,435;38,82222
 523,13; 2631,912;  297,334; 6387,909;38,33100
 523,72; 2627,422;  291,384; 6378,496;38,37679
 524,30; 2696,739;  326,954; 6516,379;38,28764
 524,89; 2635,589;  291,176; 6523,006;37,61997
 525,47; 2696,726;  309,803; 6618,150;37,83754
 526,05; 2674,662;  286,035; 6671,354;37,40811
 526,64; 2722,393;  315,193; 6804,078;37,09729
 527,22; 2775,951;  312,264; 6914,608;37,31534
 527,80; 2825,963;  358,961; 7003,360;37,12905
 528,39; 2796,531;  295,504; 7098,852;36,76170
 528,97; 2840,928;  307,809; 7247,004;36,50451
 529,55; 2906,945;  317,718; 7432,849;36,39044
 530,14; 2979,640;  339,200; 7651,572;36,10922
 530,72; 2965,840;  303,963; 7691,269;36,03313
 531,30; 3007,493;  288,355; 7850,156;35,95887
 531,89; 3066,306;  322,970; 7970,985;35,86991
 532,47; 3092,597;  334,281; 8056,487;35,71927
 533,05; 3058,897;  336,884; 8120,403;34,97149
 533,63; 3107,583;  339,898; 8132,062;35,51882
 534,22; 3069,325;  316,975; 8165,049;35,07038
 534,80; 3133,953;  324,599; 8286,546;35,28476
 535,38; 3233,166;  428,279; 8387,112;35,24243
 535,97; 3122,158;  323,050; 8292,999;35,12077
 536,55; 3161,438;  377,985; 8392,947;34,72821
 537,13; 3103,602;  378,431; 8402,746;33,96142
 537,71; 3159,056;  414,891; 8388,624;34,41506
 538,30; 3166,016;  438,209; 8503,060;33,82341
 538,88; 3231,118;  486,299; 8579,232;33,91625
 539,46; 3287,672;  526,599; 8757,867;33,54372
 540,05; 3344,938;  563,988; 8896,209;33,37585
 540,63; 3392,746;  590,912; 9121,692;32,84383
 541,21; 3465,325;  627,994; 9215,345;33,04082
 541,79; 3504,446;  675,378; 9361,944;32,56831
 542,38; 3555,546;  708,756; 9493,009;32,40788
 542,96; 3606,660;  708,462; 9675,574;32,32030
 543,54; 3682,489;  729,685; 9843,577;32,39893
 544,12; 3698,569;  708,919; 9988,780;32,21655
 544,70; 3708,551;  689,463;10076,676;32,16171
 545,29; 3756,937;  693,987;10209,475;32,18909
 545,87; 3719,677;  679,455;10317,020;31,54554
 546,45; 3731,166;  622,910;10274,433;32,20483
 547,03; 3710,761;  624,530;10355,245;31,71638
 547,62; 3729,865;  580,918;10495,003;31,76236
 548,20; 3757,362;  582,077;10633,114;31,59161
 548,78; 3755,162;  539,787;10763,419;31,45042
 549,36; 3765,852;  506,785;10946,028;31,21938
 549,94; 3773,033;  466,613;11069,248;31,18490
 550,53; 3820,842;  482,628;11307,205;30,83921
 551,11; 3842,305;  436,405;11423,540;30,99898
 551,69; 3937,719;  452,323;11763,498;30,81374
 552,27; 3944,337;  414,624;12006,016;30,45115
 552,85; 4036,623;  410,405;12368,352;30,32475
 553,44; 4148,790;  417,553;12606,340;30,61205
 554,02; 4231,569;  416,172;12948,701;30,44396
 554,60; 4234,065;  360,176;13286,616;29,96872
 555,18; 4396,973;  406,785;13666,087;30,09350
 555,76; 4440,894;  381,095;13938,209;29,94589
 556,34; 4555,069;  392,798;14286,410;29,95816
 556,93; 4633,446;  369,862;14742,172;29,66527
 557,51; 4708,245;  364,106;15086,384;29,50725
 558,09; 4797,781;  384,324;15381,647;29,42830
 558,67; 4910,473;  370,726;15790,824;29,44045
 559,25; 5002,303;  391,185;15994,843;29,55152
 559,83; 5074,188;  368,423;16349,542;29,44578
 560,41; 5151,011;  358,718;16741,412;29,25216
 561,00; 5257,583;  380,573;17058,456;29,24238
 561,58; 5256,383;  365,256;17295,942;28,88913
 562,16; 5332,508;  352,636;17563,758;28,93403
 562,74; 5412,158;  343,172;18019,534;28,67663
 563,32; 5475,584;  340,884;18463,047;28,33381
 563,90; 5599,413;  374,111;18751,178;28,43382
 564,48; 5713,260;  383,409;19141,490;28,41363
 565,06; 5862,730;  369,418;19742,025;28,35608
 565,65; 6006,734;  380,354;20392,804;28,11439
 566,23; 6242,787;  417,727;21174,520;28,06339
 566,81; 6367,776;  365,877;21803,886;27,99653
 567,39; 6556,043;  377,348;22719,322;27,65510
 567,97; 6761,036;  395,417;23375,137;27,70103
 568,55; 6980,759;  408,653;24221,748;27,59870
 569,13; 7120,040;  367,112;24876,340;27,55259
 569,71; 7364,365;  372,944;25867,724;27,42295
 570,29; 7604,671;  416,862;26786,630;27,25776
 570,87; 7819,533;  405,557;27584,995;27,27788
 571,45; 7926,802;  400,111;28290,910;26,98629
 572,03; 7981,386;  355,581;28672,731;26,92999
 572,61; 8174,753;  353,499;29338,205;26,98407
 573,20; 8365,224;  376,952;30011,990;26,95550
 573,78; 8494,754;  371,423;30679,324;26,80268
 574,36; 8632,679;  390,267;31202,664;26,75031
 574,94; 8699,037;  455,967;31659,909;26,41676
 575,52; 8688,884;  394,055;31794,562;26,41622
 576,10; 8830,921;  433,666;32346,027;26,31349
 576,68; 8964,106;  422,273;32898,129;26,30210
 577,26; 9089,989;  451,214;33577,054;26,07866
 577,84; 9205,125;  455,498;34085,120;26,01762
 578,42; 9293,927;  499,201;34419,056;25,92796
 579,00; 9207,078;  453,885;34499,448;25,71023
 579,58; 9249,890;  494,352;34762,836;25,54982
 580,16; 9193,759;  463,510;34720,555;25,48453
 580,74; 9224,914;  469,742;34999,443;25,35548
 581,32; 9229,793;  468,507;34998,792;25,37276
 581,90; 9154,522;  496,279;34962,551;25,12091
 582,48; 9162,929;  474,357;35030,909;25,14305
 583,06; 9134,621;  478,276;35274,242;24,87744
 583,64; 9112,004;  484,198;35241,277;24,82316
 584,22; 9016,310;  489,519;35129,513;24,61545
 584,80; 8935,026;  498,124;34846,492;24,56274
 585,38; 8755,920;  517,797;34446,987;24,28034
 585,96; 8714,910;  479,655;34460,178;24,23522
 586,54; 8696,549;  502,209;34444,318;24,14210
 587,12; 8667,779;  464,205;34628,958;24,01180
 587,70; 8711,296;  502,733;34745,450;23,97170
 588,28; 8646,790;  466,205;34788,386;23,83469
 588,86; 8579,634;  472,361;34790,816;23,62365
 589,44; 8565,843;  440,680;34892,229;23,58432
 590,02; 8548,646;  455,062;35066,005;23,38447
 590,59; 8525,697;  438,209;35229,930;23,24544
 591,17; 8568,745;  442,077;35454,411;23,21087
 591,75; 8542,515;  434,300;35548,657;23,09088
 592,33; 8580,021;  449,682;35684,014;23,07505
 592,91; 8537,658;  402,997;35979,050;22,86555
 593,49; 8577,458;  407,618;36252,507;22,79220
 594,07; 8616,144;  431,464;36510,042;22,68571
 594,65; 8616,138;  445,903;36473,655;22,67762
 595,23; 8669,992;  443,908;36899,907;22,56442
 595,81; 8677,139;  413,218;36986,144;22,59573
 596,39; 8638,030;  424,296;37078,246;22,40887
 596,97; 8657,318;  424,304;37280,341;22,33830
 597,55; 8563,439;  421,905;37309,661;22,07110
 598,12; 8499,143;  395,390;37275,975;21,97295
 598,70; 8484,128;  410,845;37385,292;21,83476
 599,28; 8561,332;  414,614;37516,125;21,95791
 599,86; 8560,732;  407,844;37574,361;21,93611
 600,44; 8458,714;  370,694;37647,632;21,69712
 601,02; 8474,531;  425,938;37762,855;21,55666
 601,60; 8389,444;  408,685;37705,661;21,39787
 602,18; 8370,175;  383,851;37747,488;21,37459
 602,75; 8302,138;  386,294;37756,486;21,18224
 603,33; 8310,981;  407,153;37790,142;21,14284
 603,91; 8260,172;  384,395;37721,005;21,09398
 604,49; 8304,591;  415,461;37758,719;21,12598
 605,07; 8244,372;  428,300;37840,623;20,89170
 605,65; 8210,755;  427,926;37978,541;20,72624
 606,23; 8258,255;  487,977;38103,897;20,65689
 606,80; 8196,643;  542,448;38058,931;20,40222
 607,38; 8196,615;  578,085;38170,951;20,26589
 607,96; 8229,176;  634,371;38194,081;20,22062
 608,54; 8173,491;  700,003;38186,986;19,93622
 609,12; 8116,924;  714,294;38354,841;19,66664
 609,70; 8128,907;  747,998;38368,755;19,61925
 610,27; 8059,416;  742,601;38434,389;19,41223
 610,85; 8085,664;  773,305;38529,208;19,36746
 611,43; 8041,496;  762,614;38461,630;19,30788
 612,01; 7950,732;  743,222;38276,607;19,20293
 612,59; 7858,121;  732,690;38270,554;18,98198
 613,16; 7809,497;  684,981;38193,761;18,99426
 613,74; 7759,107;  655,692;38003,668;19,01955
 614,32; 7697,162;  636,003;38082,592;18,85661
 614,90; 7579,303;  578,456;37936,711;18,73976
 615,48; 7472,533;  525,059;37630,400;18,72365
 616,05; 7424,440;  498,672;37543,036;18,69588
 616,63; 7347,655;  507,207;37447,978;18,51734
 617,21; 7289,707;  496,601;37336,804;18,43938
 617,79; 7238,327;  484,296;37268,587;18,36118
 618,36; 7177,877;  482,069;37275,913;18,19817
 618,94; 7066,660;  427,522;36803,429;18,25147
 619,52; 6975,311;  442,670;36682,811;18,02598
 620,10; 6904,006;  427,602;36564,307;17,92196
 620,67; 6879,859;  430,438;36475,273;17,89277
 621,25; 6791,735;  464,993;36341,460;17,63480
 621,83; 6749,369;  440,137;36286,399;17,60081
 622,41; 6715,896;  503,983;36333,853;17,33725
 622,98; 6623,187;  451,899;36021,051;17,35011
 623,56; 6590,729;  446,282;35995,510;17,28433
 624,14; 6513,272;  423,765;35918,701;17,15599
 624,72; 6448,765;  419,137;35827,288;17,02892
 625,29; 6442,241;  412,513;35931,420;16,97611
 625,87; 6412,053;  457,989;35809,835;16,84230
 626,45; 6327,847;  406,049;35661,101;16,79702
 627,02; 6285,422;  414,913;35708,369;16,63342
 627,60; 6239,478;  395,847;35519,474;16,63732
 628,18; 6192,462;  376,064;35613,072;16,50650
 628,76; 6171,266;  377,823;35574,709;16,46010
 629,33; 6132,931;  420,212;35594,440;16,24121
 629,91; 6079,468;  392,064;35549,845;16,17680
 630,49; 6078,049;  423,056;35731,416;16,01602
 631,06; 6032,437;  400,439;35821,413;15,90018
 631,64; 6011,618;  399,281;35757,143;15,87295
 632,22; 5961,963;  366,123;35640,993;15,86353
 632,79; 6002,936;  408,661;35986,595;15,72400
 633,37; 5944,447;  370,838;35965,811;15,65842
 633,95; 5939,039;  384,664;36011,080;15,59061
 634,52; 5924,836;  365,521;36189,746;15,51831
 635,10; 5908,477;  377,294;36134,077;15,46891
 635,68; 5890,210;  365,277;36399,578;15,33243
 636,25; 5867,437;  358,962;36258,939;15,34395
 636,83; 5825,881;  344,746;36618,786;15,11035
 637,41; 5808,405;  355,736;36545,939;15,06670
 637,98; 5835,668;  391,505;36757,760;14,97037
 638,56; 5843,456;  373,653;36902,018;14,97412
 639,13; 5776,731;  348,360;36975,552;14,82060
 639,71; 5846,136;  421,670;37153,186;14,76788
 640,29; 5719,378;  342,516;36922,296;14,69900
 640,86; 5683,705;  351,440;37025,954;14,53943
 641,44; 5701,263;  347,132;37082,535;14,57485
 642,02; 5669,898;  391,825;37072,039;14,38943
 642,59; 5634,148;  341,441;37344,697;14,30336
 643,17; 5594,860;  344,826;37240,431;14,22943
 643,74; 5598,264;  345,519;37332,781;14,20150
 644,32; 5565,053;  368,673;37176,285;14,11768
 644,89; 5539,149;  367,288;37273,866;14,01339
 645,47; 5564,323;  365,520;37273,601;14,08581
 646,05; 5494,958;  362,828;37166,720;13,94453
 646,62; 5433,670;  350,443;37172,070;13,80500
 647,20; 5419,381;  350,598;37345,959;13,70113
 647,77; 5343,170;  330,367;37107,617;13,63017
 648,35; 5331,420;  326,675;37019,429;13,63960
 648,92; 5312,901;  364,906;37109,163;13,46604
 649,50; 5254,459;  326,137;37018,975;13,43129
 650,08; 5243,787;  311,599;37002,864;13,44240
 650,65; 5269,421;  343,523;37153,906;13,38182
 651,23; 5268,979;  310,523;37858,641;13,20561
 651,80; 5411,076;  313,754;38886,914;13,21469
 652,38; 5452,711;  328,678;39315,956;13,14283
 652,95; 5478,115;  313,678;39767,691;13,08976
 653,53; 5497,519;  340,371;39916,195;13,03106
 654,10; 5534,077;  368,910;40112,391;12,99626
 654,68; 5452,712;  313,987;40043,126;12,93440
 655,25; 5444,885;  309,756;40190,399;12,87624
 655,83; 5435,212;  317,141;40149,673;12,84897
 656,40; 5403,617;  352,373;40164,484;12,68771
 656,98; 5362,098;  319,450;40117,296;12,67066
 657,55; 5325,579;  326,989;39966,800;12,61002
 658,13; 5261,598;  326,989;39564,150;12,57637
 658,70; 5250,156;  341,143;39353,577;12,58320
 659,28; 5080,560;  329,682;38518,389;12,44053
 659,85; 4970,734;  352,836;37644,816;12,38308
 660,43; 4948,292;  348,837;37703,627;12,31289
 661,00; 4914,850;  338,760;37690,824;12,25124
 661,58; 4947,485;  332,991;38098,943;12,21866
 662,15; 4931,504;  307,376;38278,293;12,17808
 662,73; 5036,216;  397,915;38514,951;12,16858
 663,30; 5017,389;  341,146;38722,532;12,18362
 663,88; 4980,255;  336,762;38917,882;12,03566
 664,45; 4997,736;  319,608;39128,386;12,05430
 665,03; 5017,371;  335,686;39535,275;11,94320
 665,60; 5154,544;  427,071;39975,317;11,95369
 666,17; 5077,333;  334,225;40085,206;11,93205
 666,75; 5150,199;  328,764;40366,325;12,04228
 667,32; 5170,141;  358,995;40701,444;11,92577
 667,90; 5190,853;  344,841;40865,410;11,95939
 668,47; 5234,873;  363,380;41122,145;11,95201
 669,05; 5216,738;  330,303;41525,418;11,86169
 669,62; 5228,988;  308,227;41570,152;11,92567
 670,19; 5225,931;  318,535;41644,041;11,87498
 670,77; 5274,258;  332,535;41806,699;11,91518
 671,34; 5237,816;  327,151;41733,895;11,85958
 671,92; 5321,913;  330,921;42058,707;11,96084
 672,49; 5276,778;  357,152;42205,442;11,75586
 673,06; 5280,952;  296,229;42138,792;11,91304
 673,64; 5306,433;  315,306;42104,065;11,94371
 674,21; 5284,529;  306,537;42078,646;11,91702
 674,79; 5343,856;  353,538;42393,304;11,87047
 675,36; 5343,337;  348,307;42591,808;11,82438
 675,93; 5300,895;  309,923;42368,773;11,86664
 676,51; 5331,530;  344,539;42560,431;11,81307
 677,08; 5343,934;  347,155;42653,935;11,81083
 677,65; 5367,262;  333,232;42768,747;11,86278
 678,23; 5399,050;  320,694;42960,481;11,90990
 678,80; 5427,839;  318,079;43157,062;11,92783
 679,38; 5432,705;  325,156;43234,797;11,90303
 679,95; 5475,724;  332,310;43585,839;11,89132
 680,52; 5494,667;  327,464;43712,189;11,91019
 681,10; 5574,071;  344,696;44094,693;11,95286
 681,67; 5614,706;  339,234;44358,197;11,98454
 682,24; 5598,495;  308,389;44439,086;11,98736
 682,82; 5657,207;  321,081;44980,975;11,94836
 683,39; 5826,688;  365,697;45322,786;12,14712
 683,96; 5780,553;  332,544;45596,752;12,03602
 684,54; 5839,188;  306,467;45884,717;12,13895
 685,11; 5960,900;  360,237;46233,990;12,20886
 685,68; 5943,458;  311,468;46585,648;12,17091
 686,25; 5970,324;  303,391;46650,383;12,22719
 686,83; 6004,728;  317,161;46974,502;12,19008
 687,40; 6027,055;  294,315;47295,314;12,19706
 687,97; 6171,151;  337,854;47525,126;12,36202
 688,55; 6145,325;  292,085;47628,091;12,36530
 689,12; 6131,960;  286,470;47867,057;12,28545
 689,69; 6219,748;  283,701;47921,253;12,46086
 690,26; 6227,922;  308,778;48096,295;12,38638
 690,84; 6262,249;  301,009;48252,646;12,43178
 691,41; 6303,653;  325,164;48323,073;12,45573
 691,98; 6398,211;  328,779;48542,730;12,58854
 692,56; 6380,769;  320,780;48735,388;12,51686
 693,13; 6510,096;  365,318;48732,354;12,70447
 693,70; 6504,885;  332,857;48950,165;12,69512
 694,27; 6510,751;  310,396;48987,362;12,73776
 694,84; 6544,155;  308,243;49159,404;12,76513
 695,42; 6632,328;  360,935;49321,370;12,80910
 695,99; 6676,194;  320,705;49499,028;12,92335
 696,56; 6628,983;  322,090;49347,147;12,86463
 697,13; 6766,694;  333,321;49731,497;13,02350
 697,71; 6729,945;  305,706;49833,078;12,97109
 698,28; 6775,041;  316,245;50208,428;12,94551
 698,85; 6774,138;  285,476;50168,855;13,00766
 699,42; 6835,234;  293,322;50374,128;13,06271
 699,99; 6894,946;  337,861;50482,632;13,07631
 700,57; 6909,350;  320,092;50544,444;13,11965
 701,14; 6954,139;  311,170;50638,332;13,19957
 701,71; 7013,158;  342,401;50861,529;13,20442
 702,28; 7050,485;  318,093;50900,033;13,30987
 702,85; 7102,428;  325,709;50990,537;13,37559
 703,43; 7129,909;  348,171;51200,810;13,33606
 704,00; 7223,005;  360,941;51443,006;13,43341
 704,57; 7263,333;  338,095;51548,356;13,52314
 705,14; 7314,583;  360,634;51643,245;13,56005
 705,71; 7379,372;  377,788;51681,441;13,64734
 706,28; 7404,468;  341,711;51600,484;13,77863
 706,86; 7474,026;  367,404;51881,295;13,79555
 707,43; 7511,430;  392,558;51784,184;13,85220
 708,00; 7528,911;  374,020;51829,688;13,90496
 708,57; 7490,546;  357,174;51758,115;13,87790
 709,14; 7591,720;  380,252;51864,465;14,00714
 709,71; 7639,354;  356,175;51958,661;14,11401
 710,28; 7734,682;  350,945;52143,011;14,25650
 710,86; 7734,624;  353,637;52296,977;14,20969
 711,43; 7869,490;  388,561;52232,712;14,42965
 712,00; 7872,509;  347,099;52462,831;14,43980
 712,57; 7974,298;  368,792;52613,181;14,55756
 713,14; 8005,548;  345,485;52694,839;14,63258
 713,71; 7992,260;  342,716;52622,189;14,63202
 714,28; 8023,357;  329,562;52587,155;14,72283
 714,85; 7998,838;  311,486;52370,428;14,76663
 715,42; 8116,703;  318,179;52488,239;14,94828
 716,00; 8260,031;  389,717;52650,513;15,05969
 716,57; 8247,435;  323,410;52897,863;15,07201
 717,14; 8236,839;  300,487;52773,751;15,12456
 717,71; 8299,781;  280,872;52697,409;15,29843
 718,28; 8402,339;  345,411;52941,529;15,31848
 718,85; 8430,897;  294,796;52799,648;15,49590
 719,42; 8540,071;  314,719;53093,690;15,58452
 719,99; 8537,859;  280,874;52844,041;15,70869
 720,56; 8630,187;  327,489;53152,468;15,71737
 721,13; 8719,283;  295,413;53200,664;15,92256
 721,70; 8713,456;  291,336;53172,091;15,92663
 722,27; 8789,091;  327,029;53200,287;16,00443
 722,84; 8890,111;  385,875;53456,945;16,02424
 723,41; 8904,977;  290,107;53359,757;16,23314
 723,98; 8973,535;  312,953;53547,107;16,26884
 724,55; 9118,246;  333,030;53651,611;16,47684
 725,12; 9034,804;  271,877;53561,499;16,44397
 725,69; 9149,132;  289,493;53752,773;16,57145
 726,27; 9229,690;  312,031;53853,507;16,65561
 726,84; 9356,478;  315,186;54174,550;16,78685
 727,41; 9381,729;  314,878;54087,361;16,86151
 727,98; 9466,825;  324,648;54389,173;16,90975
 728,55; 9530,998;  351,648;54299,215;17,01532
 729,12; 9579,479;  298,341;54383,412;17,16026
 729,69; 9660,653;  338,572;54596,223;17,18114
 730,26; 9795,595;  326,342;54893,881;17,35327
 730,82; 9745,923;  321,342;54664,001;17,34288
 731,39; 9882,250;  331,650;54859,889;17,51496
 731,96; 9989,808;  306,574;55130,547;17,66241
 732,53;10040,058;  335,882;55288,743;17,65909
 733,10;10144,539;  344,343;55336,401;17,82111
 733,67;10225,943;  339,575;55680,674;17,86442
 734,24;10217,501;  329,498;55314,486;17,98310
 734,81;10290,290;  351,960;55457,451;18,03510
 735,38;10297,694;  326,114;55160,648;18,18485
 735,95;10310,021;  331,499;54940,152;18,27279
 736,52;10390,733;  340,961;55244,348;18,30447
 737,09;10355,906;  354,654;54918,775;18,32936
 737,66;10508,311;  403,577;55065,510;18,48587
 738,23;10563,099;  345,424;55071,091;18,67072
 738,80;10744,119;  414,809;55413,749;18,78093
 739,37;10761,831;  371,270;55577,329;18,82141
 739,94;10872,696;  340,578;55636,987;19,04666
 740,51;11050,870;  472,733;55690,645;19,15708
 741,07;11032,658;  353,502;55597,764;19,33080
 741,64;11149,216;  374,503;55863,268;19,41783
 742,21;11162,467;  347,118;55899,157;19,46886
 742,78;11174,255;  317,580;55685,815;19,60813
 743,35;11293,275;  338,196;55994,011;19,68362
 743,92;11431,756;  375,658;55992,746;19,87896
 744,49;11476,468;  375,428;55892,942;19,99556
 745,06;11521,410;  345,274;55982,831;20,08740
 745,63;11545,199;  332,351;55944,873;20,16245
 746,19;11620,988;  334,659;55946,608;20,29479
 746,76;11651,777;  338,660;56009,573;20,32141
 747,33;11714,488;  355,122;55937,000;20,43718
 747,90;11811,816;  359,583;56211,274;20,50472
 748,47;11902,835;  355,968;56132,470;20,70203
 749,04;11912,239;  348,507;56220,743;20,69674
 749,61;11931,028;  373,738;56133,016;20,72711
 750,17;12074,432;  359,277;56134,674;21,00416
 750,74;12118,759;  354,431;56069,563;21,11514
 751,31;12121,625;  331,663;56056,836;21,15734
 751,88;12145,798;  326,278;55958,725;21,24573
 752,45;12258,279;  338,356;56058,613;21,39244
 753,02;12331,837;  358,048;55964,963;21,53291
 753,58;12346,165;  332,049;55822,313;21,65085
 754,15;12470,876;  326,818;55941,202;21,83618
 754,72;12425,127;  323,895;55777,860;21,82212
 755,29;12412,762;  310,204;55631,364;21,87691
 755,86;12520,550;  316,896;55711,868;22,03026
 756,42;12624,801;  330,512;55701,141;22,20363
 756,99;12611,512;  291,974;55721,106;22,22575
 757,56;12621,840;  300,436;55504,764;22,31963
 758,13;12725,398;  254,205;55387,884;22,61992
 758,70;12816,725;  277,360;55463,849;22,72180
 759,26;12856,667;  266,283;55611,968;22,74863
 759,83;12955,225;  282,283;55725,934;22,85734
 760,40;12979,168;  254,284;55604,130;22,98992
 760,97;13039,341;  253,130;55511,250;23,13906
 761,53;13026,130;  238,746;55224,369;23,25587
 762,10;13031,996;  226,439;55091,411;23,34013
 762,67;13086,015;  267,747;55061,685;23,39359
 763,24;13075,804;  220,209;54714,881;23,59055
 763,80;13181,670;  260,055;54863,231;23,66458
 764,37;13220,997;  264,517;54886,350;23,72033
 764,94;13189,709;  256,979;54448,085;23,86504
 765,50;13252,190;  261,595;54363,897;24,01117
 766,07;13393,979;  305,441;54565,170;24,12201
 766,64;13343,536;  285,672;54260,905;24,19233
 767,21;13359,094;  280,442;54071,639;24,31374
 767,77;13448,345;  308,134;54050,067;24,45057
 768,34;13468,441;  314,673;54016,263;24,49419
 768,91;13491,153;  327,058;53876,228;24,58319
 769,47;13549,249;  327,905;53913,732;24,67321
 770,04;13505,423;  320,905;53773,775;24,66569
 770,61;13580,212;  300,752;53592,663;24,91834
 771,18;13553,077;  295,829;53376,936;24,97546
 771,74;13675,558;  313,829;53561,671;25,09347
 772,31;13694,347;  311,291;53366,021;25,22500
 772,88;13663,059;  290,753;53131,910;25,30661
 773,44;13614,001;  296,830;53045,491;25,24646
 774,01;13768,790;  317,831;53152,764;25,45846
 774,58;13743,887;  305,062;52650,345;25,67342
 775,14;13913,060;  286,447;52948,387;25,87564
 775,71;13829,387;  302,832;52857,353;25,73814
 776,27;13948,714;  368,371;52715,395;25,94291
 776,84;14003,349;  397,525;52833,438;25,94753
 777,41;14000,061;  311,987;52554,249;26,20115
 777,97;13955,388;  308,295;52285,215;26,25606
 778,54;14022,408;  303,526;52279,488;26,39467
 779,11;14034,427;  326,988;52323,607;26,36217
 779,67;14095,293;  288,527;52191,727;26,60099
 780,24;14152,851;  307,450;52040,077;26,76338
 780,80;14225,024;  324,835;52063,427;26,86619
 781,37;14226,428;  324,758;51949,700;26,92820
 781,94;14181,371;  313,451;51784,743;26,94302
 782,50;14238,160;  317,144;51658,554;27,11460
 783,07;14290,949;  337,529;51743,289;27,14369
 783,63;14269,968;  304,683;51456,332;27,30173
 784,20;14266,526;  339,376;51300,528;27,32896
 784,77;14320,622;  311,453;51225,186;27,51550
 785,33;14309,950;  294,915;50983,074;27,64952
 785,90;14437,585;  303,915;51032,809;27,86118
 786,46;14376,450;  322,839;50900,159;27,78639
 787,03;14359,700;  301,993;50652,278;27,91982
 787,59;14413,566;  298,224;50513,936;28,10941
 788,16;14443,509;  313,301;50510,517;28,14938
 788,73;14465,528;  312,071;50512,483;28,19391
 789,29;14413,394;  285,840;50073,679;28,37551
 789,86;14488,337;  328,687;49922,875;28,55103
 790,42;14491,356;  301,918;49712,533;28,71739
 790,99;14480,606;  311,688;49431,806;28,84545
 791,55;14595,857;  296,380;49395,233;29,12385
 792,12;14620,107;  334,996;49436,045;29,09329
 792,68;14457,203;  312,842;49136,549;28,97027
 793,25;14540,684;  306,612;48929,591;29,27437
 793,81;14553,627;  383,305;48567,865;29,40843
 794,38;14367,416;  277,074;48364,061;29,30178
 794,94;14354,128;  281,075;48267,103;29,32740
 795,51;14329,762;  315,075;47920,300;29,43939
 796,07;14262,551;  294,614;47741,650;29,43901
 796,64;14353,648;  325,768;47878,769;29,49946
 797,20;14289,052;  303,307;47325,427;29,74291
 797,77;14256,994;  274,692;47092,700;29,86522
 798,33;14203,398;  310,384;46897,743;29,82142
 798,90;14215,495;  318,769;46832,554;29,87657
 799,46;14076,284;  290,924;46419,674;29,88453
 800,03;14165,380;  307,539;46231,408;30,17568
 800,59;14153,015;  311,078;46110,143;30,22319
 801,15;14132,958;  320,694;45870,109;30,32369
 801,72;14113,362;  300,694;45530,997;30,53852
 802,28;14032,458;  328,310;45259,578;30,50025
 802,85;14059,708;  302,618;45098,005;30,71095
 803,41;14047,036;  289,849;44987,740;30,77816
 803,98;13964,670;  294,003;44489,628;30,93217
 804,54;13896,305;  290,465;44177,363;31,00205
 805,11;13949,633;  311,004;44040,252;31,18880
 805,67;13928,883;  322,389;43948,294;31,18902
 806,23;13851,364;  307,543;43562,798;31,31139
 806,80;13842,922;  320,698;43519,687;31,30218
 807,36;13855,941;  333,698;43446,575;31,36474
 807,93;13808,576;  345,314;43091,618;31,49573
 808,49;13754,288;  296,468;42657,968;31,76899
 809,05;13746,615;  279,314;42565,241;31,84819
 809,62;13747,866;  306,238;42518,053;31,84328
 810,18;13774,654;  305,930;42428,711;31,97492
 810,74;13740,366;  271,239;42170,753;32,14626
 811,31;13739,463;  273,470;41899,949;32,34958
 811,87;13715,944;  306,393;41779,299;32,33328
 812,44;13771,502;  319,778;41752,265;32,46661
 813,00;13723,752;  250,009;41412,769;32,73285
 813,56;13777,464;  299,471;41490,811;32,72045
 814,13;13842,252;  287,933;41363,315;32,99864
 814,69;13822,426;  281,549;41238,973;33,06086
 815,25;13710,907;  254,241;40772,477;33,21138
 815,82;13733,003;  299,165;40720,673;33,23438
 816,38;13765,484;  331,242;40600,100;33,36137
 816,94;13592,273;  264,781;40284,912;33,30197
 817,51;13562,523;  257,012;40110,185;33,38633
 818,07;13540,389;  256,397;39827,074;33,57029
 818,63;13524,101;  291,090;39544,732;33,71155
 819,20;13600,120;  277,552;39453,005;34,00744
 819,76;13478,601;  256,552;39198,432;33,95329
 820,32;13472,852;  303,937;38981,551;34,04790
 820,89;13448,948;  282,091;38803,901;34,18027
 821,45;13387,891;  267,630;38485,944;34,32977
 822,01;13304,295;  288,784;38235,371;34,29956
 822,57;13384,853;  286,400;38185,336;34,56153
 823,14;13344,795;  245,323;37953,917;34,73869
 823,70;13317,200;  258,785;37624,267;34,94780
 824,26;13294,065;  259,862;37509,541;34,99145
 824,82;13309,392;  300,094;37435,352;35,03220
 825,39;13209,258;  263,940;37111,241;35,13234
 825,95;13331,201;  290,171;37266,206;35,26887
 826,51;13241,913;  274,018;36743,710;35,55800
 827,08;13275,009;  315,249;36809,907;35,51139
 827,64;13217,413;  297,249;36649,180;35,54189
 828,20;13108,971;  257,403;36443,299;35,51541
 828,76;13186,298;  296,173;36381,188;35,72155
 829,32;13176,856;  313,635;36132,615;35,91175
 829,89;13170,337;  249,866;36017,657;36,12320
 830,45;13192,434;  271,174;36062,315;36,10184
 831,01;13163,453;  279,405;35843,896;36,22728
 831,57;13117,165;  283,175;35652,708;36,28544
 832,14;13088,954;  258,637;35711,366;36,18993
 832,70;13095,896;  260,099;35426,331;36,50035
 833,26;13076,070;  233,945;35366,373;36,55348
 833,82;13128,628;  268,484;35296,031;36,71437
 834,38;13097,032;  257,330;35233,689;36,70966
 834,95;13072,205;  255,715;35182,193;36,69563
 835,51;13169,609;  243,254;35039,466;37,14874
 836,07;13166,937;  271,255;35112,201;37,01301
 836,63;13263,956;  304,870;35036,859;37,31167
 837,19;13198,360;  277,717;34829,286;37,39524
 837,75;13139,611;  245,948;34607,559;37,52345
 838,32;13275,861;  290,487;34752,602;37,68014
 838,88;13293,496;  290,718;34674,259;37,81687
 839,44;13279,746;  294,411;34681,456;37,76229
 840,00;13306,919;  276,488;34592,652;37,97170
 840,56;13218,631;  262,181;34297,540;38,06762
 841,12;13244,497;  260,489;34213,660;38,24093
 841,68;13198,286;  238,412;34080,395;38,29526
 842,25;13249,382;  253,566;34154,052;38,33519
 842,81;13205,786;  258,567;33854,479;38,53808
 843,37;13215,883;  243,028;33824,753;38,63070
 843,93;13259,287;  264,260;33801,257;38,74833
 844,49;13316,152;  281,491;33788,914;38,90082
 845,05;13343,249;  226,414;33613,957;39,28661
 845,61;13307,807;  278,184;33598,845;39,10373
 846,17;13317,442;  262,338;33423,196;39,36902
 846,73;13394,538;  272,031;33429,700;39,57609
 847,29;13339,788;  249,492;33178,127;39,75353
 847,86;13330,577;  250,647;33157,861;39,74791
 848,42;13326,366;  244,416;33008,442;39,92778
 848,98;13279,693;  267,186;32922,562;39,84798
 849,54;13296,174;  250,340;32905,066;39,95083
 850,10;13239,424;  262,725;32723,185;39,97694
 850,66;13249,829;  241,033;32620,150;40,17650
 851,22;13225,156;  240,418;32551,501;40,18664
 851,78;13284,560;  284,034;32665,620;40,14790
 852,34;13242,195;  269,419;32323,124;40,47200
 852,90;13182,060;  252,573;32188,320;40,48594
 853,46;13198,234;  242,727;31997,670;40,79839
 854,02;13310,484;  266,881;32021,020;41,07686
 854,58;13183,504;  252,036;31732,217;41,07812
 855,14;13170,600;  242,728;31675,105;41,12916
 855,70;13123,773;  230,498;31478,609;41,26098
 856,26;13158,024;  261,652;31426,959;41,38054
 856,82;13201,043;  249,575;31362,002;41,62796
 857,38;13227,832;  301,730;31168,583;41,87697
 857,94;13185,544;  260,730;31128,625;41,87138
 858,50;13159,179;  272,577;30932,668;42,03054
 859,06;13066,814;  258,731;30843,633;41,87714
 859,62;13103,602;  280,577;30800,368;42,01544
 860,18;13110,699;  266,347;30540,795;42,42638
 860,74;13023,641;  236,116;30480,376;42,28083
 861,30;12990,584;  239,271;30208,034;42,54868
 861,86;13128,065;  311,117;30398,922;42,59848
 862,42;13020,084;  251,579;30109,349;42,76443
 862,98;13073,719;  286,810;30098,776;42,89187
 863,54;12946,970;  251,503;29904,203;42,81386
 864,10;13103,528;  268,119;29954,015;43,23740
 864,66;12973,932;  228,888;29743,904;43,18156
 865,22;13014,413;  247,273;29580,946;43,52384
 865,78;12954,509;  260,889;29447,373;43,49143
 866,34;12932,298;  246,428;29419,031;43,48556
 866,90;12980,779;  258,274;29261,150;43,86636
 867,45;12941,645;  250,813;29022,039;44,10946
 868,01;12863,895;  244,583;28907,543;44,02655
 868,57;12832,453;  249,045;28737,278;44,17055
 869,13;12813,703;  237,506;28576,012;44,37848
 869,69;12850,800;  240,199;28538,901;44,56247
 870,25;12884,511;  236,969;28389,482;44,92509
 870,81;12965,685;  245,046;28317,832;45,31306
 871,37;12966,320;  269,662;28271,259;45,34262
 871,93;12942,262;  283,739;28096,686;45,51306
 872,49;12911,205;  296,893;27928,728;45,65137
 873,04;12804,455;  240,817;27787,309;45,60885
 873,60;12761,167;  240,894;27667,890;45,64945
 874,16;12788,879;  271,433;27518,163;45,94109
 874,72;12787,802;  254,433;27458,856;46,07107
 875,28;12857,571;  251,433;27358,933;46,50425
 875,84;12827,802;  261,817;27373,779;46,34849
 876,40;12853,110;  243,510;27305,779;46,59476
 876,95;12863,571;  247,356;27243,010;46,73425
 877,51;12955,417;  283,202;27220,471;47,04343
 878,07;12940,340;  290,971;27186,010;47,03235
 878,63;12985,725;  258,048;27179,163;47,27767
 879,19;13055,263;  264,740;27231,625;47,43048
 879,75;13119,110;  254,279;27203,010;47,73817
 880,30;13170,340;  246,048;27291,010;47,78817
 880,86;13258,571;  299,433;27390,625;47,83525
 881,42;13302,033;  233,510;27328,933;48,23148
 881,98;13352,263;  264,894;27395,548;48,23831
 882,54;13435,417;  241,356;27527,625;48,35422
 883,09;13489,033;  265,433;27595,548;48,38472
 883,65;13590,263;  250,433;27656,548;48,67465
 884,21;13788,648;  294,202;27779,240;49,09743
 884,77;13863,340;  235,587;27917,548;49,22973
 885,32;13951,494;  258,279;28054,702;49,26251
 885,88;14040,110;  280,894;28194,779;49,29165
 886,44;14115,187;  255,971;28265,779;49,47987
 887,00;14236,956;  273,971;28209,394;49,98308
 887,56;14261,648;  256,894;28435,010;49,70082
 888,11;14324,110;  269,663;28349,702;50,05138
 888,67;14414,648;  277,740;28548,394;50,00559
 889,23;14518,263;  254,125;28482,010;50,53208
 889,79;14438,956;  244,356;28431,856;50,35778
 890,34;14441,340;  268,125;28384,163;50,40972
 890,90;14586,879;  333,202;28557,779;50,50094
 891,46;14513,187;  244,202;28416,471;50,64904
 892,01;14530,417;  267,048;28408,933;50,68377
 892,57;14505,802;  296,048;28336,240;50,67638
 893,13;14412,187;  243,663;28152,471;50,76721
 893,69;14443,494;  236,048;28070,625;51,04244
 894,24;14375,725;  248,125;27938,933;51,01910
 894,80;14352,802;  255,202;27894,010;51,00654
 895,36;14333,417;  243,356;27727,471;51,26620
 895,91;14252,263;  249,433;27520,779;51,34631
 896,47;14193,494;  272,125;27423,548;51,27307
 897,03;14102,879;  246,663;27244,394;51,32363
 897,58;14105,956;  255,433;27167,779;51,46531
 898,14;14085,571;  262,433;27009,779;51,68041
 898,70;13919,956;  214,125;26779,856;51,59215
 899,25;14025,110;  254,971;26867,240;51,74357
 899,81;14010,110;  259,740;26652,471;52,09908
 900,37;13908,263;  211,279;26454,163;52,19314
 900,92;13985,494;  248,433;26442,163;52,44408
 901,48;13948,110;  236,510;26289,856;52,62894
 902,03;13884,494;  237,048;26127,163;52,71296
 902,59;13897,110;  239,048;26029,856;52,95709
 903,15;13846,263;  262,356;25902,163;52,97976
 903,70;13795,110;  241,279;25715,010;53,20709
 904,26;13832,110;  237,587;25565,471;53,67414
 904,82;13810,571;  241,510;25528,702;53,65982
 905,37;13802,802;  252,587;25409,625;53,86252
 905,93;13720,417;  231,510;25257,163;53,90032
 906,48;13749,571;  249,202;25269,240;53,95823
 907,04;13831,033;  254,817;25191,933;54,44180
 907,60;13707,879;  250,587;24960,010;54,46219
 908,15;13620,494;  236,279;24885,010;54,29982
 908,71;13655,571;  260,971;24848,548;54,47710
 909,26;13609,417;  230,740;24733,163;54,60144
 909,82;13620,110;  255,279;24547,548;55,01681
 910,37;13640,648;  279,894;24504,317;55,15406
 910,93;13509,494;  235,817;24324,625;55,10309
 911,48;13400,033;  211,279;24223,548;54,92506
 912,04;13398,494;  229,510;24064,779;55,24999
 912,60;13470,110;  243,356;24029,163;55,60776
 913,15;13402,648;  245,048;23886,394;55,65504
 913,71;13332,879;  225,587;23652,856;55,94887
 914,26;13266,956;  218,740;23636,010;55,72048
 914,82;13263,110;  247,740;23560,856;55,82853
 915,37;13199,187;  230,663;23486,856;55,76374
 915,93;13222,879;  303,202;23381,471;55,98200
 916,48;13179,725;  221,817;23217,548;56,34919
 917,04;13091,340;  259,663;23063,394;56,27008
 917,59;13123,033;  270,740;23124,548;56,23698
 918,15;12964,263;  205,202;22832,394;56,38818
 918,70;12987,263;  230,817;22744,933;56,65977
 919,26;12988,956;  240,740;22600,702;57,01358
 919,81;12905,110;  219,433;22460,471;57,03725
 920,37;12875,802;  245,433;22430,317;56,93232
 920,92;12907,417;  263,125;22403,625;57,10933
 921,48;12795,956;  223,894;22091,394;57,49199
 922,03;12802,956;  233,048;22110,163;57,45688
 922,59;12751,340;  232,817;22055,702;57,36420
 923,14;12723,879;  244,510;21812,163;57,86151
 923,69;12713,571;  254,510;21781,163;57,87737
 924,25;12731,494;  265,048;21795,010;57,90278
 924,80;12607,802;  239,587;21542,471;58,05888
 925,36;12591,033;  225,202;21428,625;58,31997
 925,91;12528,956;  219,048;21370,010;58,20023
 926,47;12533,110;  217,279;21331,394;58,32984
 927,02;12579,340;  291,971;21219,317;58,71442
 927,57;12447,956;  225,279;21006,087;58,81714
 928,13;12406,956;  225,279;20948,010;58,78413
 928,68;12443,033;  233,817;20900,933;59,07557
 929,24;12309,033;  201,971;20710,625;59,03392
 929,79;12216,879;  219,587;20580,240;58,92390
 930,34;12195,110;  226,356;20442,317;59,20447
 930,90;12141,571;  225,663;20414,856;59,02122
 931,45;12208,187;  231,894;20431,779;59,28891
 932,01;12111,571;  235,048;20330,317;59,10109
 932,56;12054,956;  250,663;20097,779;59,47611
 933,11;12097,494;  258,587;20132,548;59,56994
 933,67;12032,033;  220,202;19943,317;59,88826
 934,22;12052,187;  230,125;19903,317;60,09224
 934,77;11965,725;  252,202;19720,779;60,16630
 935,33;11898,648;  232,971;19621,779;60,16707
 935,88;11902,263;  239,202;19570,317;60,33310
 936,43;11897,494;  228,740;19440,933;60,73619
 936,99;11842,802;  232,202;19387,779;60,61211
 937,54;11767,879;  204,894;19253,394;60,70286
 938,09;11804,802;  237,587;19226,317;60,91621
 938,65;11701,110;  237,433;19047,317;60,94496
 939,20;11680,417;  210,356;19020,779;60,97716
 939,75;11614,340;  214,740;18954,471;60,83118
 940,31;11587,187;  213,125;18819,933;61,12850
 940,86;11628,263;  225,740;18780,163;61,45447
 941,41;11631,648;  315,510;18720,317;61,48469
 941,96;11539,263;  220,048;18550,471;61,75098
 942,52;11484,802;  222,125;18442,856;61,81243
 943,07;11426,033;  199,740;18381,087;61,74621
 943,62;11406,340;  217,587;18287,010;61,92092
 944,18;11359,340;  209,971;18255,317;61,78529
 944,73;11388,110;  234,433;18020,240;62,71111
 945,28;11234,187;  196,894;17911,933;62,30465
 945,83;11304,725;  221,663;17909,087;62,66069
 946,39;11332,879;  218,279;17914,702;62,80704
 946,94;11307,571;  243,817;17736,010;63,24967
 947,49;11226,110;  216,510;17631,625;63,21865
 948,04;11288,956;  262,356;17690,317;63,26959
 948,59;11154,187;  241,971;17645,163;62,70238
 949,15;11128,879;  207,740;17503,625;63,14299
 949,70;11115,725;  229,433;17385,471;63,45458
 950,25;11053,571;  231,663;17277,010;63,48893
 950,80;11046,725;  186,663;17122,702;64,12398
 951,36;11027,725;  192,587;17124,548;63,99222
 951,91;11079,494;  243,356;17139,933;64,13215
 952,46;10954,802;  202,663;16908,394;64,36198
 953,01;10979,033;  236,202;16897,010;64,47965
 953,56;10844,956;  201,125;16755,471;64,29629
 954,11;10873,571;  234,663;16748,317;64,42492
 954,67;10844,187;  218,894;16653,087;64,65357
 955,22;10724,802;  196,279;16463,625;64,72182
 955,77;10789,648;  243,894;16551,240;64,66873
 956,32;10816,956;  281,894;16403,163;65,34883
 956,87;10707,110;  216,433;16257,240;65,39993
 957,42;10697,187;  230,125;16189,933;65,58388
 957,98;10645,340;  217,587;16138,933;65,49543
 958,53;10643,187;  248,356;16123,010;65,48068
 959,08;10570,725;  204,356;15932,779;65,90851
 959,63;10498,879;  209,817;15836,471;65,84302
 960,18;10574,340;  240,433;15843,548;66,22977
 960,73;10525,648;  224,048;15819,087;66,05691
 961,28;10454,263;  206,663;15655,010;66,33461
 961,83;10457,956;  247,894;15641,548;66,32643
 962,39;10406,263;  203,894;15504,702;66,67863
 962,94;10374,879;  224,663;15445,163;66,68779
 963,49;10381,187;  227,202;15295,779;67,38516
 964,04;10370,802;  228,971;15216,548;67,66825
 964,59;10327,725;  203,125;15139,317;67,78568
 965,14;10308,802;  244,894;15098,856;67,75235
 965,69;10261,571;  237,202;14957,163;68,10051
 966,24;10247,802;  217,279;14840,317;68,59397
 966,79;10164,033;  237,048;14789,394;68,21570
 967,34;10028,879;  205,510;14734,856;67,61054
 967,89;10082,187;  216,663;14617,625;68,50600
 968,44;10105,802;  222,740;14560,933;68,92823
 968,99;10088,263;  229,433;14552,625;68,83124
 969,55; 9987,956;  227,356;14408,625;68,82741
 970,10; 9940,187;  236,048;14297,702;69,01136
 970,65; 9915,263;  253,971;14166,471;69,44325
 971,20; 9824,725;  207,817;14077,240;69,33892
 971,75; 9708,571;  196,433;13935,163;69,23593
 972,30; 9681,110;  232,587;13902,010;69,12159
 972,85; 9657,340;  212,817;13824,240;69,38674
 973,40; 9583,802;  217,971;13728,163;69,32419
 973,95; 9557,110;  234,740;13695,010;69,25842
 974,50; 9556,110;  256,202;13630,317;69,53662
 975,05; 9458,879;  232,356;13502,240;69,52979
 975,60; 9419,956;  246,587;13442,010;69,51933
 976,15; 9384,802;  220,356;13283,010;70,15761
 976,70; 9356,956;  228,663;13184,856;70,45505
 977,25; 9320,802;  245,740;13159,010;70,27703
 977,80; 9267,648;  227,356;13054,240;70,47925
 978,35; 9150,956;  239,279;12839,394;70,72695
 978,89; 9166,110;  204,817;12779,702;71,26342
 979,44; 9164,956;  226,048;12821,779;70,96776
 979,99; 9006,956;  212,817;12606,625;70,95591
 980,54; 9016,956;  247,125;12527,010;71,41623
 981,09; 8975,956;  256,279;12521,856;71,09064
 981,64; 8892,648;  241,663;12382,933;71,25272
 982,19; 8904,648;  276,894;12315,933;71,66481
 982,74; 8804,802;  241,048;12229,010;71,43628
 983,29; 8754,879;  219,587;12037,625;72,22258
 983,84; 8724,033;  226,740;11923,702;72,64530
 984,39; 8759,033;  318,202;11991,625;72,30810
 984,94; 8572,110;  204,894;11736,779;72,55722
 985,49; 8579,802;  263,587;11708,163;72,66512
 986,03; 8530,879;  262,971;11659,548;72,54729
 986,58; 8453,648;  288,356;11489,240;72,89864
 987,13; 8360,879;  237,202;11355,394;73,06653
 987,68; 8311,263;  258,510;11278,625;73,07323
 988,23; 8304,802;  254,356;11222,317;73,39966
 988,78; 8218,033;  236,356;11108,548;73,41368
 989,33; 8166,956;  249,202;11009,548;73,58271
 989,88; 8181,110;  273,510;10959,625;73,99883
 990,42; 8032,110;  236,971;10761,856;74,06389
 990,97; 7970,494;  240,202;10640,163;74,33001
 991,52; 7910,494;  255,356;10569,779;74,21781
 992,07; 7862,571;  270,817;10517,317;74,09119
 992,62; 7751,725;  241,279;10391,856;73,99034
 993,17; 7729,263;  255,356;10232,933;74,90704
 993,71; 7631,648;  258,587;10219,010;74,02358
 994,26; 7574,263;  227,817; 9997,471;75,19659
 994,81; 7533,879;  257,587;10026,471;74,48437
 995,36; 7418,187;  233,663; 9858,779;74,64350
 995,91; 7413,340;  246,356; 9744,163;75,45936
 996,45; 7343,571;  243,048; 9689,625;75,16504
 997,00; 7239,648;  218,125; 9582,010;74,98515
 997,55; 7214,187;  251,356; 9489,933;75,36692
 998,10; 7120,263;  269,433; 9388,933;75,12288
 998,65; 7135,340;  237,356; 9351,163;75,68719
 999,19; 7038,879;  263,510; 9219,625;75,65076
 999,74; 6961,417;  283,587; 9113,163;75,63025
1000,29; 6986,802;  254,356; 9071,317;76,35789
1000,84; 6848,033;  247,356; 8884,625;76,42088
1001,38; 6832,571;  251,510; 8792,087;77,05640
1001,93; 6756,725;  246,125; 8761,702;76,45518
1002,48; 6619,417;  226,971; 8619,087;76,17205
1003,03; 6620,725;  254,433; 8565,471;76,60044
1003,57; 6501,956;  255,279; 8497,317;75,79044
1004,12; 6517,648;  288,048; 8389,702;76,89294
1004,67; 6438,417;  238,202; 8254,087;77,34911
1005,22; 6283,802;  229,279; 8159,702;76,34552
1005,76; 6203,340;  218,279; 8040,548;76,51311
1006,31; 6219,110;  257,202; 7979,240;77,20640
1006,86; 6097,956;  234,740; 7830,087;77,19484
1007,40; 6013,725;  216,663; 7735,856;77,09686
1007,95; 5989,802;  239,663; 7658,625;77,50597
1008,50; 5903,648;  248,587; 7545,702;77,49722
1009,04; 5814,187;  236,048; 7434,240;77,49360
1009,59; 5703,725;  247,971; 7270,317;77,69133
1010,14; 5654,033;  228,279; 7237,087;77,41336
1010,68; 5584,879;  243,433; 7149,548;77,34371
1011,23; 5518,802;  227,587; 6996,548;78,16879
1011,78; 5466,494;  253,894; 6943,856;77,91674
1012,32; 5454,648;  272,125; 6822,394;79,11924
1012,87; 5389,879;  269,894; 6837,548;77,95759
1013,42; 5300,494;  225,048; 6690,702;78,49858
1013,96; 5327,725;  270,125; 6717,240;78,44749
1014,51; 5219,802;  207,817; 6585,163;78,59044
1015,06; 5290,110;  216,202; 6554,240;80,05486
1015,60; 5360,879;  275,817; 6607,087;80,31662
1016,15; 5325,417;  230,663; 6560,856;80,48340
1016,69; 5364,417;  237,202; 6614,856;80,39344
1017,24; 5419,187;  223,433; 6589,394;81,61774
1017,79; 5475,956;  277,510; 6636,317;81,75190
1018,33; 5452,494;  231,510; 6634,779;81,53623
1018,88; 5542,571;  251,971; 6665,548;82,49063
1019,42; 5551,417;  231,971; 6630,163;83,13983
1019,97; 5537,417;  227,894; 6621,625;83,04264
1020,51; 5607,187;  268,356; 6689,548;83,14392
1021,06; 5565,956;  227,125; 6628,625;83,39968
1021,61; 5549,725;  201,740; 6623,933;83,27350
1022,15; 5530,956;  188,510; 6586,702;83,49931
1022,70; 5547,110;  241,740; 6589,856;83,57393
1023,24; 5481,956;  217,971; 6503,702;83,74499
1023,79; 5436,417;  225,356; 6506,702;82,96090
1024,33; 5417,110;  217,817; 6428,010;83,72192
1024,88; 5401,187;  244,817; 6364,010;84,26552
1025,42; 5305,956;  249,971; 6247,702;84,29829
1025,97; 5205,340;  220,048; 6179,240;83,65718
1026,51; 5096,494;  200,894; 6035,548;83,90558
1027,06; 5095,725;  215,202; 5981,933;84,63241
1027,60; 4975,417;  244,817; 5897,933;83,68129
1028,15; 4961,417;  251,048; 5856,087;84,03813
1028,69; 4812,110;  192,587; 5682,548;84,14491
1029,24; 4774,725;  232,587; 5602,548;84,58419
1029,78; 4689,571;  219,510; 5551,394;83,83643
1030,33; 4604,187;  202,663; 5448,317;83,90800
1030,87; 4600,725;  224,894; 5380,548;84,87441
1031,42; 4509,417;  212,356; 5271,625;84,93443
1031,96; 4510,879;  241,971; 5232,625;85,53804
1032,51; 4409,187;  211,817; 5156,702;84,88306
1033,05; 4385,571;  237,048; 5132,702;84,73890
1033,60; 4284,725;  197,587; 4966,702;85,70014
1034,14; 4220,033;  215,894; 4919,394;85,13104
1034,69; 4213,571;  223,740; 4855,933;86,13267
1035,23; 4122,187;  216,894; 4821,702;84,80902
1035,77; 4111,879;  215,817; 4729,010;86,32607
1036,32; 4015,956;  192,433; 4662,702;85,53228
1036,86; 4009,648;  230,279; 4599,163;86,50650
1037,41; 3931,956;  239,740; 4541,240;85,83553
1037,95; 3887,571;  188,279; 4430,548;87,20079
1038,50; 3848,340;  213,202; 4401,317;86,79652
1039,04; 3816,802;  235,740; 4344,933;87,14758
1039,58; 3707,571;  199,433; 4289,856;85,76468
1040,13; 3694,725;  221,740; 4213,856;86,99610
1040,67; 3686,802;  252,817; 4231,010;86,32023
1041,21; 3659,879;  258,279; 4144,856;87,52175
1041,76; 3577,802;  204,202; 4034,163;88,08444
1042,30; 3556,494;  221,510; 4012,471;87,97200
1042,85; 3469,802;  215,894; 3952,856;87,07362
1043,39; 3455,956;  212,433; 3862,625;88,85896
1043,93; 3435,725;  241,817; 3872,087;87,97991
1044,48; 3366,571;  230,510; 3825,471;87,23491
1045,02; 3326,879;  219,202; 3715,933;88,87378
1045,56; 3325,494;  252,894; 3728,471;88,40547
1046,11; 3240,033;  228,433; 3609,087;89,08336
1046,65; 3194,879;  230,433; 3572,087;88,71195
1047,19; 3123,263;  218,279; 3512,625;88,18092
1047,74; 3091,648;  197,356; 3469,856;88,44285
1048,28; 3058,802;  223,048; 3423,317;88,60985
1048,82; 3017,263;  256,971; 3420,317;87,25862
1049,37; 2978,802;  241,048; 3322,471;88,84706
1049,91; 2957,263;  231,587; 3308,856;88,57454
1050,45; 2896,033;  233,740; 3246,240;88,37485
1050,99; 2889,571;  227,433; 3231,163;88,62773
1051,54; 2823,648;  214,125; 3142,625;89,10784
1052,08; 2808,033;  246,894; 3127,702;88,90349
1052,62; 2764,879;  247,433; 3097,240;88,33740
1053,16; 2723,340;  226,125; 3032,317;88,98946
1053,71; 2688,263;  234,663; 3025,163;87,92689
1054,25; 2631,494;  245,510; 2963,394;87,78830
1054,79; 2641,417;  242,894; 2893,010;90,50636
1055,33; 2560,879;  199,356; 2849,010;89,12572
1055,88; 2520,417;  246,202; 2846,779;87,45042
1056,42; 2512,417;  247,433; 2797,471;88,82159
1056,96; 2498,110;  244,817; 2790,317;88,52062
1057,50; 2464,340;  239,125; 2715,702;89,85044
1058,05; 2428,956;  236,587; 2651,240;90,79435
1058,59; 2431,494;  253,587; 2637,933;91,34193
1059,13; 2334,340;  218,510; 2573,163;89,85740
1059,67; 2323,417;  242,817; 2560,548;89,76884
1060,21; 2278,802;  237,125; 2497,933;90,30741
1060,76; 2265,033;  243,356; 2515,625;88,97172
1061,30; 2245,879;  256,202; 2489,779;89,08030
1061,84; 2208,417;  240,433; 2418,856;90,33987
1062,38; 2129,956;  219,587; 2340,163;90,08724
1062,92; 2186,110;  274,587; 2379,702;90,80372
1063,46; 2134,340;  249,663; 2320,471;91,01168
1064,01; 2079,802;  232,894; 2289,856;89,78815
1064,55; 2072,802;  235,279; 2254,625;90,99594
1065,09; 2035,340;  208,048; 2167,625;93,24933
1065,63; 2038,340;  259,971; 2212,163;91,09601
1066,17; 2031,187;  282,740; 2185,317;91,89884
1066,71; 2015,571;  260,048; 2159,702;92,41279
1067,25; 1956,725;  238,433; 2102,087;92,20019
1067,80; 1933,033;  252,587; 2086,240;91,64468
1068,34; 1928,802;  269,817; 2096,702;90,80949
1068,88; 1856,263;  242,279; 2011,702;91,21530
1069,42; 1891,417;  259,740; 2022,240;92,57741
1069,96; 1828,187;  246,587; 1975,548;91,47688
1070,50; 1850,571;  274,202; 1998,163;91,43877
1071,04; 1787,494;  228,817; 1931,394;91,54811
1071,58; 1779,648;  236,740; 1905,856;92,43865
1072,12; 1748,648;  235,894; 1914,548;90,11708
1072,66; 1750,648;  240,587; 1872,702;92,52174
1073,21; 1743,340;  250,356; 1855,779;92,99633
1073,75; 1698,340;  239,817; 1843,163;90,96745
1074,29; 1685,648;  238,740; 1820,010;91,50293
1074,83; 1681,571;  269,510; 1805,240;91,94721
1075,37; 1683,725;  263,433; 1800,010;92,43223
1075,91; 1639,033;  256,125; 1753,010;92,38572
1076,45; 1630,648;  244,894; 1728,548;93,40143
1076,99; 1610,187;  257,202; 1729,087;91,92192
1077,53; 1561,263;  235,433; 1662,548;92,90284
1078,07; 1581,417;  244,740; 1679,240;93,18068
1078,61; 1543,571;  249,587; 1643,087;92,85860
1079,15; 1535,571;  242,202; 1623,240;93,65193
1079,69; 1519,648;  239,279; 1606,240;93,66534
1080,23; 1525,956;  262,587; 1587,702;95,34032
1080,77; 1552,725;  302,971; 1626,625;94,41697
1081,31; 1474,956;  236,740; 1546,548;94,53414
1081,85; 1461,956;  268,510; 1558,625;92,50693
1082,39; 1447,648;  238,433; 1515,163;94,71185
1082,93; 1459,879;  249,125; 1515,087;95,63907
1083,47; 1386,648;  235,125; 1445,471;95,13998
1084,01; 1406,648;  253,740; 1488,317;93,38484
1084,55; 1364,494;  241,510; 1434,779;94,10991
1085,09; 1380,263;  256,587; 1444,933;94,55805
1085,63; 1349,187;  249,663; 1423,317;93,68376
1086,17; 1327,725;  228,663; 1396,317;94,12563
1086,71; 1324,494;  224,279; 1372,010;95,86006
1087,24; 1326,110;  261,663; 1402,163;93,33153
1087,78; 1315,956;  259,279; 1373,702;94,81829
1088,32; 1274,879;  230,971; 1326,625;95,27714
1088,86; 1289,340;  257,356; 1332,394;95,99513
1089,40; 1250,648;  250,587; 1322,548;93,29267
1089,94; 1213,648;  222,356; 1272,010;94,43993
1090,48; 1227,340;  262,125; 1279,933;94,83279
1091,02; 1228,110;  266,048; 1280,625;94,82391
1091,56; 1198,648;  250,894; 1249,548;94,90314
1092,10; 1160,187;  229,510; 1219,933;93,96761
1092,63; 1194,187;  268,048; 1259,625;93,40057
1093,17; 1184,494;  251,510; 1227,779;95,56632
1093,71; 1143,494;  231,356; 1181,625;95,98737
1094,25; 1174,879;  269,663; 1208,779;96,39022
1094,79; 1116,263;  239,663; 1163,548;94,88198
1095,33; 1132,033;  256,048; 1162,163;96,67473
1095,87; 1108,187;  246,433; 1143,087;96,10775
1096,40; 1072,571;  235,048; 1108,856;95,84753
1096,94; 1101,110;  242,279; 1113,240;98,60720
1097,48; 1097,110;  260,433; 1126,625;96,59251
1098,02; 1056,110;  237,663; 1066,856;98,70402
1098,56; 1010,648;  216,202; 1053,010;94,93772
1099,10; 1020,263;  216,971; 1052,317;96,16281
1099,63; 1011,110;  223,433; 1027,779;97,92760
1100,17; 1014,802;  251,510; 1050,856;95,48958
1100,71; 1033,648;  265,740; 1058,779;96,83108

