
Integration time [ms]: 160,000
Averaging Nr. [scans]: 13
Smoothing Nr. [pixels]: 0
Data measured with spectrometer [name]: 2009305U1
Wave   ;Sample   ;Dark     ;Reference;Reflectance
[nm]   ;[counts] ;[counts] ;[counts] ;[%]

 175,72;  211,792;  211,495;  220,903; 3,15532
 176,32;  241,894;  239,266;  234,681; 0,00000
 176,92;  274,947;  272,880;  278,464;37,00823
 177,52;  270,554;  261,034;  277,765;56,90167
 178,12;  239,806;  246,728;  239,441; 0,00000
 178,72;  271,860;  280,728;  259,868; 0,00000
 179,32;  269,189;  264,958;  256,710; 0,00000
 179,92;  268,319;  263,342;  268,977;88,32834
 180,52;  255,133;  259,879;  273,789;-34,12090
 181,12;  270,656;  277,881;  256,017; 0,00000
 181,73;  285,749;  280,188;  289,375;60,52794
 182,33;  387,322;  394,264;  386,146; 0,00000
 182,93;  284,041;  288,188;  294,880;-61,97150
 183,53;  247,380;  249,497;  239,413; 0,00000
 184,13;  249,513;  254,420;  244,570; 0,00000
 184,73;  292,836;  298,267;  300,295;-267,71979
 185,33;  268,739;  255,507;  366,926;11,87606
 185,93;  279,455;  249,508;  376,315;23,61622
 186,53;  285,957;  254,199;  407,611;20,70068
 187,13;  315,063;  292,198;  434,377;16,08198
 187,73;  284,830;  255,584;  389,711;21,80474
 188,33;  274,200;  254,739;  382,838;15,19206
 188,93;  294,048;  262,972;  407,196;21,54709
 189,53;  281,638;  261,127;  411,282;13,66012
 190,13;  315,410;  301,206;  452,201; 9,40694
 190,73;  268,208;  234,974;  381,637;22,66051
 191,34;  304,213;  263,511;  421,861;25,70393
 191,94;  277,683;  251,278;  383,915;19,90782
 192,54;  292,265;  269,043;  407,504;16,77111
 193,14;  298,022;  277,121;  406,597;16,14262
 193,74;  301,132;  274,891;  414,642;18,77725
 194,34;  291,670;  267,429;  394,312;19,10502
 194,94;  264,201;  239,352;  369,250;19,12952
 195,54;  243,022;  219,506;  349,176;18,13501
 196,14;  256,907;  240,967;  384,854;11,07817
 196,74;  258,759;  243,045;  363,077;13,09140
 197,34;  235,053;  217,889;  356,094;12,41934
 197,94;  262,833;  241,044;  380,589;15,61442
 198,54;  279,202;  257,890;  399,498;15,04979
 199,14;  252,025;  218,351;  403,167;18,22057
 199,74;  245,615;  212,427;  383,975;19,34624
 200,34;  230,978;  212,273;  393,938;10,29625
 200,94;  271,151;  243,813;  436,072;14,21975
 201,54;  255,392;  229,351;  435,693;12,62039
 202,14;  296,665;  262,812;  492,471;14,74091
 202,74;  258,011;  226,658;  463,599;13,23246
 203,34;  237,178;  200,965;  486,334;12,68992
 203,94;  224,232;  175,581;  465,511;16,78044
 204,54;  297,207;  254,583;  559,330;13,98690
 205,14;  241,551;  204,274;  563,349;10,38137
 205,74;  297,613;  259,503;  662,948; 9,44599
 206,34;  261,831;  213,350;  676,769;10,46169
 206,94;  278,109;  221,966;  723,536;11,19357
 207,54;  250,458;  191,965;  735,008;10,77129
 208,14;  262,500;  211,042;  834,001; 8,26026
 208,74;  272,177;  225,581;  894,589; 6,96494
 209,34;  266,206;  210,966;  953,918; 7,43529
 209,94;  291,551;  224,350; 1042,023; 8,21856
 210,54;  290,774;  208,581; 1146,590; 8,76254
 211,14;  293,909;  220,581; 1233,561; 7,23884
 211,73;  317,095;  230,120; 1354,567; 7,73489
 212,33;  321,792;  232,966; 1441,495; 7,34988
 212,93;  325,458;  217,889; 1521,973; 8,24864
 213,53;  290,537;  183,197; 1578,704; 7,69183
 214,13;  336,354;  221,041; 1675,848; 7,92634
 214,73;  310,896;  199,119; 1679,856; 7,54874
 215,33;  304,090;  186,735; 1701,869; 7,74550
 215,93;  350,483;  212,427; 1819,005; 8,59321
 216,53;  322,419;  179,043; 1865,616; 8,50100
 217,13;  387,582;  222,504; 2071,888; 8,92613
 217,73;  397,741;  203,042; 2248,929; 9,51660
 218,33;  372,153;  171,964; 2388,716; 9,03071
 218,93;  422,720;  214,117; 2693,654; 8,41299
 219,53;  453,666;  203,734; 2934,601; 9,15213
 220,13;  454,031;  169,272; 3204,123; 9,38298
 220,73;  507,732;  193,427; 3549,946; 9,36400
 221,32;  543,562;  193,120; 3911,204; 9,42534
 221,92;  590,478;  212,426; 4258,343; 9,34405
 222,52;  596,037;  180,426; 4647,766; 9,30331
 223,12;  649,039;  191,965; 5076,883; 9,35684
 223,72;  688,860;  205,503; 5445,460; 9,22444
 224,32;  732,580;  200,734; 5797,980; 9,50192
 224,92;  724,169;  186,734; 6133,730; 9,03708
 225,52;  779,469;  211,043; 6466,344; 9,08711
 226,12;  802,133;  191,657; 6804,032; 9,23231
 226,72;  806,092;  166,965; 7141,233; 9,16407
 227,31;  826,066;  169,965; 7450,059; 9,01226
 227,91;  879,735;  205,889; 7848,563; 8,81689
 228,51;  906,257;  188,966; 8248,958; 8,89939
 229,11;  969,642;  193,888; 8638,165; 9,18674
 229,71;  979,534;  189,351; 8929,915; 9,04042
 230,31; 1013,765;  169,349; 9275,714; 9,27281
 230,91; 1015,338;  172,813; 9541,290; 8,99319
 231,51; 1062,869;  175,273; 9866,910; 9,15837
 232,10; 1114,179;  180,887;10214,043; 9,30207
 232,70; 1106,362;  196,275;10365,850; 8,94912
 233,30; 1181,405;  220,888;10585,581; 9,26720
 233,90; 1178,533;  181,657;10679,870; 9,49567
 234,50; 1178,779;  199,427;10768,861; 9,26589
 235,10; 1175,554;  191,503;10873,807; 9,21197
 235,70; 1232,978;  210,735;10830,553; 9,62581
 236,29; 1229,291;  200,120;10712,540; 9,79005
 236,89; 1205,378;  185,582;10549,474; 9,83990
 237,49; 1223,427;  209,273;10449,368; 9,90376
 238,09; 1194,985;  189,273;10173,846;10,07266
 238,69; 1224,574;  244,352; 9879,585;10,17332
 239,29; 1171,342;  192,966; 9618,806;10,37972
 239,89; 1170,943;  199,813; 9276,493;10,69917
 240,48; 1128,190;  183,735; 8770,288;10,99924
 241,08; 1108,929;  197,966; 8459,440;11,02665
 241,68; 1097,487;  200,504; 8144,664;11,29110
 242,28; 1060,031;  182,734; 7805,359;11,50912
 242,88; 1077,714;  221,503; 7526,887;11,72027
 243,48; 1070,068;  225,350; 7209,637;12,09455
 244,07; 1038,478;  206,196; 6967,006;12,31039
 244,67; 1054,527;  209,658; 6874,848;12,67585
 245,27; 1059,095;  203,582; 6645,336;13,28075
 245,87; 1067,070;  219,349; 6643,001;13,19687
 246,47; 1073,351;  208,735; 6568,509;13,59508
 247,06; 1096,790;  196,350; 6579,142;14,10731
 247,66; 1115,551;  185,504; 6603,212;14,49189
 248,26; 1173,136;  214,043; 6758,501;14,65504
 248,86; 1209,301;  213,582; 6942,433;14,79777
 249,46; 1227,663;  165,196; 7133,256;15,24768
 250,05; 1342,163;  205,658; 7497,287;15,58644
 250,65; 1380,066;  180,736; 7809,757;15,72064
 251,25; 1511,839;  184,735; 8215,487;16,52528
 251,85; 1621,827;  190,044; 8783,503;16,66131
 252,44; 1713,382;  162,197; 9374,493;16,83821
 253,04; 1881,193;  199,658;10076,254;17,02545
 253,64; 1965,564;  165,582;10743,900;17,01577
 254,24; 2225,804;  213,350;11677,479;17,55435
 254,84; 2390,048;  188,427;12516,102;17,85917
 255,43; 2581,037;  191,504;13497,464;17,95836
 256,03; 2809,950;  190,351;14451,940;18,36821
 256,63; 3049,122;  202,736;15523,455;18,57867
 257,23; 3197,084;  168,274;16450,734;18,60167
 257,82; 3471,982;  203,582;17379,987;19,02842
 258,42; 3632,244;  155,814;18251,839;19,21102
 259,02; 3913,898;  217,043;19237,629;19,43607
 259,62; 4041,394;  187,275;19953,856;19,49815
 260,21; 4212,472;  192,812;20539,387;19,75595
 260,81; 4324,567;  192,196;21031,724;19,82949
 261,41; 4488,210;  171,506;21598,351;20,14624
 262,01; 4646,478;  218,814;22103,267;20,23201
 262,60; 4700,623;  171,582;22443,888;20,33485
 263,20; 4830,107;  180,889;22761,864;20,58909
 263,80; 4932,413;  223,045;23041,718;20,63822
 264,40; 4941,352;  177,891;23233,076;20,66113
 264,99; 5002,335;  202,429;23522,987;20,58229
 265,59; 5049,547;  193,661;23638,650;20,71183
 266,19; 5101,850;  186,968;23800,065;20,81422
 266,78; 5193,314;  227,737;23994,434;20,89300
 267,38; 5162,705;  197,815;24065,863;20,80141
 267,98; 5204,187;  198,353;23979,742;21,04937
 268,58; 5215,525;  199,968;24059,998;21,02075
 269,17; 5187,370;  191,815;24039,692;20,94759
 269,77; 5156,835;  203,275;23892,356;20,91073
 270,37; 5097,347;  172,814;23775,823;20,86400
 270,96; 5104,353;  234,198;23752,400;20,70803
 271,56; 5035,249;  198,044;23497,204;20,76129
 272,16; 4994,760;  187,583;23354,129;20,75051
 272,75; 4913,261;  197,429;23260,178;20,44783
 273,35; 4910,906;  184,121;23191,872;20,54432
 273,95; 4899,697;  195,813;23133,216;20,50748
 274,54; 4915,099;  180,889;23211,893;20,55581
 275,14; 4984,920;  215,736;23517,363;20,46717
 275,74; 4922,722;  176,660;23538,504;20,31544
 276,33; 4981,488;  223,121;23996,289;20,01571
 276,93; 5051,026;  201,965;24266,568;20,15018
 277,53; 5167,882;  192,658;24820,040;20,20200
 278,12; 5255,228;  178,505;25255,783;20,24431
 278,72; 5386,559;  248,043;25774,491;20,13017
 279,32; 5498,545;  186,658;26366,635;20,28988
 279,91; 5626,079;  165,505;27091,575;20,27988
 280,51; 5765,126;  191,427;27666,454;20,28642
 281,11; 5900,900;  192,812;28289,017;20,31622
 281,70; 6044,000;  173,813;28738,401;20,55058
 282,30; 6199,019;  180,813;29326,435;20,64875
 282,90; 6369,595;  189,582;29659,522;20,97057
 283,49; 6470,035;  200,121;30268,142;20,85243
 284,09; 6607,563;  234,120;30743,765;20,88993
 284,69; 6749,685;  220,658;31017,144;21,20056
 285,28; 6907,049;  202,659;31341,803;21,53043
 285,88; 7064,567;  265,121;31563,908;21,72431
 286,47; 7141,774;  194,428;31613,098;22,11216
 287,07; 7297,108;  218,889;31770,442;22,43382
 287,67; 7491,837;  211,196;31839,022;23,01973
 288,26; 7593,415;  191,966;31807,153;23,41106
 288,86; 7814,371;  183,659;31881,294;24,07344
 289,46; 8023,568;  206,428;32075,499;24,52892
 290,05; 8216,941;  184,889;32130,295;25,14306
 290,65; 8465,644;  187,428;32228,789;25,83603
 291,24; 8737,136;  197,889;32463,116;26,46579
 291,84; 8983,583;  213,659;32502,916;27,16050
 292,44; 9257,506;  202,042;32604,561;27,94679
 293,03; 9605,585;  265,351;32838,068;28,67502
 293,63; 9788,415;  189,274;32896,579;29,34862
 294,22; 9969,836;  216,505;33115,219;29,64654
 294,82;10155,828;  189,737;33153,874;30,23313
 295,41;10186,769;  182,813;32797,016;30,67362
 296,01;10339,283;  228,352;32885,599;30,96076
 296,61;10351,302;  222,043;32616,337;31,26865
 297,20;10322,759;  195,506;32123,917;31,71863
 297,80;10365,470;  211,427;31958,152;31,98454
 298,39;10257,211;  182,120;31671,810;31,99489
 298,99;10242,918;  213,044;31605,727;31,94972
 299,58;10176,937;  208,427;31297,963;32,06387
 300,18;10181,827;  214,273;31171,882;32,19743
 300,78;10016,986;  190,274;30812,484;32,09015
 301,37;10000,575;  205,276;30778,033;32,03931
 301,97;10040,772;  207,889;30739,864;32,20520
 302,56; 9935,247;  191,890;30732,876;31,90256
 303,16; 9898,461;  171,275;30635,614;31,92975
 303,75; 9801,489;  198,889;30709,572;31,47291
 304,35; 9843,974;  176,888;30875,873;31,48992
 304,94; 9836,555;  195,582;30903,201;31,39603
 305,54; 9804,023;  221,274;30870,973;31,26540
 306,13; 9669,706;  167,042;30760,306;31,06130
 306,73; 9531,698;  181,657;30598,417;30,73976
 307,33; 9561,015;  205,581;30526,002;30,85523
 307,92; 9487,764;  214,274;30574,010;30,54536
 308,52; 9560,729;  174,044;31067,181;30,38437
 309,11; 9658,794;  192,967;31471,771;30,26275
 309,71; 9681,722;  178,660;31741,315;30,10856
 310,30; 9690,186;  189,966;31894,116;29,96523
 310,90; 9795,955;  216,966;32319,808;29,83845
 311,49; 9724,274;  204,582;32460,740;29,51279
 312,09; 9729,929;  160,504;32564,670;29,53147
 312,68; 9808,614;  256,120;33005,474;29,16850
 313,28; 9719,611;  170,043;33175,626;28,93319
 313,87; 9663,006;  166,966;33225,346;28,72506
 314,47; 9733,464;  194,890;33451,734;28,68154
 315,06; 9661,521;  169,966;33601,944;28,39065
 315,66; 9643,314;  176,735;33882,747;28,08573
 316,25; 9548,219;  158,198;33782,606;27,92620
 316,85; 9529,610;  163,043;33817,988;27,83118
 317,44; 9477,154;  174,737;33894,099;27,58776
 318,04; 9449,621;  163,428;33955,003;27,48079
 318,63; 9327,557;  161,657;34108,234;27,00095
 319,22; 9291,887;  192,044;34238,164;26,72799
 319,82; 9302,664;  187,505;34282,284;26,73477
 320,41; 9186,311;  195,274;34163,828;26,46871
 321,01; 9101,120;  196,350;34282,487;26,12431
 321,60; 9026,755;  201,659;34248,928;25,92013
 322,20; 8960,624;  177,889;34275,424;25,75768
 322,79; 8934,688;  214,735;34311,299;25,57429
 323,39; 8907,690;  190,580;34354,718;25,51538
 323,98; 8778,562;  172,658;34412,281;25,13434
 324,58; 8713,665;  178,736;34294,614;25,01747
 325,17; 8641,245;  188,582;34039,837;24,97001
 325,76; 8596,313;  193,966;33856,903;24,96023
 326,36; 8398,773;  166,889;33513,650;24,68571
 326,95; 8319,794;  216,043;33228,593;24,54749
 327,55; 8137,586;  172,505;32890,995;24,34428
 328,14; 7982,023;  171,812;32612,932;24,07504
 328,74; 7832,426;  202,736;32108,530;23,91318
 329,33; 7736,695;  199,197;31716,669;23,91530
 329,92; 7569,038;  174,506;31176,262;23,85198
 330,52; 7380,922;  194,812;30555,183;23,66938
 331,11; 7254,998;  190,043;30144,361;23,58577
 331,71; 7045,156;  186,197;29502,113;23,39671
 332,30; 6920,709;  197,812;29112,432;23,25086
 332,89; 6835,784;  263,043;28669,216;23,13842
 333,49; 6619,807;  198,274;28111,179;23,00561
 334,08; 6522,112;  178,967;27703,639;23,04531
 334,68; 6364,843;  189,274;27262,091;22,81096
 335,27; 6325,002;  205,735;26953,800;22,87742
 335,86; 6247,691;  247,043;26654,207;22,72356
 336,46; 6128,939;  206,196;26370,675;22,63658
 337,05; 6047,203;  182,043;26282,034;22,47188
 337,65; 5994,394;  171,582;26020,755;22,52611
 338,24; 5989,138;  240,043;25970,983;22,34312
 338,83; 5951,601;  203,351;25894,964;22,37403
 339,43; 5953,232;  185,274;25829,173;22,49252
 340,02; 5879,871;  185,659;25712,711;22,30658
 340,61; 5839,893;  192,581;25759,357;22,08848
 341,21; 5898,195;  221,274;25755,376;22,23270
 341,80; 5872,317;  185,813;25721,312;22,26901
 342,40; 5841,615;  195,504;25792,472;22,05774
 342,99; 5890,322;  195,658;25820,524;22,22320
 343,58; 5839,695;  183,504;25964,592;21,93930
 344,18; 5892,710;  206,273;26161,756;21,90842
 344,77; 5921,986;  176,198;26459,566;21,86093
 345,36; 5974,410;  173,966;26693,977;21,87195
 345,96; 6073,644;  216,581;27051,688;21,82612
 346,55; 6111,627;  174,888;27255,285;21,92264
 347,14; 6158,116;  181,658;27496,847;21,87961
 347,74; 6215,759;  161,349;28000,958;21,74747
 348,33; 6338,103;  186,734;28614,101;21,63890
 348,92; 6507,756;  194,425;29124,377;21,82282
 349,52; 6568,366;  165,579;29669,124;21,70175
 350,11; 6657,664;  189,582;29848,787;21,80801
 350,70; 6635,700;  169,197;29950,905;21,71300
 351,29; 6602,595;  170,199;29844,338;21,67678
 351,89; 6654,781;  188,737;29831,723;21,81307
 352,48; 6663,354;  155,120;29755,914;21,98669
 353,07; 6699,080;  201,965;29776,627;21,96852
 353,67; 6630,630;  196,656;29588,512;21,89033
 354,26; 6637,282;  192,042;29386,203;22,07716
 354,85; 6626,648;  200,042;29264,979;22,11120
 355,45; 6577,276;  170,659;29117,820;22,13211
 356,04; 6625,248;  181,504;29041,484;22,32761
 356,63; 6583,424;  217,889;28801,391;22,26996
 357,22; 6541,769;  187,122;28686,986;22,29712
 357,82; 6519,365;  186,583;28514,432;22,35532
 358,41; 6573,363;  208,966;28351,903;22,61454
 359,00; 6542,399;  173,736;28193,299;22,72935
 359,60; 6548,587;  193,658;28178,473;22,70849
 360,19; 6545,623;  212,042;27969,918;22,81724
 360,78; 6546,830;  194,967;27841,120;22,97558
 361,37; 6535,651;  185,428;27630,620;23,13783
 361,97; 6524,592;  188,659;27560,479;23,14765
 362,56; 6468,599;  172,275;27379,315;23,14226
 363,15; 6543,329;  246,736;27069,763;23,47458
 363,74; 6465,990;  189,121;26699,514;23,67701
 364,34; 6396,873;  201,121;26313,904;23,72689
 364,93; 6341,482;  181,813;25931,362;23,92146
 365,52; 6281,460;  156,274;25563,053;24,10847
 366,11; 6250,643;  175,659;25305,731;24,17416
 366,71; 6192,733;  176,274;24976,549;24,25964
 367,30; 6168,615;  188,813;24570,650;24,52564
 367,89; 6206,199;  220,273;24359,353;24,79766
 368,48; 6147,556;  209,583;24012,822;24,94607
 369,07; 6089,008;  193,197;23678,443;25,10432
 369,67; 6101,404;  221,582;23399,535;25,36817
 370,26; 6054,727;  185,274;23017,905;25,70643
 370,85; 6019,909;  182,813;22827,852;25,77649
 371,44; 6028,130;  195,120;22636,113;25,99265
 372,03; 6013,424;  167,890;22379,644;26,31730
 372,63; 5951,244;  163,428;22064,218;26,42743
 373,22; 5965,866;  183,735;21880,606;26,64960
 373,81; 5923,126;  170,197;21543,188;26,91682
 374,40; 5913,421;  181,658;21283,519;27,16236
 374,99; 5893,649;  186,351;21056,138;27,34718
 375,59; 5882,868;  161,042;20732,739;27,81407
 376,18; 5940,765;  199,043;20624,802;28,11020
 376,77; 5925,823;  204,659;20445,691;28,26518
 377,36; 5999,254;  207,659;20368,246;28,72732
 377,95; 5968,913;  203,428;20136,549;28,92415
 378,55; 5995,658;  177,966;19982,410;29,37569
 379,14; 6010,626;  198,582;19861,813;29,55793
 379,73; 6032,402;  196,659;19765,165;29,82212
 380,32; 6146,143;  194,736;19764,604;30,41108
 380,91; 6120,313;  173,890;19684,198;30,47837
 381,50; 6189,959;  194,890;19674,046;30,77684
 382,10; 6202,605;  176,428;19517,142;31,15799
 382,69; 6266,279;  166,120;19492,438;31,56400
 383,28; 6338,730;  214,813;19467,605;31,80794
 383,87; 6349,705;  177,659;19263,201;32,33885
 384,46; 6439,097;  162,352;19266,403;32,85557
 385,05; 6494,330;  198,198;19236,921;33,07014
 385,64; 6548,335;  185,890;19264,731;33,34818
 386,24; 6563,455;  159,737;19225,480;33,58756
 386,83; 6743,363;  200,198;19281,411;34,29114
 387,42; 6823,054;  196,274;19353,270;34,59196
 388,01; 6953,117;  177,891;19573,307;34,93210
 388,60; 7127,574;  191,044;19814,164;35,34876
 389,19; 7246,545;  185,584;20005,729;35,62517
 389,78; 7450,858;  182,969;20194,001;36,31941
 390,37; 7755,639;  250,045;20690,369;36,71955
 390,96; 7827,903;  196,583;20773,220;37,08731
 391,56; 7983,269;  195,969;20863,273;37,67932
 392,15; 8145,528;  179,123;21192,503;37,91111
 392,74; 8242,806;  160,817;21310,624;38,21306
 393,33; 8532,305;  187,893;21679,108;38,82708
 393,92; 8754,857;  197,509;22034,588;39,18723
 394,51; 8939,753;  171,816;22249,848;39,71340
 395,10; 9134,701;  215,896;22471,673;40,07412
 395,69; 9256,682;  203,049;22534,810;40,54151
 396,28; 9356,250;  194,435;22689,511;40,72809
 396,87; 9600,047;  190,975;22814,078;41,59055
 397,46; 9673,728;  194,899;22864,306;41,81331
 398,06; 9881,737;  212,823;23086,703;42,27055
 398,65;10001,359;  195,979;23095,800;42,81859
 399,24;10149,999;  218,211;23352,957;42,93018
 399,83;10250,611;  187,907;23329,458;43,48327
 400,42;10430,825;  225,680;23500,735;43,84585
 401,01;10587,395;  196,684;23613,456;44,37294
 401,60;10710,210;  225,382;23644,888;44,76964
 402,19;10795,542;  239,695;23657,412;45,07633
 402,78;10853,438;  231,471;23539,932;45,57129
 403,37;10894,306;  214,939;23457,159;45,94814
 403,96;10942,144;  222,639;23272,985;46,50475
 404,55;10981,100;  243,725;23287,924;46,59470
 405,14;10995,026;  219,964;23067,240;47,16125
 405,73;11080,570;  229,742;22969,296;47,71786
 406,32;11111,731;  229,133;22983,779;47,82583
 406,91;11126,123;  224,679;22726,786;48,44632
 407,50;11194,618;  228,836;22474,198;49,29469
 408,09;11119,692;  202,762;22260,479;49,49256
 408,68;11168,875;  211,533;22143,974;49,95952
 409,27;11206,488;  203,223;21926,977;50,65084
 409,86;11154,644;  216,756;21783,063;50,71748
 410,45;11249,573;  252,905;21764,002;51,12091
 411,04;11295,172;  246,516;21720,847;51,45052
 411,63;11206,474;  236,817;21434,096;51,75031
 412,22;11249,467;  227,888;21243,443;52,44486
 412,81;11122,941;  249,348;21005,096;52,38835
 413,40;11075,033;  257,960;20696,035;52,92609
 413,99;11012,526;  306,423;20358,870;53,39051
 414,58;10910,424;  227,422;19923,867;54,23822
 415,17;10854,378;  240,271;19761,596;54,37186
 415,76;10799,257;  222,735;19610,748;54,55186
 416,35;10760,440;  207,503;19427,764;54,90527
 416,94;10885,090;  254,888;19451,197;55,37628
 417,53;11059,959;  222,963;19612,954;55,88964
 418,12;11231,780;  227,424;19777,644;56,28763
 418,71;11520,522;  250,730;20131,786;56,68609
 419,30;11563,362;  219,347;20238,060;56,66706
 419,89;11723,566;  221,269;20300,403;57,28483
 420,48;11991,203;  251,807;20647,334;57,55868
 421,07;12106,291;  237,575;20737,148;57,89738
 421,66;12135,411;  208,497;20776,174;57,98863
 422,25;12159,789;  227,880;20780,887;58,05432
 422,84;12273,109;  243,341;20720,605;58,74695
 423,43;12172,302;  225,803;20428,524;59,13312
 424,02;12107,467;  258,803;20219,722;59,35931
 424,60;11848,793;  224,185;19803,125;59,37302
 425,19;11766,026;  250,340;19540,192;59,69816
 425,78;11748,697;  238,340;19461,617;59,87718
 426,37;11701,427;  253,569;19304,544;60,09066
 426,96;11594,556;  238,954;19126,121;60,12337
 427,55;11578,261;  230,183;19126,181;60,05546
 428,14;11533,240;  229,644;18833,699;60,75878
 428,73;11476,092;  235,338;18647,153;61,05185
 429,32;11531,590;  249,877;18594,763;61,49786
 429,91;11516,812;  259,030;18676,904;61,12422
 430,50;11514,384;  258,645;18521,713;61,63115
 431,08;11420,775;  258,644;18360,349;61,66343
 431,67;11439,204;  302,412;18330,782;61,77371
 432,26;11386,209;  326,642;18160,858;62,01319
 432,85;11238,819;  347,335;17821,836;62,32787
 433,44;10994,012;  360,257;17440,033;62,25934
 434,03;10852,036;  371,256;17158,139;62,43434
 434,62;10645,360;  331,641;16663,909;63,14934
 435,21;10541,053;  347,104;16496,684;63,12207
 435,79;10461,356;  332,948;16332,708;63,30349
 436,38;10401,134;  328,485;16237,016;63,31602
 436,97;10383,767;  323,793;16221,643;63,27884
 437,56;10249,025;  328,637;15979,537;63,38542
 438,15;10246,935;  295,099;15875,318;63,87481
 438,74;10296,145;  332,560;15856,013;64,18408
 439,33;10312,382;  284,099;15873,077;64,32932
 439,91;10307,675;  252,867;15956,906;64,02689
 440,50;10391,216;  294,098;16015,235;64,22638
 441,09;10488,476;  294,943;16082,077;64,56861
 441,68;10483,007;  267,711;16154,661;64,29992
 442,27;10516,366;  254,865;16123,606;64,66487
 442,86;10450,227;  241,324;16026,007;64,67601
 443,44;10544,086;  250,786;16129,577;64,82420
 444,03;10649,588;  335,324;16189,950;65,05523
 444,62;10473,267;  250,555;16053,209;64,68984
 445,21;10453,259;  259,940;15947,782;64,97591
 445,80;10395,154;  295,246;15848,830;64,93621
 446,39;10245,622;  333,016;15659,644;64,67572
 446,97;10096,817;  252,399;15390,839;65,02928
 447,56; 9989,386;  255,321;15178,970;65,22577
 448,15; 9835,752;  256,168;15006,598;64,94444
 448,74; 9700,051;  282,091;14794,610;64,89542
 449,33; 9597,458;  267,090;14665,641;64,80074
 449,91; 9488,916;  249,089;14390,958;65,33668
 450,50; 9314,371;  253,628;14218,742;64,88127
 451,09; 9272,247;  271,320;14125,591;64,96861
 451,68; 9181,736;  294,704;14035,070;64,67828
 452,26; 9108,944;  276,165;13992,011;64,39835
 452,85; 8993,332;  257,703;13829,823;64,36451
 453,44; 9011,764;  273,932;13779,714;64,69697
 454,03; 8958,236;  250,318;13801,670;64,25867
 454,61; 8903,472;  252,471;13757,610;64,05711
 455,20; 9063,706;  271,009;13969,185;64,18882
 455,79; 9032,806;  274,779;13911,286;64,22486
 456,38; 9060,591;  279,161;14014,786;63,93178
 456,97; 9115,442;  262,854;14103,099;63,96266
 457,55; 9066,706;  258,238;14130,908;63,49512
 458,14; 9051,141;  291,239;14075,067;63,55203
 458,73; 8973,261;  272,468;14011,957;63,32690
 459,31; 8999,290;  289,006;14063,050;63,23694
 459,90; 9028,530;  317,622;14168,214;62,89195
 460,49; 9066,893;  377,853;14241,835;62,67348
 461,08; 9093,753;  264,928;14290,432;62,94836
 461,66; 9082,006;  272,083;14351,107;62,57482
 462,25; 9117,394;  282,312;14495,949;62,15919
 462,84; 9128,615;  300,390;14501,636;62,16514
 463,43; 9041,798;  248,234;14475,764;61,80668
 464,01; 9088,684;  272,157;14468,694;62,10336
 464,60; 9082,966;  336,004;14482,124;61,83295
 465,19; 8856,807;  249,233;14206,266;61,67195
 465,77; 8863,092;  278,617;14168,900;61,80202
 466,36; 8768,426;  300,388;14093,889;61,39151
 466,95; 8576,250;  281,773;13770,006;61,49417
 467,53; 8351,879;  290,847;13477,871;61,12852
 468,12; 8180,999;  309,616;13237,536;60,88669
 468,71; 8045,619;  273,156;13039,028;60,88470
 469,29; 7841,003;  257,539;12766,750;60,62304
 469,88; 7653,324;  260,077;12540,218;60,20490
 470,47; 7790,440;  332,307;12631,261;60,64038
 471,06; 7639,967;  280,922;12514,253;60,15570
 471,64; 7702,524;  281,077;12656,922;59,96719
 472,23; 7667,795;  253,305;12657,306;59,77499
 472,81; 7714,796;  257,229;12781,927;59,54288
 473,40; 7777,668;  268,536;12921,383;59,34737
 473,99; 7898,310;  383,228;13090,095;59,14189
 474,57; 7900,833;  266,382;13216,161;58,95430
 475,16; 7954,494;  284,691;13368,257;58,62165
 475,75; 7979,713;  311,227;13514,047;58,08218
 476,33; 7999,324;  301,611;13584,597;57,95167
 476,92; 7979,750;  302,228;13597,424;57,74659
 477,51; 7986,930;  305,535;13748,207;57,14187
 478,09; 7996,289;  300,304;13698,169;57,44188
 478,68; 7892,336;  294,996;13631,356;56,96712
 479,27; 7966,765;  330,458;13743,529;56,93183
 479,85; 7854,130;  288,765;13644,644;56,64445
 480,44; 7827,140;  278,765;13842,630;55,65062
 481,02; 8502,928;  308,379;15086,890;55,44908
 481,61; 9488,445;  322,072;17081,415;54,69411
 482,20;10130,223;  310,456;18258,439;54,71237
 482,78;10527,905;  339,457;19068,417;54,39943
 483,37;10780,598;  338,609;19595,156;54,22566
 483,95;10889,142;  367,609;19905,024;53,85325
 484,54;10946,275;  372,764;20108,365;53,57583
 485,13;10898,268;  341,839;20041,729;53,58624
 485,71;10727,837;  330,224;19771,542;53,48204
 486,30;10549,196;  357,377;19509,734;53,21444
 486,88;10380,498;  411,070;19225,690;52,98767
 487,47; 9950,337;  374,608;18539,337;52,71606
 488,05; 9488,591;  365,915;17726,602;52,54790
 488,64; 8844,382;  359,914;16450,710;52,72870
 489,23; 7823,379;  369,761;14676,365;52,09914
 489,81; 6684,629;  373,607;12571,955;51,73670
 490,40; 6341,301;  315,914;11874,977;52,12695
 490,98; 6181,823;  307,068;11586,193;52,08520
 491,57; 6112,895;  338,069;11499,424;51,73947
 492,15; 6051,955;  317,145;11462,542;51,45452
 492,74; 5955,863;  317,453;11356,094;51,07884
 493,32; 5911,872;  348,145;11203,904;51,25139
 493,91; 5787,004;  314,298;11186,903;50,33482
 494,50; 5729,402;  313,220;11148,596;49,98610
 495,08; 5692,759;  298,066;11063,846;50,10963
 495,67; 5708,373;  328,067;11048,699;50,18646
 496,25; 5585,715;  260,605;10929,547;49,91226
 496,84; 5538,666;  281,529;10919,843;49,41701
 497,42; 5441,223;  257,682;10876,907;48,81280
 498,01; 5435,914;  297,144;10794,624;48,95242
 498,59; 5368,547;  263,912;10734,726;48,75107
 499,18; 5285,930;  263,144;10715,154;48,05569
 499,76; 5285,164;  289,451;10606,019;48,42418
 500,35; 5116,501;  278,142;10473,419;47,45687
 500,93; 5055,388;  269,836;10384,608;47,31250
 501,52; 5014,020;  273,066;10331,793;47,13274
 502,10; 5012,081;  279,372;10285,543;47,29790
 502,69; 4874,607;  264,833;10162,588;46,57393
 503,27; 4761,544;  240,989;10022,588;46,21489
 503,86; 4743,511;  269,064; 9911,595;46,40325
 504,44; 4619,370;  228,987; 9797,140;45,88538
 505,03; 4510,768;  221,141; 9535,881;46,05204
 505,61; 4447,852;  235,833; 9501,368;45,45899
 506,19; 4405,651;  258,910; 9294,370;45,89408
 506,78; 4238,962;  239,524; 9132,905;44,97095
 507,36; 4177,868;  244,602; 8968,110;45,08812
 507,95; 4090,257;  240,755; 8805,585;44,94546
 508,53; 4019,961;  235,371; 8713,924;44,63723
 509,12; 3974,752;  245,139; 8554,996;44,88180
 509,70; 3902,477;  267,832; 8439,018;44,48124
 510,29; 3833,440;  288,600; 8295,487;44,27238
 510,87; 3673,628;  237,832; 8093,981;43,73384
 511,46; 3605,057;  235,986; 7953,917;43,65252
 512,04; 3542,187;  247,370; 7787,108;43,69936
 512,62; 3479,186;  249,755; 7651,187;43,63252
 513,21; 3385,275;  243,216; 7456,248;43,56086
 513,79; 3300,485;  236,752; 7390,281;42,82827
 514,38; 3217,957;  229,214; 7225,273;42,72038
 514,96; 3179,083;  262,984; 7149,925;42,34244
 515,54; 3081,618;  222,906; 6979,651;42,30900
 516,13; 3064,839;  261,060; 6955,374;41,88299
 516,71; 2968,972;  239,906; 6806,797;41,55797
 517,30; 2904,962;  228,982; 6687,017;41,43645
 517,88; 2888,154;  249,290; 6594,814;41,58622
 518,46; 2825,777;  228,674; 6507,780;41,36103
 519,05; 2768,687;  230,135; 6478,075;40,63022
 519,63; 2758,129;  246,135; 6365,408;41,05053
 520,22; 2710,259;  254,057; 6319,730;40,49347
 520,80; 2673,428;  240,673; 6261,953;40,40262
 521,38; 2707,151;  285,750; 6247,865;40,61312
 521,97; 2634,953;  233,057; 6214,479;40,15595
 522,55; 2598,914;  249,134; 6166,104;39,71257
 523,13; 2568,181;  245,749; 6176,282;39,16060
 523,72; 2576,122;  239,982; 6136,578;39,61846
 524,30; 2619,154;  270,671; 6312,779;38,86860
 524,89; 2566,353;  219,749; 6304,778;38,56357
 525,47; 2604,762;  255,517; 6430,214;38,04632
 526,05; 2615,919;  210,671; 6427,908;38,68677
 526,64; 2654,747;  254,824; 6582,932;37,92482
 527,22; 2682,313;  261,825; 6754,820;37,27845
 527,80; 2738,823;  299,824; 6831,738;37,33972
 528,39; 2714,730;  241,286; 6934,551;36,95423
 528,97; 2742,661;  241,747; 7075,885;36,59442
 529,55; 2808,822;  254,210; 7272,532;36,39918
 530,14; 2846,032;  269,362; 7469,642;35,78570
 530,72; 2869,405;  249,824; 7542,001;35,92317
 531,30; 2878,663;  228,054; 7745,941;35,25736
 531,89; 2924,791;  252,285; 7813,999;35,34259
 532,47; 2960,977;  281,054; 7927,406;35,04839
 533,05; 2961,848;  283,286; 7971,469;34,83999
 533,63; 2944,635;  271,823; 8017,629;34,50656
 534,22; 2940,135;  254,131; 8068,389;34,37312
 534,80; 2982,718;  275,515; 8161,053;34,33124
 535,38; 3038,333;  382,977; 8275,616;33,64344
 535,97; 2947,363;  261,131; 8119,926;34,18122
 536,55; 3000,746;  314,361; 8266,785;33,78071
 537,13; 2996,508;  321,901; 8224,363;33,84523
 537,71; 3016,031;  377,439; 8315,372;33,24029
 538,30; 3016,411;  392,823; 8351,845;32,96370
 538,88; 3098,273;  438,514; 8493,197;33,02128
 539,46; 3141,064;  510,053; 8658,370;32,28901
 540,05; 3151,190;  523,438; 8782,962;31,81481
 540,63; 3205,665;  574,130; 9045,146;31,06517
 541,21; 3241,779;  610,822; 9188,055;30,67373
 541,79; 3284,446;  666,745; 9299,651;30,32236
 542,38; 3306,482;  689,822; 9500,201;29,69974
 542,96; 3374,089;  700,744; 9627,804;29,94654
 543,54; 3429,854;  731,360; 9816,112;29,70355
 544,12; 3465,552;  697,129;10005,211;29,74214
 544,70; 3434,476;  678,513;10066,612;29,35591
 545,29; 3498,624;  690,207;10210,981;29,49778
 545,87; 3470,984;  666,052;10244,113;29,28497
 546,45; 3468,212;  606,207;10237,768;29,71486
 547,03; 3468,158;  586,207;10303,667;29,65745
 547,62; 3466,115;  549,360;10453,499;29,44986
 548,20; 3520,702;  535,821;10611,091;29,62582
 548,78; 3532,933;  494,743;10742,659;29,64691
 549,36; 3568,339;  445,974;10854,157;29,99914
 549,94; 3539,145;  405,283;11052,098;29,43474
 550,53; 3615,115;  416,051;11273,895;29,46317
 551,11; 3635,184;  376,358;11470,000;29,37562
 551,69; 3699,928;  386,512;11792,695;29,04930
 552,27; 3726,684;  351,282;12020,323;28,92613
 552,85; 3821,440;  344,819;12332,115;29,00254
 553,44; 3860,940;  333,051;12706,532;28,51170
 554,02; 3932,088;  350,358;13001,871;28,31068
 554,60; 4008,417;  282,896;13338,405;28,53601
 555,18; 4097,852;  323,128;13722,061;28,17183
 555,76; 4165,101;  307,666;14026,920;28,11694
 556,34; 4220,265;  318,357;14498,326;27,51704
 556,93; 4335,674;  287,512;14882,081;27,73745
 557,51; 4357,112;  271,819;15183,769;27,39610
 558,09; 4473,789;  309,358;15548,014;27,32807
 558,67; 4534,406;  300,972;15923,621;27,09805
 559,25; 4587,809;  314,049;16218,733;26,87108
 559,83; 4664,325;  296,818;16591,194;26,80377
 560,41; 4746,029;  285,511;16922,593;26,81070
 561,00; 4860,201;  296,895;17205,871;26,98747
 561,58; 4871,284;  281,050;17522,650;26,62302
 562,16; 4927,838;  273,281;17819,760;26,52702
 562,74; 4987,434;  260,589;18189,785;26,36396
 563,32; 5082,966;  259,664;18637,540;26,24516
 563,90; 5169,188;  288,434;18989,054;26,09942
 564,48; 5249,947;  290,973;19364,475;25,99929
 565,06; 5404,493;  281,126;19958,572;26,03675
 565,65; 5534,228;  280,356;20632,309;25,81508
 566,23; 5721,778;  341,972;21336,093;25,62530
 566,81; 5859,142;  281,434;22055,848;25,61588
 567,39; 6028,522;  291,664;23002,321;25,26064
 567,97; 6144,081;  311,049;23678,206;24,96252
 568,55; 6405,632;  339,818;24434,847;25,17454
 569,13; 6554,164;  281,818;25069,074;25,30472
 569,71; 6710,402;  281,358;26085,798;24,91449
 570,29; 6997,840;  326,204;27063,302;24,95273
 570,87; 7078,667;  316,743;27807,498;24,59709
 571,45; 7246,379;  305,203;28474,313;24,64109
 572,03; 7281,219;  277,664;28836,535;24,52322
 572,61; 7435,721;  279,510;29561,683;24,43880
 573,20; 7578,600;  292,588;30245,769;24,32467
 573,78; 7705,671;  289,664;30881,434;24,24184
 574,36; 7787,038;  314,280;31421,652;24,02247
 574,94; 7861,838;  377,356;31802,825;23,81661
 575,52; 7866,414;  295,432;31999,463;23,88019
 576,10; 8027,788;  368,509;32545,843;23,80334
 576,68; 8067,180;  349,048;33138,621;23,53837
 577,26; 8235,013;  369,354;33842,430;23,49847
 577,84; 8290,130;  378,895;34248,971;23,35759
 578,42; 8433,934;  436,740;34628,338;23,38935
 579,00; 8318,376;  374,279;34789,559;23,08305
 579,58; 8406,749;  428,202;34975,220;23,09475
 580,16; 8306,746;  386,586;35009,177;22,87570
 580,74; 8332,081;  395,278;35250,466;22,77079
 581,32; 8313,188;  384,740;35391,202;22,64853
 581,90; 8281,296;  417,894;35264,013;22,56608
 582,48; 8262,066;  408,048;35421,148;22,43166
 583,06; 8201,301;  394,894;35675,788;22,12644
 583,64; 8193,197;  405,894;35627,498;22,10945
 584,22; 8127,867;  425,893;35538,071;21,93533
 584,80; 8048,627;  431,817;35319,012;21,83268
 585,38; 7909,841;  438,819;34950,201;21,64799
 585,96; 7843,188;  416,202;35033,782;21,45438
 586,54; 7847,529;  431,739;34991,069;21,45814
 587,12; 7790,533;  384,355;35135,247;21,31220
 587,70; 7846,600;  423,895;35393,764;21,22600
 588,28; 7757,559;  401,817;35422,824;21,00380
 588,86; 7787,115;  402,740;35502,913;21,03800
 589,44; 7709,717;  379,739;35698,398;20,75384
 590,02; 7728,928;  381,047;35790,731;20,75105
 590,59; 7749,157;  363,355;36071,982;20,68352
 591,17; 7744,550;  366,661;36343,113;20,50755
 591,75; 7717,740;  351,123;36396,451;20,43709
 592,33; 7825,515;  368,123;36635,745;20,56212
 592,91; 7762,403;  322,661;36802,773;20,39397
 593,49; 7791,953;  323,045;37090,183;20,31409
 594,07; 7804,735;  342,430;37386,404;20,14445
 594,65; 7757,057;  358,739;37316,426;20,01835
 595,23; 7853,530;  345,893;37877,163;20,00369
 595,81; 7816,741;  324,354;37980,455;19,89688
 596,39; 7805,128;  326,969;38049,494;19,82412
 596,97; 7778,531;  321,123;38336,446;19,61685
 597,55; 7733,653;  329,124;38165,795;19,56972
 598,12; 7663,472;  294,506;38053,860;19,51560
 598,70; 7678,907;  308,815;38368,362;19,36464
 599,28; 7714,561;  326,584;38480,814;19,36346
 599,86; 7644,547;  321,584;38551,727;19,15495
 600,44; 7610,272;  285,891;38621,596;19,10590
 601,02; 7651,904;  338,583;38714,775;19,05692
 601,60; 7626,343;  314,584;38670,846;19,06275
 602,18; 7570,009;  278,045;38689,897;18,98363
 602,75; 7551,791;  286,662;38786,473;18,87056
 603,33; 7526,126;  301,122;38832,526;18,75095
 603,91; 7460,765;  297,737;38795,365;18,60641
 604,49; 7476,704;  317,815;38813,498;18,59660
 605,07; 7456,996;  328,969;38843,643;18,50730
 605,65; 7438,236;  340,968;38932,761;18,39061
 606,23; 7452,795;  404,893;39179,461;18,17661
 606,80; 7441,842;  462,046;39158,915;18,03711
 607,38; 7406,620;  518,583;39228,969;17,79377
 607,96; 7393,931;  579,970;39333,597;17,58277
 608,54; 7396,518;  661,660;39410,510;17,38079
 609,12; 7425,727;  667,816;39470,598;17,41605
 609,70; 7369,366;  706,661;39567,803;17,14490
 610,27; 7379,928;  705,124;39535,885;17,18948
 610,85; 7343,083;  746,199;39623,322;16,96855
 611,43; 7293,971;  731,892;39526,545;16,91491
 612,01; 7145,506;  695,354;39265,911;16,72299
 612,59; 7164,200;  685,122;39413,678;16,72946
 613,16; 7092,431;  650,970;39404,399;16,62166
 613,74; 7046,011;  622,045;39147,055;16,67479
 614,32; 6996,314;  570,430;39181,665;16,64252
 614,90; 6985,731;  510,661;38991,155;16,82689
 615,48; 6846,281;  453,816;38684,228;16,72089
 616,05; 6749,762;  409,355;38686,801;16,56434
 616,63; 6726,703;  432,817;38503,836;16,53196
 617,21; 6633,762;  414,277;38347,683;16,39580
 617,79; 6626,795;  401,277;38316,994;16,41936
 618,36; 6576,893;  396,200;38153,470;16,36954
 618,94; 6422,809;  349,124;37891,123;16,17838
 619,52; 6379,899;  366,201;37661,924;16,12436
 620,10; 6377,715;  347,662;37667,762;16,15765
 620,67; 6313,204;  350,970;37468,134;16,06328
 621,25; 6301,176;  389,354;37329,951;16,00359
 621,83; 6239,053;  360,662;37274,710;15,92454
 622,41; 6255,693;  416,278;37299,613;15,83212
 622,98; 6169,023;  375,970;37073,364;15,78601
 623,56; 6128,648;  374,278;37008,718;15,70754
 624,14; 6070,452;  358,507;36823,868;15,66403
 624,72; 5991,078;  345,816;36709,748;15,52435
 625,29; 5990,226;  334,201;36910,709;15,46354
 625,87; 5976,513;  380,662;36708,475;15,40377
 626,45; 5873,721;  319,971;36631,889;15,29457
 627,02; 5813,989;  333,200;36559,101;15,12948
 627,60; 5767,822;  313,430;36456,278;15,09121
 628,18; 5777,650;  314,893;36567,752;15,06849
 628,76; 5732,435;  309,586;36546,500;14,96499
 629,33; 5723,547;  346,970;36579,543;14,83907
 629,91; 5662,792;  322,662;36589,377;14,72460
 630,49; 5687,082;  337,047;36732,868;14,69958
 631,06; 5712,322;  324,201;36869,914;14,74351
 631,64; 5642,980;  325,663;36682,871;14,62521
 632,22; 5565,970;  291,125;36696,558;14,48917
 632,79; 5617,855;  325,048;37006,933;14,42894
 633,37; 5592,583;  292,815;37049,584;14,41848
 633,95; 5572,708;  299,509;37105,321;14,32708
 634,52; 5561,860;  287,354;37261,738;14,26530
 635,10; 5570,251;  300,893;37214,434;14,27486
 635,68; 5567,675;  297,586;37462,222;14,18039
 636,25; 5498,827;  269,049;37444,839;14,06770
 636,83; 5508,282;  264,586;37635,807;14,03137
 637,41; 5494,748;  285,279;37583,008;13,96726
 637,98; 5499,054;  311,510;37886,738;13,80576
 638,56; 5493,361;  285,587;37996,721;13,80965
 639,13; 5469,830;  268,509;38017,931;13,77854
 639,71; 5549,925;  341,663;38202,232;13,75643
 640,29; 5378,473;  248,047;37942,112;13,61070
 640,86; 5408,933;  265,586;38203,469;13,55729
 641,44; 5361,393;  264,739;38142,057;13,45569
 642,02; 5353,699;  294,970;38180,337;13,35272
 642,59; 5373,620;  257,355;38337,924;13,43537
 643,17; 5345,696;  267,970;38411,666;13,31210
 643,74; 5278,617;  264,355;38386,177;13,15326
 644,32; 5282,000;  298,124;38230,688;13,13878
 644,89; 5272,460;  290,893;38330,737;13,09566
 645,47; 5217,459;  295,970;38275,248;12,95835
 646,05; 5213,842;  301,047;38199,144;12,96317
 646,62; 5149,148;  267,970;38176,962;12,87604
 647,20; 5162,531;  280,970;38458,243;12,78656
 647,77; 5084,530;  258,739;38227,215;12,70999
 648,35; 5078,759;  249,047;38133,264;12,74861
 648,92; 5083,911;  280,970;38176,083;12,67430
 649,50; 5042,525;  245,124;38084,748;12,67825
 650,08; 4973,446;  248,508;37951,028;12,53216
 650,65; 4995,445;  257,277;38129,693;12,51087
 651,23; 5035,443;  235,508;38845,896;12,43172
 651,80; 5172,519;  241,893;39880,099;12,43907
 652,38; 5213,056;  255,431;40266,764;12,39055
 652,95; 5261,439;  238,047;40564,198;12,45691
 653,53; 5276,745;  264,047;40893,632;12,33756
 654,10; 5297,205;  294,508;41011,527;12,28650
 654,68; 5247,896;  231,123;40936,115;12,32471
 655,25; 5179,279;  240,123;40927,549;12,13927
 655,83; 5196,200;  238,816;41064,983;12,14266
 656,40; 5210,276;  277,431;41097,956;12,08423
 656,98; 5157,659;  246,816;41053,774;12,03433
 657,55; 5139,811;  245,892;40850,823;12,05252
 658,13; 5076,425;  247,354;40513,257;11,99295
 658,70; 5027,039;  268,354;40338,307;11,87594
 659,28; 4901,652;  237,277;39441,279;11,89770
 659,85; 4775,959;  275,815;38656,944;11,72488
 660,43; 4782,111;  274,354;38613,840;11,75748
 661,00; 4750,032;  255,738;38758,350;11,67270
 661,58; 4789,569;  255,431;39162,015;11,65391
 662,15; 4778,414;  242,123;39258,449;11,62665
 662,73; 4875,028;  317,815;39676,499;11,57867
 663,30; 4828,103;  258,200;39816,317;11,55238
 663,88; 4847,102;  261,354;39932,290;11,55946
 664,45; 4827,638;  244,969;40214,493;11,46541
 665,03; 4891,483;  252,969;40498,465;11,52555
 665,60; 5009,020;  345,661;40980,438;11,47628
 666,17; 4884,865;  254,661;41057,026;11,34788
 666,75; 4934,094;  250,661;41476,844;11,36034
 667,32; 4964,477;  273,584;41833,355;11,28710
 667,90; 4975,091;  259,815;42040,558;11,28576
 668,47; 4994,397;  275,584;42304,992;11,22741
 669,05; 5013,395;  252,353;42670,888;11,22397
 669,62; 4993,163;  224,892;42792,476;11,20165
 670,19; 5003,700;  230,199;42808,679;11,21106
 670,77; 5025,545;  251,661;43089,651;11,14404
 671,34; 4995,466;  231,430;42909,470;11,16273
 671,92; 5045,388;  232,661;43328,288;11,16755
 672,49; 5028,540;  266,199;43277,492;11,07230
 673,06; 5002,154;  217,276;43393,310;11,08225
 673,64; 4995,998;  226,045;43290,667;11,07627
 674,21; 4991,458;  230,738;43272,332;11,06074
 674,79; 5043,303;  246,276;43567,689;11,07311
 675,36; 5012,224;  247,507;43671,508;10,97254
 675,93; 4987,531;  223,584;43539,480;10,99815
 676,51; 5046,221;  254,353;43741,607;11,01902
 677,08; 5051,297;  256,891;43814,964;11,00693
 677,65; 5009,680;  245,430;43940,474;10,90341
 678,23; 5035,524;  248,353;44134,601;10,90814
 678,80; 5013,984;  247,891;44335,881;10,81041
 679,38; 5058,521;  236,968;44460,161;10,90277
 679,95; 5084,212;  251,507;44698,210;10,87303
 680,52; 5104,595;  232,737;45020,337;10,87769
 681,10; 5167,055;  253,891;45252,309;10,91853
 681,67; 5212,207;  251,891;45654,743;10,92512
 682,24; 5180,821;  223,583;45647,100;10,91337
 682,82; 5227,204;  228,199;46216,534;10,87016
 683,39; 5311,972;  284,430;46554,353;10,86568
 683,96; 5305,586;  251,353;46749,633;10,86972
 684,54; 5308,584;  216,660;47143,605;10,85075
 685,11; 5376,583;  285,199;47620,578;10,75598
 685,68; 5427,427;  237,276;47943,627;10,87937
 686,25; 5388,964;  220,199;47977,523;10,82298
 686,83; 5432,117;  242,891;48173,649;10,82650
 687,40; 5475,038;  232,737;48641,775;10,82918
 687,97; 5537,883;  292,275;49037,902;10,76119
 688,55; 5485,035;  228,275;49002,028;10,77785
 689,12; 5502,572;  205,045;49250,462;10,80127
 689,69; 5519,416;  223,583;49361,819;10,77742
 690,26; 5572,569;  226,814;49423,484;10,86609
 690,84; 5592,875;  232,198;49572,841;10,86463
 691,41; 5613,566;  252,737;49630,121;10,85685
 691,98; 5646,103;  247,275;50012,093;10,84868
 692,56; 5650,024;  248,583;50084,912;10,83836
 693,13; 5704,638;  283,660;50120,038;10,87755
 693,70; 5703,713;  256,660;50346,934;10,87447
 694,27; 5690,173;  229,660;50424,214;10,87870
 694,84; 5671,710;  227,352;50553,186;10,81822
 695,42; 5767,863;  287,890;50713,082;10,86753
 695,99; 5747,092;  250,583;50970,593;10,83696
 696,56; 5753,398;  240,429;50747,796;10,91518
 697,13; 5824,858;  256,967;51118,768;10,94710
 697,71; 5798,626;  234,967;51101,895;10,93767
 698,28; 5804,239;  229,506;51511,175;10,87081
 698,85; 5805,007;  203,890;51588,301;10,90042
 699,42; 5852,852;  199,121;51639,581;10,99082
 699,99; 5901,619;  261,659;51835,861;10,93562
 700,57; 5923,772;  243,813;51785,603;11,02010
 701,14; 5928,155;  234,198;52064,191;10,98583
 701,71; 5998,076;  256,967;52276,010;11,03655
 702,28; 5942,921;  236,429;52196,597;10,98244
 702,85; 6019,765;  240,736;52263,031;11,10875
 703,43; 6056,149;  263,044;52545,312;11,08044
 704,00; 6094,224;  275,813;52840,130;11,06913
 704,57; 6101,992;  255,275;52740,564;11,13973
 705,14; 6127,529;  278,121;53119,383;11,06977
 705,71; 6140,604;  291,736;53002,124;11,09623
 706,28; 6119,679;  261,736;52995,174;11,10859
 706,86; 6195,832;  292,967;53308,531;11,13421
 707,43; 6258,984;  323,582;53181,734;11,22892
 708,00; 6215,367;  294,813;53179,783;11,19515
 708,57; 6215,442;  256,659;53074,602;11,28174
 709,14; 6252,133;  288,659;53306,498;11,24805
 709,71; 6297,055;  266,967;53299,701;11,37050
 710,28; 6304,899;  270,428;53487,596;11,33933
 710,86; 6328,590;  275,120;53725,492;11,32540
 711,43; 6400,896;  299,736;53655,618;11,43484
 712,00; 6389,202;  262,197;53721,283;11,46111
 712,57; 6429,508;  284,351;53918,563;11,45753
 713,14; 6469,122;  250,582;54055,766;11,55751
 713,71; 6498,967;  270,197;53948,123;11,60397
 714,28; 6503,581;  246,274;53911,019;11,66000
 714,85; 6475,733;  249,428;53726,607;11,64292
 715,42; 6526,578;  247,812;53999,810;11,68099
 716,00; 6643,114;  318,582;54123,167;11,75464
 716,57; 6613,190;  254,966;54213,985;11,78343
 717,14; 6628,342;  236,120;54124,573;11,86195
 717,71; 6608,802;  231,274;54153,853;11,82719
 718,28; 6748,647;  275,043;54303,595;11,98182
 718,85; 6704,030;  225,120;54290,029;11,98358
 719,42; 6805,797;  257,043;54456,078;12,08279
 719,99; 6743,181;  228,966;54163,436;12,07802
 720,56; 6772,871;  258,658;54601,023;11,98736
 721,13; 6815,331;  228,812;54648,765;12,10313
 721,70; 6833,868;  224,351;54471,122;12,18417
 722,27; 6886,174;  254,197;54491,018;12,22781
 722,84; 6968,788;  324,427;54774,221;12,20273
 723,41; 6975,710;  234,504;54597,424;12,40037
 723,98; 6964,247;  240,197;54852,473;12,31234
 724,55; 7047,091;  255,350;55039,292;12,39732
 725,12; 7042,397;  207,735;54881,726;12,50076
 725,69; 7089,934;  226,889;55244,006;12,47438
 726,27; 7132,164;  228,966;55288,363;12,53773
 726,84; 7201,623;  239,196;55550,413;12,58773
 727,41; 7247,314;  263,658;55550,154;12,63176
 727,98; 7332,543;  253,043;55782,819;12,74902
 728,55; 7389,003;  285,119;55635,253;12,83445
 729,12; 7402,540;  223,427;55924,918;12,88855
 729,69; 7435,847;  264,966;55950,583;12,87744
 730,26; 7415,999;  258,119;56249,247;12,78395
 730,82; 7482,459;  253,042;56026,604;12,96208
 731,39; 7529,842;  240,735;56137,654;13,04027
 731,96; 7636,917;  224,735;56472,857;13,17765
 732,53; 7686,070;  246,119;56736,291;13,17034
 733,10; 7718,760;  260,504;56820,956;13,18635
 733,67; 7788,913;  248,273;56947,851;13,29929
 734,24; 7748,142;  239,581;56591,285;13,32446
 734,81; 7806,063;  268,811;56683,411;13,36046
 735,38; 7764,446;  244,581;56442,692;13,38099
 735,95; 7805,983;  236,965;56367,203;13,48474
 736,52; 7855,674;  248,042;56606,483;13,49866
 737,09; 7902,903;  254,657;56186,840;13,67414
 737,66; 8020,133;  324,196;56445,120;13,71313
 738,23; 8030,131;  242,888;56470,169;13,84958
 738,80; 8178,976;  321,503;56799,065;13,91256
 739,37; 8173,974;  275,965;56994,499;13,92492
 739,94; 8182,357;  247,580;56972,240;13,98823
 740,51; 8377,279;  392,273;57077,751;14,08651
 741,07; 8320,046;  249,350;56955,801;14,23241
 741,64; 8376,122;  287,349;57183,235;14,21680
 742,21; 8455,505;  263,965;57294,976;14,36331
 742,78; 8437,119;  234,273;57027,641;14,44332
 743,35; 8527,348;  253,965;57277,152;14,50880
 743,92; 8593,039;  298,426;57446,663;14,51421
 744,49; 8678,652;  291,580;57263,174;14,72150
 745,06; 8674,805;  245,119;57414,146;14,74520
 745,63; 8684,342;  234,734;57405,273;14,77965
 746,19; 8769,955;  256,657;57336,168;14,91481
 746,76; 8797,339;  247,503;57463,679;14,94304
 747,33; 8831,106;  246,965;57425,113;15,01298
 747,90; 8934,643;  271,272;57588,239;15,11485
 748,47; 8931,026;  271,118;57525,135;15,12542
 749,04; 9019,486;  267,118;57555,492;15,27774
 749,61; 9052,715;  284,426;57566,234;15,30728
 750,17; 9155,560;  287,272;57659,360;15,45750
 750,74; 9120,405;  273,195;57362,794;15,49706
 751,31; 9142,711;  249,811;57369,459;15,56890
 751,88; 9136,709;  226,887;57272,893;15,61866
 752,45; 9237,477;  254,272;57446,634;15,70700
 753,02; 9251,168;  272,657;57291,991;15,74643
 753,58; 9289,166;  244,657;57051,195;15,92160
 754,15; 9326,165;  251,657;57378,090;15,88495
 754,72; 9330,701;  248,964;57092,601;15,97670
 755,29; 9329,469;  224,810;56863,496;16,07498
 755,86; 9398,006;  250,349;57029,546;16,11093
 756,42; 9495,620;  260,195;56920,057;16,29977
 756,99; 9439,080;  226,426;56948,029;16,24188
 757,56; 9459,694;  235,964;56885,002;16,28224
 758,13; 9500,384;  196,349;56812,436;16,43356
 758,70; 9592,614;  226,810;56848,947;16,54089
 759,26; 9629,458;  222,579;56970,227;16,57669
 759,83; 9681,303;  229,810;57070,045;16,62817
 760,40; 9718,840;  212,041;56890,710;16,77315
 760,97; 9744,377;  211,348;56921,606;16,81006
 761,53; 9738,837;  192,195;56504,809;16,95294
 762,10; 9754,604;  191,656;56563,935;16,96392
 762,67; 9830,218;  223,271;56603,061;17,03970
 763,24; 9806,063;  183,810;56051,341;17,22334
 763,80; 9890,292;  223,425;56241,237;17,25677
 764,37; 9881,214;  211,964;56300,748;17,23919
 764,94; 9911,212;  196,656;55696,720;17,50368
 765,50; 9997,134;  204,271;55714,924;17,64141
 766,07;10079,824;  246,733;55810,819;17,69685
 766,64;10052,438;  216,194;55484,253;17,79734
 767,21;10034,898;  214,656;55393,687;17,79705
 767,77;10143,435;  232,656;55221,660;18,02320
 768,34;10130,434;  244,579;55194,170;17,99077
 768,91;10169,124;  245,271;55060,912;18,10405
 769,47;10244,046;  243,348;55117,500;18,22479
 770,04;10231,429;  244,579;54956,088;18,25366
 770,61;10175,350;  223,733;54728,368;18,25830
 771,18;10194,503;  212,271;54628,725;18,34414
 771,74;10294,809;  238,040;54811,467;18,42796
 772,31;10283,884;  245,040;54589,054;18,47277
 772,88;10286,498;  213,425;54299,181;18,62426
 773,44;10299,881;  223,425;54185,999;18,67305
 774,01;10347,341;  236,886;54236,741;18,72311
 774,58;10286,416;  227,655;53946,098;18,72497
 775,14;10370,107;  212,271;54039,532;18,87117
 775,71;10408,490;  223,809;53986,428;18,94380
 776,27;10492,873;  276,578;53841,169;19,07285
 776,84;10569,333;  328,425;53956,142;19,09630
 777,41;10521,716;  240,117;53691,191;19,23553
 777,97;10495,330;  220,886;53428,394;19,31014
 778,54;10599,329;  248,194;53390,290;19,47822
 779,11;10610,789;  270,194;53495,262;19,42805
 779,67;10628,479;  222,117;53410,004;19,56529
 780,24;10703,632;  232,578;53165,592;19,78171
 780,80;10707,784;  250,117;53200,026;19,75011
 781,37;10789,782;  253,270;53104,844;19,93604
 781,94;10744,396;  245,193;52835,740;19,96405
 782,50;10783,933;  242,193;52840,405;20,04201
 783,07;10865,239;  257,424;52875,762;20,15992
 783,63;10904,469;  237,116;52575,350;20,38157
 784,20;10939,467;  265,963;52647,322;20,37653
 784,77;10879,004;  245,809;52351,525;20,40696
 785,33;10915,002;  220,886;52246,036;20,55567
 785,90;10934,462;  240,193;52147,162;20,60276
 786,46;10996,922;  261,732;52029,519;20,73720
 787,03;10963,767;  234,116;51986,569;20,73264
 787,59;11020,612;  236,270;51863,772;20,88875
 788,16;11073,456;  248,962;51771,283;21,00933
 788,73;11049,455;  251,885;51533,102;21,05560
 789,29;11006,915;  234,962;51263,689;21,10958
 789,86;11103,759;  268,962;51160,585;21,28994
 790,42;11020,912;  232,039;51047,942;21,23129
 790,99;11053,141;  244,424;50660,991;21,43882
 791,55;11133,678;  235,193;50632,425;21,62517
 792,12;11174,138;  272,347;50627,167;21,64995
 792,68;11169,213;  240,270;50357,293;21,80685
 793,25;11157,365;  248,270;50088,727;21,88803
 793,81;11202,979;  337,808;49829,546;21,95350
 794,38;11079,593;  217,731;49614,211;21,98914
 794,94;11193,053;  231,962;49474,260;22,25950
 795,51;11164,128;  253,885;49144,463;22,31564
 796,07;11146,819;  242,116;48961,897;22,38250
 796,64;11270,048;  265,808;49067,024;22,54911
 797,20;11181,278;  253,654;48505,073;22,64726
 797,77;11073,045;  215,808;48153,353;22,64871
 798,33;11145,121;  239,962;48140,479;22,76627
 798,90;11159,965;  260,269;47978,913;22,84159
 799,46;11064,579;  236,808;47545,578;22,88745
 800,03;11103,578;  254,423;47523,627;22,95184
 800,59;11119,114;  249,423;47206,292;23,14825
 801,15;11050,805;  257,039;47071,342;23,05656
 801,72;11015,804;  258,577;46631,929;23,19700
 802,28;11030,956;  279,115;46404,979;23,30979
 802,85;10945,570;  239,423;46243,413;23,27221
 803,41;10991,953;  249,346;46031,231;23,46475
 803,98;10906,182;  239,500;45572,511;23,52961
 804,54;10927,565;  244,192;45372,792;23,67318
 805,11;10933,410;  259,423;45161,226;23,77184
 805,67;10953,870;  272,500;45023,967;23,86820
 806,23;10896,484;  254,269;44521,401;24,04089
 806,80;10972,097;  275,192;44444,528;24,21794
 807,36;10985,942;  278,346;44432,346;24,25057
 807,93;10951,017;  288,577;44183,242;24,29097
 808,49;10858,708;  244,269;43786,291;24,37746
 809,05;10826,091;  231,423;43577,648;24,44196
 809,62;10865,551;  268,577;43471,005;24,52865
 810,18;10890,550;  255,730;43466,285;24,61162
 810,74;10857,625;  226,807;43140,412;24,77261
 811,31;10850,393;  230,807;43011,999;24,82302
 811,87;10876,083;  256,115;42790,357;24,96804
 812,44;10944,005;  286,807;42823,867;25,05391
 813,00;10883,850;  201,499;42559,148;25,21941
 813,56;10957,771;  244,115;42621,812;25,28136
 814,13;10952,308;  239,576;42495,708;25,35190
 814,69;10945,383;  239,730;42243,603;25,48730
 815,25;10858,074;  208,115;41902,037;25,54319
 815,82;10967,073;  260,345;41795,087;25,77776
 816,38;10923,610;  295,038;41620,982;25,71888
 816,94;10858,300;  229,576;41280,955;25,89127
 817,51;10886,914;  219,961;41041,081;26,13097
 818,07;10862,913;  230,268;40799,746;26,20848
 818,63;10871,911;  236,884;40584,410;26,35856
 819,20;10881,756;  239,961;40555,537;26,39624
 819,76;10792,139;  228,345;40167,509;26,44971
 820,32;10798,829;  270,191;40100,482;26,43375
 820,89;10826,828;  253,884;39798,685;26,73662
 821,45;10715,365;  228,961;39533,427;26,67993
 822,01;10714,902;  244,961;39248,014;26,84390
 822,57;10720,439;  255,037;39209,295;26,86587
 823,14;10671,745;  212,807;38894,959;27,03815
 823,70;10608,051;  218,422;38650,086;27,03403
 824,26;10609,126;  229,499;38514,673;27,11135
 824,82;10621,279;  259,422;38380,338;27,18155
 825,39;10569,508;  229,037;38013,541;27,36696
 825,95;10658,276;  249,576;38114,745;27,48885
 826,51;10621,120;  242,653;37663,409;27,73452
 827,08;10668,888;  281,191;37770,459;27,70845
 827,64;10613,579;  247,729;37523,277;27,80871
 828,20;10583,192;  230,037;37271,634;27,95008
 828,76;10658,729;  265,652;37345,145;28,02918
 829,32;10664,343;  274,268;37065,579;28,24057
 829,89;10613,419;  208,268;36921,090;28,34201
 830,45;10655,571;  248,037;36847,524;28,43628
 831,01;10676,569;  238,114;36699,112;28,62910
 831,57;10685,568;  239,575;36600,392;28,72871
 832,14;10626,335;  244,268;36474,595;28,65574
 832,70;10675,180;  216,883;36269,337;29,00856
 833,26;10654,025;  201,806;36224,694;29,01549
 833,82;10696,869;  233,421;36114,205;29,16170
 834,38;10680,868;  217,421;36174,101;29,10015
 834,95;10675,097;  218,729;36036,535;29,19321
 835,51;10648,095;  192,498;35837,584;29,33251
 836,07;10761,863;  231,344;35939,172;29,49079
 836,63;10765,477;  247,883;35878,298;29,51858
 837,19;10773,937;  252,806;35736,886;29,65029
 837,75;10702,397;  200,652;35462,012;29,78259
 838,32;10810,318;  258,113;35601,369;29,85635
 838,88;10853,701;  256,037;35604,495;29,98056
 839,44;10914,084;  248,806;35466,314;30,28402
 840,00;10893,621;  251,113;35435,440;30,24787
 840,56;10843,235;  226,190;35080,797;30,46095
 841,12;10883,080;  222,652;35015,385;30,63981
 841,68;10804,694;  209,806;34833,896;30,59976
 842,25;10891,615;  228,729;34901,484;30,75293
 842,81;10824,460;  211,344;34620,072;30,84426
 843,37;10862,227;  201,421;34701,506;30,90081
 843,93;10888,995;  220,729;34458,478;31,15937
 844,49;10896,147;  238,267;34559,143;31,05364
 845,05;10877,454;  202,190;34365,500;31,24774
 845,61;10940,914;  245,036;34503,857;31,22080
 846,17;10963,374;  221,498;34338,214;31,48567
 846,73;10940,757;  232,575;34276,264;31,45424
 847,29;10939,447;  211,882;34110,851;31,64570
 847,86;10937,369;  216,805;33952,055;31,77852
 848,42;10976,137;  219,190;33779,566;32,05252
 848,98;10985,135;  236,267;33691,307;32,12929
 849,54;10919,441;  214,190;33850,203;31,82675
 850,10;10898,978;  242,728;33689,714;31,86012
 850,66;10969,823;  210,574;33424,686;32,39361
 851,22;10923,744;  199,574;33423,812;32,27815
 851,78;11069,743;  256,959;33446,939;32,57846
 852,34;11036,972;  240,728;33199,757;32,75656
 852,90;10965,740;  224,805;33124,268;32,64775
 853,46;10988,353;  218,805;32893,779;32,95962
 854,02;10987,583;  234,113;32900,213;32,91936
 854,58;10996,966;  218,113;32651,801;33,23351
 855,14;10985,426;  224,113;32503,927;33,33759
 855,70;10945,193;  186,728;32436,823;33,35948
 856,26;10945,423;  225,728;32374,795;33,34372
 856,82;10922,575;  230,805;32171,306;33,47402
 857,38;10934,958;  268,189;32077,740;33,53323
 857,94;10857,110;  221,420;31949,559;33,52132
 858,50;10839,109;  250,035;31825,531;33,53573
 859,06;10832,646;  217,959;31667,196;33,75181
 859,62;10833,644;  238,420;31613,399;33,76966
 860,18;10785,950;  231,189;31378,064;33,88706
 860,74;10752,487;  191,266;31234,882;34,02059
 861,30;10673,947;  193,497;31190,163;33,81154
 861,86;10785,023;  286,805;31166,597;33,99705
 862,42;10703,559;  218,497;30958,415;34,10895
 862,98;10733,481;  251,881;30923,618;34,17348
 863,54;10743,018;  221,574;30667,822;34,55744
 864,10;10844,632;  221,958;30784,179;34,75753
 864,66;10652,169;  201,112;30474,613;34,52213
 865,22;10670,475;  225,420;30385,508;34,63204
 865,78;10638,396;  237,112;30299,865;34,59858
 866,34;10598,010;  208,958;30246,992;34,58633
 866,90;10584,239;  232,112;30103,272;34,65593
 867,45;10576,776;  233,958;29852,475;34,92011
 868,01;10586,775;  236,343;29685,986;35,14621
 868,57;10520,927;  229,650;29551,727;35,09737
 869,13;10519,387;  201,650;29420,085;35,31242
 869,69;10481,924;  217,189;29280,826;35,31814
 870,25;10434,384;  191,112;29178,491;35,33701
 870,81;10467,152;  218,342;29103,156;35,48165
 871,37;10469,458;  240,112;28996,359;35,57260
 871,93;10460,841;  247,189;28885,178;35,66470
 872,49;10376,455;  273,804;28570,919;35,70205
 873,04;10287,684;  203,958;28394,045;35,77047
 873,60;10258,682;  206,188;28346,941;35,72219
 874,16;10249,835;  237,650;28232,375;35,76454
 874,72;10236,296;  217,727;28196,144;35,80821
 875,28;10245,681;  229,958;28072,067;35,97329
 875,84;10218,450;  224,804;27981,837;36,00401
 876,40;10257,065;  216,727;27949,144;36,20434
 876,95;10236,988;  229,265;27904,990;36,16065
 877,51;10296,988;  263,265;27900,606;36,30495
 878,07;10304,373;  266,265;27896,606;36,33002
 878,63;10339,681;  220,342;27927,913;36,52193
 879,19;10352,988;  243,342;27907,606;36,54406
 879,75;10422,373;  222,419;27940,606;36,79878
 880,30;10446,758;  215,112;27936,990;36,90820
 880,86;10573,758;  263,727;28103,990;37,03281
 881,42;10567,527;  203,881;28077,298;37,18111
 881,98;10617,450;  237,188;28188,221;37,13731
 882,54;10633,912;  221,804;28279,067;37,11020
 883,09;10764,373;  239,342;28396,452;37,37966
 883,65;10775,219;  213,419;28461,221;37,38981
 884,21;10924,296;  267,804;28696,221;37,48535
 884,77;10946,681;  219,958;28725,298;37,63057
 885,32;11070,681;  222,342;28812,298;37,94458
 885,88;11228,296;  270,265;29006,837;38,13270
 886,44;11263,065;  228,342;29103,760;38,21494
 887,00;11324,065;  249,650;29041,913;38,46316
 887,56;11404,988;  223,650;29237,067;38,53851
 888,11;11402,835;  237,804;29266,298;38,46231
 888,67;11509,142;  250,265;29413,375;38,60657
 889,23;11607,681;  233,188;29495,913;38,87024
 889,79;11512,142;  210,958;29259,760;38,90413
 890,34;11542,142;  237,112;29289,837;38,91212
 890,90;11690,912;  312,342;29409,760;39,10508
 891,46;11656,373;  218,881;29309,990;39,31611
 892,01;11652,373;  244,035;29297,144;39,26719
 892,57;11681,912;  262,496;29222,990;39,43101
 893,13;11593,604;  246,573;29041,221;39,40674
 893,69;11578,758;  212,419;29061,990;39,39864
 894,24;11648,142;  226,727;28902,221;39,82988
 894,80;11574,219;  221,804;28724,067;39,82987
 895,36;11603,065;  233,804;28604,144;40,07446
 895,91;11497,373;  230,881;28422,452;39,96405
 896,47;11586,450;  250,188;28324,298;40,37977
 897,03;11470,681;  230,342;28097,067;40,33606
 897,58;11404,912;  239,112;27986,529;40,24086
 898,14;11421,142;  238,958;27858,683;40,48623
 898,70;11298,758;  204,727;27646,683;40,42726
 899,25;11366,835;  220,112;27692,913;40,57367
 899,81;11356,296;  243,573;27417,221;40,89522
 900,37;11249,219;  201,496;27214,144;40,89833
 900,92;11321,604;  236,958;27294,298;40,96724
 901,48;11273,219;  221,573;27185,221;40,98721
 902,03;11196,758;  232,727;26943,375;41,04742
 902,59;11109,835;  214,881;26881,298;40,85646
 903,15;11136,065;  237,188;26732,067;41,13579
 903,70;11055,065;  229,650;26462,144;41,26720
 904,26;11062,142;  216,342;26371,837;41,46662
 904,82;11112,296;  218,496;26383,760;41,63459
 905,37;11065,912;  236,804;26159,606;41,77445
 905,93;10992,450;  216,112;26090,452;41,64875
 906,48;11069,219;  240,419;26039,452;41,97367
 907,04;11003,450;  242,342;25951,221;41,85755
 907,60;10969,604;  236,188;25645,452;42,24214
 908,15;10881,142;  218,035;25557,221;42,08149
 908,71;10896,296;  243,804;25510,452;42,16029
 909,26;10803,219;  234,419;25440,837;41,92901
 909,82;10845,296;  237,035;25346,913;42,24736
 910,37;10872,450;  264,958;25194,298;42,55023
 910,93;10738,758;  211,958;24943,529;42,56422
 911,48;10713,373;  219,188;24847,837;42,60967
 912,04;10663,835;  215,265;24681,529;42,70603
 912,60;10757,604;  221,573;24733,375;42,98350
 913,15;10593,604;  221,804;24549,298;42,63407
 913,71;10545,604;  212,650;24407,144;42,70787
 914,26;10570,988;  205,112;24294,221;43,03138
 914,82;10599,065;  234,881;24241,529;43,17214
 915,37;10508,604;  218,573;24162,606;42,97535
 915,93;10583,296;  275,573;23994,375;43,45803
 916,48;10505,758;  218,112;23872,760;43,49101
 917,04;10474,604;  238,112;23744,067;43,54850
 917,59;10490,758;  254,881;23735,375;43,59311
 918,15;10360,835;  187,188;23463,606;43,70796
 918,70;10355,450;  220,881;23407,452;43,70879
 919,26;10425,758;  227,881;23336,760;44,12969
 919,81;10331,373;  204,419;23087,067;44,25604
 920,37;10333,527;  220,419;23111,067;44,18008
 920,92;10376,758;  242,727;23051,606;44,43020
 921,48;10260,912;  210,112;22784,990;44,52206
 922,03;10290,835;  207,804;22802,375;44,62590
 922,59;10274,219;  227,650;22563,760;44,97905
 923,14;10216,988;  218,804;22489,529;44,89384
 923,69;10197,065;  242,035;22474,375;44,77725
 924,25;10174,373;  244,650;22413,606;44,79112
 924,80;10054,912;  223,804;22212,529;44,70977
 925,36; 9989,681;  219,881;22110,760;44,62955
 925,91;10020,604;  211,573;21957,221;45,10802
 926,47; 9933,912;  209,881;21860,298;44,91383
 927,02; 9971,681;  302,035;21856,913;44,86059
 927,57; 9857,835;  217,188;21696,760;44,88286
 928,13; 9855,604;  210,188;21592,990;45,10829
 928,68; 9847,527;  220,035;21514,375;45,21151
 929,24; 9802,219;  191,727;21244,298;45,64997
 929,79; 9736,758;  214,112;21192,606;45,39242
 930,34; 9745,912;  225,419;21055,375;45,70577
 930,90; 9636,142;  213,727;20958,067;45,42162
 931,45; 9667,065;  221,342;20992,683;45,47479
 932,01; 9689,988;  223,265;20861,683;45,86942
 932,56; 9662,142;  248,035;20724,606;45,97502
 933,11; 9613,835;  251,958;20727,529;45,72218
 933,67; 9549,912;  220,496;20524,913;45,94771
 934,22; 9569,527;  233,881;20393,375;46,30893
 934,77; 9567,527;  252,804;20296,067;46,47309
 935,33; 9484,758;  221,342;20167,221;46,44275
 935,88; 9516,912;  239,650;20108,990;46,69134
 936,43; 9494,681;  217,342;20009,452;46,87392
 936,99; 9456,296;  225,804;19949,529;46,79893
 937,54; 9317,912;  211,881;19729,375;46,65574
 938,09; 9426,604;  230,496;19758,913;47,09090
 938,65; 9366,604;  232,727;19549,837;47,28387
 939,20; 9359,142;  199,573;19499,298;47,45958
 939,75; 9312,835;  213,188;19381,452;47,47246
 940,31; 9236,988;  200,958;19279,221;47,36296
 940,86; 9292,527;  221,727;19287,683;47,57590
 941,41; 9351,988;  315,342;19231,760;47,77145
 941,96; 9275,988;  216,112;19048,452;48,10808
 942,52; 9167,219;  216,650;18962,144;47,74784
 943,07; 9168,450;  199,881;18841,221;48,11118
 943,62; 9174,373;  216,958;18721,683;48,40610
 944,18; 9111,527;  193,419;18682,837;48,23358
 944,73; 9145,450;  220,342;18634,760;48,46804
 945,28; 9006,219;  179,419;18410,452;48,41635
 945,83; 9032,604;  207,727;18356,067;48,62636
 946,39; 9005,296;  213,265;18309,452;48,58499
 946,94; 8977,142;  237,958;18258,144;48,49664
 947,49; 8924,450;  207,804;18111,606;48,68601
 948,04; 8976,835;  261,342;18148,913;48,72373
 948,59; 8915,681;  240,727;17995,606;48,85955
 949,15; 8890,681;  202,650;17898,067;49,09763
 949,70; 8882,296;  214,881;17852,913;49,14049
 950,25; 8832,450;  224,727;17730,452;49,17090
 950,80; 8742,988;  183,112;17598,375;49,15158
 951,36; 8666,065;  181,881;17631,683;48,62052
 951,91; 8787,527;  224,881;17571,375;49,36240
 952,46; 8673,065;  210,573;17321,144;49,45768
 953,01; 8700,373;  229,573;17340,913;49,50401
 953,56; 8585,219;  190,188;17219,760;49,29678
 954,11; 8589,988;  224,419;17161,606;49,39173
 954,67; 8536,296;  209,419;17025,760;49,51658
 955,22; 8475,142;  197,035;16903,067;49,55161
 955,77; 8467,988;  240,419;16948,067;49,24433
 956,32; 8461,758;  276,804;16835,683;49,42940
 956,87; 8436,296;  204,342;16721,144;49,83988
 957,42; 8427,296;  211,265;16624,990;50,05586
 957,98; 8421,758;  211,112;16500,837;50,40384
 958,53; 8386,988;  245,112;16541,990;49,95973
 959,08; 8313,296;  195,958;16369,144;50,19010
 959,63; 8313,758;  218,419;16277,298;50,41036
 960,18; 8298,065;  225,958;16233,375;50,42730
 960,73; 8269,988;  220,496;16162,913;50,49104
 961,28; 8220,758;  192,419;16069,144;50,56672
 961,83; 8285,835;  221,419;16084,990;50,83607
 962,39; 8213,296;  191,881;15888,298;51,10348
 962,94; 8195,142;  244,035;15752,683;51,26886
 963,49; 8077,065;  225,650;15728,683;50,64438
 964,04; 8127,296;  225,881;15720,221;50,99549
 964,59; 8041,373;  182,112;15514,375;51,25963
 965,14; 8087,604;  236,342;15509,913;51,40423
 965,69; 8034,988;  217,804;15353,837;51,64619
 966,24; 7971,912;  202,496;15263,606;51,58594
 966,79; 7926,758;  226,035;15219,375;51,36096
 967,34; 7871,835;  188,112;15061,067;51,66238
 967,89; 7886,219;  205,112;15009,606;51,88362
 968,44; 7847,835;  218,650;14912,298;51,92165
 968,99; 7793,527;  225,650;14862,452;51,70444
 969,55; 7764,758;  219,958;14754,529;51,90934
 970,10; 7752,373;  231,112;14645,529;52,17874
 970,65; 7685,373;  244,650;14603,529;51,81967
 971,20; 7641,450;  209,650;14477,452;52,08791
 971,75; 7517,142;  190,727;14310,221;51,88865
 972,30; 7480,988;  219,496;14272,067;51,67376
 972,85; 7497,988;  213,650;14228,144;51,97718
 973,40; 7426,296;  207,881;14061,606;52,10451
 973,95; 7406,142;  223,496;14010,298;52,09799
 974,50; 7371,527;  256,035;13902,529;52,14154
 975,05; 7301,681;  218,265;13838,837;52,00527
 975,60; 7301,142;  232,265;13767,144;52,22712
 976,15; 7252,681;  203,265;13668,144;52,35409
 976,70; 7243,219;  218,573;13569,913;52,61379
 977,25; 7195,373;  231,188;13530,221;52,36610
 977,80; 7141,450;  212,419;13381,683;52,61517
 978,35; 7072,604;  236,727;13185,606;52,79126
 978,89; 7060,912;  197,112;13128,760;53,07753
 979,44; 7064,296;  227,265;13108,375;53,07796
 979,99; 6934,835;  213,573;12933,606;52,83997
 980,54; 6904,065;  236,342;12832,990;52,93252
 981,09; 6875,758;  237,265;12713,760;53,20799
 981,64; 6780,912;  219,035;12605,913;52,97442
 982,19; 6790,758;  259,112;12582,067;53,00389
 982,74; 6710,988;  235,188;12442,683;53,04774
 983,29; 6640,912;  205,573;12301,606;53,20206
 983,84; 6592,373;  217,342;12210,452;53,15578
 984,39; 6636,912;  310,727;12187,837;53,26367
 984,94; 6533,065;  189,573;12031,529;53,56794
 985,49; 6496,604;  245,188;11977,760;53,28257
 986,03; 6510,142;  238,804;11891,221;53,82006
 986,58; 6449,758;  274,265;11750,606;53,81064
 987,13; 6361,296;  230,573;11627,452;53,79300
 987,68; 6366,450;  235,419;11578,913;54,04887
 988,23; 6283,988;  237,265;11425,837;54,04375
 988,78; 6200,988;  208,958;11294,375;54,05327
 989,33; 6216,604;  233,727;11213,760;54,48870
 989,88; 6171,296;  257,035;11183,760;54,12657
 990,42; 6060,835;  215,265;11048,375;53,96021
 990,97; 5962,219;  226,419;10869,990;53,88981
 991,52; 6017,065;  247,496;10839,375;54,47163
 992,07; 5930,296;  267,342;10761,760;53,96158
 992,62; 5912,604;  230,804;10614,913;54,71629
 993,17; 5853,835;  241,727;10543,298;54,47817
 993,71; 5804,142;  248,112;10428,990;54,57319
 994,26; 5696,296;  221,112;10257,144;54,55527
 994,81; 5700,681;  246,881;10238,529;54,58359
 995,36; 5629,758;  223,035;10079,144;54,85656
 995,91; 5613,065;  238,727;10039,837;54,83398
 996,45; 5556,296;  222,188; 9938,298;54,89962
 997,00; 5496,373;  200,496; 9753,837;55,43482
 997,55; 5445,219;  236,342; 9709,067;54,98816
 998,10; 5397,912;  261,188; 9612,375;54,93124
 998,65; 5348,450;  229,496; 9535,760;55,00547
 999,19; 5322,450;  252,650; 9417,606;55,31723
 999,74; 5236,681;  273,573; 9292,683;55,02880
1000,29; 5225,681;  232,881; 9223,606;55,53279
1000,84; 5131,450;  220,265; 9081,606;55,42259
1001,38; 5099,450;  228,342; 9033,529;55,32089
1001,93; 5068,758;  245,035; 8918,144;55,61700
1002,48; 4931,912;  218,804; 8759,144;55,18642
1003,03; 4964,604;  249,035; 8755,221;55,43694
1003,57; 4860,450;  239,727; 8630,144;55,07143
1004,12; 4878,142;  281,958; 8567,144;55,47473
1004,67; 4815,065;  232,881; 8431,760;55,88794
1005,22; 4750,681;  224,727; 8295,529;56,07812
1005,76; 4645,604;  211,112; 8157,144;55,80763
1006,31; 4643,912;  244,650; 8153,221;55,62650
1006,86; 4562,758;  221,804; 7995,606;55,84081
1007,40; 4476,296;  224,342; 7862,067;55,67042
1007,95; 4459,758;  233,342; 7785,067;55,96622
1008,50; 4378,450;  242,727; 7646,144;55,86235
1009,04; 4343,450;  231,496; 7607,221;55,74983
1009,59; 4280,219;  244,265; 7390,837;56,47399
1010,14; 4206,142;  221,958; 7335,683;56,00701
1010,68; 4190,450;  247,035; 7225,375;56,50936
1011,23; 4088,373;  238,650; 7128,298;55,87692
1011,78; 4046,527;  241,804; 7045,298;55,92307
1012,32; 4025,758;  273,112; 7006,067;55,73549
1012,87; 3987,373;  259,496; 6934,683;55,84678
1013,42; 3900,219;  214,035; 6801,067;55,96123
1013,96; 3950,527;  269,112; 6798,606;56,38133
1014,51; 3862,988;  200,573; 6707,760;56,28262
1015,06; 3890,450;  213,650; 6650,529;57,12085
1015,60; 3936,065;  269,035; 6763,760;56,46168
1016,15; 3869,065;  212,265; 6685,144;56,49418
1016,69; 3902,681;  227,727; 6729,683;56,52075
1017,24; 3909,219;  209,496; 6737,760;56,67239
1017,79; 3978,450;  268,727; 6799,298;56,80549
1018,33; 3983,681;  224,419; 6773,837;57,39841
1018,88; 4051,065;  241,573; 6855,067;57,60181
1019,42; 4029,219;  221,573; 6823,298;57,67653
1019,97; 3985,296;  212,573; 6828,067;57,02859
1020,51; 4083,142;  264,496; 6893,221;57,60755
1021,06; 3998,604;  203,035; 6810,144;57,44674
1021,61; 4009,758;  194,188; 6830,760;57,49308
1022,15; 4022,373;  176,342; 6789,913;58,15362
1022,70; 4033,373;  225,881; 6764,837;58,22783
1023,24; 3962,988;  206,419; 6717,067;57,69885
1023,79; 3997,988;  222,342; 6647,529;58,76321
1024,33; 3914,296;  219,496; 6598,606;57,92031
1024,88; 3874,296;  229,958; 6522,452;57,91564
1025,42; 3847,450;  234,881; 6438,144;58,23659
1025,97; 3771,142;  217,265; 6336,298;58,07906
1026,51; 3706,142;  183,419; 6218,683;58,36900
1027,06; 3643,527;  210,112; 6161,837;57,68774
1027,60; 3605,450;  229,342; 6089,375;57,61244
1028,15; 3584,912;  242,188; 5973,144;58,32750
1028,69; 3475,219;  180,881; 5842,144;58,19087
1029,24; 3490,604;  202,804; 5803,452;58,70392
1029,78; 3388,835;  211,573; 5682,375;58,07671
1030,33; 3350,142;  203,035; 5578,067;58,55048
1030,87; 3319,758;  218,112; 5510,913;58,60121
1031,42; 3256,373;  198,265; 5445,760;58,27749
1031,96; 3227,065;  237,881; 5380,760;58,12279
1032,51; 3173,373;  210,958; 5291,298;58,31136
1033,05; 3145,450;  225,342; 5215,683;58,51520
1033,60; 3069,142;  192,727; 5095,683;58,66697
1034,14; 3044,988;  204,496; 5053,683;58,57668
1034,69; 3009,912;  216,881; 4969,221;58,77169
1035,23; 2999,912;  217,958; 4896,683;59,45966
1035,77; 2947,988;  220,958; 4843,221;58,99774
1036,32; 2865,296;  185,958; 4749,067;58,71738
1036,86; 2885,219;  224,804; 4717,606;59,21506
1037,41; 2832,912;  239,496; 4641,298;58,91713
1037,95; 2762,296;  194,265; 4572,529;58,65409
1038,50; 2756,065;  209,650; 4526,913;58,98216
1039,04; 2733,681;  226,188; 4475,760;59,00577
1039,58; 2664,373;  196,112; 4386,067;58,90901
1040,13; 2609,142;  209,727; 4335,144;58,16176
1040,67; 2635,604;  253,419; 4329,606;58,44150
1041,21; 2605,373;  249,496; 4212,606;59,44516
1041,76; 2485,988;  205,112; 4137,913;57,99623
1042,30; 2490,373;  212,188; 4111,067;58,43179
1042,85; 2465,527;  210,265; 4038,298;58,91438
1043,39; 2428,065;  204,881; 3958,221;59,23216
1043,93; 2425,450;  236,419; 3959,990;58,78848
1044,48; 2380,604;  227,958; 3868,298;59,13310
1045,02; 2345,604;  208,650; 3796,298;59,56420
1045,56; 2349,681;  242,881; 3765,144;59,81381
1046,11; 2299,835;  216,958; 3727,683;59,32897
1046,65; 2267,450;  229,727; 3693,760;58,82517
1047,19; 2224,681;  204,958; 3608,760;59,33727
1047,74; 2184,142;  188,496; 3572,529;58,97243
1048,28; 2185,604;  218,650; 3489,144;60,14240
1048,82; 2192,604;  250,727; 3482,067;60,09509
1049,37; 2155,142;  238,573; 3426,452;60,12052
1049,91; 2132,912;  229,112; 3396,298;60,11013
1050,45; 2090,758;  231,035; 3336,760;59,88048
1050,99; 2064,373;  227,342; 3293,606;59,91105
1051,54; 2017,219;  205,727; 3239,606;59,70879
1052,08; 2010,835;  238,727; 3191,375;60,01757
1052,62; 1985,681;  232,188; 3154,990;59,99354
1053,16; 1925,065;  219,112; 3093,837;59,34320
1053,71; 1911,219;  228,035; 3072,683;59,17022
1054,25; 1901,296;  230,035; 2999,990;60,33531
1054,79; 1894,219;  228,035; 2992,221;60,27758
1055,33; 1821,681;  196,573; 2899,913;60,11480
1055,88; 1815,604;  219,804; 2909,606;59,32779
1056,42; 1816,065;  240,188; 2868,837;59,95009
1056,96; 1792,065;  241,804; 2811,067;60,33875
1057,50; 1753,681;  228,496; 2782,606;59,71492
1058,05; 1727,912;  220,727; 2720,990;60,28103
1058,59; 1740,065;  255,112; 2713,067;60,41418
1059,13; 1651,835;  203,958; 2657,837;59,00360
1059,67; 1666,527;  233,419; 2638,298;59,59168
1060,21; 1641,758;  232,804; 2584,375;59,91542
1060,76; 1629,835;  231,496; 2549,221;60,33237
1061,30; 1627,681;  243,650; 2509,221;61,08971
1061,84; 1572,142;  232,804; 2471,529;59,82595
1062,38; 1548,065;  206,650; 2390,452;61,42569
1062,92; 1564,373;  275,727; 2431,221;59,78425
1063,46; 1526,835;  240,804; 2367,529;60,47001
1064,01; 1483,373;  219,112; 2318,375;60,22405
1064,55; 1469,373;  234,265; 2290,837;60,05665
1065,09; 1446,988;  212,804; 2254,913;60,43675
1065,63; 1480,296;  258,727; 2261,990;60,97896
1066,17; 1461,065;  275,573; 2229,990;60,65707
1066,71; 1440,142;  261,573; 2204,913;60,64657
1067,25; 1416,065;  226,419; 2139,452;62,18640
1067,80; 1406,065;  245,804; 2142,452;61,17432
1068,34; 1401,604;  274,342; 2126,221;60,87124
1068,88; 1353,065;  226,958; 2069,837;61,10590
1069,42; 1371,065;  252,881; 2093,683;60,74443
1069,96; 1352,065;  227,804; 2022,990;62,62645
1070,50; 1348,681;  269,650; 2030,375;61,28332
1071,04; 1298,527;  224,573; 1976,375;61,30567
1071,58; 1288,681;  224,573; 1945,837;61,82131
1072,12; 1306,527;  231,265; 1955,529;62,36063
1072,66; 1275,450;  225,727; 1906,837;62,44227
1073,21; 1283,835;  251,342; 1913,606;62,11364
1073,75; 1243,219;  237,727; 1859,221;62,01023
1074,29; 1208,758;  236,881; 1834,221;60,84345
1074,83; 1218,142;  252,727; 1831,606;61,14563
1075,37; 1218,758;  259,419; 1789,298;62,70683
1075,91; 1205,219;  249,112; 1781,529;62,39212
1076,45; 1198,604;  250,727; 1764,452;62,61883
1076,99; 1181,604;  249,573; 1732,375;62,85605
1077,53; 1149,912;  226,419; 1698,760;62,72275
1078,07; 1156,065;  242,727; 1700,144;62,66829
1078,61; 1130,758;  244,188; 1684,529;61,55276
1079,15; 1125,988;  236,035; 1652,298;62,83816
1079,69; 1126,912;  236,727; 1634,221;63,69863
1080,23; 1138,296;  271,727; 1651,837;62,78988
1080,77; 1140,450;  303,188; 1674,452;61,05767
1081,31; 1076,296;  230,650; 1580,067;62,66750
1081,85; 1072,527;  259,804; 1603,760;60,47246
1082,39; 1057,219;  236,419; 1540,913;62,92094
1082,93; 1073,065;  249,573; 1540,606;63,78555
1083,47; 1005,450;  234,035; 1491,529;61,34544
1084,01; 1035,912;  245,342; 1497,375;63,14286
1084,55; 1014,065;  235,342; 1470,375;63,05283
1085,09; 1019,681;  249,265; 1468,760;63,17499
1085,63;  993,527;  242,804; 1445,298;62,43049
1086,17;  979,527;  240,419; 1409,144;63,24051
1086,71;  974,373;  219,573; 1393,913;64,27438
1087,24; 1005,758;  258,958; 1399,529;65,47597
1087,78;  987,758;  266,727; 1404,606;63,36622
1088,32;  944,373;  223,881; 1352,606;63,83240
1088,86;  958,912;  252,804; 1361,298;63,69972
1089,40;  937,065;  242,112; 1338,683;63,37517
1089,94;  898,142;  218,804; 1302,529;62,68550
1090,48;  921,988;  240,650; 1276,221;65,79350
1091,02;  918,142;  256,727; 1300,990;63,33798
1091,56;  889,988;  235,573; 1257,067;64,06452
1092,10;  859,296;  212,496; 1237,837;63,08149
1092,63;  899,912;  262,881; 1258,990;63,95187
1093,17;  876,681;  239,650; 1245,298;63,34530
1093,71;  839,065;  229,496; 1209,683;62,18910
1094,25;  859,450;  269,573; 1226,683;61,63107
1094,79;  837,142;  236,188; 1192,760;62,82375
1095,33;  844,065;  243,958; 1179,529;64,14346
1095,87;  825,065;  233,573; 1156,067;64,11881
1096,40;  793,527;  216,573; 1132,913;62,96283
1096,94;  817,681;  244,958; 1138,683;64,08270
1097,48;  810,296;  255,958; 1142,760;62,50984
1098,02;  774,604;  232,958; 1094,529;62,86726
1098,56;  744,296;  217,419; 1069,067;61,86557
1099,10;  744,296;  221,573; 1062,144;62,18665
1099,63;  736,604;  212,958; 1043,837;63,02317
1100,17;  753,296;  240,496; 1067,529;62,00480
1100,71;  780,758;  271,727; 1064,913;64,17542

