
Integration time [ms]: 160,000
Averaging Nr. [scans]: 13
Smoothing Nr. [pixels]: 0
Data measured with spectrometer [name]: 2009305U1
Wave   ;Sample   ;Dark     ;Reference;Reflectance
[nm]   ;[counts] ;[counts] ;[counts] ;[%]

 175,72;  200,010;  211,495;  220,903;-122,07663
 176,32;  244,234;  239,266;  234,681; 0,00000
 176,92;  271,830;  272,880;  278,464;-18,81039
 177,52;  268,006;  261,034;  277,765;41,66863
 178,12;  249,621;  246,728;  239,441; 0,00000
 178,72;  281,128;  280,728;  259,868; 0,00000
 179,32;  267,227;  264,958;  256,710; 0,00000
 179,92;  264,412;  263,342;  268,977;18,97789
 180,52;  252,484;  259,879;  273,789;-53,16464
 181,12;  271,710;  277,881;  256,017; 0,00000
 181,73;  293,967;  280,188;  289,375;149,99392
 182,33;  399,835;  394,264;  386,146; 0,00000
 182,93;  280,361;  288,188;  294,880;-116,95472
 183,53;  253,280;  249,497;  239,413; 0,00000
 184,13;  244,030;  254,420;  244,570; 0,00000
 184,73;  295,174;  298,267;  300,295;-152,48671
 185,33;  275,274;  255,507;  366,926;17,74168
 185,93;  271,635;  249,508;  376,315;17,44936
 186,53;  287,966;  254,199;  407,611;22,01076
 187,13;  308,414;  292,198;  434,377;11,40497
 187,73;  281,767;  255,584;  389,711;19,52072
 188,33;  281,329;  254,739;  382,838;20,75782
 188,93;  304,906;  262,972;  407,196;29,07594
 189,53;  297,880;  261,127;  411,282;24,47656
 190,13;  322,430;  301,206;  452,201;14,05593
 190,73;  262,827;  234,974;  381,637;18,99109
 191,34;  301,757;  263,511;  421,861;24,15300
 191,94;  281,904;  251,278;  383,915;23,08993
 192,54;  282,827;  269,043;  407,504; 9,95494
 193,14;  305,878;  277,121;  406,597;22,20981
 193,74;  292,904;  274,891;  414,642;12,88948
 194,34;  290,007;  267,429;  394,312;17,79483
 194,94;  263,003;  239,352;  369,250;18,20691
 195,54;  254,115;  219,506;  349,176;26,69011
 196,14;  265,200;  240,967;  384,854;16,84153
 196,74;  260,601;  243,045;  363,077;14,62605
 197,34;  238,796;  217,889;  356,094;15,12723
 197,94;  266,149;  241,044;  380,589;17,99060
 198,54;  276,885;  257,890;  399,498;13,41362
 199,14;  253,029;  218,351;  403,167;18,76384
 199,74;  227,519;  212,427;  383,975; 8,79762
 200,34;  239,260;  212,273;  393,938;14,85509
 200,94;  267,935;  243,813;  436,072;12,54693
 201,54;  249,301;  229,351;  435,693; 9,66842
 202,14;  290,378;  262,812;  492,471;12,00303
 202,74;  260,056;  226,658;  463,599;14,09522
 203,34;  229,971;  200,965;  486,334;10,16459
 203,94;  206,753;  175,581;  465,511;10,75155
 204,54;  277,041;  254,583;  559,330; 7,36949
 205,14;  250,868;  204,274;  563,349;12,97622
 205,74;  292,760;  259,503;  662,948; 8,24313
 206,34;  248,495;  213,350;  676,769; 7,58394
 206,94;  261,803;  221,966;  723,536; 7,94257
 207,54;  220,570;  191,965;  735,008; 5,26744
 208,14;  241,611;  211,042;  834,001; 4,90700
 208,74;  259,866;  225,581;  894,589; 5,12465
 209,34;  257,130;  210,966;  953,918; 6,21363
 209,94;  270,219;  224,350; 1042,023; 5,60965
 210,54;  267,926;  208,581; 1146,590; 6,32672
 211,14;  274,700;  220,581; 1233,561; 5,34251
 211,73;  277,409;  230,120; 1354,567; 4,20552
 212,33;  287,368;  232,966; 1441,495; 4,50147
 212,93;  277,346;  217,889; 1521,973; 4,55932
 213,53;  254,894;  183,197; 1578,704; 5,13776
 214,13;  291,729;  221,041; 1675,848; 4,85887
 214,73;  265,070;  199,119; 1679,856; 4,45391
 215,33;  267,834;  186,735; 1701,869; 5,35262
 215,93;  306,611;  212,427; 1819,005; 5,86242
 216,53;  261,666;  179,043; 1865,616; 4,89888
 217,13;  330,486;  222,504; 2071,888; 5,83882
 217,73;  316,899;  203,042; 2248,929; 5,56519
 218,33;  276,455;  171,964; 2388,716; 4,71367
 218,93;  322,705;  214,117; 2693,654; 4,37935
 219,53;  343,484;  203,734; 2934,601; 5,11742
 220,13;  329,431;  169,272; 3204,123; 5,27732
 220,73;  373,738;  193,427; 3549,946; 5,37196
 221,32;  398,173;  193,120; 3911,204; 5,51503
 221,92;  427,952;  212,426; 4258,343; 5,32701
 222,52;  428,825;  180,426; 4647,766; 5,56032
 223,12;  451,219;  191,965; 5076,883; 5,30724
 223,72;  487,248;  205,503; 5445,460; 5,37685
 224,32;  504,195;  200,734; 5797,980; 5,42161
 224,92;  520,565;  186,734; 6133,730; 5,61344
 225,52;  574,601;  211,043; 6466,344; 5,81201
 226,12;  578,373;  191,657; 6804,032; 5,84836
 226,72;  576,495;  166,965; 7141,233; 5,87202
 227,31;  588,096;  169,965; 7450,059; 5,74349
 227,91;  670,450;  205,889; 7848,563; 6,07851
 228,51;  678,080;  188,966; 8248,958; 6,06841
 229,11;  722,032;  193,888; 8638,165; 6,25445
 229,71;  749,919;  189,351; 8929,915; 6,41341
 230,31;  779,897;  169,349; 9275,714; 6,70463
 230,91;  804,534;  172,813; 9541,290; 6,74305
 231,51;  858,731;  175,273; 9866,910; 7,05204
 232,10;  910,931;  180,887;10214,043; 7,27631
 232,70;  959,930;  196,275;10365,850; 7,50922
 233,30; 1023,601;  220,888;10585,581; 7,74469
 233,90; 1025,048;  181,657;10679,870; 8,03366
 234,50; 1059,339;  199,427;10768,861; 8,13584
 235,10; 1076,488;  191,503;10873,807; 8,28459
 235,70; 1147,798;  210,735;10830,553; 8,82372
 236,29; 1186,801;  200,120;10712,540; 9,38586
 236,89; 1174,565;  185,582;10549,474; 9,54258
 237,49; 1209,520;  209,273;10449,368; 9,76794
 238,09; 1217,419;  189,273;10173,846;10,29734
 238,69; 1277,844;  244,352; 9879,585;10,72618
 239,29; 1235,736;  192,966; 9618,806;11,06289
 239,89; 1237,656;  199,813; 9276,493;11,43418
 240,48; 1228,327;  183,735; 8770,288;12,16545
 241,08; 1214,558;  197,966; 8459,440;12,30522
 241,68; 1237,791;  200,504; 8144,664;13,05723
 242,28; 1211,522;  182,734; 7805,359;13,49650
 242,88; 1225,065;  221,503; 7526,887;13,73730
 243,48; 1219,337;  225,350; 7209,637;14,23176
 244,07; 1181,897;  206,196; 6967,006;14,43171
 244,67; 1211,438;  209,658; 6874,848;15,03003
 245,27; 1202,178;  203,582; 6645,336;15,50193
 245,87; 1209,767;  219,349; 6643,001;15,41830
 246,47; 1218,039;  208,735; 6568,509;15,87011
 247,06; 1206,498;  196,350; 6579,142;15,82611
 247,66; 1240,443;  185,504; 6603,212;16,43794
 248,26; 1292,099;  214,043; 6758,501;16,47281
 248,86; 1322,558;  213,582; 6942,433;16,48092
 249,46; 1296,087;  165,196; 7133,256;16,22964
 250,05; 1410,116;  205,658; 7497,287;16,51836
 250,65; 1413,726;  180,736; 7809,757;16,16184
 251,25; 1466,200;  184,735; 8215,487;15,95697
 251,85; 1552,789;  190,044; 8783,503;15,85793
 252,44; 1624,774;  162,197; 9374,493;15,87636
 253,04; 1743,354;  199,658;10076,254;15,62983
 253,64; 1786,344;  165,582;10743,900;15,32155
 254,24; 1972,548;  213,350;11677,479;15,34524
 254,84; 2051,087;  188,427;12516,102;15,10958
 255,43; 2133,224;  191,504;13497,464;14,59285
 256,03; 2296,277;  190,351;14451,940;14,76642
 256,63; 2413,397;  202,736;15523,455;14,42922
 257,23; 2462,846;  168,274;16450,734;14,09229
 257,82; 2606,301;  203,582;17379,987;13,98848
 258,42; 2664,317;  155,814;18251,839;13,86218
 259,02; 2804,010;  217,043;19237,629;13,60088
 259,62; 2826,640;  187,275;19953,856;13,35266
 260,21; 2887,858;  192,812;20539,387;13,24570
 260,81; 2929,238;  192,196;21031,724;13,13390
 261,41; 2914,786;  171,506;21598,351;12,80301
 262,01; 2987,113;  218,814;22103,267;12,64962
 262,60; 2948,231;  171,582;22443,888;12,46682
 263,20; 2966,373;  180,889;22761,864;12,33553
 263,80; 2983,769;  223,045;23041,718;12,09853
 264,40; 2938,488;  177,891;23233,076;11,97387
 264,99; 2958,375;  202,429;23522,987;11,81767
 265,59; 2936,072;  193,661;23638,650;11,69722
 266,19; 2931,337;  186,968;23800,065;11,62223
 266,78; 2961,704;  227,737;23994,434;11,50335
 267,38; 2897,135;  197,815;24065,863;11,30935
 267,98; 2877,916;  198,353;23979,742;11,26748
 268,58; 2853,736;  199,968;24059,998;11,12223
 269,17; 2797,733;  191,815;24039,692;10,92725
 269,77; 2773,767;  203,275;23892,356;10,85096
 270,37; 2743,570;  172,814;23775,823;10,89164
 270,96; 2758,678;  234,198;23752,400;10,73415
 271,56; 2665,536;  198,044;23497,204;10,59048
 272,16; 2629,399;  187,583;23354,129;10,54027
 272,75; 2618,541;  197,429;23260,178;10,49793
 273,35; 2633,156;  184,121;23191,872;10,64439
 273,95; 2619,724;  195,813;23133,216;10,56750
 274,54; 2581,310;  180,889;23211,893;10,42257
 275,14; 2661,899;  215,736;23517,363;10,49782
 275,74; 2645,036;  176,660;23538,504;10,56585
 276,33; 2722,361;  223,121;23996,289;10,51286
 276,93; 2718,065;  201,965;24266,568;10,45561
 277,53; 2794,983;  192,658;24820,040;10,56680
 278,12; 2825,277;  178,505;25255,783;10,55446
 278,72; 2982,736;  248,043;25774,491;10,71317
 279,32; 2989,334;  186,658;26366,635;10,70542
 279,91; 3058,964;  165,505;27091,575;10,74594
 280,51; 3185,880;  191,427;27666,454;10,89882
 281,11; 3317,334;  192,812;28289,017;11,12080
 281,70; 3332,373;  173,813;28738,401;11,05761
 282,30; 3476,998;  180,813;29326,435;11,30937
 282,90; 3587,822;  189,582;29659,522;11,53121
 283,49; 3684,955;  200,121;30268,142;11,58983
 284,09; 3830,455;  234,120;30743,765;11,78753
 284,69; 3885,207;  220,658;31017,144;11,89924
 285,28; 3991,964;  202,659;31341,803;12,16895
 285,88; 4189,685;  265,121;31563,908;12,53903
 286,47; 4182,640;  194,428;31613,098;12,69376
 287,07; 4370,690;  218,889;31770,442;13,15878
 287,67; 4501,875;  211,196;31839,022;13,56615
 288,26; 4590,339;  191,966;31807,153;13,91222
 288,86; 4720,707;  183,659;31881,294;14,31352
 289,46; 4958,560;  206,428;32075,499;14,91142
 290,05; 5158,248;  184,889;32130,295;15,56831
 290,65; 5386,755;  187,428;32228,789;16,22692
 291,24; 5567,945;  197,889;32463,116;16,64348
 291,84; 5784,628;  213,659;32502,916;17,25332
 292,44; 6004,221;  202,042;32604,561;17,90657
 293,03; 6273,322;  265,351;32838,068;18,44480
 293,63; 6435,808;  189,274;32896,579;19,09828
 294,22; 6644,649;  216,505;33115,219;19,53920
 294,82; 6802,154;  189,737;33153,874;20,05943
 295,41; 6869,604;  182,813;32797,016;20,50270
 296,01; 7081,339;  228,352;32885,599;20,98458
 296,61; 7122,909;  222,043;32616,337;21,30272
 297,20; 7138,202;  195,506;32123,917;21,74457
 297,80; 7187,688;  211,427;31958,152;21,97474
 298,39; 7167,712;  182,120;31671,810;22,18374
 298,99; 7306,000;  213,044;31605,727;22,59430
 299,58; 7293,563;  208,427;31297,963;22,78946
 300,18; 7376,544;  214,273;31171,882;23,13573
 300,78; 7314,623;  190,274;30812,484;23,26530
 301,37; 7381,440;  205,276;30778,033;23,47241
 301,97; 7412,700;  207,889;30739,864;23,59759
 302,56; 7443,560;  191,890;30732,876;23,74406
 303,16; 7446,029;  171,275;30635,614;23,87957
 303,75; 7461,005;  198,889;30709,572;23,80188
 304,35; 7573,183;  176,888;30875,873;24,09296
 304,94; 7577,289;  195,582;30903,201;24,03868
 305,54; 7631,327;  221,274;30870,973;24,17659
 306,13; 7609,786;  167,042;30760,306;24,32805
 306,73; 7565,200;  181,657;30598,417;24,27459
 307,33; 7634,572;  205,581;30526,002;24,50161
 307,92; 7651,183;  214,274;30574,010;24,49596
 308,52; 7729,810;  174,044;31067,181;24,45775
 309,11; 7885,315;  192,967;31471,771;24,59284
 309,71; 7943,582;  178,660;31741,315;24,60161
 310,30; 7976,964;  189,966;31894,116;24,56145
 310,90; 8092,656;  216,966;32319,808;24,53269
 311,49; 8132,269;  204,582;32460,740;24,57728
 312,09; 8177,943;  160,504;32564,670;24,74200
 312,68; 8342,664;  256,120;33005,474;24,69222
 313,28; 8294,798;  170,043;33175,626;24,61631
 313,87; 8345,753;  166,966;33225,346;24,74043
 314,47; 8393,594;  194,890;33451,734;24,65268
 315,06; 8358,988;  169,966;33601,944;24,49458
 315,66; 8464,635;  176,735;33882,747;24,58879
 316,25; 8370,185;  158,198;33782,606;24,42270
 316,85; 8394,286;  163,043;33817,988;24,45775
 317,44; 8433,079;  174,737;33894,099;24,49140
 318,04; 8382,529;  163,428;33955,003;24,32293
 318,63; 8338,515;  161,657;34108,234;24,08743
 319,22; 8379,642;  192,044;34238,164;24,04855
 319,82; 8347,998;  187,505;34282,284;23,93473
 320,41; 8317,476;  195,274;34163,828;23,91094
 321,01; 8311,681;  196,350;34282,487;23,80830
 321,60; 8293,125;  201,659;34248,928;23,76539
 322,20; 8220,618;  177,889;34275,424;23,58742
 322,79; 8193,611;  214,735;34311,299;23,40082
 323,39; 8157,760;  190,580;34354,718;23,32030
 323,98; 8112,250;  172,658;34412,281;23,18832
 324,58; 8038,048;  178,736;34294,614;23,03711
 325,17; 8022,166;  188,582;34039,837;23,14119
 325,76; 7929,094;  193,966;33856,903;22,97817
 326,36; 7782,659;  166,889;33513,650;22,83811
 326,95; 7725,575;  216,043;33228,593;22,74751
 327,55; 7559,801;  172,505;32890,995;22,57835
 328,14; 7468,474;  171,812;32612,932;22,49202
 328,74; 7353,608;  202,736;32108,530;22,41246
 329,33; 7223,462;  199,197;31716,669;22,28689
 329,92; 7073,135;  174,506;31176,262;22,25238
 330,52; 6895,854;  194,812;30555,183;22,07167
 331,11; 6764,440;  190,043;30144,361;21,94808
 331,71; 6555,118;  186,197;29502,113;21,72513
 332,30; 6474,904;  197,812;29112,432;21,70906
 332,89; 6337,229;  263,043;28669,216;21,38333
 333,49; 6168,505;  198,274;28111,179;21,38878
 334,08; 6019,409;  178,967;27703,639;21,21893
 334,68; 5920,584;  189,274;27262,091;21,16998
 335,27; 5810,411;  205,735;26953,800;20,95358
 335,86; 5768,440;  247,043;26654,207;20,90871
 336,46; 5629,077;  206,196;26370,675;20,72612
 337,05; 5570,656;  182,043;26282,034;20,64603
 337,65; 5451,053;  171,582;26020,755;20,42414
 338,24; 5497,613;  240,043;25970,983;20,43287
 338,83; 5457,118;  203,351;25894,964;20,44935
 339,43; 5362,620;  185,274;25829,173;20,18939
 340,02; 5332,736;  185,659;25712,711;20,16322
 340,61; 5319,289;  192,581;25759,357;20,05222
 341,21; 5287,531;  221,274;25755,376;19,84114
 341,80; 5273,394;  185,813;25721,312;19,92356
 342,40; 5214,128;  195,504;25792,472;19,60632
 342,99; 5235,921;  195,658;25820,524;19,66942
 343,58; 5239,077;  183,504;25964,592;19,60962
 344,18; 5236,248;  206,273;26161,756;19,37924
 344,77; 5238,022;  176,198;26459,566;19,25866
 345,36; 5289,498;  173,966;26693,977;19,28933
 345,96; 5338,938;  216,581;27051,688;19,08827
 346,55; 5327,810;  174,888;27255,285;19,02824
 347,14; 5370,765;  181,658;27496,847;18,99715
 347,74; 5452,587;  161,349;28000,958;19,00615
 348,33; 5557,897;  186,734;28614,101;18,89434
 348,92; 5622,484;  194,425;29124,377;18,76276
 349,52; 5686,950;  165,579;29669,124;18,71426
 350,11; 5726,236;  189,582;29848,787;18,66757
 350,70; 5728,344;  169,197;29950,905;18,66631
 351,29; 5598,305;  170,199;29844,338;18,29238
 351,89; 5607,077;  188,737;29831,723;18,27866
 352,48; 5563,322;  155,120;29755,914;18,27046
 353,07; 5557,608;  201,965;29776,627;18,10889
 353,67; 5507,046;  196,656;29588,512;18,06756
 354,26; 5428,080;  192,042;29386,203;17,93522
 354,85; 5409,693;  200,042;29264,979;17,92418
 355,45; 5332,517;  170,659;29117,820;17,83200
 356,04; 5311,779;  181,504;29041,484;17,77643
 356,63; 5277,241;  217,889;28801,391;17,70025
 357,22; 5139,856;  187,122;28686,986;17,37810
 357,82; 5130,341;  186,583;28514,432;17,45194
 358,41; 5144,882;  208,966;28351,903;17,53874
 359,00; 5070,935;  173,736;28193,299;17,47779
 359,60; 5036,683;  193,658;28178,473;17,30590
 360,19; 4979,440;  212,042;27969,918;17,17494
 360,78; 4963,731;  194,967;27841,120;17,24929
 361,37; 4911,144;  185,428;27630,620;17,21874
 361,97; 4887,334;  188,659;27560,479;17,16611
 362,56; 4826,200;  172,275;27379,315;17,10559
 363,15; 4825,051;  246,736;27069,763;17,06860
 363,74; 4719,784;  189,121;26699,514;17,09014
 364,34; 4639,822;  201,121;26313,904;16,99819
 364,93; 4552,784;  181,813;25931,362;16,97494
 365,52; 4493,979;  156,274;25563,053;17,07302
 366,11; 4435,019;  175,659;25305,731;16,94926
 366,71; 4400,719;  176,274;24976,549;17,03386
 367,30; 4306,330;  188,813;24570,650;16,88764
 367,89; 4306,964;  220,273;24359,353;16,92977
 368,48; 4243,534;  209,583;24012,822;16,94707
 369,07; 4138,806;  193,197;23678,443;16,80037
 369,67; 4141,587;  221,582;23399,535;16,91264
 370,26; 4085,863;  185,274;23017,905;17,08340
 370,85; 4014,279;  182,813;22827,852;16,91967
 371,44; 4018,599;  195,120;22636,113;17,03792
 372,03; 3952,522;  167,890;22379,644;17,03887
 372,63; 3898,226;  163,428;22064,218;17,05326
 373,22; 3890,726;  183,735;21880,606;17,08537
 373,81; 3835,964;  170,197;21543,188;17,15140
 374,40; 3819,635;  181,658;21283,519;17,24008
 374,99; 3768,015;  186,351;21056,138;17,16195
 375,59; 3739,233;  161,042;20732,739;17,39376
 376,18; 3736,233;  199,043;20624,802;17,31730
 376,77; 3776,993;  204,659;20445,691;17,64897
 377,36; 3743,411;  207,659;20368,246;17,53794
 377,95; 3706,546;  203,428;20136,549;17,57436
 378,55; 3667,834;  177,966;19982,410;17,62164
 379,14; 3705,173;  198,582;19861,813;17,83324
 379,73; 3692,450;  196,659;19765,165;17,86437
 380,32; 3731,342;  194,736;19764,604;18,07169
 380,91; 3693,536;  173,890;19684,198;18,03993
 381,50; 3719,152;  194,890;19674,046;18,09248
 382,10; 3687,803;  176,428;19517,142;18,15535
 382,69; 3715,767;  166,120;19492,438;18,36691
 383,28; 3750,281;  214,813;19467,605;18,36341
 383,87; 3714,959;  177,659;19263,201;18,53393
 384,46; 3740,868;  162,352;19266,403;18,73171
 385,05; 3767,067;  198,198;19236,921;18,74532
 385,64; 3788,173;  185,890;19264,731;18,88104
 386,24; 3784,733;  159,737;19225,480;19,01314
 386,83; 3869,981;  200,198;19281,411;19,23244
 387,42; 3908,077;  196,274;19353,270;19,37570
 388,01; 3968,774;  177,891;19573,307;19,54525
 388,60; 4018,620;  191,044;19814,164;19,50544
 389,19; 4100,916;  185,584;20005,729;19,75430
 389,78; 4175,022;  182,969;20194,001;19,94926
 390,37; 4358,817;  250,045;20690,369;20,10131
 390,96; 4383,452;  196,583;20773,220;20,34768
 391,56; 4447,163;  195,969;20863,273;20,56966
 392,15; 4526,147;  179,123;21192,503;20,68693
 392,74; 4571,784;  160,817;21310,624;20,85583
 393,33; 4699,704;  187,893;21679,108;20,99375
 393,92; 4841,425;  197,509;22034,588;21,26620
 394,51; 4904,269;  171,816;22249,848;21,43512
 395,10; 5001,976;  215,896;22471,673;21,50489
 395,69; 5041,769;  203,049;22534,810;21,66743
 396,28; 5094,322;  194,435;22689,511;21,78204
 396,87; 5213,829;  190,975;22814,078;22,20232
 397,46; 5265,769;  194,899;22864,306;22,36878
 398,06; 5347,377;  212,823;23086,703;22,44724
 398,65; 5430,074;  195,979;23095,800;22,85649
 399,24; 5511,591;  218,211;23352,957;22,88065
 399,83; 5517,278;  187,907;23329,458;23,02944
 400,42; 5626,600;  225,680;23500,735;23,20476
 401,01; 5725,443;  196,684;23613,456;23,61025
 401,60; 5769,623;  225,382;23644,888;23,67360
 402,19; 5862,495;  239,695;23657,412;24,01088
 402,78; 5885,341;  231,471;23539,932;24,25673
 403,37; 5856,223;  214,939;23457,159;24,27171
 403,96; 5917,932;  222,639;23272,985;24,70806
 404,55; 5966,147;  243,725;23287,924;24,83238
 405,14; 5932,810;  219,964;23067,240;25,00450
 405,73; 5954,976;  229,742;22969,296;25,17742
 406,32; 6069,526;  229,133;22983,779;25,66681
 406,91; 6022,903;  224,679;22726,786;25,76747
 407,50; 6035,672;  228,836;22474,198;26,10358
 408,09; 5965,919;  202,762;22260,479;26,12762
 408,68; 5997,366;  211,533;22143,974;26,38025
 409,27; 6056,893;  203,223;21926,977;26,94594
 409,86; 6074,371;  216,756;21783,063;27,16096
 410,45; 6104,961;  252,905;21764,002;27,20482
 411,04; 6137,632;  246,516;21720,847;27,43329
 411,63; 6060,860;  236,817;21434,096;27,47543
 412,22; 6059,120;  227,888;21243,443;27,74722
 412,81; 6080,945;  249,348;21005,096;28,09630
 413,40; 6001,046;  257,960;20696,035;28,09994
 413,99; 6022,258;  306,423;20358,870;28,50443
 414,58; 5877,048;  227,422;19923,867;28,68348
 415,17; 5887,281;  240,271;19761,596;28,92739
 415,76; 5848,216;  222,735;19610,748;29,01526
 416,35; 5861,159;  207,503;19427,764;29,41509
 416,94; 5940,356;  254,888;19451,197;29,61751
 417,53; 6026,366;  222,963;19612,954;29,92989
 418,12; 6029,310;  227,424;19777,644;29,67684
 418,71; 6226,301;  250,730;20131,786;30,05661
 419,30; 6259,130;  219,347;20238,060;30,17069
 419,89; 6367,681;  221,269;20300,403;30,61094
 420,48; 6501,798;  251,807;20647,334;30,64393
 421,07; 6530,481;  237,575;20737,148;30,69774
 421,66; 6620,825;  208,497;20776,174;31,17672
 422,25; 6619,828;  227,880;20780,887;31,09982
 422,84; 6686,246;  243,341;20720,605;31,46370
 423,43; 6592,666;  225,803;20428,524;31,51488
 424,02; 6581,349;  258,803;20219,722;31,67463
 424,60; 6474,777;  224,185;19803,125;31,92508
 425,19; 6433,775;  250,340;19540,192;32,05538
 425,78; 6470,900;  238,340;19461,617;32,42194
 426,37; 6383,171;  253,569;19304,544;32,17474
 426,96; 6396,046;  238,954;19126,121;32,59934
 427,55; 6370,999;  230,183;19126,181;32,49797
 428,14; 6326,160;  229,644;18833,699;32,76982
 428,73; 6297,484;  235,338;18647,153;32,92530
 429,32; 6337,885;  249,877;18594,763;33,18641
 429,91; 6381,893;  259,030;18676,904;33,24413
 430,50; 6310,982;  258,645;18521,713;33,13976
 431,08; 6298,595;  258,644;18360,349;33,36675
 431,67; 6330,143;  302,412;18330,782;33,43470
 432,26; 6324,011;  326,642;18160,858;33,62844
 432,85; 6264,169;  347,335;17821,836;33,85982
 433,44; 6182,374;  360,257;17440,033;34,08778
 434,03; 6071,160;  371,256;17158,139;33,95451
 434,62; 5932,405;  331,641;16663,909;34,29263
 435,21; 5915,265;  347,104;16496,684;34,47868
 435,79; 5884,823;  332,948;16332,708;34,69974
 436,38; 5850,097;  328,485;16237,016;34,70850
 436,97; 5817,287;  323,793;16221,643;34,55495
 437,56; 5785,590;  328,637;15979,537;34,86671
 438,15; 5753,547;  295,099;15875,318;35,03448
 438,74; 5807,297;  332,560;15856,013;35,26752
 439,33; 5826,915;  284,099;15873,077;35,55599
 439,91; 5836,730;  252,867;15956,906;35,55685
 440,50; 5931,398;  294,098;16015,235;35,85809
 441,09; 5914,615;  294,943;16082,077;35,59653
 441,68; 5964,973;  267,711;16154,661;35,86127
 442,27; 5919,350;  254,865;16123,606;35,69587
 442,86; 5933,528;  241,324;16026,007;36,06157
 443,44; 5982,807;  250,786;16129,577;36,09860
 444,03; 6114,523;  335,324;16189,950;36,45119
 444,62; 5985,132;  250,555;16053,209;36,28869
 445,21; 5983,314;  259,940;15947,782;36,48286
 445,80; 5946,115;  295,246;15848,830;36,33162
 446,39; 5890,622;  333,016;15659,644;36,26111
 446,97; 5796,444;  252,399;15390,839;36,62230
 447,56; 5729,473;  255,321;15178,970;36,68106
 448,15; 5651,716;  256,168;15006,598;36,57892
 448,74; 5572,771;  282,091;14794,610;36,45597
 449,33; 5539,016;  267,090;14665,641;36,61428
 449,91; 5465,634;  249,089;14390,958;36,88724
 450,50; 5434,706;  253,628;14218,742;37,10015
 451,09; 5369,014;  271,320;14125,591;36,79511
 451,68; 5363,877;  294,704;14035,070;36,89256
 452,26; 5350,182;  276,165;13992,011;36,99384
 452,85; 5297,209;  257,703;13829,823;37,13131
 453,44; 5316,070;  273,932;13779,714;37,33318
 454,03; 5304,500;  250,318;13801,670;37,29651
 454,61; 5255,558;  252,471;13757,610;37,04580
 455,20; 5377,723;  271,009;13969,185;37,28025
 455,79; 5368,271;  274,779;13911,286;37,35189
 456,38; 5393,115;  279,161;14014,786;37,23132
 456,97; 5428,382;  262,854;14103,099;37,32252
 457,55; 5433,625;  258,238;14130,908;37,30635
 458,14; 5434,505;  291,239;14075,067;37,31377
 458,73; 5404,190;  272,468;14011,957;37,35016
 459,31; 5422,748;  289,006;14063,050;37,27113
 459,90; 5480,743;  317,622;14168,214;37,27726
 460,49; 5531,721;  377,853;14241,835;37,17452
 461,08; 5499,519;  264,928;14290,432;37,32195
 461,66; 5547,445;  272,083;14351,107;37,46966
 462,25; 5583,911;  282,312;14495,949;37,29938
 462,84; 5629,084;  300,390;14501,636;37,52272
 463,43; 5580,250;  248,234;14475,764;37,47675
 464,01; 5585,385;  272,157;14468,694;37,42622
 464,60; 5602,813;  336,004;14482,124;37,23147
 465,19; 5500,608;  249,233;14206,266;37,62530
 465,77; 5462,452;  278,617;14168,900;37,31987
 466,36; 5488,796;  300,388;14093,889;37,61487
 466,95; 5300,382;  281,773;13770,006;37,20732
 467,53; 5247,020;  290,847;13477,871;37,58371
 468,12; 5177,488;  309,616;13237,536;37,65395
 468,71; 5045,495;  273,156;13039,028;37,38358
 469,29; 4955,628;  257,539;12766,750;37,55703
 469,88; 4872,089;  260,077;12540,218;37,55667
 470,47; 4966,217;  332,307;12631,261;37,67727
 471,06; 4879,758;  280,922;12514,253;37,59267
 471,64; 4897,878;  281,077;12656,922;37,30494
 472,23; 4870,078;  253,305;12657,306;37,22003
 472,81; 4948,630;  257,229;12781,927;37,45720
 473,40; 4959,135;  268,536;12921,383;37,07149
 473,99; 5111,842;  383,228;13090,095;37,21306
 474,57; 5080,287;  266,382;13216,161;37,17364
 475,16; 5099,779;  284,691;13368,257;36,80257
 475,75; 5178,991;  311,227;13514,047;36,86912
 476,33; 5192,299;  301,611;13584,597;36,81919
 476,92; 5253,856;  302,228;13597,424;37,24374
 477,51; 5190,472;  305,535;13748,207;36,33903
 478,09; 5208,193;  300,304;13698,169;36,63187
 478,68; 5217,724;  294,996;13631,356;36,91208
 479,27; 5225,217;  330,458;13743,529;36,49246
 479,85; 5159,883;  288,765;13644,644;36,47171
 480,44; 5202,522;  278,765;13842,630;36,30055
 481,02; 5658,133;  308,379;15086,890;36,19954
 481,61; 6344,155;  322,072;17081,415;35,93269
 482,20; 6725,323;  310,456;18258,439;35,74144
 482,78; 7026,075;  339,457;19068,417;35,70203
 483,37; 7175,859;  338,609;19595,156;35,50611
 483,95; 7305,085;  367,609;19905,024;35,50867
 484,54; 7383,820;  372,764;20108,365;35,52492
 485,13; 7340,047;  341,839;20041,729;35,52410
 485,71; 7228,515;  330,224;19771,542;35,48263
 486,30; 7152,929;  357,377;19509,734;35,48154
 486,88; 7090,652;  411,070;19225,690;35,50209
 487,47; 6758,837;  374,608;18539,337;35,14630
 488,05; 6488,715;  365,915;17726,602;35,26819
 488,64; 6040,883;  359,914;16450,710;35,30571
 489,23; 5470,410;  369,761;14676,365;35,65241
 489,81; 4697,071;  373,607;12571,955;35,44303
 490,40; 4386,701;  315,914;11874,977;35,21727
 490,98; 4325,821;  307,068;11586,193;35,63000
 491,57; 4258,030;  338,069;11499,424;35,12083
 492,15; 4232,946;  317,145;11462,542;35,13380
 492,74; 4190,977;  317,453;11356,094;35,09058
 493,32; 4159,643;  348,145;11203,904;35,11038
 493,91; 4130,453;  314,298;11186,903;35,09881
 494,50; 4101,285;  313,220;11148,596;34,96016
 495,08; 4063,184;  298,066;11063,846;34,97302
 495,67; 4046,119;  328,067;11048,699;34,68127
 496,25; 4003,987;  260,605;10929,547;35,08672
 496,84; 3995,717;  281,529;10919,843;34,91332
 497,42; 3982,782;  257,682;10876,907;35,07884
 498,01; 3922,061;  297,144;10794,624;34,53131
 498,59; 3910,732;  263,912;10734,726;34,82843
 499,18; 3881,814;  263,144;10715,154;34,62176
 499,76; 3863,023;  289,451;10606,019;34,63915
 500,35; 3757,196;  278,142;10473,419;34,12417
 500,93; 3739,472;  269,836;10384,608;34,30267
 501,52; 3705,773;  273,066;10331,793;34,12665
 502,10; 3706,340;  279,372;10285,543;34,24855
 502,69; 3608,369;  264,833;10162,588;33,78075
 503,27; 3561,056;  240,989;10022,588;33,94197
 503,86; 3523,444;  269,064; 9911,595;33,75026
 504,44; 3454,367;  228,987; 9797,140;33,70953
 505,03; 3369,835;  221,141; 9535,881;33,80336
 505,61; 3340,770;  235,833; 9501,368;33,51061
 506,19; 3286,232;  258,910; 9294,370;33,50490
 506,78; 3210,545;  239,524; 9132,905;33,40710
 507,36; 3167,258;  244,602; 8968,110;33,50322
 507,95; 3115,146;  240,755; 8805,585;33,56040
 508,53; 3061,886;  235,371; 8713,924;33,33724
 509,12; 2980,600;  245,139; 8554,996;32,91826
 509,70; 2965,037;  267,832; 8439,018;33,00874
 510,29; 2924,249;  288,600; 8295,487;32,91727
 510,87; 2822,487;  237,832; 8093,981;32,89977
 511,46; 2781,042;  235,986; 7953,917;32,97589
 512,04; 2752,843;  247,370; 7787,108;33,23024
 512,62; 2698,148;  249,755; 7651,187;33,07999
 513,21; 2611,636;  243,216; 7456,248;32,83530
 513,79; 2568,057;  236,752; 7390,281;32,58958
 514,38; 2521,326;  229,214; 7225,273;32,76290
 514,96; 2488,028;  262,984; 7149,925;32,30816
 515,54; 2423,386;  222,906; 6979,651;32,56716
 516,13; 2409,398;  261,060; 6955,374;32,09198
 516,71; 2363,756;  239,906; 6806,797;32,34180
 517,30; 2301,838;  228,982; 6687,017;32,09732
 517,88; 2289,927;  249,290; 6594,814;32,15869
 518,46; 2251,360;  228,674; 6507,780;32,21296
 519,05; 2201,961;  230,135; 6478,075;31,55961
 519,63; 2175,838;  246,135; 6365,408;31,53484
 520,22; 2209,434;  254,057; 6319,730;32,23677
 520,80; 2159,495;  240,673; 6261,953;31,86734
 521,38; 2176,629;  285,750; 6247,865;31,71490
 521,97; 2131,096;  233,057; 6214,479;31,73223
 522,55; 2120,612;  249,134; 6166,104;31,62900
 523,13; 2081,531;  245,749; 6176,282;30,95475
 523,72; 2095,064;  239,982; 6136,578;31,46023
 524,30; 2143,927;  270,671; 6312,779;31,00336
 524,89; 2122,848;  219,749; 6304,778;31,27510
 525,47; 2148,377;  255,517; 6430,214;30,65510
 526,05; 2133,396;  210,671; 6427,908;30,92572
 526,64; 2184,276;  254,824; 6582,932;30,49018
 527,22; 2226,418;  261,825; 6754,820;30,25711
 527,80; 2273,651;  299,824; 6831,738;30,21819
 528,39; 2269,122;  241,286; 6934,551;30,29667
 528,97; 2281,057;  241,747; 7075,885;29,84004
 529,55; 2331,930;  254,210; 7272,532;29,60422
 530,14; 2402,197;  269,362; 7469,642;29,62155
 530,72; 2399,086;  249,824; 7542,001;29,47353
 531,30; 2438,564;  228,054; 7745,941;29,40334
 531,89; 2461,242;  252,285; 7813,999;29,21239
 532,47; 2513,834;  281,054; 7927,406;29,20058
 533,05; 2508,776;  283,286; 7971,469;28,94689
 533,63; 2518,567;  271,823; 8017,629;29,00594
 534,22; 2494,588;  254,131; 8068,389;28,67140
 534,80; 2544,290;  275,515; 8161,053;28,77135
 535,38; 2641,877;  382,977; 8275,616;28,62033
 535,97; 2518,415;  261,131; 8119,926;28,72303
 536,55; 2567,589;  314,361; 8266,785;28,33385
 537,13; 2542,401;  321,901; 8224,363;28,09884
 537,71; 2583,341;  377,439; 8315,372;27,78937
 538,30; 2594,802;  392,823; 8351,845;27,66646
 538,88; 2653,815;  438,514; 8493,197;27,50326
 539,46; 2745,423;  510,053; 8658,370;27,43351
 540,05; 2795,007;  523,438; 8782,962;27,50242
 540,63; 2817,365;  574,130; 9045,146;26,48130
 541,21; 2887,216;  610,822; 9188,055;26,53996
 541,79; 2925,894;  666,745; 9299,651;26,16904
 542,38; 2975,870;  689,822; 9500,201;25,94721
 542,96; 2997,262;  700,744; 9627,804;25,72535
 543,54; 3073,163;  731,360; 9816,112;25,77729
 544,12; 3056,081;  697,129;10005,211;25,34305
 544,70; 3076,041;  678,513;10066,612;25,53794
 545,29; 3131,829;  690,207;10210,981;25,64521
 545,87; 3116,278;  666,052;10244,113;25,58165
 546,45; 3077,189;  606,207;10237,768;25,65506
 547,03; 3073,639;  586,207;10303,667;25,59756
 547,62; 3058,548;  549,360;10453,499;25,33474
 548,20; 3110,132;  535,821;10611,091;25,55079
 548,78; 3097,726;  494,743;10742,659;25,40012
 549,36; 3129,601;  445,974;10854,157;25,78382
 549,94; 3115,053;  405,283;11052,098;25,45146
 550,53; 3169,031;  416,051;11273,895;25,35476
 551,11; 3179,045;  376,358;11470,000;25,26391
 551,69; 3282,928;  386,512;11792,695;25,39338
 552,27; 3281,654;  351,282;12020,323;25,11236
 552,85; 3336,632;  344,819;12332,115;24,95819
 553,44; 3428,661;  333,051;12706,532;25,01810
 554,02; 3486,154;  350,358;13001,871;24,78593
 554,60; 3531,868;  282,896;13338,405;24,88583
 555,18; 3623,586;  323,128;13722,061;24,63225
 555,76; 3682,853;  307,666;14026,920;24,60183
 556,34; 3755,639;  318,357;14498,326;24,24041
 556,93; 3843,428;  287,512;14882,081;24,36465
 557,51; 3878,836;  271,819;15183,769;24,18877
 558,09; 3991,483;  309,358;15548,014;24,16305
 558,67; 4079,625;  300,972;15923,621;24,18702
 559,25; 4151,327;  314,049;16218,733;24,12671
 559,83; 4146,983;  296,818;16591,194;23,62880
 560,41; 4213,995;  285,511;16922,593;23,61282
 561,00; 4312,485;  296,895;17205,871;23,74828
 561,58; 4358,461;  281,050;17522,650;23,64868
 562,16; 4429,221;  273,281;17819,760;23,68532
 562,74; 4463,329;  260,589;18189,785;23,44076
 563,32; 4546,185;  259,664;18637,540;23,32436
 563,90; 4630,247;  288,434;18989,054;23,21749
 564,48; 4746,274;  290,973;19364,475;23,35859
 565,06; 4826,656;  281,126;19958,572;23,10020
 565,65; 4970,034;  280,356;20632,309;23,04289
 566,23; 5134,892;  341,972;21336,093;22,82982
 566,81; 5309,067;  281,434;22055,848;23,08964
 567,39; 5427,375;  291,664;23002,321;22,61366
 567,97; 5566,171;  311,049;23678,206;22,48935
 568,55; 5804,973;  339,818;24434,847;22,68167
 569,13; 5864,166;  281,818;25069,074;22,52104
 569,71; 6041,115;  281,358;26085,798;22,32080
 570,29; 6274,238;  326,204;27063,302;22,24637
 570,87; 6425,536;  316,743;27807,498;22,22126
 571,45; 6470,952;  305,203;28474,313;21,88833
 572,03; 6597,053;  277,664;28836,535;22,12759
 572,61; 6708,784;  279,510;29561,683;21,95627
 573,20; 6842,586;  292,588;30245,769;21,86745
 573,78; 6973,115;  289,664;30881,434;21,84722
 574,36; 7063,233;  314,280;31421,652;21,69567
 574,94; 7151,961;  377,356;31802,825;21,55769
 575,52; 7170,805;  295,432;31999,463;21,68612
 576,10; 7317,748;  368,509;32545,843;21,59669
 576,68; 7374,570;  349,048;33138,621;21,42608
 577,26; 7519,276;  369,354;33842,430;21,36022
 577,84; 7614,788;  378,895;34248,971;21,36368
 578,42; 7690,469;  436,740;34628,338;21,21494
 579,00; 7649,892;  374,279;34789,559;21,14065
 579,58; 7691,767;  428,202;34975,220;21,02516
 580,16; 7658,125;  386,586;35009,177;21,00230
 580,74; 7705,534;  395,278;35250,466;20,97322
 581,32; 7665,079;  384,740;35391,202;20,79713
 581,90; 7649,781;  417,894;35264,013;20,75378
 582,48; 7571,901;  408,048;35421,148;20,46049
 583,06; 7628,817;  394,894;35675,788;20,50380
 583,64; 7610,255;  405,894;35627,498;20,45438
 584,22; 7533,058;  425,893;35538,071;20,24131
 584,80; 7472,512;  431,817;35319,012;20,18132
 585,38; 7337,574;  438,819;34950,201;19,98980
 585,96; 7295,779;  416,202;35033,782;19,87307
 586,54; 7291,981;  431,739;34991,069;19,85062
 587,12; 7244,512;  384,355;35135,247;19,74095
 587,70; 7291,034;  423,895;35393,764;19,63730
 588,28; 7266,483;  401,817;35422,824;19,60157
 588,86; 7298,750;  402,740;35502,913;19,64666
 589,44; 7200,651;  379,739;35698,398;19,31249
 590,02; 7229,990;  381,047;35790,731;19,34201
 590,59; 7235,483;  363,355;36071,982;19,24501
 591,17; 7252,476;  366,661;36343,113;19,13978
 591,75; 7226,716;  351,123;36396,451;19,07485
 592,33; 7290,950;  368,123;36635,745;19,08817
 592,91; 7247,060;  322,661;36802,773;18,98130
 593,49; 7292,709;  323,045;37090,183;18,95623
 594,07; 7291,519;  342,430;37386,404;18,75903
 594,65; 7326,488;  358,739;37316,426;18,85331
 595,23; 7344,632;  345,893;37877,163;18,64776
 595,81; 7344,656;  324,354;37980,455;18,64320
 596,39; 7361,281;  326,969;38049,494;18,64751
 596,97; 7369,123;  321,123;38336,446;18,53989
 597,55; 7330,050;  329,124;38165,795;18,50302
 598,12; 7305,810;  294,506;38053,860;18,56839
 598,70; 7257,529;  308,815;38368,362;18,25748
 599,28; 7258,551;  326,584;38480,814;18,16828
 599,86; 7246,226;  321,584;38551,727;18,11304
 600,44; 7198,971;  285,891;38621,596;18,03301
 601,02; 7247,027;  338,583;38714,775;18,00190
 601,60; 7149,445;  314,584;38670,846;17,81941
 602,18; 7139,262;  278,045;38689,897;17,86224
 602,75; 7062,940;  286,662;38786,473;17,60081
 603,33; 7084,103;  301,122;38832,526;17,60377
 603,91; 7024,974;  297,737;38795,365;17,47442
 604,49; 7035,015;  317,815;38813,498;17,44923
 605,07; 7003,380;  328,969;38843,643;17,32953
 605,65; 6998,892;  340,968;38932,761;17,25218
 606,23; 7007,017;  404,893;39179,461;17,02694
 606,80; 6990,079;  462,046;39158,915;16,86967
 607,38; 6948,380;  518,583;39228,969;16,61000
 607,96; 6993,428;  579,970;39333,597;16,54931
 608,54; 7018,801;  661,660;39410,510;16,40601
 609,12; 6987,101;  667,816;39470,598;16,28565
 609,70; 6988,630;  706,661;39567,803;16,16517
 610,27; 6934,529;  705,124;39535,885;16,04245
 610,85; 6918,481;  746,199;39623,322;15,87638
 611,43; 6853,060;  731,892;39526,545;15,77838
 612,01; 6761,620;  695,354;39265,911;15,72771
 612,59; 6752,007;  685,122;39413,678;15,66515
 613,16; 6686,687;  650,970;39404,399;15,57467
 613,74; 6607,587;  622,045;39147,055;15,53677
 614,32; 6549,704;  570,430;39181,665;15,48584
 614,90; 6496,618;  510,661;38991,155;15,55582
 615,48; 6383,904;  453,816;38684,228;15,51144
 616,05; 6302,375;  409,355;38686,801;15,39554
 616,63; 6273,154;  432,817;38503,836;15,34064
 617,21; 6231,214;  414,277;38347,683;15,33460
 617,79; 6165,464;  401,277;38316,994;15,20263
 618,36; 6111,827;  396,200;38153,470;15,13782
 618,94; 6001,642;  349,124;37891,123;15,05652
 619,52; 5970,844;  366,201;37661,924;15,02757
 620,10; 5901,137;  347,662;37667,762;14,88065
 620,67; 5849,406;  350,970;37468,134;14,81373
 621,25; 5825,361;  389,354;37329,951;14,71554
 621,83; 5747,726;  360,662;37274,710;14,59353
 622,41; 5769,192;  416,278;37299,613;14,51310
 622,98; 5677,656;  375,970;37073,364;14,44704
 623,56; 5666,644;  374,278;37008,718;14,44642
 624,14; 5604,267;  358,507;36823,868;14,38560
 624,72; 5541,312;  345,816;36709,748;14,28750
 625,29; 5516,281;  334,201;36910,709;14,16778
 625,87; 5538,555;  380,662;36708,475;14,19819
 626,45; 5464,351;  319,971;36631,889;14,16719
 627,02; 5413,957;  333,200;36559,101;14,02520
 627,60; 5371,935;  313,430;36456,278;13,99587
 628,18; 5344,101;  314,893;36567,752;13,87258
 628,76; 5275,757;  309,586;36546,500;13,70473
 629,33; 5286,709;  346,970;36579,543;13,63342
 629,91; 5236,522;  322,662;36589,377;13,54923
 630,49; 5265,954;  337,047;36732,868;13,54251
 631,06; 5255,788;  324,201;36869,914;13,49430
 631,64; 5206,375;  325,663;36682,871;13,42433
 632,22; 5165,625;  291,125;36696,558;13,38948
 632,79; 5207,339;  325,048;37006,933;13,30981
 633,37; 5175,894;  292,815;37049,584;13,28484
 633,95; 5159,685;  299,509;37105,321;13,20491
 634,52; 5168,661;  287,354;37261,738;13,20186
 635,10; 5129,776;  300,893;37214,434;13,08161
 635,68; 5152,017;  297,586;37462,222;13,06196
 636,25; 5069,399;  269,049;37444,839;12,91257
 636,83; 5114,296;  264,586;37635,807;12,97712
 637,41; 5120,723;  285,279;37583,008;12,96445
 637,98; 5079,483;  311,510;37886,738;12,68914
 638,56; 5075,216;  285,587;37996,721;12,70084
 639,13; 5026,284;  268,509;38017,931;12,60357
 639,71; 5108,671;  341,663;38202,232;12,59096
 640,29; 4969,906;  248,047;37942,112;12,52680
 640,86; 4978,410;  265,586;38203,469;12,42248
 641,44; 4918,913;  264,739;38142,057;12,28750
 642,02; 4945,725;  294,970;38180,337;12,27586
 642,59; 4925,767;  257,355;38337,924;12,25930
 643,17; 4887,501;  267,970;38411,666;12,11086
 643,74; 4889,851;  264,355;38386,177;12,13346
 644,32; 4871,277;  298,124;38230,688;12,05601
 644,89; 4850,550;  290,893;38330,737;11,98653
 645,47; 4804,130;  295,970;38275,248;11,87005
 646,05; 4730,249;  301,047;38199,144;11,68714
 646,62; 4726,599;  267,970;38176,962;11,76140
 647,20; 4701,256;  280,970;38458,243;11,57832
 647,77; 4647,990;  258,739;38227,215;11,56025
 648,35; 4609,109;  249,047;38133,264;11,50892
 648,92; 4557,151;  280,970;38176,083;11,28426
 649,50; 4529,501;  245,124;38084,748;11,32246
 650,08; 4489,312;  248,508;37951,028;11,24806
 650,65; 4476,354;  257,277;38129,693;11,14024
 651,23; 4530,242;  235,508;38845,896;11,12326
 651,80; 4615,130;  241,893;39880,099;11,03288
 652,38; 4634,865;  255,431;40266,764;10,94548
 652,95; 4620,291;  238,047;40564,198;10,86700
 653,53; 4634,256;  264,047;40893,632;10,75623
 654,10; 4676,683;  294,508;41011,527;10,76251
 654,68; 4608,725;  231,123;40936,115;10,75446
 655,25; 4574,151;  240,123;40927,549;10,65201
 655,83; 4543,270;  238,816;41064,983;10,54337
 656,40; 4572,081;  277,431;41097,956;10,52081
 656,98; 4525,046;  246,816;41053,774;10,48407
 657,55; 4513,550;  245,892;40850,823;10,51019
 658,13; 4393,130;  247,354;40513,257;10,29600
 658,70; 4357,557;  268,354;40338,307;10,20516
 659,28; 4239,907;  237,277;39441,279;10,20975
 659,85; 4132,102;  275,815;38656,944;10,04735
 660,43; 4099,529;  274,354;38613,840; 9,97712
 661,00; 4080,802;  255,738;38758,350; 9,93456
 661,58; 4075,305;  255,431;39162,015; 9,81807
 662,15; 4053,578;  242,123;39258,449; 9,76887
 662,73; 4169,543;  317,815;39676,499; 9,78622
 663,30; 4081,046;  258,200;39816,317; 9,66387
 663,88; 4102,319;  261,354;39932,290; 9,68206
 664,45; 4068,515;  244,969;40214,493; 9,56615
 665,03; 4100,788;  252,969;40498,465; 9,56087
 665,60; 4214,214;  345,661;40980,438; 9,52030
 666,17; 4118,872;  254,661;41057,026; 9,47056
 666,75; 4097,914;  250,661;41476,844; 9,33206
 667,32; 4151,802;  273,584;41833,355; 9,33166
 667,90; 4118,382;  259,815;42040,558; 9,23528
 668,47; 4185,578;  275,584;42304,992; 9,30299
 669,05; 4178,851;  252,353;42670,888; 9,25656
 669,62; 4124,123;  224,892;42792,476; 9,16010
 670,19; 4141,242;  230,199;42808,679; 9,18549
 670,77; 4141,438;  251,661;43089,651; 9,08020
 671,34; 4091,711;  231,430;42909,470; 9,04512
 671,92; 4154,060;  232,661;43328,288; 9,09930
 672,49; 4110,410;  266,199;43277,492; 8,93768
 673,06; 4043,914;  217,276;43393,310; 8,86287
 673,64; 4033,648;  226,045;43290,667; 8,84160
 674,21; 4021,228;  230,738;43272,332; 8,80658
 674,79; 4040,886;  246,276;43567,689; 8,75920
 675,36; 4008,543;  247,507;43671,508; 8,66119
 675,93; 4004,662;  223,584;43539,480; 8,72908
 676,51; 3994,781;  254,353;43741,607; 8,60120
 677,08; 3997,515;  256,891;43814,964; 8,58767
 677,65; 3980,326;  245,430;43940,474; 8,54764
 678,23; 3959,599;  248,353;44134,601; 8,45651
 678,80; 3943,025;  247,891;44335,881; 8,38127
 679,38; 3960,914;  236,968;44460,161; 8,42080
 679,95; 3994,032;  251,507;44698,210; 8,42026
 680,52; 3964,613;  232,737;45020,337; 8,33239
 681,10; 4057,578;  253,891;45252,309; 8,45293
 681,67; 4012,543;  251,891;45654,743; 8,28285
 682,24; 3979,431;  223,583;45647,100; 8,26851
 682,82; 4040,473;  228,199;46216,534; 8,28965
 683,39; 4090,053;  284,430;46554,353; 8,22483
 683,96; 4035,865;  251,353;46749,633; 8,13904
 684,54; 4034,368;  216,660;47143,605; 8,13543
 685,11; 4113,949;  285,199;47620,578; 8,08856
 685,68; 4074,298;  237,276;47943,627; 8,04300
 686,25; 4022,648;  220,199;47977,523; 7,96202
 686,83; 4102,998;  242,891;48173,649; 8,05351
 687,40; 4067,347;  232,737;48641,775; 7,92127
 687,97; 4153,158;  292,275;49037,902; 7,92047
 688,55; 4096,047;  228,275;49002,028; 7,93003
 689,12; 4055,473;  205,045;49250,462; 7,85074
 689,69; 4058,592;  223,583;49361,819; 7,80453
 690,26; 4077,172;  226,814;49423,484; 7,82646
 690,84; 4061,137;  232,198;49572,841; 7,76021
 691,41; 4100,179;  252,737;49630,121; 7,79191
 691,98; 4098,683;  247,275;50012,093; 7,73922
 692,56; 4079,802;  248,583;50084,912; 7,68760
 693,13; 4138,228;  283,660;50120,038; 7,73445
 693,70; 4112,424;  256,660;50346,934; 7,69763
 694,27; 4055,235;  229,660;50424,214; 7,62150
 694,84; 4069,585;  227,352;50553,186; 7,63471
 695,42; 4120,473;  287,890;50713,082; 7,60053
 695,99; 4105,130;  250,583;50970,593; 7,59966
 696,56; 4073,480;  240,429;50747,796; 7,58909
 697,13; 4115,445;  256,967;51118,768; 7,58620
 697,71; 4087,487;  234,967;51101,895; 7,57372
 698,28; 4100,529;  229,506;51511,175; 7,54855
 698,85; 4065,956;  203,890;51588,301; 7,51603
 699,42; 4045,844;  199,121;51639,581; 7,47801
 699,99; 4135,732;  261,659;51835,861; 7,51165
 700,57; 4095,697;  243,813;51785,603; 7,47332
 701,14; 4065,200;  234,198;52064,191; 7,39148
 701,71; 4069,242;  256,967;52276,010; 7,32862
 702,28; 4042,592;  236,429;52196,597; 7,32516
 702,85; 4095,249;  240,736;52263,031; 7,40935
 703,43; 4109,522;  263,044;52545,312; 7,35714
 704,00; 4133,179;  275,813;52840,130; 7,33837
 704,57; 4087,914;  255,275;52740,564; 7,30231
 705,14; 4091,879;  278,121;53119,383; 7,21739
 705,71; 4115,151;  291,736;53002,124; 7,25363
 706,28; 4068,578;  261,736;52995,174; 7,21903
 706,86; 4102,928;  292,967;53308,531; 7,18650
 707,43; 4112,124;  323,582;53181,734; 7,16737
 708,00; 4081,165;  294,813;53179,783; 7,15960
 708,57; 4040,284;  256,659;53074,602; 7,16352
 709,14; 4096,480;  288,659;53306,498; 7,18215
 709,71; 4082,522;  266,967;53299,701; 7,19472
 710,28; 4089,487;  270,428;53487,596; 7,17637
 710,86; 4106,991;  275,120;53725,492; 7,16902
 711,43; 4118,186;  299,736;53655,618; 7,15657
 712,00; 4090,228;  262,197;53721,283; 7,16067
 712,57; 4140,655;  284,351;53918,563; 7,19001
 713,14; 4119,082;  250,582;54055,766; 7,18983
 713,71; 4121,970;  270,197;53948,123; 7,17571
 714,28; 4136,166;  246,274;53911,019; 7,24850
 714,85; 4108,977;  249,428;53726,607; 7,21719
 715,42; 4120,480;  247,812;53999,810; 7,20470
 716,00; 4222,445;  318,582;54123,167; 7,25563
 716,57; 4140,487;  254,966;54213,985; 7,20087
 717,14; 4131,837;  236,120;54124,573; 7,22922
 717,71; 4118,802;  231,274;54153,853; 7,20946
 718,28; 4202,305;  275,043;54303,595; 7,26886
 718,85; 4147,655;  225,120;54290,029; 7,25523
 719,42; 4177,466;  257,043;54456,078; 7,23338
 719,99; 4135,431;  228,966;54163,436; 7,24298
 720,56; 4191,089;  258,658;54601,023; 7,23640
 721,13; 4167,746;  228,812;54648,765; 7,23803
 721,70; 4190,019;  224,351;54471,122; 7,31042
 722,27; 4215,830;  254,197;54491,018; 7,30432
 722,84; 4280,949;  324,427;54774,221; 7,26637
 723,41; 4167,837;  234,504;54597,424; 7,23532
 723,98; 4230,725;  240,197;54852,473; 7,30702
 724,55; 4265,229;  255,350;55039,292; 7,31944
 725,12; 4180,501;  207,735;54881,726; 7,26628
 725,69; 4223,466;  226,889;55244,006; 7,26424
 726,27; 4250,970;  228,966;55288,363; 7,30485
 726,84; 4303,858;  239,196;55550,413; 7,34871
 727,41; 4331,361;  263,658;55550,154; 7,35750
 727,98; 4348,942;  253,043;55782,819; 7,37604
 728,55; 4352,907;  285,119;55635,253; 7,34919
 729,12; 4367,256;  223,427;55924,918; 7,43935
 729,69; 4359,760;  264,966;55950,583; 7,35341
 730,26; 4409,263;  258,119;56249,247; 7,41393
 730,82; 4385,229;  253,042;56026,604; 7,40886
 731,39; 4413,424;  240,735;56137,654; 7,46497
 731,96; 4428,928;  224,735;56472,857; 7,47437
 732,53; 4480,816;  246,119;56736,291; 7,49634
 733,10; 4519,935;  260,504;56820,956; 7,53076
 733,67; 4508,054;  248,273;56947,851; 7,51290
 734,24; 4476,403;  239,581;56591,285; 7,51854
 734,81; 4536,291;  268,811;56683,411; 7,56450
 735,38; 4484,333;  244,581;56442,692; 7,54430
 735,95; 4487,914;  236,965;56367,203; 7,57337
 736,52; 4514,417;  248,042;56606,483; 7,57007
 737,09; 4527,075;  254,657;56186,840; 7,63857
 737,66; 4579,809;  324,196;56445,120; 7,58293
 738,23; 4539,466;  242,888;56470,169; 7,64145
 738,80; 4683,585;  321,503;56799,065; 7,72357
 739,37; 4591,089;  275,965;56994,499; 7,60796
 739,94; 4616,131;  247,580;56972,240; 7,70132
 740,51; 4781,326;  392,273;57077,751; 7,74282
 741,07; 4633,368;  249,350;56955,801; 7,73108
 741,64; 4687,641;  287,349;57183,235; 7,73394
 742,21; 4691,222;  263,965;57294,976; 7,76289
 742,78; 4675,110;  234,273;57027,641; 7,81929
 743,35; 4714,921;  253,965;57277,152; 7,82306
 743,92; 4742,809;  298,426;57446,663; 7,77694
 744,49; 4766,236;  291,580;57263,174; 7,85419
 745,06; 4730,816;  245,119;57414,146; 7,84638
 745,63; 4710,243;  234,734;57405,273; 7,82835
 746,19; 4758,746;  256,657;57336,168; 7,88740
 746,76; 4784,942;  247,503;57463,679; 7,93034
 747,33; 4787,907;  246,965;57425,113; 7,94174
 747,90; 4852,487;  271,272;57588,239; 7,99277
 748,47; 4827,452;  271,118;57525,135; 7,95810
 749,04; 4864,264;  267,118;57555,492; 8,02457
 749,61; 4911,998;  284,426;57566,234; 8,07861
 750,17; 4905,040;  287,272;57659,360; 8,04881
 750,74; 4889,159;  273,195;57362,794; 8,08547
 751,31; 4890,970;  249,811;57369,459; 8,12533
 751,88; 4917,781;  226,887;57272,893; 8,22300
 752,45; 4917,977;  254,272;57446,634; 8,15442
 753,02; 4976,480;  272,657;57291,991; 8,24952
 753,58; 4938,907;  244,657;57051,195; 8,26357
 754,15; 4968,026;  251,657;57378,090; 8,25602
 754,72; 4959,222;  248,964;57092,601; 8,28634
 755,29; 4909,110;  224,810;56863,496; 8,27049
 755,86; 4998,998;  250,349;57029,546; 8,36336
 756,42; 5038,424;  260,195;56920,057; 8,43318
 756,99; 5000,928;  226,426;56948,029; 8,41743
 757,56; 5040,047;  235,964;56885,002; 8,48043
 758,13; 5018,243;  196,349;56812,436; 8,51683
 758,70; 5075,208;  226,810;56848,947; 8,56272
 759,26; 5097,019;  222,579;56970,227; 8,58968
 759,83; 5111,522;  229,810;57070,045; 8,58848
 760,40; 5106,564;  212,041;56890,710; 8,63557
 760,97; 5132,299;  211,348;56921,606; 8,67735
 761,53; 5145,725;  192,195;56504,809; 8,79648
 762,10; 5127,998;  191,656;56563,935; 8,75668
 762,67; 5161,501;  223,271;56603,061; 8,75887
 763,24; 5133,466;  183,810;56051,341; 8,85963
 763,80; 5179,431;  223,425;56241,237; 8,84720
 764,37; 5215,550;  211,964;56300,748; 8,92083
 764,94; 5154,592;  196,656;55696,720; 8,93321
 765,50; 5163,788;  204,271;55714,924; 8,93435
 766,07; 5236,522;  246,733;55810,819; 8,98024
 766,64; 5176,103;  216,194;55484,253; 8,97428
 767,21; 5264,376;  214,656;55393,687; 9,15152
 767,77; 5268,494;  232,656;55221,660; 9,15790
 768,34; 5256,075;  244,579;55194,170; 9,12017
 768,91; 5281,425;  245,271;55060,912; 9,18744
 769,47; 5296,236;  243,348;55117,500; 9,20814
 770,04; 5322,432;  244,579;54956,088; 9,28114
 770,61; 5270,320;  223,733;54728,368; 9,25901
 771,18; 5295,746;  212,271;54628,725; 9,34180
 771,74; 5327,096;  238,040;54811,467; 9,32515
 772,31; 5334,369;  245,040;54589,054; 9,36502
 772,88; 5333,103;  213,425;54299,181; 9,46585
 773,44; 5355,222;  223,425;54185,999; 9,50992
 774,01; 5364,802;  236,886;54236,741; 9,49617
 774,58; 5357,613;  227,655;53946,098; 9,54971
 775,14; 5333,425;  212,271;54039,532; 9,51405
 775,71; 5401,851;  223,809;53986,428; 9,63131
 776,27; 5457,893;  276,578;53841,169; 9,67302
 776,84; 5532,397;  328,425;53956,142; 9,70389
 777,41; 5460,285;  240,117;53691,191; 9,76625
 777,97; 5431,711;  220,886;53428,394; 9,79340
 778,54; 5480,215;  248,194;53390,290; 9,84534
 779,11; 5555,872;  270,194;53495,262; 9,93081
 779,67; 5505,453;  222,117;53410,004; 9,93334
 780,24; 5525,802;  232,578;53165,592; 9,99985
 780,80; 5583,383;  250,117;53200,026;10,07229
 781,37; 5579,578;  253,270;53104,844;10,07786
 781,94; 5544,774;  245,193;52835,740;10,07706
 782,50; 5630,355;  242,193;52840,405;10,24400
 783,07; 5642,012;  257,424;52875,762;10,23329
 783,63; 5624,362;  237,116;52575,350;10,29314
 784,20; 5633,404;  265,963;52647,322;10,24685
 784,77; 5676,369;  245,809;52351,525;10,42220
 785,33; 5613,103;  220,886;52246,036;10,36464
 785,90; 5630,068;  240,193;52147,162;10,38372
 786,46; 5703,956;  261,732;52029,519;10,51276
 787,03; 5680,075;  234,116;51986,569;10,52309
 787,59; 5703,809;  236,270;51863,772;10,59036
 788,16; 5699,467;  248,962;51771,283;10,57892
 788,73; 5716,278;  251,885;51533,102;10,65574
 789,29; 5712,704;  234,962;51263,689;10,73462
 789,86; 5760,823;  268,962;51160,585;10,79129
 790,42; 5739,788;  232,039;51047,942;10,83863
 790,99; 5724,907;  244,424;50660,991;10,87040
 791,55; 5736,872;  235,193;50632,425;10,91663
 792,12; 5800,760;  272,347;50627,167;10,97892
 792,68; 5773,110;  240,270;50357,293;11,03984
 793,25; 5805,844;  248,270;50088,727;11,15073
 793,81; 5856,963;  337,808;49829,546;11,15167
 794,38; 5702,159;  217,731;49614,211;11,10287
 794,94; 5766,970;  231,962;49474,260;11,24035
 795,51; 5761,704;  253,885;49144,463;11,26560
 796,07; 5746,900;  242,116;48961,897;11,29887
 796,64; 5798,558;  265,808;49067,024;11,33732
 797,20; 5754,369;  253,654;48505,073;11,40011
 797,77; 5711,718;  215,808;48153,353;11,46473
 798,33; 5733,376;  239,962;48140,479;11,46838
 798,90; 5783,879;  260,269;47978,913;11,57537
 799,46; 5693,767;  236,808;47545,578;11,53477
 800,03; 5748,117;  254,423;47523,627;11,62214
 800,59; 5781,159;  249,423;47206,292;11,78046
 801,15; 5780,970;  257,039;47071,342;11,79967
 801,72; 5718,012;  258,577;46631,929;11,77278
 802,28; 5745,900;  279,115;46404,979;11,85189
 802,85; 5693,634;  239,423;46243,413;11,85595
 803,41; 5731,907;  249,346;46031,231;11,97539
 803,98; 5704,565;  239,500;45572,511;12,05538
 804,54; 5655,068;  244,192;45372,792;11,98990
 805,11; 5690,033;  259,423;45161,226;12,09441
 805,67; 5730,844;  272,500;45023,967;12,19702
 806,23; 5700,271;  254,269;44521,401;12,30259
 806,80; 5704,851;  275,192;44444,528;12,29283
 807,36; 5702,201;  278,346;44432,346;12,28395
 807,93; 5706,935;  288,577;44183,242;12,34400
 808,49; 5633,131;  244,269;43786,291;12,37623
 809,05; 5637,096;  231,423;43577,648;12,47092
 809,62; 5665,292;  268,577;43471,005;12,49169
 810,18; 5703,488;  255,730;43466,285;12,60747
 810,74; 5653,376;  226,807;43140,412;12,64533
 811,31; 5639,956;  230,807;43011,999;12,64375
 811,87; 5695,767;  256,115;42790,357;12,78888
 812,44; 5727,425;  286,807;42823,867;12,79030
 813,00; 5641,082;  201,499;42559,148;12,84203
 813,56; 5773,201;  244,115;42621,812;13,04716
 814,13; 5773,781;  239,576;42495,708;13,09681
 814,69; 5730,669;  239,730;42243,603;13,07246
 815,25; 5682,788;  208,115;41902,037;13,13063
 815,82; 5717,292;  260,345;41795,087;13,13827
 816,38; 5753,026;  295,038;41620,982;13,20717
 816,94; 5700,145;  229,576;41280,955;13,32615
 817,51; 5667,649;  219,961;41041,081;13,34527
 818,07; 5687,537;  230,268;40799,746;13,45166
 818,63; 5671,271;  236,884;40584,410;13,46895
 819,20; 5678,313;  239,961;40555,537;13,48946
 819,76; 5634,586;  228,345;40167,509;13,53619
 820,32; 5701,474;  270,191;40100,482;13,63606
 820,89; 5684,208;  253,884;39798,685;13,73208
 821,45; 5609,327;  228,961;39533,427;13,68894
 822,01; 5641,907;  244,961;39248,014;13,83724
 822,57; 5615,488;  255,037;39209,295;13,76088
 823,14; 5533,914;  212,807;38894,959;13,75598
 823,70; 5534,187;  218,422;38650,086;13,83173
 824,26; 5500,306;  229,499;38514,673;13,76723
 824,82; 5615,502;  259,422;38380,338;14,05024
 825,39; 5524,005;  229,037;38013,541;14,01360
 825,95; 5518,509;  249,576;38114,745;13,91499
 826,51; 5490,704;  242,653;37663,409;14,02444
 827,08; 5526,131;  281,191;37770,459;13,99051
 827,64; 5546,788;  247,729;37523,277;14,21591
 828,20; 5472,907;  230,037;37271,634;14,15401
 828,76; 5524,565;  265,652;37345,145;14,18281
 829,32; 5538,376;  274,268;37065,579;14,30802
 829,89; 5476,649;  208,268;36921,090;14,35025
 830,45; 5531,614;  248,037;36847,524;14,43620
 831,01; 5551,040;  238,114;36699,112;14,57153
 831,57; 5517,544;  239,575;36600,392;14,51554
 832,14; 5540,278;  244,268;36474,595;14,61762
 832,70; 5513,320;  216,883;36269,337;14,69092
 833,26; 5516,285;  201,806;36224,694;14,75306
 833,82; 5581,481;  233,421;36114,205;14,90508
 834,38; 5590,600;  217,421;36174,101;14,94348
 834,95; 5572,565;  218,729;36036,535;14,94741
 835,51; 5580,222;  192,498;35837,584;15,11491
 836,07; 5661,495;  231,344;35939,172;15,20717
 836,63; 5704,998;  247,883;35878,298;15,31589
 837,19; 5651,656;  252,806;35736,886;15,21485
 837,75; 5611,313;  200,652;35462,012;15,34445
 838,32; 5707,740;  258,113;35601,369;15,41914
 838,88; 5741,858;  256,037;35604,495;15,51927
 839,44; 5798,208;  248,806;35466,314;15,75751
 840,00; 5757,635;  251,113;35435,440;15,65049
 840,56; 5706,677;  226,190;35080,797;15,72385
 841,12; 5723,565;  222,652;35015,385;15,81052
 841,68; 5665,991;  209,806;34833,896;15,75835
 842,25; 5722,956;  228,729;34901,484;15,84595
 842,81; 5695,537;  211,344;34620,072;15,93838
 843,37; 5678,425;  201,421;34701,506;15,87533
 843,93; 5734,698;  220,729;34458,478;16,10494
 844,49; 5749,124;  238,267;34559,143;16,05687
 845,05; 5730,012;  202,190;34365,500;16,18058
 845,61; 5762,208;  245,036;34503,857;16,10438
 846,17; 5749,481;  221,498;34338,214;16,20315
 846,73; 5798,061;  232,575;34276,264;16,34807
 847,29; 5732,334;  211,882;34110,851;16,28501
 847,86; 5762,991;  216,805;33952,055;16,44033
 848,42; 5736,572;  219,190;33779,566;16,44017
 848,98; 5791,383;  236,267;33691,307;16,60472
 849,54; 5784,733;  214,190;33850,203;16,56125
 850,10; 5828,851;  242,728;33689,714;16,70143
 850,66; 5785,970;  210,574;33424,686;16,78623
 851,22; 5752,089;  199,574;33423,812;16,71224
 851,78; 5824,977;  256,959;33446,939;16,77620
 852,34; 5812,789;  240,728;33199,757;16,90602
 852,90; 5807,138;  224,805;33124,268;16,96785
 853,46; 5803,719;  218,805;32893,779;17,09233
 854,02; 5819,684;  234,113;32900,213;17,09898
 854,58; 5810,110;  218,113;32651,801;17,24133
 855,14; 5821,998;  224,113;32503,927;17,34175
 855,70; 5740,040;  186,728;32436,823;17,21952
 856,26; 5840,467;  225,728;32374,795;17,46470
 856,82; 5812,509;  230,805;32171,306;17,47532
 857,38; 5848,243;  268,189;32077,740;17,54207
 857,94; 5833,439;  221,420;31949,559;17,68783
 858,50; 5841,250;  250,035;31825,531;17,70745
 859,06; 5772,984;  217,959;31667,196;17,66347
 859,62; 5817,257;  238,420;31613,399;17,78117
 860,18; 5806,376;  231,189;31378,064;17,89967
 860,74; 5788,956;  191,266;31234,882;18,03170
 861,30; 5777,537;  193,497;31190,163;18,01497
 861,86; 5860,117;  286,805;31166,597;18,04841
 862,42; 5767,313;  218,497;30958,415;18,05085
 862,98; 5856,893;  251,881;30923,618;18,27419
 863,54; 5765,705;  221,574;30667,822;18,20957
 864,10; 5757,747;  221,958;30784,179;18,11317
 864,66; 5751,712;  201,112;30474,613;18,33485
 865,22; 5784,754;  225,420;30385,508;18,43275
 865,78; 5793,719;  237,112;30299,865;18,48336
 866,34; 5769,607;  208,958;30246,992;18,51203
 866,90; 5766,033;  232,112;30103,272;18,52597
 867,45; 5713,537;  233,958;29852,475;18,50052
 868,01; 5737,348;  236,343;29685,986;18,67936
 868,57; 5703,082;  229,650;29551,727;18,66659
 869,13; 5663,586;  201,650;29420,085;18,69346
 869,69; 5676,859;  217,189;29280,826;18,78523
 870,25; 5699,977;  191,112;29178,491;19,00436
 870,81; 5707,789;  218,342;29103,156;19,00461
 871,37; 5721,523;  240,112;28996,359;19,06164
 871,93; 5697,103;  247,189;28885,178;19,03037
 872,49; 5724,453;  273,804;28570,919;19,26221
 873,04; 5627,803;  203,958;28394,045;19,24026
 873,60; 5621,229;  206,188;28346,941;19,24270
 874,16; 5639,502;  237,650;28232,375;19,29596
 874,72; 5657,040;  217,727;28196,144;19,44110
 875,28; 5677,117;  229,958;28072,067;19,56446
 875,84; 5639,194;  224,804;27981,837;19,50637
 876,40; 5653,117;  216,727;27949,144;19,60302
 876,95; 5681,502;  229,265;27904,990;19,70043
 877,51; 5765,579;  263,265;27900,606;19,90898
 878,07; 5770,194;  266,265;27896,606;19,91987
 878,63; 5796,425;  220,342;27927,913;20,12476
 879,19; 5789,810;  243,342;27907,606;20,04921
 879,75; 5800,656;  222,419;27940,606;20,12483
 880,30; 5813,194;  215,112;27936,990;20,19373
 880,86; 5898,502;  263,727;28103,990;20,23966
 881,42; 5857,810;  203,881;28077,298;20,28430
 881,98; 5915,733;  237,188;28188,221;20,31604
 882,54; 5936,348;  221,804;28279,067;20,36743
 883,09; 6023,348;  239,342;28396,452;20,54190
 883,65; 6030,271;  213,419;28461,221;20,59223
 884,21; 6129,810;  267,804;28696,221;20,62023
 884,77; 6095,348;  219,958;28725,298;20,61154
 885,32; 6132,502;  222,342;28812,298;20,67215
 885,88; 6234,194;  270,265;29006,837;20,75379
 886,44; 6276,810;  228,342;29103,760;20,94677
 887,00; 6345,194;  249,650;29041,913;21,17077
 887,56; 6350,040;  223,650;29237,067;21,11571
 888,11; 6366,810;  237,804;29266,298;21,11376
 888,67; 6427,656;  250,265;29413,375;21,18221
 889,23; 6466,117;  233,188;29495,913;21,29989
 889,79; 6409,810;  210,958;29259,760;21,33944
 890,34; 6508,194;  237,112;29289,837;21,58518
 890,90; 6551,579;  312,342;29409,760;21,44258
 891,46; 6469,348;  218,881;29309,990;21,48583
 892,01; 6556,040;  244,035;29297,144;21,72575
 892,57; 6558,348;  262,496;29222,990;21,73945
 893,13; 6494,579;  246,573;29041,221;21,69850
 893,69; 6465,502;  212,419;29061,990;21,67479
 894,24; 6478,733;  226,727;28902,221;21,80261
 894,80; 6499,887;  221,804;28724,067;22,02661
 895,36; 6464,810;  233,804;28604,144;21,96310
 895,91; 6457,502;  230,881;28422,452;22,08682
 896,47; 6464,579;  250,188;28324,298;22,13566
 897,03; 6428,040;  230,342;28097,067;22,24050
 897,58; 6403,656;  239,112;27986,529;22,21664
 898,14; 6365,963;  238,958;27858,683;22,18344
 898,70; 6348,271;  204,727;27646,683;22,38741
 899,25; 6377,810;  220,112;27692,913;22,41380
 899,81; 6386,348;  243,573;27417,221;22,60563
 900,37; 6322,810;  201,496;27214,144;22,66092
 900,92; 6360,194;  236,958;27294,298;22,63059
 901,48; 6307,348;  221,573;27185,221;22,57030
 902,03; 6297,040;  232,727;26943,375;22,70373
 902,59; 6313,963;  214,881;26881,298;22,87177
 903,15; 6286,887;  237,188;26732,067;22,83346
 903,70; 6240,502;  229,650;26462,144;22,91376
 904,26; 6222,502;  216,342;26371,837;22,96328
 904,82; 6244,348;  218,496;26383,760;23,02997
 905,37; 6238,502;  236,804;26159,606;23,15220
 905,93; 6201,194;  216,112;26090,452;23,13134
 906,48; 6225,194;  240,419;26039,452;23,19767
 907,04; 6244,117;  242,342;25951,221;23,34514
 907,60; 6202,271;  236,188;25645,452;23,47995
 908,15; 6154,656;  218,035;25557,221;23,42862
 908,71; 6223,963;  243,804;25510,452;23,66820
 909,26; 6172,348;  234,419;25440,837;23,55721
 909,82; 6174,810;  237,035;25346,913;23,64717
 910,37; 6194,040;  264,958;25194,298;23,78355
 910,93; 6144,117;  211,958;24943,529;23,98618
 911,48; 6113,117;  219,188;24847,837;23,93119
 912,04; 6134,887;  215,265;24681,529;24,19504
 912,60; 6130,887;  221,573;24733,375;24,10803
 913,15; 6111,348;  221,804;24549,298;24,20942
 913,71; 6044,579;  212,650;24407,144;24,10436
 914,26; 6054,117;  205,112;24294,221;24,28071
 914,82; 6080,733;  234,881;24241,529;24,35097
 915,37; 6061,579;  218,573;24162,606;24,40276
 915,93; 6071,194;  275,573;23994,375;24,43471
 916,48; 6034,271;  218,112;23872,760;24,58781
 917,04; 6032,117;  238,112;23744,067;24,64910
 917,59; 6018,963;  254,881;23735,375;24,54839
 918,15; 5949,040;  187,188;23463,606;24,75403
 918,70; 5987,194;  220,881;23407,452;24,86919
 919,26; 5984,117;  227,881;23336,760;24,90920
 919,81; 5941,887;  204,419;23087,067;25,07344
 920,37; 5918,733;  220,419;23111,067;24,89363
 920,92; 5940,348;  242,727;23051,606;24,97984
 921,48; 5928,425;  210,112;22784,990;25,33043
 922,03; 5927,579;  207,804;22802,375;25,31482
 922,59; 5855,656;  227,650;22563,760;25,19689
 923,14; 5888,271;  218,804;22489,529;25,45704
 923,69; 5882,656;  242,035;22474,375;25,37124
 924,25; 5925,963;  244,650;22413,606;25,62734
 924,80; 5821,579;  223,804;22212,529;25,45748
 925,36; 5825,963;  219,881;22110,760;25,60922
 925,91; 5815,733;  211,573;21957,221;25,77141
 926,47; 5796,348;  209,881;21860,298;25,80305
 927,02; 5863,887;  302,035;21856,913;25,80322
 927,57; 5752,579;  217,188;21696,760;25,77049
 928,13; 5754,348;  210,188;21592,990;25,92813
 928,68; 5710,810;  220,035;21514,375;25,78514
 929,24; 5669,194;  191,727;21244,298;26,01804
 929,79; 5688,887;  214,112;21192,606;26,09708
 930,34; 5711,887;  225,419;21055,375;26,33931
 930,90; 5656,656;  213,727;20958,067;26,23814
 931,45; 5699,348;  221,342;20992,683;26,37290
 932,01; 5712,117;  223,265;20861,683;26,59531
 932,56; 5708,656;  248,035;20724,606;26,66765
 933,11; 5702,733;  251,958;20727,529;26,62087
 933,67; 5639,040;  220,496;20524,913;26,68653
 934,22; 5673,194;  233,881;20393,375;26,98140
 934,77; 5679,348;  252,804;20296,067;27,07416
 935,33; 5643,579;  221,342;20167,221;27,18475
 935,88; 5636,502;  239,650;20108,990;27,16171
 936,43; 5630,040;  217,342;20009,452;27,34776
 936,99; 5606,579;  225,804;19949,529;27,28072
 937,54; 5550,271;  211,881;19729,375;27,35182
 938,09; 5613,194;  230,496;19758,913;27,56341
 938,65; 5594,502;  232,727;19549,837;27,75661
 939,20; 5559,502;  199,573;19499,298;27,77205
 939,75; 5538,733;  213,188;19381,452;27,78313
 940,31; 5465,425;  200,958;19279,221;27,59406
 940,86; 5528,348;  221,727;19287,683;27,83297
 941,41; 5572,348;  315,342;19231,760;27,79071
 941,96; 5459,963;  216,112;19048,452;27,84493
 942,52; 5413,271;  216,650;18962,144;27,72197
 943,07; 5424,117;  199,881;18841,221;28,02500
 943,62; 5395,117;  216,958;18721,683;27,98290
 944,18; 5408,271;  193,419;18682,837;28,20452
 944,73; 5420,040;  220,342;18634,760;28,23710
 945,28; 5307,733;  179,419;18410,452;28,12958
 945,83; 5330,040;  207,727;18356,067;28,22469
 946,39; 5378,117;  213,265;18309,452;28,54111
 946,94; 5374,963;  237,958;18258,144;28,50695
 947,49; 5337,502;  207,804;18111,606;28,65145
 948,04; 5341,348;  261,342;18148,913;28,39964
 948,59; 5343,040;  240,727;17995,606;28,73753
 949,15; 5330,425;  202,650;17898,067;28,97798
 949,70; 5285,502;  214,881;17852,913;28,74822
 950,25; 5311,502;  224,727;17730,452;29,05778
 950,80; 5276,271;  183,112;17598,375;29,24538
 951,36; 5256,656;  181,881;17631,683;29,08214
 951,91; 5281,425;  224,881;17571,375;29,15024
 952,46; 5241,733;  210,573;17321,144;29,40381
 953,01; 5278,425;  229,573;17340,913;29,50588
 953,56; 5211,194;  190,188;17219,760;29,48404
 954,11; 5259,810;  224,419;17161,606;29,72979
 954,67; 5220,348;  209,419;17025,760;29,79797
 955,22; 5192,887;  197,035;16903,067;29,90448
 955,77; 5230,117;  240,419;16948,067;29,86475
 956,32; 5230,117;  276,804;16835,683;29,91334
 956,87; 5120,887;  204,342;16721,144;29,76693
 957,42; 5135,117;  211,265;16624,990;29,99838
 957,98; 5137,194;  211,112;16500,837;30,24043
 958,53; 5183,810;  245,112;16541,990;30,30456
 959,08; 5067,271;  195,958;16369,144;30,11969
 959,63; 5062,579;  218,419;16277,298;30,16499
 960,18; 5077,887;  225,958;16233,375;30,31050
 960,73; 5043,348;  220,496;16162,913;30,25170
 961,28; 5028,502;  192,419;16069,144;30,46020
 961,83; 5026,810;  221,419;16084,990;30,29198
 962,39; 4971,271;  191,881;15888,298;30,44893
 962,94; 4937,733;  244,035;15752,683;30,26504
 963,49; 4962,117;  225,650;15728,683;30,55188
 964,04; 4913,810;  225,881;15720,221;30,25575
 964,59; 4884,579;  182,112;15514,375;30,67041
 965,14; 4901,963;  236,342;15509,913;30,54702
 965,69; 4858,579;  217,804;15353,837;30,66045
 966,24; 4817,502;  202,496;15263,606;30,64187
 966,79; 4822,887;  226,035;15219,375;30,65929
 967,34; 4782,502;  188,112;15061,067;30,89090
 967,89; 4796,194;  205,112;15009,606;31,01141
 968,44; 4800,579;  218,650;14912,298;31,18306
 968,99; 4786,194;  225,650;14862,452;31,15806
 969,55; 4752,117;  219,958;14754,529;31,18193
 970,10; 4704,502;  231,112;14645,529;31,03414
 970,65; 4737,117;  244,650;14603,529;31,28703
 971,20; 4683,579;  209,650;14477,452;31,35682
 971,75; 4638,194;  190,727;14310,221;31,49877
 972,30; 4640,579;  219,496;14272,067;31,46102
 972,85; 4623,040;  213,650;14228,144;31,46307
 973,40; 4566,733;  207,881;14061,606;31,46339
 973,95; 4594,963;  223,496;14010,298;31,70762
 974,50; 4567,040;  256,035;13902,529;31,59057
 975,05; 4510,963;  218,265;13838,837;31,51629
 975,60; 4531,810;  232,265;13767,144;31,76640
 976,15; 4476,579;  203,265;13668,144;31,73674
 976,70; 4473,040;  218,573;13569,913;31,86547
 977,25; 4476,194;  231,188;13530,221;31,91966
 977,80; 4451,271;  212,419;13381,683;32,18746
 978,35; 4388,502;  236,727;13185,606;32,06281
 978,89; 4353,887;  197,112;13128,760;32,14420
 979,44; 4341,963;  227,265;13108,375;31,94366
 979,99; 4318,425;  213,573;12933,606;32,27077
 980,54; 4288,194;  236,342;12832,990;32,16611
 981,09; 4284,810;  237,265;12713,760;32,44136
 981,64; 4254,425;  219,035;12605,913;32,57794
 982,19; 4225,348;  259,112;12582,067;32,18576
 982,74; 4153,579;  235,188;12442,683;32,09824
 983,29; 4150,579;  205,573;12301,606;32,61405
 983,84; 4107,887;  217,342;12210,452;32,43983
 984,39; 4191,502;  310,727;12187,837;32,67441
 984,94; 4048,271;  189,573;12031,529;32,58497
 985,49; 4094,271;  245,188;11977,760;32,80681
 986,03; 4047,040;  238,804;11891,221;32,68194
 986,58; 4052,194;  274,265;11750,606;32,91928
 987,13; 3985,810;  230,573;11627,452;32,94969
 987,68; 3963,963;  235,419;11578,913;32,86945
 988,23; 3951,887;  237,265;11425,837;33,20014
 988,78; 3921,348;  208,958;11294,375;33,48895
 989,33; 3874,117;  233,727;11213,760;33,15464
 989,88; 3869,810;  257,035;11183,760;33,06366
 990,42; 3812,579;  215,265;11048,375;33,20666
 990,97; 3769,425;  226,419;10869,990;33,28775
 991,52; 3767,656;  247,496;10839,375;33,23452
 992,07; 3799,040;  267,342;10761,760;33,65311
 992,62; 3705,733;  230,804;10614,913;33,46391
 993,17; 3701,963;  241,727;10543,298;33,58941
 993,71; 3685,117;  248,112;10428,990;33,75942
 994,26; 3587,656;  221,112;10257,144;33,54457
 994,81; 3595,117;  246,881;10238,529;33,51035
 995,36; 3572,040;  223,035;10079,144;33,97898
 995,91; 3552,887;  238,727;10039,837;33,81413
 996,45; 3512,579;  222,188; 9938,298;33,86531
 997,00; 3458,963;  200,496; 9753,837;34,10815
 997,55; 3449,963;  236,342; 9709,067;33,92499
 998,10; 3473,117;  261,188; 9612,375;34,34782
 998,65; 3414,117;  229,496; 9535,760;34,22019
 999,19; 3373,887;  252,650; 9417,606;34,05621
 999,74; 3351,579;  273,573; 9292,683;34,12760
1000,29; 3322,194;  232,881; 9223,606;34,36112
1000,84; 3283,117;  220,265; 9081,606;34,56421
1001,38; 3255,733;  228,342; 9033,529;34,38190
1001,93; 3226,733;  245,035; 8918,144;34,37865
1002,48; 3198,963;  218,804; 8759,144;34,89509
1003,03; 3199,040;  249,035; 8755,221;34,68071
1003,57; 3175,117;  239,727; 8630,144;34,98503
1004,12; 3139,117;  281,958; 8567,144;34,48516
1004,67; 3118,502;  232,881; 8431,760;35,19531
1005,22; 3054,963;  224,727; 8295,529;35,06760
1005,76; 2993,656;  211,112; 8157,144;35,01803
1006,31; 3017,348;  244,650; 8153,221;35,05941
1006,86; 2921,194;  221,804; 7995,606;34,72420
1007,40; 2889,733;  224,342; 7862,067;34,89770
1007,95; 2875,117;  233,342; 7785,067;34,98240
1008,50; 2834,271;  242,727; 7646,144;35,00470
1009,04; 2813,271;  231,496; 7607,221;35,00368
1009,59; 2752,194;  244,265; 7390,837;35,09276
1010,14; 2742,117;  221,958; 7335,683;35,42672
1010,68; 2677,810;  247,035; 7225,375;34,83314
1011,23; 2649,810;  238,650; 7128,298;34,99685
1011,78; 2639,425;  241,804; 7045,298;35,24103
1012,32; 2628,271;  273,112; 7006,067;34,97958
1012,87; 2628,194;  259,496; 6934,683;35,48512
1013,42; 2536,040;  214,035; 6801,067;35,25117
1013,96; 2568,579;  269,112; 6798,606;35,21662
1014,51; 2510,656;  200,573; 6707,760;35,50048
1015,06; 2487,810;  213,650; 6650,529;35,33016
1015,60; 2551,810;  269,035; 6763,760;35,14814
1016,15; 2535,733;  212,265; 6685,144;35,89542
1016,69; 2526,733;  227,727; 6729,683;35,35868
1017,24; 2522,810;  209,496; 6737,760;35,43536
1017,79; 2618,271;  268,727; 6799,298;35,97762
1018,33; 2563,502;  224,419; 6773,837;35,71436
1018,88; 2620,425;  241,573; 6855,067;35,96967
1019,42; 2610,117;  221,573; 6823,298;36,18061
1019,97; 2610,425;  212,573; 6828,067;36,24600
1020,51; 2686,963;  264,496; 6893,221;36,54500
1021,06; 2617,425;  203,035; 6810,144;36,54231
1021,61; 2607,271;  194,188; 6830,760;36,36038
1022,15; 2582,348;  176,342; 6789,913;36,37983
1022,70; 2624,733;  225,881; 6764,837;36,68555
1023,24; 2603,963;  206,419; 6717,067;36,82497
1023,79; 2573,194;  222,342; 6647,529;36,58807
1024,33; 2567,579;  219,496; 6598,606;36,80894
1024,88; 2537,810;  229,958; 6522,452;36,67627
1025,42; 2496,656;  234,881; 6438,144;36,46105
1025,97; 2480,502;  217,265; 6336,298;36,98684
1026,51; 2424,810;  183,419; 6218,683;37,13824
1027,06; 2424,271;  210,112; 6161,837;37,20198
1027,60; 2397,887;  229,342; 6089,375;37,00567
1028,15; 2376,348;  242,188; 5973,144;37,23916
1028,69; 2287,887;  180,881; 5842,144;37,21794
1029,24; 2307,963;  202,804; 5803,452;37,58779
1029,78; 2254,117;  211,573; 5682,375;37,33537
1030,33; 2215,271;  203,035; 5578,067;37,43673
1030,87; 2183,194;  218,112; 5510,913;37,12746
1031,42; 2142,656;  198,265; 5445,760;37,05369
1031,96; 2141,271;  237,881; 5380,760;37,01021
1032,51; 2111,963;  210,958; 5291,298;37,41887
1033,05; 2098,579;  225,342; 5215,683;37,53725
1033,60; 2043,040;  192,727; 5095,683;37,73873
1034,14; 2014,194;  204,496; 5053,683;37,31962
1034,69; 2031,656;  216,881; 4969,221;38,18697
1035,23; 1968,887;  217,958; 4896,683;37,42320
1035,77; 1962,425;  220,958; 4843,221;37,67564
1036,32; 1907,656;  185,958; 4749,067;37,73081
1036,86; 1916,963;  224,804; 4717,606;37,66379
1037,41; 1907,040;  239,496; 4641,298;37,88322
1037,95; 1847,579;  194,265; 4572,529;37,76185
1038,50; 1823,502;  209,650; 4526,913;37,38136
1039,04; 1834,117;  226,188; 4475,760;37,83744
1039,58; 1783,117;  196,112; 4386,067;37,87643
1040,13; 1764,656;  209,727; 4335,144;37,69143
1040,67; 1783,963;  253,419; 4329,606;37,54843
1041,21; 1767,502;  249,496; 4212,606;38,30340
1041,76; 1710,887;  205,112; 4137,913;38,28759
1042,30; 1720,810;  212,188; 4111,067;38,69372
1042,85; 1656,348;  210,265; 4038,298;37,77613
1043,39; 1646,887;  204,881; 3958,221;38,41926
1043,93; 1644,348;  236,419; 3959,990;37,81125
1044,48; 1639,887;  227,958; 3868,298;38,78563
1045,02; 1603,810;  208,650; 3796,298;38,88786
1045,56; 1609,656;  242,881; 3765,144;38,80388
1046,11; 1575,810;  216,958; 3727,683;38,70574
1046,65; 1565,733;  229,727; 3693,760;38,56793
1047,19; 1506,656;  204,958; 3608,760;38,24247
1047,74; 1465,040;  188,496; 3572,529;37,72257
1048,28; 1495,271;  218,650; 3489,144;39,03450
1048,82; 1517,040;  250,727; 3482,067;39,18849
1049,37; 1457,887;  238,573; 3426,452;38,24843
1049,91; 1451,040;  229,112; 3396,298;38,58089
1050,45; 1447,194;  231,035; 3336,760;39,15864
1050,99; 1412,656;  227,342; 3293,606;38,65661
1051,54; 1386,040;  205,727; 3239,606;38,90444
1052,08; 1412,733;  238,727; 3191,375;39,76111
1052,62; 1369,887;  232,188; 3154,990;38,92491
1053,16; 1329,963;  219,112; 3093,837;38,64202
1053,71; 1343,963;  228,035; 3072,683;39,22907
1054,25; 1314,579;  230,035; 2999,990;39,15385
1054,79; 1316,733;  228,035; 2992,221;39,38584
1055,33; 1243,579;  196,573; 2899,913;38,73008
1055,88; 1279,271;  219,804; 2909,606;39,38830
1056,42; 1272,656;  240,188; 2868,837;39,27750
1056,96; 1259,117;  241,804; 2811,067;39,59553
1057,50; 1233,963;  228,496; 2782,606;39,36665
1058,05; 1207,348;  220,727; 2720,990;39,46069
1058,59; 1215,194;  255,112; 2713,067;39,06021
1059,13; 1163,502;  203,958; 2657,837;39,10316
1059,67; 1172,502;  233,419; 2638,298;39,04906
1060,21; 1157,733;  232,804; 2584,375;39,33238
1060,76; 1156,271;  231,496; 2549,221;39,90012
1061,30; 1169,348;  243,650; 2509,221;40,85937
1061,84; 1143,194;  232,804; 2471,529;40,66557
1062,38; 1074,502;  206,650; 2390,452;39,74041
1062,92; 1149,887;  275,727; 2431,221;40,55495
1063,46; 1107,194;  240,804; 2367,529;40,73824
1064,01; 1066,810;  219,112; 2318,375;40,38074
1064,55; 1059,887;  234,265; 2290,837;40,14552
1065,09; 1025,963;  212,804; 2254,913;39,81959
1065,63; 1060,810;  258,727; 2261,990;40,03880
1066,17; 1053,040;  275,573; 2229,990;39,78001
1066,71; 1048,656;  261,573; 2204,913;40,50154
1067,25; 1011,348;  226,419; 2139,452;41,03060
1067,80; 1004,271;  245,804; 2142,452;39,98988
1068,34; 1009,040;  274,342; 2126,221;39,67312
1068,88;  964,502;  226,958; 2069,837;40,02131
1069,42;  992,425;  252,881; 2093,683;40,17511
1069,96;  959,040;  227,804; 2022,990;40,73318
1070,50;  997,656;  269,650; 2030,375;41,34693
1071,04;  916,040;  224,573; 1976,375;39,47177
1071,58;  925,656;  224,573; 1945,837;40,73070
1072,12;  934,579;  231,265; 1955,529;40,78921
1072,66;  900,810;  225,727; 1906,837;40,15697
1073,21;  933,810;  251,342; 1913,606;41,05651
1073,75;  901,348;  237,727; 1859,221;40,92652
1074,29;  890,425;  236,881; 1834,221;40,91452
1074,83;  898,579;  252,727; 1831,606;40,90573
1075,37;  901,887;  259,419; 1789,298;41,99465
1075,91;  891,887;  249,112; 1781,529;41,94517
1076,45;  857,579;  250,727; 1764,452;40,08997
1076,99;  882,502;  249,573; 1732,375;42,68465
1077,53;  842,656;  226,419; 1698,760;41,85422
1078,07;  841,810;  242,727; 1700,144;41,10578
1078,61;  829,194;  244,188; 1684,529;40,61580
1079,15;  829,348;  236,035; 1652,298;41,89287
1079,69;  824,348;  236,727; 1634,221;42,04820
1080,23;  826,887;  271,727; 1651,837;40,22576
1080,77;  867,963;  303,188; 1674,452;41,18647
1081,31;  787,425;  230,650; 1580,067;41,26040
1081,85;  810,040;  259,804; 1603,760;40,94157
1082,39;  780,117;  236,419; 1540,913;41,67884
1082,93;  794,271;  249,573; 1540,606;42,19088
1083,47;  745,271;  234,035; 1491,529;40,65518
1084,01;  764,656;  245,342; 1497,375;41,47763
1084,55;  745,887;  235,342; 1470,375;41,33852
1085,09;  757,887;  249,265; 1468,760;41,70755
1085,63;  753,425;  242,804; 1445,298;42,46350
1086,17;  725,810;  240,419; 1409,144;41,53162
1086,71;  721,117;  219,573; 1393,913;42,70859
1087,24;  745,348;  258,958; 1399,529;42,64446
1087,78;  736,733;  266,727; 1404,606;41,30543
1088,32;  697,040;  223,881; 1352,606;41,91983
1088,86;  718,810;  252,804; 1361,298;42,03953
1089,40;  706,502;  242,112; 1338,683;42,34932
1089,94;  670,271;  218,804; 1302,529;41,65884
1090,48;  693,810;  240,650; 1276,221;43,75939
1091,02;  689,810;  256,727; 1300,990;41,47255
1091,56;  671,348;  235,573; 1257,067;42,66054
1092,10;  637,887;  212,496; 1237,837;41,48772
1092,63;  681,425;  262,881; 1258,990;42,01789
1093,17;  673,887;  239,650; 1245,298;43,17977
1093,71;  646,887;  229,496; 1209,683;42,58275
1094,25;  655,579;  269,573; 1226,683;40,33036
1094,79;  641,656;  236,188; 1192,760;42,38757
1095,33;  650,963;  243,958; 1179,529;43,50345
1095,87;  634,425;  233,573; 1156,067;43,45305
1096,40;  600,579;  216,573; 1132,913;41,90645
1096,94;  620,040;  244,958; 1138,683;41,96847
1097,48;  619,579;  255,958; 1142,760;41,00365
1098,02;  597,194;  232,958; 1094,529;42,27585
1098,56;  583,271;  217,419; 1069,067;42,95811
1099,10;  559,502;  221,573; 1062,144;40,20229
1099,63;  566,502;  212,958; 1043,837;42,55064
1100,17;  601,348;  240,496; 1067,529;43,63212
1100,71;  611,040;  271,727; 1064,913;42,77852

