
Integration time [ms]: 160,000
Averaging Nr. [scans]: 13
Smoothing Nr. [pixels]: 0
Data measured with spectrometer [name]: 2009305U1
Wave   ;Sample   ;Dark     ;Reference;Reflectance
[nm]   ;[counts] ;[counts] ;[counts] ;[%]

 175,72;  208,725;  191,519;  191,486; 0,00000
 176,32;  230,491;  226,381;  214,940; 0,00000
 176,92;  264,149;  241,524;  244,812;688,16869
 177,52;  267,466;  247,676;  245,839; 0,00000
 178,12;  245,514;  222,611;  217,278; 0,00000
 178,72;  280,260;  259,077;  248,897; 0,00000
 179,32;  254,098;  243,304;  231,741; 0,00000
 179,92;  261,872;  248,144;  237,554; 0,00000
 180,52;  247,631;  228,126;  237,935;198,85414
 181,12;  259,054;  232,682;  237,833;511,90027
 181,73;  277,665;  263,757;  264,029; 0,00000
 182,33;  371,295;  317,286;  327,322;538,16664
 182,93;  280,046;  258,060;  265,199;307,99466
 183,53;  242,563;  223,541;  225,512;965,35277
 184,13;  244,233;  226,770;  231,532;366,68256
 184,73;  277,159;  254,697;  264,670;225,23239
 185,33;  265,921;  232,099;  346,488;29,56775
 185,93;  268,440;  234,572;  343,963;30,96006
 186,53;  289,590;  246,720;  358,116;38,48459
 187,13;  310,371;  264,246;  412,664;31,07746
 187,73;  275,933;  228,801;  351,876;38,29531
 188,33;  270,747;  231,269;  359,775;30,72018
 188,93;  282,413;  241,675;  374,002;30,78586
 189,53;  280,713;  236,613;  379,198;30,92876
 190,13;  320,804;  276,331;  414,750;32,12878
 190,73;  265,083;  219,314;  352,281;34,42117
 191,34;  295,375;  248,296;  381,720;35,28548
 191,94;  265,555;  221,276;  358,118;32,35790
 192,54;  281,241;  259,775;  371,233;19,25908
 193,14;  285,642;  247,555;  368,494;31,49278
 193,74;  290,288;  243,865;  364,133;38,60010
 194,34;  290,864;  238,014;  369,577;40,17108
 194,94;  254,913;  207,324;  338,161;36,37286
 195,54;  221,320;  189,329;  331,243;22,54206
 196,14;  246,222;  216,165;  357,725;21,23288
 196,74;  244,636;  215,486;  327,390;26,04889
 197,34;  231,685;  195,926;  336,271;25,47900
 197,94;  256,656;  224,630;  362,240;23,27261
 198,54;  259,521;  226,165;  386,988;20,74073
 199,14;  246,210;  218,614;  377,550;17,36301
 199,74;  227,708;  191,614;  370,422;20,18600
 200,34;  220,116;  183,689;  369,521;19,60180
 200,94;  272,146;  218,082;  405,289;28,87933
 201,54;  245,106;  202,847;  404,126;20,99520
 202,14;  277,266;  220,609;  436,391;26,25630
 202,74;  246,301;  209,153;  447,622;15,57759
 203,34;  229,647;  192,066;  473,783;13,33997
 203,94;  198,985;  163,300;  464,363;11,85296
 204,54;  270,887;  246,937;  543,462; 8,07676
 205,14;  227,124;  185,307;  540,736;11,76540
 205,74;  265,805;  229,143;  624,348; 9,27669
 206,34;  242,605;  197,610;  653,244; 9,87532
 206,94;  256,930;  200,611;  693,120;11,43514
 207,54;  226,659;  184,687;  719,137; 7,85332
 208,14;  255,058;  195,455;  803,345; 9,80486
 208,74;  245,332;  198,230;  855,552; 7,16576
 209,34;  247,568;  193,229;  944,023; 7,23755
 209,94;  268,179;  199,537; 1044,543; 8,12321
 210,54;  266,818;  203,376; 1111,898; 6,98299
 211,14;  276,952;  212,922; 1222,339; 6,34329
 211,73;  270,414;  209,464; 1314,673; 5,51479
 212,33;  285,956;  222,082; 1403,956; 5,40444
 212,93;  281,414;  202,385; 1461,117; 6,27847
 213,53;  257,446;  170,923; 1512,962; 6,44714
 214,13;  278,077;  181,292; 1572,742; 6,95569
 214,73;  272,804;  172,302; 1608,237; 6,99910
 215,33;  258,717;  150,922; 1633,236; 7,27211
 215,93;  301,868;  194,451; 1783,978; 6,75780
 216,53;  266,025;  152,924; 1831,099; 6,73952
 217,13;  313,153;  215,607; 2029,263; 5,37843
 217,73;  324,094;  194,989; 2219,797; 6,37617
 218,33;  289,005;  149,983; 2354,982; 6,30485
 218,93;  343,731;  179,356; 2654,801; 6,64024
 219,53;  354,580;  172,214; 2901,699; 6,68134
 220,13;  353,766;  151,903; 3178,988; 6,66854
 220,73;  384,097;  174,152; 3474,978; 6,36039
 221,32;  427,025;  179,077; 3842,860; 6,76755
 221,92;  443,648;  174,981; 4170,791; 6,72372
 222,52;  445,656;  178,373; 4533,597; 6,13705
 223,12;  478,303;  176,988; 4906,673; 6,37072
 223,72;  528,801;  192,680; 5246,005; 6,65147
 224,32;  541,543;  176,448; 5603,170; 6,72772
 224,92;  554,756;  176,372; 5860,465; 6,65689
 225,52;  597,351;  187,457; 6182,069; 6,83771
 226,12;  616,185;  178,684; 6419,963; 7,00979
 226,72;  613,279;  148,377; 6719,830; 7,07458
 227,31;  645,261;  153,223; 7036,048; 7,14878
 227,91;  706,623;  189,458; 7401,206; 7,17113
 228,51;  740,866;  171,850; 7795,414; 7,46390
 229,11;  764,872;  172,070; 8048,723; 7,52607
 229,71;  781,667;  157,539; 8378,618; 7,59181
 230,31;  818,403;  162,677; 8740,754; 7,64421
 230,91;  856,661;  159,469; 9042,583; 7,84851
 231,51;  882,538;  152,605; 9274,862; 8,00167
 232,10;  952,254;  156,214; 9507,841; 8,51232
 232,70; 1005,633;  178,475; 9699,423; 8,68777
 233,30; 1045,144;  189,760; 9927,902; 8,78386
 233,90; 1064,511;  165,990;10050,274; 9,09039
 234,50; 1106,144;  171,451;10084,509; 9,42891
 235,10; 1128,756;  164,141;10103,619; 9,70488
 235,70; 1194,500;  183,459;10081,290;10,21478
 236,29; 1210,789;  182,077;10024,611;10,45170
 236,89; 1182,413;  158,776; 9855,716;10,55629
 237,49; 1255,637;  180,376; 9778,456;11,20287
 238,09; 1233,143;  172,610; 9429,552;11,45663
 238,69; 1268,950;  199,549; 9207,673;11,87152
 239,29; 1257,578;  165,918; 8939,888;12,44202
 239,89; 1247,431;  192,314; 8592,882;12,56006
 240,48; 1219,279;  168,379; 8220,540;13,05116
 241,08; 1216,143;  166,611; 7864,646;13,63376
 241,68; 1212,071;  179,455; 7641,109;13,83897
 242,28; 1193,660;  171,299; 7287,026;14,36763
 242,88; 1216,037;  196,830; 7036,382;14,90165
 243,48; 1224,832;  201,761; 6783,508;15,54406
 244,07; 1182,220;  183,382; 6590,809;15,58876
 244,67; 1189,361;  192,916; 6405,549;16,03901
 245,27; 1188,106;  186,310; 6269,980;16,46697
 245,87; 1192,778;  194,678; 6247,872;16,48883
 246,47; 1223,432;  181,617; 6208,147;17,28714
 247,06; 1216,107;  172,841; 6224,536;17,23923
 247,66; 1247,270;  180,224; 6324,025;17,36785
 248,26; 1280,527;  196,232; 6477,766;17,26163
 248,86; 1330,273;  190,232; 6660,735;17,61905
 249,46; 1297,502;  151,374; 6845,606;17,12112
 250,05; 1411,745;  189,072; 7218,028;17,39481
 250,65; 1443,002;  158,465; 7524,316;17,43908
 251,25; 1524,618;  170,535; 8010,795;17,27090
 251,85; 1622,404;  156,161; 8552,748;17,46237
 252,44; 1671,237;  145,384; 9145,462;16,95378
 253,04; 1787,097;  186,614; 9842,055;16,57598
 253,64; 1902,427;  150,389;10539,607;16,86400
 254,24; 2063,863;  195,456;11361,387;16,73310
 254,84; 2182,732;  172,682;12305,836;16,56659
 255,43; 2328,319;  178,461;13226,711;16,47622
 256,03; 2435,458;  172,388;14130,990;16,21273
 256,63; 2602,933;  180,622;15117,241;16,21726
 257,23; 2699,476;  171,006;16015,952;15,95758
 257,82; 2864,828;  182,243;16908,150;16,03850
 258,42; 2927,212;  147,938;17764,253;15,77671
 259,02; 3104,360;  187,922;18666,985;15,78239
 259,62; 3163,248;  167,170;19291,834;15,66604
 260,21; 3236,708;  174,538;19848,507;15,56458
 260,81; 3241,112;  174,454;20382,836;15,17518
 261,41; 3327,203;  154,474;20849,883;15,33059
 262,01; 3409,415;  207,557;21322,768;15,16375
 262,60; 3404,476;  161,160;21668,644;15,07994
 263,20; 3441,753;  163,925;22129,526;14,92255
 263,80; 3461,216;  198,096;22143,160;14,86949
 264,40; 3429,442;  157,018;22440,048;14,68573
 264,99; 3469,646;  171,250;22611,931;14,69829
 265,59; 3478,703;  165,258;22695,679;14,70654
 266,19; 3462,714;  157,480;22951,570;14,50040
 266,78; 3506,247;  207,177;23081,355;14,42268
 267,38; 3432,975;  173,026;23060,175;14,24358
 267,98; 3454,319;  161,176;23065,252;14,37798
 268,58; 3449,111;  179,026;23071,394;14,28461
 269,17; 3401,757;  163,570;23156,529;14,08338
 269,77; 3398,394;  199,624;22992,643;14,03399
 270,37; 3336,524;  155,635;22842,399;14,02090
 270,96; 3344,511;  207,243;22664,798;13,96977
 271,56; 3281,684;  173,622;22521,767;13,90747
 272,16; 3230,565;  171,244;22350,314;13,79373
 272,75; 3224,493;  172,782;22239,717;13,82934
 273,35; 3206,706;  176,627;22288,149;13,70362
 273,95; 3209,837;  167,936;22291,511;13,74959
 274,54; 3149,161;  146,687;22325,343;13,53767
 275,14; 3267,769;  175,472;22688,769;13,73543
 275,74; 3213,593;  145,783;22698,525;13,60282
 276,33; 3290,213;  197,471;23172,509;13,46132
 276,93; 3351,125;  180,378;23513,454;13,58907
 277,53; 3414,210;  169,231;24008,482;13,61192
 278,12; 3475,861;  149,005;24511,251;13,65578
 278,72; 3613,400;  199,155;25045,285;13,74156
 279,32; 3649,590;  162,463;25561,472;13,72938
 279,91; 3777,164;  155,465;26301,822;13,85164
 280,51; 3894,889;  172,230;26734,257;14,01497
 281,11; 4039,300;  180,311;27427,118;14,16309
 281,70; 4096,386;  157,696;27831,402;14,23261
 282,30; 4216,838;  158,392;28455,152;14,34244
 282,90; 4325,965;  175,392;28714,479;14,54347
 283,49; 4502,127;  180,011;29265,866;14,85986
 284,09; 4637,295;  196,466;29706,031;15,04878
 284,69; 4725,373;  195,233;29993,775;15,20256
 285,28; 4863,182;  183,005;30359,468;15,50936
 285,88; 5051,538;  206,014;30554,411;15,96633
 286,47; 5108,390;  168,546;30631,454;16,21593
 287,07; 5233,862;  199,155;30623,447;16,54831
 287,67; 5450,062;  189,761;30817,047;17,17521
 288,26; 5556,269;  169,925;30760,410;17,60791
 288,86; 5719,784;  175,543;30852,165;18,07318
 289,46; 5950,775;  182,772;30893,103;18,78196
 290,05; 6161,428;  170,766;30991,385;19,43719
 290,65; 6437,937;  169,931;31207,431;20,19495
 291,24; 6668,219;  183,847;31324,458;20,82288
 291,84; 6929,779;  194,930;31426,472;21,56425
 292,44; 7169,900;  166,452;31550,147;22,31556
 293,03; 7463,133;  241,539;31674,721;22,97443
 293,63; 7614,793;  164,930;31864,697;23,50132
 294,22; 7877,540;  196,465;32001,316;24,15064
 294,82; 8057,737;  175,633;31976,361;24,78592
 295,41; 8125,155;  166,927;31701,402;25,23660
 296,01; 8326,855;  214,015;31546,618;25,89265
 296,61; 8396,866;  186,155;31399,312;26,30529
 297,20; 8430,819;  192,860;30949,353;26,78445
 297,80; 8517,998;  188,457;30910,298;27,11277
 298,39; 8463,481;  163,161;30481,286;27,37742
 298,99; 8567,068;  191,089;30377,195;27,74780
 299,58; 8536,017;  192,839;30282,139;27,72806
 300,18; 8555,740;  189,688;30016,711;28,04857
 300,78; 8508,568;  174,384;29772,955;28,15739
 301,37; 8534,591;  190,329;29760,979;28,21806
 301,97; 8602,142;  176,080;29827,091;28,41745
 302,56; 8567,060;  176,700;29648,270;28,46933
 303,16; 8588,163;  159,164;29629,421;28,60172
 303,75; 8659,758;  173,613;29682,510;28,75792
 304,35; 8719,565;  165,834;29957,757;28,71158
 304,94; 8780,282;  187,849;30010,558;28,81171
 305,54; 8715,256;  195,154;29870,013;28,71152
 306,13; 8723,878;  139,218;29866,698;28,87786
 306,73; 8632,257;  154,914;29594,398;28,79583
 307,33; 8679,818;  181,531;29596,215;28,89131
 307,92; 8684,997;  181,616;29674,734;28,83175
 308,52; 8785,620;  161,241;30113,941;28,79333
 309,11; 8934,574;  166,631;30634,145;28,77801
 309,71; 8976,963;  155,634;30744,044;28,83879
 310,30; 9004,147;  159,771;31007,254;28,67131
 310,90; 9223,531;  192,617;31364,177;28,97165
 311,49; 9223,893;  179,002;31494,531;28,88309
 312,09; 9204,297;  150,842;31694,108;28,70170
 312,68; 9345,676;  203,769;32062,500;28,69514
 313,28; 9326,151;  148,539;32155,195;28,67407
 313,87; 9327,074;  147,002;32277,050;28,57161
 314,47; 9427,674;  172,860;32460,552;28,66360
 315,06; 9382,043;  156,077;32557,804;28,47368
 315,66; 9416,912;  162,765;32782,723;28,36959
 316,25; 9334,801;  140,548;32727,606;28,21443
 316,85; 9330,496;  136,611;32728,331;28,20927
 317,44; 9374,049;  158,553;32934,054;28,11703
 318,04; 9326,598;  138,392;32953,723;27,99974
 318,63; 9316,958;  145,222;33027,981;27,89224
 319,22; 9306,123;  170,009;33123,668;27,72413
 319,82; 9274,436;  169,698;33174,968;27,58571
 320,41; 9265,666;  164,239;33110,840;27,62478
 321,01; 9209,469;  170,228;33235,514;27,33756
 321,60; 9164,499;  167,697;33353,128;27,11070
 322,20; 9063,830;  161,539;33306,047;26,85902
 322,79; 9120,052;  196,462;33478,541;26,81200
 323,39; 9048,882;  163,451;33505,425;26,64939
 323,98; 9002,640;  146,615;33346,321;26,67501
 324,58; 8962,168;  165,856;33324,986;26,52757
 325,17; 8900,412;  171,086;33255,271;26,38519
 325,76; 8800,328;  187,464;33026,705;26,22735
 326,36; 8680,288;  137,997;32587,456;26,32491
 326,95; 8550,119;  183,081;32303,069;26,04932
 327,55; 8432,074;  155,544;31954,546;26,02764
 328,14; 8277,424;  152,456;31669,956;25,77923
 328,74; 8179,946;  192,085;31195,168;25,76473
 329,33; 8076,695;  178,920;30908,649;25,70076
 329,92; 7802,561;  152,861;30305,305;25,37008
 330,52; 7662,438;  160,225;29683,788;25,41093
 331,11; 7498,585;  162,620;29303,557;25,17409
 331,71; 7349,241;  168,618;28648,438;25,21302
 332,30; 7214,898;  184,541;28346,327;24,96417
 332,89; 7104,057;  210,383;27737,003;25,04366
 333,49; 6907,128;  171,620;27301,652;24,82676
 334,08; 6779,526;  169,159;26966,501;24,66799
 334,68; 6669,015;  174,775;26522,251;24,64843
 335,27; 6510,040;  170,839;26254,324;24,30350
 335,86; 6477,200;  220,082;25924,326;24,34274
 336,46; 6308,103;  186,992;25644,406;24,04451
 337,05; 6252,413;  164,620;25591,314;23,94253
 337,65; 6202,255;  148,621;25424,219;23,95051
 338,24; 6187,382;  212,538;25449,418;23,67505
 338,83; 6106,821;  192,230;25322,071;23,53613
 339,43; 6091,557;  162,316;25317,303;23,57084
 340,02; 6036,258;  168,471;25204,126;23,43772
 340,61; 6001,957;  154,385;25279,682;23,27364
 341,21; 6013,100;  192,931;25300,629;23,18081
 341,80; 5973,585;  166,083;25175,412;23,22134
 342,40; 5972,415;  182,147;25335,441;23,01992
 342,99; 5979,903;  177,306;25400,234;23,00525
 343,58; 5976,310;  173,228;25552,957;22,86503
 344,18; 6002,428;  181,535;25673,231;22,83447
 344,77; 6009,231;  152,087;26017,069;22,64507
 345,36; 6079,350;  152,158;26354,530;22,62082
 345,96; 6159,482;  204,074;26514,816;22,63489
 346,55; 6172,561;  148,835;26760,815;22,63539
 347,14; 6209,058;  148,147;27187,191;22,41540
 347,74; 6249,652;  142,212;27508,203;22,31763
 348,33; 6412,616;  160,752;28244,109;22,26181
 348,92; 6530,911;  180,131;28836,764;22,16164
 349,52; 6605,761;  146,980;29272,577;22,17562
 350,11; 6661,190;  166,087;29417,410;22,20448
 350,70; 6631,699;  157,155;29458,240;22,09660
 351,29; 6554,844;  154,792;29074,266;22,13060
 351,89; 6569,104;  177,938;29185,870;22,03247
 352,48; 6566,518;  139,693;29141,337;22,16021
 353,07; 6533,017;  171,915;29109,592;21,98208
 353,67; 6490,499;  179,977;29116,544;21,80812
 354,26; 6454,759;  165,993;28760,313;21,99306
 354,85; 6422,062;  177,303;28634,543;21,94436
 355,45; 6346,141;  152,237;28403,279;21,92452
 356,04; 6333,212;  168,222;28404,482;21,83359
 356,63; 6335,413;  191,004;28218,074;21,92312
 357,22; 6277,189;  176,020;28075,419;21,86846
 357,82; 6245,067;  177,402;27867,785;21,91254
 358,41; 6235,640;  178,772;27794,578;21,93261
 359,00; 6177,489;  153,316;27598,963;21,94947
 359,60; 6185,373;  178,461;27560,373;21,93752
 360,19; 6140,750;  175,067;27301,935;21,99179
 360,78; 6132,313;  166,929;27225,129;22,04649
 361,37; 6064,427;  165,005;26908,077;22,05962
 361,97; 6074,223;  174,003;26860,887;22,10906
 362,56; 6032,453;  145,549;26577,032;22,27232
 363,15; 6032,155;  194,237;26303,342;22,35970
 363,74; 5934,258;  168,860;26023,083;22,29964
 364,34; 5869,290;  187,624;25690,124;22,27886
 364,93; 5786,855;  151,704;25203,284;22,49419
 365,52; 5720,739;  158,389;24911,711;22,47112
 366,11; 5690,114;  169,316;24585,008;22,61168
 366,71; 5626,430;  154,701;24238,207;22,71982
 367,30; 5585,716;  165,697;23887,287;22,84847
 367,89; 5560,016;  201,996;23672,088;22,82914
 368,48; 5541,946;  178,551;23411,826;23,08497
 369,07; 5463,007;  170,693;22951,471;23,23149
 369,67; 5423,416;  191,704;22739,631;23,20263
 370,26; 5371,387;  167,000;22519,906;23,28282
 370,85; 5328,268;  161,774;22237,512;23,40349
 371,44; 5349,938;  165,157;22032,849;23,70978
 372,03; 5286,145;  150,547;21881,015;23,63317
 372,63; 5237,472;  148,158;21489,600;23,84710
 373,22; 5223,138;  162,309;21189,979;24,06747
 373,81; 5178,951;  154,236;20916,621;24,20105
 374,40; 5187,818;  165,917;20720,540;24,43198
 374,99; 5145,187;  154,929;20468,887;24,56566
 375,59; 5088,623;  159,841;20201,958;24,59212
 376,18; 5142,191;  181,698;20077,213;24,93272
 376,77; 5121,431;  173,464;19852,848;25,14290
 377,36; 5183,164;  189,159;19814,532;25,44668
 377,95; 5135,118;  169,162;19639,334;25,50546
 378,55; 5125,776;  150,920;19462,283;25,76129
 379,14; 5168,001;  174,005;19361,333;26,02757
 379,73; 5188,499;  160,085;19264,769;26,32032
 380,32; 5276,925;  181,003;19354,470;26,57799
 380,91; 5244,814;  157,320;19136,857;26,80516
 381,50; 5312,258;  183,241;19149,288;27,04315
 382,10; 5263,771;  153,003;19045,162;27,05232
 382,69; 5320,743;  140,467;18996,353;27,47299
 383,28; 5362,037;  172,471;18951,478;27,63493
 383,87; 5360,711;  152,164;18828,773;27,88808
 384,46; 5401,533;  152,402;18778,418;28,18172
 385,05; 5481,095;  193,241;18749,782;28,49590
 385,64; 5502,960;  165,009;18796,701;28,64985
 386,24; 5500,999;  157,479;18710,830;28,80084
 386,83; 5613,365;  181,249;18770,672;29,22154
 387,42; 5700,263;  172,393;18884,905;29,54104
 388,01; 5810,717;  180,794;19073,879;29,79886
 388,60; 5939,398;  169,631;19409,038;29,98932
 389,19; 6060,734;  154,264;19546,738;30,45754
 389,78; 6159,291;  158,108;19700,810;30,70805
 390,37; 6415,121;  213,175;20191,011;31,04413
 390,96; 6486,782;  166,710;20351,286;31,31139
 391,56; 6581,118;  166,882;20451,610;31,62101
 392,15; 6750,391;  163,491;20695,832;32,08061
 392,74; 6787,826;  132,663;20900,341;32,04578
 393,33; 6998,312;  157,499;21161,285;32,56943
 393,92; 7167,124;  166,438;21593,886;32,67158
 394,51; 7287,557;  153,345;21704,972;33,10289
 395,10; 7465,741;  185,762;21908,982;33,51243
 395,69; 7587,158;  172,298;22015,194;33,94632
 396,28; 7639,034;  180,230;22096,663;34,03293
 396,87; 7732,810;  176,015;22212,768;34,29178
 397,46; 7877,265;  174,332;22389,836;34,67368
 398,06; 8024,842;  185,191;22498,999;35,13363
 398,65; 8090,959;  163,451;22630,643;35,28482
 399,24; 8223,062;  188,149;22754,828;35,60521
 399,83; 8282,059;  155,424;22728,789;36,00099
 400,42; 8445,084;  197,771;22877,609;36,36407
 401,01; 8556,044;  158,970;22988,168;36,78217
 401,60; 8593,893;  182,878;22929,712;36,97664
 402,19; 8639,541;  203,773;22941,894;37,09967
 402,78; 8714,903;  205,310;22956,374;37,40306
 403,37; 8713,814;  189,151;22829,248;37,65294
 403,96; 8753,460;  181,234;22622,689;38,19817
 404,55; 8779,597;  182,405;22586,377;38,37352
 405,14; 8843,397;  175,874;22450,519;38,91206
 405,73; 8846,371;  181,896;22343,367;39,09702
 406,32; 8884,793;  183,732;22345,064;39,26236
 406,91; 8849,626;  178,579;21967,375;39,79590
 407,50; 8879,017;  181,465;21751,722;40,32197
 408,09; 8836,574;  151,954;21563,625;40,56021
 408,68; 8849,597;  173,436;21473,709;40,73263
 409,27; 8845,276;  163,333;21246,772;41,17897
 409,86; 8827,038;  172,196;21121,603;41,31306
 410,45; 8906,141;  190,838;21022,469;41,83688
 411,04; 8908,675;  204,786;20952,857;41,95036
 411,63; 8823,592;  193,641;20688,927;42,10700
 412,22; 8848,870;  197,965;20532,710;42,54248
 412,81; 8800,398;  201,866;20271,681;42,84311
 413,40; 8705,874;  205,146;20048,553;42,83905
 413,99; 8684,728;  238,232;19682,137;43,44033
 414,58; 8508,009;  167,303;19278,259;43,64358
 415,17; 8484,204;  184,328;19139,167;43,78764
 415,76; 8460,046;  172,659;18944,690;44,14752
 416,35; 8466,234;  159,493;18859,431;44,42122
 416,94; 8545,821;  193,731;18884,203;44,68635
 417,53; 8707,580;  179,018;19111,182;45,04800
 418,12; 8711,015;  173,089;19221,766;44,82162
 418,71; 8972,847;  192,376;19514,718;45,44206
 419,30; 9019,522;  189,703;19578,357;45,54117
 419,89; 9197,849;  174,006;19798,096;45,98350
 420,48; 9331,200;  201,684;20076,557;45,93496
 421,07; 9437,730;  188,064;20149,470;46,33775
 421,66; 9428,574;  166,282;20169,254;46,30458
 422,25; 9504,212;  170,565;20084,052;46,87098
 422,84; 9501,796;  208,099;20020,387;46,90875
 423,43; 9452,641;  187,340;19716,558;47,44327
 424,02; 9381,555;  204,643;19509,009;47,53801
 424,60; 9188,171;  174,152;19135,956;47,53777
 425,19; 9084,983;  191,398;18867,548;47,62001
 425,78; 9119,775;  204,550;18828,493;47,86970
 426,37; 9079,546;  209,232;18675,167;48,03609
 426,96; 9084,736;  184,694;18627,269;48,25813
 427,55; 9059,690;  178,446;18405,796;48,72482
 428,14; 8943,550;  171,824;18210,337;48,62777
 428,73; 8913,118;  193,837;18109,465;48,66858
 429,32; 8965,822;  200,388;18035,870;49,14605
 429,91; 8994,553;  217,144;18027,245;49,28332
 430,50; 8961,152;  203,674;17922,001;49,42610
 431,08; 8903,271;  231,204;17790,207;49,38815
 431,67; 8888,001;  254,427;17645,625;49,64335
 432,26; 8831,803;  273,343;17443,178;49,84590
 432,85; 8714,422;  282,345;17148,684;49,99352
 433,44; 8565,917;  299,796;16804,357;50,08386
 434,03; 8462,585;  309,473;16399,778;50,67096
 434,62; 8255,207;  271,872;16063,336;50,55475
 435,21; 8170,640;  283,113;15909,450;50,47585
 435,79; 8132,756;  278,402;15782,611;50,65950
 436,38; 8102,899;  276,618;15723,949;50,66429
 436,97; 8024,388;  279,000;15590,912;50,58407
 437,56; 7919,573;  276,209;15432,003;50,43196
 438,15; 7921,649;  237,599;15359,670;50,81347
 438,74; 7996,857;  262,982;15371,844;51,18768
 439,33; 7980,069;  225,062;15379,396;51,17353
 439,91; 7974,519;  187,744;15453,700;51,00745
 440,50; 8060,605;  237,281;15497,506;51,26611
 441,09; 8107,232;  236,577;15605,746;51,21067
 441,68; 8076,248;  226,794;15592,005;51,08588
 442,27; 8130,754;  208,800;15526,973;51,71605
 442,86; 8057,075;  190,926;15618,999;50,98595
 443,44; 8100,708;  198,239;15634,063;51,19564
 444,03; 8149,550;  252,618;15656,216;51,26680
 444,62; 8101,695;  193,079;15499,248;51,66947
 445,21; 8002,382;  211,467;15270,256;51,73667
 445,80; 7999,684;  232,452;15293,612;51,57127
 446,39; 7866,412;  246,532;15035,740;51,52324
 446,97; 7726,645;  187,899;14795,739;51,60754
 447,56; 7630,788;  191,425;14604,710;51,61462
 448,15; 7536,600;  198,899;14427,208;51,57114
 448,74; 7445,171;  220,513;14189,352;51,71982
 449,33; 7411,023;  200,350;14136,677;51,74012
 449,91; 7268,365;  201,951;13859,162;51,74127
 450,50; 7155,722;  182,184;13693,054;51,61428
 451,09; 7110,319;  206,567;13569,870;51,66202
 451,68; 7072,845;  227,253;13481,362;51,64883
 452,26; 7007,675;  220,093;13403,982;51,48391
 452,85; 6947,185;  198,943;13360,190;51,27358
 453,44; 6971,931;  219,077;13312,491;51,57443
 454,03; 6918,055;  197,858;13327,613;51,18296
 454,61; 6923,157;  185,691;13289,071;51,41777
 455,20; 7024,466;  209,069;13479,934;51,35609
 455,79; 7018,238;  214,696;13459,602;51,36723
 456,38; 7044,138;  224,212;13555,954;51,15555
 456,97; 7047,295;  200,600;13592,776;51,12459
 457,55; 7051,279;  196,130;13600,224;51,14220
 458,14; 7027,254;  220,295;13573,980;50,97439
 458,73; 6973,813;  216,898;13484,112;50,92942
 459,31; 7046,462;  232,193;13586,777;51,02569
 459,90; 7052,393;  251,200;13604,728;50,93181
 460,49; 7118,863;  269,896;13688,038;51,04259
 461,08; 7063,816;  198,341;13829,795;50,36495
 461,66; 7101,756;  208,579;13871,714;50,45092
 462,25; 7155,849;  204,259;13941,058;50,60560
 462,84; 7143,581;  237,801;14034,529;50,05375
 463,43; 7116,706;  187,630;13949,598;50,34946
 464,01; 7125,879;  195,086;13943,406;50,41193
 464,60; 7116,040;  247,865;13873,776;50,40526
 465,19; 6981,142;  187,082;13654,917;50,44657
 465,77; 6919,741;  209,230;13609,383;50,07787
 466,36; 6891,331;  217,630;13468,566;50,36399
 466,95; 6713,046;  202,321;13203,127;50,07940
 467,53; 6533,552;  196,838;12918,904;49,80885
 468,12; 6427,620;  227,451;12626,842;50,00382
 468,71; 6264,541;  220,927;12418,817;49,54639
 469,29; 6154,046;  193,219;12210,569;49,60184
 469,88; 6003,916;  199,752;11986,018;49,24514
 470,47; 6088,949;  249,510;12106,153;49,25036
 471,06; 6011,818;  216,432;12121,030;48,68191
 471,64; 6097,369;  229,282;12183,743;49,08701
 472,23; 6022,618;  188,259;12228,146;48,45858
 472,81; 6056,896;  190,501;12284,568;48,50639
 473,40; 6124,152;  196,413;12468,504;48,30260
 473,99; 6248,247;  273,412;12629,363;48,35593
 474,57; 6208,283;  199,105;12718,704;47,99816
 475,16; 6289,738;  210,267;12926,140;47,81010
 475,75; 6342,651;  228,866;13002,768;47,86153
 476,33; 6334,023;  233,550;13063,774;47,54768
 476,92; 6352,478;  239,641;13125,500;47,43833
 477,51; 6362,756;  222,861;13194,398;47,33359
 478,09; 6370,715;  217,323;13186,654;47,44572
 478,68; 6301,670;  229,088;13142,473;47,02549
 479,27; 6352,511;  246,866;13202,831;47,12613
 479,85; 6288,503;  215,704;13235,564;46,64258
 480,44; 6332,210;  219,315;13332,746;46,61552
 481,02; 6983,998;  216,923;15223,998;45,09257
 481,61; 7786,138;  253,388;16832,268;45,43582
 482,20; 8258,967;  236,230;17846,529;45,55707
 482,78; 8625,399;  273,548;18530,404;45,74638
 483,37; 8818,435;  250,449;19003,367;45,68881
 483,95; 8945,123;  284,754;19237,862;45,69366
 484,54; 8992,450;  291,851;19346,842;45,66047
 485,13; 8887,564;  253,052;19237,891;45,48109
 485,71; 8781,147;  247,594;19011,303;45,47903
 486,30; 8678,260;  283,902;18742,020;45,47787
 486,88; 8521,763;  317,284;18346,123;45,50753
 487,47; 8195,881;  300,281;17589,841;45,66686
 488,05; 7833,443;  284,431;16764,992;45,80555
 488,64; 7236,603;  289,268;15436,548;45,86523
 489,23; 6391,601;  287,813;13403,608;46,53769
 489,81; 5543,815;  294,579;11755,569;45,80089
 490,40; 5204,892;  243,193;11302,629;44,86394
 490,98; 5052,295;  236,650;11124,761;44,22847
 491,57; 5026,185;  255,427;11095,592;44,01002
 492,15; 4998,933;  233,033;10996,937;44,27669
 492,74; 4911,271;  242,507;10833,893;44,08076
 493,32; 4886,322;  252,343;10845,750;43,74399
 493,91; 4791,360;  235,875;10701,946;43,52622
 494,50; 4788,951;  241,782;10673,204;43,59107
 495,08; 4759,901;  233,475;10579,732;43,74940
 495,67; 4752,056;  236,569;10566,058;43,71453
 496,25; 4642,533;  190,252;10474,505;43,29221
 496,84; 4651,169;  202,339;10436,707;43,46952
 497,42; 4619,588;  194,095;10452,287;43,14106
 498,01; 4583,427;  218,106;10343,209;43,11385
 498,59; 4503,737;  186,324;10299,944;42,68910
 499,18; 4497,292;  187,259;10242,521;42,86346
 499,76; 4466,501;  198,021;10174,575;42,78512
 500,35; 4349,689;  202,009;10037,163;42,17199
 500,93; 4351,257;  183,865; 9971,333;42,57886
 501,52; 4278,000;  193,786; 9918,412;41,99867
 502,10; 4283,047;  203,310; 9872,661;42,19247
 502,69; 4181,646;  189,766; 9709,597;41,93226
 503,27; 4114,358;  171,243; 9539,466;42,09032
 503,86; 4097,795;  188,614; 9468,596;42,12487
 504,44; 4035,049;  176,455; 9385,353;41,90071
 505,03; 3897,443;  152,532; 9109,013;41,81230
 505,61; 3886,071;  171,611; 9022,948;41,96496
 506,19; 3812,207;  201,763; 8915,456;41,43414
 506,78; 3673,838;  164,597; 8724,724;40,99520
 507,36; 3623,375;  169,533; 8542,528;41,24978
 507,95; 3544,844;  174,131; 8423,391;40,86079
 508,53; 3495,015;  177,982; 8358,917;40,54589
 509,12; 3425,314;  182,055; 8156,607;40,67010
 509,70; 3358,459;  200,745; 8071,460;40,11979
 510,29; 3327,786;  200,047; 7914,882;40,54188
 510,87; 3195,766;  162,059; 7730,674;40,08272
 511,46; 3166,558;  166,826; 7573,303;40,50147
 512,04; 3100,641;  173,358; 7446,115;40,24997
 512,62; 3032,902;  178,441; 7338,558;39,86612
 513,21; 2944,732;  153,585; 7126,451;40,02869
 513,79; 2903,446;  176,951; 7032,609;39,76999
 514,38; 2831,585;  155,188; 6900,213;39,67957
 514,96; 2810,865;  193,189; 6805,625;39,58716
 515,54; 2712,816;  168,878; 6674,648;39,10280
 516,13; 2701,024;  183,030; 6581,831;39,35103
 516,71; 2621,478;  163,638; 6470,795;38,96907
 517,30; 2579,701;  159,785; 6343,152;39,13590
 517,88; 2551,850;  189,016; 6325,749;38,50313
 518,46; 2494,702;  161,782; 6208,664;38,58053
 519,05; 2460,553;  172,392; 6162,716;38,19761
 519,63; 2454,494;  174,857; 6103,985;38,44810
 520,22; 2433,921;  186,999; 6063,011;38,23889
 520,80; 2391,170;  174,537; 5974,169;38,22024
 521,38; 2398,409;  200,314; 5943,214;38,27499
 521,97; 2366,176;  163,301; 5948,913;38,07505
 522,55; 2357,918;  192,916; 5899,087;37,94141
 523,13; 2316,665;  164,527; 5895,475;37,55291
 523,72; 2328,082;  176,783; 5902,339;37,57362
 524,30; 2372,992;  187,446; 6033,060;37,38779
 524,89; 2324,579;  173,761; 6062,840;36,52213
 525,47; 2392,517;  188,366; 6140,356;37,03216
 526,05; 2359,581;  156,288; 6214,583;36,36819
 526,64; 2418,491;  185,593; 6331,409;36,33200
 527,22; 2456,856;  173,521; 6435,363;36,46428
 527,80; 2497,151;  212,670; 6570,642;35,93097
 528,39; 2486,455;  166,051; 6667,042;35,69308
 528,97; 2537,237;  178,591; 6853,054;35,33837
 529,55; 2587,375;  199,835; 7020,103;35,00655
 530,14; 2676,474;  200,586; 7212,337;35,31055
 530,72; 2660,966;  172,745; 7298,694;34,91775
 531,30; 2676,107;  168,277; 7399,341;34,68134
 531,89; 2708,705;  185,662; 7495,713;34,51471
 532,47; 2767,619;  210,275; 7550,258;34,84129
 533,05; 2754,038;  197,824; 7607,309;34,49921
 533,63; 2766,479;  213,042; 7692,081;34,14124
 534,22; 2757,352;  183,581; 7735,523;34,08092
 534,80; 2795,159;  209,034; 7776,864;34,17261
 535,38; 2883,460;  271,738; 7846,710;34,47832
 535,97; 2783,827;  206,659; 7879,065;33,59010
 536,55; 2807,956;  240,649; 7922,144;33,42197
 537,13; 2796,383;  257,586; 7916,035;33,15028
 537,71; 2830,057;  305,971; 7930,261;33,10585
 538,30; 2865,814;  342,193; 8009,190;32,91538
 538,88; 2892,608;  369,412; 8121,348;32,54924
 539,46; 2992,517;  426,881; 8317,961;32,51312
 540,05; 3033,327;  452,799; 8419,354;32,39202
 540,63; 3108,160;  504,337; 8682,437;31,83897
 541,21; 3167,324;  544,871; 8800,746;31,76469
 541,79; 3215,613;  586,409; 8912,041;31,57963
 542,38; 3250,463;  611,262; 9088,735;31,13193
 542,96; 3309,886;  610,018; 9235,033;31,30276
 543,54; 3361,007;  634,103; 9425,864;31,01659
 544,12; 3364,080;  591,023; 9550,281;30,95185
 544,70; 3361,149;  579,787; 9584,185;30,88892
 545,29; 3447,893;  600,723; 9717,112;31,23133
 545,87; 3422,306;  559,948; 9808,195;30,95027
 546,45; 3384,997;  513,647; 9799,178;30,92284
 547,03; 3381,274;  478,489; 9875,906;30,88917
 547,62; 3371,835;  445,178;10013,911;30,58563
 548,20; 3442,415;  434,327;10169,689;30,89857
 548,78; 3411,920;  390,234;10269,133;30,58728
 549,36; 3436,513;  358,159;10444,419;30,52027
 549,94; 3439,949;  312,406;10634,534;30,29939
 550,53; 3503,241;  320,161;10831,701;30,28176
 551,11; 3503,188;  289,308;10993,979;30,02315
 551,69; 3582,363;  284,390;11224,446;30,14585
 552,27; 3626,055;  256,396;11579,805;29,75834
 552,85; 3713,228;  265,770;11906,569;29,61531
 553,44; 3785,395;  250,390;12238,837;29,48676
 554,02; 3877,744;  268,849;12547,017;29,39278
 554,60; 3901,966;  209,538;12851,477;29,20777
 555,18; 3976,264;  240,236;13202,791;28,82169
 555,76; 4082,984;  224,772;13524,216;29,01032
 556,34; 4158,089;  221,916;13983,264;28,60311
 556,93; 4251,278;  216,158;14324,777;28,60038
 557,51; 4299,913;  207,531;14638,994;28,35736
 558,09; 4391,481;  219,620;14998,720;28,22811
 558,67; 4519,095;  224,373;15294,009;28,49918
 559,25; 4568,701;  230,991;15618,759;28,18934
 559,83; 4619,969;  209,369;15858,724;28,18391
 560,41; 4677,148;  206,688;16227,961;27,90328
 561,00; 4766,728;  220,603;16632,483;27,70021
 561,58; 4808,134;  212,304;16808,744;27,69166
 562,16; 4859,061;  198,000;17096,652;27,58244
 562,74; 4963,079;  184,157;17464,767;27,65482
 563,32; 5021,702;  178,600;17929,237;27,28410
 563,90; 5153,181;  204,757;18317,284;27,32045
 564,48; 5249,360;  216,843;18674,966;27,26451
 565,06; 5363,249;  203,066;19318,017;26,99553
 565,65; 5486,577;  207,746;19974,149;26,70608
 566,23; 5730,217;  246,988;20618,232;26,91652
 566,81; 5854,818;  205,760;21366,734;26,69564
 567,39; 6070,729;  202,136;22241,662;26,62758
 567,97; 6188,660;  214,682;22799,929;26,45080
 568,55; 6375,783;  230,292;23663,033;26,22609
 569,13; 6526,348;  203,218;24286,578;26,25518
 569,71; 6702,486;  205,539;25217,088;25,97579
 570,29; 6969,694;  237,928;26141,861;25,98743
 570,87; 7081,934;  235,002;26799,188;25,77505
 571,45; 7226,176;  223,373;27338,343;25,82634
 572,03; 7307,540;  188,750;27757,081;25,82235
 572,61; 7429,507;  193,062;28431,502;25,62622
 573,20; 7623,909;  227,146;29223,429;25,50935
 573,78; 7705,096;  212,446;29730,513;25,38327
 574,36; 7828,837;  217,602;30180,703;25,40203
 574,94; 7943,119;  270,902;30540,039;25,34667
 575,52; 7926,220;  232,507;30775,368;25,18989
 576,10; 8084,184;  282,050;31426,377;25,05154
 576,68; 8152,589;  264,827;31935,562;24,90552
 577,26; 8302,601;  284,118;32591,692;24,81921
 577,84; 8396,724;  279,447;32998,208;24,80924
 578,42; 8468,255;  326,284;33286,154;24,70268
 579,00; 8422,720;  280,676;33355,019;24,61740
 579,58; 8440,857;  318,748;33645,109;24,37142
 580,16; 8390,808;  300,128;33576,362;24,31369
 580,74; 8426,319;  303,435;33816,220;24,23816
 581,32; 8371,056;  298,747;33898,785;24,02470
 581,90; 8345,532;  317,129;33832,369;23,95448
 582,48; 8387,894;  320,590;34061,484;23,90957
 583,06; 8350,459;  314,901;34178,422;23,72924
 583,64; 8360,947;  318,287;34207,103;23,73249
 584,22; 8234,614;  324,659;33989,857;23,49594
 584,80; 8170,233;  336,130;33728,577;23,46070
 585,38; 8082,085;  336,763;33398,400;23,42692
 585,96; 8027,734;  318,136;33540,919;23,20575
 586,54; 7969,325;  337,584;33549,195;22,97913
 587,12; 7977,351;  295,664;33623,671;23,04874
 587,70; 7981,861;  326,751;33915,700;22,79056
 588,28; 7971,161;  310,588;33990,030;22,74555
 588,86; 7918,188;  309,124;34064,532;22,54176
 589,44; 7901,901;  290,421;34138,220;22,48737
 590,02; 7950,764;  295,962;34368,719;22,46605
 590,59; 7911,125;  267,738;34487,740;22,33602
 591,17; 7902,151;  266,411;34747,061;22,14500
 591,75; 7912,254;  267,340;34803,563;22,13593
 592,33; 7903,620;  286,112;35112,345;21,87290
 592,91; 7897,572;  229,721;35426,881;21,78542
 593,49; 7962,156;  245,101;35671,600;21,78329
 594,07; 8006,342;  259,562;35832,838;21,77696
 594,65; 7970,709;  261,352;35821,340;21,67986
 595,23; 7980,393;  246,578;36210,868;21,50415
 595,81; 7916,502;  243,729;36274,311;21,29517
 596,39; 7959,457;  248,883;36486,386;21,27789
 596,97; 7946,554;  243,029;36605,638;21,18529
 597,55; 7890,664;  235,273;36543,706;21,08434
 598,12; 7833,573;  225,713;36555,274;20,94124
 598,70; 7830,332;  216,258;36759,588;20,83574
 599,28; 7828,590;  244,565;36890,184;20,69558
 599,86; 7772,472;  238,027;36873,218;20,56614
 600,44; 7735,310;  204,178;37010,993;20,46124
 601,02; 7789,774;  242,858;37089,574;20,48192
 601,60; 7740,761;  224,878;37007,479;20,43326
 602,18; 7682,080;  213,406;36958,737;20,32550
 602,75; 7644,222;  211,576;37145,530;20,12415
 603,33; 7628,916;  227,411;37128,658;20,05760
 603,91; 7543,877;  209,094;37075,905;19,89536
 604,49; 7580,844;  238,180;37155,830;19,88930
 605,07; 7543,141;  247,802;37247,076;19,71752
 605,65; 7517,500;  252,716;37232,933;19,64506
 606,23; 7571,080;  339,047;37403,294;19,51215
 606,80; 7528,588;  378,730;37512,518;19,25432
 607,38; 7484,768;  435,941;37444,992;19,04622
 607,96; 7556,543;  486,731;37561,063;19,06929
 608,54; 7519,482;  544,639;37598,074;18,82374
 609,12; 7528,308;  574,807;37652,883;18,75367
 609,70; 7522,554;  603,412;37699,629;18,65188
 610,27; 7513,995;  613,886;37760,335;18,57542
 610,85; 7486,463;  621,182;37945,412;18,39363
 611,43; 7433,169;  642,335;37815,543;18,26809
 612,01; 7342,037;  590,418;37537,258;18,27387
 612,59; 7306,852;  573,566;37568,892;18,20037
 613,16; 7265,633;  538,274;37494,408;18,20363
 613,74; 7165,097;  509,257;37388,638;18,04759
 614,32; 7127,093;  459,177;37376,355;18,06183
 614,90; 7033,979;  404,492;37241,860;17,99663
 615,48; 6903,597;  353,657;36952,366;17,89664
 616,05; 6918,972;  322,583;36924,578;18,02194
 616,63; 6788,885;  337,740;36705,328;17,73872
 617,21; 6759,294;  317,732;36719,598;17,69569
 617,79; 6704,801;  301,652;36551,488;17,66394
 618,36; 6682,662;  311,494;36451,140;17,62930
 618,94; 6521,981;  262,272;36145,819;17,44451
 619,52; 6508,075;  278,970;35926,114;17,47435
 620,10; 6468,891;  268,499;35857,414;17,42226
 620,67; 6373,989;  276,048;35802,232;17,16464
 621,25; 6357,521;  291,802;35702,434;17,12966
 621,83; 6261,990;  276,887;35486,864;16,99832
 622,41; 6330,746;  310,888;35527,570;17,09377
 622,98; 6193,378;  295,894;35265,104;16,86479
 623,56; 6166,247;  290,742;35286,075;16,78940
 624,14; 6120,830;  279,414;35205,024;16,72531
 624,72; 6100,877;  269,810;35071,300;16,75522
 625,29; 6031,505;  246,434;35144,209;16,57719
 625,87; 6077,665;  293,805;35131,731;16,60219
 626,45; 5979,667;  242,897;34865,656;16,56936
 627,02; 5910,860;  258,574;34892,390;16,32014
 627,60; 5854,342;  251,640;34812,462;16,21113
 628,18; 5780,308;  234,576;34819,037;16,03533
 628,76; 5815,813;  235,893;34911,423;16,09181
 629,33; 5788,352;  258,197;34923,927;15,95280
 629,91; 5760,199;  241,653;34861,414;15,94045
 630,49; 5778,619;  257,430;35011,585;15,88641
 631,06; 5716,103;  251,046;35169,940;15,65071
 631,64; 5699,025;  256,281;35102,744;15,61922
 632,22; 5607,911;  215,670;35023,676;15,49138
 632,79; 5640,169;  236,439;35310,657;15,40656
 633,37; 5629,399;  219,187;35335,373;15,40660
 633,95; 5619,527;  224,590;35409,881;15,33293
 634,52; 5620,678;  210,118;35526,999;15,32004
 635,10; 5583,728;  208,116;35525,147;15,22102
 635,68; 5615,690;  216,593;35702,106;15,21493
 636,25; 5558,720;  208,060;35657,472;15,09379
 636,83; 5542,428;  194,432;35948,269;14,95783
 637,41; 5557,572;  209,825;35891,686;14,98730
 637,98; 5574,155;  235,749;36229,688;14,83140
 638,56; 5558,086;  220,908;36289,400;14,79734
 639,13; 5522,912;  202,510;36304,779;14,73703
 639,71; 5529,609;  239,892;36412,703;14,62346
 640,29; 5389,308;  182,815;36232,811;14,44242
 640,86; 5431,515;  202,969;36414,071;14,43907
 641,44; 5415,567;  203,661;36446,331;14,38058
 642,02; 5391,159;  233,660;36350,746;14,27994
 642,59; 5369,596;  195,429;36597,698;14,21386
 643,17; 5322,264;  204,967;36478,266;14,10761
 643,74; 5325,009;  201,198;36555,988;14,09391
 644,32; 5311,216;  228,813;36455,172;14,02957
 644,89; 5301,653;  211,505;36439,201;14,05043
 645,47; 5267,013;  220,351;36540,615;13,89489
 646,05; 5248,528;  225,120;36471,876;13,85892
 646,62; 5157,580;  219,735;36389,597;13,65182
 647,20; 5202,479;  221,734;36537,396;13,71514
 647,77; 5127,993;  194,196;36456,810;13,60574
 648,35; 5098,585;  188,041;36334,455;13,58515
 648,92; 5062,330;  226,118;36323,408;13,39771
 649,50; 5055,536;  182,656;36179,668;13,53690
 650,08; 5024,435;  194,348;36169,390;13,42622
 650,65; 5034,257;  196,656;36434,343;13,34964
 651,23; 5052,310;  176,809;37475,142;13,07163
 651,80; 5186,132;  177,963;38145,556;13,19064
 652,38; 5226,877;  195,116;38409,124;13,16732
 652,95; 5236,391;  174,577;38783,076;13,11062
 653,53; 5260,597;  200,346;38932,645;13,06468
 654,10; 5321,112;  225,807;39085,059;13,11220
 654,68; 5228,703;  185,499;38997,857;12,99381
 655,25; 5218,986;  180,653;39155,964;12,92699
 655,83; 5194,577;  191,653;39123,301;12,85053
 656,40; 5204,707;  207,268;39125,792;12,84077
 656,98; 5142,067;  178,344;39041,976;12,77216
 657,55; 5132,351;  200,113;38905,544;12,74301
 658,13; 5033,788;  183,036;38492,266;12,66210
 658,70; 5012,072;  214,036;38173,064;12,64004
 659,28; 4852,894;  195,343;37285,325;12,55744
 659,85; 4763,408;  202,189;36767,200;12,47427
 660,43; 4762,076;  216,496;36795,922;12,42660
 661,00; 4705,975;  192,034;37030,413;12,25336
 661,58; 4756,566;  193,188;37247,674;12,31532
 662,15; 4745,696;  173,264;37525,396;12,24142
 662,73; 4840,364;  228,956;37772,656;12,28277
 663,30; 4781,570;  196,879;37982,147;12,13354
 663,88; 4783,238;  201,725;38034,946;12,10976
 664,45; 4764,368;  177,032;38376,514;12,00890
 665,03; 4794,729;  190,186;38730,467;11,94735
 665,60; 4938,243;  247,032;39080,342;12,08038
 666,17; 4833,603;  190,416;39173,141;11,91088
 666,75; 4871,579;  182,569;39595,478;11,89714
 667,32; 4925,247;  218,954;39835,200;11,87971
 667,90; 4903,684;  190,800;40079,691;11,81503
 668,47; 4966,045;  214,030;40393,490;11,82698
 669,05; 4983,867;  190,568;40677,597;11,83910
 669,62; 4930,535;  165,876;40703,472;11,75368
 670,19; 4963,588;  186,183;40780,271;11,76872
 670,77; 4943,256;  194,413;40914,301;11,66222
 671,34; 4932,847;  189,105;40904,253;11,65105
 671,92; 4975,130;  174,182;41211,052;11,69911
 672,49; 4937,337;  201,797;41289,235;11,52552
 673,06; 4896,236;  155,720;41258,496;11,53332
 673,64; 4886,750;  177,335;41221,448;11,47403
 674,21; 4893,649;  163,334;41252,786;11,51224
 674,79; 4919,240;  197,565;41443,123;11,44772
 675,36; 4927,139;  200,949;41590,152;11,41890
 675,93; 4848,268;  171,257;41475,567;11,32330
 676,51; 4867,321;  180,487;41691,365;11,29062
 677,08; 4890,912;  187,641;41722,087;11,32379
 677,65; 4914,888;  190,256;41813,578;11,35093
 678,23; 4902,787;  190,717;42092,608;11,24548
 678,80; 4879,224;  177,563;42089,638;11,21792
 679,38; 4898,123;  172,716;42195,206;11,24495
 679,95; 4935,714;  186,408;42522,697;11,21805
 680,52; 4942,229;  174,869;42794,188;11,18591
 681,10; 4999,281;  187,946;43153,602;11,19810
 681,67; 4994,257;  194,869;43574,862;11,06360
 682,24; 5004,387;  170,791;43488,969;11,15835
 682,82; 5044,055;  178,791;44118,998;11,07246
 683,39; 5147,338;  220,791;44479,951;11,13114
 683,96; 5122,006;  175,867;44567,673;11,14201
 684,54; 5100,521;  176,790;44929,625;11,00205
 685,11; 5204,650;  211,867;45244,655;11,08700
 685,68; 5167,703;  191,097;45715,146;10,93182
 686,25; 5144,756;  175,943;45676,637;10,92030
 686,83; 5181,039;  174,481;45902,974;10,94844
 687,40; 5216,400;  174,173;46243,850;10,94478
 687,97; 5311,375;  210,865;46634,187;10,98696
 688,55; 5261,967;  172,096;46695,909;10,94036
 689,12; 5270,558;  158,018;46834,247;10,95320
 689,69; 5283,380;  167,941;46987,738;10,92580
 690,26; 5284,125;  188,095;47065,767;10,87091
 690,84; 5278,408;  176,248;47164,335;10,85841
 691,41; 5300,230;  191,325;47289,980;10,84724
 691,98; 5314,437;  186,324;47652,471;10,80373
 692,56; 5330,951;  172,016;47699,501;10,85463
 693,13; 5361,696;  231,478;47811,146;10,78238
 693,70; 5391,133;  198,477;47910,483;10,88333
 694,27; 5346,109;  175,861;48078,666;10,79320
 694,84; 5324,085;  172,553;48199,850;10,72626
 695,42; 5406,753;  209,938;48158,418;10,83833
 695,99; 5409,883;  178,399;48434,217;10,84115
 696,56; 5400,474;  166,937;48235,939;10,88755
 697,13; 5445,834;  188,937;48645,660;10,84864
 697,71; 5432,118;  156,936;48695,382;10,86805
 698,28; 5440,247;  177,859;49043,181;10,76917
 698,85; 5440,838;  149,936;49061,749;10,81723
 699,42; 5432,430;  150,166;49175,317;10,77460
 699,99; 5511,098;  186,781;49168,424;10,87002
 700,57; 5490,612;  189,550;49295,376;10,79518
 701,14; 5454,049;  167,627;49540,867;10,70706
 701,71; 5527,179;  191,088;49600,743;10,79969
 702,28; 5506,770;  187,703;49671,388;10,74913
 702,85; 5507,438;  182,780;49705,341;10,75199
 703,43; 5544,876;  200,856;50042,139;10,72207
 704,00; 5586,544;  205,394;50212,708;10,76072
 704,57; 5523,904;  198,394;50247,276;10,64062
 705,14; 5573,111;  221,009;50445,074;10,65645
 705,71; 5602,394;  223,855;50507,027;10,69650
 706,28; 5578,139;  199,239;50257,057;10,74537
 706,86; 5650,192;  223,854;50675,701;10,75548
 707,43; 5653,475;  231,546;50503,193;10,78526
 708,00; 5645,682;  219,777;50573,299;10,77562
 708,57; 5582,504;  201,623;50403,175;10,71856
 709,14; 5624,249;  226,238;50611,974;10,71337
 709,71; 5631,763;  202,391;50668,619;10,75843
 710,28; 5670,662;  190,852;50869,263;10,81291
 710,86; 5673,792;  194,467;50971,908;10,79086
 711,43; 5763,844;  211,929;50930,246;10,94657
 712,00; 5696,435;  203,390;51004,044;10,81294
 712,57; 5757,334;  213,082;51145,920;10,88542
 713,14; 5747,233;  192,389;51241,027;10,88147
 713,71; 5754,055;  199,773;51219,825;10,88647
 714,28; 5793,646;  203,696;51284,240;10,94340
 714,85; 5763,622;  179,234;51042,962;10,97912
 715,42; 5815,675;  197,772;51212,914;11,01223
 716,00; 5864,343;  231,464;51301,790;11,02965
 716,57; 5823,549;  194,156;51492,127;10,97391
 717,14; 5828,756;  174,233;51368,080;11,04532
 717,71; 5826,270;  162,925;51490,879;11,03365
 718,28; 5889,477;  209,540;51434,370;11,08825
 718,85; 5864,683;  178,540;51513,476;11,07656
 719,42; 5887,890;  191,155;51748,583;11,04930
 719,99; 5892,096;  184,154;51432,997;11,13770
 720,56; 5960,457;  194,385;51626,411;11,21105
 721,13; 5963,740;  186,231;51896,825;11,17278
 721,70; 5936,255;  175,154;51737,624;11,17305
 722,27; 5962,538;  211,538;51837,961;11,13964
 722,84; 6057,898;  227,999;51915,914;11,27904
 723,41; 6008,259;  168,691;51779,251;11,31468
 723,98; 6030,389;  189,845;52034,127;11,26555
 724,55; 6079,672;  210,383;52143,541;11,30162
 725,12; 6040,571;  144,921;52052,878;11,35789
 725,69; 6070,316;  175,844;52301,446;11,30821
 726,27; 6096,599;  181,459;52352,553;11,33797
 726,84; 6178,883;  189,227;52631,044;11,42153
 727,41; 6203,320;  195,150;52610,612;11,46259
 727,98; 6226,604;  193,842;52946,641;11,43591
 728,55; 6277,579;  217,919;52853,517;11,51248
 729,12; 6258,094;  168,611;53012,931;11,52344
 729,69; 6310,069;  194,610;53127,346;11,55326
 730,26; 6363,584;  205,764;53271,221;11,60420
 730,82; 6348,406;  186,764;53139,866;11,63604
 731,39; 6351,689;  189,840;53253,742;11,61213
 731,96; 6390,050;  176,071;53726,771;11,60392
 732,53; 6477,410;  199,686;53794,724;11,71326
 733,10; 6511,847;  198,455;53893,754;11,75781
 733,67; 6529,054;  195,993;54022,860;11,76561
 734,24; 6516,491;  187,608;53704,428;11,82597
 734,81; 6560,928;  213,608;53786,227;11,84807
 735,38; 6553,058;  198,069;53504,026;11,92172
 735,95; 6521,572;  192,607;53378,671;11,89967
 736,52; 6605,010;  207,683;53641,931;11,97233
 737,09; 6566,678;  205,760;53200,114;12,00301
 737,66; 6638,961;  236,683;53366,682;12,05021
 738,23; 6624,168;  196,298;53539,558;12,05001
 738,80; 6709,990;  232,298;53792,126;12,09431
 739,37; 6684,966;  221,682;53891,540;12,04267
 739,94; 6714,480;  194,220;53998,185;12,11855
 740,51; 6834,302;  276,527;54075,523;12,18940
 741,07; 6744,278;  188,835;53936,014;12,19681
 741,64; 6807,023;  223,450;54271,043;12,18107
 742,21; 6818,229;  192,296;54194,304;12,26979
 742,78; 6788,974;  169,834;54114,949;12,27014
 743,35; 6824,104;  197,218;54262,440;12,25721
 743,92; 6857,003;  223,218;54418,623;12,24049
 744,49; 6908,825;  196,756;54284,806;12,40952
 745,06; 6867,262;  187,986;54336,836;12,33503
 745,63; 6855,853;  169,524;54346,712;12,34159
 746,19; 6909,213;  183,293;54321,818;12,42354
 746,76; 6942,728;  199,139;54303,079;12,46414
 747,33; 6949,242;  189,754;54318,877;12,48771
 747,90; 7021,756;  213,292;54484,907;12,54517
 748,47; 7027,963;  211,292;54387,013;12,58252
 749,04; 7087,323;  202,369;54411,043;12,70084
 749,61; 7165,837;  225,522;54302,765;12,83408
 750,17; 7177,506;  201,445;54403,717;12,87042
 750,74; 7162,404;  207,214;54210,209;12,87927
 751,31; 7088,149;  183,598;54225,161;12,77637
 751,88; 7119,356;  172,521;54072,422;12,88840
 752,45; 7205,101;  197,597;54272,143;12,95897
 753,02; 7234,077;  203,905;54075,788;13,04980
 753,58; 7215,745;  179,289;54019,895;13,06905
 754,15; 7247,798;  189,212;54153,617;13,08008
 754,72; 7201,543;  184,673;53897,646;13,06364
 755,29; 7240,980;  182,827;53744,214;13,17769
 755,86; 7322,956;  206,980;53887,552;13,25615
 756,42; 7374,701;  211,057;53757,812;13,37830
 756,99; 7348,138;  183,364;53740,995;13,37769
 757,56; 7310,883;  188,594;53599,486;13,33490
 758,13; 7288,628;  154,902;53643,901;13,33681
 758,70; 7374,373;  184,055;53619,546;13,45607
 759,26; 7369,041;  186,055;53680,575;13,42752
 759,83; 7405,479;  192,824;53849,374;13,44226
 760,40; 7443,762;  172,439;53729,019;13,57690
 760,97; 7440,353;  181,054;53652,433;13,57605
 761,53; 7383,867;  153,054;53224,155;13,62477
 762,10; 7380,074;  167,746;53412,261;13,54567
 762,67; 7462,357;  181,515;53308,291;13,70466
 763,24; 7391,026;  142,668;52784,551;13,76918
 763,80; 7433,386;  173,283;52993,273;13,74499
 764,37; 7457,285;  174,898;52890,303;13,81453
 764,94; 7438,645;  170,667;52409,332;13,91302
 765,50; 7490,390;  154,898;52455,669;14,02559
 766,07; 7553,520;  202,897;52535,853;14,04588
 766,64; 7512,650;  164,666;52255,806;14,10601
 767,21; 7490,856;  170,897;52117,681;14,09127
 767,77; 7533,601;  192,127;51984,249;14,17489
 768,34; 7553,885;  185,896;52024,894;14,21322
 768,91; 7570,245;  184,819;51831,385;14,29994
 769,47; 7596,144;  183,588;51739,646;14,37766
 770,04; 7650,658;  198,203;51652,137;14,48374
 770,61; 7586,403;  176,433;51467,012;14,44704
 771,18; 7597,379;  165,740;51421,427;14,49915
 771,74; 7643,355;  179,894;51554,995;14,52739
 772,31; 7679,177;  178,817;51285,486;14,67589
 772,88; 7636,845;  162,201;50999,746;14,70300
 773,44; 7643,590;  174,970;50919,930;14,71795
 774,01; 7701,796;  184,354;50986,190;14,79758
 774,58; 7657,157;  165,431;50584,450;14,85893
 775,14; 7732,902;  165,815;50935,787;14,90465
 775,71; 7729,647;  162,353;50687,048;14,97742
 776,27; 7788,776;  209,199;50623,616;15,03454
 776,84; 7880,598;  235,814;50558,107;15,19165
 777,41; 7784,420;  192,737;50449,598;15,10577
 777,97; 7747,858;  175,737;50148,397;15,15253
 778,54; 7776,526;  194,121;50152,734;15,17737
 779,11; 7811,886;  202,121;50107,456;15,24840
 779,67; 7770,708;  166,582;50077,870;15,23528
 780,24; 7845,915;  187,197;49932,053;15,39600
 780,80; 7846,044;  211,966;49922,545;15,35705
 781,37; 7902,251;  191,735;49936,959;15,50001
 781,94; 7880,073;  193,427;49652,142;15,54154
 782,50; 7874,202;  199,657;49670,710;15,51320
 783,07; 7883,640;  220,657;49662,124;15,49910
 783,63; 7839,539;  178,426;49441,923;15,55130
 784,20; 7858,745;  211,810;49375,876;15,55391
 784,77; 7871,182;  190,810;49139,598;15,69063
 785,33; 7855,004;  168,886;48971,396;15,74943
 785,90; 7906,134;  193,809;48959,657;15,81501
 786,46; 7894,110;  202,424;48732,302;15,84938
 787,03; 7874,778;  179,654;48603,793;15,89109
 787,59; 7876,600;  192,808;48512,438;15,90201
 788,16; 7879,037;  211,961;48495,083;15,87941
 788,73; 7890,705;  204,500;48330,420;15,97103
 789,29; 7885,758;  184,884;47928,450;16,12966
 789,86; 7945,811;  201,268;47917,556;16,23040
 790,42; 7932,786;  204,499;47807,739;16,23479
 790,99; 7945,070;  209,960;47333,538;16,41452
 791,55; 7956,815;  188,113;47363,029;16,46787
 792,12; 7979,022;  203,421;47333,059;16,49832
 792,68; 7954,997;  189,651;47039,165;16,57508
 793,25; 7972,588;  203,497;46936,887;16,62428
 793,81; 8029,718;  236,958;46509,609;16,84096
 794,38; 7913,309;  164,496;46262,254;16,80952
 794,94; 7936,439;  187,958;46176,130;16,84886
 795,51; 7900,492;  212,419;45888,467;16,83174
 796,07; 7904,621;  197,572;45609,343;16,97148
 796,64; 7969,751;  212,110;45813,911;17,01170
 797,20; 7903,419;  201,956;45285,094;17,08280
 797,77; 7872,010;  182,725;45032,124;17,14468
 798,33; 7820,294;  203,648;44824,384;17,06974
 798,90; 7851,885;  229,109;44683,106;17,14756
 799,46; 7813,861;  193,493;44359,520;17,25391
 800,03; 7814,144;  209,262;44232,319;17,27477
 800,59; 7843,120;  215,493;43968,425;17,43341
 801,15; 7812,634;  218,339;43802,378;17,42449
 801,72; 7777,610;  207,569;43444,638;17,50822
 802,28; 7789,740;  236,799;43195,053;17,58205
 802,85; 7787,254;  201,338;43084,313;17,68981
 803,41; 7724,230;  196,568;42831,573;17,65606
 803,98; 7703,359;  203,260;42400,218;17,77403
 804,54; 7713,566;  200,721;42207,402;17,88488
 805,11; 7677,157;  212,413;41947,816;17,88588
 805,67; 7670,902;  224,105;41867,230;17,88242
 806,23; 7660,032;  210,105;41537,106;18,02678
 806,80; 7630,007;  229,412;41438,981;17,95844
 807,36; 7688,214;  235,797;41322,165;18,13842
 807,93; 7669,651;  232,335;41031,425;18,22912
 808,49; 7631,627;  204,257;40732,070;18,32660
 809,05; 7637,680;  195,949;40583,638;18,42574
 809,62; 7669,809;  227,488;40551,206;18,45644
 810,18; 7627,401;  220,949;40393,005;18,43683
 810,74; 7579,992;  188,102;40200,188;18,47414
 811,31; 7600,891;  197,563;39963,372;18,61732
 811,87; 7639,251;  203,794;39769,478;18,79269
 812,44; 7671,765;  244,024;39784,277;18,78526
 813,00; 7577,049;  170,486;39537,922;18,81393
 813,56; 7642,025;  211,716;39511,567;18,90671
 814,13; 7594,308;  210,716;39485,289;18,79993
 814,69; 7592,130;  217,100;39222,164;18,90788
 815,25; 7512,183;  184,792;38821,886;18,96465
 815,82; 7539,466;  223,869;38740,224;18,99348
 816,38; 7592,519;  238,561;38592,253;19,17406
 816,94; 7469,879;  199,329;38345,206;19,05986
 817,51; 7461,778;  195,945;38141,851;19,14787
 818,07; 7485,677;  191,406;37898,880;19,34436
 818,63; 7434,807;  216,098;37713,833;19,25105
 819,20; 7446,013;  210,790;37591,401;19,35555
 819,76; 7380,066;  182,405;37175,738;19,45664
 820,32; 7412,580;  227,404;37176,306;19,44625
 820,89; 7384,941;  218,943;36972,874;19,49723
 821,45; 7306,993;  193,635;36705,673;19,48223
 822,01; 7344,661;  212,173;36457,472;19,67838
 822,57; 7363,560;  216,480;36314,578;19,79905
 823,14; 7301,690;  183,018;36003,069;19,87343
 823,70; 7309,127;  191,556;35843,407;19,96410
 824,26; 7312,872;  194,479;35633,667;20,08622
 824,82; 7329,310;  219,248;35486,158;20,16072
 825,39; 7228,824;  198,248;35265,188;20,04902
 825,95; 7319,492;  221,555;35348,063;20,20678
 826,51; 7239,160;  217,401;34890,631;20,25124
 827,08; 7266,982;  248,400;35052,738;20,16582
 827,64; 7277,496;  227,939;34877,075;20,34555
 828,20; 7220,549;  195,246;34455,797;20,50552
 828,76; 7291,678;  217,553;34479,211;20,64735
 829,32; 7255,654;  228,630;34362,702;20,58654
 829,89; 7232,630;  191,860;34270,040;20,66064
 830,45; 7260,298;  218,168;34148,531;20,75466
 831,01; 7236,735;  188,706;34034,483;20,82396
 831,57; 7253,788;  214,013;33873,051;20,91496
 832,14; 7254,764;  188,474;33829,235;21,00514
 832,70; 7242,201;  184,320;33568,957;21,14110
 833,26; 7217,254;  173,012;33541,294;21,11059
 833,82; 7229,461;  193,166;33430,785;21,16967
 834,38; 7252,052;  191,012;33459,661;21,22431
 834,95; 7233,874;  182,242;33288,767;21,29982
 835,51; 7214,157;  159,934;33178,258;21,36457
 836,07; 7251,210;  208,857;33126,749;21,39369
 836,63; 7311,955;  219,933;33182,471;21,51540
 837,19; 7299,854;  200,472;33054,885;21,60861
 837,75; 7174,291;  175,702;32831,684;21,43126
 838,32; 7280,036;  233,163;32805,021;21,63485
 838,88; 7269,320;  208,086;32879,974;21,61257
 839,44; 7282,757;  204,547;32835,311;21,69183
 840,00; 7307,887;  196,008;32711,649;21,87218
 840,56; 7227,632;  187,008;32406,370;21,85215
 841,12; 7253,454;  192,931;32423,169;21,90652
 841,68; 7250,352;  178,623;32247,353;22,05179
 842,25; 7245,713;  196,392;32285,921;21,96767
 842,81; 7210,150;  175,468;32000,643;22,10414
 843,37; 7228,818;  175,391;32049,980;22,12868
 843,93; 7231,717;  190,237;31899,163;22,20662
 844,49; 7292,154;  199,160;31924,962;22,35718
 845,05; 7209,669;  170,159;31752,222;22,28958
 845,61; 7273,875;  196,928;31819,329;22,37954
 846,17; 7253,466;  182,928;31693,051;22,43894
 846,73; 7284,058;  201,543;31660,157;22,51375
 847,29; 7247,187;  166,389;31376,571;22,68746
 847,86; 7243,778;  189,311;31471,293;22,55121
 848,42; 7224,908;  185,003;31231,323;22,67549
 848,98; 7261,115;  199,003;31167,122;22,80446
 849,54; 7274,936;  189,080;31192,151;22,85534
 850,10; 7310,989;  192,002;31075,950;23,05077
 850,66; 7260,350;  178,541;30952,133;23,01262
 851,22; 7250,095;  174,463;30881,240;23,04257
 851,78; 7327,763;  217,386;30775,423;23,26843
 852,34; 7313,354;  188,463;30672,991;23,37215
 852,90; 7315,714;  195,462;30472,098;23,51732
 853,46; 7242,305;  186,001;30447,820;23,31752
 854,02; 7304,589;  190,539;30376,080;23,56774
 854,58; 7256,411;  195,461;30142,340;23,57825
 855,14; 7262,925;  179,538;30039,293;23,72219
 855,70; 7178,286;  159,307;29848,553;23,64148
 856,26; 7313,877;  214,845;29829,275;23,97153
 856,82; 7217,314;  176,229;29632,305;23,90368
 857,38; 7227,598;  213,460;29555,565;23,90468
 857,94; 7208,804;  193,229;29523,748;23,91903
 858,50; 7175,703;  197,228;29334,701;23,95017
 859,06; 7164,986;  184,843;29214,038;24,04525
 859,62; 7129,808;  202,305;29092,376;23,97884
 860,18; 7167,476;  195,535;29018,405;24,18892
 860,74; 7093,606;  165,535;28836,666;24,16393
 861,30; 7093,966;  170,073;28620,926;24,33633
 861,86; 7156,942;  211,688;28730,417;24,35331
 862,42; 7117,149;  191,380;28475,831;24,48614
 862,98; 7136,048;  217,303;28471,707;24,48732
 863,54; 7121,716;  191,302;28284,813;24,66909
 864,10; 7100,461;  187,456;28354,689;24,54272
 864,66; 7037,052;  177,686;28122,949;24,54572
 865,22; 7103,259;  191,378;28028,287;24,82991
 865,78; 7048,080;  201,609;27833,932;24,77704
 866,34; 7039,133;  185,070;27786,423;24,83235
 866,90; 7065,109;  200,531;27757,683;24,91033
 867,45; 7014,777;  196,069;27478,097;24,99341
 868,01; 6963,291;  197,300;27422,434;24,85200
 868,57; 6987,267;  195,761;27147,156;25,19909
 869,13; 6951,012;  172,914;26985,186;25,27983
 869,69; 6888,911;  190,068;26880,523;25,09827
 870,25; 6886,425;  183,837;26807,937;25,17489
 870,81; 6946,709;  188,606;26822,582;25,37399
 871,37; 6910,223;  207,144;26708,766;25,29309
 871,93; 6917,583;  208,528;26547,949;25,47154
 872,49; 6890,405;  205,143;26366,825;25,55364
 873,04; 6842,997;  190,297;26172,470;25,60486
 873,60; 6846,588;  183,835;26067,115;25,74153
 874,16; 6824,717;  206,681;26004,837;25,65314
 874,72; 6836,640;  174,527;25912,913;25,88396
 875,28; 6824,871;  199,142;25949,298;25,73083
 875,84; 6854,025;  187,681;25809,067;26,01867
 876,40; 6823,948;  189,988;25718,298;25,98668
 876,95; 6886,563;  199,219;25729,913;26,19335
 877,51; 6880,179;  219,065;25743,067;26,09745
 878,07; 6935,487;  229,758;25741,144;26,28524
 878,63; 6921,025;  189,142;25670,144;26,41922
 879,19; 6936,025;  207,527;25682,221;26,41248
 879,75; 6938,871;  196,527;25680,837;26,45684
 880,30; 6984,179;  192,604;25741,298;26,58287
 880,86; 7095,256;  231,604;25824,452;26,81863
 881,42; 7070,410;  175,835;25867,606;26,83573
 881,98; 7125,948;  197,142;25967,683;26,88654
 882,54; 7115,333;  185,527;26060,683;26,78170
 883,09; 7238,333;  200,988;26136,375;27,13414
 883,65; 7235,640;  181,296;26253,067;27,05740
 884,21; 7318,256;  220,604;26443,298;27,06683
 884,77; 7347,102;  187,681;26443,529;27,26791
 885,32; 7395,256;  197,835;26623,144;27,23685
 885,88; 7513,640;  224,142;26729,221;27,50227
 886,44; 7534,333;  200,527;26781,452;27,59048
 887,00; 7552,487;  206,450;26781,683;27,64242
 887,56; 7611,794;  204,758;26950,452;27,69431
 888,11; 7661,794;  198,758;26875,529;27,97579
 888,67; 7703,025;  227,219;27192,837;27,72347
 889,23; 7757,871;  211,988;27134,529;28,02812
 889,79; 7690,640;  177,142;26959,913;28,05348
 890,34; 7737,256;  197,373;26890,144;28,24691
 890,90; 7815,717;  261,835;26991,067;28,26075
 891,46; 7764,179;  189,450;26957,837;28,29729
 892,01; 7789,563;  215,912;26927,452;28,35348
 892,57; 7789,025;  233,065;26787,529;28,45457
 893,13; 7733,410;  204,296;26687,837;28,42941
 893,69; 7764,179;  196,604;26742,837;28,50715
 894,24; 7686,871;  208,142;26558,144;28,38227
 894,80; 7674,410;  207,527;26352,606;28,55942
 895,36; 7675,640;  214,142;26334,375;28,56597
 895,91; 7632,025;  201,296;26085,298;28,70781
 896,47; 7645,563;  214,681;26019,760;28,79620
 897,03; 7574,025;  190,142;25808,144;28,82302
 897,58; 7569,333;  204,604;25710,452;28,87467
 898,14; 7573,410;  209,450;25562,606;29,04553
 898,70; 7537,717;  183,988;25405,683;29,15636
 899,25; 7523,102;  206,988;25479,067;28,94939
 899,81; 7537,717;  226,219;25196,990;29,28023
 900,37; 7444,871;  180,912;24989,837;29,27962
 900,92; 7504,410;  201,296;25014,760;29,43206
 901,48; 7460,563;  195,296;24905,837;29,40149
 902,03; 7427,948;  188,450;24770,452;29,45040
 902,59; 7409,487;  191,758;24677,375;29,47742
 903,15; 7409,563;  209,604;24532,913;29,60107
 903,70; 7327,563;  209,604;24308,452;29,53651
 904,26; 7336,025;  186,604;24260,452;29,69787
 904,82; 7397,333;  206,527;24168,837;30,00882
 905,37; 7340,794;  211,065;23999,913;29,97089
 905,93; 7270,025;  195,219;23948,837;29,78412
 906,48; 7326,025;  214,373;23861,760;30,07373
 907,04; 7347,794;  215,912;23793,913;30,24804
 907,60; 7285,025;  196,065;23571,452;30,32660
 908,15; 7232,256;  191,065;23422,144;30,30936
 908,71; 7290,717;  223,219;23390,298;30,50664
 909,26; 7217,640;  186,988;23283,067;30,44089
 909,82; 7263,794;  218,604;23088,760;30,80517
 910,37; 7254,640;  228,065;22987,837;30,87278
 910,93; 7150,333;  189,758;22826,529;30,74897
 911,48; 7143,333;  182,450;22725,760;30,87782
 912,04; 7159,102;  189,450;22628,913;31,05980
 912,60; 7175,025;  201,758;22711,606;30,97874
 913,15; 7113,025;  206,219;22436,529;31,06932
 913,71; 7083,179;  193,912;22300,760;31,16350
 914,26; 7054,794;  184,527;22214,067;31,18661
 914,82; 7030,640;  205,296;22088,683;31,18962
 915,37; 7004,717;  186,527;22002,221;31,25360
 915,93; 7065,179;  231,681;21942,683;31,47482
 916,48; 7007,487;  200,142;21836,221;31,46293
 917,04; 7033,333;  205,912;21692,298;31,77557
 917,59; 7001,410;  228,142;21680,298;31,57383
 918,15; 6880,179;  167,912;21509,221;31,45199
 918,70; 6889,487;  196,373;21388,067;31,58366
 919,26; 6909,640;  203,527;21271,452;31,83092
 919,81; 6842,256;  181,219;21161,606;31,74887
 920,37; 6828,256;  196,296;21054,760;31,79505
 920,92; 6837,256;  210,450;20993,067;31,88629
 921,48; 6791,717;  187,450;20769,375;32,08770
 922,03; 6794,333;  181,604;20754,837;32,14239
 922,59; 6708,563;  189,373;20638,221;31,88048
 923,14; 6768,563;  188,988;20487,221;32,41452
 923,69; 6733,563;  218,527;20450,298;32,20201
 924,25; 6733,256;  212,681;20397,452;32,30443
 924,80; 6664,102;  203,758;20279,144;32,18042
 925,36; 6684,487;  190,604;20144,837;32,54389
 925,91; 6618,256;  198,373;20036,683;32,36104
 926,47; 6595,948;  182,681;19981,760;32,39175
 927,02; 6633,487;  236,527;19892,990;32,54380
 927,57; 6536,794;  197,450;19766,606;32,39457
 928,13; 6540,256;  187,527;19635,298;32,66559
 928,68; 6541,948;  196,758;19562,683;32,76472
 929,24; 6494,025;  165,604;19332,760;33,01701
 929,79; 6468,256;  189,450;19374,144;32,72820
 930,34; 6386,256;  200,604;19219,067;32,52446
 930,90; 6401,871;  178,065;19171,683;32,76788
 931,45; 6412,256;  212,065;19131,990;32,77069
 932,01; 6396,256;  203,373;18981,375;32,97945
 932,56; 6406,948;  206,604;18829,529;33,29415
 933,11; 6354,563;  219,604;18883,837;32,87014
 933,67; 6333,179;  190,142;18662,760;33,25482
 934,22; 6315,948;  202,142;18576,606;33,27338
 934,77; 6251,179;  219,450;18450,144;33,08557
 935,33; 6237,794;  212,681;18364,990;33,19199
 935,88; 6213,410;  216,219;18292,913;33,17637
 936,43; 6150,563;  183,373;18178,529;33,15998
 936,99; 6128,794;  198,527;18078,760;33,16661
 937,54; 6115,410;  184,604;17930,760;33,42023
 938,09; 6099,333;  204,681;17895,760;33,31991
 938,65; 6095,256;  203,758;17768,683;33,54127
 939,20; 6029,948;  192,912;17668,529;33,40103
 939,75; 6035,487;  183,450;17611,683;33,57791
 940,31; 6025,256;  177,219;17523,298;33,71388
 940,86; 6021,410;  202,450;17448,529;33,74077
 941,41; 6047,256;  259,758;17371,452;33,82189
 941,96; 5936,179;  192,296;17291,067;33,59237
 942,52; 5926,487;  192,681;17197,221;33,71926
 943,07; 5903,871;  173,758;17022,529;34,00909
 943,62; 5923,563;  195,758;16975,452;34,13534
 944,18; 5888,794;  178,373;16942,221;34,06390
 944,73; 5860,333;  195,988;16850,221;34,01144
 945,28; 5806,948;  162,219;16678,837;34,17606
 945,83; 5789,717;  189,912;16652,529;34,01528
 946,39; 5805,025;  188,219;16654,529;34,11090
 946,94; 5882,487;  210,219;16546,990;34,72086
 947,49; 5819,256;  192,912;16355,683;34,81052
 948,04; 5846,102;  213,988;16382,837;34,83312
 948,59; 5784,640;  217,373;16321,990;34,56939
 949,15; 5766,717;  174,373;16220,144;34,85245
 949,70; 5747,717;  196,604;16162,529;34,76851
 950,25; 5726,948;  212,296;16074,683;34,76559
 950,80; 5679,410;  168,065;15965,683;34,88719
 951,36; 5695,179;  163,604;15866,298;35,22692
 951,91; 5740,794;  196,527;15937,990;35,22079
 952,46; 5629,410;  169,681;15675,298;35,21130
 953,01; 5688,410;  204,681;15721,606;35,34031
 953,56; 5565,794;  171,758;15519,529;35,14541
 954,11; 5644,640;  200,065;15497,837;35,59064
 954,67; 5627,717;  194,604;15418,298;35,68854
 955,22; 5560,025;  177,450;15336,837;35,50655
 955,77; 5601,256;  213,988;15372,606;35,53931
 956,32; 5582,179;  237,450;15165,990;35,80209
 956,87; 5508,794;  177,835;15115,606;35,68778
 957,42; 5487,563;  190,373;15019,760;35,72090
 957,98; 5464,487;  185,758;14944,683;35,76635
 958,53; 5460,871;  209,681;14911,452;35,71808
 959,08; 5434,333;  188,681;14761,298;35,99664
 959,63; 5348,948;  183,988;14712,913;35,54950
 960,18; 5344,333;  204,758;14648,529;35,58333
 960,73; 5358,487;  197,219;14620,452;35,78440
 961,28; 5341,794;  162,604;14516,221;36,08282
 961,83; 5363,794;  212,065;14468,529;36,13609
 962,39; 5318,179;  170,527;14320,760;36,37857
 962,94; 5318,563;  208,373;14261,606;36,36310
 963,49; 5260,410;  193,373;14064,606;36,52910
 964,04; 5283,256;  205,219;14101,837;36,54153
 964,59; 5228,025;  167,835;13950,452;36,71429
 965,14; 5274,025;  204,065;13914,298;36,97938
 965,69; 5213,333;  190,681;13818,375;36,85621
 966,24; 5190,025;  185,065;13732,760;36,94326
 966,79; 5143,948;  198,296;13657,221;36,74626
 967,34; 5077,948;  172,681;13516,913;36,75946
 967,89; 5098,179;  181,527;13465,452;37,01204
 968,44; 5073,563;  191,527;13384,221;37,00561
 968,99; 5060,487;  200,450;13406,990;36,80022
 969,55; 5052,025;  198,142;13242,144;37,21161
 970,10; 5011,410;  195,604;13172,606;37,11031
 970,65; 5001,025;  206,988;13092,221;37,20567
 971,20; 4956,794;  183,296;12931,913;37,44326
 971,75; 4928,794;  170,758;12815,683;37,62803
 972,30; 4912,102;  194,065;12817,144;37,37627
 972,85; 4885,256;  186,758;12681,067;37,60510
 973,40; 4844,102;  183,450;12642,760;37,40698
 973,95; 4885,794;  198,142;12550,683;37,94889
 974,50; 4886,487;  215,988;12480,683;38,08084
 975,05; 4833,717;  207,988;12393,606;37,96056
 975,60; 4809,563;  203,527;12316,298;38,02628
 976,15; 4745,102;  188,912;12217,913;37,87671
 976,70; 4755,179;  201,219;12141,375;38,13987
 977,25; 4709,333;  203,835;12047,760;38,04058
 977,80; 4658,871;  193,681;11947,837;37,98818
 978,35; 4628,794;  204,681;11800,837;38,15155
 978,89; 4612,410;  179,065;11732,990;38,37089
 979,44; 4586,025;  194,988;11782,452;37,89472
 979,99; 4522,487;  188,681;11583,683;38,03251
 980,54; 4565,948;  215,758;11494,606;38,56946
 981,09; 4542,102;  207,988;11429,221;38,62422
 981,64; 4438,948;  210,527;11337,837;38,00039
 982,19; 4478,640;  230,450;11234,606;38,60533
 982,74; 4434,563;  215,219;11126,067;38,67109
 983,29; 4375,717;  187,065;10984,606;38,79265
 983,84; 4338,794;  206,296;10970,990;38,38937
 984,39; 4401,871;  240,681;10901,606;39,03217
 984,94; 4255,871;  180,604;10728,298;38,63657
 985,49; 4249,640;  222,758;10684,375;38,49197
 986,03; 4244,640;  223,219;10548,067;38,94896
 986,58; 4231,717;  235,296;10449,837;39,12483
 987,13; 4127,794;  199,527;10346,452;38,71387
 987,68; 4125,640;  203,142;10294,452;38,87006
 988,23; 4132,948;  221,604;10229,760;39,08157
 988,78; 4081,025;  195,450;10102,452;39,22049
 989,33; 4060,410;  214,527;10005,990;39,27791
 989,88; 4062,717;  221,450; 9953,990;39,46829
 990,42; 3979,025;  202,758; 9835,221;39,20355
 990,97; 3964,025;  201,450; 9690,375;39,65228
 991,52; 3971,025;  223,527; 9655,144;39,73336
 992,07; 3933,102;  219,604; 9549,683;39,80136
 992,62; 3851,102;  213,527; 9398,760;39,60243
 993,17; 3867,948;  219,988; 9364,837;39,89087
 993,71; 3832,025;  217,604; 9279,606;39,88546
 994,26; 3793,025;  192,758; 9126,375;40,30022
 994,81; 3775,717;  221,604; 9108,913;39,99088
 995,36; 3690,333;  201,835; 8933,144;39,95389
 995,91; 3711,717;  216,373; 8857,529;40,44996
 996,45; 3661,640;  200,758; 8812,375;40,18853
 997,00; 3614,794;  184,065; 8698,221;40,29441
 997,55; 3641,794;  215,142; 8617,452;40,78226
 998,10; 3596,794;  234,758; 8514,067;40,60769
 998,65; 3550,487;  209,681; 8465,606;40,46555
 999,19; 3513,102;  215,912; 8388,452;40,34474
 999,74; 3490,256;  236,912; 8225,529;40,72475
1000,29; 3474,179;  217,758; 8214,606;40,72131
1000,84; 3387,102;  197,527; 8051,298;40,61202
1001,38; 3405,717;  205,912; 7977,452;41,17338
1001,93; 3384,256;  217,296; 7896,452;41,24099
1002,48; 3305,871;  195,527; 7815,913;40,81610
1003,03; 3293,794;  201,758; 7778,144;40,81149
1003,57; 3282,179;  220,142; 7662,913;41,14108
1004,12; 3291,179;  236,604; 7564,529;41,68404
1004,67; 3195,102;  201,681; 7504,298;40,99107
1005,22; 3122,179;  193,758; 7317,452;41,10818
1005,76; 3123,256;  192,219; 7201,529;41,81634
1006,31; 3120,256;  222,527; 7200,144;41,52892
1006,86; 3032,563;  203,219; 7095,529;41,05074
1007,40; 3002,025;  185,835; 6930,529;41,75416
1007,95; 3004,256;  196,450; 6899,683;41,88734
1008,50; 2957,948;  211,065; 6754,760;41,97755
1009,04; 2931,410;  208,142; 6714,683;41,85431
1009,59; 2864,410;  212,681; 6591,990;41,56765
1010,14; 2842,102;  204,219; 6472,837;42,08077
1010,68; 2810,794;  207,065; 6370,990;42,24141
1011,23; 2746,102;  190,373; 6266,452;42,06214
1011,78; 2761,640;  218,373; 6234,913;42,27126
1012,32; 2730,179;  207,988; 6075,529;42,98548
1012,87; 2726,948;  231,988; 6102,606;42,49910
1013,42; 2697,179;  196,450; 5988,760;43,17326
1013,96; 2700,871;  232,681; 5974,067;42,98945
1014,51; 2634,640;  169,604; 5922,837;42,84611
1015,06; 2634,256;  178,373; 5902,913;42,90096
1015,60; 2694,410;  248,296; 6007,606;42,47234
1016,15; 2669,025;  191,142; 5913,298;43,30331
1016,69; 2678,256;  203,681; 5929,298;43,21936
1017,24; 2663,717;  181,835; 5934,298;43,14469
1017,79; 2705,025;  222,450; 5968,913;43,20179
1018,33; 2686,717;  191,527; 5983,144;43,08279
1018,88; 2731,794;  212,296; 6030,760;43,30178
1019,42; 2731,410;  200,604; 5989,837;43,71574
1019,97; 2700,794;  205,065; 5993,913;43,11270
1020,51; 2777,717;  218,681; 6029,606;44,03837
1021,06; 2740,179;  183,912; 6008,837;43,88498
1021,61; 2719,871;  172,912; 5999,760;43,71076
1022,15; 2711,256;  163,527; 5969,683;43,87979
1022,70; 2705,563;  198,065; 5947,144;43,61565
1023,24; 2688,640;  191,912; 5912,837;43,64205
1023,79; 2666,487;  201,450; 5865,067;43,52407
1024,33; 2664,487;  192,988; 5793,529;44,12964
1024,88; 2629,179;  210,604; 5706,990;44,00300
1025,42; 2602,179;  198,450; 5620,837;44,32972
1025,97; 2544,410;  196,450; 5548,606;43,86942
1026,51; 2483,871;  162,450; 5439,375;43,99193
1027,06; 2478,794;  190,296; 5391,760;43,99720
1027,60; 2448,487;  208,758; 5274,067;44,21702
1028,15; 2435,025;  216,219; 5240,375;44,16276
1028,69; 2328,487;  170,142; 5132,144;43,49745
1029,24; 2330,717;  194,219; 5031,375;44,16848
1029,78; 2271,256;  179,527; 4947,837;43,86730
1030,33; 2256,179;  172,681; 4896,221;44,10882
1030,87; 2247,487;  190,373; 4847,606;44,17030
1031,42; 2196,256;  172,219; 4719,760;44,50838
1031,96; 2180,717;  205,912; 4741,606;43,53922
1032,51; 2145,333;  182,296; 4593,375;44,50241
1033,05; 2154,025;  196,142; 4588,144;44,57837
1033,60; 2060,333;  162,373; 4434,990;44,42147
1034,14; 2056,794;  179,373; 4380,760;44,68575
1034,69; 2018,487;  193,296; 4353,452;43,87313
1035,23; 1993,871;  191,065; 4271,606;44,18056
1035,77; 1980,333;  193,835; 4221,606;44,35451
1036,32; 1944,333;  169,296; 4142,606;44,67401
1036,86; 1945,025;  191,988; 4145,298;44,34352
1037,41; 1926,794;  205,373; 4039,375;44,89881
1037,95; 1865,333;  171,835; 3953,913;44,77691
1038,50; 1859,794;  183,142; 3937,375;44,66031
1039,04; 1869,410;  200,219; 3889,606;45,24303
1039,58; 1809,333;  164,835; 3805,683;45,16799
1040,13; 1788,563;  184,142; 3773,837;44,69520
1040,67; 1808,025;  209,912; 3734,452;45,34246
1041,21; 1792,256;  210,142; 3653,375;45,94849
1041,76; 1732,410;  179,681; 3625,837;45,05684
1042,30; 1722,948;  189,065; 3545,221;45,70356
1042,85; 1684,025;  188,065; 3515,375;44,96004
1043,39; 1653,487;  179,065; 3429,837;45,35604
1043,93; 1664,871;  210,219; 3417,760;45,35101
1044,48; 1614,333;  199,835; 3351,375;44,88275
1045,02; 1600,717;  190,604; 3281,683;45,61881
1045,56; 1615,794;  204,065; 3262,375;46,16043
1046,11; 1568,102;  194,527; 3205,913;45,61271
1046,65; 1585,871;  191,835; 3162,606;46,92507
1047,19; 1528,179;  186,450; 3102,837;46,00655
1047,74; 1498,640;  170,373; 3079,067;45,66542
1048,28; 1517,871;  189,604; 3036,913;46,64991
1048,82; 1496,102;  216,835; 3023,298;45,58290
1049,37; 1466,025;  202,065; 2977,221;45,54554
1049,91; 1448,256;  190,450; 2927,683;45,95173
1050,45; 1443,410;  207,373; 2887,221;46,12338
1050,99; 1402,179;  189,681; 2852,298;45,53783
1051,54; 1375,256;  188,758; 2789,990;45,61292
1052,08; 1386,640;  214,142; 2752,529;46,19068
1052,62; 1364,179;  205,912; 2716,298;46,13900
1053,16; 1333,563;  189,219; 2663,760;46,24472
1053,71; 1321,871;  201,450; 2650,990;45,74006
1054,25; 1314,179;  210,604; 2592,990;46,32225
1054,79; 1296,102;  211,527; 2542,067;46,53749
1055,33; 1238,794;  181,912; 2501,913;45,55525
1055,88; 1256,410;  210,912; 2482,913;46,01660
1056,42; 1254,487;  225,835; 2459,144;46,05953
1056,96; 1246,640;  213,912; 2418,990;46,83410
1057,50; 1230,025;  203,296; 2388,529;46,98487
1058,05; 1197,179;  203,373; 2325,221;46,83680
1058,59; 1199,640;  214,988; 2311,913;46,95695
1059,13; 1138,256;  184,450; 2250,375;46,16846
1059,67; 1164,717;  211,912; 2245,221;46,85985
1060,21; 1136,487;  205,988; 2198,837;46,69187
1060,76; 1128,717;  208,912; 2195,298;46,30548
1061,30; 1139,102;  224,065; 2166,221;47,11448
1061,84; 1087,640;  197,373; 2127,913;46,11493
1062,38; 1069,948;  187,681; 2067,683;46,92906
1062,92; 1109,256;  236,758; 2087,760;47,13653
1063,46; 1067,948;  221,604; 2040,375;46,53385
1064,01; 1036,487;  206,373; 2007,529;46,08782
1064,55; 1048,948;  211,219; 1985,452;47,21640
1065,09;  995,717;  178,527; 1917,683;46,98776
1065,63; 1043,871;  237,681; 1973,913;46,43331
1066,17; 1023,717;  230,604; 1929,529;46,68325
1066,71; 1003,948;  228,988; 1899,760;46,38335
1067,25;  971,563;  205,450; 1863,144;46,21561
1067,80;  978,410;  218,065; 1849,221;46,61383
1068,34;  980,717;  228,681; 1856,067;46,21130
1068,88;  948,948;  209,912; 1779,298;47,09079
1069,42;  961,794;  225,527; 1805,221;46,60822
1069,96;  936,563;  208,373; 1755,683;47,06171
1070,50;  961,487;  236,219; 1752,529;47,83108
1071,04;  910,410;  195,988; 1700,221;47,49406
1071,58;  893,256;  202,758; 1694,683;46,28236
1072,12;  884,717;  196,912; 1664,683;46,86056
1072,66;  887,256;  196,681; 1656,837;47,29461
1073,21;  893,179;  219,450; 1653,990;46,96479
1073,75;  867,487;  223,912; 1606,683;46,54241
1074,29;  864,179;  228,065; 1601,683;46,30937
1074,83;  863,563;  229,219; 1583,452;46,84160
1075,37;  874,948;  231,065; 1559,606;48,46542
1075,91;  853,794;  230,142; 1550,067;47,24904
1076,45;  821,717;  217,912; 1519,144;46,40260
1076,99;  832,102;  225,450; 1500,760;47,56899
1077,53;  789,256;  202,912; 1490,913;45,52355
1078,07;  817,717;  214,835; 1481,683;47,58919
1078,61;  796,256;  213,142; 1458,606;46,81899
1079,15;  786,179;  207,681; 1419,144;47,75200
1079,69;  779,948;  208,296; 1424,990;46,98403
1080,23;  785,102;  230,988; 1413,760;46,84875
1080,77;  810,487;  245,604; 1413,760;48,35680
1081,31;  764,948;  204,758; 1351,913;48,83298
1081,85;  777,871;  225,142; 1354,452;48,94396
1082,39;  733,179;  201,758; 1340,375;46,67250
1082,93;  756,640;  214,988; 1322,606;48,90244
1083,47;  714,410;  196,758; 1280,760;47,75378
1084,01;  745,717;  230,296; 1305,606;47,93235
1084,55;  707,179;  205,065; 1266,837;47,29018
1085,09;  731,333;  222,604; 1277,067;48,24528
1085,63;  716,333;  225,527; 1236,990;48,52432
1086,17;  693,410;  208,373; 1242,144;46,91914
1086,71;  686,102;  212,296; 1212,606;47,36591
1087,24;  712,563;  227,527; 1220,221;48,86062
1087,78;  704,563;  225,219; 1196,452;49,35421
1088,32;  668,794;  205,527; 1174,990;47,78595
1088,86;  698,871;  236,450; 1189,375;48,52650
1089,40;  670,256;  215,296; 1155,067;48,41175
1089,94;  637,410;  190,835; 1110,606;48,55284
1090,48;  663,410;  223,912; 1137,606;48,10122
1091,02;  656,794;  229,604; 1114,452;48,27839
1091,56;  646,563;  216,604; 1115,375;47,83861
1092,10;  614,563;  199,604; 1081,375;47,05979
1092,63;  650,487;  237,988; 1115,913;46,98557
1093,17;  633,025;  218,219; 1071,913;48,58950
1093,71;  603,410;  201,912; 1049,375;47,37645
1094,25;  630,717;  229,604; 1056,375;48,51566
1094,79;  611,102;  220,142; 1041,529;47,59752
1095,33;  607,794;  217,373; 1013,298;49,05251
1095,87;  593,794;  212,912; 1008,221;47,89112
1096,40;  577,179;  203,527;  978,606;48,20825
1096,94;  591,717;  224,988;  976,837;48,77699
1097,48;  585,410;  214,065;  965,144;49,44144
1098,02;  568,871;  212,912;  961,067;47,57828
1098,56;  538,640;  190,835;  918,683;47,78549
1099,10;  535,333;  188,527;  904,529;48,43643
1099,63;  549,333;  190,604;  898,837;50,65127
1100,17;  561,640;  209,142;  930,760;48,84834
1100,71;  568,333;  225,142;  925,067;49,03245

