
Integration time [ms]: 160,000
Averaging Nr. [scans]: 13
Smoothing Nr. [pixels]: 0
Data measured with spectrometer [name]: 2009305U1
Wave   ;Sample   ;Dark     ;Reference;Reflectance
[nm]   ;[counts] ;[counts] ;[counts] ;[%]

 175,72;  216,920;  211,495;  220,903;57,66373
 176,32;  245,787;  239,266;  234,681; 0,00000
 176,92;  270,447;  272,880;  278,464;-43,58762
 177,52;  275,075;  261,034;  277,765;83,92504
 178,12;  246,220;  246,728;  239,441; 0,00000
 178,72;  284,552;  280,728;  259,868; 0,00000
 179,32;  273,391;  264,958;  256,710; 0,00000
 179,92;  268,423;  263,342;  268,977;90,16491
 180,52;  254,638;  259,879;  273,789;-37,68123
 181,12;  272,420;  277,881;  256,017; 0,00000
 181,73;  286,935;  280,188;  289,375;73,44054
 182,33;  395,558;  394,264;  386,146; 0,00000
 182,93;  291,184;  288,188;  294,880;44,76673
 183,53;  254,602;  249,497;  239,413; 0,00000
 184,13;  260,134;  254,420;  244,570; 0,00000
 184,73;  305,654;  298,267;  300,295;364,16113
 185,33;  269,524;  255,507;  366,926;12,58047
 185,93;  275,488;  249,508;  376,315;20,48836
 186,53;  298,047;  254,199;  407,611;28,58175
 187,13;  311,726;  292,198;  434,377;13,73461
 187,73;  276,972;  255,584;  389,711;15,94583
 188,33;  275,291;  254,739;  382,838;16,04385
 188,93;  290,336;  262,972;  407,196;18,97361
 189,53;  301,986;  261,127;  411,282;27,21154
 190,13;  333,327;  301,206;  452,201;21,27282
 190,73;  259,403;  234,974;  381,637;16,65650
 191,34;  304,746;  263,511;  421,861;26,04048
 191,94;  271,584;  251,278;  383,915;15,30958
 192,54;  286,207;  269,043;  407,504;12,39562
 193,14;  305,872;  277,121;  406,597;22,20524
 193,74;  310,813;  274,891;  414,642;25,70420
 194,34;  289,671;  267,429;  394,312;17,52978
 194,94;  262,595;  239,352;  369,250;17,89345
 195,54;  234,022;  219,506;  349,176;11,19415
 196,14;  269,679;  240,967;  384,854;19,95430
 196,74;  260,915;  243,045;  363,077;14,88742
 197,34;  227,379;  217,889;  356,094; 6,86651
 197,94;  262,333;  241,044;  380,589;15,25554
 198,54;  275,436;  257,890;  399,498;12,39081
 199,14;  258,617;  218,351;  403,167;21,78723
 199,74;  236,355;  212,427;  383,975;13,94789
 200,34;  240,981;  212,273;  393,938;15,80239
 200,94;  274,839;  243,813;  436,072;16,13756
 201,54;  249,350;  229,351;  435,693; 9,69223
 202,14;  301,652;  262,812;  492,471;16,91209
 202,74;  259,460;  226,658;  463,599;13,84400
 203,34;  240,710;  200,965;  486,334;13,92747
 203,94;  219,187;  175,581;  465,511;15,04026
 204,54;  287,911;  254,583;  559,330;10,93621
 205,14;  250,913;  204,274;  563,349;12,98878
 205,74;  282,234;  259,503;  662,948; 5,63411
 206,34;  252,672;  213,350;  676,769; 8,48516
 206,94;  273,308;  221,966;  723,536;10,23631
 207,54;  238,008;  191,965;  735,008; 8,47867
 208,14;  243,931;  211,042;  834,001; 5,27940
 208,74;  250,173;  225,581;  894,589; 3,67579
 209,34;  262,238;  210,966;  953,918; 6,90109
 209,94;  278,289;  224,350; 1042,023; 6,59660
 210,54;  276,537;  208,581; 1146,590; 7,24474
 211,14;  280,506;  220,581; 1233,561; 5,91567
 211,73;  283,772;  230,120; 1354,567; 4,77140
 212,33;  307,409;  232,966; 1441,495; 6,15973
 212,93;  301,928;  217,889; 1521,973; 6,44427
 213,53;  267,603;  183,197; 1578,704; 6,04841
 214,13;  312,386;  221,041; 1675,848; 6,27881
 214,73;  290,806;  199,119; 1679,856; 6,19195
 215,33;  273,597;  186,735; 1701,869; 5,73294
 215,93;  325,043;  212,427; 1819,005; 7,00972
 216,53;  279,749;  179,043; 1865,616; 5,97102
 217,13;  339,186;  222,504; 2071,888; 6,30927
 217,73;  346,904;  203,042; 2248,929; 7,03175
 218,33;  304,912;  171,964; 2388,716; 5,99743
 218,93;  365,677;  214,117; 2693,654; 6,11242
 219,53;  378,650;  203,734; 2934,601; 6,40517
 220,13;  370,327;  169,272; 3204,123; 6,62489
 220,73;  403,072;  193,427; 3549,946; 6,24591
 221,32;  450,173;  193,120; 3911,204; 6,91358
 221,92;  487,256;  212,426; 4258,343; 6,79279
 222,52;  485,798;  180,426; 4647,766; 6,83564
 223,12;  521,242;  191,965; 5076,883; 6,74069
 223,72;  548,211;  205,503; 5445,460; 6,54027
 224,32;  597,370;  200,734; 5797,980; 7,08627
 224,92;  586,116;  186,734; 6133,730; 6,71570
 225,52;  660,200;  211,043; 6466,344; 7,18042
 226,12;  658,514;  191,657; 6804,032; 7,06035
 226,72;  654,036;  166,965; 7141,233; 6,98382
 227,31;  685,936;  169,965; 7450,059; 7,08742
 227,91;  737,884;  205,889; 7848,563; 6,96085
 228,51;  764,835;  188,966; 8248,958; 7,14478
 229,11;  809,065;  193,888; 8638,165; 7,28513
 229,71;  832,167;  189,351; 8929,915; 7,35441
 230,31;  870,255;  169,349; 9275,714; 7,69688
 230,91;  872,788;  172,813; 9541,290; 7,47160
 231,51;  920,958;  175,273; 9866,910; 7,69411
 232,10;  955,320;  180,887;10214,043; 7,71873
 232,70;  989,979;  196,275;10365,850; 7,80469
 233,30; 1033,368;  220,888;10585,581; 7,83892
 233,90; 1049,269;  181,657;10679,870; 8,26437
 234,50; 1066,562;  199,427;10768,861; 8,20418
 235,10; 1093,501;  191,503;10873,807; 8,44385
 235,70; 1130,519;  210,735;10830,553; 8,66102
 236,29; 1141,993;  200,120;10712,540; 8,95963
 236,89; 1115,497;  185,582;10549,474; 8,97265
 237,49; 1165,810;  209,273;10449,368; 9,34110
 238,09; 1133,518;  189,273;10173,846; 9,45704
 238,69; 1180,032;  244,352; 9879,585; 9,71103
 239,29; 1125,752;  192,966; 9618,806; 9,89606
 239,89; 1117,443;  199,813; 9276,493;10,10976
 240,48; 1063,111;  183,735; 8770,288;10,24132
 241,08; 1061,208;  197,966; 8459,440;10,44901
 241,68; 1070,390;  200,504; 8144,664;10,95000
 242,28;  995,320;  182,734; 7805,359;10,66018
 242,88; 1048,278;  221,503; 7526,887;11,31733
 243,48; 1006,765;  225,350; 7209,637;11,18819
 244,07;  977,707;  206,196; 6967,006;11,41151
 244,67;  979,791;  209,658; 6874,848;11,55456
 245,27;  966,926;  203,582; 6645,336;11,84994
 245,87;  962,819;  219,349; 6643,001;11,57395
 246,47;  970,948;  208,735; 6568,509;11,98491
 247,06;  951,125;  196,350; 6579,142;11,82516
 247,66;  960,523;  185,504; 6603,212;12,07627
 248,26; 1006,626;  214,043; 6758,501;12,11075
 248,86; 1006,732;  213,582; 6942,433;11,78731
 249,46; 1006,297;  165,196; 7133,256;12,07081
 250,05; 1085,943;  205,658; 7497,287;12,07254
 250,65; 1069,621;  180,736; 7809,757;11,65137
 251,25; 1148,052;  184,735; 8215,487;11,99535
 251,85; 1218,178;  190,044; 8783,503;11,96416
 252,44; 1252,227;  162,197; 9374,493;11,83234
 253,04; 1350,919;  199,658;10076,254;11,65645
 253,64; 1383,459;  165,582;10743,900;11,51296
 254,24; 1577,974;  213,350;11677,479;11,90343
 254,84; 1624,989;  188,427;12516,102;11,65315
 255,43; 1769,945;  191,504;13497,464;11,86266
 256,03; 1850,519;  190,351;14451,940;11,64084
 256,63; 1973,013;  202,736;15523,455;11,55479
 257,23; 2068,269;  168,274;16450,734;11,66897
 257,82; 2198,166;  203,582;17379,987;11,61235
 258,42; 2283,509;  155,814;18251,839;11,75781
 259,02; 2417,015;  217,043;19237,629;11,56627
 259,62; 2468,091;  187,275;19953,856;11,53875
 260,21; 2609,315;  192,812;20539,387;11,87671
 260,81; 2637,962;  192,196;21031,724;11,73619
 261,41; 2684,192;  171,506;21598,351;11,72682
 262,01; 2765,163;  218,814;22103,267;11,63543
 262,60; 2771,192;  171,582;22443,888;11,67194
 263,20; 2819,100;  180,889;22761,864;11,68333
 263,80; 2866,414;  223,045;23041,718;11,58424
 264,40; 2870,775;  177,891;23233,076;11,68017
 264,99; 2915,585;  202,429;23522,987;11,63418
 265,59; 2914,016;  193,661;23638,650;11,60314
 266,19; 2920,921;  186,968;23800,065;11,57812
 266,78; 2992,661;  227,737;23994,434;11,63360
 267,38; 2984,741;  197,815;24065,863;11,67639
 267,98; 2972,290;  198,353;23979,742;11,66432
 268,58; 2972,642;  199,968;24059,998;11,62058
 269,17; 2943,502;  191,815;24039,692;11,53850
 269,77; 2962,165;  203,275;23892,356;11,64625
 270,37; 2925,682;  172,814;23775,823;11,66321
 270,96; 2958,078;  234,198;23752,400;11,58201
 271,56; 2871,837;  198,044;23497,204;11,47592
 272,16; 2848,682;  187,583;23354,129;11,48682
 272,75; 2829,554;  197,429;23260,178;11,41289
 273,35; 2854,149;  184,121;23191,872;11,60491
 273,95; 2831,292;  195,813;23133,216;11,48987
 274,54; 2834,963;  180,889;23211,893;11,52392
 275,14; 2890,690;  215,736;23517,363;11,47969
 275,74; 2858,793;  176,660;23538,504;11,48083
 276,33; 2947,208;  223,121;23996,289;11,45866
 276,93; 2990,766;  201,965;24266,568;11,58881
 277,53; 3043,500;  192,658;24820,040;11,57590
 278,12; 3123,617;  178,505;25255,783;11,74414
 278,72; 3233,737;  248,043;25774,491;11,69647
 279,32; 3299,282;  186,658;26366,635;11,88933
 279,91; 3365,556;  165,505;27091,575;11,88458
 280,51; 3467,503;  191,427;27666,454;11,92383
 281,11; 3595,456;  192,812;28289,017;12,11069
 281,70; 3669,351;  173,813;28738,401;12,23731
 282,30; 3764,375;  180,813;29326,435;12,29537
 282,90; 3876,341;  189,582;29659,522;12,51024
 283,49; 3958,810;  200,121;30268,142;12,50062
 284,09; 4065,237;  234,120;30743,765;12,55707
 284,69; 4160,433;  220,658;31017,144;12,79293
 285,28; 4268,807;  202,659;31341,803;13,05800
 285,88; 4420,571;  265,121;31563,908;13,27671
 286,47; 4453,295;  194,428;31613,098;13,55521
 287,07; 4565,621;  218,889;31770,442;13,77660
 287,67; 4690,611;  211,196;31839,022;14,16289
 288,26; 4752,322;  191,966;31807,153;14,42457
 288,86; 4871,118;  183,659;31881,294;14,78804
 289,46; 5007,724;  206,428;32075,499;15,06569
 290,05; 5167,160;  184,889;32130,295;15,59621
 290,65; 5314,729;  187,428;32228,789;16,00213
 291,24; 5487,626;  197,889;32463,116;16,39454
 291,84; 5681,475;  213,659;32502,916;16,93385
 292,44; 5812,793;  202,042;32604,561;17,31579
 293,03; 6045,076;  265,351;32838,068;17,74407
 293,63; 6071,087;  189,274;32896,579;17,98318
 294,22; 6266,621;  216,505;33115,219;18,39013
 294,82; 6331,086;  189,737;33153,874;18,63039
 295,41; 6329,966;  182,813;32797,016;18,84809
 296,01; 6495,928;  228,352;32885,599;19,19199
 296,61; 6503,185;  222,043;32616,337;19,38965
 297,20; 6482,922;  195,506;32123,917;19,69223
 297,80; 6523,798;  211,427;31958,152;19,88353
 298,39; 6491,640;  182,120;31671,810;20,03678
 298,99; 6494,101;  213,044;31605,727;20,00803
 299,58; 6442,745;  208,427;31297,963;20,05279
 300,18; 6442,262;  214,273;31171,882;20,11780
 300,78; 6401,583;  190,274;30812,484;20,28367
 301,37; 6393,631;  205,276;30778,033;20,24141
 301,97; 6421,316;  207,889;30739,864;20,35056
 302,56; 6399,478;  191,890;30732,876;20,32543
 303,16; 6352,048;  171,275;30635,614;20,28855
 303,75; 6342,898;  198,889;30709,572;20,13724
 304,35; 6448,493;  176,888;30875,873;20,42936
 304,94; 6453,242;  195,582;30903,201;20,37820
 305,54; 6457,942;  221,274;30870,973;20,34822
 306,13; 6349,288;  167,042;30760,306;20,20787
 306,73; 6297,605;  181,657;30598,417;20,10716
 307,33; 6321,190;  205,581;30526,002;20,16993
 307,92; 6340,330;  214,274;30574,010;20,17823
 308,52; 6384,254;  174,044;31067,181;20,10223
 309,11; 6488,461;  192,967;31471,771;20,12703
 309,71; 6544,098;  178,660;31741,315;20,16762
 310,30; 6517,074;  189,966;31894,116;19,95672
 310,90; 6638,535;  216,966;32319,808;20,00312
 311,49; 6591,025;  204,582;32460,740;19,79915
 312,09; 6611,054;  160,504;32564,670;19,90655
 312,68; 6756,449;  256,120;33005,474;19,84872
 313,28; 6705,484;  170,043;33175,626;19,80102
 313,87; 6726,675;  166,966;33225,346;19,84280
 314,47; 6739,549;  194,890;33451,734;19,67913
 315,06; 6729,925;  169,966;33601,944;19,62181
 315,66; 6747,977;  176,735;33882,747;19,49576
 316,25; 6667,943;  158,198;33782,606;19,36018
 316,85; 6673,573;  163,043;33817,988;19,34494
 317,44; 6677,805;  174,737;33894,099;19,28586
 318,04; 6637,441;  163,428;33955,003;19,15866
 318,63; 6601,616;  161,657;34108,234;18,97086
 319,22; 6612,903;  192,044;34238,164;18,85930
 319,82; 6600,508;  187,505;34282,284;18,80934
 320,41; 6556,236;  195,274;34163,828;18,72603
 321,01; 6545,191;  196,350;34282,487;18,62588
 321,60; 6513,049;  201,659;34248,928;18,53714
 322,20; 6452,563;  177,889;34275,424;18,40213
 322,79; 6433,552;  214,735;34311,299;18,23884
 323,39; 6437,926;  190,580;34354,718;18,28627
 323,98; 6340,019;  172,658;34412,281;18,01235
 324,58; 6328,958;  178,736;34294,614;18,02745
 325,17; 6229,572;  188,582;34039,837;17,84569
 325,76; 6198,607;  193,966;33856,903;17,83754
 326,36; 6095,542;  166,889;33513,650;17,77880
 326,95; 6022,613;  216,043;33228,593;17,58898
 327,55; 5903,594;  172,505;32890,995;17,51636
 328,14; 5811,792;  171,812;32612,932;17,38528
 328,74; 5760,279;  202,736;32108,530;17,41860
 329,33; 5619,320;  199,197;31716,669;17,19720
 329,92; 5504,079;  174,506;31176,262;17,19120
 330,52; 5390,059;  194,812;30555,183;17,11194
 331,11; 5286,984;  190,043;30144,361;17,01571
 331,71; 5151,479;  186,197;29502,113;16,93715
 332,30; 5059,934;  197,812;29112,432;16,81545
 332,89; 5023,810;  263,043;28669,216;16,75962
 333,49; 4858,702;  198,274;28111,179;16,69632
 334,08; 4751,813;  178,967;27703,639;16,61363
 334,68; 4635,001;  189,274;27262,091;16,42137
 335,27; 4598,717;  205,735;26953,800;16,42355
 335,86; 4571,907;  247,043;26654,207;16,37761
 336,46; 4453,566;  206,196;26370,675;16,23334
 337,05; 4373,807;  182,043;26282,034;16,06040
 337,65; 4359,320;  171,582;26020,755;16,20067
 338,24; 4360,215;  240,043;25970,983;16,01252
 338,83; 4299,130;  203,351;25894,964;15,94209
 339,43; 4263,484;  185,274;25829,173;15,90323
 340,02; 4208,610;  185,659;25712,711;15,75956
 340,61; 4207,221;  192,581;25759,357;15,70257
 341,21; 4218,432;  221,274;25755,376;15,65419
 341,80; 4152,483;  185,813;25721,312;15,53394
 342,40; 4153,050;  195,504;25792,472;15,46100
 342,99; 4168,964;  195,658;25820,524;15,50567
 343,58; 4145,320;  183,504;25964,592;15,36714
 344,18; 4192,699;  206,273;26161,756;15,35870
 344,77; 4209,268;  176,198;26459,566;15,34457
 345,36; 4217,152;  173,966;26693,977;15,24579
 345,96; 4313,343;  216,581;27051,688;15,26643
 346,55; 4279,544;  174,888;27255,285;15,15730
 347,14; 4343,854;  181,658;27496,847;15,23766
 347,74; 4391,319;  161,349;28000,958;15,19407
 348,33; 4465,542;  186,734;28614,101;15,05172
 348,92; 4568,588;  194,425;29124,377;15,11984
 349,52; 4573,264;  165,579;29669,124;14,93951
 350,11; 4661,120;  189,582;29848,787;15,07639
 350,70; 4611,803;  169,197;29950,905;14,91723
 351,29; 4608,869;  170,199;29844,338;14,95804
 351,89; 4640,450;  188,737;29831,723;15,01776
 352,48; 4606,615;  155,120;29755,914;15,03843
 353,07; 4574,093;  201,965;29776,627;14,78336
 353,67; 4571,132;  196,656;29588,512;14,88329
 354,26; 4546,481;  192,042;29386,203;14,91544
 354,85; 4525,607;  200,042;29264,979;14,88242
 355,45; 4457,158;  170,659;29117,820;14,80801
 356,04; 4493,241;  181,504;29041,484;14,94019
 356,63; 4483,385;  217,889;28801,391;14,92293
 357,22; 4437,417;  187,122;28686,986;14,91339
 357,82; 4426,325;  186,583;28514,432;14,96669
 358,41; 4435,746;  208,966;28351,903;15,01897
 359,00; 4391,265;  173,736;28193,299;15,05209
 359,60; 4350,435;  193,658;28178,473;14,85369
 360,19; 4385,434;  212,042;27969,918;15,03498
 360,78; 4334,528;  194,967;27841,120;14,97337
 361,37; 4321,035;  185,428;27630,620;15,06860
 361,97; 4329,148;  188,659;27560,479;15,12683
 362,56; 4240,140;  172,275;27379,315;14,95152
 363,15; 4337,349;  246,736;27069,763;15,25038
 363,74; 4227,606;  189,121;26699,514;15,23359
 364,34; 4218,669;  201,121;26313,904;15,38537
 364,93; 4115,277;  181,813;25931,362;15,27586
 365,52; 4053,676;  156,274;25563,053;15,34001
 366,11; 4085,891;  175,659;25305,731;15,55997
 366,71; 4019,364;  176,274;24976,549;15,49616
 367,30; 3990,898;  188,813;24570,650;15,59393
 367,89; 4021,627;  220,273;24359,353;15,74772
 368,48; 3942,620;  209,583;24012,822;15,68289
 369,07; 3860,957;  193,197;23678,443;15,61729
 369,67; 3893,286;  221,582;23399,535;15,84136
 370,26; 3819,509;  185,274;23017,905;15,91685
 370,85; 3811,049;  182,813;22827,852;16,02221
 371,44; 3829,311;  195,120;22636,113;16,19443
 372,03; 3779,527;  167,890;22379,644;16,26003
 372,63; 3743,978;  163,428;22064,218;16,34895
 373,22; 3721,370;  183,735;21880,606;16,30481
 373,81; 3688,038;  170,197;21543,188;16,45928
 374,40; 3689,880;  181,658;21283,519;16,62518
 374,99; 3676,831;  186,351;21056,138;16,72504
 375,59; 3625,655;  161,042;20732,739;16,84165
 376,18; 3659,087;  199,043;20624,802;16,93961
 376,77; 3683,140;  204,659;20445,691;17,18530
 377,36; 3679,708;  207,659;20368,246;17,22196
 377,95; 3655,686;  203,428;20136,549;17,31920
 378,55; 3640,576;  177,966;19982,410;17,48401
 379,14; 3669,158;  198,582;19861,813;17,65008
 379,73; 3662,469;  196,659;19765,165;17,71116
 380,32; 3694,467;  194,736;19764,604;17,88327
 380,91; 3663,822;  173,890;19684,198;17,88763
 381,50; 3721,801;  194,890;19674,046;18,10608
 382,10; 3708,006;  176,428;19517,142;18,25981
 382,69; 3721,047;  166,120;19492,438;18,39423
 383,28; 3768,929;  214,813;19467,605;18,46026
 383,87; 3757,983;  177,659;19263,201;18,75935
 384,46; 3795,889;  162,352;19266,403;19,01972
 385,05; 3823,713;  198,198;19236,921;19,04285
 385,64; 3870,353;  185,890;19264,731;19,31178
 386,24; 3835,260;  159,737;19225,480;19,27815
 386,83; 3933,428;  200,198;19281,411;19,56495
 387,42; 3968,059;  196,274;19353,270;19,68881
 388,01; 4037,516;  177,891;19573,307;19,89968
 388,60; 4107,567;  191,044;19814,164;19,95871
 389,19; 4214,568;  185,584;20005,729;20,32772
 389,78; 4272,747;  182,969;20194,001;20,43762
 390,37; 4443,620;  250,045;20690,369;20,51619
 390,96; 4452,334;  196,583;20773,220;20,68244
 391,56; 4519,757;  195,969;20863,273;20,92091
 392,15; 4616,296;  179,123;21192,503;21,11594
 392,74; 4627,306;  160,817;21310,624;21,11834
 393,33; 4766,749;  187,893;21679,108;21,30571
 393,92; 4907,442;  197,509;22034,588;21,56851
 394,51; 4973,285;  171,816;22249,848;21,74772
 395,10; 5114,372;  215,896;22471,673;22,00991
 395,69; 5152,510;  203,049;22534,810;22,16333
 396,28; 5205,252;  194,435;22689,511;22,27517
 396,87; 5255,631;  190,975;22814,078;22,38710
 397,46; 5349,518;  194,899;22864,306;22,73822
 398,06; 5460,882;  212,823;23086,703;22,94346
 398,65; 5480,253;  195,979;23095,800;23,07561
 399,24; 5620,742;  218,211;23352,957;23,35246
 399,83; 5598,373;  187,907;23329,458;23,37987
 400,42; 5702,542;  225,680;23500,735;23,53104
 401,01; 5776,703;  196,684;23613,456;23,82915
 401,60; 5824,403;  225,382;23644,888;23,90751
 402,19; 5835,266;  239,695;23657,412;23,89460
 402,78; 5858,903;  231,471;23539,932;24,14330
 403,37; 5874,171;  214,939;23457,159;24,34893
 403,96; 5895,521;  222,639;23272,985;24,61083
 404,55; 5908,880;  243,725;23287,924;24,58387
 405,14; 5881,113;  219,964;23067,240;24,77823
 405,73; 5904,763;  229,742;22969,296;24,95660
 406,32; 5939,887;  229,133;22983,779;25,09709
 406,91; 5859,225;  224,679;22726,786;25,04008
 407,50; 5901,295;  228,836;22474,198;25,49951
 408,09; 5848,620;  202,762;22260,479;25,59584
 408,68; 5889,670;  211,533;22143,974;25,88922
 409,27; 5857,637;  203,223;21926,977;26,02872
 409,86; 5881,488;  216,756;21783,063;26,26658
 410,45; 5905,451;  252,905;21764,002;26,27735
 411,04; 5946,279;  246,516;21720,847;26,54221
 411,63; 5879,522;  236,817;21434,096;26,61995
 412,22; 5893,173;  227,888;21243,443;26,95758
 412,81; 5830,968;  249,348;21005,096;26,89193
 413,40; 5776,509;  257,960;20696,035;27,00132
 413,99; 5801,473;  306,423;20358,870;27,40339
 414,58; 5634,137;  227,422;19923,867;27,45021
 415,17; 5607,013;  240,271;19761,596;27,49169
 415,76; 5590,949;  222,735;19610,748;27,68831
 416,35; 5564,713;  207,503;19427,764;27,87273
 416,94; 5621,787;  254,888;19451,197;27,95797
 417,53; 5707,158;  222,963;19612,954;28,28364
 418,12; 5741,899;  227,424;19777,644;28,20672
 418,71; 5873,438;  250,730;20131,786;28,28174
 419,30; 5918,497;  219,347;20238,060;28,46911
 419,89; 6019,255;  221,269;20300,403;28,87568
 420,48; 6132,572;  251,807;20647,334;28,83360
 421,07; 6151,989;  237,575;20737,148;28,85140
 421,66; 6160,362;  208,497;20776,174;28,93796
 422,25; 6176,834;  227,880;20780,887;28,94445
 422,84; 6213,935;  243,341;20720,605;29,15719
 423,43; 6140,423;  225,803;20428,524;29,27635
 424,02; 6098,917;  258,803;20219,722;29,25774
 424,60; 6024,809;  224,185;19803,125;29,62685
 425,19; 5929,926;  250,340;19540,192;29,44339
 425,78; 5956,475;  238,340;19461,617;29,74589
 426,37; 5893,140;  253,569;19304,544;29,60253
 426,96; 5869,263;  238,954;19126,121;29,81023
 427,55; 5855,892;  230,183;19126,181;29,77196
 428,14; 5769,743;  229,644;18833,699;29,77899
 428,73; 5780,441;  235,338;18647,153;30,11709
 429,32; 5775,810;  249,877;18594,763;30,12247
 429,91; 5805,446;  259,030;18676,904;30,11431
 430,50; 5765,164;  258,645;18521,713;30,15112
 431,08; 5711,474;  258,644;18360,349;30,12330
 431,67; 5771,451;  302,412;18330,782;30,33574
 432,26; 5711,479;  326,642;18160,858;30,19385
 432,85; 5651,463;  347,335;17821,836;30,35353
 433,44; 5568,573;  360,257;17440,033;30,49405
 434,03; 5496,786;  371,256;17158,139;30,53295
 434,62; 5323,589;  331,641;16663,909;30,56494
 435,21; 5325,351;  347,104;16496,684;30,82586
 435,79; 5299,649;  332,948;16332,708;31,04234
 436,38; 5233,475;  328,485;16237,016;30,83245
 436,97; 5242,280;  323,793;16221,643;30,93806
 437,56; 5174,069;  328,637;15979,537;30,95945
 438,15; 5143,986;  295,099;15875,318;31,12207
 438,74; 5190,979;  332,560;15856,013;31,29728
 439,33; 5189,684;  284,099;15873,077;31,46829
 439,91; 5228,543;  252,867;15956,906;31,68405
 440,50; 5252,286;  294,098;16015,235;31,53836
 441,09; 5316,965;  294,943;16082,077;31,81085
 441,68; 5302,054;  267,711;16154,661;31,68854
 442,27; 5293,566;  254,865;16123,606;31,75237
 442,86; 5286,185;  241,324;16026,007;31,96048
 443,44; 5330,047;  250,786;16129,577;31,98771
 444,03; 5418,914;  335,324;16189,950;32,06376
 444,62; 5328,056;  250,555;16053,209;32,13069
 445,21; 5282,989;  259,940;15947,782;32,01874
 445,80; 5290,841;  295,246;15848,830;32,11861
 446,39; 5287,383;  333,016;15659,644;32,32523
 446,97; 5119,940;  252,399;15390,839;32,15352
 447,56; 5048,226;  255,321;15178,970;32,11617
 448,15; 5017,422;  256,168;15006,598;32,27875
 448,74; 4945,752;  282,091;14794,610;32,13543
 449,33; 4912,594;  267,090;14665,641;32,26369
 449,91; 4836,092;  249,089;14390,958;32,43563
 450,50; 4745,478;  253,628;14218,742;32,16480
 451,09; 4734,688;  271,320;14125,591;32,21655
 451,68; 4698,236;  294,704;14035,070;32,04814
 452,26; 4702,336;  276,165;13992,011;32,27049
 452,85; 4639,605;  257,703;13829,823;32,28605
 453,44; 4666,170;  273,932;13779,714;32,52117
 454,03; 4671,123;  250,318;13801,670;32,62261
 454,61; 4638,300;  252,471;13757,610;32,47527
 455,20; 4739,961;  271,009;13969,185;32,62444
 455,79; 4764,550;  274,779;13911,286;32,92464
 456,38; 4752,003;  279,161;14014,786;32,56380
 456,97; 4755,870;  262,854;14103,099;32,46342
 457,55; 4780,357;  258,238;14130,908;32,59732
 458,14; 4788,105;  291,239;14075,067;32,62422
 458,73; 4700,410;  272,468;14011,957;32,22785
 459,31; 4760,021;  289,006;14063,050;32,45971
 459,90; 4785,217;  317,622;14168,214;32,25563
 460,49; 4890,609;  377,853;14241,835;32,55022
 461,08; 4838,084;  264,928;14290,432;32,60600
 461,66; 4832,753;  272,083;14351,107;32,39337
 462,25; 4876,803;  282,312;14495,949;32,32452
 462,84; 4871,830;  300,390;14501,636;32,19042
 463,43; 4816,136;  248,234;14475,764;32,10608
 464,01; 4869,319;  272,157;14468,694;32,38228
 464,60; 4913,665;  336,004;14482,124;32,35984
 465,19; 4766,036;  249,233;14206,266;32,36220
 465,77; 4751,059;  278,617;14168,900;32,19835
 466,36; 4736,225;  300,388;14093,889;32,15889
 466,95; 4601,389;  281,773;13770,006;32,02507
 467,53; 4514,252;  290,847;13477,871;32,02698
 468,12; 4457,474;  309,616;13237,536;32,08449
 468,71; 4370,574;  273,156;13039,028;32,09665
 469,29; 4279,507;  257,539;12766,750;32,15205
 469,88; 4210,061;  260,077;12540,218;32,16562
 470,47; 4288,709;  332,307;12631,261;32,16860
 471,06; 4220,603;  280,922;12514,253;32,20448
 471,64; 4249,482;  281,077;12656,922;32,06573
 472,23; 4226,735;  253,305;12657,306;32,03345
 472,81; 4274,651;  257,229;12781,927;32,07600
 473,40; 4307,287;  268,536;12921,383;31,91970
 473,99; 4469,387;  383,228;13090,095;32,15709
 474,57; 4421,470;  266,382;13216,161;32,08617
 475,16; 4460,052;  284,691;13368,257;31,91302
 475,75; 4532,649;  311,227;13514,047;31,97364
 476,33; 4550,007;  301,611;13584,597;31,98374
 476,92; 4556,928;  302,228;13597,424;32,00178
 477,51; 4554,957;  305,535;13748,207;31,61144
 478,09; 4582,849;  300,304;13698,169;31,96438
 478,68; 4557,412;  294,996;13631,356;31,96086
 479,27; 4569,224;  330,458;13743,529;31,60176
 479,85; 4549,298;  288,765;13644,644;31,90006
 480,44; 4578,954;  278,765;13842,630;31,70328
 481,02; 4947,293;  308,379;15086,890;31,38959
 481,61; 5564,984;  322,072;17081,415;31,28352
 482,20; 5925,889;  310,456;18258,439;31,28726
 482,78; 6204,844;  339,457;19068,417;31,31721
 483,37; 6367,157;  338,609;19595,156;31,30649
 483,95; 6471,558;  367,609;19905,024;31,24236
 484,54; 6482,007;  372,764;20108,365;30,95544
 485,13; 6413,944;  341,839;20041,729;30,82304
 485,71; 6310,612;  330,224;19771,542;30,76123
 486,30; 6325,504;  357,377;19509,734;31,16132
 486,88; 6249,885;  411,070;19225,690;31,03339
 487,47; 5985,496;  374,608;18539,337;30,88892
 488,05; 5740,856;  365,915;17726,602;30,96042
 488,64; 5369,853;  359,914;16450,710;31,13543
 489,23; 4860,422;  369,761;14676,365;31,38873
 489,81; 4179,133;  373,607;12571,955;31,19706
 490,40; 3921,366;  315,914;11874,977;31,19156
 490,98; 3817,239;  307,068;11586,193;31,12095
 491,57; 3813,057;  338,069;11499,424;31,13411
 492,15; 3751,866;  317,145;11462,542;30,81739
 492,74; 3737,873;  317,453;11356,094;30,98588
 493,32; 3709,003;  348,145;11203,904;30,95922
 493,91; 3637,556;  314,298;11186,903;30,56543
 494,50; 3630,809;  313,220;11148,596;30,61813
 495,08; 3586,188;  298,066;11063,846;30,54235
 495,67; 3620,502;  328,067;11048,699;30,71120
 496,25; 3531,433;  260,605;10929,547;30,65747
 496,84; 3502,739;  281,529;10919,843;30,27933
 497,42; 3476,389;  257,682;10876,907;30,31019
 498,01; 3475,468;  297,144;10794,624;30,27701
 498,59; 3419,289;  263,912;10734,726;30,13497
 499,18; 3412,530;  263,144;10715,154;30,13187
 499,76; 3395,644;  289,451;10606,019;30,10878
 500,35; 3355,793;  278,142;10473,419;30,18702
 500,93; 3311,418;  269,836;10384,608;30,07069
 501,52; 3251,232;  273,066;10331,793;29,60778
 502,10; 3272,266;  279,372;10285,543;29,91048
 502,69; 3214,788;  264,833;10162,588;29,80428
 503,27; 3151,549;  240,989;10022,588;29,75547
 503,86; 3105,838;  269,064; 9911,595;29,41938
 504,44; 3052,545;  228,987; 9797,140;29,50996
 505,03; 2995,248;  221,141; 9535,881;29,78191
 505,61; 2987,628;  235,833; 9501,368;29,69926
 506,19; 2915,915;  258,910; 9294,370;29,40642
 506,78; 2847,734;  239,524; 9132,905;29,32754
 507,36; 2777,297;  244,602; 8968,110;29,03299
 507,95; 2742,265;  240,755; 8805,585;29,20677
 508,53; 2708,127;  235,371; 8713,924;29,16484
 509,12; 2654,428;  245,139; 8554,996;28,99314
 509,70; 2635,073;  267,832; 8439,018;28,97060
 510,29; 2613,871;  288,600; 8295,487;29,04089
 510,87; 2511,104;  237,832; 8093,981;28,93622
 511,46; 2471,309;  235,986; 7953,917;28,96272
 512,04; 2435,725;  247,370; 7787,108;29,02429
 512,62; 2382,892;  249,755; 7651,187;28,82061
 513,21; 2296,766;  243,216; 7456,248;28,47000
 513,79; 2284,078;  236,752; 7390,281;28,61980
 514,38; 2211,188;  229,214; 7225,273;28,32987
 514,96; 2219,346;  262,984; 7149,925;28,40683
 515,54; 2143,153;  222,906; 6979,651;28,41970
 516,13; 2152,492;  261,060; 6955,374;28,25430
 516,71; 2093,412;  239,906; 6806,797;28,22501
 517,30; 2048,369;  228,982; 6687,017;28,17246
 517,88; 2024,728;  249,290; 6594,814;27,97938
 518,46; 1975,718;  228,674; 6507,780;27,82314
 519,05; 1975,249;  230,135; 6478,075;27,93103
 519,63; 1954,769;  246,135; 6365,408;27,92216
 520,22; 1954,736;  254,057; 6319,730;28,03775
 520,80; 1911,490;  240,673; 6261,953;27,74854
 521,38; 1963,223;  285,750; 6247,865;28,13553
 521,97; 1896,867;  233,057; 6214,479;27,81630
 522,55; 1893,371;  249,134; 6166,104;27,78851
 523,13; 1876,674;  245,749; 6176,282;27,50049
 523,72; 1852,078;  239,982; 6136,578;27,33943
 524,30; 1926,433;  270,671; 6312,779;27,40372
 524,89; 1890,698;  219,749; 6304,778;27,46001
 525,47; 1918,130;  255,517; 6430,214;26,92623
 526,05; 1904,942;  210,671; 6427,908;27,25119
 526,64; 1956,678;  254,824; 6582,932;26,89357
 527,22; 1987,227;  261,825; 6754,820;26,57329
 527,80; 2025,619;  299,824; 6831,738;26,42096
 528,39; 1997,406;  241,286; 6934,551;26,23713
 528,97; 2052,094;  241,747; 7075,885;26,48976
 529,55; 2089,236;  254,210; 7272,532;26,14622
 530,14; 2145,240;  269,362; 7469,642;26,05284
 530,72; 2149,139;  249,824; 7542,001;26,04593
 531,30; 2154,225;  228,054; 7745,941;25,62117
 531,89; 2197,202;  252,285; 7813,999;25,72059
 532,47; 2239,848;  281,054; 7927,406;25,61736
 533,05; 2245,266;  283,286; 7971,469;25,51942
 533,63; 2267,617;  271,823; 8017,629;25,76612
 534,22; 2230,574;  254,131; 8068,389;25,29278
 534,80; 2264,089;  275,515; 8161,053;25,21799
 535,38; 2365,091;  382,977; 8275,616;25,11344
 535,97; 2221,993;  261,131; 8119,926;24,95118
 536,55; 2298,086;  314,361; 8266,785;24,94491
 537,13; 2268,012;  321,901; 8224,363;24,62664
 537,71; 2316,719;  377,439; 8315,372;24,43054
 538,30; 2335,077;  392,823; 8351,845;24,40317
 538,88; 2346,291;  438,514; 8493,197;23,68532
 539,46; 2434,670;  510,053; 8658,370;23,61981
 540,05; 2467,746;  523,438; 8782,962;23,54019
 540,63; 2530,210;  574,130; 9045,146;23,09145
 541,21; 2549,342;  610,822; 9188,055;22,60076
 541,79; 2585,550;  666,745; 9299,651;22,22664
 542,38; 2653,606;  689,822; 9500,201;22,28944
 542,96; 2686,473;  700,744; 9627,804;22,24393
 543,54; 2723,675;  731,360; 9816,112;21,93032
 544,12; 2724,230;  697,129;10005,211;21,77786
 544,70; 2726,686;  678,513;10066,612;21,81670
 545,29; 2788,740;  690,207;10210,981;22,04163
 545,87; 2801,473;  666,052;10244,113;22,29491
 546,45; 2754,889;  606,207;10237,768;22,30876
 547,03; 2769,027;  586,207;10303,667;22,46286
 547,62; 2746,732;  549,360;10453,499;22,18640
 548,20; 2796,499;  535,821;10611,091;22,43789
 548,78; 2785,202;  494,743;10742,659;22,35049
 549,36; 2828,499;  445,974;10854,157;22,89089
 549,94; 2807,549;  405,283;11052,098;22,56323
 550,53; 2851,118;  416,051;11273,895;22,42681
 551,11; 2857,443;  376,358;11470,000;22,36493
 551,69; 2918,716;  386,512;11792,695;22,20027
 552,27; 2922,171;  351,282;12020,323;22,03171
 552,85; 3044,090;  344,819;12332,115;22,51776
 553,44; 3059,274;  333,051;12706,532;22,03279
 554,02; 3153,501;  350,358;13001,871;22,15658
 554,60; 3168,340;  282,896;13338,405;22,10135
 555,18; 3310,399;  323,128;13722,061;22,29485
 555,76; 3344,666;  307,666;14026,920;22,13678
 556,34; 3417,711;  318,357;14498,326;21,85727
 556,93; 3502,513;  287,512;14882,081;22,02875
 557,51; 3524,625;  271,819;15183,769;21,81342
 558,09; 3629,479;  309,358;15548,014;21,78749
 558,67; 3707,703;  300,972;15923,621;21,80636
 559,25; 3787,650;  314,049;16218,733;21,84011
 559,83; 3799,203;  296,818;16591,194;21,49444
 560,41; 3860,378;  285,511;16922,593;21,48735
 561,00; 3927,957;  296,895;17205,871;21,47416
 561,58; 3926,188;  281,050;17522,650;21,14153
 562,16; 3985,477;  273,281;17819,760;21,15636
 562,74; 4022,535;  260,589;18189,785;20,98224
 563,32; 4113,542;  259,664;18637,540;20,97020
 563,90; 4205,561;  288,434;18989,054;20,94651
 564,48; 4245,507;  290,973;19364,475;20,73313
 565,06; 4372,817;  281,126;19958,572;20,79381
 565,65; 4479,661;  280,356;20632,309;20,63343
 566,23; 4674,991;  341,972;21336,093;20,63920
 566,81; 4757,989;  281,434;22055,848;20,55879
 567,39; 4920,886;  291,664;23002,321;20,38348
 567,97; 5046,966;  311,049;23678,206;20,26741
 568,55; 5195,682;  339,818;24434,847;20,15297
 569,13; 5290,290;  281,818;25069,074;20,20583
 569,71; 5479,816;  281,358;26085,798;20,14560
 570,29; 5683,610;  326,204;27063,302;20,03735
 570,87; 5777,586;  316,743;27807,498;19,86429
 571,45; 5888,689;  305,203;28474,313;19,82131
 572,03; 5945,535;  277,664;28836,535;19,84627
 572,61; 6004,317;  279,510;29561,683;19,55049
 573,20; 6177,101;  292,588;30245,769;19,64570
 573,78; 6280,476;  289,664;30881,434;19,58309
 574,36; 6372,825;  314,280;31421,652;19,47624
 574,94; 6410,261;  377,356;31802,825;19,19750
 575,52; 6401,704;  295,432;31999,463;19,26024
 576,10; 6569,193;  368,509;32545,843;19,27035
 576,68; 6615,578;  349,048;33138,621;19,11135
 577,26; 6703,414;  369,354;33842,430;18,92285
 577,84; 6772,280;  378,895;34248,971;18,87621
 578,42; 6873,587;  436,740;34628,338;18,82581
 579,00; 6824,796;  374,279;34789,559;18,74318
 579,58; 6853,702;  428,202;34975,220;18,59929
 580,16; 6828,048;  386,586;35009,177;18,60479
 580,74; 6827,438;  395,278;35250,466;18,45395
 581,32; 6805,645;  384,740;35391,202;18,34205
 581,90; 6776,530;  417,894;35264,013;18,24776
 582,48; 6794,213;  408,048;35421,148;18,23936
 583,06; 6786,320;  394,894;35675,788;18,11583
 583,64; 6782,392;  405,894;35627,498;18,10394
 584,22; 6719,717;  425,893;35538,071;17,92490
 584,80; 6629,348;  431,817;35319,012;17,76449
 585,38; 6525,378;  438,819;34950,201;17,63638
 585,96; 6523,872;  416,202;35033,782;17,64326
 586,54; 6537,353;  431,739;34991,069;17,66705
 587,12; 6456,768;  384,355;35135,247;17,47412
 587,70; 6551,954;  423,895;35393,764;17,52383
 588,28; 6464,184;  401,817;35422,824;17,31066
 588,86; 6536,143;  402,740;35502,913;17,47400
 589,44; 6447,447;  379,739;35698,398;17,17989
 590,02; 6512,351;  381,047;35790,731;17,31533
 590,59; 6458,220;  363,355;36071,982;17,06833
 591,17; 6552,673;  366,661;36343,113;17,19462
 591,75; 6543,200;  351,123;36396,451;17,17858
 592,33; 6573,520;  368,123;36635,745;17,11002
 592,91; 6518,293;  322,661;36802,773;16,98359
 593,49; 6584,316;  323,045;37090,183;17,02953
 594,07; 6615,875;  342,430;37386,404;16,93513
 594,65; 6594,701;  358,739;37316,426;16,87325
 595,23; 6653,425;  345,893;37877,163;16,80607
 595,81; 6594,641;  324,354;37980,455;16,65145
 596,39; 6652,469;  326,969;38049,494;16,76850
 596,97; 6612,193;  321,123;38336,446;16,54877
 597,55; 6593,531;  329,124;38165,795;16,55645
 598,12; 6512,916;  294,506;38053,860;16,46853
 598,70; 6509,899;  308,815;38368,362;16,29311
 599,28; 6535,240;  326,584;38480,814;16,27252
 599,86; 6524,939;  321,584;38551,727;16,22634
 600,44; 6467,354;  285,891;38621,596;16,12456
 601,02; 6512,790;  338,583;38714,775;16,08864
 601,60; 6446,257;  314,584;38670,846;15,98611
 602,18; 6396,549;  278,045;38689,897;15,92869
 602,75; 6365,635;  286,662;38786,473;15,78962
 603,33; 6364,802;  301,122;38832,526;15,73698
 603,91; 6310,396;  297,737;38795,365;15,61826
 604,49; 6343,981;  317,815;38813,498;15,65414
 605,07; 6334,693;  328,969;38843,643;15,59334
 605,65; 6283,977;  340,968;38932,761;15,39967
 606,23; 6313,585;  404,893;39179,461;15,23857
 606,80; 6319,305;  462,046;39158,915;15,13626
 607,38; 6297,528;  518,583;39228,969;14,92867
 607,96; 6315,940;  579,970;39333,597;14,80112
 608,54; 6335,416;  661,660;39410,510;14,64238
 609,12; 6321,031;  667,816;39470,598;14,56910
 609,70; 6331,617;  706,661;39567,803;14,47450
 610,27; 6297,043;  705,124;39535,885;14,40075
 610,85; 6319,965;  746,199;39623,322;14,33688
 611,43; 6266,733;  731,892;39526,545;14,26702
 612,01; 6137,850;  695,354;39265,911;14,11049
 612,59; 6152,683;  685,122;39413,678;14,11765
 613,16; 6116,740;  650,970;39404,399;14,10397
 613,74; 6058,605;  622,045;39147,055;14,11177
 614,32; 6000,353;  570,430;39181,665;14,06307
 614,90; 5963,530;  510,661;38991,155;14,17047
 615,48; 5902,312;  453,816;38684,228;14,25173
 616,05; 5833,951;  409,355;38686,801;14,17178
 616,63; 5781,129;  432,817;38503,836;14,04825
 617,21; 5754,801;  414,277;38347,683;14,07868
 617,79; 5661,130;  401,277;38316,994;13,87249
 618,36; 5674,824;  396,200;38153,470;13,98042
 618,94; 5554,582;  349,124;37891,123;13,86569
 619,52; 5484,983;  366,201;37661,924;13,72485
 620,10; 5496,396;  347,662;37667,762;13,79614
 620,67; 5447,240;  350,970;37468,134;13,73022
 621,25; 5440,707;  389,354;37329,951;13,67426
 621,83; 5366,517;  360,662;37274,710;13,56084
 622,41; 5388,018;  416,278;37299,613;13,47964
 622,98; 5311,688;  375,970;37073,364;13,44978
 623,56; 5266,349;  374,278;37008,718;13,35375
 624,14; 5257,672;  358,507;36823,868;13,43512
 624,72; 5217,779;  345,816;36709,748;13,39779
 625,29; 5186,922;  334,201;36910,709;13,26731
 625,87; 5168,307;  380,662;36708,475;13,17901
 626,45; 5081,316;  319,971;36631,889;13,11235
 627,02; 5030,993;  333,200;36559,101;12,96805
 627,60; 5013,297;  313,430;36456,278;13,00359
 628,18; 4968,647;  314,893;36567,752;12,83693
 628,76; 4990,078;  309,586;36546,500;12,91636
 629,33; 4994,313;  346,970;36579,543;12,82642
 629,91; 4949,704;  322,662;36589,377;12,75837
 630,49; 4933,202;  337,047;36732,868;12,62825
 631,06; 4934,018;  324,201;36869,914;12,61384
 631,64; 4900,936;  325,663;36682,871;12,58423
 632,22; 4869,656;  291,125;36696,558;12,57651
 632,79; 4918,767;  325,048;37006,933;12,52313
 633,37; 4855,918;  292,815;37049,584;12,41432
 633,95; 4882,390;  299,509;37105,321;12,45151
 634,52; 4891,876;  287,354;37261,738;12,45327
 635,10; 4875,960;  300,893;37214,434;12,39401
 635,68; 4906,360;  297,586;37462,222;12,40096
 636,25; 4850,681;  269,049;37444,839;12,32424
 636,83; 4857,462;  264,586;37635,807;12,28988
 637,41; 4841,634;  285,279;37583,008;12,21617
 637,98; 4892,113;  311,510;37886,738;12,19049
 638,56; 4868,733;  285,587;37996,721;12,15330
 639,13; 4845,508;  268,509;38017,931;12,12469
 639,71; 4935,151;  341,663;38202,232;12,13265
 640,29; 4795,621;  248,047;37942,112;12,06443
 640,86; 4850,149;  265,586;38203,469;12,08439
 641,44; 4800,984;  264,739;38142,057;11,97615
 642,02; 4828,512;  294,970;38180,337;11,96647
 642,59; 4806,347;  257,355;38337,924;11,94570
 643,17; 4813,644;  267,970;38411,666;11,91723
 643,74; 4763,941;  264,355;38386,177;11,80318
 644,32; 4779,315;  298,124;38230,688;11,81357
 644,89; 4760,381;  290,893;38330,737;11,74949
 645,47; 4777,216;  295,970;38275,248;11,79919
 646,05; 4752,129;  301,047;38199,144;11,74487
 646,62; 4739,810;  267,970;38176,962;11,79625
 647,20; 4747,184;  280,970;38458,243;11,69862
 647,77; 4667,173;  258,739;38227,215;11,61077
 648,35; 4704,086;  249,047;38133,264;11,75962
 648,92; 4657,767;  280,970;38176,083;11,54977
 649,50; 4640,295;  245,124;38084,748;11,61526
 650,08; 4636,438;  248,508;37951,028;11,63829
 650,65; 4636,043;  257,277;38129,693;11,56189
 651,23; 4701,878;  235,508;38845,896;11,56779
 651,80; 4830,637;  241,893;39880,099;11,57657
 652,38; 4875,857;  255,431;40266,764;11,54779
 652,95; 4850,923;  238,047;40564,198;11,43892
 653,53; 4874,066;  264,047;40893,632;11,34646
 654,10; 4954,055;  294,508;41011,527;11,44373
 654,68; 4870,352;  231,123;40936,115;11,39720
 655,25; 4859,418;  240,123;40927,549;11,35313
 655,83; 4862,254;  238,816;41064,983;11,32469
 656,40; 4908,628;  277,431;41097,956;11,34526
 656,98; 4844,386;  246,816;41053,774;11,26663
 657,55; 4822,375;  245,892;40850,823;11,27076
 658,13; 4794,672;  247,354;40513,257;11,29322
 658,70; 4733,046;  268,354;40338,307;11,14224
 659,28; 4649,112;  237,277;39441,279;11,25353
 659,85; 4521,563;  275,815;38656,944;11,06207
 660,43; 4551,783;  274,354;38613,840;11,15672
 661,00; 4519,388;  255,738;38758,350;11,07366
 661,58; 4510,069;  255,431;39162,015;10,93552
 662,15; 4571,597;  242,123;39258,449;11,09657
 662,73; 4635,048;  317,815;39676,499;10,96895
 663,30; 4624,268;  258,200;39816,317;11,03710
 663,88; 4640,565;  261,354;39932,290;11,03884
 664,45; 4615,092;  244,969;40214,493;10,93364
 665,03; 4657,543;  252,969;40498,465;10,94427
 665,60; 4762,379;  345,661;40980,438;10,86930
 666,17; 4697,137;  254,661;41057,026;10,88779
 666,75; 4715,511;  250,661;41476,844;10,83013
 667,32; 4795,885;  273,584;41833,355;10,88144
 667,90; 4807,874;  259,815;42040,558;10,88554
 668,47; 4847,402;  275,584;42304,992;10,87766
 669,05; 4848,314;  252,353;42670,888;10,83479
 669,62; 4832,919;  224,892;42792,476;10,82520
 670,19; 4837,370;  230,199;42808,679;10,82042
 670,77; 4908,743;  251,661;43089,651;10,87138
 671,34; 4882,502;  231,430;42909,470;10,89804
 671,92; 4877,568;  232,661;43328,288;10,77814
 672,49; 4915,019;  266,199;43277,492;10,80837
 673,06; 4884,931;  217,276;43393,310;10,81075
 673,64; 4917,613;  226,045;43290,667;10,89425
 674,21; 4914,525;  230,738;43272,332;10,88200
 674,79; 4930,668;  246,276;43567,689;10,81311
 675,36; 4943,657;  247,507;43671,508;10,81464
 675,93; 4931,339;  223,584;43539,480;10,86842
 676,51; 4967,867;  254,353;43741,607;10,83884
 677,08; 4953,625;  256,891;43814,964;10,78269
 677,65; 4942,461;  245,430;43940,474;10,74957
 678,23; 4959,219;  248,353;44134,601;10,73427
 678,80; 4966,593;  247,891;44335,881;10,70292
 679,38; 4966,121;  236,968;44460,161;10,69383
 679,95; 5033,264;  251,507;44698,210;10,75841
 680,52; 5031,484;  232,737;45020,337;10,71445
 681,10; 5078,704;  253,891;45252,309;10,72218
 681,67; 5109,924;  251,891;45654,743;10,69984
 682,24; 5064,605;  223,583;45647,100;10,65752
 682,82; 5159,133;  228,199;46216,534;10,72214
 683,39; 5271,199;  284,430;46554,353;10,77756
 683,96; 5249,189;  251,353;46749,633;10,74843
 684,54; 5255,255;  216,660;47143,605;10,73710
 685,11; 5381,398;  285,199;47620,578;10,76615
 685,68; 5381,926;  237,276;47943,627;10,78399
 686,25; 5409,146;  220,199;47977,523;10,86524
 686,83; 5429,904;  242,891;48173,649;10,82189
 687,40; 5446,047;  232,737;48641,775;10,76929
 687,97; 5510,883;  292,275;49037,902;10,70580
 688,55; 5487,410;  228,275;49002,028;10,78272
 689,12; 5478,938;  205,045;49250,462;10,75308
 689,69; 5528,850;  223,583;49361,819;10,79662
 690,26; 5576,070;  226,814;49423,484;10,87321
 690,84; 5578,983;  232,198;49572,841;10,83647
 691,41; 5592,664;  252,737;49630,121;10,81452
 691,98; 5697,423;  247,275;50012,093;10,95181
 692,56; 5651,104;  248,583;50084,912;10,84053
 693,13; 5738,017;  283,660;50120,038;10,94453
 693,70; 5742,390;  256,660;50346,934;10,95169
 694,27; 5739,457;  229,660;50424,214;10,97688
 694,84; 5762,138;  227,352;50553,186;10,99790
 695,42; 5821,820;  287,890;50713,082;10,97453
 695,99; 5837,809;  250,583;50970,593;11,01582
 696,56; 5835,798;  240,429;50747,796;11,07832
 697,13; 5913,557;  256,967;51118,768;11,12149
 697,71; 5910,469;  234,967;51101,895;11,15755
 698,28; 5932,920;  229,506;51511,175;11,12174
 698,85; 5935,063;  203,890;51588,301;11,15352
 699,42; 5976,514;  199,121;51639,581;11,23122
 699,99; 6040,041;  261,659;51835,861;11,20402
 700,57; 6044,800;  243,813;51785,603;11,25492
 701,14; 6037,251;  234,198;52064,191;11,19632
 701,71; 6082,855;  256,967;52276,010;11,19953
 702,28; 6091,845;  236,429;52196,597;11,26905
 702,85; 6109,065;  240,736;52263,031;11,28041
 703,43; 6190,515;  263,044;52545,312;11,33744
 704,00; 6197,582;  275,813;52840,130;11,26576
 704,57; 6180,417;  255,275;52740,564;11,28915
 705,14; 6250,329;  278,121;53119,383;11,30217
 705,71; 6267,934;  291,736;53002,124;11,33780
 706,28; 6221,923;  261,736;52995,174;11,30248
 706,86; 6306,759;  292,967;53308,531;11,34345
 707,43; 6361,209;  323,582;53181,734;11,42232
 708,00; 6386,276;  294,813;53179,783;11,51832
 708,57; 6324,803;  256,659;53074,602;11,48879
 709,14; 6418,331;  288,659;53306,498;11,56153
 709,71; 6418,013;  266,967;53299,701;11,59858
 710,28; 6483,156;  270,428;53487,596;11,67429
 710,86; 6519,376;  275,120;53725,492;11,68234
 711,43; 6549,365;  299,736;53655,618;11,71310
 712,00; 6560,585;  262,197;53721,283;11,78170
 712,57; 6624,190;  284,351;53918,563;11,82051
 713,14; 6659,640;  250,582;54055,766;11,91160
 713,71; 6676,860;  270,197;53948,123;11,93538
 714,28; 6668,696;  246,274;53911,019;11,96767
 714,85; 6680,839;  249,428;53726,607;12,02646
 715,42; 6667,520;  247,812;53999,810;11,94320
 716,00; 6806,971;  318,582;54123,167;12,05918
 716,57; 6768,807;  254,966;54213,985;12,07183
 717,14; 6786,027;  236,120;54124,573;12,15456
 717,71; 6791,631;  231,274;54153,853;12,16625
 718,28; 6923,467;  275,043;54303,595;12,30539
 718,85; 6857,764;  225,120;54290,029;12,26793
 719,42; 6898,291;  257,043;54456,078;12,25344
 719,99; 6886,127;  228,966;54163,436;12,34305
 720,56; 7023,116;  258,658;54601,023;12,44785
 721,13; 7002,413;  228,812;54648,765;12,44691
 721,70; 7002,325;  224,351;54471,122;12,49471
 722,27; 7014,391;  254,197;54491,018;12,46422
 722,84; 7092,765;  324,427;54774,221;12,43042
 723,41; 7053,216;  234,504;54597,424;12,54295
 723,98; 7087,282;  240,197;54852,473;12,53763
 724,55; 7167,733;  255,350;55039,292;12,61753
 725,12; 7116,876;  207,735;54881,726;12,63698
 725,69; 7202,712;  226,889;55244,006;12,67937
 726,27; 7244,470;  228,966;55288,363;12,74170
 726,84; 7332,459;  239,196;55550,413;12,82428
 727,41; 7397,218;  263,658;55550,154;12,90290
 727,98; 7395,976;  253,043;55782,819;12,86325
 728,55; 7506,581;  285,119;55635,253;13,04687
 729,12; 7485,416;  223,427;55924,918;13,03733
 729,69; 7506,021;  264,966;55950,583;13,00346
 730,26; 7542,241;  258,119;56249,247;13,00942
 730,82; 7560,307;  253,042;56026,604;13,10166
 731,39; 7635,143;  240,735;56137,654;13,22865
 731,96; 7672,286;  224,735;56472,857;13,24053
 732,53; 7777,121;  246,119;56736,291;13,33153
 733,10; 7849,418;  260,504;56820,956;13,41735
 733,67; 7809,638;  248,273;56947,851;13,33584
 734,24; 7809,781;  239,581;56591,285;13,43384
 734,81; 7867,693;  268,811;56683,411;13,46971
 735,38; 7827,913;  244,581;56442,692;13,49393
 735,95; 7825,441;  236,965;56367,203;13,51941
 736,52; 7855,969;  248,042;56606,483;13,49918
 737,09; 7908,420;  254,657;56186,840;13,68400
 737,66; 7993,794;  324,196;56445,120;13,66620
 738,23; 7975,014;  242,888;56470,169;13,75155
 738,80; 8150,541;  321,503;56799,065;13,86221
 739,37; 8146,223;  275,965;56994,499;13,87599
 739,94; 8163,827;  247,580;56972,240;13,95557
 740,51; 8277,047;  392,273;57077,751;13,90969
 741,07; 8234,037;  249,350;56955,801;14,08074
 741,64; 8284,334;  287,349;57183,235;14,05547
 742,21; 8291,784;  263,965;57294,976;14,07624
 742,78; 8250,081;  234,273;57027,641;14,11399
 743,35; 8344,917;  253,965;57277,152;14,18888
 743,92; 8471,368;  298,426;57446,663;14,30130
 744,49; 8539,280;  291,580;57263,174;14,47686
 745,06; 8439,654;  245,119;57414,146;14,33387
 745,63; 8512,720;  234,734;57405,273;14,47946
 746,19; 8601,863;  256,657;57336,168;14,62032
 746,76; 8636,775;  247,503;57463,679;14,66241
 747,33; 8641,842;  246,965;57425,113;14,68197
 747,90; 8759,600;  271,272;57588,239;14,80945
 748,47; 8690,897;  271,118;57525,135;14,70601
 749,04; 8698,809;  267,118;57555,492;14,71798
 749,61; 8773,568;  284,426;57566,234;14,81996
 750,17; 8780,711;  287,272;57659,360;14,80413
 750,74; 8839,469;  273,195;57362,794;15,00496
 751,31; 8834,766;  249,811;57369,459;15,02978
 751,88; 8828,986;  226,887;57272,893;15,07923
 752,45; 8902,976;  254,272;57446,634;15,12213
 753,02; 8932,426;  272,657;57291,991;15,18743
 753,58; 8924,108;  244,657;57051,195;15,27897
 754,15; 8994,405;  251,657;57378,090;15,30421
 754,72; 8952,240;  248,964;57092,601;15,31091
 755,29; 8966,383;  224,810;56863,496;15,43393
 755,86; 8985,450;  250,349;57029,546;15,38433
 756,42; 9113,285;  260,195;56920,057;15,62498
 756,99; 9020,659;  226,426;56948,029;15,50420
 757,56; 9105,956;  235,964;56885,002;15,65780
 758,13; 9155,560;  196,349;56812,436;15,82450
 758,70; 9229,473;  226,810;56848,947;15,89955
 759,26; 9220,077;  222,579;56970,227;15,85528
 759,83; 9250,144;  229,810;57070,045;15,86963
 760,40; 9245,133;  212,041;56890,710;15,93737
 760,97; 9357,276;  211,348;56921,606;16,12747
 761,53; 9285,111;  192,195;56504,809;16,14721
 762,10; 9304,639;  191,656;56563,935;16,16572
 762,67; 9341,321;  223,271;56603,061;16,17255
 763,24; 9302,848;  183,810;56051,341;16,32261
 763,80; 9376,222;  223,425;56241,237;16,33908
 764,37; 9350,442;  211,964;56300,748;16,29288
 764,94; 9324,816;  196,656;55696,720;16,44712
 765,50; 9352,728;  204,271;55714,924;16,48054
 766,07; 9443,795;  246,733;55810,819;16,55217
 766,64; 9406,015;  216,194;55484,253;16,62772
 767,21; 9419,542;  214,656;55393,687;16,68186
 767,77; 9483,608;  232,656;55221,660;16,82328
 768,34; 9448,598;  244,579;55194,170;16,74993
 768,91; 9515,895;  245,271;55060,912;16,91237
 769,47; 9488,115;  243,348;55117,500;16,84722
 770,04; 9514,412;  244,579;54956,088;16,94311
 770,61; 9477,632;  223,733;54728,368;16,97819
 771,18; 9484,236;  212,271;54628,725;17,03890
 771,74; 9586,379;  238,040;54811,467;17,12984
 772,31; 9581,522;  245,040;54589,054;17,18033
 772,88; 9568,204;  213,425;54299,181;17,29620
 773,44; 9587,501;  223,425;54185,999;17,35291
 774,01; 9633,952;  236,886;54236,741;17,40202
 774,58; 9631,479;  227,655;53946,098;17,50576
 775,14; 9661,930;  212,271;54039,532;17,55553
 775,71; 9688,304;  223,809;53986,428;17,60423
 776,27; 9792,216;  276,578;53841,169;17,76479
 776,84; 9839,821;  328,425;53956,142;17,73597
 777,41; 9739,041;  240,117;53691,191;17,77125
 777,97; 9786,569;  220,886;53428,394;17,97807
 778,54; 9794,097;  248,194;53390,290;17,96298
 779,11; 9886,009;  270,194;53495,262;18,06633
 779,67; 9861,075;  222,117;53410,004;18,12247
 780,24; 9876,295;  232,578;53165,592;18,21872
 780,80; 9898,515;  250,117;53200,026;18,22175
 781,37; 9903,735;  253,270;53104,844;18,25956
 781,94; 9916,109;  245,193;52835,740;18,38908
 782,50; 9960,098;  242,193;52840,405;18,47573
 783,07;10010,549;  257,424;52875,762;18,53560
 783,63;10044,692;  237,116;52575,350;18,73884
 784,20; 9977,220;  265,963;52647,322;18,53953
 784,77; 9980,901;  245,809;52351,525;18,68335
 785,33; 9916,737;  220,886;52246,036;18,63685
 785,90; 9976,264;  240,193;52147,162;18,75677
 786,46; 9985,946;  261,732;52029,519;18,78430
 787,03; 9945,474;  234,116;51986,569;18,76502
 787,59; 9974,540;  236,270;51863,772;18,86256
 788,16;10009,298;  248,962;51771,283;18,94390
 788,73; 9996,057;  251,885;51533,102;19,00144
 789,29; 9994,662;  234,962;51263,689;19,12589
 789,86; 9922,189;  268,962;51160,585;18,96820
 790,42; 9936,025;  232,039;51047,942;19,09636
 790,99; 9926,014;  244,424;50660,991;19,20319
 791,55; 9915,388;  235,193;50632,425;19,20779
 792,12; 9986,531;  272,347;50627,167;19,29147
 792,68; 9903,212;  240,270;50357,293;19,28076
 793,25; 9937,894;  248,270;50088,727;19,44128
 793,81; 9977,191;  337,808;49829,546;19,47675
 794,38; 9852,872;  217,731;49614,211;19,50572
 794,94; 9948,554;  231,962;49474,260;19,73221
 795,51; 9866,005;  253,885;49144,463;19,66047
 796,07; 9863,994;  242,116;48961,897;19,74943
 796,64; 9912,291;  265,808;49067,024;19,76689
 797,20; 9865,588;  253,654;48505,073;19,92052
 797,77; 9771,962;  215,808;48153,353;19,93459
 798,33; 9808,874;  239,962;48140,479;19,97664
 798,90; 9836,479;  260,269;47978,913;20,06807
 799,46; 9752,083;  236,808;47545,578;20,11313
 800,03; 9818,611;  254,423;47523,627;20,23344
 800,59; 9818,523;  249,423;47206,292;20,37849
 801,15; 9813,513;  257,039;47071,342;20,41358
 801,72; 9765,733;  258,577;46631,929;20,50133
 802,28; 9736,568;  279,115;46404,979;20,50358
 802,85; 9667,404;  239,423;46243,413;20,49383
 803,41; 9706,085;  249,346;46031,231;20,65607
 803,98; 9675,844;  239,500;45572,511;20,81561
 804,54; 9708,448;  244,192;45372,792;20,97175
 805,11; 9681,361;  259,423;45161,226;20,98343
 805,67; 9667,042;  272,500;45023,967;20,99270
 806,23; 9602,031;  254,269;44521,401;21,11671
 806,80; 9619,559;  275,192;44444,528;21,15578
 807,36; 9656,779;  278,346;44432,346;21,24028
 807,93; 9588,999;  288,577;44183,242;21,18805
 808,49; 9529,065;  244,269;43786,291;21,32376
 809,05; 9456,670;  231,423;43577,648;21,28270
 809,62; 9551,967;  268,577;43471,005;21,48812
 810,18; 9526,879;  255,730;43466,285;21,45575
 810,74; 9482,638;  226,807;43140,412;21,56852
 811,31; 9491,781;  230,807;43011,999;21,64730
 811,87; 9511,847;  256,115;42790,357;21,76066
 812,44; 9477,682;  286,807;42823,867;21,60675
 813,00; 9405,287;  201,499;42559,148;21,72875
 813,56; 9516,892;  244,115;42621,812;21,88127
 814,13; 9524,804;  239,576;42495,708;21,97368
 814,69; 9508,255;  239,730;42243,603;22,06588
 815,25; 9435,706;  208,115;41902,037;22,13174
 815,82; 9535,464;  260,345;41795,087;22,33099
 816,38; 9518,453;  295,038;41620,982;22,31870
 816,94; 9436,443;  229,576;41280,955;22,42767
 817,51; 9386,586;  219,961;41041,081;22,45559
 818,07; 9440,883;  230,268;40799,746;22,70331
 818,63; 9383,487;  236,884;40584,410;22,66955
 819,20; 9433,861;  239,961;40555,537;22,80483
 819,76; 9356,081;  228,345;40167,509;22,85410
 820,32; 9354,917;  270,191;40100,482;22,80858
 820,89; 9330,290;  253,884;39798,685;22,95221
 821,45; 9270,126;  228,961;39533,427;23,00290
 822,01; 9225,269;  244,961;39248,014;23,02463
 822,57; 9235,258;  255,037;39209,295;23,05325
 823,14; 9195,940;  212,807;38894,959;23,22294
 823,70; 9171,390;  218,422;38650,086;23,29581
 824,26; 9229,072;  229,499;38514,673;23,50668
 824,82; 9228,292;  259,422;38380,338;23,52743
 825,39; 9122,974;  229,037;38013,541;23,53858
 825,95; 9173,963;  249,576;38114,745;23,56886
 826,51; 9089,337;  242,653;37663,409;23,64111
 827,08; 9212,941;  281,191;37770,459;23,82482
 827,64; 9151,623;  247,729;37523,277;23,88669
 828,20; 9149,997;  230,037;37271,634;24,08093
 828,76; 9137,601;  265,652;37345,145;23,92683
 829,32; 9185,591;  274,268;37065,579;24,22127
 829,89; 9126,195;  208,268;36921,090;24,29104
 830,45; 9099,415;  248,037;36847,524;24,18443
 831,01; 9126,251;  238,114;36699,112;24,37711
 831,57; 9087,317;  239,575;36600,392;24,33318
 832,14; 9067,306;  244,268;36474,595;24,35263
 832,70; 9096,218;  216,883;36269,337;24,62893
 833,26; 9094,208;  201,806;36224,694;24,68542
 833,82; 9097,889;  233,421;36114,205;24,70534
 834,38; 9162,417;  217,421;36174,101;24,87715
 834,95; 9087,252;  218,729;36036,535;24,76010
 835,51; 9090,472;  192,498;35837,584;24,96270
 836,07; 9104,846;  231,344;35939,172;24,85030
 836,63; 9186,759;  247,883;35878,298;25,08777
 837,19; 9175,671;  252,806;35736,886;25,14611
 837,75; 9039,737;  200,652;35462,012;25,06734
 838,32; 9165,726;  258,113;35601,369;25,20315
 838,88; 9149,023;  256,037;35604,495;25,15806
 839,44; 9172,166;  248,806;35466,314;25,33785
 840,00; 9116,386;  251,113;35435,440;25,19665
 840,56; 9108,991;  226,190;35080,797;25,48530
 841,12; 9074,750;  222,652;35015,385;25,44238
 841,68; 9086,585;  209,806;34833,896;25,63758
 842,25; 9108,882;  228,729;34901,484;25,61133
 842,81; 8989,487;  211,344;34620,072;25,51138
 843,37; 8995,937;  201,421;34701,506;25,49129
 843,93; 9033,080;  220,729;34458,478;25,73870
 844,49; 9057,608;  238,267;34559,143;25,69673
 845,05; 9004,367;  202,190;34365,500;25,76500
 845,61; 9052,587;  245,036;34503,857;25,70885
 846,17; 9013,114;  221,498;34338,214;25,76923
 846,73; 9061,104;  232,575;34276,264;25,93294
 847,29; 8968,324;  211,882;34110,851;25,83100
 847,86; 9069,159;  216,805;33952,055;26,24066
 848,42; 9000,148;  219,190;33779,566;26,16466
 848,98; 9045,907;  236,267;33691,307;26,33277
 849,54; 9067,973;  214,190;33850,203;26,32233
 850,10; 9037,424;  242,728;33689,714;26,29443
 850,66; 9032,951;  210,574;33424,686;26,56213
 851,22; 9029,556;  199,574;33423,812;26,57693
 851,78; 9120,084;  256,959;33446,939;26,70422
 852,34; 8994,073;  240,728;33199,757;26,55826
 852,90; 9060,832;  224,805;33124,268;26,85766
 853,46; 9011,975;  218,805;32893,779;26,91102
 854,02; 9055,041;  234,113;32900,213;27,00331
 854,58; 8997,876;  218,113;32651,801;27,06989
 855,14; 9010,019;  224,113;32503,927;27,21796
 855,70; 9018,393;  186,728;32436,823;27,38493
 856,26; 9026,998;  225,728;32374,795;27,37644
 856,82; 9001,756;  230,805;32171,306;27,46028
 857,38; 9045,822;  268,189;32077,740;27,59433
 857,94; 9028,350;  221,420;31949,559;27,75747
 858,50; 9016,878;  250,035;31825,531;27,76470
 859,06; 8998,636;  217,959;31667,196;27,92016
 859,62; 8994,626;  238,420;31613,399;27,90824
 860,18; 8978,076;  231,189;31378,064;28,08271
 860,74; 8945,450;  191,266;31234,882;28,19963
 861,30; 8898,363;  193,497;31190,163;28,08323
 861,86; 8998,275;  286,805;31166,597;28,21091
 862,42; 8902,649;  218,497;30958,415;28,25041
 862,98; 8943,561;  251,881;30923,618;28,33775
 863,54; 8891,704;  221,574;30667,822;28,47684
 864,10; 8931,770;  221,958;30784,179;28,49862
 864,66; 8852,144;  201,112;30474,613;28,57625
 865,22; 8840,980;  225,420;30385,508;28,56610
 865,78; 8823,200;  237,112;30299,865;28,56055
 866,34; 8796,035;  208,958;30246,992;28,58735
 866,90; 8805,255;  232,112;30103,272;28,70040
 867,45; 8743,244;  233,958;29852,475;28,72962
 868,01; 8738,003;  236,343;29685,986;28,86847
 868,57; 8695,992;  229,650;29551,727;28,87361
 869,13; 8664,828;  201,650;29420,085;28,96520
 869,69; 8675,048;  217,189;29280,826;29,10117
 870,25; 8663,960;  191,112;29178,491;29,22944
 870,81; 8651,026;  218,342;29103,156;29,19418
 871,37; 8655,554;  240,112;28996,359;29,26474
 871,93; 8668,466;  247,189;28885,178;29,40597
 872,49; 8634,378;  273,804;28570,919;29,54568
 873,04; 8543,291;  203,958;28394,045;29,58250
 873,60; 8563,972;  206,188;28346,941;29,69993
 874,16; 8565,885;  237,650;28232,375;29,74930
 874,72; 8573,346;  217,727;28196,144;29,86452
 875,28; 8561,962;  229,958;28072,067;29,92591
 875,84; 8596,654;  224,804;27981,837;30,16119
 876,40; 8541,423;  216,727;27949,144;30,01792
 876,95; 8607,654;  229,265;27904,990;30,27342
 877,51; 8606,500;  263,265;27900,606;30,18827
 878,07; 8656,192;  266,265;27896,606;30,36491
 878,63; 8648,808;  220,342;27927,913;30,41936
 879,19; 8700,115;  243,342;27907,606;30,56931
 879,75; 8721,115;  222,419;27940,606;30,66108
 880,30; 8705,808;  215,112;27936,990;30,62814
 880,86; 8788,731;  263,727;28103,990;30,62113
 881,42; 8793,115;  203,881;28077,298;30,81515
 881,98; 8890,731;  237,188;28188,221;30,95965
 882,54; 8892,115;  221,804;28279,067;30,90220
 883,09; 8984,808;  239,342;28396,452;31,05953
 883,65; 9029,115;  213,419;28461,221;31,20843
 884,21; 9164,808;  267,804;28696,221;31,29616
 884,77; 9181,500;  219,958;28725,298;31,43812
 885,32; 9239,731;  222,342;28812,298;31,54041
 885,88; 9339,038;  270,265;29006,837;31,55830
 886,44; 9414,115;  228,342;29103,760;31,81174
 887,00; 9443,808;  249,650;29041,913;31,93274
 887,56; 9451,038;  223,650;29237,067;31,80387
 888,11; 9519,577;  237,804;29266,298;31,97470
 888,67; 9654,731;  250,265;29413,375;32,24781
 889,23; 9644,654;  233,188;29495,913;32,16196
 889,79; 9632,192;  210,958;29259,760;32,43244
 890,34; 9626,962;  237,112;29289,837;32,32003
 890,90; 9789,346;  312,342;29409,760;32,56991
 891,46; 9675,500;  218,881;29309,990;32,50690
 892,01; 9748,808;  244,035;29297,144;32,71517
 892,57; 9724,577;  262,496;29222,990;32,67237
 893,13; 9717,115;  246,573;29041,221;32,88994
 893,69; 9652,808;  212,419;29061,990;32,72280
 894,24; 9655,269;  226,727;28902,221;32,88014
 894,80; 9661,115;  221,804;28724,067;33,11776
 895,36; 9618,500;  233,804;28604,144;33,07925
 895,91; 9589,346;  230,881;28422,452;33,19597
 896,47; 9641,808;  250,188;28324,298;33,45295
 897,03; 9556,885;  230,342;28097,067;33,46838
 897,58; 9521,885;  239,112;27986,529;33,45455
 898,14; 9485,500;  238,958;27858,683;33,47804
 898,70; 9437,269;  204,727;27646,683;33,64389
 899,25; 9443,038;  220,112;27692,913;33,57112
 899,81; 9412,038;  243,573;27417,221;33,74028
 900,37; 9311,038;  201,496;27214,144;33,72325
 900,92; 9327,885;  236,958;27294,298;33,59875
 901,48; 9274,731;  221,573;27185,221;33,57542
 902,03; 9284,500;  232,727;26943,375;33,88826
 902,59; 9291,038;  214,881;26881,298;34,03591
 903,15; 9195,808;  237,188;26732,067;33,81264
 903,70; 9109,500;  229,650;26462,144;33,85057
 904,26; 9144,654;  216,342;26371,837;34,13551
 904,82; 9113,423;  218,496;26383,760;33,99517
 905,37; 9093,654;  236,804;26159,606;34,16625
 905,93; 9090,808;  216,112;26090,452;34,29922
 906,48; 9024,731;  240,419;26039,452;34,04900
 907,04; 9059,731;  242,342;25951,221;34,29706
 907,60; 9051,885;  236,188;25645,452;34,69481
 908,15; 8963,346;  218,035;25557,221;34,51299
 908,71; 9028,577;  243,804;25510,452;34,76826
 909,26; 8984,115;  234,419;25440,837;34,71218
 909,82; 8978,577;  237,035;25346,913;34,81316
 910,37; 8999,423;  264,958;25194,298;35,03689
 910,93; 8925,500;  211,958;24943,529;35,23247
 911,48; 8867,038;  219,188;24847,837;35,11297
 912,04; 8853,808;  215,265;24681,529;35,30798
 912,60; 8838,269;  221,573;24733,375;35,15325
 913,15; 8891,500;  221,804;24549,298;35,63744
 913,71; 8749,192;  212,650;24407,144;35,28300
 914,26; 8781,192;  205,112;24294,221;35,60149
 914,82; 8771,962;  234,881;24241,529;35,56132
 915,37; 8723,423;  218,573;24162,606;35,51971
 915,93; 8783,654;  275,573;23994,375;35,87062
 916,48; 8731,962;  218,112;23872,760;35,99229
 917,04; 8701,038;  238,112;23744,067;36,00333
 917,59; 8719,269;  254,881;23735,375;36,04860
 918,15; 8605,731;  187,188;23463,606;36,16769
 918,70; 8655,038;  220,881;23407,452;36,37518
 919,26; 8644,115;  227,881;23336,760;36,41992
 919,81; 8603,577;  204,419;23087,067;36,70536
 920,37; 8599,269;  220,419;23111,067;36,60381
 920,92; 8623,500;  242,727;23051,606;36,74347
 921,48; 8589,654;  210,112;22784,990;37,11888
 922,03; 8558,654;  207,804;22802,375;36,95954
 922,59; 8467,346;  227,650;22563,760;36,88958
 923,14; 8482,346;  218,804;22489,529;37,10495
 923,69; 8517,423;  242,035;22474,375;37,22230
 924,25; 8538,423;  244,650;22413,606;37,41165
 924,80; 8439,269;  223,804;22212,529;37,36217
 925,36; 8468,346;  219,881;22110,760;37,67992
 925,91; 8370,654;  211,573;21957,221;37,52052
 926,47; 8377,577;  209,881;21860,298;37,72535
 927,02; 8430,500;  302,035;21856,913;37,71056
 927,57; 8321,808;  217,188;21696,760;37,73176
 928,13; 8261,577;  210,188;21592,990;37,65357
 928,68; 8280,346;  220,035;21514,375;37,85190
 929,24; 8157,346;  191,727;21244,298;37,83680
 929,79; 8184,885;  214,112;21192,606;37,99497
 930,34; 8134,577;  225,419;21055,375;37,97011
 930,90; 8127,731;  213,727;20958,067;38,15018
 931,45; 8115,038;  221,342;20992,683;38,00283
 932,01; 8119,115;  223,265;20861,683;38,25802
 932,56; 8086,885;  248,035;20724,606;38,28204
 933,11; 8080,192;  251,958;20727,529;38,23207
 933,67; 7975,808;  220,496;20524,913;38,19519
 934,22; 7983,577;  233,881;20393,375;38,44192
 934,77; 7988,192;  252,804;20296,067;38,59346
 935,33; 7906,115;  221,342;20167,221;38,52812
 935,88; 7946,808;  239,650;20108,990;38,78920
 936,43; 7911,423;  217,342;20009,452;38,87449
 936,99; 7879,885;  225,804;19949,529;38,80647
 937,54; 7867,577;  211,881;19729,375;39,22479
 938,09; 7888,885;  230,496;19758,913;39,21664
 938,65; 7799,885;  232,727;19549,837;39,17334
 939,20; 7757,885;  199,573;19499,298;39,16279
 939,75; 7750,269;  213,188;19381,452;39,32062
 940,31; 7732,500;  200,958;19279,221;39,47709
 940,86; 7780,346;  221,727;19287,683;39,64459
 941,41; 7815,577;  315,342;19231,760;39,64934
 941,96; 7700,885;  216,112;19048,452;39,74425
 942,52; 7674,731;  216,650;18962,144;39,78599
 943,07; 7658,885;  199,881;18841,221;40,01324
 943,62; 7634,808;  216,958;18721,683;40,08625
 944,18; 7595,500;  193,419;18682,837;40,03415
 944,73; 7587,346;  220,342;18634,760;40,00672
 945,28; 7519,808;  179,419;18410,452;40,26315
 945,83; 7514,115;  207,727;18356,067;40,25927
 946,39; 7573,038;  213,265;18309,452;40,67030
 946,94; 7512,654;  237,958;18258,144;40,36971
 947,49; 7470,962;  207,804;18111,606;40,56768
 948,04; 7526,500;  261,342;18148,913;40,61567
 948,59; 7425,423;  240,727;17995,606;40,46604
 949,15; 7398,423;  202,650;17898,067;40,66461
 949,70; 7399,269;  214,881;17852,913;40,73237
 950,25; 7364,731;  224,727;17730,452;40,78668
 950,80; 7304,654;  183,112;17598,375;40,89253
 951,36; 7280,346;  181,881;17631,683;40,67935
 951,91; 7345,269;  224,881;17571,375;41,04800
 952,46; 7236,962;  210,573;17321,144;41,06461
 953,01; 7238,808;  229,573;17340,913;40,96251
 953,56; 7162,885;  190,188;17219,760;40,94464
 954,11; 7252,577;  224,419;17161,606;41,49543
 954,67; 7178,115;  209,419;17025,760;41,44003
 955,22; 7149,962;  197,035;16903,067;41,61926
 955,77; 7228,885;  240,419;16948,067;41,82794
 956,32; 7216,038;  276,804;16835,683;41,90643
 956,87; 7094,038;  204,342;16721,144;41,71326
 957,42; 7095,962;  211,265;16624,990;41,94475
 957,98; 7101,577;  211,112;16500,837;42,29946
 958,53; 7121,731;  245,112;16541,990;42,19593
 959,08; 7009,038;  195,958;16369,144;42,12578
 959,63; 6965,346;  218,419;16277,298;42,01369
 960,18; 6975,500;  225,958;16233,375;42,16509
 960,73; 6971,731;  220,496;16162,913;42,34762
 961,28; 6913,654;  192,419;16069,144;42,33389
 961,83; 6907,731;  221,419;16084,990;42,14884
 962,39; 6847,962;  191,881;15888,298;42,40510
 962,94; 6799,808;  244,035;15752,683;42,27173
 963,49; 6795,731;  225,650;15728,683;42,37933
 964,04; 6803,192;  225,881;15720,221;42,44977
 964,59; 6736,346;  182,112;15514,375;42,74799
 965,14; 6762,654;  236,342;15509,913;42,72944
 965,69; 6736,423;  217,804;15353,837;43,06689
 966,24; 6704,423;  202,496;15263,606;43,17030
 966,79; 6710,731;  226,035;15219,375;43,25051
 967,34; 6586,962;  188,112;15061,067;43,02339
 967,89; 6612,192;  205,112;15009,606;43,27794
 968,44; 6624,885;  218,650;14912,298;43,59867
 968,99; 6574,885;  225,650;14862,452;43,37856
 969,55; 6567,885;  219,958;14754,529;43,67468
 970,10; 6550,038;  231,112;14645,529;43,83755
 970,65; 6504,038;  244,650;14603,529;43,59246
 971,20; 6478,808;  209,650;14477,452;43,93920
 971,75; 6416,577;  190,727;14310,221;44,09400
 972,30; 6450,577;  219,496;14272,067;44,34121
 972,85; 6410,577;  213,650;14228,144;44,21798
 973,40; 6310,808;  207,881;14061,606;44,05261
 973,95; 6325,654;  223,496;14010,298;44,26086
 974,50; 6378,885;  256,035;13902,529;44,86757
 975,05; 6278,500;  218,265;13838,837;44,49325
 975,60; 6288,038;  232,265;13767,144;44,74198
 976,15; 6203,269;  203,265;13668,144;44,56040
 976,70; 6215,962;  218,573;13569,913;44,91975
 977,25; 6190,654;  231,188;13530,221;44,81127
 977,80; 6125,115;  212,419;13381,683;44,89770
 978,35; 6055,346;  236,727;13185,606;44,93531
 978,89; 6047,808;  197,112;13128,760;45,24324
 979,44; 6036,731;  227,265;13108,375;45,10066
 979,99; 5993,654;  213,573;12933,606;45,44077
 980,54; 5995,269;  236,342;12832,990;45,71793
 981,09; 5984,115;  237,265;12713,760;46,06142
 981,64; 5905,115;  219,035;12605,913;45,90406
 982,19; 5914,269;  259,112;12582,067;45,89124
 982,74; 5841,192;  235,188;12442,683;45,92264
 983,29; 5742,808;  205,573;12301,606;45,77728
 983,84; 5697,654;  217,342;12210,452;45,69550
 984,39; 5801,038;  310,727;12187,837;46,22599
 984,94; 5638,885;  189,573;12031,529;46,01699
 985,49; 5684,269;  245,188;11977,760;46,35881
 986,03; 5641,269;  238,804;11891,221;46,36347
 986,58; 5568,346;  274,265;11750,606;46,13039
 987,13; 5490,346;  230,573;11627,452;46,15100
 987,68; 5449,808;  235,419;11578,913;45,96810
 988,23; 5447,654;  237,265;11425,837;46,56885
 988,78; 5379,808;  208,958;11294,375;46,64552
 989,33; 5374,654;  233,727;11213,760;46,82069
 989,88; 5383,577;  257,035;11183,760;46,91746
 990,42; 5260,962;  215,265;11048,375;46,57662
 990,97; 5201,962;  226,419;10869,990;46,74693
 991,52; 5184,577;  247,496;10839,375;46,61195
 992,07; 5194,346;  267,342;10761,760;46,94881
 992,62; 5122,269;  230,804;10614,913;47,10529
 993,17; 5096,038;  241,727;10543,298;47,12205
 993,71; 5087,962;  248,112;10428,990;47,53863
 994,26; 4992,423;  221,112;10257,144;47,54181
 994,81; 4986,500;  246,881;10238,529;47,43581
 995,36; 4906,346;  223,035;10079,144;47,51684
 995,91; 4865,577;  238,727;10039,837;47,20741
 996,45; 4837,115;  222,188; 9938,298;47,49768
 997,00; 4738,423;  200,496; 9753,837;47,50094
 997,55; 4762,192;  236,342; 9709,067;47,77770
 998,10; 4725,346;  261,188; 9612,375;47,73894
 998,65; 4709,500;  229,496; 9535,760;48,13966
 999,19; 4662,269;  252,650; 9417,606;48,11392
 999,74; 4589,808;  273,573; 9292,683;47,85655
1000,29; 4604,885;  232,881; 9223,606;48,62793
1000,84; 4510,885;  220,265; 9081,606;48,41953
1001,38; 4482,115;  228,342; 9033,529;48,30986
1001,93; 4453,500;  245,035; 8918,144;48,52314
1002,48; 4353,962;  218,804; 8759,144;48,41912
1003,03; 4385,654;  249,035; 8755,221;48,63071
1003,57; 4342,731;  239,727; 8630,144;48,90107
1004,12; 4335,269;  281,958; 8567,144;48,92239
1004,67; 4212,808;  232,881; 8431,760;48,54233
1005,22; 4171,962;  224,727; 8295,529;48,90759
1005,76; 4095,808;  211,112; 8157,144;48,88850
1006,31; 4118,808;  244,650; 8153,221;48,98682
1006,86; 4028,500;  221,804; 7995,606;48,96827
1007,40; 3943,654;  224,342; 7862,067;48,69659
1007,95; 3955,962;  233,342; 7785,067;49,29495
1008,50; 3845,577;  242,727; 7646,144;48,66469
1009,04; 3816,731;  231,496; 7607,221;48,60857
1009,59; 3728,038;  244,265; 7390,837;48,74748
1010,14; 3703,808;  221,958; 7335,683;48,94552
1010,68; 3636,500;  247,035; 7225,375;48,57122
1011,23; 3641,808;  238,650; 7128,298;49,39523
1011,78; 3579,423;  241,804; 7045,298;49,05743
1012,32; 3561,885;  273,112; 7006,067;48,84590
1012,87; 3539,115;  259,496; 6934,683;49,13150
1013,42; 3444,192;  214,035; 6801,067;49,03813
1013,96; 3504,808;  269,112; 6798,606;49,55508
1014,51; 3428,500;  200,573; 6707,760;49,60557
1015,06; 3445,885;  213,650; 6650,529;50,21431
1015,60; 3522,500;  269,035; 6763,760;50,09397
1016,15; 3466,577;  212,265; 6685,144;50,27611
1016,69; 3493,500;  227,727; 6729,683;50,22755
1017,24; 3490,346;  209,496; 6737,760;50,25609
1017,79; 3575,654;  268,727; 6799,298;50,63764
1018,33; 3541,269;  224,419; 6773,837;50,64344
1018,88; 3588,269;  241,573; 6855,067;50,60405
1019,42; 3601,269;  221,573; 6823,298;51,19414
1019,97; 3596,731;  212,573; 6828,067;51,15502
1020,51; 3664,962;  264,496; 6893,221;51,29894
1021,06; 3602,346;  203,035; 6810,144;51,44930
1021,61; 3580,885;  194,188; 6830,760;51,03081
1022,15; 3575,038;  176,342; 6789,913;51,38973
1022,70; 3592,269;  225,881; 6764,837;51,48205
1023,24; 3576,577;  206,419; 6717,067;51,76378
1023,79; 3520,269;  222,342; 6647,529;51,32811
1024,33; 3495,577;  219,496; 6598,606;51,35640
1024,88; 3494,731;  229,958; 6522,452;51,88361
1025,42; 3429,731;  234,881; 6438,144;51,50273
1025,97; 3381,577;  217,265; 6336,298;51,71261
1026,51; 3288,808;  183,419; 6218,683;51,45407
1027,06; 3277,269;  210,112; 6161,837;51,53393
1027,60; 3261,423;  229,342; 6089,375;51,74170
1028,15; 3226,115;  242,188; 5973,144;52,06683
1028,69; 3135,192;  180,881; 5842,144;52,18467
1029,24; 3091,885;  202,804; 5803,452;51,58476
1029,78; 3014,500;  211,573; 5682,375;51,23430
1030,33; 2965,808;  203,035; 5578,067;51,40012
1030,87; 2982,885;  218,112; 5510,913;52,23647
1031,42; 2914,269;  198,265; 5445,760;51,75811
1031,96; 2877,962;  237,881; 5380,760;51,33469
1032,51; 2831,962;  210,958; 5291,298;51,59111
1033,05; 2819,115;  225,342; 5215,683;51,97587
1033,60; 2737,115;  192,727; 5095,683;51,89499
1034,14; 2715,192;  204,496; 5053,683;51,77562
1034,69; 2696,269;  216,881; 4969,221;52,17195
1035,23; 2639,115;  217,958; 4896,683;51,74824
1035,77; 2636,808;  220,958; 4843,221;52,26552
1036,32; 2572,731;  185,958; 4749,067;52,30585
1036,86; 2536,038;  224,804; 4717,606;51,44306
1037,41; 2536,885;  239,496; 4641,298;52,19200
1037,95; 2474,346;  194,265; 4572,529;52,07729
1038,50; 2460,115;  209,650; 4526,913;52,12713
1039,04; 2434,500;  226,188; 4475,760;51,96552
1039,58; 2392,962;  196,112; 4386,067;52,43134
1040,13; 2336,885;  209,727; 4335,144;51,56224
1040,67; 2354,885;  253,419; 4329,606;51,55469
1041,21; 2334,962;  249,496; 4212,606;52,62195
1041,76; 2251,500;  205,112; 4137,913;52,03386
1042,30; 2258,500;  212,188; 4111,067;52,48461
1042,85; 2202,731;  210,265; 4038,298;52,04933
1043,39; 2153,192;  204,881; 3958,221;51,90874
1043,93; 2176,500;  236,419; 3959,990;52,10269
1044,48; 2167,731;  227,958; 3868,298;53,28549
1045,02; 2122,115;  208,650; 3796,298;53,33481
1045,56; 2115,808;  242,881; 3765,144;53,17396
1046,11; 2092,192;  216,958; 3727,683;53,41445
1046,65; 2069,192;  229,727; 3693,760;53,10185
1047,19; 2023,885;  204,958; 3608,760;53,43810
1047,74; 1991,346;  188,496; 3572,529;53,27519
1048,28; 1959,269;  218,650; 3489,144;53,22190
1048,82; 1986,654;  250,727; 3482,067;53,72157
1049,37; 1953,654;  238,573; 3426,452;53,80006
1049,91; 1931,500;  229,112; 3396,298;53,75081
1050,45; 1900,885;  231,035; 3336,760;53,76683
1050,99; 1860,731;  227,342; 3293,606;53,26967
1051,54; 1824,962;  205,727; 3239,606;53,37176
1052,08; 1847,577;  238,727; 3191,375;54,48838
1052,62; 1808,731;  232,188; 3154,990;53,93942
1053,16; 1772,500;  219,112; 3093,837;54,03607
1053,71; 1767,115;  228,035; 3072,683;54,10443
1054,25; 1752,885;  230,035; 2999,990;54,97741
1054,79; 1731,500;  228,035; 2992,221;54,39088
1055,33; 1666,038;  196,573; 2899,913;54,35739
1055,88; 1671,269;  219,804; 2909,606;53,96179
1056,42; 1675,038;  240,188; 2868,837;54,58509
1056,96; 1658,654;  241,804; 2811,067;55,14615
1057,50; 1627,346;  228,496; 2782,606;54,76860
1058,05; 1590,192;  220,727; 2720,990;54,77284
1058,59; 1591,577;  255,112; 2713,067;54,37304
1059,13; 1527,500;  203,958; 2657,837;53,93674
1059,67; 1557,192;  233,419; 2638,298;55,04531
1060,21; 1528,269;  232,804; 2584,375;55,08936
1060,76; 1511,269;  231,496; 2549,221;55,21678
1061,30; 1505,731;  243,650; 2509,221;55,70696
1061,84; 1453,962;  232,804; 2471,529;54,54702
1062,38; 1418,115;  206,650; 2390,452;55,47506
1062,92; 1476,654;  275,727; 2431,221;55,71469
1063,46; 1403,038;  240,804; 2367,529;54,64903
1064,01; 1385,500;  219,112; 2318,375;55,56180
1064,55; 1387,269;  234,265; 2290,837;56,06438
1065,09; 1350,038;  212,804; 2254,913;55,68921
1065,63; 1354,654;  258,727; 2261,990;54,70708
1066,17; 1370,962;  275,573; 2229,990;56,04681
1066,71; 1346,269;  261,573; 2204,913;55,81607
1067,25; 1295,885;  226,419; 2139,452;55,90419
1067,80; 1289,654;  245,804; 2142,452;55,03657
1068,34; 1311,731;  274,342; 2126,221;56,01816
1068,88; 1258,500;  226,958; 2069,837;55,97450
1069,42; 1281,654;  252,881; 2093,683;55,88722
1069,96; 1216,115;  227,804; 2022,990;55,05342
1070,50; 1240,808;  269,650; 2030,375;55,15669
1071,04; 1188,654;  224,573; 1976,375;55,03366
1071,58; 1178,423;  224,573; 1945,837;55,41569
1072,12; 1166,115;  231,265; 1955,529;54,21735
1072,66; 1166,577;  225,727; 1906,837;55,96601
1073,21; 1165,038;  251,342; 1913,606;54,96699
1073,75; 1145,577;  237,727; 1859,221;55,98848
1074,29; 1149,346;  236,881; 1834,221;57,12404
1074,83; 1130,808;  252,727; 1831,606;55,61420
1075,37; 1114,192;  259,419; 1789,298;55,87195
1075,91; 1092,962;  249,112; 1781,529;55,06659
1076,45; 1087,885;  250,727; 1764,452;55,30448
1076,99; 1088,269;  249,573; 1732,375;56,56158
1077,53; 1052,423;  226,419; 1698,760;56,10142
1078,07; 1052,654;  242,727; 1700,144;55,57275
1078,61; 1041,808;  244,188; 1684,529;55,37713
1079,15; 1043,269;  236,035; 1652,298;56,99749
1079,69; 1015,192;  236,727; 1634,221;55,70437
1080,23; 1033,346;  271,727; 1651,837;55,18542
1080,77; 1074,808;  303,188; 1674,452;56,27068
1081,31;  982,654;  230,650; 1580,067;55,72804
1081,85; 1007,192;  259,804; 1603,760;55,61109
1082,39;  973,115;  236,419; 1540,913;56,47370
1082,93;  966,423;  249,573; 1540,606;55,52532
1083,47;  946,192;  234,035; 1491,529;56,63308
1084,01;  959,654;  245,342; 1497,375;57,05215
1084,55;  938,269;  235,342; 1470,375;56,91565
1085,09;  955,269;  249,265; 1468,760;57,89317
1085,63;  928,115;  242,804; 1445,298;56,99084
1086,17;  907,269;  240,419; 1409,144;57,05790
1086,71;  903,346;  219,573; 1393,913;58,22614
1087,24;  915,577;  258,958; 1399,529;57,56934
1087,78;  915,808;  266,727; 1404,606;57,04305
1088,32;  855,885;  223,881; 1352,606;55,99272
1088,86;  890,577;  252,804; 1361,298;57,53508
1089,40;  874,885;  242,112; 1338,683;57,70470
1089,94;  843,269;  218,804; 1302,529;57,62213
1090,48;  858,038;  240,650; 1276,221;59,61816
1091,02;  852,885;  256,727; 1300,990;57,08882
1091,56;  840,115;  235,573; 1257,067;59,18216
1092,10;  808,654;  212,496; 1237,837;58,14242
1092,63;  846,962;  262,881; 1258,990;58,63619
1093,17;  814,269;  239,650; 1245,298;57,13920
1093,71;  795,115;  229,496; 1209,683;57,70526
1094,25;  812,962;  269,573; 1226,683;56,77390
1094,79;  775,500;  236,188; 1192,760;56,37966
1095,33;  775,654;  243,958; 1179,529;56,83118
1095,87;  779,038;  233,573; 1156,067;59,12941
1096,40;  738,962;  216,573; 1132,913;57,00812
1096,94;  748,654;  244,958; 1138,683;56,35919
1097,48;  759,423;  255,958; 1142,760;56,77315
1098,02;  742,423;  232,958; 1094,529;59,13213
1098,56;  703,346;  217,419; 1069,067;57,05724
1099,10;  693,346;  221,573; 1062,144;56,12530
1099,63;  698,577;  212,958; 1043,837;58,44645
1100,17;  721,808;  240,496; 1067,529;58,19740
1100,71;  735,808;  271,727; 1064,913;58,50840

