
Integration time [ms]: 160,000
Averaging Nr. [scans]: 13
Smoothing Nr. [pixels]: 0
Data measured with spectrometer [name]: 2009305U1
Wave   ;Sample   ;Dark     ;Reference;Reflectance
[nm]   ;[counts] ;[counts] ;[counts] ;[%]

 175,72;  215,721;  191,519;  191,486; 0,00000
 176,32;  227,218;  226,381;  214,940; 0,00000
 176,92;  270,749;  241,524;  244,812;888,90218
 177,52;  266,148;  247,676;  245,839; 0,00000
 178,12;  246,627;  222,611;  217,278; 0,00000
 178,72;  265,747;  259,077;  248,897; 0,00000
 179,32;  263,979;  243,304;  231,741; 0,00000
 179,92;  258,076;  248,144;  237,554; 0,00000
 180,52;  246,339;  228,126;  237,935;185,68430
 181,12;  278,567;  232,682;  237,833;890,67246
 181,73;  285,258;  263,757;  264,029; 0,00000
 182,33;  370,834;  317,286;  327,322;533,56591
 182,93;  275,419;  258,060;  265,199;243,17371
 183,53;  243,198;  223,541;  225,512;997,61660
 184,13;  243,258;  226,770;  231,532;346,22232
 184,73;  281,714;  254,697;  264,670;270,89644
 185,33;  256,177;  232,099;  346,488;21,04944
 185,93;  276,207;  234,572;  343,963;38,06064
 186,53;  290,680;  246,720;  358,116;39,46267
 187,13;  305,182;  264,246;  412,664;27,58128
 187,73;  271,243;  228,801;  351,876;34,48434
 188,33;  283,426;  231,269;  359,775;40,58688
 188,93;  290,274;  241,675;  374,002;36,72694
 189,53;  286,384;  236,613;  379,198;34,90596
 190,13;  331,184;  276,331;  414,750;39,62779
 190,73;  255,350;  219,314;  352,281;27,10136
 191,34;  294,685;  248,296;  381,720;34,76779
 191,94;  275,603;  221,276;  358,118;39,70050
 192,54;  287,689;  259,775;  371,233;25,04422
 193,14;  296,835;  247,555;  368,494;40,74777
 193,74;  298,630;  243,865;  364,133;45,53592
 194,34;  288,140;  238,014;  369,577;38,10089
 194,94;  252,413;  207,324;  338,161;34,46212
 195,54;  241,346;  189,329;  331,243;36,65384
 196,14;  265,428;  216,165;  357,725;34,80010
 196,74;  257,502;  215,486;  327,390;37,54631
 197,34;  233,832;  195,926;  336,271;27,00861
 197,94;  273,698;  224,630;  362,240;35,65731
 198,54;  267,957;  226,165;  386,988;25,98650
 199,14;  247,521;  218,614;  377,550;18,18752
 199,74;  237,404;  191,614;  370,422;25,60836
 200,34;  225,892;  183,689;  369,521;22,71009
 200,94;  267,981;  218,082;  405,289;26,65428
 201,54;  248,873;  202,847;  404,126;22,86679
 202,14;  280,742;  220,609;  436,391;27,86730
 202,74;  249,841;  209,153;  447,622;17,06218
 203,34;  234,289;  192,066;  473,783;14,98783
 203,94;  211,926;  163,300;  464,363;16,15121
 204,54;  282,470;  246,937;  543,462;11,98310
 205,14;  245,589;  185,307;  540,736;16,96029
 205,74;  292,138;  229,143;  624,348;15,93995
 206,34;  244,234;  197,610;  653,244;10,23294
 206,94;  263,325;  200,611;  693,120;12,73348
 207,54;  224,749;  184,687;  719,137; 7,49585
 208,14;  254,305;  195,455;  803,345; 9,68098
 208,74;  256,564;  198,230;  855,552; 8,87450
 209,34;  259,650;  193,229;  944,023; 8,84671
 209,94;  260,798;  199,537; 1044,543; 7,24970
 210,54;  263,223;  203,376; 1111,898; 6,58731
 211,14;  264,955;  212,922; 1222,339; 5,15472
 211,73;  268,563;  209,464; 1314,673; 5,34736
 212,33;  292,944;  222,082; 1403,956; 5,99570
 212,93;  285,414;  202,385; 1461,117; 6,59626
 213,53;  258,293;  170,923; 1512,962; 6,51032
 214,13;  280,037;  181,292; 1572,742; 7,09652
 214,73;  259,511;  172,302; 1608,237; 6,07336
 215,33;  255,336;  150,922; 1633,236; 7,04401
 215,93;  288,354;  194,451; 1783,978; 5,90761
 216,53;  254,254;  152,924; 1831,099; 6,03814
 217,13;  320,020;  215,607; 2029,263; 5,75706
 217,73;  322,197;  194,989; 2219,797; 6,28246
 218,33;  266,430;  149,983; 2354,982; 5,28102
 218,93;  321,953;  179,356; 2654,801; 5,76049
 219,53;  344,928;  172,214; 2901,699; 6,32772
 220,13;  328,351;  151,903; 3178,988; 5,82895
 220,73;  378,948;  174,152; 3474,978; 6,20438
 221,32;  388,949;  179,077; 3842,860; 5,72830
 221,92;  416,693;  174,981; 4170,791; 6,04913
 222,52;  435,221;  178,373; 4533,597; 5,89747
 223,12;  457,716;  176,988; 4906,673; 5,93545
 223,72;  491,214;  192,680; 5246,005; 5,90768
 224,32;  502,420;  176,448; 5603,170; 6,00679
 224,92;  519,094;  176,372; 5860,465; 6,02950
 225,52;  560,746;  187,457; 6182,069; 6,22708
 226,12;  573,436;  178,684; 6419,963; 6,32485
 226,72;  569,836;  148,377; 6719,830; 6,41349
 227,31;  614,972;  153,223; 7036,048; 6,70870
 227,91;  675,630;  189,458; 7401,206; 6,74139
 228,51;  704,164;  171,850; 7795,414; 6,98249
 229,11;  738,966;  172,070; 8048,723; 7,19717
 229,71;  770,436;  157,539; 8378,618; 7,45519
 230,31;  792,978;  162,677; 8740,754; 7,34782
 230,91;  845,029;  159,469; 9042,583; 7,71756
 231,51;  871,409;  152,605; 9274,862; 7,87968
 232,10;  937,910;  156,214; 9507,841; 8,35893
 232,70;  995,217;  178,475; 9699,423; 8,57837
 233,30; 1074,013;  189,760; 9927,902; 9,08031
 233,90; 1086,303;  165,990;10050,274; 9,31086
 234,50; 1127,939;  171,451;10084,509; 9,64877
 235,10; 1174,786;  164,141;10103,619;10,16799
 235,70; 1252,584;  183,459;10081,290;10,80161
 236,29; 1269,636;  182,077;10024,611;11,04958
 236,89; 1279,474;  158,776; 9855,716;11,55723
 237,49; 1346,965;  180,376; 9778,456;12,15440
 238,09; 1369,773;  172,610; 9429,552;12,93260
 238,69; 1406,541;  199,549; 9207,673;13,39893
 239,29; 1400,589;  165,918; 8939,888;14,07197
 239,89; 1406,108;  192,314; 8592,882;14,44895
 240,48; 1399,139;  168,379; 8220,540;15,28484
 241,08; 1395,768;  166,611; 7864,646;15,96715
 241,68; 1421,317;  179,455; 7641,109;16,64325
 242,28; 1410,220;  171,299; 7287,026;17,41103
 242,88; 1415,689;  196,830; 7036,382;17,82074
 243,48; 1415,928;  201,761; 6783,508;18,44749
 244,07; 1402,689;  183,382; 6590,809;19,02959
 244,67; 1430,224;  192,916; 6405,549;19,91600
 245,27; 1438,563;  186,310; 6269,980;20,58384
 245,87; 1468,813;  194,678; 6247,872;21,04897
 246,47; 1474,504;  181,617; 6208,147;21,45326
 247,06; 1502,734;  172,841; 6224,536;21,97554
 247,66; 1518,363;  180,224; 6324,025;21,78031
 248,26; 1572,294;  196,232; 6477,766;21,90648
 248,86; 1637,963;  190,232; 6660,735;22,37431
 249,46; 1634,296;  151,374; 6845,606;22,15223
 250,05; 1732,373;  189,072; 7218,028;21,95634
 250,65; 1770,841;  158,465; 7524,316;21,88988
 251,25; 1893,934;  170,535; 8010,795;21,98141
 251,85; 1981,388;  156,161; 8552,748;21,73773
 252,44; 2079,085;  145,384; 9145,462;21,48537
 253,04; 2228,102;  186,614; 9842,055;21,14340
 253,64; 2307,571;  150,389;10539,607;20,76366
 254,24; 2505,413;  195,456;11361,387;20,68754
 254,84; 2643,450;  172,682;12305,836;20,36377
 255,43; 2765,629;  178,461;13226,711;19,82770
 256,03; 2928,220;  172,388;14130,990;19,74289
 256,63; 3091,379;  180,622;15117,241;19,48739
 257,23; 3178,923;  171,006;16015,952;18,98345
 257,82; 3363,108;  182,243;16908,150;19,01760
 258,42; 3411,332;  147,938;17764,253;18,52484
 259,02; 3531,441;  187,922;18666,985;18,09355
 259,62; 3582,364;  167,170;19291,834;17,85754
 260,21; 3630,094;  174,538;19848,507;17,56410
 260,81; 3664,362;  174,454;20382,836;17,26961
 261,41; 3662,789;  154,474;20849,883;16,95214
 262,01; 3709,064;  207,557;21322,768;16,58286
 262,60; 3641,077;  161,160;21668,644;16,18003
 263,20; 3635,056;  163,925;22129,526;15,80257
 263,80; 3586,710;  198,096;22143,160;15,44135
 264,40; 3572,556;  157,018;22440,048;15,32798
 264,99; 3527,523;  171,250;22611,931;14,95620
 265,59; 3467,255;  165,258;22695,679;14,65573
 266,19; 3436,516;  157,480;22951,570;14,38547
 266,78; 3389,732;  207,177;23081,355;13,91331
 267,38; 3293,992;  173,026;23060,175;13,63633
 267,98; 3252,728;  161,176;23065,252;13,49782
 268,58; 3227,820;  179,026;23071,394;13,31795
 269,17; 3198,760;  163,570;23156,529;13,20052
 269,77; 3093,682;  199,624;22992,643;12,69712
 270,37; 3001,400;  155,635;22842,399;12,54372
 270,96; 3038,792;  207,243;22664,798;12,60845
 271,56; 2920,130;  173,622;22521,767;12,28964
 272,16; 2831,380;  171,244;22350,314;11,99390
 272,75; 2799,925;  172,782;22239,717;11,90533
 273,35; 2791,757;  176,627;22288,149;11,82700
 273,95; 2736,423;  167,936;22291,511;11,60973
 274,54; 2687,789;  146,687;22325,343;11,45742
 275,14; 2734,975;  175,472;22688,769;11,36885
 275,74; 2705,716;  145,783;22698,525;11,35087
 276,33; 2784,346;  197,471;23172,509;11,25951
 276,93; 2796,680;  180,378;23513,454;11,21285
 277,53; 2834,442;  169,231;24008,482;11,17993
 278,12; 2849,541;  149,005;24511,251;11,08492
 278,72; 2974,476;  199,155;25045,285;11,17003
 279,32; 3025,510;  162,463;25561,472;11,27228
 279,91; 3090,311;  155,465;26301,822;11,22469
 280,51; 3211,814;  172,230;26734,257;11,44334
 281,11; 3310,370;  180,311;27427,118;11,48780
 281,70; 3327,761;  157,696;27831,402;11,45515
 282,30; 3435,130;  158,392;28455,152;11,57991
 282,90; 3572,641;  175,392;28714,479;11,90384
 283,49; 3650,255;  180,011;29265,866;11,93104
 284,09; 3804,670;  196,466;29706,031;12,22723
 284,69; 3910,215;  195,233;29993,775;12,46699
 285,28; 3994,325;  183,005;30359,468;12,63011
 285,88; 4164,045;  206,014;30554,411;13,04198
 286,47; 4221,296;  168,546;30631,454;13,30388
 287,07; 4407,935;  199,155;30623,447;13,83362
 287,67; 4546,005;  189,761;30817,047;14,22341
 288,26; 4704,111;  169,925;30760,410;14,82221
 288,86; 4878,851;  175,543;30852,165;15,33190
 289,46; 5094,308;  182,772;30893,103;15,99311
 290,05; 5318,052;  170,766;30991,385;16,70079
 290,65; 5594,764;  169,931;31207,431;17,47832
 291,24; 5880,833;  183,847;31324,458;18,29439
 291,84; 6147,610;  194,930;31426,472;19,05983
 292,44; 6404,998;  166,452;31550,147;19,87830
 293,03; 6736,285;  241,539;31674,721;20,66207
 293,63; 6946,468;  164,930;31864,697;21,39302
 294,22; 7246,841;  196,465;32001,316;22,16761
 294,82; 7433,928;  175,633;31976,361;22,82430
 295,41; 7571,915;  166,927;31701,402;23,48220
 296,01; 7791,975;  214,015;31546,618;24,18554
 296,61; 7908,710;  186,155;31399,312;24,74135
 297,20; 7936,171;  192,860;30949,353;25,17618
 297,80; 8082,933;  188,457;30910,298;25,69663
 298,39; 8080,003;  163,161;30481,286;26,11257
 298,99; 8202,195;  191,089;30377,195;26,53905
 299,58; 8290,726;  192,839;30282,139;26,91284
 300,18; 8378,827;  189,688;30016,711;27,45543
 300,78; 8309,647;  174,384;29772,955;27,48533
 301,37; 8411,927;  190,329;29760,979;27,80324
 301,97; 8525,597;  176,080;29827,091;28,15930
 302,56; 8491,887;  176,700;29648,270;28,21427
 303,16; 8587,833;  159,164;29629,421;28,60060
 303,75; 8636,763;  173,613;29682,510;28,67999
 304,35; 8745,439;  165,834;29957,757;28,79843
 304,94; 8779,508;  187,849;30010,558;28,80912
 305,54; 8906,411;  195,154;29870,013;29,35568
 306,13; 8824,291;  139,218;29866,698;29,21564
 306,73; 8802,125;  154,914;29594,398;29,37283
 307,33; 8857,605;  181,531;29596,215;29,49573
 307,92; 8935,611;  181,616;29674,734;29,68148
 308,52; 9069,904;  161,241;30113,941;29,74244
 309,11; 9250,692;  166,631;30634,145;29,81557
 309,71; 9319,304;  155,634;30744,044;29,95798
 310,30; 9403,529;  159,771;31007,254;29,96600
 310,90; 9585,913;  192,617;31364,177;30,13419
 311,49; 9620,120;  179,002;31494,531;30,14836
 312,09; 9647,460;  150,842;31694,108;30,10664
 312,68; 9879,140;  203,769;32062,500;30,36961
 313,28; 9882,534;  148,539;32155,195;30,41241
 313,87; 9932,994;  147,002;32277,050;30,45745
 314,47;10062,181;  172,860;32460,552;30,62876
 315,06;10023,811;  156,077;32557,804;30,45435
 315,66;10096,691;  162,765;32782,723;30,45352
 316,25;10137,857;  140,548;32727,606;30,67877
 316,85;10125,122;  136,611;32728,331;30,64739
 317,44;10163,323;  158,553;32934,054;30,52515
 318,04;10153,659;  138,392;32953,723;30,52009
 318,63;10142,826;  145,222;33027,981;30,40379
 319,22;10191,411;  170,009;33123,668;30,41059
 319,82;10220,270;  169,698;33174,968;30,45142
 320,41;10165,647;  164,239;33110,840;30,35642
 321,01;10157,861;  170,228;33235,514;30,20580
 321,60;10137,719;  167,697;33353,128;30,04337
 322,20;10107,753;  161,539;33306,047;30,00863
 322,79;10156,436;  196,462;33478,541;29,92594
 323,39;10090,754;  163,451;33505,425;29,77419
 323,98;10067,795;  146,615;33346,321;29,88334
 324,58;10083,221;  165,856;33324,986;29,90840
 325,17;10006,623;  171,086;33255,271;29,72882
 325,76; 9958,938;  187,464;33026,705;29,75548
 326,36; 9830,603;  137,997;32587,456;29,86985
 326,95; 9693,494;  183,081;32303,069;29,60902
 327,55; 9618,369;  155,544;31954,546;29,75824
 328,14; 9446,668;  152,456;31669,956;29,48905
 328,74; 9305,927;  192,085;31195,168;29,39657
 329,33; 9215,547;  178,920;30908,649;29,40679
 329,92; 9086,295;  152,861;30305,305;29,62756
 330,52; 8872,914;  160,225;29683,788;29,51097
 331,11; 8707,497;  162,620;29303,557;29,32259
 331,71; 8560,465;  168,618;28648,438;29,46594
 332,30; 8413,662;  184,541;28346,327;29,22088
 332,89; 8302,523;  210,383;27737,003;29,39751
 333,49; 8086,195;  171,620;27301,652;29,17275
 334,08; 7901,052;  169,159;26966,501;28,85321
 334,68; 7742,695;  174,775;26522,251;28,72351
 335,27; 7674,596;  170,839;26254,324;28,76823
 335,86; 7581,651;  220,082;25924,326;28,63951
 336,46; 7494,122;  186,992;25644,406;28,70335
 337,05; 7350,556;  164,620;25591,314;28,26138
 337,65; 7297,088;  148,621;25424,219;28,28209
 338,24; 7363,921;  212,538;25449,418;28,33703
 338,83; 7255,977;  192,230;25322,071;28,10900
 339,43; 7204,922;  162,316;25317,303;27,99685
 340,02; 7235,698;  168,471;25204,126;28,22865
 340,61; 7177,802;  154,385;25279,682;27,95357
 341,21; 7203,235;  192,931;25300,629;27,92093
 341,80; 7127,264;  166,083;25175,412;27,83434
 342,40; 7176,508;  182,147;25335,441;27,80694
 342,99; 7150,908;  177,306;25400,234;27,64787
 343,58; 7151,547;  173,228;25552,957;27,49564
 344,18; 7174,975;  181,535;25673,231;27,43419
 344,77; 7249,285;  152,087;26017,069;27,43941
 345,36; 7309,032;  152,158;26354,530;27,31384
 345,96; 7367,027;  204,074;26514,816;27,22444
 346,55; 7392,434;  148,835;26760,815;27,21931
 347,14; 7459,228;  148,147;27187,191;27,03898
 347,74; 7544,004;  142,212;27508,203;27,04741
 348,33; 7688,580;  160,752;28244,109;26,80530
 348,92; 7820,810;  180,131;28836,764;26,66286
 349,52; 7937,040;  146,980;29272,577;26,74644
 350,11; 7966,166;  166,087;29417,410;26,66573
 350,70; 7969,774;  157,155;29458,240;26,66324
 351,29; 7868,560;  154,792;29074,266;26,67326
 351,89; 7820,068;  177,938;29185,870;26,34497
 352,48; 7839,208;  139,693;29141,337;26,54855
 353,07; 7783,498;  171,915;29109,592;26,30336
 353,67; 7739,554;  179,977;29116,544;26,12465
 354,26; 7677,391;  165,993;28760,313;26,26884
 354,85; 7613,226;  177,303;28634,543;26,13016
 355,45; 7530,511;  152,237;28403,279;26,11682
 356,04; 7496,694;  168,222;28404,482;25,95412
 356,63; 7439,866;  191,004;28218,074;25,86379
 357,22; 7324,065;  176,020;28075,419;25,62078
 357,82; 7282,257;  177,402;27867,785;25,65820
 358,41; 7279,788;  178,772;27794,578;25,71359
 359,00; 7134,931;  153,316;27598,963;25,43797
 359,60; 7150,682;  178,461;27560,373;25,46287
 360,19; 7096,312;  175,067;27301,935;25,51435
 360,78; 7101,378;  166,929;27225,129;25,62790
 361,37; 6981,107;  165,005;26908,077;25,48735
 361,97; 6977,908;  174,003;26860,887;25,49532
 362,56; 6852,582;  145,549;26577,032;25,37516
 363,15; 6819,064;  194,237;26303,342;25,37363
 363,74; 6675,534;  168,860;26023,083;25,16678
 364,34; 6626,577;  187,624;25690,124;25,24832
 364,93; 6460,367;  151,704;25203,284;25,18269
 365,52; 6387,190;  158,389;24911,711;25,16349
 366,11; 6269,863;  169,316;24585,008;24,98617
 366,71; 6162,103;  154,701;24238,207;24,94405
 367,30; 6110,706;  165,697;23887,287;25,06160
 367,89; 6094,257;  201,996;23672,088;25,10540
 368,48; 5977,608;  178,551;23411,826;24,96013
 369,07; 5821,236;  170,693;22951,471;24,80399
 369,67; 5801,773;  191,704;22739,631;24,88064
 370,26; 5725,925;  167,000;22519,906;24,86891
 370,85; 5638,950;  161,774;22237,512;24,81084
 371,44; 5572,084;  165,157;22032,849;24,72564
 372,03; 5501,586;  150,547;21881,015;24,62459
 372,63; 5441,848;  148,158;21489,600;24,80474
 373,22; 5390,827;  162,309;21189,979;24,86494
 373,81; 5256,402;  154,236;20916,621;24,57408
 374,40; 5259,831;  165,917;20720,540;24,78233
 374,99; 5148,557;  154,929;20468,887;24,58225
 375,59; 5097,558;  159,841;20201,958;24,63670
 376,18; 5147,178;  181,698;20077,213;24,95779
 376,77; 5049,656;  173,464;19852,848;24,77817
 377,36; 5074,461;  189,159;19814,532;24,89278
 377,95; 5032,023;  169,162;19639,334;24,97595
 378,55; 4916,015;  150,920;19462,283;24,67508
 379,14; 4917,682;  174,005;19361,333;24,72297
 379,73; 4894,635;  160,085;19264,769;24,78214
 380,32; 4950,533;  181,003;19354,470;24,87568
 380,91; 4930,478;  157,320;19136,857;25,14897
 381,50; 4936,695;  183,241;19149,288;25,06297
 382,10; 4938,379;  153,003;19045,162;25,32996
 382,69; 4920,578;  140,467;18996,353;25,35076
 383,28; 4926,707;  172,471;18951,478;25,31676
 383,87; 4860,381;  152,164;18828,773;25,20916
 384,46; 4894,647;  152,402;18778,418;25,46033
 385,05; 4946,455;  193,241;18749,782;25,61476
 385,64; 4954,940;  165,009;18796,701;25,70852
 386,24; 4941,574;  157,479;18710,830;25,78561
 386,83; 5013,938;  181,249;18770,672;25,99698
 387,42; 5057,552;  172,393;18884,905;26,10638
 388,01; 5119,736;  180,794;19073,879;26,14153
 388,60; 5208,822;  169,631;19409,038;26,19203
 389,19; 5266,271;  154,264;19546,738;26,36078
 389,78; 5352,371;  158,108;19700,810;26,57904
 390,37; 5564,687;  213,175;20191,011;26,78725
 390,96; 5575,740;  166,710;20351,286;26,79784
 391,56; 5620,572;  166,882;20451,610;26,88569
 392,15; 5721,475;  163,491;20695,832;27,06941
 392,74; 5757,254;  132,663;20900,341;27,08339
 393,33; 5949,302;  157,499;21161,285;27,57504
 393,92; 6047,153;  166,438;21593,886;27,44478
 394,51; 6143,007;  153,345;21704,972;27,79215
 395,10; 6255,500;  185,762;21908,982;27,94125
 395,69; 6342,692;  172,298;22015,194;28,24898
 396,28; 6368,317;  180,230;22096,663;28,23492
 396,87; 6465,211;  176,015;22212,768;28,53958
 397,46; 6521,104;  174,332;22389,836;28,56911
 398,06; 6628,190;  185,191;22498,999;28,87449
 398,65; 6700,469;  163,451;22630,643;29,09584
 399,24; 6775,406;  188,149;22754,828;29,19019
 399,83; 6842,991;  155,424;22728,789;29,62592
 400,42; 6951,539;  197,771;22877,609;29,77873
 401,01; 7003,546;  158,970;22988,168;29,98168
 401,60; 7066,713;  182,878;22929,712;30,26283
 402,19; 7097,400;  203,773;22941,894;30,31749
 402,78; 7179,586;  205,310;22956,374;30,65472
 403,37; 7147,175;  189,151;22829,248;30,73319
 403,96; 7181,394;  181,234;22622,689;31,19298
 404,55; 7204,620;  182,405;22586,377;31,34362
 405,14; 7224,914;  175,874;22450,519;31,64603
 405,73; 7260,501;  181,896;22343,367;31,94104
 406,32; 7348,229;  183,732;22345,064;32,32882
 406,91; 7248,957;  178,579;21967,375;32,44960
 407,50; 7272,025;  181,465;21751,722;32,87193
 408,09; 7207,439;  151,954;21563,625;32,95158
 408,68; 7248,954;  173,436;21473,709;33,21797
 409,27; 7237,693;  163,333;21246,772;33,55411
 409,86; 7284,518;  172,196;21121,603;33,94999
 410,45; 7330,818;  190,838;21022,469;34,27471
 411,04; 7332,473;  204,786;20952,857;34,35350
 411,63; 7246,010;  193,641;20688,927;34,40971
 412,22; 7274,816;  197,965;20532,710;34,80177
 412,81; 7272,472;  201,866;20271,681;35,23005
 413,40; 7173,089;  205,146;20048,553;35,11465
 413,99; 7164,230;  238,232;19682,137;35,62041
 414,58; 7030,910;  167,303;19278,259;35,91451
 415,17; 7051,662;  184,328;19139,167;36,22998
 415,76; 6987,141;  172,659;18944,690;36,30125
 416,35; 7048,126;  159,493;18859,431;36,83773
 416,94; 7131,928;  193,731;18884,203;37,12157
 417,53; 7215,889;  179,018;19111,182;37,16886
 418,12; 7297,029;  173,089;19221,766;37,39861
 418,71; 7493,448;  192,376;19514,718;37,78565
 419,30; 7560,849;  189,703;19578,357;38,01784
 419,89; 7683,495;  174,006;19798,096;38,26669
 420,48; 7864,725;  201,684;20076,557;38,55643
 421,07; 7926,189;  188,064;20149,470;38,76543
 421,66; 7996,448;  166,282;20169,254;39,14501
 422,25; 8054,603;  170,565;20084,052;39,59145
 422,84; 8095,661;  208,099;20020,387;39,81147
 423,43; 8051,173;  187,340;19716,558;40,26702
 424,02; 8021,330;  204,643;19509,009;40,49181
 424,60; 7855,706;  174,152;19135,956;40,51067
 425,19; 7848,945;  191,398;18867,548;41,00174
 425,78; 7866,817;  204,550;18828,493;41,14203
 426,37; 7807,690;  209,232;18675,167;41,14851
 426,96; 7865,958;  184,694;18627,269;41,64963
 427,55; 7858,257;  178,446;18405,796;42,13344
 428,14; 7784,442;  171,824;18210,337;42,20203
 428,73; 7759,517;  193,837;18109,465;42,22950
 429,32; 7828,347;  200,388;18035,870;42,76845
 429,91; 7883,799;  217,144;18027,245;43,04667
 430,50; 7829,649;  203,674;17922,001;43,04004
 431,08; 7835,633;  231,204;17790,207;43,30787
 431,67; 7884,382;  254,427;17645,625;43,87251
 432,26; 7851,432;  273,343;17443,178;44,13606
 432,85; 7747,123;  282,345;17148,684;44,25843
 433,44; 7629,644;  299,796;16804,357;44,41105
 434,03; 7569,886;  309,473;16399,778;45,12290
 434,62; 7428,013;  271,872;16063,336;45,31651
 435,21; 7408,036;  283,113;15909,450;45,59560
 435,79; 7342,120;  278,402;15782,611;45,56001
 436,38; 7351,605;  276,618;15723,949;45,80071
 436,97; 7343,869;  279,000;15590,912;46,13969
 437,56; 7287,797;  276,209;15432,003;46,26342
 438,15; 7273,937;  237,599;15359,670;46,53025
 438,74; 7312,381;  262,982;15371,844;46,65738
 439,33; 7353,433;  225,062;15379,396;47,03850
 439,91; 7366,675;  187,744;15453,700;47,02575
 440,50; 7472,379;  237,281;15497,506;47,41148
 441,09; 7549,650;  236,577;15605,746;47,58275
 441,68; 7566,542;  226,794;15592,005;47,76861
 442,27; 7573,728;  208,800;15526,973;48,07968
 442,86; 7623,114;  190,926;15618,999;48,17315
 443,44; 7707,811;  198,239;15634,063;48,65028
 444,03; 7759,283;  252,618;15656,216;48,73319
 444,62; 7685,351;  193,079;15499,248;48,94936
 445,21; 7640,184;  211,467;15270,256;49,33144
 445,80; 7578,136;  232,452;15293,612;48,77237
 446,39; 7579,551;  246,532;15035,740;49,58358
 446,97; 7453,055;  187,899;14795,739;49,73464
 447,56; 7335,843;  191,425;14604,710;49,56829
 448,15; 7282,779;  198,899;14427,208;49,78722
 448,74; 7272,507;  220,513;14189,352;50,48375
 449,33; 7187,380;  200,350;14136,677;50,13538
 449,91; 7076,911;  201,951;13859,162;50,33942
 450,50; 6977,338;  182,184;13693,054;50,29398
 451,09; 6971,940;  206,567;13569,870;50,62650
 451,68; 6959,711;  227,253;13481,362;50,79525
 452,26; 6957,863;  220,093;13403,982;51,10609
 452,85; 6897,134;  198,943;13360,190;50,89328
 453,44; 6913,849;  219,077;13312,491;51,13083
 454,03; 6869,946;  197,858;13327,613;50,81655
 454,61; 6908,771;  185,691;13289,071;51,30798
 455,20; 7064,403;  209,069;13479,934;51,65702
 455,79; 7050,070;  214,696;13459,602;51,60757
 456,38; 7101,408;  224,212;13555,954;51,58512
 456,97; 7200,327;  200,600;13592,776;52,26729
 457,55; 7170,484;  196,130;13600,224;52,03152
 458,14; 7176,741;  220,295;13573,980;52,09383
 458,73; 7148,714;  216,898;13484,112;52,24771
 459,31; 7191,084;  232,193;13586,777;52,10863
 459,90; 7267,307;  251,200;13604,728;52,54122
 460,49; 7370,691;  269,896;13688,038;52,91936
 461,08; 7344,452;  198,341;13829,795;52,42368
 461,66; 7400,299;  208,579;13871,714;52,63595
 462,25; 7455,266;  204,259;13941,058;52,78527
 462,84; 7491,374;  237,801;14034,529;52,57459
 463,43; 7398,309;  187,630;13949,598;52,39570
 464,01; 7486,803;  195,086;13943,406;53,03715
 464,60; 7489,402;  247,865;13873,776;53,14534
 465,19; 7307,690;  187,082;13654,917;52,87122
 465,77; 7344,227;  209,230;13609,383;53,24564
 466,36; 7300,626;  217,630;13468,566;53,45280
 466,95; 7148,883;  202,321;13203,127;53,43178
 467,53; 7026,902;  196,838;12918,904;53,68675
 468,12; 6855,205;  227,451;12626,842;53,45225
 468,71; 6769,861;  220,927;12418,817;53,68908
 469,29; 6623,558;  193,219;12210,569;53,50879
 469,88; 6521,055;  199,752;11986,018;53,63279
 470,47; 6642,808;  249,510;12106,153;53,92165
 471,06; 6599,370;  216,432;12121,030;53,61742
 471,64; 6666,683;  229,282;12183,743;53,84937
 472,23; 6640,138;  188,259;12228,146;53,58754
 472,81; 6689,469;  190,501;12284,568;53,73683
 473,40; 6752,289;  196,413;12468,504;53,42102
 473,99; 6943,461;  273,412;12629,363;53,98248
 474,57; 6916,187;  199,105;12718,704;53,65253
 475,16; 7000,932;  210,267;12926,140;53,40306
 475,75; 7073,806;  228,866;13002,768;53,58535
 476,33; 7106,738;  233,550;13063,774;53,57029
 476,92; 7122,389;  239,641;13125,500;53,41319
 477,51; 7111,538;  222,861;13194,398;53,10610
 478,09; 7167,498;  217,323;13186,654;53,58931
 478,68; 7150,154;  229,088;13142,473;53,59606
 479,27; 7147,206;  246,866;13202,831;53,25994
 479,85; 7154,446;  215,704;13235,564;53,29353
 480,44; 7209,394;  219,315;13332,746;53,30473
 481,02; 7890,893;  216,923;15223,998;51,13568
 481,61; 8928,871;  253,388;16832,268;52,32852
 482,20; 9474,708;  236,230;17846,529;52,46066
 482,78; 9847,734;  273,548;18530,404;52,44159
 483,37;10096,205;  250,449;19003,367;52,50252
 483,95;10213,514;  284,754;19237,862;52,38592
 484,54;10366,180;  291,851;19346,842;52,86976
 485,13;10212,208;  253,052;19237,891;52,45847
 485,71;10127,629;  247,594;19011,303;52,65502
 486,30;10039,435;  283,902;18742,020;52,85226
 486,88; 9887,252;  317,284;18346,123;53,08144
 487,47; 9464,068;  300,281;17589,841;53,00185
 488,05; 9018,795;  284,431;16764,992;52,99798
 488,64; 8405,899;  289,268;15436,548;53,58474
 489,23; 7516,344;  287,813;13403,608;55,11317
 489,81; 6456,486;  294,579;11755,569;53,76418
 490,40; 6096,645;  243,193;11302,629;52,92722
 490,98; 5958,827;  236,650;11124,761;52,55435
 491,57; 5941,930;  255,427;11095,592;52,45772
 492,15; 5900,546;  233,033;10996,937;52,65294
 492,74; 5837,009;  242,507;10833,893;52,82125
 493,32; 5822,237;  252,343;10845,750;52,57887
 493,91; 5749,367;  235,875;10701,946;52,67967
 494,50; 5742,688;  241,782;10673,204;52,73400
 495,08; 5628,175;  233,475;10579,732;52,14156
 495,67; 5670,445;  236,569;10566,058;52,60547
 496,25; 5564,789;  190,252;10474,505;52,25987
 496,84; 5571,172;  202,339;10436,707;52,45886
 497,42; 5551,621;  194,095;10452,287;52,22681
 498,01; 5521,050;  218,106;10343,209;52,37422
 498,59; 5467,389;  186,324;10299,944;52,21736
 499,18; 5425,456;  187,259;10242,521;52,09409
 499,76; 5407,989;  198,021;10174,575;52,22212
 500,35; 5285,128;  202,009;10037,163;51,68317
 500,93; 5231,750;  183,865; 9971,333;51,57499
 501,52; 5198,728;  193,786; 9918,412;51,46667
 502,10; 5191,194;  203,310; 9872,661;51,58448
 502,69; 5078,575;  189,766; 9709,597;51,35395
 503,27; 4978,404;  171,243; 9539,466;51,31348
 503,86; 4960,872;  188,614; 9468,596;51,42529
 504,44; 4880,831;  176,455; 9385,353;51,08512
 505,03; 4737,225;  152,532; 9109,013;51,18855
 505,61; 4697,694;  171,611; 9022,948;51,13446
 506,19; 4628,604;  201,763; 8915,456;50,80327
 506,78; 4521,263;  164,597; 8724,724;50,89487
 507,36; 4430,770;  169,533; 8542,528;50,89263
 507,95; 4331,742;  174,131; 8423,391;50,39981
 508,53; 4281,823;  177,982; 8358,917;50,16347
 509,12; 4228,593;  182,055; 8156,607;50,74313
 509,70; 4183,437;  200,745; 8071,460;50,60140
 510,29; 4077,393;  200,047; 7914,882;50,25831
 510,87; 3961,266;  162,059; 7730,674;50,19687
 511,46; 3871,372;  166,826; 7573,303;50,01766
 512,04; 3816,316;  173,358; 7446,115;50,09046
 512,62; 3743,794;  178,441; 7338,558;49,79461
 513,21; 3623,879;  153,585; 7126,451;49,76854
 513,79; 3571,635;  176,951; 7032,609;49,51653
 514,38; 3496,375;  155,188; 6900,213;49,53558
 514,96; 3483,883;  193,189; 6805,625;49,76523
 515,54; 3369,844;  168,878; 6674,648;49,20195
 516,13; 3324,363;  183,030; 6581,831;49,09252
 516,71; 3255,373;  163,638; 6470,795;49,01947
 517,30; 3189,688;  159,785; 6343,152;49,00086
 517,88; 3166,990;  189,016; 6325,749;48,52702
 518,46; 3076,080;  161,782; 6208,664;48,19505
 519,05; 3041,405;  172,392; 6162,716;47,89412
 519,63; 3047,570;  174,857; 6103,985;48,45086
 520,22; 2979,024;  186,999; 6063,011;47,51564
 520,80; 2957,276;  174,537; 5974,169;47,98130
 521,38; 2969,878;  200,314; 5943,214;48,22588
 521,97; 2907,370;  163,301; 5948,913;47,42920
 522,55; 2933,497;  192,916; 5899,087;48,02836
 523,13; 2868,023;  164,527; 5895,475;47,17362
 523,72; 2874,997;  176,783; 5902,339;47,12581
 524,30; 2942,515;  187,446; 6033,060;47,13053
 524,89; 2885,237;  173,761; 6062,840;46,04244
 525,47; 2946,661;  188,366; 6140,356;46,34239
 526,05; 2930,958;  156,288; 6214,583;45,79952
 526,64; 3008,338;  185,593; 6331,409;45,92953
 527,22; 3031,307;  173,521; 6435,363;45,63811
 527,80; 3123,304;  212,670; 6570,642;45,77929
 528,39; 3122,849;  166,051; 6667,042;45,48227
 528,97; 3152,703;  178,591; 6853,054;44,55956
 529,55; 3240,964;  199,835; 7020,103;44,58959
 530,14; 3347,721;  200,586; 7212,337;44,88372
 530,72; 3335,816;  172,745; 7298,694;44,38807
 531,30; 3327,434;  168,277; 7399,341;43,68868
 531,89; 3387,261;  185,662; 7495,713;43,79723
 532,47; 3471,567;  210,275; 7550,258;44,43188
 533,05; 3466,652;  197,824; 7607,309;44,11680
 533,63; 3489,123;  213,042; 7692,081;43,80350
 534,22; 3471,458;  183,581; 7735,523;43,53685
 534,80; 3508,822;  209,034; 7776,864;43,60283
 535,38; 3600,636;  271,738; 7846,710;43,94601
 535,97; 3515,238;  206,659; 7879,065;43,12309
 536,55; 3565,467;  240,649; 7922,144;43,28348
 537,13; 3514,939;  257,586; 7916,035;42,53280
 537,71; 3595,380;  305,971; 7930,261;43,14380
 538,30; 3601,465;  342,193; 8009,190;42,51042
 538,88; 3662,365;  369,412; 8121,348;42,47910
 539,46; 3770,025;  426,881; 8317,961;42,36612
 540,05; 3813,077;  452,799; 8419,354;42,17981
 540,63; 3893,757;  504,337; 8682,437;41,44508
 541,21; 3945,624;  544,871; 8800,746;41,19192
 541,79; 4008,221;  586,409; 8912,041;41,09973
 542,38; 4067,980;  611,262; 9088,735;40,77533
 542,96; 4125,124;  610,018; 9235,033;40,75479
 543,54; 4196,920;  634,103; 9425,864;40,52451
 544,12; 4252,460;  591,023; 9550,281;40,86764
 544,70; 4244,542;  579,787; 9584,185;40,69962
 545,29; 4278,564;  600,723; 9717,112;40,34318
 545,87; 4308,452;  559,948; 9808,195;40,53205
 546,45; 4291,897;  513,647; 9799,178;40,68965
 547,03; 4301,337;  478,489; 9875,906;40,67977
 547,62; 4289,061;  445,178;10013,911;40,17128
 548,20; 4324,728;  434,327;10169,689;39,96155
 548,78; 4368,732;  390,234;10269,133;40,27269
 549,36; 4386,937;  358,159;10444,419;39,94323
 549,94; 4414,795;  312,406;10634,534;39,74363
 550,53; 4458,351;  320,161;10831,701;39,36806
 551,11; 4512,392;  289,308;10993,979;39,45085
 551,69; 4609,325;  284,390;11224,446;39,53302
 552,27; 4679,233;  256,396;11579,805;39,05924
 552,85; 4766,970;  265,770;11906,569;38,66745
 553,44; 4909,509;  250,390;12238,837;38,86341
 554,02; 5013,095;  268,849;12547,017;38,63969
 554,60; 5073,096;  209,538;12851,477;38,47161
 555,18; 5234,149;  240,236;13202,791;38,52568
 555,76; 5280,951;  224,772;13524,216;38,01797
 556,34; 5405,387;  221,916;13983,264;37,66688
 556,93; 5561,472;  216,158;14324,777;37,88686
 557,51; 5666,826;  207,531;14638,994;37,82912
 558,09; 5765,290;  219,620;14998,720;37,52373
 558,67; 5886,405;  224,373;15294,009;37,57245
 559,25; 6005,157;  230,991;15618,759;37,52439
 559,83; 6035,519;  209,369;15858,724;37,22933
 560,41; 6158,825;  206,688;16227,961;37,15146
 561,00; 6280,884;  220,603;16632,483;36,92619
 561,58; 6343,579;  212,304;16808,744;36,94332
 562,16; 6383,112;  198,000;17096,652;36,60121
 562,74; 6503,738;  184,157;17464,767;36,57036
 563,32; 6673,713;  178,600;17929,237;36,59087
 563,90; 6732,721;  204,757;18317,284;36,04116
 564,48; 6874,956;  216,843;18674,966;36,07145
 565,06; 7093,787;  203,066;19318,017;36,04885
 565,65; 7301,298;  207,746;19974,149;35,88691
 566,23; 7514,912;  246,988;20618,232;35,67737
 566,81; 7712,505;  205,760;21366,734;35,47448
 567,39; 7990,745;  202,136;22241,662;35,33928
 567,97; 8205,966;  214,682;22799,929;35,38276
 568,55; 8460,101;  230,292;23663,033;35,12098
 569,13; 8699,121;  203,218;24286,578;35,27707
 569,71; 8968,767;  205,539;25217,088;35,03673
 570,29; 9283,964;  237,928;26141,861;34,92148
 570,87; 9524,596;  235,002;26799,188;34,97037
 571,45; 9691,716;  223,373;27338,343;34,91924
 572,03; 9845,867;  188,750;27757,081;35,02975
 572,61; 9994,593;  193,062;28431,502;34,70989
 573,20;10199,515;  227,146;29223,429;34,39189
 573,78;10362,645;  212,446;29730,513;34,38640
 574,36;10502,305;  217,602;30180,703;34,32456
 574,94;10613,835;  270,902;30540,039;34,16990
 575,52;10627,883;  232,507;30775,368;34,03537
 576,10;10845,837;  282,050;31426,377;33,91882
 576,68;11035,301;  264,827;31935,562;34,00765
 577,26;11167,120;  284,118;32591,692;33,68561
 577,84;11308,347;  279,447;32998,208;33,70818
 578,42;11383,593;  326,284;33286,154;33,54779
 579,00;11345,039;  280,676;33355,019;33,45301
 579,58;11396,342;  318,748;33645,109;33,23974
 580,16;11306,457;  300,128;33576,362;33,07564
 580,74;11320,662;  303,435;33816,220;32,87470
 581,32;11371,237;  298,747;33898,785;32,95380
 581,90;11298,641;  317,129;33832,369;32,76573
 582,48;11316,927;  320,590;34061,484;32,59053
 583,06;11281,561;  314,901;34178,422;32,38488
 583,64;11323,663;  318,287;34207,103;32,47495
 584,22;11170,359;  324,659;33989,857;32,21635
 584,80;11035,802;  336,130;33728,577;32,04219
 585,38;10870,612;  336,763;33398,400;31,86124
 585,96;10831,364;  318,136;33540,919;31,64463
 586,54;10804,141;  337,584;33549,195;31,51475
 587,12;10806,390;  295,664;33623,671;31,53722
 587,70;10805,723;  326,751;33915,700;31,19768
 588,28;10796,200;  310,588;33990,030;31,13357
 588,86;10787,001;  309,124;34064,532;31,04059
 589,44;10709,815;  290,421;34138,220;30,78308
 590,02;10774,749;  295,962;34368,719;30,75415
 590,59;10745,942;  267,738;34487,740;30,62011
 591,17;10823,783;  266,411;34747,061;30,61825
 591,75;10748,332;  267,340;34803,563;30,34782
 592,33;10810,922;  286,112;35112,345;30,22093
 592,91;10802,120;  229,721;35426,881;30,03765
 593,49;10819,640;  245,101;35671,600;29,84924
 594,07;10914,671;  259,562;35832,838;29,95256
 594,65;10828,990;  261,352;35821,340;29,71778
 595,23;10914,685;  246,578;36210,868;29,66305
 595,81;10908,877;  243,729;36274,311;29,60027
 596,39;10859,603;  248,883;36486,386;29,28105
 596,97;10854,102;  243,029;36605,638;29,18128
 597,55;10761,644;  235,273;36543,706;28,99153
 598,12;10759,216;  225,713;36555,274;28,99430
 598,70;10680,501;  216,258;36759,588;28,63517
 599,28;10736,374;  244,565;36890,184;28,63046
 599,86;10676,409;  238,027;36873,218;28,49277
 600,44;10623,637;  204,178;37010,993;28,30851
 601,02;10672,899;  242,858;37089,574;28,30657
 601,60;10559,994;  224,878;37007,479;28,09784
 602,18;10499,106;  213,406;36958,737;27,99186
 602,75;10438,595;  211,576;37145,530;27,69002
 603,33;10463,777;  227,411;37128,658;27,73989
 603,91;10380,761;  209,094;37075,905;27,59031
 604,49;10405,322;  238,180;37155,830;27,54006
 605,07;10316,296;  247,802;37247,076;27,21268
 605,65;10276,215;  252,716;37232,933;27,10503
 606,23;10332,047;  339,047;37403,294;26,96129
 606,80;10291,961;  378,730;37512,518;26,69599
 607,38;10237,725;  435,941;37444,992;26,48483
 607,96;10189,607;  486,731;37561,063;26,17141
 608,54;10185,043;  544,639;37598,074;26,01757
 609,12;10157,912;  574,807;37652,883;25,84574
 609,70;10141,566;  603,412;37699,629;25,71193
 610,27;10082,673;  613,886;37760,335;25,49042
 610,85;10117,551;  621,182;37945,412;25,44291
 611,43;10043,107;  642,335;37815,543;25,28911
 612,01; 9914,573;  590,418;37537,258;25,23668
 612,59; 9830,634;  573,566;37568,892;25,02226
 613,16; 9779,069;  538,274;37494,408;25,00477
 613,74; 9732,651;  509,257;37388,638;25,00962
 614,32; 9643,732;  459,177;37376,355;24,87881
 614,90; 9570,907;  404,492;37241,860;24,88347
 615,48; 9385,576;  353,657;36952,366;24,67824
 616,05; 9341,098;  322,583;36924,578;24,63941
 616,63; 9201,389;  337,740;36705,328;24,37239
 617,21; 9143,894;  317,732;36719,598;24,24646
 617,79; 9065,024;  301,652;36551,488;24,17493
 618,36; 9031,200;  311,494;36451,140;24,12781
 618,94; 8803,963;  262,272;36145,819;23,80392
 619,52; 8771,890;  278,970;35926,114;23,82497
 620,10; 8694,573;  268,499;35857,414;23,67612
 620,67; 8609,340;  276,048;35802,232;23,45676
 621,25; 8580,061;  291,802;35702,434;23,40613
 621,83; 8435,511;  276,887;35486,864;23,17134
 622,41; 8437,803;  310,888;35527,570;23,07689
 622,98; 8343,343;  295,894;35265,104;23,01296
 623,56; 8290,978;  290,742;35286,075;22,86087
 624,14; 8231,992;  279,414;35205,024;22,77005
 624,72; 8125,397;  269,810;35071,300;22,57256
 625,29; 8106,390;  246,434;35144,209;22,52280
 625,87; 8052,043;  293,805;35131,731;22,26952
 626,45; 7962,548;  242,897;34865,656;22,29647
 627,02; 7898,701;  258,574;34892,390;22,05973
 627,60; 7853,438;  251,640;34812,462;21,99542
 628,18; 7835,604;  234,576;34819,037;21,97816
 628,76; 7802,164;  235,893;34911,423;21,82020
 629,33; 7797,405;  258,197;34923,927;21,74830
 629,91; 7777,804;  241,653;34861,414;21,76835
 630,49; 7773,667;  257,430;35011,585;21,62687
 631,06; 7761,071;  251,046;35169,940;21,50705
 631,64; 7705,369;  256,281;35102,744;21,37689
 632,22; 7630,631;  215,670;35023,676;21,30246
 632,79; 7682,889;  236,439;35310,657;21,23055
 633,37; 7635,628;  219,187;35335,373;21,11972
 633,95; 7619,484;  224,590;35409,881;21,01700
 634,52; 7631,659;  210,118;35526,999;21,01414
 635,10; 7587,023;  208,116;35525,147;20,89334
 635,68; 7605,025;  216,593;35702,106;20,82098
 636,25; 7524,887;  208,060;35657,472;20,64019
 636,83; 7544,087;  194,432;35948,269;20,55627
 637,41; 7545,057;  209,825;35891,686;20,55731
 637,98; 7510,946;  235,749;36229,688;20,21228
 638,56; 7510,556;  220,908;36289,400;20,21057
 639,13; 7442,261;  202,510;36304,779;20,05345
 639,71; 7489,502;  239,892;36412,703;20,04160
 640,29; 7349,585;  182,815;36232,811;19,88009
 640,86; 7350,716;  202,969;36414,071;19,73910
 641,44; 7317,846;  203,661;36446,331;19,62931
 642,02; 7280,900;  233,660;36350,746;19,51220
 642,59; 7244,261;  195,429;36597,698;19,36371
 643,17; 7195,776;  204,967;36478,266;19,27260
 643,74; 7170,675;  201,198;36555,988;19,17073
 644,32; 7162,652;  228,813;36455,172;19,14031
 644,89; 7086,013;  211,505;36439,201;18,97584
 645,47; 7066,374;  220,351;36540,615;18,84905
 646,05; 6981,197;  225,120;36471,876;18,63912
 646,62; 6960,097;  219,735;36389,597;18,63530
 647,20; 6965,535;  221,734;36537,396;18,56995
 647,77; 6859,127;  194,196;36456,810;18,37962
 648,35; 6825,872;  188,041;36334,455;18,36373
 648,92; 6831,464;  226,118;36323,408;18,29873
 649,50; 6714,902;  182,656;36179,668;18,14663
 650,08; 6678,648;  194,348;36169,390;18,02444
 650,65; 6680,779;  196,656;36434,343;17,89331
 651,23; 6793,986;  176,809;37475,142;17,74121
 651,80; 6930,809;  177,963;38145,556;17,78582
 652,38; 6959,708;  195,116;38409,124;17,70187
 652,95; 6979,608;  174,577;38783,076;17,62573
 653,53; 6991,277;  200,346;38932,645;17,53299
 654,10; 7026,176;  225,807;39085,059;17,50000
 654,68; 6904,230;  185,499;38997,857;17,31080
 655,25; 6958,668;  180,653;39155,964;17,39053
 655,83; 6887,414;  191,653;39123,301;17,19876
 656,40; 6877,929;  207,268;39125,792;17,14007
 656,98; 6819,828;  178,344;39041,976;17,08920
 657,55; 6784,497;  200,113;38905,544;17,01153
 658,13; 6706,474;  183,036;38492,266;17,02837
 658,70; 6631,066;  214,036;38173,064;16,90515
 659,28; 6426,196;  195,343;37285,325;16,79929
 659,85; 6247,480;  202,189;36767,200;16,53300
 660,43; 6299,226;  216,496;36795,922;16,62883
 661,00; 6256,664;  192,034;37030,413;16,46280
 661,58; 6275,487;  193,188;37247,674;16,41447
 662,15; 6270,771;  173,264;37525,396;16,32439
 662,73; 6338,594;  228,956;37772,656;16,27340
 663,30; 6309,647;  196,879;37982,147;16,17765
 663,88; 6288,701;  201,725;38034,946;16,08897
 664,45; 6277,062;  177,032;38376,514;15,96888
 665,03; 6314,039;  190,186;38730,467;15,88949
 665,60; 6389,400;  247,032;39080,342;15,81727
 666,17; 6300,299;  190,416;39173,141;15,67331
 666,75; 6345,737;  182,569;39595,478;15,63743
 667,32; 6365,637;  218,954;39835,200;15,51556
 667,90; 6412,306;  190,800;40079,691;15,59709
 668,47; 6374,667;  214,030;40393,490;15,33280
 669,05; 6376,721;  190,568;40677,597;15,27934
 669,62; 6359,159;  165,876;40703,472;15,27787
 670,19; 6366,212;  186,183;40780,271;15,22396
 670,77; 6360,189;  194,413;40914,301;15,14193
 671,34; 6326,781;  189,105;40904,253;15,07467
 671,92; 6354,834;  174,182;41211,052;15,06122
 672,49; 6334,965;  201,797;41289,235;14,92711
 673,06; 6283,403;  155,720;41258,496;14,90820
 673,64; 6268,995;  177,335;41221,448;14,84174
 674,21; 6239,202;  163,334;41252,786;14,78693
 674,79; 6262,025;  197,565;41443,123;14,70330
 675,36; 6239,386;  200,949;41590,152;14,58940
 675,93; 6180,439;  171,257;41475,567;14,54856
 676,51; 6177,339;  180,487;41691,365;14,44646
 677,08; 6169,931;  187,641;41722,087;14,40320
 677,65; 6164,061;  190,256;41813,578;14,35206
 678,23; 6155,499;  190,717;42092,608;14,23512
 678,80; 6095,322;  177,563;42089,638;14,11946
 679,38; 6108,299;  172,716;42195,206;14,12478
 679,95; 6113,506;  186,408;42522,697;14,00004
 680,52; 6108,713;  174,869;42794,188;13,92290
 681,10; 6165,690;  187,946;43153,602;13,91284
 681,67; 6170,820;  194,869;43574,862;13,77582
 682,24; 6135,258;  170,791;43488,969;13,76897
 682,82; 6207,081;  178,791;44118,998;13,71930
 683,39; 6284,596;  220,791;44479,951;13,70068
 683,96; 6238,188;  175,867;44567,673;13,65640
 684,54; 6261,703;  176,790;44929,625;13,59671
 685,11; 6310,987;  211,867;45244,655;13,54373
 685,68; 6286,118;  191,097;45715,146;13,38857
 686,25; 6268,017;  175,943;45676,637;13,38897
 686,83; 6271,378;  174,481;45902,974;13,33282
 687,40; 6302,124;  174,173;46243,850;13,30148
 687,97; 6415,024;  210,865;46634,187;13,36431
 688,55; 6342,385;  172,096;46695,909;13,26265
 689,12; 6342,977;  158,018;46834,247;13,25077
 689,69; 6353,953;  167,941;46987,738;13,21239
 690,26; 6307,238;  188,095;47065,767;13,05343
 690,84; 6333,983;  176,248;47164,335;13,10489
 691,41; 6359,883;  191,325;47289,980;13,09710
 691,98; 6428,783;  186,324;47652,471;13,15139
 692,56; 6363,375;  172,016;47699,501;13,02690
 693,13; 6397,582;  231,478;47811,146;12,95954
 693,70; 6361,020;  198,477;47910,483;12,91613
 694,27; 6354,997;  175,861;48078,666;12,89932
 694,84; 6311,512;  172,553;48199,850;12,78223
 695,42; 6410,104;  209,938;48158,418;12,93089
 695,99; 6343,003;  178,399;48434,217;12,77484
 696,56; 6324,518;  166,937;48235,939;12,80988
 697,13; 6356,418;  188,937;48645,660;12,72781
 697,71; 6310,087;  156,936;48695,382;12,67686
 698,28; 6329,525;  177,859;49043,181;12,58902
 698,85; 6310,271;  149,936;49061,749;12,59478
 699,42; 6295,632;  150,166;49175,317;12,53533
 699,99; 6352,685;  186,781;49168,424;12,58819
 700,57; 6320,816;  189,550;49295,376;12,48582
 701,14; 6306,408;  167,627;49540,867;12,43342
 701,71; 6365,846;  191,088;49600,743;12,49707
 702,28; 6341,514;  187,703;49671,388;12,43604
 702,85; 6307,953;  182,780;49705,341;12,36845
 703,43; 6316,314;  200,856;50042,139;12,26986
 704,00; 6336,213;  205,394;50212,708;12,25984
 704,57; 6307,728;  198,394;50247,276;12,20673
 705,14; 6375,474;  221,009;50445,074;12,25402
 705,71; 6379,220;  223,855;50507,027;12,24140
 706,28; 6279,812;  199,239;50257,057;12,14710
 706,86; 6325,096;  223,854;50675,701;12,09320
 707,43; 6332,996;  231,546;50503,193;12,13696
 708,00; 6293,742;  219,777;50573,299;12,06264
 708,57; 6252,103;  201,623;50403,175;12,05238
 709,14; 6318,541;  226,238;50611,974;12,09133
 709,71; 6310,517;  202,391;50668,619;12,10339
 710,28; 6328,263;  190,852;50869,263;12,11050
 710,86; 6316,086;  194,467;50971,908;12,05578
 711,43; 6376,524;  211,929;50930,246;12,15457
 712,00; 6343,654;  203,390;51004,044;12,08698
 712,57; 6391,477;  213,082;51145,920;12,13048
 713,14; 6372,607;  192,389;51241,027;12,10653
 713,71; 6353,815;  199,773;51219,825;12,06201
 714,28; 6315,945;  203,696;51284,240;11,96590
 714,85; 6291,383;  179,234;51042,962;12,01671
 715,42; 6331,975;  197,772;51212,914;12,02428
 716,00; 6375,721;  231,464;51301,790;12,03097
 716,57; 6313,236;  194,156;51492,127;11,92850
 717,14; 6320,213;  174,233;51368,080;12,00531
 717,71; 6319,035;  162,925;51490,879;11,99368
 718,28; 6383,704;  209,540;51434,370;12,05307
 718,85; 6299,911;  178,540;51513,476;11,92438
 719,42; 6371,811;  191,155;51748,583;11,98791
 719,99; 6309,095;  184,154;51432,997;11,95137
 720,56; 6370,072;  194,385;51626,411;12,00747
 721,13; 6349,664;  186,231;51896,825;11,91909
 721,70; 6355,487;  175,154;51737,624;11,98611
 722,27; 6406,309;  211,538;51837,961;11,99923
 722,84; 6452,978;  227,999;51915,914;12,04339
 723,41; 6403,955;  168,691;51779,251;12,08137
 723,98; 6456,316;  189,845;52034,127;12,08710
 724,55; 6467,908;  210,383;52143,541;12,04919
 725,12; 6434,269;  144,921;52052,878;12,11635
 725,69; 6462,092;  175,844;52301,446;12,05981
 726,27; 6508,376;  181,459;52352,553;12,12725
 726,84; 6533,352;  189,227;52631,044;12,09745
 727,41; 6530,944;  195,150;52610,612;12,08764
 727,98; 6563,767;  193,842;52946,641;12,07505
 728,55; 6625,590;  217,919;52853,517;12,17365
 729,12; 6604,028;  168,611;53012,931;12,17807
 729,69; 6626,004;  194,610;53127,346;12,15013
 730,26; 6652,058;  205,764;53271,221;12,14782
 730,82; 6618,958;  186,764;53139,866;12,14696
 731,39; 6635,934;  189,840;53253,742;12,14779
 731,96; 6688,757;  176,071;53726,771;12,16172
 732,53; 6723,426;  199,686;53794,724;12,17228
 733,10; 6755,787;  198,455;53893,754;12,21212
 733,67; 6772,302;  195,993;54022,860;12,21752
 734,24; 6717,971;  187,608;53704,428;12,20245
 734,81; 6822,024;  213,608;53786,227;12,33544
 735,38; 6730,231;  198,069;53504,026;12,25410
 735,95; 6752,054;  192,607;53378,671;12,33302
 736,52; 6765,800;  207,683;53641,931;12,27325
 737,09; 6731,546;  205,760;53200,114;12,31411
 737,66; 6802,830;  236,683;53366,682;12,35864
 738,23; 6839,883;  196,298;53539,558;12,45440
 738,80; 6955,552;  232,298;53792,126;12,55279
 739,37; 6890,990;  221,682;53891,540;12,42654
 739,94; 6954,044;  194,220;53998,185;12,56380
 740,51; 7010,174;  276,527;54075,523;12,51631
 741,07; 6962,766;  188,835;53936,014;12,60332
 741,64; 6982,435;  223,450;54271,043;12,50562
 742,21; 6971,642;  192,296;54194,304;12,55388
 742,78; 6977,927;  169,834;54114,949;12,62041
 743,35; 6988,288;  197,218;54262,440;12,56088
 743,92; 7094,880;  223,218;54418,623;12,67942
 744,49; 7098,472;  196,756;54284,806;12,76015
 745,06; 7058,141;  187,986;54336,836;12,68754
 745,63; 7052,502;  169,524;54346,712;12,70457
 746,19; 7075,632;  183,293;54321,818;12,73093
 746,76; 7079,763;  199,139;54303,079;12,71742
 747,33; 7086,124;  189,754;54318,877;12,74059
 747,90; 7177,408;  213,292;54484,907;12,83197
 748,47; 7186,384;  211,292;54387,013;12,87494
 749,04; 7193,053;  202,369;54411,043;12,89588
 749,61; 7244,184;  225,522;54302,765;12,97896
 750,17; 7254,930;  201,445;54403,717;13,01326
 750,74; 7240,291;  207,214;54210,209;13,02349
 751,31; 7225,190;  183,598;54225,161;13,02996
 751,88; 7198,321;  172,521;54072,422;13,03490
 752,45; 7265,451;  197,597;54272,143;13,07057
 753,02; 7287,658;  203,905;54075,788;13,14926
 753,58; 7287,173;  179,289;54019,895;13,20172
 754,15; 7314,765;  189,212;54153,617;13,20417
 754,72; 7248,819;  184,673;53897,646;13,15166
 755,29; 7295,180;  182,827;53744,214;13,27888
 755,86; 7330,695;  206,980;53887,552;13,27056
 756,42; 7336,902;  211,057;53757,812;13,30771
 756,99; 7313,187;  183,364;53740,995;13,31243
 757,56; 7351,625;  188,594;53599,486;13,41118
 758,13; 7355,140;  154,902;53643,901;13,46116
 758,70; 7379,809;  184,055;53619,546;13,46624
 759,26; 7414,785;  186,055;53680,575;13,51303
 759,83; 7445,454;  192,824;53849,374;13,51677
 760,40; 7436,431;  172,439;53729,019;13,56321
 760,97; 7463,638;  181,054;53652,433;13,61959
 761,53; 7459,691;  153,054;53224,155;13,76764
 762,10; 7447,283;  167,746;53412,261;13,67190
 762,67; 7510,183;  181,515;53308,291;13,79468
 763,24; 7477,083;  142,668;52784,551;13,93266
 763,80; 7565,059;  173,283;52993,273;13,99428
 764,37; 7525,651;  174,898;52890,303;13,94422
 764,94; 7461,935;  170,667;52409,332;13,95761
 765,50; 7492,835;  154,898;52455,669;14,03027
 766,07; 7560,811;  202,897;52535,853;14,05981
 766,64; 7565,326;  164,666;52255,806;14,20714
 767,21; 7602,918;  170,897;52117,681;14,30699
 767,77; 7543,510;  192,127;51984,249;14,19402
 768,34; 7585,487;  185,896;52024,894;14,27418
 768,91; 7582,310;  184,819;51831,385;14,32330
 769,47; 7608,902;  183,588;51739,646;14,40241
 770,04; 7604,494;  198,203;51652,137;14,39402
 770,61; 7610,932;  176,433;51467,012;14,49486
 771,18; 7590,293;  165,740;51421,427;14,48532
 771,74; 7653,039;  179,894;51554,995;14,54624
 772,31; 7647,784;  178,817;51285,486;14,61447
 772,88; 7590,915;  162,201;50999,746;14,61265
 773,44; 7592,430;  174,970;50919,930;14,61714
 774,01; 7664,483;  184,354;50986,190;14,72413
 774,58; 7594,075;  165,431;50584,450;14,73381
 775,14; 7674,744;  165,815;50935,787;14,79010
 775,71; 7641,490;  162,353;50687,048;14,80293
 776,27; 7761,313;  209,199;50623,616;14,98007
 776,84; 7794,135;  235,814;50558,107;15,01983
 777,41; 7747,881;  192,737;50449,598;15,03306
 777,97; 7710,396;  175,737;50148,397;15,07756
 778,54; 7703,526;  194,121;50152,734;15,03125
 779,11; 7748,426;  202,121;50107,456;15,12124
 779,67; 7750,556;  166,582;50077,870;15,19491
 780,24; 7738,302;  187,197;49932,053;15,17967
 780,80; 7788,279;  211,966;49922,545;15,24085
 781,37; 7807,255;  191,735;49936,959;15,30905
 781,94; 7812,232;  193,427;49652,142;15,40437
 782,50; 7814,824;  199,657;49670,710;15,39318
 783,07; 7861,877;  220,657;49662,124;15,45508
 783,63; 7868,085;  178,426;49441,923;15,60924
 784,20; 7916,984;  211,810;49375,876;15,67237
 784,77; 7856,115;  190,810;49139,598;15,65985
 785,33; 7849,322;  168,886;48971,396;15,73779
 785,90; 7950,760;  193,809;48959,657;15,90652
 786,46; 7944,583;  202,424;48732,302;15,95339
 787,03; 7878,636;  179,654;48603,793;15,89906
 787,59; 7976,305;  192,808;48512,438;16,10835
 788,16; 7976,743;  211,961;48495,083;16,08177
 788,73; 8015,951;  204,500;48330,420;16,23128
 789,29; 7958,312;  184,884;47928,450;16,28162
 789,86; 8080,288;  201,268;47917,556;16,51222
 790,42; 7991,342;  204,499;47807,739;16,35780
 790,99; 7995,087;  209,960;47333,538;16,52066
 791,55; 7938,449;  188,113;47363,029;16,42893
 792,12; 8029,041;  203,421;47333,059;16,60446
 792,68; 8019,402;  189,651;47039,165;16,71255
 793,25; 8012,224;  203,497;46936,887;16,70910
 793,81; 8024,816;  236,958;46509,609;16,83037
 794,38; 7926,101;  164,496;46262,254;16,83727
 794,94; 7917,539;  187,958;46176,130;16,80776
 795,51; 7945,054;  212,419;45888,467;16,92930
 796,07; 7906,646;  197,572;45609,343;16,97594
 796,64; 7964,699;  212,110;45813,911;17,00062
 797,20; 7861,753;  201,956;45285,094;16,99038
 797,77; 7895,575;  182,725;45032,124;17,19722
 798,33; 7901,398;  203,648;44824,384;17,25151
 798,90; 7892,759;  229,109;44683,106;17,23951
 799,46; 7849,351;  193,493;44359,520;17,33427
 800,03; 7862,712;  209,262;44232,319;17,38509
 800,59; 7928,766;  215,493;43968,425;17,62916
 801,15; 7871,512;  218,339;43802,378;17,55958
 801,72; 7831,950;  207,569;43444,638;17,63390
 802,28; 7819,695;  236,799;43195,053;17,65178
 802,85; 7774,518;  201,338;43084,313;17,66011
 803,41; 7750,264;  196,568;42831,573;17,71712
 803,98; 7693,087;  203,260;42400,218;17,74968
 804,54; 7679,909;  200,721;42207,402;17,80476
 805,11; 7715,347;  212,413;41947,816;17,97739
 805,67; 7691,170;  224,105;41867,230;17,93109
 806,23; 7665,531;  210,105;41537,106;18,04009
 806,80; 7644,046;  229,412;41438,981;17,99251
 807,36; 7689,484;  235,797;41322,165;18,14151
 807,93; 7650,461;  232,335;41031,425;18,18209
 808,49; 7631,899;  204,257;40732,070;18,32727
 809,05; 7629,645;  195,949;40583,638;18,40585
 809,62; 7646,160;  227,488;40551,206;18,39779
 810,18; 7705,675;  220,949;40393,005;18,63167
 810,74; 7647,959;  188,102;40200,188;18,64401
 811,31; 7671,243;  197,563;39963,372;18,79424
 811,87; 7686,066;  203,794;39769,478;18,91101
 812,44; 7735,350;  244,024;39784,277;18,94608
 813,00; 7638,096;  170,486;39537,922;18,96900
 813,56; 7697,688;  211,716;39511,567;19,04835
 814,13; 7711,434;  210,716;39485,289;19,09815
 814,69; 7676,103;  217,100;39222,164;19,12316
 815,25; 7655,618;  184,792;38821,886;19,33589
 815,82; 7634,517;  223,869;38740,224;19,24027
 816,38; 7655,494;  238,561;38592,253;19,33825
 816,94; 7561,394;  199,329;38345,206;19,29976
 817,51; 7544,370;  195,945;38141,851;19,36553
 818,07; 7483,577;  191,406;37898,880;19,33880
 818,63; 7537,169;  216,098;37713,833;19,52404
 819,20; 7541,531;  210,790;37591,401;19,61108
 819,76; 7442,584;  182,405;37175,738;19,62564
 820,32; 7477,868;  227,404;37176,306;19,62295
 820,89; 7495,614;  218,943;36972,874;19,79835
 821,45; 7437,821;  193,635;36705,673;19,84054
 822,01; 7428,336;  212,173;36457,472;19,90924
 822,57; 7466,159;  216,480;36314,578;20,08327
 823,14; 7410,136;  183,018;36003,069;20,17618
 823,70; 7428,651;  191,556;35843,407;20,29935
 824,26; 7434,319;  194,479;35633,667;20,42891
 824,82; 7459,988;  219,248;35486,158;20,53126
 825,39; 7405,965;  198,248;35265,188;20,55417
 825,95; 7426,018;  221,555;35348,063;20,51005
 826,51; 7369,764;  217,401;34890,631;20,62791
 827,08; 7475,895;  248,400;35052,738;20,76607
 827,64; 7455,102;  227,939;34877,075;20,85813
 828,20; 7390,155;  195,246;34455,797;21,00057
 828,76; 7426,978;  217,553;34479,211;21,04225
 829,32; 7455,724;  228,630;34362,702;21,17267
 829,89; 7385,393;  191,860;34270,040;21,10891
 830,45; 7449,523;  218,168;34148,531;21,31234
 831,01; 7422,192;  188,706;34034,483;21,37190
 831,57; 7395,169;  214,013;33873,051;21,33500
 832,14; 7401,068;  188,474;33829,235;21,44004
 832,70; 7404,352;  184,320;33568,957;21,62681
 833,26; 7408,098;  173,012;33541,294;21,68252
 833,82; 7425,921;  193,166;33430,785;21,76075
 834,38; 7401,051;  191,012;33459,661;21,67217
 834,95; 7431,797;  182,242;33288,767;21,89766
 835,51; 7426,543;  159,934;33178,258;22,00781
 836,07; 7469,981;  208,857;33126,749;22,05829
 836,63; 7515,111;  219,933;33182,471;22,13172
 837,19; 7451,626;  200,472;33054,885;22,07057
 837,75; 7394,526;  175,702;32831,684;22,10567
 838,32; 7496,810;  233,163;32805,021;22,30038
 838,88; 7535,864;  208,086;32879,974;22,42839
 839,44; 7530,379;  204,547;32835,311;22,45069
 840,00; 7470,971;  196,008;32711,649;22,37373
 840,56; 7450,178;  187,008;32406,370;22,54287
 841,12; 7467,385;  192,931;32423,169;22,57028
 841,68; 7429,746;  178,623;32247,353;22,61120
 842,25; 7456,108;  196,392;32285,921;22,62332
 842,81; 7489,930;  175,468;32000,643;22,98326
 843,37; 7489,599;  175,391;32049,980;22,94683
 843,93; 7496,345;  190,237;31899,163;23,04117
 844,49; 7589,398;  199,160;31924,962;23,29410
 845,05; 7494,529;  170,159;31752,222;23,19155
 845,61; 7579,967;  196,928;31819,329;23,34750
 846,17; 7531,944;  182,928;31693,051;23,32271
 846,73; 7558,612;  201,543;31660,157;23,38650
 847,29; 7509,204;  166,389;31376,571;23,52699
 847,86; 7475,258;  189,311;31471,293;23,29119
 848,42; 7468,080;  185,003;31231,323;23,45875
 848,98; 7508,211;  199,003;31167,122;23,60236
 849,54; 7484,034;  189,080;31192,151;23,52978
 850,10; 7487,549;  192,002;31075,950;23,62245
 850,66; 7465,833;  178,541;30952,133;23,68034
 851,22; 7454,117;  174,463;30881,240;23,70699
 851,78; 7488,863;  217,386;30775,423;23,79563
 852,34; 7415,686;  188,463;30672,991;23,70784
 852,90; 7429,739;  195,462;30472,098;23,89393
 853,46; 7404,485;  186,001;30447,820;23,85344
 854,02; 7420,923;  190,539;30376,080;23,95314
 854,58; 7412,284;  195,461;30142,340;24,09875
 855,14; 7406,338;  179,538;30039,293;24,20247
 855,70; 7370,006;  159,307;29848,553;24,28724
 856,26; 7428,906;  214,845;29829,275;24,35995
 856,82; 7381,729;  176,229;29632,305;24,46184
 857,38; 7401,398;  213,460;29555,565;24,49701
 857,94; 7405,836;  193,229;29523,748;24,59079
 858,50; 7415,120;  197,228;29334,701;24,77185
 859,06; 7396,866;  184,843;29214,038;24,84403
 859,62; 7385,458;  202,305;29092,376;24,86374
 860,18; 7342,511;  195,535;29018,405;24,79620
 860,74; 7332,872;  165,535;28836,666;24,99845
 861,30; 7293,849;  170,073;28620,926;25,03888
 861,86; 7378,749;  211,688;28730,417;25,13107
 862,42; 7303,033;  191,380;28475,831;25,14333
 862,98; 7322,009;  217,303;28471,707;25,14548
 863,54; 7311,447;  191,302;28284,813;25,34445
 864,10; 7341,962;  187,456;28354,689;25,40010
 864,66; 7255,477;  177,686;28122,949;25,32734
 865,22; 7247,300;  191,378;28028,287;25,34736
 865,78; 7242,123;  201,609;27833,932;25,47927
 866,34; 7199,946;  185,070;27786,423;25,41497
 866,90; 7196,384;  200,531;27757,683;25,38670
 867,45; 7154,053;  196,069;27478,097;25,50391
 868,01; 7128,721;  197,300;27422,434;25,45964
 868,57; 7111,698;  195,761;27147,156;25,66078
 869,13; 7031,290;  172,914;26985,186;25,57924
 869,69; 7054,882;  190,068;26880,523;25,72011
 870,25; 7053,089;  183,837;26807,937;25,80088
 870,81; 7054,681;  188,606;26822,582;25,77938
 871,37; 7086,350;  207,144;26708,766;25,95768
 871,93; 7063,326;  208,528;26547,949;26,02486
 872,49; 7070,841;  205,143;26366,825;26,24334
 873,04; 6992,741;  190,297;26172,470;26,18120
 873,60; 6970,410;  183,835;26067,115;26,21992
 874,16; 6975,694;  206,681;26004,837;26,23836
 874,72; 7013,156;  174,527;25912,913;26,56977
 875,28; 7048,233;  199,142;25949,298;26,59825
 875,84; 6981,848;  187,681;25809,067;26,51756
 876,40; 6986,233;  189,988;25718,298;26,62238
 876,95; 7031,694;  199,219;25729,913;26,76181
 877,51; 7074,694;  219,065;25743,067;26,85954
 878,07; 7119,002;  229,758;25741,144;27,00459
 878,63; 7127,617;  189,142;25670,144;27,22999
 879,19; 7126,233;  207,527;25682,221;27,15913
 879,75; 7152,002;  196,527;25680,837;27,29317
 880,30; 7190,079;  192,604;25741,298;27,38878
 880,86; 7298,617;  231,604;25824,452;27,61324
 881,42; 7253,617;  175,835;25867,606;27,54883
 881,98; 7287,617;  197,142;25967,683;27,51388
 882,54; 7379,617;  185,527;26060,683;27,80308
 883,09; 7407,002;  200,988;26136,375;27,78448
 883,65; 7435,233;  181,296;26253,067;27,82295
 884,21; 7541,233;  220,604;26443,298;27,91715
 884,77; 7525,771;  187,681;26443,529;27,94840
 885,32; 7562,002;  197,835;26623,144;27,86786
 885,88; 7643,617;  224,142;26729,221;27,99265
 886,44; 7658,463;  200,527;26781,452;28,05748
 887,00; 7668,233;  206,450;26781,683;28,07796
 887,56; 7698,463;  204,758;26950,452;28,01836
 888,11; 7715,771;  198,758;26875,529;28,17812
 888,67; 7824,387;  227,219;27192,837;28,17353
 889,23; 7853,694;  211,988;27134,529;28,38404
 889,79; 7764,771;  177,142;26959,913;28,33026
 890,34; 7825,463;  197,373;26890,144;28,57736
 890,90; 7921,387;  261,835;26991,067;28,65609
 891,46; 7867,310;  189,450;26957,837;28,68256
 892,01; 7905,540;  215,912;26927,452;28,78767
 892,57; 7907,463;  233,065;26787,529;28,90060
 893,13; 7849,079;  204,296;26687,837;28,86617
 893,69; 7832,771;  196,604;26742,837;28,76554
 894,24; 7765,617;  208,142;26558,144;28,68112
 894,80; 7841,540;  207,527;26352,606;29,19866
 895,36; 7800,540;  214,142;26334,375;29,04414
 895,91; 7708,617;  201,296;26085,298;29,00371
 896,47; 7711,387;  214,681;26019,760;29,05128
 897,03; 7676,233;  190,142;25808,144;29,22199
 897,58; 7588,848;  204,604;25710,452;28,95118
 898,14; 7643,079;  209,450;25562,606;29,32033
 898,70; 7592,156;  183,988;25405,683;29,37220
 899,25; 7542,617;  206,988;25479,067;29,02661
 899,81; 7551,079;  226,219;25196,990;29,33373
 900,37; 7497,387;  180,912;24989,837;29,49130
 900,92; 7546,540;  201,296;25014,760;29,60185
 901,48; 7460,387;  195,296;24905,837;29,40078
 902,03; 7439,387;  188,450;24770,452;29,49693
 902,59; 7433,156;  191,758;24677,375;29,57409
 903,15; 7444,387;  209,604;24532,913;29,74424
 903,70; 7368,310;  209,604;24308,452;29,70559
 904,26; 7361,233;  186,604;24260,452;29,80258
 904,82; 7390,002;  206,527;24168,837;29,97822
 905,37; 7309,848;  211,065;23999,913;29,84080
 905,93; 7342,694;  195,219;23948,837;30,09005
 906,48; 7323,617;  214,373;23861,760;30,06355
 907,04; 7352,233;  215,912;23793,913;30,26686
 907,60; 7335,540;  196,065;23571,452;30,54270
 908,15; 7280,617;  191,065;23422,144;30,51753
 908,71; 7263,925;  223,219;23390,298;30,39099
 909,26; 7246,694;  186,988;23283,067;30,56669
 909,82; 7200,310;  218,604;23088,760;30,52758
 910,37; 7234,848;  228,065;22987,837;30,78582
 910,93; 7149,694;  189,758;22826,529;30,74615
 911,48; 7098,463;  182,450;22725,760;30,67878
 912,04; 7071,002;  189,450;22628,913;30,66719
 912,60; 7114,233;  201,758;22711,606;30,70867
 913,15; 7054,617;  206,219;22436,529;30,80658
 913,71; 6985,387;  193,912;22300,760;30,72114
 914,26; 6992,540;  184,527;22214,067;30,90402
 914,82; 6984,540;  205,296;22088,683;30,97895
 915,37; 6966,540;  186,527;22002,221;31,07861
 915,93; 6937,771;  231,681;21942,683;30,88798
 916,48; 6867,387;  200,142;21836,221;30,81540
 917,04; 6883,540;  205,912;21692,298;31,07842
 917,59; 6884,233;  228,142;21680,298;31,02761
 918,15; 6774,925;  167,912;21509,221;30,95880
 918,70; 6772,617;  196,373;21388,067;31,03218
 919,26; 6728,310;  203,527;21271,452;30,97022
 919,81; 6685,387;  181,219;21161,606;31,00118
 920,37; 6694,617;  196,296;21054,760;31,15436
 920,92; 6696,848;  210,450;20993,067;31,21069
 921,48; 6628,463;  187,450;20769,375;31,29451
 922,03; 6608,079;  181,604;20754,837;31,23707
 922,59; 6586,540;  189,373;20638,221;31,28375
 923,14; 6544,925;  188,988;20487,221;31,31276
 923,69; 6579,156;  218,527;20450,298;31,43881
 924,25; 6571,463;  212,681;20397,452;31,50287
 924,80; 6535,694;  203,758;20279,144;31,54080
 925,36; 6509,771;  190,604;20144,837;31,66831
 925,91; 6519,694;  198,373;20036,683;31,86421
 926,47; 6466,233;  182,681;19981,760;31,73659
 927,02; 6541,079;  236,527;19892,990;32,07368
 927,57; 6451,694;  197,450;19766,606;31,95970
 928,13; 6445,156;  187,527;19635,298;32,17659
 928,68; 6497,233;  196,758;19562,683;32,53382
 929,24; 6401,233;  165,604;19332,760;32,53289
 929,79; 6419,002;  189,450;19374,144;32,47147
 930,34; 6379,310;  200,604;19219,067;32,48793
 930,90; 6364,233;  178,065;19171,683;32,56972
 931,45; 6387,540;  212,065;19131,990;32,64006
 932,01; 6338,540;  203,373;18981,375;32,67210
 932,56; 6306,540;  206,604;18829,529;32,75499
 933,11; 6351,233;  219,604;18883,837;32,85230
 933,67; 6257,002;  190,142;18662,760;32,84245
 934,22; 6215,848;  202,142;18576,606;32,72861
 934,77; 6200,540;  219,450;18450,144;32,80780
 935,33; 6143,617;  212,681;18364,990;32,67318
 935,88; 6126,387;  216,219;18292,913;32,69496
 936,43; 6112,540;  183,373;18178,529;32,94869
 936,99; 6074,694;  198,527;18078,760;32,86404
 937,54; 6067,925;  184,604;17930,760;33,15265
 938,09; 6056,925;  204,681;17895,760;33,08020
 938,65; 6067,848;  203,758;17768,683;33,38523
 939,20; 5999,387;  192,912;17668,529;33,22615
 939,75; 5989,310;  183,450;17611,683;33,31296
 940,31; 5956,848;  177,219;17523,298;33,31951
 940,86; 5965,156;  202,450;17448,529;33,41459
 941,41; 5969,771;  259,758;17371,452;33,36907
 941,96; 5914,233;  192,296;17291,067;33,46402
 942,52; 5880,771;  192,681;17197,221;33,45042
 943,07; 5820,617;  173,758;17022,529;33,51496
 943,62; 5805,079;  195,758;16975,452;33,42922
 944,18; 5794,079;  178,373;16942,221;33,49891
 944,73; 5749,617;  195,988;16850,221;33,34665
 945,28; 5723,771;  162,219;16678,837;33,67246
 945,83; 5709,925;  189,912;16652,529;33,53059
 946,39; 5717,387;  188,219;16654,529;33,57867
 946,94; 5706,463;  210,219;16546,990;33,64339
 947,49; 5649,310;  192,912;16355,683;33,75905
 948,04; 5723,387;  213,988;16382,837;34,07415
 948,59; 5637,617;  217,373;16321,990;33,65646
 949,15; 5616,694;  174,373;16220,144;33,91748
 949,70; 5627,925;  196,604;16162,529;34,01821
 950,25; 5590,002;  212,296;16074,683;33,90225
 950,80; 5581,079;  168,065;15965,683;34,26475
 951,36; 5567,233;  163,604;15866,298;34,41211
 951,91; 5620,156;  196,527;15937,990;34,45441
 952,46; 5526,002;  169,681;15675,298;34,54439
 953,01; 5586,310;  204,681;15721,606;34,68232
 953,56; 5513,925;  171,758;15519,529;34,80745
 954,11; 5518,848;  200,065;15497,837;34,76835
 954,67; 5542,463;  194,604;15418,298;35,12853
 955,22; 5472,617;  177,450;15336,837;34,92996
 955,77; 5515,387;  213,988;15372,606;34,97283
 956,32; 5535,848;  237,450;15165,990;35,49174
 956,87; 5426,156;  177,835;15115,606;35,13457
 957,42; 5449,848;  190,373;15019,760;35,46657
 957,98; 5426,848;  185,758;14944,683;35,51133
 958,53; 5414,002;  209,681;14911,452;35,39928
 959,08; 5339,387;  188,681;14761,298;35,34510
 959,63; 5305,310;  183,988;14712,913;35,24914
 960,18; 5333,925;  204,758;14648,529;35,51128
 960,73; 5307,079;  197,219;14620,452;35,42798
 961,28; 5272,233;  162,604;14516,221;35,59820
 961,83; 5287,079;  212,065;14468,529;35,59798
 962,39; 5226,463;  170,527;14320,760;35,73041
 962,94; 5236,156;  208,373;14261,606;35,77670
 963,49; 5181,540;  193,373;14064,606;35,96052
 964,04; 5179,156;  205,219;14101,837;35,79243
 964,59; 5123,771;  167,835;13950,452;35,95788
 965,14; 5157,463;  204,065;13914,298;36,12921
 965,69; 5120,310;  190,681;13818,375;36,17361
 966,24; 5057,540;  185,065;13732,760;35,96535
 966,79; 5121,310;  198,296;13657,221;36,57806
 967,34; 5026,925;  172,681;13516,913;36,37710
 967,89; 5022,925;  181,527;13465,452;36,44554
 968,44; 5026,848;  191,527;13384,221;36,65151
 968,99; 4973,617;  200,450;13406,990;36,14245
 969,55; 4969,310;  198,142;13242,144;36,57748
 970,10; 4956,156;  195,604;13172,606;36,68453
 970,65; 4968,848;  206,988;13092,221;36,95595
 971,20; 4887,310;  183,296;12931,913;36,89822
 971,75; 4852,079;  170,758;12815,683;37,02134
 972,30; 4876,771;  194,065;12817,144;37,09638
 972,85; 4835,771;  186,758;12681,067;37,20905
 973,40; 4795,617;  183,450;12642,760;37,01784
 973,95; 4801,233;  198,142;12550,683;37,26432
 974,50; 4768,387;  215,988;12480,683;37,11791
 975,05; 4716,771;  207,988;12393,606;37,00086
 975,60; 4729,002;  203,527;12316,298;37,36119
 976,15; 4663,233;  188,912;12217,913;37,19611
 976,70; 4654,310;  201,219;12141,375;37,29508
 977,25; 4650,925;  203,835;12047,760;37,54744
 977,80; 4585,233;  193,681;11947,837;37,36170
 978,35; 4573,848;  204,681;11800,837;37,67772
 978,89; 4521,617;  179,065;11732,990;37,58508
 979,44; 4565,463;  194,988;11782,452;37,71727
 979,99; 4478,694;  188,681;11583,683;37,64820
 980,54; 4480,079;  215,758;11494,606;37,80813
 981,09; 4425,079;  207,988;11429,221;37,58135
 981,64; 4383,387;  210,527;11337,837;37,50107
 982,19; 4406,771;  230,450;11234,606;37,95222
 982,74; 4343,156;  215,219;11126,067;37,83332
 983,29; 4290,079;  187,065;10984,606;37,99952
 983,84; 4269,540;  206,296;10970,990;37,74603
 984,39; 4343,848;  240,681;10901,606;38,48791
 984,94; 4189,463;  180,604;10728,298;38,00698
 985,49; 4203,617;  222,758;10684,375;38,05205
 986,03; 4157,463;  223,219;10548,067;38,10462
 986,58; 4149,617;  235,296;10449,837;38,32107
 987,13; 4094,156;  199,527;10346,452;38,38236
 987,68; 4062,771;  203,142;10294,452;38,24706
 988,23; 4042,002;  221,604;10229,760;38,17285
 988,78; 3964,079;  195,450;10102,452;38,04005
 989,33; 3920,617;  214,527;10005,990;37,85022
 989,88; 3942,387;  221,450; 9953,990;38,23191
 990,42; 3899,002;  202,758; 9835,221;38,37278
 990,97; 3841,079;  201,450; 9690,375;38,35660
 991,52; 3867,694;  223,527; 9655,144;38,63778
 992,07; 3841,233;  219,604; 9549,683;38,81670
 992,62; 3756,848;  213,527; 9398,760;38,57628
 993,17; 3750,463;  219,988; 9364,837;38,60616
 993,71; 3711,848;  217,604; 9279,606;38,55930
 994,26; 3680,310;  192,758; 9126,375;39,03852
 994,81; 3699,387;  221,604; 9108,913;39,13201
 995,36; 3630,002;  201,835; 8933,144;39,26292
 995,91; 3617,002;  216,373; 8857,529;39,35387
 996,45; 3585,540;  200,758; 8812,375;39,30484
 997,00; 3542,233;  184,065; 8698,221;39,44216
 997,55; 3550,310;  215,142; 8617,452;39,69346
 998,10; 3530,771;  234,758; 8514,067;39,81025
 998,65; 3501,002;  209,681; 8465,606;39,86617
 999,19; 3494,156;  215,912; 8388,452;40,11292
 999,74; 3448,925;  236,912; 8225,529;40,20738
1000,29; 3424,156;  217,758; 8214,606;40,09577
1000,84; 3334,002;  197,527; 8051,298;39,93591
1001,38; 3339,310;  205,912; 7977,452;40,31888
1001,93; 3328,463;  217,296; 7896,452;40,51444
1002,48; 3249,617;  195,527; 7815,913;40,07789
1003,03; 3251,310;  201,758; 7778,144;40,25074
1003,57; 3213,233;  220,142; 7662,913;40,21473
1004,12; 3245,540;  236,604; 7564,529;41,06124
1004,67; 3174,156;  201,681; 7504,298;40,70424
1005,22; 3117,771;  193,758; 7317,452;41,04631
1005,76; 3077,463;  192,219; 7201,529;41,16303
1006,31; 3077,387;  222,527; 7200,144;40,91453
1006,86; 2983,002;  203,219; 7095,529;40,33166
1007,40; 2941,463;  185,835; 6930,529;40,85625
1007,95; 2926,310;  196,450; 6899,683;40,72452
1008,50; 2848,233;  211,065; 6754,760;40,30089
1009,04; 2816,925;  208,142; 6714,683;40,09477
1009,59; 2799,848;  212,681; 6591,990;40,55560
1010,14; 2749,925;  204,219; 6472,837;40,61032
1010,68; 2720,694;  207,065; 6370,990;40,77968
1011,23; 2665,925;  190,373; 6266,452;40,74259
1011,78; 2670,540;  218,373; 6234,913;40,75710
1012,32; 2639,079;  207,988; 6075,529;41,43287
1012,87; 2636,540;  231,988; 6102,606;40,95910
1013,42; 2559,387;  196,450; 5988,760;40,79438
1013,96; 2619,771;  232,681; 5974,067;41,57690
1014,51; 2521,540;  169,604; 5922,837;40,88026
1015,06; 2530,540;  178,373; 5902,913;41,08919
1015,60; 2618,233;  248,296; 6007,606;41,14966
1016,15; 2553,387;  191,142; 5913,298;41,28242
1016,69; 2584,771;  203,681; 5929,298;41,58661
1017,24; 2589,079;  181,835; 5934,298;41,84719
1017,79; 2663,540;  222,450; 5968,913;42,47987
1018,33; 2651,771;  191,527; 5983,144;42,47940
1018,88; 2675,463;  212,296; 6030,760;42,33364
1019,42; 2677,617;  200,604; 5989,837;42,78656
1019,97; 2686,848;  205,065; 5993,913;42,87179
1020,51; 2732,694;  218,681; 6029,606;43,26357
1021,06; 2680,617;  183,912; 6008,837;42,86245
1021,61; 2674,387;  172,912; 5999,760;42,93016
1022,15; 2658,387;  163,527; 5969,683;42,96922
1022,70; 2698,463;  198,065; 5947,144;43,49215
1023,24; 2661,694;  191,912; 5912,837;43,17104
1023,79; 2629,617;  201,450; 5865,067;42,87308
1024,33; 2625,540;  192,988; 5793,529;43,43424
1024,88; 2601,310;  210,604; 5706,990;43,49595
1025,42; 2553,079;  198,450; 5620,837;43,42422
1025,97; 2539,540;  196,450; 5548,606;43,77844
1026,51; 2459,233;  162,450; 5439,375;43,52502
1027,06; 2452,310;  190,296; 5391,760;43,48802
1027,60; 2430,233;  208,758; 5274,067;43,85665
1028,15; 2387,002;  216,219; 5240,375;43,20691
1028,69; 2316,310;  170,142; 5132,144;43,25205
1029,24; 2329,079;  194,219; 5031,375;44,13461
1029,78; 2270,387;  179,527; 4947,837;43,84907
1030,33; 2223,079;  172,681; 4896,221;43,40808
1030,87; 2217,387;  190,373; 4847,606;43,52399
1031,42; 2181,079;  172,219; 4719,760;44,17464
1031,96; 2166,387;  205,912; 4741,606;43,22326
1032,51; 2125,310;  182,296; 4593,375;44,04849
1033,05; 2117,848;  196,142; 4588,144;43,75467
1033,60; 2058,540;  162,373; 4434,990;44,37953
1034,14; 2036,694;  179,373; 4380,760;44,20734
1034,69; 2036,694;  193,296; 4353,452;44,31079
1035,23; 2006,463;  191,065; 4271,606;44,48916
1035,77; 1979,771;  193,835; 4221,606;44,34057
1036,32; 1933,310;  169,296; 4142,606;44,39658
1036,86; 1947,694;  191,988; 4145,298;44,41104
1037,41; 1900,156;  205,373; 4039,375;44,20401
1037,95; 1853,617;  171,835; 3953,913;44,46715
1038,50; 1846,925;  183,142; 3937,375;44,31752
1039,04; 1853,156;  200,219; 3889,606;44,80248
1039,58; 1798,463;  164,835; 3805,683;44,86946
1040,13; 1786,002;  184,142; 3773,837;44,62385
1040,67; 1814,233;  209,912; 3734,452;45,51859
1041,21; 1789,079;  210,142; 3653,375;45,85623
1041,76; 1724,694;  179,681; 3625,837;44,83295
1042,30; 1720,848;  189,065; 3545,221;45,64099
1042,85; 1676,233;  188,065; 3515,375;44,72584
1043,39; 1655,233;  179,065; 3429,837;45,40976
1043,93; 1673,694;  210,219; 3417,760;45,62608
1044,48; 1634,002;  199,835; 3351,375;45,50687
1045,02; 1593,925;  190,604; 3281,683;45,39907
1045,56; 1623,156;  204,065; 3262,375;46,40114
1046,11; 1570,079;  194,527; 3205,913;45,67836
1046,65; 1541,848;  191,835; 3162,606;45,44320
1047,19; 1514,463;  186,450; 3102,837;45,53626
1047,74; 1471,002;  170,373; 3079,067;44,71521
1048,28; 1489,617;  189,604; 3036,913;45,65761
1048,82; 1497,463;  216,835; 3023,298;45,63141
1049,37; 1465,694;  202,065; 2977,221;45,53362
1049,91; 1453,617;  190,450; 2927,683;46,14760
1050,45; 1440,540;  207,373; 2887,221;46,01631
1050,99; 1416,002;  189,681; 2852,298;46,05698
1051,54; 1379,694;  188,758; 2789,990;45,78354
1052,08; 1398,233;  214,142; 2752,529;46,64736
1052,62; 1373,156;  205,912; 2716,298;46,49659
1053,16; 1323,771;  189,219; 2663,760;45,84900
1053,71; 1330,771;  201,450; 2650,990;46,10339
1054,25; 1321,463;  210,604; 2592,990;46,62802
1054,79; 1308,925;  211,527; 2542,067;47,08771
1055,33; 1243,694;  181,912; 2501,913;45,76646
1055,88; 1258,310;  210,912; 2482,913;46,10023
1056,42; 1257,387;  225,835; 2459,144;46,18938
1056,96; 1234,617;  213,912; 2418,990;46,28886
1057,50; 1220,463;  203,296; 2388,529;46,54732
1058,05; 1203,387;  203,373; 2325,221;47,12936
1058,59; 1208,002;  214,988; 2311,913;47,35570
1059,13; 1142,310;  184,450; 2250,375;46,36468
1059,67; 1178,848;  211,912; 2245,221;47,55481
1060,21; 1138,310;  205,988; 2198,837;46,78335
1060,76; 1152,156;  208,912; 2195,298;47,48543
1061,30; 1136,771;  224,065; 2166,221;46,99447
1061,84; 1117,002;  197,373; 2127,913;47,63583
1062,38; 1082,694;  187,681; 2067,683;47,60705
1062,92; 1129,310;  236,758; 2087,760;48,21993
1063,46; 1074,771;  221,604; 2040,375;46,90900
1064,01; 1064,694;  206,373; 2007,529;47,65391
1064,55; 1042,156;  211,219; 1985,452;46,83357
1065,09; 1006,771;  178,527; 1917,683;47,62335
1065,63; 1024,771;  237,681; 1973,913;45,33323
1066,17; 1039,925;  230,604; 1929,529;47,63725
1066,71; 1016,463;  228,988; 1899,760;47,13243
1067,25;  970,079;  205,450; 1863,144;46,12605
1067,80;  989,079;  218,065; 1849,221;47,26792
1068,34;  984,694;  228,681; 1856,067;46,45568
1068,88;  931,463;  209,912; 1779,298;45,97669
1069,42;  969,617;  225,527; 1805,221;47,10344
1069,96;  935,463;  208,373; 1755,683;46,99062
1070,50;  942,233;  236,219; 1752,529;46,56130
1071,04;  907,002;  195,988; 1700,221;47,26752
1071,58;  896,310;  202,758; 1694,683;46,48705
1072,12;  893,002;  196,912; 1664,683;47,42499
1072,66;  886,540;  196,681; 1656,837;47,24562
1073,21;  910,002;  219,450; 1653,990;48,13750
1073,75;  884,156;  223,912; 1606,683;47,74790
1074,29;  876,771;  228,065; 1601,683;47,22609
1074,83;  887,540;  229,219; 1583,452;48,61212
1075,37;  880,463;  231,065; 1559,606;48,88057
1075,91;  860,694;  230,142; 1550,067;47,77180
1076,45;  849,848;  217,912; 1519,144;48,56445
1076,99;  840,079;  225,450; 1500,760;48,19448
1077,53;  803,079;  202,912; 1490,913;46,59677
1078,07;  812,463;  214,835; 1481,683;47,17447
1078,61;  802,233;  213,142; 1458,606;47,29889
1079,15;  787,233;  207,681; 1419,144;47,83899
1079,69;  798,002;  208,296; 1424,990;48,46787
1080,23;  798,925;  230,988; 1413,760;48,01745
1080,77;  833,925;  245,604; 1413,760;50,36325
1081,31;  772,002;  204,758; 1351,913;49,44788
1081,85;  781,002;  225,142; 1354,452;49,22119
1082,39;  740,387;  201,758; 1340,375;47,30552
1082,93;  749,771;  214,988; 1322,606;48,28226
1083,47;  734,310;  196,758; 1280,760;49,58957
1084,01;  733,771;  230,296; 1305,606;46,82140
1084,55;  730,694;  205,065; 1266,837;49,50491
1085,09;  742,848;  222,604; 1277,067;49,33734
1085,63;  734,925;  225,527; 1236,990;50,36248
1086,17;  696,310;  208,373; 1242,144;47,19967
1086,71;  704,233;  212,296; 1212,606;49,17843
1087,24;  717,925;  227,527; 1220,221;49,40072
1087,78;  716,310;  225,219; 1196,452;50,56362
1088,32;  686,387;  205,527; 1174,990;49,60059
1088,86;  696,156;  236,450; 1189,375;48,24155
1089,40;  693,387;  215,296; 1155,067;50,87306
1089,94;  651,925;  190,835; 1110,606;50,13099
1090,48;  657,617;  223,912; 1137,606;47,46728
1091,02;  668,233;  229,604; 1114,452;49,57109
1091,56;  648,540;  216,604; 1115,375;48,05857
1092,10;  624,002;  199,604; 1081,375;48,13018
1092,63;  661,540;  237,988; 1115,913;48,24466
1093,17;  639,310;  218,219; 1071,913;49,32567
1093,71;  607,233;  201,912; 1049,375;47,82757
1094,25;  639,002;  229,604; 1056,375;49,51770
1094,79;  621,387;  220,142; 1041,529;48,84962
1095,33;  616,925;  217,373; 1013,298;50,19970
1095,87;  606,848;  212,912; 1008,221;49,53248
1096,40;  584,233;  203,527;  978,606;49,11833
1096,94;  600,771;  224,988;  976,837;49,98120
1097,48;  609,694;  214,065;  965,144;52,67474
1098,02;  569,694;  212,912;  961,067;47,68829
1098,56;  548,540;  190,835;  918,683;49,14566
1099,10;  553,079;  188,527;  904,529;50,91494
1099,63;  549,310;  190,604;  898,837;50,64801
1100,17;  574,079;  209,142;  930,760;50,57203
1100,71;  593,694;  225,142;  925,067;52,65592

