
Integration time [ms]: 160,000
Averaging Nr. [scans]: 13
Smoothing Nr. [pixels]: 0
Data measured with spectrometer [name]: 2009305U1
Wave   ;Sample   ;Dark     ;Reference;Reflectance
[nm]   ;[counts] ;[counts] ;[counts] ;[%]

 175,72;  222,071;  211,495;  220,903;112,40961
 176,32;  242,767;  239,266;  234,681; 0,00000
 176,92;  278,953;  272,880;  278,464;108,75347
 177,52;  282,934;  261,034;  277,765;130,89414
 178,12;  262,089;  246,728;  239,441; 0,00000
 178,72;  280,438;  280,728;  259,868; 0,00000
 179,32;  283,297;  264,958;  256,710; 0,00000
 179,92;  282,673;  263,342;  268,977;343,06890
 180,52;  264,084;  259,879;  273,789;30,22828
 181,12;  276,684;  277,881;  256,017; 0,00000
 181,73;  296,506;  280,188;  289,375;177,62652
 182,33;  406,233;  394,264;  386,146; 0,00000
 182,93;  293,285;  288,188;  294,880;76,17148
 183,53;  262,853;  249,497;  239,413; 0,00000
 184,13;  248,721;  254,420;  244,570; 0,00000
 184,73;  316,018;  298,267;  300,295;875,08620
 185,33;  277,163;  255,507;  366,926;19,43653
 185,93;  269,696;  249,508;  376,315;15,92086
 186,53;  292,987;  254,199;  407,611;25,28346
 187,13;  313,662;  292,198;  434,377;15,09636
 187,73;  284,320;  255,584;  389,711;21,42416
 188,33;  279,304;  254,739;  382,838;19,17668
 188,93;  280,811;  262,972;  407,196;12,36925
 189,53;  295,573;  261,127;  411,282;22,94057
 190,13;  332,963;  301,206;  452,201;21,03144
 190,73;  263,832;  234,974;  381,637;19,67664
 191,34;  309,476;  263,511;  421,861;29,02778
 191,94;  288,214;  251,278;  383,915;27,84724
 192,54;  285,859;  269,043;  407,504;12,14470
 193,14;  289,951;  277,121;  406,597; 9,90860
 193,74;  305,629;  274,891;  414,642;21,99517
 194,34;  299,362;  267,429;  394,312;25,16780
 194,94;  266,995;  239,352;  369,250;21,28006
 195,54;  234,860;  219,506;  349,176;11,84070
 196,14;  257,527;  240,967;  384,854;11,50909
 196,74;  256,448;  243,045;  363,077;11,16643
 197,34;  248,109;  217,889;  356,094;21,86576
 197,94;  263,173;  241,044;  380,589;15,85777
 198,54;  277,134;  257,890;  399,498;13,58973
 199,14;  260,188;  218,351;  403,167;22,63747
 199,74;  238,837;  212,427;  383,975;15,39467
 200,34;  228,606;  212,273;  393,938; 8,99031
 200,94;  276,213;  243,813;  436,072;16,85261
 201,54;  245,114;  229,351;  435,693; 7,63949
 202,14;  292,476;  262,812;  492,471;12,91681
 202,74;  251,438;  226,658;  463,599;10,45832
 203,34;  229,627;  200,965;  486,334;10,04386
 203,94;  215,564;  175,581;  465,511;13,79069
 204,54;  285,467;  254,583;  559,330;10,13433
 205,14;  234,180;  204,274;  563,349; 8,32871
 205,74;  288,561;  259,503;  662,948; 7,20238
 206,34;  241,820;  213,350;  676,769; 6,14339
 206,94;  251,710;  221,966;  723,536; 5,93024
 207,54;  222,883;  191,965;  735,008; 5,69337
 208,14;  249,259;  211,042;  834,001; 6,13474
 208,74;  236,012;  225,581;  894,589; 1,55919
 209,34;  243,842;  210,966;  953,918; 4,42507
 209,94;  260,460;  224,350; 1042,023; 4,41615
 210,54;  258,377;  208,581; 1146,590; 5,30875
 211,14;  280,010;  220,581; 1233,561; 5,86669
 211,73;  271,436;  230,120; 1354,567; 3,67431
 212,33;  283,873;  232,966; 1441,495; 4,21225
 212,93;  279,254;  217,889; 1521,973; 4,70561
 213,53;  249,045;  183,197; 1578,704; 4,71862
 214,13;  278,382;  221,041; 1675,848; 3,94146
 214,73;  254,092;  199,119; 1679,856; 3,71250
 215,33;  236,768;  186,735; 1701,869; 3,30220
 215,93;  278,786;  212,427; 1819,005; 4,13050
 216,53;  240,257;  179,043; 1865,616; 3,62949
 217,13;  292,171;  222,504; 2071,888; 3,76706
 217,73;  277,391;  203,042; 2248,929; 3,63406
 218,33;  248,519;  171,964; 2388,716; 3,45348
 218,93;  297,914;  214,117; 2693,654; 3,37954
 219,53;  299,783;  203,734; 2934,601; 3,51718
 220,13;  269,316;  169,272; 3204,123; 3,29651
 220,73;  321,680;  193,427; 3549,946; 3,82100
 221,32;  323,628;  193,120; 3911,204; 3,51009
 221,92;  346,824;  212,426; 4258,343; 3,32183
 222,52;  336,635;  180,426; 4647,766; 3,49668
 223,12;  368,042;  191,965; 5076,883; 3,60450
 223,72;  388,767;  205,503; 5445,460; 3,49743
 224,32;  406,344;  200,734; 5797,980; 3,67341
 224,92;  383,020;  186,734; 6133,730; 3,30059
 225,52;  441,974;  211,043; 6466,344; 3,69177
 226,12;  449,053;  191,657; 6804,032; 3,89263
 226,72;  434,468;  166,965; 7141,233; 3,83557
 227,31;  432,990;  169,965; 7450,059; 3,61293
 227,91;  497,570;  205,889; 7848,563; 3,81648
 228,51;  487,917;  188,966; 8248,958; 3,70906
 229,11;  539,070;  193,888; 8638,165; 4,08775
 229,71;  538,436;  189,351; 8929,915; 3,99385
 230,31;  536,091;  169,349; 9275,714; 4,02731
 230,91;  568,458;  172,813; 9541,290; 4,22315
 231,51;  608,759;  175,273; 9866,910; 4,47279
 232,10;  625,074;  180,887;10214,043; 4,42719
 232,70;  658,055;  196,275;10365,850; 4,54080
 233,30;  726,534;  220,888;10585,581; 4,87854
 233,90;  736,671;  181,657;10679,870; 5,28674
 234,50;  750,904;  199,427;10768,861; 5,21767
 235,10;  792,558;  191,503;10873,807; 5,62664
 235,70;  870,067;  210,735;10830,553; 6,20851
 236,29;  864,015;  200,120;10712,540; 6,31534
 236,89;  861,736;  185,582;10549,474; 6,52413
 237,49;  914,506;  209,273;10449,368; 6,88698
 238,09;  933,820;  189,273;10173,846; 7,45697
 238,69; 1000,791;  244,352; 9879,585; 7,85076
 239,29;  977,424;  192,966; 9618,806; 8,32243
 239,89;  987,060;  199,813; 9276,493; 8,67329
 240,48;  991,803;  183,735; 8770,288; 9,41086
 241,08;  999,078;  197,966; 8459,440; 9,69697
 241,68; 1039,894;  200,504; 8144,664;10,56613
 242,28; 1012,520;  182,734; 7805,359;10,88582
 242,88; 1088,877;  221,503; 7526,887;11,87307
 243,48; 1072,473;  225,350; 7209,637;12,12899
 244,07; 1060,861;  206,196; 6967,006;12,64145
 244,67; 1081,248;  209,658; 6874,848;13,07675
 245,27; 1086,590;  203,582; 6645,336;13,70757
 245,87; 1112,558;  219,349; 6643,001;13,90500
 246,47; 1123,606;  208,735; 6568,509;14,38527
 247,06; 1123,647;  196,350; 6579,142;14,52807
 247,66; 1142,550;  185,504; 6603,212;14,91259
 248,26; 1213,378;  214,043; 6758,501;15,26994
 248,86; 1249,057;  213,582; 6942,433;15,38859
 249,46; 1239,726;  165,196; 7133,256;15,42079
 250,05; 1328,660;  205,658; 7497,287;15,40126
 250,65; 1372,194;  180,736; 7809,757;15,61745
 251,25; 1440,943;  184,735; 8215,487;15,64248
 251,85; 1500,112;  190,044; 8783,503;15,24495
 252,44; 1558,073;  162,197; 9374,493;15,15232
 253,04; 1687,603;  199,658;10076,254;15,06536
 253,64; 1754,406;  165,582;10743,900;15,01963
 254,24; 1886,627;  213,350;11677,479;14,59576
 254,84; 1986,418;  188,427;12516,102;14,58500
 255,43; 2066,762;  191,504;13497,464;14,09337
 256,03; 2205,812;  190,351;14451,940;14,13209
 256,63; 2318,488;  202,736;15523,455;13,80975
 257,23; 2362,101;  168,274;16450,734;13,47356
 257,82; 2477,994;  203,582;17379,987;13,24149
 258,42; 2529,420;  155,814;18251,839;13,11673
 259,02; 2636,946;  217,043;19237,629;12,72255
 259,62; 2608,173;  187,275;19953,856;12,24743
 260,21; 2653,466;  192,812;20539,387;12,09370
 260,81; 2667,372;  192,196;21031,724;11,87731
 261,41; 2640,000;  171,506;21598,351;11,52057
 262,01; 2691,835;  218,814;22103,267;11,30036
 262,60; 2625,639;  171,582;22443,888;11,01843
 263,20; 2589,856;  180,889;22761,864;10,66813
 263,80; 2580,563;  223,045;23041,718;10,33153
 264,40; 2526,385;  177,891;23233,076;10,18640
 264,99; 2459,388;  202,429;23522,987; 9,67798
 265,59; 2410,559;  193,661;23638,650; 9,45574
 266,19; 2406,596;  186,968;23800,065; 9,39999
 266,78; 2386,039;  227,737;23994,434; 9,08120
 267,38; 2299,883;  197,815;24065,863; 8,80704
 267,98; 2257,720;  198,353;23979,742; 8,65958
 268,58; 2215,481;  199,968;24059,998; 8,44724
 269,17; 2174,523;  191,815;24039,692; 8,31398
 269,77; 2138,208;  203,275;23892,356; 8,16804
 270,37; 2046,346;  172,814;23775,823; 7,93768
 270,96; 2055,601;  234,198;23752,400; 7,74465
 271,56; 1984,549;  198,044;23497,204; 7,66768
 272,16; 1933,986;  187,583;23354,129; 7,53847
 272,75; 1917,676;  197,429;23260,178; 7,45898
 273,35; 1857,401;  184,121;23191,872; 7,27268
 273,95; 1852,632;  195,813;23133,216; 7,22322
 274,54; 1806,465;  180,889;23211,893; 7,05821
 275,14; 1860,612;  215,736;23517,363; 7,05906
 275,74; 1828,242;  176,660;23538,504; 7,06957
 276,33; 1866,491;  223,121;23996,289; 6,91271
 276,93; 1878,943;  201,965;24266,568; 6,96865
 277,53; 1922,048;  192,658;24820,040; 7,02222
 278,12; 1920,779;  178,505;25255,783; 6,94762
 278,72; 2073,710;  248,043;25774,491; 7,15206
 279,32; 2041,372;  186,658;26366,635; 7,08448
 279,91; 2093,587;  165,505;27091,575; 7,16065
 280,51; 2146,952;  191,427;27666,454; 7,11746
 281,11; 2209,647;  192,812;28289,017; 7,17832
 281,70; 2277,823;  173,813;28738,401; 7,36580
 282,30; 2353,395;  180,813;29326,435; 7,45423
 282,90; 2444,293;  189,582;29659,522; 7,65089
 283,49; 2513,126;  200,121;30268,142; 7,69258
 284,09; 2602,510;  234,120;30743,765; 7,76276
 284,69; 2688,699;  220,658;31017,144; 8,01403
 285,28; 2737,785;  202,659;31341,803; 8,14128
 285,88; 2889,423;  265,121;31563,908; 8,38468
 286,47; 2914,953;  194,428;31613,098; 8,65894
 287,07; 3048,416;  218,889;31770,442; 8,96795
 287,67; 3153,781;  211,196;31839,022; 9,30379
 288,26; 3238,675;  191,966;31807,153; 9,63685
 288,86; 3386,996;  183,659;31881,294;10,10592
 289,46; 3567,037;  206,428;32075,499;10,54505
 290,05; 3746,218;  184,889;32130,295;11,14817
 290,65; 3953,052;  187,428;32228,789;11,75238
 291,24; 4169,609;  197,889;32463,116;12,30960
 291,84; 4355,719;  213,659;32502,916;12,82798
 292,44; 4556,836;  202,042;32604,561;13,43968
 293,03; 4854,293;  265,351;32838,068;14,08830
 293,63; 5004,277;  189,274;32896,579;14,72149
 294,22; 5218,348;  216,505;33115,219;15,20376
 294,82; 5366,442;  189,737;33153,874;15,70405
 295,41; 5447,362;  182,813;32797,016;16,14189
 296,01; 5688,137;  228,352;32885,599;16,71845
 296,61; 5788,414;  222,043;32616,337;17,18318
 297,20; 5859,475;  195,506;32123,917;17,73959
 297,80; 5978,919;  211,427;31958,152;18,16720
 298,39; 5986,112;  182,120;31671,810;18,43140
 298,99; 6104,925;  213,044;31605,727;18,76833
 299,58; 6163,446;  208,427;31297,963;19,15442
 300,18; 6201,446;  214,273;31171,882;19,33991
 300,78; 6193,702;  190,274;30812,484;19,60482
 301,37; 6283,967;  205,276;30778,033;19,88271
 301,97; 6338,559;  207,889;30739,864;20,07951
 302,56; 6412,247;  191,890;30732,876;20,36724
 303,16; 6431,607;  171,275;30635,614;20,54971
 303,75; 6471,644;  198,889;30709,572;20,55921
 304,35; 6560,308;  176,888;30875,873;20,79359
 304,94; 6636,463;  195,582;30903,201;20,97486
 305,54; 6701,089;  221,274;30870,973;21,14153
 306,13; 6682,459;  167,042;30760,306;21,29690
 306,73; 6667,888;  181,657;30598,417;21,32453
 307,33; 6740,545;  205,581;30526,002;21,55301
 307,92; 6768,078;  214,274;30574,010;21,58716
 308,52; 6841,379;  174,044;31067,181;21,58193
 309,11; 7022,253;  192,967;31471,771;21,83359
 309,71; 7096,228;  178,660;31741,315;21,91694
 310,30; 7156,543;  189,966;31894,116;21,97371
 310,90; 7331,697;  216,966;32319,808;22,16231
 311,49; 7364,991;  204,582;32460,740;22,19858
 312,09; 7372,463;  160,504;32564,670;22,25627
 312,68; 7584,738;  256,120;33005,474;22,37790
 313,28; 7555,002;  170,043;33175,626;22,37488
 313,87; 7573,708;  166,966;33225,346;22,40503
 314,47; 7711,176;  194,890;33451,734;22,60072
 315,06; 7693,812;  169,966;33601,944;22,50494
 315,66; 7764,232;  176,735;33882,747;22,51081
 316,25; 7766,928;  158,198;33782,606;22,62859
 316,85; 7726,504;  163,043;33817,988;22,47355
 317,44; 7843,412;  174,737;33894,099;22,74265
 318,04; 7818,079;  163,428;33955,003;22,65254
 318,63; 7790,512;  161,657;34108,234;22,47312
 319,22; 7869,241;  192,044;34238,164;22,54940
 319,82; 7892,658;  187,505;34282,284;22,59922
 320,41; 7849,469;  195,274;34163,828;22,53318
 321,01; 7811,647;  196,350;34282,487;22,34133
 321,60; 7856,947;  201,659;34248,928;22,48429
 322,20; 7815,136;  177,889;34275,424;22,39824
 322,79; 7855,282;  214,735;34311,299;22,40855
 323,39; 7788,638;  190,580;34354,718;22,23986
 323,98; 7796,936;  172,658;34412,281;22,26741
 324,58; 7767,387;  178,736;34294,614;22,24375
 325,17; 7697,532;  188,582;34039,837;22,18219
 325,76; 7674,889;  193,966;33856,903;22,22302
 326,36; 7563,776;  166,889;33513,650;22,18173
 326,95; 7476,329;  216,043;33228,593;21,99250
 327,55; 7382,455;  172,505;32890,995;22,03632
 328,14; 7274,949;  171,812;32612,932;21,89547
 328,74; 7204,752;  202,736;32108,530;21,94591
 329,33; 7124,496;  199,197;31716,669;21,97289
 329,92; 7007,003;  174,506;31176,262;22,03906
 330,52; 6870,954;  194,812;30555,183;21,98966
 331,11; 6706,109;  190,043;30144,361;21,75334
 331,71; 6606,664;  186,197;29502,113;21,90096
 332,30; 6472,540;  197,812;29112,432;21,70088
 332,89; 6424,559;  263,043;28669,216;21,69077
 333,49; 6236,491;  198,274;28111,179;21,63235
 334,08; 6118,601;  178,967;27703,639;21,57931
 334,68; 6016,472;  189,274;27262,091;21,52416
 335,27; 5918,383;  205,735;26953,800;21,35724
 335,86; 5885,878;  247,043;26654,207;21,35343
 336,46; 5756,056;  206,196;26370,675;21,21143
 337,05; 5679,246;  182,043;26282,034;21,06209
 337,65; 5610,865;  171,582;26020,755;21,04239
 338,24; 5658,988;  240,043;25970,983;21,06003
 338,83; 5599,883;  203,351;25894,964;21,00504
 339,43; 5532,832;  185,274;25829,173;20,85314
 340,02; 5527,623;  185,659;25712,711;20,92668
 340,61; 5506,881;  192,581;25759,357;20,78596
 341,21; 5544,444;  221,274;25755,376;20,84730
 341,80; 5470,584;  185,813;25721,312;20,69578
 342,40; 5482,081;  195,504;25792,472;20,65314
 342,99; 5483,636;  195,658;25820,524;20,63612
 343,58; 5476,573;  183,504;25964,592;20,53082
 344,18; 5486,064;  206,273;26161,756;20,34172
 344,77; 5539,214;  176,198;26459,566;20,40460
 345,36; 5558,175;  173,966;26693,977;20,30244
 345,96; 5622,281;  216,581;27051,688;20,14414
 346,55; 5636,234;  174,888;27255,285;20,16716
 347,14; 5666,413;  181,658;27496,847;20,07951
 347,74; 5702,297;  161,349;28000,958;19,90311
 348,33; 5821,431;  186,734;28614,101;19,82138
 348,92; 5960,420;  194,425;29124,377;19,93088
 349,52; 5990,382;  165,579;29669,124;19,74272
 350,11; 6043,107;  189,582;29848,787;19,73595
 350,70; 6003,856;  169,197;29950,905;19,59142
 351,29; 5939,561;  170,199;29844,338;19,44239
 351,89; 5912,167;  188,737;29831,723;19,30788
 352,48; 5914,600;  155,120;29755,914;19,45718
 353,07; 5909,509;  201,965;29776,627;19,29876
 353,67; 5853,612;  196,656;29588,512;19,24668
 354,26; 5783,267;  192,042;29386,203;19,15186
 354,85; 5740,682;  200,042;29264,979;19,06297
 355,45; 5686,538;  170,659;29117,820;19,05499
 356,04; 5657,385;  181,504;29041,484;18,97396
 356,63; 5642,156;  217,889;28801,391;18,97691
 357,22; 5553,014;  187,122;28686,986;18,82778
 357,82; 5477,624;  186,583;28514,432;18,67788
 358,41; 5495,900;  208,966;28351,903;18,78601
 359,00; 5378,686;  173,736;28193,299;18,57613
 359,60; 5381,903;  193,658;28178,473;18,53950
 360,19; 5315,372;  212,042;27969,918;18,38516
 360,78; 5277,617;  194,967;27841,120;18,38466
 361,37; 5229,496;  185,428;27630,620;18,37870
 361,97; 5201,186;  188,659;27560,479;18,31273
 362,56; 5114,835;  172,275;27379,315;18,16647
 363,15; 5139,928;  246,736;27069,763;18,24250
 363,74; 4992,371;  189,121;26699,514;18,11836
 364,34; 4899,107;  201,121;26313,904;17,99113
 364,93; 4792,480;  181,813;25931,362;17,90582
 365,52; 4703,571;  156,274;25563,053;17,89796
 366,11; 4688,387;  175,659;25305,731;17,95748
 366,71; 4595,703;  176,274;24976,549;17,82008
 367,30; 4525,158;  188,813;24570,650;17,78515
 367,89; 4498,872;  220,273;24359,353;17,72478
 368,48; 4395,821;  209,583;24012,822;17,58684
 369,07; 4286,779;  193,197;23678,443;17,43044
 369,67; 4240,585;  221,582;23399,535;17,33976
 370,26; 4156,230;  185,274;23017,905;17,39158
 370,85; 4137,947;  182,813;22827,852;17,46579
 371,44; 4068,829;  195,120;22636,113;17,26175
 372,03; 3995,884;  167,890;22379,644;17,23409
 372,63; 3919,524;  163,428;22064,218;17,15050
 373,22; 3884,842;  183,735;21880,606;17,05825
 373,81; 3832,016;  170,197;21543,188;17,13292
 374,40; 3789,188;  181,658;21283,519;17,09579
 374,99; 3699,502;  186,351;21056,138;16,83367
 375,59; 3659,465;  161,042;20732,739;17,00600
 376,18; 3684,115;  199,043;20624,802;17,06214
 376,77; 3629,466;  204,659;20445,691;16,92012
 377,36; 3593,691;  207,659;20368,246;16,79531
 377,95; 3564,153;  203,428;20136,549;16,86000
 378,55; 3502,647;  177,966;19982,410;16,78755
 379,14; 3491,529;  198,582;19861,813;16,74673
 379,73; 3458,527;  196,659;19765,165;16,66897
 380,32; 3505,963;  194,736;19764,604;16,92003
 380,91; 3437,066;  173,890;19684,198;16,72539
 381,50; 3440,714;  194,890;19674,046;16,66306
 382,10; 3405,348;  176,428;19517,142;16,69494
 382,69; 3374,197;  166,120;19492,438;16,59952
 383,28; 3437,708;  214,813;19467,605;16,73988
 383,87; 3382,923;  177,659;19263,201;16,79420
 384,46; 3348,159;  162,352;19266,403;16,67608
 385,05; 3386,244;  198,198;19236,921;16,74506
 385,64; 3382,771;  185,890;19264,731;16,75616
 386,24; 3362,017;  159,737;19225,480;16,79599
 386,83; 3398,475;  200,198;19281,411;16,76139
 387,42; 3421,760;  196,274;19353,270;16,83712
 388,01; 3427,844;  177,891;19573,307;16,75629
 388,60; 3489,624;  191,044;19814,164;16,80966
 389,19; 3545,831;  185,584;20005,729;16,95369
 389,78; 3559,281;  182,969;20194,001;16,87226
 390,37; 3723,805;  250,045;20690,369;16,99464
 390,96; 3699,420;  196,583;20773,220;17,02337
 391,56; 3739,719;  195,969;20863,273;17,14664
 392,15; 3792,820;  179,123;21192,503;17,19712
 392,74; 3769,901;  160,817;21310,624;17,06438
 393,33; 3871,007;  187,893;21679,108;17,13777
 393,92; 3944,129;  197,509;22034,588;17,15715
 394,51; 3988,719;  171,816;22249,848;17,28824
 395,10; 4082,144;  215,896;22471,673;17,37189
 395,69; 4083,523;  203,049;22534,810;17,37648
 396,28; 4156,529;  194,435;22689,511;17,61316
 396,87; 4162,451;  190,975;22814,078;17,55496
 397,46; 4228,284;  194,899;22864,306;17,79220
 398,06; 4307,123;  212,823;23086,703;17,89946
 398,65; 4305,823;  195,979;23095,800;17,94706
 399,24; 4343,546;  218,211;23352,957;17,83177
 399,83; 4380,654;  187,907;23329,458;18,11783
 400,42; 4444,564;  225,680;23500,735;18,12620
 401,01; 4461,575;  196,684;23613,456;18,21298
 401,60; 4502,248;  225,382;23644,888;18,26198
 402,19; 4568,381;  239,695;23657,412;18,48466
 402,78; 4596,386;  231,471;23539,932;18,72674
 403,37; 4509,807;  214,939;23457,159;18,47873
 403,96; 4569,756;  222,639;23272,985;18,85922
 404,55; 4576,032;  243,725;23287,924;18,79999
 405,14; 4513,072;  219,964;23067,240;18,79046
 405,73; 4596,731;  229,742;22969,296;19,20437
 406,32; 4587,057;  229,133;22983,779;19,15180
 406,91; 4556,253;  224,679;22726,786;19,24964
 407,50; 4559,377;  228,836;22474,198;19,46716
 408,09; 4540,882;  202,762;22260,479;19,66713
 408,68; 4543,966;  211,533;22143,974;19,75354
 409,27; 4531,576;  203,223;21926,977;19,92452
 409,86; 4527,151;  216,756;21783,063;19,98671
 410,45; 4601,359;  252,905;21764,002;20,21493
 411,04; 4632,748;  246,516;21720,847;20,42547
 411,63; 4573,058;  236,817;21434,096;20,45659
 412,22; 4563,438;  227,888;21243,443;20,63020
 412,81; 4575,654;  249,348;21005,096;20,84389
 413,40; 4509,031;  257,960;20696,035;20,79976
 413,99; 4488,932;  306,423;20358,870;20,85785
 414,58; 4423,671;  227,422;19923,867;21,30460
 415,17; 4391,071;  240,271;19761,596;21,26290
 415,76; 4402,493;  222,735;19610,748;21,55847
 416,35; 4396,196;  207,503;19427,764;21,79311
 416,94; 4439,960;  254,888;19451,197;21,80144
 417,53; 4500,343;  222,963;19612,954;22,05973
 418,12; 4563,312;  227,424;19777,644;22,17821
 418,71; 4670,377;  250,730;20131,786;22,23044
 419,30; 4703,941;  219,347;20238,060;22,40201
 419,89; 4766,812;  221,269;20300,403;22,63814
 420,48; 4870,341;  251,807;20647,334;22,64484
 421,07; 4930,187;  237,575;20737,148;22,89126
 421,66; 4961,227;  208,497;20776,174;23,10776
 422,25; 4973,975;  227,880;20780,887;23,09198
 422,84; 5086,178;  243,341;20720,605;23,64983
 423,43; 4979,714;  225,803;20428,524;23,53104
 424,02; 4988,329;  258,803;20219,722;23,69393
 424,60; 4886,520;  224,185;19803,125;23,81301
 425,19; 4899,705;  250,340;19540,192;24,10265
 425,78; 4894,474;  238,340;19461,617;24,22133
 426,37; 4928,322;  253,569;19304,544;24,53813
 426,96; 4899,816;  238,954;19126,121;24,67740
 427,55; 4914,914;  230,183;19126,181;24,79219
 428,14; 4868,900;  229,644;18833,699;24,93680
 428,73; 4852,052;  235,338;18647,153;25,07474
 429,32; 4923,237;  249,877;18594,763;25,47500
 429,91; 4961,475;  259,030;18676,904;25,53196
 430,50; 4918,411;  258,645;18521,713;25,51470
 431,08; 4930,177;  258,644;18360,349;25,80714
 431,67; 4980,715;  302,412;18330,782;25,94967
 432,26; 5001,794;  326,642;18160,858;26,21451
 432,85; 4931,448;  347,335;17821,836;26,23316
 433,44; 4861,318;  360,257;17440,033;26,35316
 434,03; 4833,611;  371,256;17158,139;26,58239
 434,62; 4729,288;  331,641;16663,909;26,92612
 435,21; 4689,646;  347,104;16496,684;26,88950
 435,79; 4692,018;  332,948;16332,708;27,24459
 436,38; 4694,253;  328,485;16237,016;27,44293
 436,97; 4696,635;  323,793;16221,643;27,50587
 437,56; 4677,419;  328,637;15979,537;27,78614
 438,15; 4657,963;  295,099;15875,318;28,00258
 438,74; 4731,062;  332,560;15856,013;28,33456
 439,33; 4706,394;  284,099;15873,077;28,36809
 439,91; 4746,237;  252,867;15956,906;28,61283
 440,50; 4810,078;  294,098;16015,235;28,72553
 441,09; 4881,137;  294,943;16082,077;29,05020
 441,68; 4901,809;  267,711;16154,661;29,16921
 442,27; 4906,472;  254,865;16123,606;29,31301
 442,86; 4901,079;  241,324;16026,007;29,52074
 443,44; 4953,717;  250,786;16129,577;29,61769
 444,03; 5103,623;  335,324;16189,950;30,07513
 444,62; 4987,384;  250,555;16053,209;29,97490
 445,21; 5013,967;  259,940;15947,782;30,30389
 445,80; 5052,430;  295,246;15848,830;30,58577
 446,39; 4997,812;  333,016;15659,644;30,43589
 446,97; 4902,256;  252,399;15390,839;30,71556
 447,56; 4869,595;  255,321;15178,970;30,91921
 448,15; 4847,368;  256,168;15006,598;31,12587
 448,74; 4832,146;  282,091;14794,610;31,35262
 449,33; 4775,942;  267,090;14665,641;31,31462
 449,91; 4722,603;  249,089;14390,958;31,63312
 450,50; 4698,773;  253,628;14218,742;31,83036
 451,09; 4690,191;  271,320;14125,591;31,89537
 451,68; 4676,704;  294,704;14035,070;31,89144
 452,26; 4689,745;  276,165;13992,011;32,17869
 452,85; 4662,775;  257,703;13829,823;32,45677
 453,44; 4727,691;  273,932;13779,714;32,97668
 454,03; 4674,986;  250,318;13801,670;32,65112
 454,61; 4694,513;  252,471;13757,610;32,89149
 455,20; 4793,108;  271,009;13969,185;33,01242
 455,79; 4821,131;  274,779;13911,286;33,33957
 456,38; 4880,083;  279,161;14014,786;33,49627
 456,97; 4887,289;  262,854;14103,099;33,41296
 457,55; 4891,764;  258,238;14130,908;33,40039
 458,14; 4965,133;  291,239;14075,067;33,90853
 458,73; 4911,585;  272,468;14011,957;33,76484
 459,31; 4998,133;  289,006;14063,050;34,18842
 459,90; 5023,854;  317,622;14168,214;33,97856
 460,49; 5131,456;  377,853;14241,835;34,28743
 461,08; 5104,707;  264,928;14290,432;34,50699
 461,66; 5139,589;  272,083;14351,107;34,57276
 462,25; 5187,583;  282,312;14495,949;34,51102
 462,84; 5242,067;  300,390;14501,636;34,79749
 463,43; 5203,167;  248,234;14475,764;34,82638
 464,01; 5255,485;  272,157;14468,694;35,10242
 464,60; 5267,569;  336,004;14482,124;34,86161
 465,19; 5118,466;  249,233;14206,266;34,88730
 465,77; 5148,353;  278,617;14168,900;35,05858
 466,36; 5177,945;  300,388;14093,889;35,36127
 466,95; 5083,560;  281,773;13770,006;35,59982
 467,53; 4974,748;  290,847;13477,871;35,51901
 468,12; 4916,481;  309,616;13237,536;35,63500
 468,71; 4850,534;  273,156;13039,028;35,85637
 469,29; 4759,036;  257,539;12766,750;35,98546
 469,88; 4703,134;  260,077;12540,218;36,18083
 470,47; 4778,235;  332,307;12631,261;36,14883
 471,06; 4702,941;  280,922;12514,253;36,14730
 471,64; 4803,079;  281,077;12656,922;36,53894
 472,23; 4773,459;  253,305;12657,306;36,44110
 472,81; 4856,817;  257,229;12781,927;36,72414
 473,40; 4881,986;  268,536;12921,383;36,46176
 473,99; 5070,234;  383,228;13090,095;36,88561
 474,57; 5027,127;  266,382;13216,161;36,76313
 475,16; 5093,240;  284,691;13368,257;36,75259
 475,75; 5177,293;  311,227;13514,047;36,85626
 476,33; 5215,150;  301,611;13584,597;36,99122
 476,92; 5186,052;  302,228;13597,424;36,73375
 477,51; 5248,480;  305,535;13748,207;36,77055
 478,09; 5255,282;  300,304;13698,169;36,98334
 478,68; 5262,032;  294,996;13631,356;37,24431
 479,27; 5267,145;  330,458;13743,529;36,80505
 479,85; 5323,565;  288,765;13644,644;37,69725
 480,44; 5315,438;  278,765;13842,630;37,13302
 481,02; 5744,113;  308,379;15086,890;36,78134
 481,61; 6475,919;  322,072;17081,415;36,71890
 482,20; 6865,385;  310,456;18258,439;36,52182
 482,78; 7231,345;  339,457;19068,417;36,79803
 483,37; 7448,755;  338,609;19595,156;36,92327
 483,95; 7528,640;  367,609;19905,024;36,65291
 484,54; 7614,943;  372,764;20108,365;36,69601
 485,13; 7570,705;  341,839;20041,729;36,69496
 485,71; 7517,724;  330,224;19771,542;36,97023
 486,30; 7450,219;  357,377;19509,734;37,03378
 486,88; 7375,606;  411,070;19225,690;37,01662
 487,47; 7081,147;  374,608;18539,337;36,92067
 488,05; 6825,105;  365,915;17726,602;37,20584
 488,64; 6364,132;  359,914;16450,710;37,31461
 489,23; 5810,383;  369,761;14676,365;38,02874
 489,81; 5007,171;  373,607;12571,955;37,98518
 490,40; 4718,374;  315,914;11874,977;38,08665
 490,98; 4635,489;  307,068;11586,193;38,37550
 491,57; 4583,564;  338,069;11499,424;38,03745
 492,15; 4558,951;  317,145;11462,542;38,05882
 492,74; 4577,767;  317,453;11356,094;38,59455
 493,32; 4519,835;  348,145;11203,904;38,42836
 493,91; 4469,310;  314,298;11186,903;38,21542
 494,50; 4433,589;  313,220;11148,596;38,02701
 495,08; 4413,781;  298,066;11063,846;38,22961
 495,67; 4404,720;  328,067;11048,699;38,02623
 496,25; 4367,832;  260,605;10929,547;38,49703
 496,84; 4353,612;  281,529;10919,843;38,27753
 497,42; 4316,224;  257,682;10876,907;38,21882
 498,01; 4320,148;  297,144;10794,624;38,32352
 498,59; 4255,045;  263,912;10734,726;38,11674
 499,18; 4218,843;  263,144;10715,154;37,84630
 499,76; 4206,488;  289,451;10606,019;37,96841
 500,35; 4117,575;  278,142;10473,419;37,65894
 500,93; 4112,364;  269,836;10384,608;37,98927
 501,52; 4095,620;  273,066;10331,793;38,00236
 502,10; 4080,761;  279,372;10285,543;37,99045
 502,69; 3989,893;  264,833;10162,588;37,63540
 503,27; 3953,910;  240,989;10022,588;37,95823
 503,86; 3923,000;  269,064; 9911,595;37,89395
 504,44; 3848,406;  228,987; 9797,140;37,82777
 505,03; 3769,568;  221,141; 9535,881;38,09476
 505,61; 3730,308;  235,833; 9501,368;37,71476
 506,19; 3683,956;  258,910; 9294,370;37,90671
 506,78; 3580,872;  239,524; 9132,905;37,57118
 507,36; 3538,744;  244,602; 8968,110;37,76167
 507,95; 3520,031;  240,755; 8805,585;38,28770
 508,53; 3460,592;  235,371; 8713,924;38,03977
 509,12; 3410,067;  245,139; 8554,996;38,08643
 509,70; 3365,710;  267,832; 8439,018;37,91222
 510,29; 3316,182;  288,600; 8295,487;37,81222
 510,87; 3205,499;  237,832; 8093,981;37,77508
 511,46; 3188,639;  235,986; 7953,917;38,25705
 512,04; 3123,707;  247,370; 7787,108;38,14903
 512,62; 3038,826;  249,755; 7651,187;37,68285
 513,21; 2986,734;  243,216; 7456,248;38,03558
 513,79; 2921,873;  236,752; 7390,281;37,53561
 514,38; 2865,642;  229,214; 7225,273;37,68448
 514,96; 2834,093;  262,984; 7149,925;37,33311
 515,54; 2773,370;  222,906; 6979,651;37,74693
 516,13; 2773,329;  261,060; 6955,374;37,52840
 516,71; 2675,364;  239,906; 6806,797;37,08693
 517,30; 2636,644;  228,982; 6687,017;37,28165
 517,88; 2620,954;  249,290; 6594,814;37,37539
 518,46; 2529,987;  228,674; 6507,780;36,65033
 519,05; 2552,146;  230,135; 6478,075;37,16442
 519,63; 2515,588;  246,135; 6365,408;37,08697
 520,22; 2498,774;  254,057; 6319,730;37,00689
 520,80; 2472,239;  240,673; 6261,953;37,06132
 521,38; 2483,217;  285,750; 6247,865;36,85717
 521,97; 2436,013;  233,057; 6214,479;36,82997
 522,55; 2417,450;  249,134; 6166,104;36,64572
 523,13; 2409,675;  245,749; 6176,282;36,48788
 523,72; 2411,221;  239,982; 6136,578;36,82190
 524,30; 2442,930;  270,671; 6312,779;35,95200
 524,89; 2399,708;  219,749; 6304,778;35,82495
 525,47; 2477,421;  255,517; 6430,214;35,98402
 526,05; 2442,311;  210,671; 6427,908;35,89441
 526,64; 2503,712;  254,824; 6582,932;35,53808
 527,22; 2537,380;  261,825; 6754,820;35,04631
 527,80; 2603,613;  299,824; 6831,738;35,26974
 528,39; 2585,547;  241,286; 6934,551;35,02418
 528,97; 2623,209;  241,747; 7075,885;34,84656
 529,55; 2639,307;  254,210; 7272,532;33,98386
 530,14; 2712,830;  269,362; 7469,642;33,93573
 530,72; 2703,781;  249,824; 7542,001;33,65191
 531,30; 2762,294;  228,054; 7745,941;33,70947
 531,89; 2811,354;  252,285; 7813,999;33,84245
 532,47; 2829,997;  281,054; 7927,406;33,33541
 533,05; 2862,119;  283,286; 7971,469;33,54281
 533,63; 2856,835;  271,823; 8017,629;33,37305
 534,22; 2831,552;  254,131; 8068,389;32,98357
 534,80; 2886,090;  275,515; 8161,053;33,10586
 535,38; 3006,321;  382,977; 8275,616;33,23786
 535,97; 2881,508;  261,131; 8119,926;33,34324
 536,55; 2917,716;  314,361; 8266,785;32,73662
 537,13; 2920,964;  321,901; 8224,363;32,88929
 537,71; 2957,577;  377,439; 8315,372;32,50390
 538,30; 2984,741;  392,823; 8351,845;32,56579
 538,88; 3037,512;  438,514; 8493,197;32,26692
 539,46; 3108,219;  510,053; 8658,370;31,88592
 540,05; 3163,040;  523,438; 8782,962;31,95828
 540,63; 3236,175;  574,130; 9045,146;31,42533
 541,21; 3289,575;  610,822; 9188,055;31,23097
 541,79; 3359,636;  666,745; 9299,651;31,19333
 542,38; 3413,730;  689,822; 9500,201;30,91703
 542,96; 3480,660;  700,744; 9627,804;31,14033
 543,54; 3554,658;  731,360; 9816,112;31,07732
 544,12; 3551,388;  697,129;10005,211;30,66431
 544,70; 3554,143;  678,513;10066,612;30,63059
 545,29; 3610,155;  690,207;10210,981;30,66924
 545,87; 3567,328;  666,052;10244,113;30,29085
 546,45; 3561,348;  606,207;10237,768;30,68185
 547,03; 3521,641;  586,207;10303,667;30,20784
 547,62; 3536,691;  549,360;10453,499;30,16245
 548,20; 3562,050;  535,821;10611,091;30,03621
 548,78; 3539,398;  494,743;10742,659;29,70999
 549,36; 3558,936;  445,974;10854,157;29,90880
 549,94; 3569,773;  405,283;11052,098;29,72241
 550,53; 3590,472;  416,051;11273,895;29,23621
 551,11; 3616,851;  376,358;11470,000;29,21036
 551,69; 3640,409;  386,512;11792,695;28,52748
 552,27; 3679,338;  351,282;12020,323;28,52039
 552,85; 3748,895;  344,819;12332,115;28,39736
 553,44; 3828,060;  333,051;12706,532;28,24597
 554,02; 3899,370;  350,358;13001,871;28,05208
 554,60; 3933,691;  282,896;13338,405;27,96364
 555,18; 4005,228;  323,128;13722,061;27,48055
 555,76; 4089,609;  307,666;14026,920;27,56669
 556,34; 4149,727;  318,357;14498,326;27,01959
 556,93; 4216,695;  287,512;14882,081;26,92222
 557,51; 4289,699;  271,819;15183,769;26,94403
 558,09; 4379,593;  309,358;15548,014;26,70993
 558,67; 4434,424;  300,972;15923,621;26,45807
 559,25; 4491,996;  314,049;16218,733;26,26865
 559,83; 4556,317;  296,818;16591,194;26,14091
 560,41; 4646,738;  285,511;16922,593;26,21389
 561,00; 4700,748;  296,895;17205,871;26,04447
 561,58; 4705,655;  281,050;17522,650;25,66238
 562,16; 4795,799;  273,281;17819,760;25,77450
 562,74; 4884,472;  260,589;18189,785;25,78968
 563,32; 4949,899;  259,664;18637,540;25,52109
 563,90; 5038,278;  288,434;18989,054;25,39940
 564,48; 5145,903;  290,973;19364,475;25,45379
 565,06; 5232,130;  281,126;19958,572;25,16081
 565,65; 5372,044;  280,356;20632,309;25,01818
 566,23; 5616,004;  341,972;21336,093;25,12147
 566,81; 5702,809;  281,434;22055,848;24,89791
 567,39; 5876,665;  291,664;23002,321;24,59199
 567,97; 6024,784;  311,049;23678,206;24,45199
 568,55; 6235,295;  339,818;24434,847;24,46761
 569,13; 6354,130;  281,818;25069,074;24,49772
 569,71; 6534,458;  281,358;26085,798;24,23265
 570,29; 6795,192;  326,204;27063,302;24,19480
 570,87; 6934,389;  316,743;27807,498;24,07226
 571,45; 7059,204;  305,203;28474,313;23,97662
 572,03; 7108,913;  277,664;28836,535;23,91988
 572,61; 7177,946;  279,510;29561,683;23,55848
 573,20; 7349,457;  292,588;30245,769;23,55967
 573,78; 7481,907;  289,664;30881,434;23,51039
 574,36; 7600,218;  314,280;31421,652;23,42190
 574,94; 7662,621;  377,356;31802,825;23,18268
 575,52; 7620,728;  295,432;31999,463;23,10525
 576,10; 7806,904;  368,509;32545,843;23,11688
 576,68; 7856,811;  349,048;33138,621;22,89680
 577,26; 7982,200;  369,354;33842,430;22,74319
 577,84; 8052,633;  378,895;34248,971;22,65639
 578,42; 8173,179;  436,740;34628,338;22,62672
 579,00; 8050,916;  374,279;34789,559;22,30590
 579,58; 8151,432;  428,202;34975,220;22,35571
 580,16; 8065,863;  386,586;35009,177;22,17996
 580,74; 8069,593;  395,278;35250,466;22,01771
 581,32; 8049,690;  384,740;35391,202;21,89581
 581,90; 7990,129;  417,894;35264,013;21,73050
 582,48; 7992,871;  408,048;35421,148;21,66281
 583,06; 8020,105;  394,894;35675,788;21,61286
 583,64; 8017,682;  405,894;35627,498;21,61113
 584,22; 7904,247;  425,893;35538,071;21,29846
 584,80; 7831,613;  431,817;35319,012;21,21064
 585,38; 7733,883;  438,819;34950,201;21,13814
 585,96; 7672,523;  416,202;35033,782;20,96137
 586,54; 7554,829;  431,739;34991,069;20,61119
 587,12; 7587,525;  384,355;35135,247;20,72801
 587,70; 7579,869;  423,895;35393,764;20,46326
 588,28; 7546,184;  401,817;35422,824;20,40023
 588,86; 7557,258;  402,740;35502,913;20,38314
 589,44; 7436,122;  379,739;35698,398;19,97920
 590,02; 7476,411;  381,047;35790,731;20,03792
 590,59; 7466,711;  363,355;36071,982;19,89255
 591,17; 7498,141;  366,661;36343,113;19,82263
 591,75; 7460,185;  351,123;36396,451;19,72256
 592,33; 7465,595;  368,123;36635,745;19,56972
 592,91; 7484,984;  322,661;36802,773;19,63350
 593,49; 7462,726;  323,045;37090,183;19,41865
 594,07; 7518,838;  342,430;37386,404;19,37267
 594,65; 7471,123;  358,739;37316,426;19,24467
 595,23; 7487,507;  345,893;37877,163;19,02844
 595,81; 7507,963;  324,354;37980,455;19,07688
 596,39; 7497,677;  326,969;38049,494;19,00909
 596,97; 7473,199;  321,123;38336,446;18,81367
 597,55; 7441,733;  329,124;38165,795;18,79819
 598,12; 7426,182;  294,506;38053,860;18,88718
 598,70; 7371,256;  308,815;38368,362;18,55629
 599,28; 7423,281;  326,584;38480,814;18,60003
 599,86; 7407,328;  321,584;38551,727;18,53444
 600,44; 7363,740;  285,891;38621,596;18,46281
 601,02; 7418,406;  338,583;38714,775;18,44848
 601,60; 7317,303;  314,584;38670,846;18,25704
 602,18; 7323,621;  278,045;38689,897;18,34219
 602,75; 7301,617;  286,662;38786,473;18,22075
 603,33; 7254,990;  301,122;38832,526;18,04727
 603,91; 7228,885;  297,737;38795,365;18,00409
 604,49; 7231,372;  317,815;38813,498;17,95930
 605,07; 7246,537;  328,969;38843,643;17,96086
 605,65; 7154,836;  340,968;38932,761;17,65626
 606,23; 7237,838;  404,893;39179,461;17,62223
 606,80; 7247,139;  462,046;39158,915;17,53396
 607,38; 7228,492;  518,583;39228,969;17,33361
 607,96; 7226,713;  579,970;39333,597;17,15128
 608,54; 7285,127;  661,660;39410,510;17,09332
 609,12; 7216,856;  667,816;39470,598;16,87776
 609,70; 7195,954;  706,661;39567,803;16,69867
 610,27; 7179,257;  705,124;39535,885;16,67269
 610,85; 7218,487;  746,199;39623,322;16,64806
 611,43; 7168,248;  731,892;39526,545;16,59083
 612,01; 7061,526;  695,354;39265,911;16,50526
 612,59; 7041,792;  685,122;39413,678;16,41339
 613,16; 6959,263;  650,970;39404,399;16,27803
 613,74; 6900,168;  622,045;39147,055;16,29623
 614,32; 6850,962;  570,430;39181,665;16,26607
 614,90; 6729,501;  510,661;38991,155;16,16102
 615,48; 6630,356;  453,816;38684,228;16,15609
 616,05; 6576,543;  409,355;38686,801;16,11181
 616,63; 6537,654;  432,817;38503,836;16,03539
 617,21; 6454,787;  414,277;38347,683;15,92399
 617,79; 6384,018;  401,277;38316,994;15,77905
 618,36; 6331,597;  396,200;38153,470;15,71988
 618,94; 6223,650;  349,124;37891,123;15,64788
 619,52; 6186,365;  366,201;37661,924;15,60545
 620,10; 6125,051;  347,662;37667,762;15,48064
 620,67; 6074,909;  350,970;37468,134;15,42127
 621,25; 6046,603;  389,354;37329,951;15,31445
 621,83; 5965,966;  360,662;37274,710;15,18475
 622,41; 5996,038;  416,278;37299,613;15,12813
 622,98; 5892,305;  375,970;37073,364;15,03195
 623,56; 5852,038;  374,278;37008,718;14,95249
 624,14; 5779,023;  358,507;36823,868;14,86484
 624,72; 5721,241;  345,816;36709,748;14,78230
 625,29; 5722,448;  334,201;36910,709;14,73144
 625,87; 5774,111;  380,662;36708,475;14,84661
 626,45; 5667,560;  319,971;36631,889;14,72682
 627,02; 5623,988;  333,200;36559,101;14,60499
 627,60; 5565,314;  313,430;36456,278;14,53091
 628,18; 5547,933;  314,893;36567,752;14,43483
 628,76; 5499,958;  309,586;36546,500;14,32344
 629,33; 5527,749;  346,970;36579,543;14,29868
 629,91; 5446,051;  322,662;36589,377;14,12697
 630,49; 5498,964;  337,047;36732,868;14,18272
 631,06; 5459,544;  324,201;36869,914;14,05183
 631,64; 5454,445;  325,663;36682,871;14,10664
 632,22; 5356,313;  291,125;36696,558;13,91328
 632,79; 5402,030;  325,048;37006,933;13,84057
 633,37; 5346,037;  292,815;37049,584;13,74773
 633,95; 5366,733;  299,509;37105,321;13,76746
 634,52; 5330,661;  287,354;37261,738;13,64000
 635,10; 5312,057;  300,893;37214,434;13,57541
 635,68; 5280,475;  297,586;37462,222;13,40761
 636,25; 5251,056;  269,049;37444,839;13,40121
 636,83; 5282,882;  264,586;37635,807;13,42824
 637,41; 5276,305;  285,279;37583,008;13,38158
 637,98; 5288,053;  311,510;37886,738;13,24421
 638,56; 5230,298;  285,587;37996,721;13,11207
 639,13; 5227,538;  268,509;38017,931;13,13670
 639,71; 5260,277;  341,663;38202,232;12,99139
 640,29; 5104,283;  248,047;37942,112;12,88329
 640,86; 5128,485;  265,586;38203,469;12,81806
 641,44; 5120,379;  264,739;38142,057;12,81939
 642,02; 5112,350;  294,970;38180,337;12,71567
 642,59; 5113,321;  257,355;38337,924;12,75182
 643,17; 5071,522;  267,970;38411,666;12,59331
 643,74; 5012,955;  264,355;38386,177;12,45638
 644,32; 5045,311;  298,124;38230,688;12,51481
 644,89; 5030,282;  290,893;38330,737;12,45901
 645,47; 5017,560;  295,970;38275,248;12,43202
 646,05; 4986,839;  301,047;38199,144;12,36419
 646,62; 4934,195;  267,970;38176,962;12,30902
 647,20; 4903,012;  280,970;38458,243;12,10679
 647,77; 4855,675;  258,739;38227,215;12,10724
 648,35; 4847,415;  249,047;38133,264;12,13795
 648,92; 4822,463;  280,970;38176,083;11,98438
 649,50; 4779,434;  245,124;38084,748;11,98297
 650,08; 4745,021;  248,508;37951,028;11,92629
 650,65; 4757,761;  257,277;38129,693;11,88328
 651,23; 4802,501;  235,508;38845,896;11,82840
 651,80; 4919,395;  241,893;39880,099;11,80049
 652,38; 4997,828;  255,431;40266,764;11,85263
 652,95; 4956,491;  238,047;40564,198;11,70071
 653,53; 5052,231;  264,047;40893,632;11,78497
 654,10; 5111,741;  294,508;41011,527;11,83101
 654,68; 4975,096;  231,123;40936,115;11,65452
 655,25; 4997,606;  240,123;40927,549;11,69276
 655,83; 5007,961;  238,816;41064,983;11,68159
 656,40; 4988,548;  277,431;41097,956;11,54105
 656,98; 4953,827;  246,816;41053,774;11,53482
 657,55; 4925,721;  245,892;40850,823;11,52527
 658,13; 4881,615;  247,354;40513,257;11,50914
 658,70; 4795,509;  268,354;40338,307;11,29813
 659,28; 4687,018;  237,277;39441,279;11,35022
 659,85; 4533,066;  275,815;38656,944;11,09204
 660,43; 4557,114;  274,354;38613,840;11,17063
 661,00; 4534,316;  255,738;38758,350;11,11243
 661,58; 4572,748;  255,431;39162,015;11,09662
 662,15; 4521,873;  242,123;39258,449;10,96913
 662,73; 4615,613;  317,815;39676,499;10,91957
 663,30; 4575,508;  258,200;39816,317;10,91384
 663,88; 4582,402;  261,354;39932,290;10,89223
 664,45; 4573,450;  244,969;40214,493;10,82945
 665,03; 4602,113;  252,969;40498,465;10,80654
 665,60; 4714,545;  345,661;40980,438;10,75159
 666,17; 4619,132;  254,661;41057,026;10,69661
 666,75; 4641,180;  250,661;41476,844;10,64983
 667,32; 4674,228;  273,584;41833,355;10,58871
 667,90; 4698,583;  259,815;42040,558;10,62396
 668,47; 4711,785;  275,584;42304,992;10,55499
 669,05; 4689,218;  252,353;42670,888;10,45973
 669,62; 4679,727;  224,892;42792,476;10,46532
 670,19; 4675,467;  230,199;42808,679;10,44018
 670,77; 4686,361;  251,661;43089,651;10,35226
 671,34; 4665,486;  231,430;42909,470;10,38955
 671,92; 4681,611;  232,661;43328,288;10,32344
 672,49; 4687,659;  266,199;43277,492;10,27976
 673,06; 4642,476;  217,276;43393,310;10,24920
 673,64; 4618,370;  226,045;43290,667;10,19938
 674,21; 4611,264;  230,738;43272,332;10,17743
 674,79; 4647,928;  246,276;43567,689;10,16045
 675,36; 4622,206;  247,507;43671,508;10,07438
 675,93; 4560,177;  223,584;43539,480;10,01155
 676,51; 4609,379;  254,353;43741,607;10,01449
 677,08; 4616,427;  256,891;43814,964;10,00856
 677,65; 4580,937;  245,430;43940,474; 9,92219
 678,23; 4619,138;  248,353;44134,601; 9,95935
 678,80; 4597,802;  247,891;44335,881; 9,86643
 679,38; 4588,619;  236,968;44460,161; 9,84020
 679,95; 4615,590;  251,507;44698,210; 9,81869
 680,52; 4633,253;  232,737;45020,337; 9,82530
 681,10; 4660,609;  253,891;45252,309; 9,79305
 681,67; 4718,734;  251,891;45654,743; 9,83824
 682,24; 4658,320;  223,583;45647,100; 9,76308
 682,82; 4721,368;  228,199;46216,534; 9,77024
 683,39; 4804,877;  284,430;46554,353; 9,76973
 683,96; 4778,002;  251,353;46749,633; 9,73509
 684,54; 4767,665;  216,660;47143,605; 9,69806
 685,11; 4849,790;  285,199;47620,578; 9,64309
 685,68; 4826,915;  237,276;47943,627; 9,62060
 686,25; 4806,117;  220,199;47977,523; 9,60254
 686,83; 4823,011;  242,891;48173,649; 9,55570
 687,40; 4842,597;  232,737;48641,775; 9,52273
 687,97; 4925,953;  292,275;49037,902; 9,50583
 688,55; 4852,155;  228,275;49002,028; 9,48026
 689,12; 4858,741;  205,045;49250,462; 9,48855
 689,69; 4863,097;  223,583;49361,819; 9,44176
 690,26; 4870,145;  226,814;49423,484; 9,43830
 690,84; 4879,808;  232,198;49572,841; 9,41943
 691,41; 4890,856;  252,737;49630,121; 9,39321
 691,98; 4906,904;  247,275;50012,093; 9,36330
 692,56; 4914,183;  248,583;50084,912; 9,36184
 693,13; 4936,307;  283,660;50120,038; 9,33585
 693,70; 4891,509;  256,660;50346,934; 9,25299
 694,27; 4877,019;  229,660;50424,214; 9,25869
 694,84; 4874,374;  227,352;50553,186; 9,23387
 695,42; 4901,961;  287,890;50713,082; 9,15033
 695,99; 4878,624;  250,583;50970,593; 9,12469
 696,56; 4893,287;  240,429;50747,796; 9,21224
 697,13; 4910,874;  256,967;51118,768; 9,15010
 697,71; 4895,845;  234,967;51101,895; 9,16288
 698,28; 4895,123;  229,506;51511,175; 9,09802
 698,85; 4862,248;  203,890;51588,301; 9,06570
 699,42; 4885,835;  199,121;51639,581; 9,11095
 699,99; 4935,421;  261,659;51835,861; 9,06221
 700,57; 4925,623;  243,813;51785,603; 9,08352
 701,14; 4933,748;  234,198;52064,191; 9,06724
 701,71; 4933,257;  256,967;52276,010; 8,98957
 702,28; 4949,690;  236,429;52196,597; 9,07091
 702,85; 4920,276;  240,736;52263,031; 8,99526
 703,43; 4972,632;  263,044;52545,312; 9,00800
 704,00; 4988,603;  275,813;52840,130; 8,96576
 704,57; 4982,728;  255,275;52740,564; 9,00720
 705,14; 4986,699;  278,121;53119,383; 8,91080
 705,71; 4992,900;  291,736;53002,124; 8,91886
 706,28; 4970,256;  261,736;52995,174; 8,92891
 706,86; 5009,150;  292,967;53308,531; 8,89585
 707,43; 5035,813;  323,582;53181,734; 8,91486
 708,00; 4984,554;  294,813;53179,783; 8,86781
 708,57; 4942,063;  256,659;53074,602; 8,87086
 709,14; 4972,188;  288,659;53306,498; 8,83387
 709,71; 4947,774;  266,967;53299,701; 8,82626
 710,28; 4977,207;  270,428;53487,596; 8,84447
 710,86; 4977,255;  275,120;53725,492; 8,79720
 711,43; 4970,995;  299,736;53655,618; 8,75491
 712,00; 4948,274;  262,197;53721,283; 8,76573
 712,57; 4963,245;  284,351;53918,563; 8,72371
 713,14; 4964,677;  250,582;54055,766; 8,76141
 713,71; 4973,110;  270,197;53948,123; 8,76135
 714,28; 5000,619;  246,274;53911,019; 8,85935
 714,85; 4928,283;  249,428;53726,607; 8,74925
 715,42; 4939,869;  247,812;53999,810; 8,72908
 716,00; 5038,148;  318,582;54123,167; 8,77168
 716,57; 5003,580;  254,966;54213,985; 8,80041
 717,14; 4979,936;  236,120;54124,573; 8,80303
 717,71; 4941,291;  231,274;54153,853; 8,73478
 718,28; 5030,032;  275,043;54303,595; 8,80088
 718,85; 4966,695;  225,120;54290,029; 8,77015
 719,42; 4986,435;  257,043;54456,078; 8,72597
 719,99; 4939,560;  228,966;54163,436; 8,73392
 720,56; 5008,377;  258,658;54601,023; 8,74036
 721,13; 4961,041;  228,812;54648,765; 8,69576
 721,70; 4965,781;  224,351;54471,122; 8,74048
 722,27; 4988,059;  254,197;54491,018; 8,72813
 722,84; 5083,877;  324,427;54774,221; 8,74099
 723,41; 5007,386;  234,504;54597,424; 8,77966
 723,98; 4989,434;  240,197;54852,473; 8,69628
 724,55; 5073,020;  255,350;55039,292; 8,79395
 725,12; 4966,299;  207,735;54881,726; 8,70352
 725,69; 5019,424;  226,889;55244,006; 8,71099
 726,27; 5042,010;  228,966;55288,363; 8,74155
 726,84; 5077,827;  239,196;55550,413; 8,74801
 727,41; 5143,645;  263,658;55550,154; 8,82672
 727,98; 5120,539;  253,043;55782,819; 8,76556
 728,55; 5151,356;  285,119;55635,253; 8,79173
 729,12; 5118,712;  223,427;55924,918; 8,78843
 729,69; 5173,683;  264,966;55950,583; 8,81505
 730,26; 5188,654;  258,119;56249,247; 8,80592
 730,82; 5135,701;  253,042;56026,604; 8,75443
 731,39; 5190,211;  240,735;56137,654; 8,85465
 731,96; 5184,336;  224,735;56472,857; 8,81736
 732,53; 5240,307;  246,119;56736,291; 8,84081
 733,10; 5226,201;  260,504;56820,956; 8,77945
 733,67; 5270,249;  248,273;56947,851; 8,85717
 734,24; 5222,374;  239,581;56591,285; 8,84231
 734,81; 5277,883;  268,811;56683,411; 8,87903
 735,38; 5232,777;  244,581;56442,692; 8,87609
 735,95; 5203,133;  236,965;56367,203; 8,84758
 736,52; 5231,565;  248,042;56606,483; 8,84255
 737,09; 5253,229;  254,657;56186,840; 8,93684
 737,66; 5307,200;  324,196;56445,120; 8,87905
 738,23; 5268,786;  242,888;56470,169; 8,93854
 738,80; 5410,142;  321,503;56799,065; 9,01002
 739,37; 5361,036;  275,965;56994,499; 8,96545
 739,94; 5358,853;  247,580;56972,240; 9,01067
 740,51; 5500,593;  392,273;57077,751; 9,01169
 741,07; 5380,256;  249,350;56955,801; 9,04819
 741,64; 5421,227;  287,349;57183,235; 9,02329
 742,21; 5427,198;  263,965;57294,976; 9,05338
 742,78; 5391,246;  234,273;57027,641; 9,08024
 743,35; 5443,140;  253,965;57277,152; 9,10012
 743,92; 5480,727;  298,426;57446,663; 9,06817
 744,49; 5482,698;  291,580;57263,174; 9,11177
 745,06; 5484,438;  245,119;57414,146; 9,16461
 745,63; 5458,794;  234,734;57405,273; 9,13768
 746,19; 5464,611;  256,657;57336,168; 9,12403
 746,76; 5523,582;  247,503;57463,679; 9,22131
 747,33; 5548,322;  246,965;57425,113; 9,27165
 747,90; 5607,370;  271,272;57588,239; 9,30980
 748,47; 5556,572;  271,118;57525,135; 9,23159
 749,04; 5601,389;  267,118;57555,492; 9,31126
 749,61; 5605,898;  284,426;57566,234; 9,28999
 750,17; 5618,946;  287,272;57659,360; 9,29315
 750,74; 5643,379;  273,195;57362,794; 9,40659
 751,31; 5589,273;  249,811;57369,459; 9,34786
 751,88; 5594,090;  226,887;57272,893; 9,40855
 752,45; 5653,600;  254,272;57446,634; 9,44064
 753,02; 5680,032;  272,657;57291,991; 9,48341
 753,58; 5660,695;  244,657;57051,195; 9,53418
 754,15; 5677,743;  251,657;57378,090; 9,49838
 754,72; 5652,176;  248,964;57092,601; 9,50539
 755,29; 5653,070;  224,810;56863,496; 9,58401
 755,86; 5678,810;  250,349;57029,546; 9,56065
 756,42; 5734,166;  260,195;56920,057; 9,66111
 756,99; 5676,445;  226,426;56948,029; 9,60837
 757,56; 5721,108;  235,964;56885,002; 9,68268
 758,13; 5671,156;  196,349;56812,436; 9,67006
 758,70; 5789,204;  226,810;56848,947; 9,82371
 759,26; 5771,559;  222,579;56970,227; 9,77834
 759,83; 5759,838;  229,810;57070,045; 9,72907
 760,40; 5796,194;  212,041;56890,710; 9,85230
 760,97; 5837,395;  211,348;56921,606; 9,92069
 761,53; 5787,520;  192,195;56504,809; 9,93619
 762,10; 5844,107;  191,656;56563,935;10,02700
 762,67; 5879,232;  223,271;56603,061;10,03189
 763,24; 5823,203;  183,810;56051,341;10,09422
 763,80; 5858,943;  223,425;56241,237;10,06022
 764,37; 5868,606;  211,964;56300,748;10,08516
 764,94; 5842,500;  196,656;55696,720;10,17268
 765,50; 5874,625;  204,271;55714,924;10,21489
 766,07; 5928,519;  246,733;55810,819;10,22565
 766,64; 5900,259;  216,194;55484,253;10,28454
 767,21; 5908,461;  214,656;55393,687;10,31878
 767,77; 5963,817;  232,656;55221,660;10,42238
 768,34; 5964,865;  244,579;55194,170;10,41006
 768,91; 5972,143;  245,271;55060,912;10,44751
 769,47; 5986,345;  243,348;55117,500;10,46576
 770,04; 5996,239;  244,579;54956,088;10,51271
 770,61; 5950,518;  223,733;54728,368;10,50697
 771,18; 5963,104;  212,271;54628,725;10,56819
 771,74; 5980,845;  238,040;54811,467;10,52308
 772,31; 5992,816;  245,040;54589,054;10,57665
 772,88; 5947,787;  213,425;54299,181;10,60235
 773,44; 5957,911;  223,425;54185,999;10,62678
 774,01; 5998,421;  236,886;54236,741;10,66954
 774,58; 5967,161;  227,655;53946,098;10,68442
 775,14; 6009,594;  212,271;54039,532;10,77024
 775,71; 6034,411;  223,809;53986,428;10,80788
 776,27; 6099,305;  276,578;53841,169;10,87048
 776,84; 6182,353;  328,425;53956,142;10,91586
 777,41; 6055,862;  240,117;53691,191;10,88050
 777,97; 6052,295;  220,886;53428,394;10,95975
 778,54; 6138,881;  248,194;53390,290;11,08479
 779,11; 6142,314;  270,194;53495,262;11,03262
 779,67; 6104,285;  222,117;53410,004;11,05922
 780,24; 6118,563;  232,578;53165,592;11,11969
 780,80; 6176,688;  250,117;53200,026;11,19279
 781,37; 6185,352;  253,270;53104,844;11,22404
 781,94; 6146,400;  245,193;52835,740;11,22104
 782,50; 6214,063;  242,193;52840,405;11,35375
 783,07; 6247,572;  257,424;52875,762;11,38415
 783,63; 6246,620;  237,116;52575,350;11,48205
 784,20; 6232,053;  265,963;52647,322;11,38972
 784,77; 6197,485;  245,809;52351,525;11,42231
 785,33; 6185,456;  220,886;52246,036;11,46478
 785,90; 6221,120;  240,193;52147,162;11,52240
 786,46; 6249,398;  261,732;52029,519;11,56639
 787,03; 6217,215;  234,116;51986,569;11,56100
 787,59; 6236,033;  236,270;51863,772;11,62125
 788,16; 6323,773;  248,962;51771,283;11,79064
 788,73; 6301,513;  251,885;51533,102;11,79697
 789,29; 6256,638;  234,962;51263,689;11,80056
 789,86; 6333,378;  268,962;51160,585;11,91633
 790,42; 6305,272;  232,039;51047,942;11,95144
 790,99; 6284,089;  244,424;50660,991;11,97953
 791,55; 6302,522;  235,193;50632,425;12,03901
 792,12; 6364,108;  272,347;50627,167;12,09767
 792,68; 6349,387;  240,270;50357,293;12,18970
 793,25; 6370,897;  248,270;50088,727;12,28445
 793,81; 6436,560;  337,808;49829,546;12,32277
 794,38; 6346,608;  217,731;49614,211;12,40752
 794,94; 6382,348;  231,962;49474,260;12,49005
 795,51; 6360,781;  253,885;49144,463;12,49095
 796,07; 6336,059;  242,116;48961,897;12,50815
 796,64; 6384,953;  265,808;49067,024;12,53892
 797,20; 6381,232;  253,654;48505,073;12,69927
 797,77; 6347,434;  215,808;48153,353;12,79086
 798,33; 6325,097;  239,962;48140,479;12,70369
 798,90; 6384,760;  260,269;47978,913;12,83459
 799,46; 6298,655;  236,808;47545,578;12,81337
 800,03; 6361,395;  254,423;47523,627;12,91956
 800,59; 6318,904;  249,423;47206,292;12,92565
 801,15; 6307,798;  257,039;47071,342;12,92502
 801,72; 6262,154;  258,577;46631,929;12,94618
 802,28; 6264,894;  279,115;46404,979;12,97706
 802,85; 6221,250;  239,423;46243,413;13,00284
 803,41; 6227,452;  249,346;46031,231;13,05780
 803,98; 6244,730;  239,500;45572,511;13,24693
 804,54; 6192,624;  244,192;45372,792;13,18107
 805,11; 6202,365;  259,423;45161,226;13,23542
 805,67; 6216,566;  272,500;45023,967;13,28239
 806,23; 6153,922;  254,269;44521,401;13,32739
 806,80; 6193,201;  275,192;44444,528;13,39845
 807,36; 6185,479;  278,346;44432,346;13,37848
 807,93; 6225,681;  288,577;44183,242;13,52580
 808,49; 6181,883;  244,269;43786,291;13,63651
 809,05; 6154,931;  231,423;43577,648;13,66557
 809,62; 6184,825;  268,577;43471,005;13,69425
 810,18; 6187,796;  255,730;43466,285;13,72828
 810,74; 6119,075;  226,807;43140,412;13,73053
 811,31; 6181,892;  230,807;43011,999;13,91052
 811,87; 6176,709;  256,115;42790,357;13,91959
 812,44; 6229,834;  286,807;42823,867;13,97141
 813,00; 6141,882;  201,499;42559,148;14,02434
 813,56; 6260,007;  244,115;42621,812;14,19589
 814,13; 6225,054;  239,576;42495,708;14,16476
 814,69; 6232,333;  239,730;42243,603;14,26679
 815,25; 6150,766;  208,115;41902,037;14,25304
 815,82; 6211,429;  260,345;41795,087;14,32797
 816,38; 6197,246;  295,038;41620,982;14,28209
 816,94; 6141,756;  229,576;41280,955;14,40190
 817,51; 6125,188;  219,961;41041,081;14,46611
 818,07; 6108,621;  230,268;40799,746;14,48959
 818,63; 6098,284;  236,884;40584,410;14,52729
 819,20; 6140,947;  239,961;40555,537;14,63699
 819,76; 6114,918;  228,345;40167,509;14,73885
 820,32; 6125,351;  270,191;40100,482;14,70027
 820,89; 6050,630;  253,884;39798,685;14,65868
 821,45; 6072,370;  228,961;39533,427;14,86704
 822,01; 6091,649;  244,961;39248,014;14,99033
 822,57; 6062,158;  255,037;39209,295;14,90754
 823,14; 6025,821;  212,807;38894,959;15,02764
 823,70; 6007,408;  218,422;38650,086;15,06306
 824,26; 6025,609;  229,499;38514,673;15,13931
 824,82; 6048,427;  259,422;38380,338;15,18590
 825,39; 6001,090;  229,037;38013,541;15,27624
 825,95; 6024,138;  249,576;38114,745;15,25033
 826,51; 5981,955;  242,653;37663,409;15,33722
 827,08; 6070,003;  281,191;37770,459;15,44125
 827,64; 6035,128;  247,729;37523,277;15,52599
 828,20; 6014,176;  230,037;37271,634;15,61525
 828,76; 6079,070;  265,652;37345,145;15,67825
 829,32; 6064,887;  274,268;37065,579;15,73909
 829,89; 6034,473;  208,268;36921,090;15,86967
 830,45; 6030,291;  248,037;36847,524;15,79873
 831,01; 6039,954;  238,114;36699,112;15,91246
 831,57; 6048,925;  239,575;36600,392;15,97695
 832,14; 6052,127;  244,268;36474,595;16,03038
 832,70; 6064,175;  216,883;36269,337;16,21884
 833,26; 6060,069;  201,806;36224,694;16,26261
 833,82; 6045,732;  233,421;36114,205;16,19895
 834,38; 6075,703;  217,421;36174,101;16,29261
 834,95; 6047,597;  218,729;36036,535;16,27366
 835,51; 6038,799;  192,498;35837,584;16,40142
 836,07; 6129,616;  231,344;35939,172;16,51815
 836,63; 6168,895;  247,883;35878,298;16,61786
 837,19; 6168,558;  252,806;35736,886;16,67157
 837,75; 6106,760;  200,652;35462,012;16,74952
 838,32; 6196,115;  258,113;35601,369;16,80095
 838,88; 6205,471;  256,037;35604,495;16,83082
 839,44; 6215,519;  248,806;35466,314;16,94246
 840,00; 6197,644;  251,113;35435,440;16,90108
 840,56; 6181,846;  226,190;35080,797;17,08714
 841,12; 6205,509;  222,652;35015,385;17,19571
 841,68; 6152,557;  209,806;34833,896;17,16363
 842,25; 6234,835;  228,729;34901,484;17,32227
 842,81; 6199,960;  211,344;34620,072;17,40435
 843,37; 6220,931;  201,421;34701,506;17,44781
 843,93; 6265,902;  220,729;34458,478;17,65646
 844,49; 6307,027;  238,267;34559,143;17,68242
 845,05; 6232,075;  202,190;34365,500;17,65018
 845,61; 6305,200;  245,036;34503,857;17,68935
 846,17; 6285,556;  221,498;34338,214;17,77445
 846,73; 6328,450;  232,575;34276,264;17,90604
 847,29; 6308,959;  211,882;34110,851;17,98602
 847,86; 6338,084;  216,805;33952,055;18,14505
 848,42; 6326,055;  219,190;33779,566;18,19665
 848,98; 6340,257;  236,267;33691,307;18,24535
 849,54; 6384,459;  214,190;33850,203;18,34423
 850,10; 6405,891;  242,728;33689,714;18,42666
 850,66; 6333,401;  210,574;33424,686;18,43441
 851,22; 6361,602;  199,574;33423,812;18,54678
 851,78; 6390,419;  256,959;33446,939;18,47986
 852,34; 6397,083;  240,728;33199,757;18,67881
 852,90; 6368,131;  224,805;33124,268;18,67303
 853,46; 6345,179;  218,805;32893,779;18,74944
 854,02; 6411,073;  234,113;32900,213;18,90939
 854,58; 6334,121;  218,113;32651,801;18,85696
 855,14; 6370,861;  224,113;32503,927;19,04208
 855,70; 6335,755;  186,728;32436,823;19,06669
 856,26; 6393,880;  225,728;32374,795;19,18610
 856,82; 6409,005;  230,805;32171,306;19,34284
 857,38; 6405,745;  268,189;32077,740;19,29469
 857,94; 6369,331;  221,420;31949,559;19,37684
 858,50; 6395,533;  250,035;31825,531;19,46287
 859,06; 6354,350;  217,959;31667,196;19,51205
 859,62; 6382,244;  238,420;31613,399;19,58192
 860,18; 6375,369;  231,189;31378,064;19,72647
 860,74; 6351,263;  191,266;31234,882;19,84304
 861,30; 6387,157;  193,497;31190,163;19,98170
 861,86; 6471,667;  286,805;31166,597;20,02883
 862,42; 6400,253;  218,497;30958,415;20,10987
 862,98; 6492,532;  251,881;30923,618;20,34658
 863,54; 6438,118;  221,574;30667,822;20,41810
 864,10; 6491,551;  221,958;30784,179;20,51419
 864,66; 6449,829;  201,112;30474,613;20,64088
 865,22; 6437,647;  225,420;30385,508;20,59751
 865,78; 6451,464;  237,112;30299,865;20,67127
 866,34; 6435,666;  208,958;30246,992;20,72941
 866,90; 6438,637;  232,112;30103,272;20,77765
 867,45; 6432,531;  233,958;29852,475;20,92803
 868,01; 6449,732;  236,343;29685,986;21,09835
 868,57; 6427,319;  229,650;29551,727;21,13653
 869,13; 6370,213;  201,650;29420,085;21,11189
 869,69; 6373,338;  217,189;29280,826;21,18162
 870,25; 6363,001;  191,112;29178,491;21,29164
 870,81; 6390,587;  218,342;29103,156;21,36848
 871,37; 6383,789;  240,112;28996,359;21,36467
 871,93; 6386,914;  247,189;28885,178;21,43909
 872,49; 6420,654;  273,804;28570,919;21,72253
 873,04; 6369,010;  203,958;28394,045;21,86957
 873,60; 6332,289;  206,188;28346,941;21,76950
 874,16; 6354,029;  237,650;28232,375;21,84833
 874,72; 6351,952;  217,727;28196,144;21,92485
 875,28; 6347,721;  229,958;28072,067;21,97306
 875,84; 6348,183;  224,804;27981,837;22,06064
 876,40; 6317,798;  216,727;27949,144;21,99978
 876,95; 6386,260;  229,265;27904,990;22,24691
 877,51; 6383,721;  263,265;27900,606;22,14560
 878,07; 6392,413;  266,265;27896,606;22,17182
 878,63; 6423,721;  220,342;27927,913;22,38875
 879,19; 6455,644;  243,342;27907,606;22,45605
 879,75; 6431,260;  222,419;27940,606;22,39988
 880,30; 6490,260;  215,112;27936,990;22,63609
 880,86; 6584,721;  263,727;28103,990;22,70451
 881,42; 6541,875;  203,881;28077,298;22,73849
 881,98; 6627,952;  237,188;28188,221;22,86414
 882,54; 6649,413;  221,804;28279,067;22,90890
 883,09; 6751,490;  239,342;28396,452;23,12790
 883,65; 6783,106;  213,419;28461,221;23,25734
 884,21; 6888,567;  267,804;28696,221;23,28924
 884,77; 6894,106;  219,958;28725,298;23,41368
 885,32; 6959,721;  222,342;28812,298;23,56554
 885,88; 7056,952;  270,265;29006,837;23,61690
 886,44; 7096,798;  228,342;29103,760;23,78652
 887,00; 7126,721;  249,650;29041,913;23,88514
 887,56; 7134,952;  223,650;29237,067;23,82105
 888,11; 7182,490;  237,804;29266,298;23,92369
 888,67; 7277,721;  250,265;29413,375;24,09707
 889,23; 7243,490;  233,188;29495,913;23,95642
 889,79; 7194,798;  210,958;29259,760;24,04175
 890,34; 7259,413;  237,112;29289,837;24,17089
 890,90; 7379,029;  312,342;29409,760;24,28630
 891,46; 7265,644;  218,881;29309,990;24,22308
 892,01; 7330,875;  244,035;29297,144;24,39271
 892,57; 7357,798;  262,496;29222,990;24,49993
 893,13; 7287,260;  246,573;29041,221;24,45137
 893,69; 7272,644;  212,419;29061,990;24,47255
 894,24; 7294,644;  226,727;28902,221;24,64794
 894,80; 7315,183;  221,804;28724,067;24,88707
 895,36; 7297,952;  233,804;28604,144;24,89976
 895,91; 7241,183;  230,881;28422,452;24,86666
 896,47; 7267,798;  250,188;28324,298;24,99673
 897,03; 7219,721;  230,342;28097,067;25,08145
 897,58; 7207,106;  239,112;27986,529;25,11223
 898,14; 7208,106;  238,958;27858,683;25,23250
 898,70; 7175,644;  204,727;27646,683;25,40241
 899,25; 7205,798;  220,112;27692,913;25,42764
 899,81; 7194,183;  243,573;27417,221;25,57849
 900,37; 7111,721;  201,496;27214,144;25,58144
 900,92; 7165,798;  236,958;27294,298;25,60799
 901,48; 7141,029;  221,573;27185,221;25,66216
 902,03; 7123,721;  232,727;26943,375;25,79868
 902,59; 7078,337;  214,881;26881,298;25,73820
 903,15; 7075,106;  237,188;26732,067;25,80845
 903,70; 7019,183;  229,650;26462,144;25,88215
 904,26; 7059,337;  216,342;26371,837;26,16274
 904,82; 7030,952;  218,496;26383,760;26,03626
 905,37; 7034,260;  236,804;26159,606;26,22192
 905,93; 6948,413;  216,112;26090,452;26,01922
 906,48; 7014,413;  240,419;26039,452;26,25678
 907,04; 7030,106;  242,342;25951,221;26,40241
 907,60; 6968,106;  236,188;25645,452;26,49395
 908,15; 6953,952;  218,035;25557,221;26,58301
 908,71; 6966,183;  243,804;25510,452;26,60574
 909,26; 6918,106;  234,419;25440,837;26,51581
 909,82; 6912,106;  237,035;25346,913;26,58345
 910,37; 6974,798;  264,958;25194,298;26,91543
 910,93; 6869,644;  211,958;24943,529;26,91979
 911,48; 6887,644;  219,188;24847,837;27,07601
 912,04; 6889,644;  215,265;24681,529;27,27993
 912,60; 6915,952;  221,573;24733,375;27,31084
 913,15; 6853,413;  221,804;24549,298;27,25973
 913,71; 6806,106;  212,650;24407,144;27,25189
 914,26; 6793,413;  205,112;24294,221;27,34971
 914,82; 6781,952;  234,881;24241,529;27,27191
 915,37; 6806,721;  218,573;24162,606;27,51478
 915,93; 6825,183;  275,573;23994,375;27,61358
 916,48; 6727,798;  218,112;23872,760;27,51969
 917,04; 6772,337;  238,112;23744,067;27,79817
 917,59; 6780,183;  254,881;23735,375;27,79031
 918,15; 6727,413;  187,188;23463,606;28,09807
 918,70; 6738,260;  220,881;23407,452;28,10842
 919,26; 6755,413;  227,881;23336,760;28,24686
 919,81; 6735,875;  204,419;23087,067;28,54327
 920,37; 6747,567;  220,419;23111,067;28,51447
 920,92; 6739,490;  242,727;23051,606;28,48348
 921,48; 6695,721;  210,112;22784,990;28,72932
 922,03; 6678,337;  207,804;22802,375;28,63755
 922,59; 6682,798;  227,650;22563,760;28,90006
 923,14; 6656,337;  218,804;22489,529;28,90581
 923,69; 6661,721;  242,035;22474,375;28,87544
 924,25; 6664,106;  244,650;22413,606;28,95696
 924,80; 6603,106;  223,804;22212,529;29,01170
 925,36; 6590,721;  219,881;22110,760;29,10272
 925,91; 6600,952;  211,573;21957,221;29,38233
 926,47; 6587,644;  209,881;21860,298;29,45792
 927,02; 6669,798;  302,035;21856,913;29,54210
 927,57; 6598,490;  217,188;21696,760;29,70870
 928,13; 6575,183;  210,188;21592,990;29,76689
 928,68; 6575,106;  220,035;21514,375;29,84394
 929,24; 6492,721;  191,727;21244,298;29,92981
 929,79; 6509,337;  214,112;21192,606;30,00799
 930,34; 6525,029;  225,419;21055,375;30,24303
 930,90; 6492,106;  213,727;20958,067;30,26550
 931,45; 6512,183;  221,342;20992,683;30,28616
 932,01; 6467,875;  223,265;20861,683;30,25721
 932,56; 6474,721;  248,035;20724,606;30,40883
 933,11; 6496,721;  251,958;20727,529;30,49860
 933,67; 6415,875;  220,496;20524,913;30,51247
 934,22; 6406,183;  233,881;20393,375;30,61735
 934,77; 6397,952;  252,804;20296,067;30,65942
 935,33; 6360,644;  221,342;20167,221;30,77980
 935,88; 6335,260;  239,650;20108,990;30,67847
 936,43; 6300,567;  217,342;20009,452;30,73561
 936,99; 6306,183;  225,804;19949,529;30,82774
 937,54; 6245,029;  211,881;19729,375;30,91149
 938,09; 6290,721;  230,496;19758,913;31,03285
 938,65; 6266,260;  232,727;19549,837;31,23414
 939,20; 6269,721;  199,573;19499,298;31,45199
 939,75; 6217,567;  213,188;19381,452;31,32458
 940,31; 6188,183;  200,958;19279,221;31,38244
 940,86; 6282,260;  221,727;19287,683;31,78720
 941,41; 6304,567;  315,342;19231,760;31,66152
 941,96; 6159,567;  216,112;19048,452;31,55984
 942,52; 6149,952;  216,650;18962,144;31,65188
 943,07; 6098,490;  199,881;18841,221;31,64263
 943,62; 6127,952;  216,958;18721,683;31,94316
 944,18; 6125,952;  193,419;18682,837;32,08610
 944,73; 6164,337;  220,342;18634,760;32,27902
 945,28; 6105,029;  179,419;18410,452;32,50287
 945,83; 6097,567;  207,727;18356,067;32,45388
 946,39; 6070,260;  213,265;18309,452;32,36590
 946,94; 6126,183;  237,958;18258,144;32,67572
 947,49; 6019,721;  207,804;18111,606;32,46192
 948,04; 6145,413;  261,342;18148,913;32,89475
 948,59; 6070,029;  240,727;17995,606;32,83211
 949,15; 6097,106;  202,650;17898,067;33,31063
 949,70; 6053,952;  214,881;17852,913;33,10500
 950,25; 6011,106;  224,727;17730,452;33,05421
 950,80; 5945,798;  183,112;17598,375;33,08986
 951,36; 5904,260;  181,881;17631,683;32,79337
 951,91; 5983,644;  224,881;17571,375;33,19843
 952,46; 5915,798;  210,573;17321,144;33,34328
 953,01; 5943,183;  229,573;17340,913;33,39078
 953,56; 5903,952;  190,188;17219,760;33,55201
 954,11; 5903,260;  224,419;17161,606;33,52883
 954,67; 5876,337;  209,419;17025,760;33,69887
 955,22; 5842,567;  197,035;16903,067;33,79338
 955,77; 5862,106;  240,419;16948,067;33,64738
 956,32; 5898,952;  276,804;16835,683;33,95247
 956,87; 5800,644;  204,342;16721,144;33,88248
 957,42; 5815,567;  211,265;16624,990;34,14400
 957,98; 5778,413;  211,112;16500,837;34,17677
 958,53; 5815,952;  245,112;16541,990;34,18348
 959,08; 5774,413;  195,958;16369,144;34,49200
 959,63; 5751,106;  218,419;16277,298;34,45251
 960,18; 5737,183;  225,958;16233,375;34,42920
 960,73; 5758,490;  220,496;16162,913;34,73748
 961,28; 5726,337;  192,419;16069,144;34,85553
 961,83; 5775,029;  221,419;16084,990;35,00857
 962,39; 5710,644;  191,881;15888,298;35,15938
 962,94; 5730,567;  244,035;15752,683;35,37725
 963,49; 5692,490;  225,650;15728,683;35,26304
 964,04; 5710,106;  225,881;15720,221;35,39502
 964,59; 5677,721;  182,112;15514,375;35,84343
 965,14; 5692,952;  236,342;15509,913;35,72583
 965,69; 5648,952;  217,804;15353,837;35,88224
 966,24; 5634,106;  202,496;15263,606;36,06381
 966,79; 5626,567;  226,035;15219,375;36,01954
 967,34; 5566,490;  188,112;15061,067;36,16214
 967,89; 5567,798;  205,112;15009,606;36,22337
 968,44; 5551,875;  218,650;14912,298;36,29613
 968,99; 5551,490;  225,650;14862,452;36,38664
 969,55; 5587,029;  219,958;14754,529;36,92624
 970,10; 5551,490;  231,112;14645,529;36,91012
 970,65; 5535,644;  244,650;14603,529;36,84824
 971,20; 5467,337;  209,650;14477,452;36,85001
 971,75; 5444,875;  190,727;14310,221;37,21201
 972,30; 5462,490;  219,496;14272,067;37,30986
 972,85; 5451,798;  213,650;14228,144;37,37665
 973,40; 5366,337;  207,881;14061,606;37,23515
 973,95; 5399,106;  223,496;14010,298;37,54032
 974,50; 5408,644;  256,035;13902,529;37,75775
 975,05; 5344,721;  218,265;13838,837;37,63760
 975,60; 5318,721;  232,265;13767,144;37,58036
 976,15; 5325,490;  203,265;13668,144;38,04137
 976,70; 5264,567;  218,573;13569,913;37,79391
 977,25; 5221,413;  231,188;13530,221;37,52322
 977,80; 5184,875;  212,419;13381,683;37,75804
 978,35; 5119,490;  236,727;13185,606;37,70800
 978,89; 5107,644;  197,112;13128,760;37,97298
 979,44; 5084,798;  227,265;13108,375;37,71051
 979,99; 5029,260;  213,573;12933,606;37,85907
 980,54; 5006,567;  236,342;12832,990;37,86900
 981,09; 4973,490;  237,265;12713,760;37,96118
 981,64; 4957,567;  219,035;12605,913;38,25445
 982,19; 4992,567;  259,112;12582,067;38,41169
 982,74; 4866,490;  235,188;12442,683;37,93819
 983,29; 4816,644;  205,573;12301,606;38,12052
 983,84; 4809,413;  217,342;12210,452;38,28925
 984,39; 4901,798;  310,727;12187,837;38,65478
 984,94; 4771,567;  189,573;12031,529;38,69288
 985,49; 4802,875;  245,188;11977,760;38,84644
 986,03; 4768,337;  238,804;11891,221;38,87204
 986,58; 4788,567;  274,265;11750,606;39,33573
 987,13; 4702,413;  230,573;11627,452;39,23741
 987,68; 4641,337;  235,419;11578,913;38,84092
 988,23; 4666,721;  237,265;11425,837;39,58911
 988,78; 4628,798;  208,958;11294,375;39,87076
 989,33; 4617,029;  233,727;11213,760;39,92066
 989,88; 4636,029;  257,035;11183,760;40,07600
 990,42; 4558,952;  215,265;11048,375;40,09640
 990,97; 4517,490;  226,419;10869,990;40,31608
 991,52; 4548,721;  247,496;10839,375;40,60871
 992,07; 4514,106;  267,342;10761,760;40,46688
 992,62; 4462,644;  230,804;10614,913;40,75304
 993,17; 4438,106;  241,727;10543,298;40,73533
 993,71; 4414,490;  248,112;10428,990;40,92357
 994,26; 4347,721;  221,112;10257,144;41,11794
 994,81; 4353,029;  246,881;10238,529;41,09580
 995,36; 4244,490;  223,035;10079,144;40,80165
 995,91; 4252,567;  238,727;10039,837;40,95292
 996,45; 4241,029;  222,188; 9938,298;41,36265
 997,00; 4164,183;  200,496; 9753,837;41,49006
 997,55; 4172,567;  236,342; 9709,067;41,55325
 998,10; 4133,183;  261,188; 9612,375;41,40645
 998,65; 4118,875;  229,496; 9535,760;41,79313
 999,19; 4083,875;  252,650; 9417,606;41,80298
 999,74; 4043,337;  273,573; 9292,683;41,79751
1000,29; 4002,798;  232,881; 9223,606;41,93118
1000,84; 3971,798;  220,265; 9081,606;42,33595
1001,38; 3920,644;  228,342; 9033,529;41,93326
1001,93; 3905,952;  245,035; 8918,144;42,20997
1002,48; 3795,875;  218,804; 8759,144;41,88441
1003,03; 3828,337;  249,035; 8755,221;42,07881
1003,57; 3777,644;  239,727; 8630,144;42,16617
1004,12; 3781,952;  281,958; 8567,144;42,24400
1004,67; 3731,029;  232,881; 8431,760;42,66618
1005,22; 3648,183;  224,727; 8295,529;42,41779
1005,76; 3587,798;  211,112; 8157,144;42,49525
1006,31; 3612,798;  244,650; 8153,221;42,58858
1006,86; 3506,798;  221,804; 7995,606;42,25724
1007,40; 3495,106;  224,342; 7862,067;42,82379
1007,95; 3454,260;  233,342; 7785,067;42,65141
1008,50; 3401,106;  242,727; 7646,144;42,66109
1009,04; 3372,183;  231,496; 7607,221;42,58139
1009,59; 3315,721;  244,265; 7390,837;42,97803
1010,14; 3270,798;  221,958; 7335,683;42,85856
1010,68; 3229,337;  247,035; 7225,375;42,73655
1011,23; 3204,106;  238,650; 7128,298;43,04220
1011,78; 3166,183;  241,804; 7045,298;42,98348
1012,32; 3179,952;  273,112; 7006,067;43,17332
1012,87; 3143,029;  259,496; 6934,683;43,19778
1013,42; 3055,490;  214,035; 6801,067;43,13711
1013,96; 3071,644;  269,112; 6798,606;42,92113
1014,51; 3013,029;  200,573; 6707,760;43,22076
1015,06; 2990,337;  213,650; 6650,529;43,13716
1015,60; 3072,183;  269,035; 6763,760;43,16038
1016,15; 3016,260;  212,265; 6685,144;43,31912
1016,69; 3063,644;  227,727; 6729,683;43,61637
1017,24; 3046,875;  209,496; 6737,760;43,46300
1017,79; 3122,798;  268,727; 6799,298;43,70324
1018,33; 3078,567;  224,419; 6773,837;43,57866
1018,88; 3164,183;  241,573; 6855,067;44,19161
1019,42; 3137,183;  221,573; 6823,298;44,16436
1019,97; 3122,875;  212,573; 6828,067;43,99221
1020,51; 3194,644;  264,496; 6893,221;44,20380
1021,06; 3154,029;  203,035; 6810,144;44,66392
1021,61; 3108,875;  194,188; 6830,760;43,91856
1022,15; 3125,413;  176,342; 6789,913;44,59121
1022,70; 3146,721;  225,881; 6764,837;44,66830
1023,24; 3107,029;  206,419; 6717,067;44,55178
1023,79; 3101,875;  222,342; 6647,529;44,81633
1024,33; 3065,875;  219,496; 6598,606;44,62032
1024,88; 3057,413;  229,958; 6522,452;44,93378
1025,42; 3002,106;  234,881; 6438,144;44,60918
1025,97; 2944,183;  217,265; 6336,298;44,56452
1026,51; 2845,106;  183,419; 6218,683;44,10224
1027,06; 2864,260;  210,112; 6161,837;44,59460
1027,60; 2830,721;  229,342; 6089,375;44,39188
1028,15; 2795,106;  242,188; 5973,144;44,54610
1028,69; 2684,875;  180,881; 5842,144;44,23031
1029,24; 2706,567;  202,804; 5803,452;44,70489
1029,78; 2650,413;  211,573; 5682,375;44,57921
1030,33; 2597,875;  203,035; 5578,067;44,55490
1030,87; 2607,798;  218,112; 5510,913;45,14974
1031,42; 2549,029;  198,265; 5445,760;44,79783
1031,96; 2517,721;  237,881; 5380,760;44,33004
1032,51; 2468,952;  210,958; 5291,298;44,44573
1033,05; 2493,337;  225,342; 5215,683;45,44769
1033,60; 2400,644;  192,727; 5095,683;45,03237
1034,14; 2406,183;  204,496; 5053,683;45,40321
1034,69; 2361,337;  216,881; 4969,221;45,12420
1035,23; 2336,029;  217,958; 4896,683;45,27026
1035,77; 2320,952;  220,958; 4843,221;45,43216
1036,32; 2247,029;  185,958; 4749,067;45,16813
1036,86; 2273,029;  224,804; 4717,606;45,58903
1037,41; 2236,721;  239,496; 4641,298;45,37290
1037,95; 2177,413;  194,265; 4572,529;45,29531
1038,50; 2175,106;  209,650; 4526,913;45,52550
1039,04; 2164,644;  226,188; 4475,760;45,61533
1039,58; 2143,183;  196,112; 4386,067;46,46997
1040,13; 2084,183;  209,727; 4335,144;45,43676
1040,67; 2123,721;  253,419; 4329,606;45,88362
1041,21; 2096,183;  249,496; 4212,606;46,59691
1041,76; 2035,644;  205,112; 4137,913;46,54526
1042,30; 2007,029;  212,188; 4111,067;46,03478
1042,85; 1980,644;  210,265; 4038,298;46,24775
1043,39; 1944,952;  204,881; 3958,221;46,36060
1043,93; 1961,567;  236,419; 3959,990;46,33047
1044,48; 1905,183;  227,958; 3868,298;46,07330
1045,02; 1876,337;  208,650; 3796,298;46,48412
1045,56; 1907,567;  242,881; 3765,144;47,26184
1046,11; 1822,029;  216,958; 3727,683;45,71908
1046,65; 1824,644;  229,727; 3693,760;46,04221
1047,19; 1778,337;  204,958; 3608,760;46,22416
1047,74; 1733,413;  188,496; 3572,529;45,65314
1048,28; 1760,644;  218,650; 3489,144;47,14866
1048,82; 1754,260;  250,727; 3482,067;46,52969
1049,37; 1719,337;  238,573; 3426,452;46,44980
1049,91; 1701,644;  229,112; 3396,298;46,49340
1050,45; 1678,260;  231,035; 3336,760;46,59862
1050,99; 1650,413;  227,342; 3293,606;46,41060
1051,54; 1605,798;  205,727; 3239,606;46,14789
1052,08; 1616,644;  238,727; 3191,375;46,66717
1052,62; 1579,721;  232,188; 3154,990;46,10414
1053,16; 1555,952;  219,112; 3093,837;46,50324
1053,71; 1543,183;  228,035; 3072,683;46,23236
1054,25; 1508,106;  230,035; 2999,990;46,14049
1054,79; 1486,490;  228,035; 2992,221;45,52717
1055,33; 1446,567;  196,573; 2899,913;46,23888
1055,88; 1446,106;  219,804; 2909,606;45,59079
1056,42; 1422,875;  240,188; 2868,837;44,99220
1056,96; 1454,798;  241,804; 2811,067;47,21175
1057,50; 1417,567;  228,496; 2782,606;46,55521
1058,05; 1363,183;  220,727; 2720,990;45,69342
1058,59; 1378,029;  255,112; 2713,067;45,68501
1059,13; 1317,567;  203,958; 2657,837;45,38161
1059,67; 1341,721;  233,419; 2638,298;46,08556
1060,21; 1308,798;  232,804; 2584,375;45,75640
1060,76; 1293,952;  231,496; 2549,221;45,84046
1061,30; 1323,337;  243,650; 2509,221;47,65626
1061,84; 1261,490;  232,804; 2471,529;45,94966
1062,38; 1231,260;  206,650; 2390,452;46,91861
1062,92; 1272,952;  275,727; 2431,221;46,26433
1063,46; 1225,260;  240,804; 2367,529;46,28975
1064,01; 1208,721;  219,112; 2318,375;47,14080
1064,55; 1195,029;  234,265; 2290,837;46,71676
1065,09; 1152,798;  212,804; 2254,913;46,03055
1065,63; 1197,644;  258,727; 2261,990;46,86939
1066,17; 1196,106;  275,573; 2229,990;47,10011
1066,71; 1158,260;  261,573; 2204,913;46,14151
1067,25; 1148,798;  226,419; 2139,452;48,21553
1067,80; 1138,337;  245,804; 2142,452;47,05842
1068,34; 1149,952;  274,342; 2126,221;47,28223
1068,88; 1079,952;  226,958; 2069,837;46,28596
1069,42; 1088,106;  252,881; 2093,683;45,37289
1069,96; 1069,413;  227,804; 2022,990;46,88146
1070,50; 1085,875;  269,650; 2030,375;46,35732
1071,04; 1017,106;  224,573; 1976,375;45,24100
1071,58; 1036,260;  224,573; 1945,837;47,15644
1072,12; 1023,721;  231,265; 1955,529;45,95909
1072,66; 1009,644;  225,727; 1906,837;46,63095
1073,21; 1020,721;  251,342; 1913,606;46,28501
1073,75;  986,875;  237,727; 1859,221;46,20109
1074,29;  981,183;  236,881; 1834,221;46,59633
1074,83;  997,337;  252,727; 1831,606;47,16066
1075,37;  979,490;  259,419; 1789,298;47,06720
1075,91;  963,029;  249,112; 1781,529;46,58766
1076,45;  943,029;  250,727; 1764,452;45,73499
1076,99;  939,567;  249,573; 1732,375;46,53314
1077,53;  920,644;  226,419; 1698,760;47,15112
1078,07;  923,413;  242,727; 1700,144;46,70499
1078,61;  897,029;  244,188; 1684,529;45,32542
1079,15;  888,260;  236,035; 1652,298;46,05252
1079,69;  893,029;  236,727; 1634,221;46,96276
1080,23;  880,952;  271,727; 1651,837;44,14323
1080,77;  935,644;  303,188; 1674,452;46,12212
1081,31;  847,798;  230,650; 1580,067;45,73441
1081,85;  869,337;  259,804; 1603,760;45,35363
1082,39;  843,490;  236,419; 1540,913;46,53690
1082,93;  851,644;  249,573; 1540,606;46,63485
1083,47;  816,413;  234,035; 1491,529;46,31265
1084,01;  827,106;  245,342; 1497,375;46,46552
1084,55;  805,029;  235,342; 1470,375;46,12724
1085,09;  804,644;  249,265; 1468,760;45,54174
1085,63;  798,106;  242,804; 1445,298;46,17918
1086,17;  785,106;  240,419; 1409,144;46,60519
1086,71;  755,106;  219,573; 1393,913;45,60285
1087,24;  787,106;  258,958; 1399,529;46,30558
1087,78;  780,798;  266,727; 1404,606;45,17802
1088,32;  745,721;  223,881; 1352,606;46,23273
1088,86;  763,183;  252,804; 1361,298;46,04254
1089,40;  760,413;  242,112; 1338,683;47,26569
1089,94;  709,952;  218,804; 1302,529;45,32036
1090,48;  733,952;  240,650; 1276,221;47,63573
1091,02;  739,337;  256,727; 1300,990;46,21531
1091,56;  710,875;  235,573; 1257,067;46,53006
1092,10;  688,106;  212,496; 1237,837;46,38553
1092,63;  730,490;  262,881; 1258,990;46,94359
1093,17;  697,413;  239,650; 1245,298;45,51925
1093,71;  677,644;  229,496; 1209,683;45,72069
1094,25;  718,029;  269,573; 1226,683;46,85522
1094,79;  666,029;  236,188; 1192,760;44,93554
1095,33;  671,567;  243,958; 1179,529;45,70573
1095,87;  671,952;  233,573; 1156,067;47,52104
1096,40;  635,567;  216,573; 1132,913;45,72474
1096,94;  658,413;  244,958; 1138,683;46,26208
1097,48;  656,106;  255,958; 1142,760;45,12260
1098,02;  638,875;  232,958; 1094,529;47,11361
1098,56;  608,183;  217,419; 1069,067;45,88321
1099,10;  612,721;  221,573; 1062,144;46,53361
1099,63;  598,490;  212,958; 1043,837;46,40059
1100,17;  606,183;  240,496; 1067,529;44,21670
1100,71;  632,106;  271,727; 1064,913;45,43431

