
Integration time [ms]: 160,000
Averaging Nr. [scans]: 13
Smoothing Nr. [pixels]: 0
Data measured with spectrometer [name]: 2009305U1
Wave   ;Sample   ;Dark     ;Reference;Reflectance
[nm]   ;[counts] ;[counts] ;[counts] ;[%]

 175,72;  216,169;  221,350;  228,728;-70,23258
 176,32;  246,739;  238,954;  240,531;493,67624
 176,92;  292,444;  291,039;  289,640; 0,00000
 177,52;  271,389;  271,733;  277,401;-6,06852
 178,12;  249,482;  247,031;  248,036;243,90895
 178,72;  284,719;  285,643;  277,638; 0,00000
 179,32;  269,727;  284,184;  262,408; 0,00000
 179,92;  272,861;  268,881;  272,660;105,33294
 180,52;  259,844;  263,049;  266,586;-90,60131
 181,12;  281,324;  284,574;  282,578; 0,00000
 181,73;  300,768;  292,652;  296,881;191,94350
 182,33;  408,275;  397,890;  417,136;53,95692
 182,93;  292,265;  290,963;  295,910;26,32312
 183,53;  259,528;  258,180;  243,740; 0,00000
 184,13;  258,761;  258,874;  250,885; 0,00000
 184,73;  313,341;  306,794;  303,394; 0,00000
 185,33;  278,209;  260,800;  373,908;15,39168
 185,93;  284,126;  253,483;  379,369;24,34190
 186,53;  297,403;  264,719;  402,883;23,65586
 187,13;  323,133;  287,420;  419,772;26,98271
 187,73;  284,155;  260,100;  388,086;18,79522
 188,33;  280,294;  254,095;  389,542;19,34249
 188,93;  306,101;  266,003;  406,332;28,57435
 189,53;  297,225;  268,991;  406,810;20,48635
 190,13;  326,922;  316,356;  458,051; 7,45698
 190,73;  267,993;  234,677;  381,566;22,68073
 191,34;  301,256;  281,306;  433,694;13,09133
 191,94;  284,867;  262,013;  385,124;18,56361
 192,54;  294,882;  265,120;  407,766;20,86411
 193,14;  311,273;  287,881;  417,654;18,02567
 193,74;  307,975;  288,495;  407,401;16,38266
 194,34;  297,392;  282,422;  401,412;12,58126
 194,94;  266,535;  237,189;  367,239;22,56516
 195,54;  236,863;  219,800;  337,060;14,55178
 196,14;  261,180;  249,347;  378,001; 9,19759
 196,74;  262,591;  243,875;  367,071;15,19212
 197,34;  235,681;  210,275;  361,325;16,81930
 197,94;  267,587;  234,805;  386,894;21,55419
 198,54;  280,322;  268,424;  406,032; 8,64660
 199,14;  250,320;  231,971;  379,231;12,46055
 199,74;  235,828;  220,048;  382,030; 9,74199
 200,34;  230,615;  212,511;  392,239;10,07297
 200,94;  269,056;  253,428;  428,302; 8,93658
 201,54;  258,276;  231,123;  426,455;13,90070
 202,14;  301,915;  265,436;  491,949;16,10434
 202,74;  251,701;  238,817;  478,294; 5,38000
 203,34;  246,532;  212,056;  474,759;13,12379
 203,94;  221,224;  183,206;  491,406;12,33528
 204,54;  282,169;  262,806;  566,906; 6,36721
 205,14;  230,847;  208,586;  547,493; 6,56846
 205,74;  285,901;  265,209;  650,699; 5,36768
 206,34;  248,934;  221,821;  658,027; 6,21561
 206,94;  263,408;  238,050;  690,019; 5,61064
 207,54;  223,268;  202,897;  731,676; 3,85234
 208,14;  258,196;  218,283;  800,531; 6,85502
 208,74;  261,258;  224,740;  876,680; 5,60149
 209,34;  257,252;  221,587;  926,797; 5,05738
 209,94;  265,917;  230,740; 1023,076; 4,43959
 210,54;  259,656;  217,746; 1113,432; 4,67912
 211,14;  275,670;  229,202; 1187,632; 4,84841
 211,73;  276,925;  227,507; 1280,059; 4,69501
 212,33;  300,317;  232,966; 1382,887; 5,85699
 212,93;  274,396;  227,278; 1453,159; 3,84362
 213,53;  243,228;  199,509; 1491,633; 3,38346
 214,13;  283,764;  223,520; 1617,035; 4,32315
 214,73;  264,299;  196,206; 1608,103; 4,82286
 215,33;  244,071;  188,202; 1640,999; 3,84560
 215,93;  288,170;  227,286; 1745,779; 4,00950
 216,53;  257,830;  183,431; 1802,130; 4,59621
 217,13;  316,691;  231,669; 1983,723; 4,85269
 217,73;  310,262;  215,748; 2139,146; 4,91395
 218,33;  276,066;  174,291; 2281,691; 4,82941
 218,93;  331,880;  206,992; 2580,997; 5,26063
 219,53;  337,574;  218,291; 2833,644; 4,56087
 220,13;  313,492;  173,370; 3083,834; 4,81443
 220,73;  366,394;  199,587; 3369,367; 5,26243
 221,32;  378,950;  205,894; 3736,218; 4,90201
 221,92;  414,495;  215,523; 4067,237; 5,16581
 222,52;  407,929;  184,748; 4463,728; 5,21574
 223,12;  445,914;  190,364; 4823,510; 5,51569
 223,72;  469,191;  207,979; 5230,079; 5,20124
 224,32;  484,354;  206,442; 5556,645; 5,19442
 224,92;  497,715;  185,749; 5840,168; 5,51720
 225,52;  541,916;  216,666; 6187,741; 5,44710
 226,12;  552,787;  193,669; 6489,571; 5,70399
 226,72;  535,613;  176,668; 6784,036; 5,43249
 227,31;  553,743;  173,207; 7125,944; 5,47319
 227,91;  628,134;  223,588; 7518,546; 5,54556
 228,51;  616,903;  186,121; 7861,682; 5,61239
 229,11;  658,562;  198,129; 8205,761; 5,74992
 229,71;  674,019;  191,585; 8483,037; 5,81844
 230,31;  700,249;  177,520; 8887,973; 6,00116
 230,91;  710,226;  183,426; 9150,927; 5,87454
 231,51;  751,085;  181,670; 9397,670; 6,17855
 232,10;  790,781;  187,214; 9723,244; 6,32934
 232,70;  851,007;  193,345; 9906,566; 6,77080
 233,30;  896,800;  221,901;10147,458; 6,79961
 233,90;  882,699;  177,131;10258,982; 6,99840
 234,50;  901,305;  177,978;10299,162; 7,14666
 235,10;  908,715;  184,211;10351,245; 7,12601
 235,70;  976,384;  222,280;10359,393; 7,43904
 236,29;  971,077;  198,047;10284,805; 7,66381
 236,89;  971,708;  170,042;10205,385; 7,98842
 237,49; 1007,160;  205,592;10080,602; 8,11713
 238,09; 1008,472;  193,436; 9765,643; 8,51461
 238,69; 1062,149;  249,501; 9543,108; 8,74417
 239,29; 1006,009;  191,589; 9259,955; 8,98089
 239,89; 1020,192;  198,042; 8902,169; 9,44552
 240,48;  998,141;  179,051; 8514,705; 9,82634
 241,08; 1022,308;  193,512; 8143,543;10,42508
 241,68; 1013,884;  211,667; 7876,056;10,46681
 242,28; 1011,672;  183,285; 7518,107;11,29390
 242,88; 1035,349;  241,597; 7261,911;11,30650
 243,48; 1048,806;  229,130; 7006,879;12,09362
 244,07;  998,034;  213,357; 6722,839;12,05437
 244,67; 1020,058;  212,899; 6582,668;12,67172
 245,27; 1040,540;  228,815; 6424,751;13,10093
 245,87; 1063,117;  225,212; 6333,608;13,71726
 246,47; 1056,717;  205,661; 6346,304;13,85939
 247,06; 1054,998;  194,281; 6293,678;14,11150
 247,66; 1081,558;  183,898; 6372,593;14,50482
 248,26; 1145,168;  216,508; 6500,869;14,77732
 248,86; 1181,194;  220,584; 6700,133;14,82526
 249,46; 1165,962;  161,670; 6876,563;14,95618
 250,05; 1275,664;  216,205; 7209,260;15,15016
 250,65; 1301,385;  186,122; 7504,063;15,24012
 251,25; 1384,535;  191,742; 7984,683;15,30607
 251,85; 1455,773;  188,119; 8510,801;15,23132
 252,44; 1538,081;  161,278; 9065,050;15,46314
 253,04; 1679,548;  214,664; 9744,674;15,37128
 253,64; 1733,372;  162,813;10375,791;15,37807
 254,24; 1899,464;  209,666;11264,384;15,28576
 254,84; 2025,731;  195,055;12186,563;15,26644
 255,43; 2161,262;  186,740;13049,617;15,35055
 256,03; 2281,511;  189,044;14060,880;15,08428
 256,63; 2397,838;  201,811;15064,293;14,77564
 257,23; 2516,712;  189,196;15932,476;14,78419
 257,82; 2670,279;  206,269;16888,328;14,77042
 258,42; 2718,148;  174,344;17775,909;14,45215
 259,02; 2917,259;  215,587;18723,906;14,59707
 259,62; 2968,954;  182,189;19439,839;14,47095
 260,21; 3060,016;  207,509;19982,326;14,42495
 260,81; 3070,155;  192,284;20528,972;14,15113
 261,41; 3102,762;  186,114;21073,040;13,96399
 262,01; 3201,555;  220,341;21566,648;13,96595
 262,60; 3169,789;  183,196;21934,399;13,73070
 263,20; 3213,482;  188,199;22289,367;13,68834
 263,80; 3209,497;  216,802;22522,880;13,41650
 264,40; 3139,403;  175,803;22719,413;13,14607
 264,99; 3158,973;  201,494;22928,175;13,01325
 265,59; 3181,218;  189,488;23066,913;13,07722
 266,19; 3156,698;  173,418;23260,756;12,92171
 266,78; 3147,189;  236,107;23450,835;12,53981
 267,38; 3106,105;  209,797;23461,599;12,45627
 267,98; 3079,051;  199,184;23533,356;12,34184
 268,58; 3067,620;  200,259;23523,661;12,29393
 269,17; 2992,609;  179,716;23512,669;12,05546
 269,77; 2975,674;  196,656;23370,116;11,99225
 270,37; 2921,377;  175,263;23314,561;11,86775
 270,96; 2914,882;  233,423;23146,282;11,70286
 271,56; 2826,123;  186,734;22931,509;11,60437
 272,16; 2745,173;  186,729;22755,689;11,33612
 272,75; 2748,893;  189,653;22693,717;11,37235
 273,35; 2696,418;  195,193;22638,726;11,14453
 273,95; 2672,862;  204,422;22610,363;11,01690
 274,54; 2645,452;  190,743;22648,723;10,93023
 275,14; 2689,191;  224,424;22926,278;10,85712
 275,74; 2621,054;  167,576;22932,673;10,77737
 276,33; 2714,640;  231,656;23472,363;10,68377
 276,93; 2717,800;  216,821;23659,332;10,66856
 277,53; 2752,046;  194,816;24168,681;10,66674
 278,12; 2767,294;  183,812;24605,180;10,57877
 278,72; 2894,049;  260,277;25288,238;10,52332
 279,32; 2889,052;  201,046;25753,025;10,51976
 279,91; 2933,320;  169,276;26534,032;10,48386
 280,51; 3020,743;  183,894;26925,233;10,60848
 281,11; 3133,219;  200,122;27651,632;10,68465
 281,70; 3159,495;  182,659;27985,282;10,70703
 282,30; 3267,969;  194,119;28718,355;10,77627
 282,90; 3304,242;  182,273;29026,371;10,82360
 283,49; 3421,157;  208,270;29607,909;10,92832
 284,09; 3507,764;  231,121;30055,054;10,98662
 284,69; 3586,586;  225,815;30344,011;11,15861
 285,28; 3666,641;  216,274;30656,793;11,33478
 285,88; 3823,677;  284,268;30963,782;11,53672
 286,47; 3818,349;  202,349;31073,495;11,71320
 287,07; 3913,467;  233,277;31119,072;11,91548
 287,67; 4072,190;  217,746;31224,572;12,43096
 288,26; 4133,782;  194,199;31170,104;12,71822
 288,86; 4266,260;  182,890;31231,422;13,15157
 289,46; 4456,258;  207,430;31414,169;13,61510
 290,05; 4625,488;  188,742;31388,114;14,22063
 290,65; 4800,317;  194,195;31605,991;14,66367
 291,24; 5022,630;  209,123;31777,254;15,24799
 291,84; 5213,377;  210,734;31890,063;15,79150
 292,44; 5465,607;  200,900;31990,845;16,56092
 293,03; 5721,464;  284,123;32148,054;17,06425
 293,63; 5848,295;  190,734;32269,664;17,63638
 294,22; 6086,462;  221,276;32421,063;18,21498
 294,82; 6200,176;  206,342;32424,811;18,60372
 295,41; 6280,495;  178,583;32177,128;19,06934
 296,01; 6485,414;  219,113;32151,970;19,62336
 296,61; 6535,572;  222,277;31974,716;19,88287
 297,20; 6535,026;  199,652;31570,875;20,19486
 297,80; 6637,748;  219,589;31479,908;20,53133
 298,39; 6637,234;  190,965;31055,878;20,88543
 298,99; 6718,675;  222,884;30935,682;21,15011
 299,58; 6758,935;  213,360;30769,023;21,42181
 300,18; 6810,901;  230,281;30562,451;21,69518
 300,78; 6740,593;  192,740;30259,786;21,77751
 301,37; 6812,245;  222,031;30271,811;21,93099
 301,97; 6813,389;  219,814;30207,692;21,98747
 302,56; 6857,222;  205,272;30133,759;22,22615
 303,16; 6858,862;  175,501;30076,182;22,35187
 303,75; 6903,837;  196,895;30101,519;22,42778
 304,35; 6977,933;  180,979;30278,819;22,58286
 304,94; 7029,317;  199,892;30312,398;22,67970
 305,54; 7056,797;  230,278;30270,449;22,72463
 306,13; 6978,422;  171,210;30180,309;22,68383
 306,73; 6986,187;  176,515;30031,553;22,80912
 307,33; 7027,843;  212,899;29971,112;22,90105
 307,92; 7064,795;  225,200;30029,300;22,94850
 308,52; 7128,604;  177,424;30419,230;22,98533
 309,11; 7247,944;  198,189;30918,173;22,94843
 309,71; 7357,259;  194,418;31232,463;23,07762
 310,30; 7426,537;  180,046;31345,579;23,25162
 310,90; 7592,768;  237,738;31660,656;23,40658
 311,49; 7534,255;  204,430;31899,073;23,12638
 312,09; 7567,693;  166,050;32015,004;23,23983
 312,68; 7765,612;  265,817;32423,787;23,32173
 313,28; 7726,949;  175,816;32528,300;23,34020
 313,87; 7739,060;  170,815;32705,288;23,26223
 314,47; 7804,192;  191,498;32939,305;23,24642
 315,06; 7819,699;  182,354;33083,606;23,21293
 315,66; 7900,308;  180,281;33179,389;23,39466
 316,25; 7890,374;  167,656;33146,533;23,41717
 316,85; 7864,905;  163,127;33243,080;23,28231
 317,44; 7952,752;  186,651;33474,171;23,33037
 318,04; 7923,265;  170,734;33415,463;23,31958
 318,63; 7871,583;  163,285;33433,061;23,16907
 319,22; 7943,644;  193,348;33675,300;23,14768
 319,82; 7911,263;  193,889;33717,671;23,02059
 320,41; 7926,902;  209,272;33592,252;23,11846
 321,01; 7932,904;  210,203;33649,777;23,09449
 321,60; 7899,498;  214,044;33761,916;22,90892
 322,20; 7907,953;  179,662;33683,083;23,06717
 322,79; 7903,865;  221,124;33841,575;22,85139
 323,39; 7879,824;  183,440;33776,853;22,91040
 323,98; 7859,181;  178,663;33750,680;22,87774
 324,58; 7814,461;  189,270;33687,660;22,76286
 325,17; 7757,621;  180,810;33443,439;22,77875
 325,76; 7763,682;  210,276;33347,936;22,79402
 326,36; 7650,407;  172,972;32984,870;22,78879
 326,95; 7625,910;  221,428;32748,945;22,76375
 327,55; 7500,963;  175,274;32374,703;22,75099
 328,14; 7386,130;  179,667;32062,813;22,60273
 328,74; 7353,098;  212,426;31598,268;22,75125
 329,33; 7243,568;  196,818;31200,209;22,72897
 329,92; 7081,102;  181,421;30755,879;22,56681
 330,52; 6910,476;  204,283;30117,810;22,41860
 331,11; 6800,818;  177,120;29659,808;22,46640
 331,71; 6691,166;  181,737;29158,032;22,46467
 332,30; 6602,317;  208,892;28617,860;22,50495
 332,89; 6541,210;  271,202;28184,012;22,46283
 333,49; 6332,845;  201,121;27689,221;22,30683
 334,08; 6191,644;  183,197;27282,504;22,17196
 334,68; 6109,909;  188,658;26867,795;22,19431
 335,27; 6043,909;  211,514;26475,067;22,20718
 335,86; 6031,433;  253,736;26302,808;22,18005
 336,46; 5906,528;  208,207;25971,696;22,11782
 337,05; 5836,333;  187,813;25847,024;22,01362
 337,65; 5742,075;  175,120;25673,226;21,83282
 338,24; 5836,608;  237,893;25612,773;22,06400
 338,83; 5747,677;  215,663;25493,510;21,88483
 339,43; 5743,994;  173,117;25399,931;22,08315
 340,02; 5697,808;  190,348;25338,812;21,89979
 340,61; 5695,226;  205,354;25325,945;21,85407
 341,21; 5742,483;  213,195;25321,576;22,02168
 341,80; 5698,466;  194,889;25274,489;21,94444
 342,40; 5691,161;  188,821;25395,471;21,82892
 342,99; 5720,056;  196,587;25462,473;21,86137
 343,58; 5734,568;  190,203;25751,209;21,69072
 344,18; 5762,335;  216,511;25840,191;21,64335
 344,77; 5836,158;  180,347;26084,751;21,83339
 345,36; 5854,218;  180,352;26311,868;21,71273
 345,96; 5982,899;  219,203;26593,378;21,85356
 346,55; 5986,828;  185,286;26870,021;21,74105
 347,14; 6097,196;  184,821;27180,993;21,90079
 347,74; 6128,479;  168,446;27560,408;21,75833
 348,33; 6293,082;  181,368;28136,058;21,86293
 348,92; 6446,226;  202,449;28784,361;21,84520
 349,52; 6500,431;  166,216;29263,278;21,76926
 350,11; 6581,084;  192,347;29454,769;21,83256
 350,70; 6617,807;  178,354;29531,884;21,93757
 351,29; 6524,396;  180,645;29313,281;21,77541
 351,89; 6516,086;  200,805;29349,666;21,66562
 352,48; 6529,926;  158,508;29259,054;21,89450
 353,07; 6526,209;  206,207;29310,881;21,71473
 353,67; 6547,004;  207,757;29228,542;21,84382
 354,26; 6466,669;  199,206;29060,193;21,71604
 354,85; 6448,093;  191,204;28880,987;21,80877
 355,45; 6377,215;  171,042;28670,492;21,77647
 356,04; 6375,206;  187,592;28685,785;21,71230
 356,63; 6398,453;  228,275;28453,035;21,86087
 357,22; 6308,265;  199,878;28234,038;21,78909
 357,82; 6293,030;  204,880;28117,920;21,81113
 358,41; 6328,512;  221,430;28064,876;21,93364
 359,00; 6275,467;  187,348;27803,516;22,04549
 359,60; 6251,673;  199,740;27806,881;21,92162
 360,19; 6204,942;  220,977;27601,335;21,85495
 360,78; 6154,051;  190,505;27436,057;21,88815
 361,37; 6165,405;  187,043;27241,548;22,09747
 361,97; 6138,758;  200,275;27147,094;22,03779
 362,56; 6082,103;  199,808;26910,847;22,02196
 363,15; 6135,870;  251,966;26731,413;22,22065
 363,74; 6028,942;  201,037;26281,535;22,34584
 364,34; 5950,101;  207,425;25966,286;22,29398
 364,93; 5859,237;  188,961;25522,389;22,38258
 365,52; 5777,125;  165,274;25187,116;22,42781
 366,11; 5771,555;  188,502;24933,408;22,56243
 366,71; 5708,336;  187,887;24586,531;22,62605
 367,30; 5640,503;  190,736;24292,160;22,61180
 367,89; 5642,497;  233,204;24046,526;22,71541
 368,48; 5587,189;  216,268;23697,441;22,87331
 369,07; 5460,884;  197,200;23289,961;22,79365
 369,67; 5476,321;  228,500;23048,114;22,99698
 370,26; 5359,900;  183,970;22685,944;23,00211
 370,85; 5358,037;  184,582;22547,916;23,13365
 371,44; 5318,073;  201,352;22334,126;23,11830
 372,03; 5256,190;  172,425;22048,717;23,23869
 372,63; 5213,353;  171,506;21776,482;23,33651
 373,22; 5181,756;  178,354;21511,917;23,45320
 373,81; 5116,564;  167,505;21240,562;23,48524
 374,40; 5126,910;  187,821;20968,089;23,76817
 374,99; 5088,658;  186,273;20698,029;23,90037
 375,59; 5043,067;  163,666;20414,492;24,09482
 376,18; 5071,224;  211,427;20351,443;24,13005
 376,77; 5036,751;  216,353;20121,139;24,21728
 377,36; 5024,387;  236,274;20056,009;24,15831
 377,95; 5006,968;  217,656;19774,360;24,48936
 378,55; 4986,211;  192,280;19605,623;24,69400
 379,14; 4994,144;  211,120;19553,655;24,72801
 379,73; 4988,060;  196,964;19487,035;24,83711
 380,32; 5063,846;  202,122;19531,909;25,15146
 380,91; 5023,855;  178,884;19377,331;25,23627
 381,50; 5034,611;  202,731;19339,262;25,24951
 382,10; 5036,154;  179,737;19249,448;25,46665
 382,69; 5058,186;  160,274;19161,133;25,77732
 383,28; 5108,204;  207,886;19212,704;25,78461
 383,87; 5086,873;  181,578;19039,843;26,01138
 384,46; 5094,134;  177,034;18988,872;26,13833
 385,05; 5150,599;  217,731;18927,601;26,36506
 385,64; 5163,325;  191,579;18959,485;26,49068
 386,24; 5193,118;  180,265;18894,812;26,78587
 386,83; 5274,129;  213,418;18936,940;27,02863
 387,42; 5299,802;  203,118;18964,775;27,16543
 388,01; 5424,575;  197,182;19223,934;27,47391
 388,60; 5515,893;  196,189;19433,129;27,65359
 389,19; 5618,208;  189,176;19655,460;27,88941
 389,78; 5722,548;  183,793;19837,575;28,18163
 390,37; 5940,387;  271,724;20310,996;28,28777
 390,96; 5982,960;  202,572;20383,491;28,64284
 391,56; 6047,154;  202,558;20552,272;28,72078
 392,15; 6151,873;  187,332;20866,554;28,84316
 392,74; 6239,734;  166,704;20966,147;29,19804
 393,33; 6343,141;  203,250;21213,384;29,22348
 393,92; 6503,538;  206,699;21655,724;29,35723
 394,51; 6610,676;  176,711;21866,755;29,66322
 395,10; 6786,862;  225,764;22101,314;29,99284
 395,69; 6877,165;  212,612;22242,580;30,25221
 396,28; 6952,331;  216,682;22245,400;30,57667
 396,87; 7034,341;  214,286;22425,953;30,70483
 397,46; 7105,341;  229,663;22479,039;30,90279
 398,06; 7260,961;  231,654;22697,551;31,28879
 398,65; 7278,827;  206,093;22761,344;31,35737
 399,24; 7397,601;  240,858;22934,490;31,53635
 399,83; 7457,589;  193,287;22982,281;31,87636
 400,42; 7561,597;  252,026;23091,961;32,00347
 401,01; 7678,802;  214,454;23248,404;32,40585
 401,60; 7699,558;  224,715;23278,956;32,42285
 402,19; 7764,606;  259,217;23192,181;32,72751
 402,78; 7844,242;  258,161;23200,066;33,06648
 403,37; 7807,832;  234,876;23026,889;33,22636
 403,96; 7836,224;  243,121;22905,868;33,50478
 404,55; 7862,663;  249,359;22831,347;33,71405
 405,14; 7841,934;  227,372;22724,469;33,84687
 405,73; 7913,024;  245,221;22582,833;34,32687
 406,32; 7914,335;  257,248;22607,576;34,25939
 406,91; 7896,973;  247,728;22298,561;34,68914
 407,50; 7903,343;  248,468;22125,148;34,99103
 408,09; 7834,783;  230,678;21915,768;35,06606
 408,68; 7859,061;  234,355;21747,124;35,44270
 409,27; 7837,440;  232,451;21652,345;35,50433
 409,86; 7905,690;  245,342;21378,752;36,24757
 410,45; 7922,860;  272,996;21418,843;36,17667
 411,04; 7926,670;  273,112;21264,713;36,46010
 411,63; 7857,729;  260,470;21092,829;36,46855
 412,22; 7797,553;  264,362;20868,600;36,56137
 412,81; 7785,205;  280,378;20613,485;36,90940
 413,40; 7748,552;  274,245;20311,251;37,30251
 413,99; 7695,942;  333,623;20044,731;37,35112
 414,58; 7507,860;  253,474;19706,355;37,29209
 415,17; 7483,020;  268,763;19448,668;37,61362
 415,76; 7505,781;  252,822;19349,071;37,98107
 416,35; 7454,134;  239,446;19140,915;38,16998
 416,94; 7513,564;  286,903;19074,158;38,46577
 417,53; 7641,096;  248,995;19354,184;38,69159
 418,12; 7619,244;  243,230;19439,731;38,42374
 418,71; 7838,099;  284,246;19706,202;38,89337
 419,30; 7883,005;  256,001;19859,061;38,90721
 419,89; 7994,629;  235,081;19991,057;39,27697
 420,48; 8132,311;  274,092;20346,816;39,14874
 421,07; 8198,901;  267,326;20413,290;39,37054
 421,66; 8241,327;  233,105;20370,577;39,76776
 422,25; 8299,128;  249,969;20348,113;40,04927
 422,84; 8349,249;  277,204;20392,323;40,12924
 423,43; 8260,003;  264,658;20128,119;40,25152
 424,02; 8205,747;  292,507;19873,592;40,41267
 424,60; 8045,142;  252,375;19507,154;40,47186
 425,19; 7970,813;  252,902;19220,506;40,68996
 425,78; 7962,215;  278,211;19103,022;40,81849
 426,37; 7902,154;  274,296;18958,381;40,82543
 426,96; 7914,046;  252,296;18934,795;41,01031
 427,55; 7870,973;  256,924;18678,053;41,33324
 428,14; 7777,700;  254,083;18552,824;41,11549
 428,73; 7724,035;  252,611;18422,202;41,12048
 429,32; 7776,509;  290,449;18353,049;41,44509
 429,91; 7802,351;  288,612;18367,998;41,55970
 430,50; 7800,641;  284,618;18148,472;42,07392
 431,08; 7762,755;  282,855;18042,701;42,11692
 431,67; 7740,841;  327,477;17930,131;42,11504
 432,26; 7738,438;  341,328;17824,532;42,30980
 432,85; 7573,874;  362,942;17543,296;41,97196
 433,44; 7527,029;  379,258;17161,744;42,59066
 434,03; 7390,073;  399,654;16842,407;42,51368
 434,62; 7227,357;  356,182;16416,894;42,78250
 435,21; 7146,614;  364,943;16209,706;42,80071
 435,79; 7114,220;  367,880;16128,660;42,80461
 436,38; 7105,491;  349,584;16008,001;43,14553
 436,97; 7097,844;  347,662;15868,008;43,49247
 437,56; 7019,492;  346,602;15656,105;43,58659
 438,15; 6975,232;  320,444;15568,958;43,64220
 438,74; 6988,465;  354,061;15587,950;43,55030
 439,33; 6999,773;  323,059;15621,746;43,64240
 439,91; 7014,289;  280,681;15696,183;43,68075
 440,50; 7083,574;  339,221;15757,318;43,74310
 441,09; 7139,150;  325,384;15865,591;43,84604
 441,68; 7124,984;  316,086;15762,048;44,08206
 442,27; 7122,013;  288,082;15786,285;44,09499
 442,86; 7140,052;  264,641;15793,513;44,27502
 443,44; 7211,969;  280,560;15849,150;44,52175
 444,03; 7257,015;  364,026;15925,664;44,29475
 444,62; 7176,388;  300,334;15796,618;44,37227
 445,21; 7119,076;  301,562;15589,170;44,59503
 445,80; 7114,990;  334,496;15603,079;44,40814
 446,39; 7085,137;  374,187;15336,920;44,85110
 446,97; 6946,533;  281,046;15119,052;44,92172
 447,56; 6878,564;  286,594;14918,986;45,05053
 448,15; 6811,860;  291,661;14742,668;45,11934
 448,74; 6714,350;  313,585;14480,231;45,18194
 449,33; 6628,384;  288,284;14363,441;45,04461
 449,91; 6588,405;  293,603;14171,397;45,35881
 450,50; 6472,625;  293,909;13907,147;45,38755
 451,09; 6465,842;  310,679;13865,463;45,40952
 451,68; 6412,876;  314,069;13796,854;45,23403
 452,26; 6392,311;  323,073;13692,305;45,39705
 452,85; 6308,564;  299,917;13536,583;45,39396
 453,44; 6340,517;  317,932;13593,996;45,36424
 454,03; 6285,500;  292,615;13514,642;45,32501
 454,61; 6291,807;  290,163;13501,144;45,42921
 455,20; 6395,650;  323,476;13760,533;45,18976
 455,79; 6392,190;  317,544;13642,796;45,58747
 456,38; 6370,812;  345,561;13833,321;44,67199
 456,97; 6438,358;  303,020;13822,457;45,38161
 457,55; 6436,418;  306,180;13860,162;45,22832
 458,14; 6417,659;  335,480;13867,067;44,94801
 458,73; 6407,401;  313,104;13801,310;45,18241
 459,31; 6437,368;  339,114;13834,693;45,18706
 459,90; 6438,461;  364,724;13907,888;44,84725
 460,49; 6585,222;  415,952;13994,811;45,43290
 461,08; 6502,687;  329,657;14060,299;44,95806
 461,66; 6561,945;  334,113;14105,541;45,22285
 462,25; 6557,658;  317,584;14213,216;44,90673
 462,84; 6627,285;  354,427;14254,602;45,12791
 463,43; 6526,201;  297,132;14216,271;44,75183
 464,01; 6529,023;  323,829;14177,817;44,78995
 464,60; 6588,942;  383,129;14173,043;45,00255
 465,19; 6465,369;  299,985;13961,402;45,12990
 465,77; 6446,342;  326,683;13918,853;45,02342
 466,36; 6382,674;  345,901;13874,778;44,62139
 466,95; 6219,691;  312,518;13567,987;44,56404
 467,53; 6112,259;  337,380;13214,685;44,84539
 468,12; 6044,488;  358,228;13021,432;44,90380
 468,71; 5922,221;  328,679;12749,104;45,03503
 469,29; 5792,143;  304,999;12468,887;45,11012
 469,88; 5670,565;  317,003;12284,911;44,73265
 470,47; 5815,874;  391,780;12408,667;45,13726
 471,06; 5732,540;  344,165;12352,326;44,87261
 471,64; 5746,483;  332,778;12436,431;44,72785
 472,23; 5688,905;  309,334;12463,542;44,26098
 472,81; 5749,008;  303,941;12588,661;44,32390
 473,40; 5791,997;  329,257;12676,832;44,24140
 473,99; 5926,021;  438,488;12888,309;44,07720
 474,57; 5872,178;  328,872;12954,635;43,90472
 475,16; 5943,110;  346,173;13155,975;43,69261
 475,75; 5986,468;  362,878;13245,570;43,65229
 476,33; 5997,940;  362,346;13313,996;43,51255
 476,92; 6032,184;  362,182;13404,947;43,47240
 477,51; 6030,643;  351,420;13482,689;43,24961
 478,09; 6068,766;  357,267;13479,488;43,52540
 478,68; 5999,651;  363,423;13403,690;43,22172
 479,27; 6039,199;  383,956;13455,414;43,26406
 479,85; 5965,612;  347,115;13425,692;42,95954
 480,44; 6002,979;  347,426;13599,967;42,67523
 481,02; 6538,964;  362,893;14695,536;43,09094
 481,61; 7302,103;  389,199;16660,349;42,48565
 482,20; 7724,484;  366,971;17839,304;42,10951
 482,78; 8055,323;  395,194;18735,281;41,76713
 483,37; 8246,571;  385,979;19256,703;41,65496
 483,95; 8358,674;  432,058;19501,709;41,56665
 484,54; 8402,736;  426,351;19741,432;41,29615
 485,13; 8320,177;  381,835;19716,562;41,05743
 485,71; 8228,292;  363,755;19411,745;41,28802
 486,30; 8157,647;  409,832;19176,852;41,28420
 486,88; 8060,269;  473,450;18926,318;41,11458
 487,47; 7762,045;  421,990;18160,631;41,37890
 488,05; 7413,039;  412,147;17364,721;41,29692
 488,64; 6876,226;  401,308;16152,162;41,10836
 489,23; 6272,922;  432,380;14500,850;41,51512
 489,81; 5443,568;  427,228;12361,254;42,03392
 490,40; 5107,039;  376,999;11697,893;41,78151
 490,98; 5023,236;  363,540;11425,415;42,12392
 491,57; 4959,947;  390,919;11322,399;41,79697
 492,15; 4901,407;  385,772;11221,009;41,67546
 492,74; 4847,751;  375,840;11169,179;41,43214
 493,32; 4828,766;  392,924;11029,772;41,70259
 493,91; 4758,578;  366,160;10964,422;41,44470
 494,50; 4746,281;  371,788;10898,481;41,55619
 495,08; 4712,041;  354,633;10858,915;41,48221
 495,67; 4709,980;  372,621;10819,504;41,51821
 496,25; 4622,948;  326,012;10763,222;41,16939
 496,84; 4585,983;  328,774;10730,446;40,92812
 497,42; 4579,148;  333,168;10650,532;41,15372
 498,01; 4556,258;  354,006;10610,684;40,97089
 498,59; 4472,669;  309,400;10562,450;40,60517
 499,18; 4448,325;  336,238;10537,864;40,30815
 499,76; 4438,468;  356,397;10490,528;40,28042
 500,35; 4332,128;  330,406;10270,065;40,26015
 500,93; 4291,943;  319,706;10212,950;40,15101
 501,52; 4271,841;  316,938;10176,759;40,11131
 502,10; 4263,397;  331,180;10166,393;39,98100
 502,69; 4191,172;  315,107;10024,678;39,92004
 503,27; 4085,870;  292,788; 9810,217;39,85406
 503,86; 4059,135;  322,413; 9710,242;39,80390
 504,44; 3987,326;  289,263; 9582,728;39,79208
 505,03; 3925,876;  280,340; 9416,697;39,90141
 505,61; 3880,939;  325,108; 9301,044;39,61515
 506,19; 3808,310;  310,494; 9137,976;39,62417
 506,78; 3728,178;  285,041; 8949,343;39,73934
 507,36; 3661,075;  298,571; 8819,731;39,46064
 507,95; 3592,961;  299,891; 8677,738;39,30687
 508,53; 3529,723;  295,426; 8554,837;39,15894
 509,12; 3497,962;  310,736; 8407,068;39,36630
 509,70; 3438,158;  323,277; 8333,442;38,88660
 510,29; 3396,442;  346,897; 8179,219;38,93539
 510,87; 3258,623;  290,195; 7953,130;38,73749
 511,46; 3223,145;  283,735; 7788,889;39,16522
 512,04; 3164,587;  302,201; 7667,603;38,86259
 512,62; 3099,115;  300,120; 7549,996;38,60749
 513,21; 3046,108;  289,051; 7400,493;38,76931
 513,79; 2973,263;  283,834; 7327,497;38,18225
 514,38; 2901,579;  283,521; 7128,122;38,24997
 514,96; 2875,501;  322,213; 7038,511;38,01630
 515,54; 2789,402;  278,062; 6887,926;37,99382
 516,13; 2776,976;  305,448; 6812,137;37,98443
 516,71; 2710,235;  286,376; 6671,106;37,96337
 517,30; 2635,758;  275,766; 6541,680;37,66397
 517,88; 2630,730;  298,842; 6501,498;37,59500
 518,46; 2549,811;  277,999; 6402,946;37,09114
 519,05; 2544,671;  283,157; 6354,648;37,24809
 519,63; 2534,641;  299,231; 6243,551;37,60581
 520,22; 2519,193;  316,317; 6227,968;37,26329
 520,80; 2476,490;  301,318; 6159,687;37,12931
 521,38; 2506,803;  342,619; 6140,398;37,32782
 521,97; 2433,196;  290,245; 6076,466;37,03542
 522,55; 2431,007;  309,321; 6109,328;36,58075
 523,13; 2401,943;  276,171; 6094,650;36,53484
 523,72; 2392,476;  289,845; 5988,917;36,89428
 524,30; 2444,029;  321,944; 6153,877;36,38735
 524,89; 2413,493;  267,553; 6185,800;36,25973
 525,47; 2457,813;  298,022; 6305,067;35,95429
 526,05; 2424,783;  264,023; 6328,477;35,62992
 526,64; 2492,072;  308,949; 6416,834;35,74270
 527,22; 2515,524;  307,791; 6586,069;35,16462
 527,80; 2582,625;  344,641; 6691,283;35,26249
 528,39; 2538,122;  299,721; 6768,696;34,60210
 528,97; 2583,646;  290,027; 6923,582;34,57602
 529,55; 2638,966;  316,248; 7075,049;34,36583
 530,14; 2701,506;  326,569; 7317,900;33,96974
 530,72; 2712,077;  299,181; 7378,689;34,08283
 531,30; 2743,881;  284,185; 7532,080;33,93669
 531,89; 2769,627;  301,647; 7584,065;33,88956
 532,47; 2814,745;  328,033; 7746,208;33,52188
 533,05; 2794,425;  331,948; 7754,176;33,17705
 533,63; 2817,289;  333,342; 7808,371;33,22993
 534,22; 2813,016;  309,189; 7857,355;33,17134
 534,80; 2820,102;  334,348; 7927,478;32,73689
 535,38; 2941,674;  435,340; 8059,552;32,87335
 535,97; 2802,969;  319,341; 7965,099;32,48373
 536,55; 2873,335;  380,965; 8035,935;32,55885
 537,13; 2845,895;  355,492; 8004,452;32,55871
 537,71; 2873,752;  419,030; 8062,887;32,11365
 538,30; 2896,993;  430,268; 8136,852;32,00802
 538,88; 2953,641;  485,277; 8234,342;31,85371
 539,46; 3043,529;  538,579; 8444,571;31,68420
 540,05; 3036,392;  541,582; 8522,676;31,25900
 540,63; 3108,473;  604,890; 8730,767;30,81001
 541,21; 3170,702;  635,048; 8889,717;30,71782
 541,79; 3186,525;  676,509; 8990,855;30,18897
 542,38; 3287,325;  708,043; 9101,957;30,72801
 542,96; 3319,167;  733,283; 9296,599;30,19722
 543,54; 3367,108;  775,432; 9493,813;29,72658
 544,12; 3372,134;  715,280; 9614,973;29,85333
 544,70; 3370,768;  708,592; 9760,535;29,41000
 545,29; 3432,845;  701,889; 9933,264;29,58341
 545,87; 3410,448;  698,355; 9909,779;29,44271
 546,45; 3377,683;  638,427; 9924,467;29,49864
 547,03; 3405,837;  622,353;10019,743;29,61976
 547,62; 3392,018;  575,741;10115,898;29,52024
 548,20; 3424,420;  579,667;10294,772;29,28175
 548,78; 3421,265;  521,987;10392,786;29,37228
 549,36; 3430,017;  518,140;10578,038;28,94540
 549,94; 3428,613;  452,588;10711,028;29,01050
 550,53; 3505,626;  467,676;10899,725;29,12131
 551,11; 3490,288;  434,989;11064,850;28,74260
 551,69; 3569,924;  442,370;11403,824;28,53229
 552,27; 3612,510;  399,981;11645,524;28,56713
 552,85; 3698,318;  392,220;11979,666;28,53173
 553,44; 3732,020;  398,677;12288,825;28,03449
 554,02; 3831,027;  415,833;12525,984;28,20108
 554,60; 3844,343;  350,913;12955,446;27,71566
 555,18; 3995,225;  401,601;13284,177;27,89523
 555,76; 4011,808;  356,833;13622,876;27,55135
 556,34; 4159,123;  371,379;13987,438;27,81821
 556,93; 4207,879;  369,678;14380,867;27,39383
 557,51; 4248,500;  348,225;14691,867;27,19166
 558,09; 4360,152;  371,217;15055,037;27,16551
 558,67; 4437,290;  361,537;15383,601;27,13178
 559,25; 4479,533;  382,612;15741,828;26,67403
 559,83; 4543,191;  364,924;16032,170;26,66880
 560,41; 4630,859;  356,301;16322,092;26,77323
 561,00; 4691,544;  359,998;16646,847;26,59536
 561,58; 4717,358;  345,300;16883,633;26,43591
 562,16; 4794,092;  337,297;17185,680;26,45236
 562,74; 4842,600;  317,987;17561,199;26,23997
 563,32; 4918,837;  322,924;17951,371;26,07100
 563,90; 5037,225;  347,460;18341,263;26,06322
 564,48; 5114,057;  367,607;18683,208;25,91479
 565,06; 5248,862;  366,459;19263,513;25,83685
 565,65; 5363,758;  356,315;19922,063;25,59290
 566,23; 5528,579;  396,922;20658,139;25,32749
 566,81; 5661,795;  361,381;21241,798;25,38462
 567,39; 5854,266;  360,234;22182,070;25,17677
 567,97; 6000,931;  376,612;22771,177;25,11466
 568,55; 6197,206;  403,309;23574,388;25,00487
 569,13; 6297,264;  353,383;24231,183;24,89292
 569,71; 6498,507;  346,374;25119,881;24,83352
 570,29; 6734,129;  403,986;26045,253;24,68733
 570,87; 6898,424;  402,450;26747,026;24,65773
 571,45; 6997,505;  377,075;27396,003;24,50293
 572,03; 7075,307;  332,696;27855,294;24,49845
 572,61; 7203,917;  342,308;28533,543;24,33951
 573,20; 7352,208;  369,533;29144,081;24,26685
 573,78; 7444,541;  357,078;29689,878;24,16224
 574,36; 7573,496;  379,923;30266,948;24,06922
 574,94; 7671,578;  457,313;30649,903;23,89416
 575,52; 7633,294;  381,090;30851,909;23,80049
 576,10; 7791,689;  436,241;31385,602;23,76607
 576,68; 7837,887;  429,081;31916,464;23,52944
 577,26; 7962,483;  450,401;32476,092;23,45643
 577,84; 8067,878;  444,769;33083,007;23,35637
 578,42; 8133,608;  508,700;33392,461;23,18746
 579,00; 8066,014;  432,386;33593,694;23,01968
 579,58; 8124,944;  494,159;33755,287;22,94205
 580,16; 8048,229;  446,855;33722,702;22,84352
 580,74; 8056,391;  453,855;33984,114;22,67366
 581,32; 8084,045;  464,237;34017,989;22,70926
 581,90; 8038,402;  482,701;33939,318;22,58358
 582,48; 8005,087;  465,470;34048,824;22,45046
 583,06; 8019,179;  462,237;34294,685;22,33637
 583,64; 8005,632;  470,313;34417,350;22,19728
 584,22; 7932,546;  489,937;34186,209;22,08734
 584,80; 7846,908;  483,008;34047,199;21,93975
 585,38; 7768,249;  513,994;33600,794;21,92492
 585,96; 7681,174;  454,772;33729,241;21,71756
 586,54; 7689,328;  481,167;33675,816;21,71483
 587,12; 7650,728;  451,626;33847,830;21,55665
 587,70; 7686,798;  481,772;34017,269;21,48477
 588,28; 7621,451;  453,241;34072,801;21,32155
 588,86; 7658,957;  473,089;34170,423;21,32474
 589,44; 7585,842;  441,635;34263,181;21,12324
 590,02; 7631,351;  460,556;34379,700;21,14085
 590,59; 7667,809;  438,859;34588,202;21,16864
 591,17; 7678,266;  442,412;34825,246;21,04496
 591,75; 7608,997;  421,407;34878,842;20,85933
 592,33; 7643,921;  445,559;35093,484;20,77574
 592,91; 7632,490;  399,103;35366,780;20,68592
 593,49; 7658,996;  402,106;35589,375;20,62362
 594,07; 7702,476;  417,645;36002,453;20,47175
 594,65; 7633,295;  434,475;35888,904;20,30443
 595,23; 7710,116;  421,940;36163,070;20,39156
 595,81; 7725,572;  400,788;36454,337;20,31640
 596,39; 7657,866;  405,789;36533,811;20,07327
 596,97; 7676,774;  392,026;36697,765;20,06501
 597,55; 7676,982;  393,554;36655,171;20,08578
 598,12; 7613,145;  376,185;36614,411;19,97051
 598,70; 7600,181;  385,642;36740,450;19,84480
 599,28; 7627,677;  396,027;36939,664;19,78908
 599,86; 7585,218;  391,334;36914,606;19,69671
 600,44; 7566,029;  350,875;37048,056;19,66133
 601,02; 7592,055;  402,730;37102,668;19,58947
 601,60; 7542,055;  387,177;37017,456;19,53269
 602,18; 7487,929;  356,646;37068,629;19,42495
 602,75; 7453,333;  361,942;37155,694;19,27336
 603,33; 7429,777;  372,412;37233,602;19,14579
 603,91; 7397,796;  359,111;37133,671;19,14009
 604,49; 7416,958;  395,181;37257,785;19,04851
 605,07; 7413,181;  390,869;37245,504;19,05408
 605,65; 7364,042;  403,183;37433,482;18,79774
 606,23; 7390,400;  465,012;37600,960;18,64874
 606,80; 7443,310;  531,942;37622,141;18,63395
 607,38; 7377,460;  562,341;37607,108;18,39698
 607,96; 7457,406;  618,326;37681,526;18,45248
 608,54; 7439,096;  699,953;37783,236;18,17300
 609,12; 7394,114;  705,942;37863,817;17,99934
 609,70; 7398,587;  746,719;37845,546;17,93013
 610,27; 7430,966;  734,941;37903,238;18,01542
 610,85; 7409,702;  771,026;37918,702;17,87104
 611,43; 7396,938;  743,335;37806,480;17,95207
 612,01; 7282,488;  725,868;37586,124;17,78778
 612,59; 7277,422;  722,872;37738,115;17,70770
 613,16; 7165,723;  686,630;37678,147;17,51508
 613,74; 7139,120;  641,335;37515,432;17,62154
 614,32; 7095,035;  622,184;37569,835;17,51898
 614,90; 7058,718;  566,255;37369,558;17,64098
 615,48; 6924,994;  506,170;37040,371;17,56936
 616,05; 6890,468;  466,629;37040,829;17,56385
 616,63; 6842,326;  472,165;36817,363;17,52683
 617,21; 6808,339;  479,094;36714,500;17,46702
 617,79; 6760,066;  461,251;36640,072;17,41023
 618,36; 6703,543;  473,176;36680,027;17,20770
 618,94; 6618,037;  389,401;36321,152;17,33463
 619,52; 6534,185;  421,397;36119,866;17,12339
 620,10; 6506,249;  413,019;35998,123;17,12298
 620,67; 6489,668;  415,011;35967,886;17,08626
 621,25; 6466,043;  434,638;35830,410;17,03990
 621,83; 6388,664;  414,709;35698,505;16,93116
 622,41; 6405,318;  465,939;35762,123;16,82725
 622,98; 6318,729;  413,165;35382,672;16,88775
 623,56; 6271,385;  435,395;35489,231;16,64865
 624,14; 6221,097;  407,102;35357,445;16,63502
 624,72; 6200,464;  397,709;35150,322;16,69732
 625,29; 6227,728;  392,472;35237,446;16,74634
 625,87; 6233,012;  435,020;35258,164;16,64982
 626,45; 6101,268;  372,855;35058,853;16,51506
 627,02; 6070,317;  388,251;35039,684;16,39778
 627,60; 6023,971;  375,182;34941,057;16,34210
 628,18; 6004,268;  355,173;34943,048;16,33259
 628,76; 5972,430;  347,089;34942,623;16,26031
 629,33; 5996,681;  394,245;35030,823;16,17491
 629,91; 5957,787;  374,634;34968,893;16,13896
 630,49; 5990,486;  411,244;35142,368;16,06410
 631,06; 5953,450;  376,859;35223,850;16,00308
 631,64; 5942,661;  372,779;35243,265;15,97306
 632,22; 5937,134;  345,545;35127,497;16,07612
 632,79; 5942,168;  374,776;35390,865;15,89953
 633,37; 5925,096;  347,022;35462,707;15,88485
 633,95; 5915,187;  362,316;35474,762;15,81454
 634,52; 5877,560;  345,093;35728,861;15,63561
 635,10; 5917,271;  345,557;35688,220;15,76484
 635,68; 5946,838;  354,083;35837,081;15,76179
 636,25; 5847,827;  330,079;35834,705;15,54093
 636,83; 5879,815;  320,704;36038,315;15,56406
 637,41; 5890,720;  329,313;36086,626;15,55320
 637,98; 5936,119;  373,389;36265,383;15,49853
 638,56; 5854,409;  338,539;36360,282;15,31261
 639,13; 5874,163;  321,626;36416,028;15,38337
 639,71; 5946,355;  394,859;36624,618;15,32303
 640,29; 5805,363;  301,090;36379,497;15,25642
 640,86; 5847,122;  311,090;36577,072;15,26508
 641,44; 5810,344;  314,090;36509,108;15,18511
 642,02; 5832,411;  353,090;36540,068;15,14169
 642,59; 5839,710;  322,552;36671,335;15,17838
 643,17; 5811,623;  325,398;36697,217;15,08372
 643,74; 5791,460;  333,553;36670,638;15,02021
 644,32; 5809,143;  341,707;36613,906;15,07335
 644,89; 5793,364;  329,861;36665,558;15,03619
 645,47; 5805,816;  361,784;36781,594;14,94800
 646,05; 5761,038;  350,707;36544,246;14,94833
 646,62; 5742,182;  333,092;36497,898;14,95678
 647,20; 5721,557;  340,477;36727,165;14,78860
 647,77; 5678,702;  313,631;36633,971;14,77153
 648,35; 5667,769;  306,862;36499,623;14,81210
 648,92; 5664,991;  327,939;36552,967;14,73305
 649,50; 5647,058;  293,786;36418,926;14,81869
 650,08; 5610,126;  296,940;36374,270;14,72721
 650,65; 5622,116;  314,555;36618,845;14,61965
 651,23; 5691,415;  293,094;37112,266;14,66171
 651,80; 5822,482;  293,556;38083,226;14,63079
 652,38; 5923,934;  305,787;38464,647;14,72305
 652,95; 5908,771;  285,326;38869,607;14,57445
 653,53; 5961,300;  308,711;39069,720;14,58318
 654,10; 6008,060;  345,095;39268,372;14,54904
 654,68; 5939,897;  294,019;39209,562;14,50803
 655,25; 5933,041;  291,327;39213,829;14,49474
 655,83; 5923,032;  274,404;39350,866;14,45532
 656,40; 5930,868;  325,558;39251,748;14,39984
 656,98; 5851,167;  300,866;39264,939;14,24466
 657,55; 5845,080;  291,866;39140,360;14,29454
 658,13; 5797,609;  289,328;38785,396;14,30869
 658,70; 5785,677;  318,867;38604,894;14,27887
 659,28; 5598,514;  294,175;37769,931;14,15405
 659,85; 5535,043;  337,636;37018,352;14,16932
 660,43; 5527,033;  329,867;36909,696;14,20774
 661,00; 5487,178;  295,483;37099,963;14,10615
 661,58; 5518,476;  304,406;37418,000;14,04895
 662,15; 5554,851;  294,483;37548,190;14,12039
 662,73; 5652,149;  384,099;37821,842;14,07150
 663,30; 5624,986;  299,407;37993,801;14,12831
 663,88; 5599,669;  307,946;38324,761;13,91943
 664,45; 5672,813;  301,869;38412,951;14,09287
 665,03; 5710,035;  292,485;38767,757;14,08060
 665,60; 5857,641;  399,946;39264,178;14,04298
 666,17; 5788,401;  310,254;39281,753;14,05680
 666,75; 5809,160;  300,255;39606,020;14,01552
 667,32; 5860,997;  320,870;39985,749;13,96734
 667,90; 5893,680;  317,717;40206,632;13,97873
 668,47; 5918,517;  327,332;40445,745;13,93670
 669,05; 5928,430;  299,563;40774,166;13,90716
 669,62; 5948,267;  286,179;40780,895;13,98229
 670,19; 5940,873;  281,179;40946,624;13,91770
 670,77; 5995,941;  303,333;41157,660;13,93392
 671,34; 5970,239;  287,103;41069,927;13,93512
 671,92; 5996,153;  288,949;41355,964;13,89729
 672,49; 6008,220;  324,180;41397,154;13,83888
 673,06; 5984,826;  262,873;41350,960;13,92606
 673,64; 6004,509;  275,796;41433,381;13,91897
 674,21; 5967,961;  272,950;41362,648;13,85995
 674,79; 6061,952;  322,335;41653,608;13,88686
 675,36; 6061,788;  323,874;41754,183;13,84956
 675,93; 5990,933;  271,951;41614,988;13,83300
 676,51; 6044,847;  298,720;41788,486;13,84950
 677,08; 6061,991;  314,874;41806,061;13,85142
 677,65; 6057,674;  295,105;41978,405;13,82465
 678,23; 6074,664;  300,490;42185,827;13,78567
 678,80; 6130,809;  289,491;42321,632;13,89727
 679,38; 6113,646;  298,568;42358,284;13,82577
 679,95; 6171,482;  301,722;42716,628;13,83891
 680,52; 6228,242;  299,337;42959,280;13,89806
 681,10; 6221,156;  318,030;43243,624;13,75200
 681,67; 6328,223;  321,184;43578,276;13,88683
 682,24; 6274,522;  268,646;43657,466;13,84199
 682,82; 6331,897;  288,646;44146,811;13,77908
 683,39; 6476,503;  345,954;44484,770;13,88925
 683,96; 6473,032;  293,570;44762,730;13,89606
 684,54; 6482,253;  270,416;45037,920;13,87577
 685,11; 6576,552;  348,570;45414,341;13,81976
 685,68; 6595,542;  288,109;45800,916;13,85859
 686,25; 6588,917;  273,648;45909,260;13,83847
 686,83; 6669,293;  278,648;46105,450;13,94521
 687,40; 6674,129;  277,340;46525,641;13,83140
 687,97; 6788,351;  326,264;46816,523;13,89987
 688,55; 6723,034;  267,649;46856,021;13,85621
 689,12; 6765,793;  257,495;46982,366;13,92898
 689,69; 6795,784;  268,111;47146,556;13,92468
 690,26; 6838,544;  286,726;47248,823;13,95129
 690,84; 6879,996;  286,573;47448,552;13,98038
 691,41; 6914,602;  297,881;47608,588;13,98567
 691,98; 6949,362;  302,112;47852,702;13,97932
 692,56; 6928,583;  286,496;47841,892;13,96705
 693,13; 7003,266;  337,112;47989,005;13,98927
 693,70; 7017,564;  310,420;48159,119;14,01740
 694,27; 7004,401;  280,420;48193,540;14,03369
 694,84; 7015,699;  281,344;48259,423;14,03632
 695,42; 7101,921;  343,267;48417,767;14,05871
 695,99; 7086,603;  303,421;48589,034;14,04804
 696,56; 7057,979;  296,190;48509,301;14,02479
 697,13; 7157,431;  311,960;48867,261;14,09830
 697,71; 7126,421;  290,652;48941,220;14,05075
 698,28; 7139,874;  291,191;49211,795;13,99959
 698,85; 7165,787;  260,191;49207,216;14,10831
 699,42; 7198,547;  252,884;49430,791;14,12354
 699,99; 7275,538;  320,807;49574,212;14,12030
 700,57; 7278,605;  300,500;49547,787;14,16952
 701,14; 7265,134;  283,808;49681,208;14,13298
 701,71; 7319,894;  315,116;49907,629;14,12467
 702,28; 7307,115;  290,347;49924,897;14,13686
 702,85; 7348,644;  314,039;49983,318;14,16289
 703,43; 7416,327;  316,809;50295,123;14,20520
 704,00; 7447,318;  344,732;50498,621;14,16159
 704,57; 7449,385;  307,425;50467,350;14,23838
 705,14; 7536,145;  339,963;50742,617;14,27739
 705,71; 7516,290;  338,656;50779,346;14,22985
 706,28; 7484,819;  317,272;50728,229;14,21823
 706,86; 7556,655;  337,503;50917,265;14,27281
 707,43; 7612,569;  370,118;50894,917;14,33445
 708,00; 7606,252;  345,195;50833,415;14,38168
 708,57; 7624,166;  311,042;50824,067;14,47770
 709,14; 7681,233;  344,580;50882,565;14,51711
 709,71; 7667,301;  318,427;51026,294;14,49257
 710,28; 7759,676;  336,042;51252,330;14,58008
 710,86; 7779,513;  328,735;51277,059;14,62419
 711,43; 7775,580;  343,658;51284,942;14,58919
 712,00; 7806,186;  320,428;51340,670;14,67213
 712,57; 7846,254;  342,428;51545,168;14,65512
 713,14; 7889,321;  323,121;51620,666;14,74963
 713,71; 7867,927;  322,659;51581,088;14,72005
 714,28; 7899,918;  307,736;51581,739;14,80708
 714,85; 7860,139;  284,660;51337,853;14,83840
 715,42; 7906,437;  306,122;51639,428;14,80582
 716,00; 8053,120;  391,430;51782,310;14,90866
 716,57; 7978,188;  295,507;51845,116;14,90347
 717,14; 7973,409;  286,507;51751,229;14,93625
 717,71; 7976,861;  284,892;51705,574;14,95890
 718,28; 8024,852;  333,661;51777,533;14,95064
 718,85; 8070,612;  283,277;51877,954;15,09329
 719,42; 8082,371;  299,893;52096,298;15,02513
 719,99; 8086,516;  277,508;51808,104;15,15412
 720,56; 8125,583;  319,201;52163,525;15,05735
 721,13; 8132,651;  284,816;52217,715;15,11149
 721,70; 8148,488;  286,509;52186,675;15,14827
 722,27; 8172,324;  304,663;52086,942;15,19373
 722,84; 8237,623;  367,663;52296,594;15,15525
 723,41; 8197,075;  285,433;52206,323;15,23788
 723,98; 8223,450;  300,510;52481,205;15,18366
 724,55; 8317,748;  329,664;52639,011;15,27085
 725,12; 8259,585;  252,664;52450,278;15,33963
 725,69; 8366,652;  279,664;52762,623;15,40879
 726,27; 8375,643;  291,511;52837,274;15,38494
 726,84; 8469,941;  294,588;53157,388;15,46523
 727,41; 8566,701;  330,358;53004,424;15,63643
 727,98; 8555,230;  313,819;53386,461;15,52855
 728,55; 8659,836;  341,896;53209,420;15,73355
 729,12; 8664,134;  281,204;53464,995;15,76219
 729,69; 8690,202;  309,051;53540,416;15,74476
 730,26; 8731,500;  312,436;53728,299;15,76136
 730,82; 8711,260;  305,744;53555,874;15,78497
 731,39; 8790,943;  296,821;53835,833;15,86529
 731,96; 8822,087;  282,129;54007,793;15,89549
 732,53; 8893,847;  302,360;54263,291;15,92168
 733,10; 8906,761;  315,668;54329,327;15,90541
 733,67; 8985,059;  315,129;54426,825;16,02228
 734,24; 8885,588;  298,437;54269,631;15,91062
 734,81; 8985,040;  321,668;54368,437;16,02940
 735,38; 8917,954;  296,592;53994,319;16,05536
 735,95; 8952,098;  309,592;53975,664;16,10423
 736,52; 8962,551;  313,900;54024,546;16,10230
 737,09; 8993,464;  325,439;53744,352;16,22651
 737,66; 9081,147;  364,516;53906,004;16,28014
 738,23; 9123,907;  312,901;54015,579;16,40701
 738,80; 9288,205;  397,747;54427,154;16,45485
 739,37; 9222,119;  348,747;54537,805;16,37484
 739,94; 9249,879;  315,055;54558,765;16,47163
 740,51; 9385,177;  453,440;54760,571;16,44671
 741,07; 9302,321;  315,056;54536,453;16,57513
 741,64; 9365,620;  342,748;54764,797;16,57944
 742,21; 9421,995;  321,595;54827,372;16,69621
 742,78; 9393,985;  295,826;54731,332;16,71365
 743,35; 9422,438;  315,672;54763,292;16,72574
 743,92; 9527,967;  359,672;55051,328;16,76361
 744,49; 9571,880;  358,365;54851,211;16,90775
 745,06; 9529,794;  307,134;54913,093;16,88947
 745,63; 9530,323;  300,442;54916,053;16,89971
 746,19; 9620,467;  307,673;54896,628;17,05985
 746,76; 9591,612;  315,212;54882,972;16,99978
 747,33; 9621,910;  307,597;54976,162;17,03779
 747,90; 9689,362;  328,289;55078,660;17,09773
 748,47; 9667,814;  313,213;55004,850;17,10426
 749,04; 9716,267;  338,136;55061,964;17,13720
 749,61; 9761,719;  347,675;55043,077;17,21176
 750,17; 9814,094;  326,829;55100,268;17,32092
 750,74; 9806,777;  326,444;54945,843;17,35708
 751,31; 9808,075;  304,060;54913,725;17,40354
 751,88; 9770,527;  304,137;54724,377;17,39498
 752,45; 9853,902;  305,753;54892,952;17,49155
 753,02; 9841,431;  333,445;54853,142;17,43954
 753,58; 9823,807;  293,600;54529,409;17,57180
 754,15; 9891,566;  300,523;54794,600;17,60016
 754,72; 9901,019;  296,215;54547,482;17,70429
 755,29; 9870,548;  280,062;54433,519;17,70983
 755,86; 9938,077;  305,754;54453,709;17,78889
 756,42;10009,606;  315,985;54401,592;17,92274
 756,99; 9959,135;  271,524;54385,013;17,90240
 757,56; 9958,972;  273,217;54341,049;17,91408
 758,13; 9946,808;  237,601;54269,624;17,96936
 758,70;10077,722;  278,140;54353,968;18,12193
 759,26;10070,405;  255,217;54383,774;18,13310
 759,83;10110,857;  270,295;54541,349;18,13225
 760,40;10108,848;  241,295;54370,924;18,22949
 760,97;10112,992;  245,910;54451,807;18,20297
 761,53;10090,598;  224,603;54068,305;18,32340
 762,10;10109,742;  211,757;53948,110;18,41953
 762,67;10144,656;  249,219;53969,685;18,42024
 763,24;10052,031;  215,758;53640,414;18,41149
 763,80;10148,560;  252,758;53737,143;18,50223
 764,37;10164,705;  256,143;53743,795;18,52495
 764,94;10097,465;  229,374;53239,216;18,61558
 765,50;10198,378;  242,528;53301,175;18,76386
 766,07;10234,061;  288,451;53356,904;18,74110
 766,64;10108,513;  270,374;53004,094;18,65626
 767,21;10214,658;  270,067;52956,285;18,87513
 767,77;10238,802;  298,221;52837,706;18,92021
 768,34;10200,023;  292,375;52796,050;18,87039
 768,91;10252,014;  304,452;52700,548;18,98531
 769,47;10226,082;  301,991;52694,046;18,94198
 770,04;10305,995;  299,376;52547,544;19,15210
 770,61;10246,678;  284,453;52349,888;19,13405
 771,18;10289,976;  263,761;52278,771;19,27562
 771,74;10312,121;  291,146;52334,346;19,25511
 772,31;10318,188;  308,146;52089,305;19,33144
 772,88;10281,794;  262,300;51881,572;19,41037
 773,44;10258,093;  277,377;51815,224;19,36580
 774,01;10394,237;  309,608;51922,876;19,53883
 774,58;10345,766;  281,301;51446,297;19,67061
 775,14;10354,295;  265,993;51567,103;19,66488
 775,71;10438,901;  274,301;51509,601;19,83906
 776,27;10430,507;  347,994;51410,176;19,74556
 776,84;10565,651;  398,533;51570,289;19,86861
 777,41;10446,950;  292,918;51206,941;19,94349
 777,97;10417,248;  281,995;51063,824;19,95843
 778,54;10503,469;  293,610;51115,476;20,08950
 779,11;10518,614;  335,380;51105,050;20,05771
 779,67;10531,143;  278,688;50994,472;20,21551
 780,24;10545,980;  281,996;50737,354;20,34270
 780,80;10551,124;  304,688;50776,775;20,30119
 781,37;10540,730;  293,688;50686,119;20,33449
 781,94;10573,951;  286,304;50415,079;20,52244
 782,50;10574,557;  295,689;50495,115;20,47607
 783,07;10623,625;  312,074;50557,844;20,52223
 783,63;10612,462;  288,305;50205,650;20,68250
 784,20;10670,144;  320,459;50262,148;20,72354
 784,77;10582,058;  294,536;50013,031;20,69154
 785,33;10544,741;  269,382;49806,221;20,74286
 785,90;10612,962;  273,075;49861,180;20,85155
 786,46;10590,184;  313,537;49747,063;20,78882
 787,03;10614,790;  270,614;49548,638;20,99146
 787,59;10661,703;  288,691;49522,828;21,06874
 788,16;10650,694;  292,922;49335,172;21,12010
 788,73;10691,608;  291,999;49231,517;21,24992
 789,29;10601,829;  284,000;48890,168;21,22741
 789,86;10637,973;  309,461;48896,743;21,25765
 790,42;10591,964;  290,539;48646,703;21,30323
 790,99;10539,416;  303,923;48462,509;21,25372
 791,55;10575,484;  278,077;48404,160;21,39673
 792,12;10579,936;  316,616;48393,889;21,34755
 792,68;10531,234;  296,463;47940,772;21,48162
 793,25;10515,302;  312,771;47820,578;21,47548
 793,81;10570,908;  375,386;47532,922;21,62013
 794,38;10418,744;  273,925;47304,958;21,57048
 794,94;10477,966;  275,387;47069,225;21,80325
 795,51;10416,418;  297,848;47035,646;21,64965
 796,07;10339,024;  287,003;46654,914;21,67883
 796,64;10445,399;  309,157;46821,950;21,79237
 797,20;10345,851;  295,157;46283,294;21,85497
 797,77;10310,842;  256,696;46068,485;21,94663
 798,33;10297,601;  299,927;45872,137;21,93810
 798,90;10380,823;  304,004;45768,019;22,16438
 799,46;10298,967;  276,081;45358,056;22,23258
 800,03;10270,804;  280,773;45256,631;22,21198
 800,59;10241,872;  303,928;45041,205;22,21401
 801,15;10270,401;  306,235;44791,011;22,39905
 801,72;10139,314;  279,851;44408,817;22,34238
 802,28;10138,843;  312,467;44234,238;22,37245
 802,85;10061,218;  291,852;44071,505;22,31486
 803,41;10129,748;  285,698;43847,696;22,59779
 803,98;10027,584;  284,237;43462,732;22,56528
 804,54; 9999,959;  272,468;43124,768;22,70005
 805,11; 9986,489;  294,006;42966,882;22,71345
 805,67;10024,402;  318,314;42949,457;22,76760
 806,23; 9931,931;  289,161;42555,724;22,81418
 806,80; 9988,845;  312,161;42355,453;23,01600
 807,36; 9946,374;  307,161;42365,258;22,91880
 807,93; 9950,980;  337,315;42110,218;23,01412
 808,49; 9874,432;  283,162;41757,716;23,12567
 809,05; 9878,884;  266,316;41589,676;23,26183
 809,62; 9923,875;  305,701;41445,789;23,37908
 810,18; 9948,788;  295,162;41403,364;23,48345
 810,74; 9832,471;  246,701;41204,708;23,40390
 811,31; 9801,923;  270,317;40920,745;23,44774
 811,87; 9875,606;  290,702;40805,858;23,65758
 812,44; 9909,828;  302,625;40768,125;23,74171
 813,00; 9836,818;  236,625;40460,315;23,86701
 813,56; 9922,193;  289,164;40603,737;23,89466
 814,13; 9900,107;  285,472;40426,158;23,95234
 814,69; 9789,713;  272,934;40311,886;23,76880
 815,25; 9787,319;  234,165;39975,461;24,03836
 815,82; 9876,233;  293,011;39908,267;24,19074
 816,38; 9865,377;  326,011;39731,380;24,20829
 816,94; 9767,291;  253,935;39426,725;24,28562
 817,51; 9720,435;  245,627;39185,838;24,33168
 818,07; 9685,657;  258,166;38882,567;24,40812
 818,63; 9653,493;  271,858;38652,603;24,44360
 819,20; 9638,715;  274,551;38742,794;24,34258
 819,76; 9614,244;  259,090;38202,138;24,65578
 820,32; 9612,773;  298,398;38178,943;24,58881
 820,89; 9608,610;  274,321;37936,364;24,78434
 821,45; 9548,831;  272,014;37677,862;24,80045
 822,01; 9474,514;  288,783;37429,745;24,73208
 822,57; 9547,735;  292,245;37365,012;24,96574
 823,14; 9437,957;  247,091;37060,203;24,96628
 823,70; 9429,409;  257,476;36887,162;25,03962
 824,26; 9379,322;  250,707;36681,429;25,05746
 824,82; 9417,621;  294,938;36499,081;25,19790
 825,39; 9341,842;  266,861;36239,810;25,22724
 825,95; 9341,909;  283,323;36273,154;25,16985
 826,51; 9255,054;  267,093;35952,806;25,18644
 827,08; 9359,121;  311,939;35974,919;25,36855
 827,64; 9274,958;  278,939;35830,571;25,30410
 828,20; 9224,795;  262,247;35437,377;25,47979
 828,76; 9261,786;  295,632;35451,644;25,50390
 829,32; 9246,622;  312,786;35306,758;25,52964
 829,89; 9232,151;  250,094;35150,871;25,73598
 830,45; 9253,834;  271,941;35174,138;25,73446
 831,01; 9217,979;  281,095;35015,713;25,72904
 831,57; 9188,277;  267,326;34793,980;25,83787
 832,14; 9206,960;  250,403;34766,094;25,94923
 832,70; 9216,027;  248,326;34574,207;26,12519
 833,26; 9168,556;  229,249;34481,397;26,09853
 833,82; 9184,085;  263,019;34339,049;26,17989
 834,38; 9205,307;  243,558;34477,932;26,17763
 834,95; 9176,451;  249,866;34251,276;26,25357
 835,51; 9160,211;  219,943;34120,928;26,37171
 836,07; 9216,048;  257,405;34233,811;26,36725
 836,63; 9270,654;  279,328;34221,386;26,49022
 837,19; 9245,260;  277,943;34051,653;26,55117
 837,75; 9147,173;  230,713;33765,689;26,58854
 838,32; 9237,395;  276,405;33865,033;26,67864
 838,88; 9247,385;  287,944;33841,608;26,70183
 839,44; 9270,068;  274,714;33856,337;26,78654
 840,00; 9270,059;  273,868;33737,374;26,88359
 840,56; 9224,972;  255,868;33450,333;27,01988
 841,12; 9218,271;  248,714;33373,831;27,07781
 841,68; 9159,954;  228,868;33192,945;27,09339
 842,25; 9217,713;  250,253;33244,058;27,17922
 842,81; 9183,396;  238,100;33014,248;27,29209
 843,37; 9131,541;  238,408;32971,131;27,16894
 843,93; 9184,531;  244,716;32806,167;27,45521
 844,49; 9204,676;  265,024;32912,665;27,38223
 845,05; 9134,282;  217,793;32734,856;27,42095
 845,61; 9207,503;  272,947;32811,431;27,45843
 846,17; 9218,417;  247,947;32628,313;27,70342
 846,73; 9219,561;  251,640;32559,657;27,75757
 847,29; 9151,013;  238,256;32427,309;27,68878
 847,86; 9189,465;  243,333;32341,269;27,87136
 848,42; 9158,456;  234,256;32170,459;27,94384
 848,98; 9170,139;  265,872;32169,880;27,90956
 849,54; 9181,668;  238,718;32134,609;28,03794
 850,10; 9241,043;  271,718;32076,338;28,20133
 850,66; 9217,034;  233,180;31825,759;28,43660
 851,22; 9183,101;  228,565;31721,411;28,43356
 851,78; 9223,015;  270,411;31790,062;28,40324
 852,34; 9184,544;  256,642;31569,868;28,51160
 852,90; 9210,458;  245,258;31498,828;28,68536
 853,46; 9128,679;  235,951;31331,249;28,59831
 854,02; 9192,900;  261,720;31362,208;28,71717
 854,58; 9104,429;  250,336;31048,476;28,74879
 855,14; 9115,497;  246,874;31056,666;28,78508
 855,70; 9046,641;  217,336;30777,779;28,89129
 856,26; 9061,786;  260,721;30731,816;28,88332
 856,82; 9042,315;  242,414;30553,006;29,03243
 857,38; 9091,690;  295,952;30615,658;29,00997
 857,94; 9012,604;  263,876;30391,464;29,03893
 858,50; 9013,133;  275,799;30334,115;29,06794
 859,06; 8962,277;  235,953;30144,152;29,17703
 859,62; 8915,345;  272,492;30081,035;28,99455
 860,18; 8918,951;  255,338;29892,533;29,23223
 860,74; 8876,864;  208,108;29717,415;29,37635
 861,30; 8860,086;  232,031;29530,221;29,44911
 861,86; 9021,076;  320,108;29651,719;29,66413
 862,42; 8952,759;  254,647;29490,217;29,75181
 862,98; 9038,365;  284,339;29453,561;30,01117
 863,54; 8940,663;  243,340;29201,828;30,03376
 864,10; 8984,500;  240,494;29325,326;30,06380
 864,66; 8930,260;  229,571;29028,594;30,21175
 865,22; 8951,097;  249,879;28902,630;30,36783
 865,78; 8910,703;  257,802;28865,590;30,24666
 866,34; 8905,770;  231,956;28739,626;30,42625
 866,90; 8923,453;  254,264;28648,586;30,53142
 867,45; 8874,213;  253,034;28393,237;30,63652
 868,01; 8863,050;  260,957;28267,966;30,71407
 868,57; 8799,656;  244,496;28047,849;30,77025
 869,13; 8736,877;  213,342;27970,193;30,70786
 869,69; 8728,406;  247,035;27871,229;30,70269
 870,25; 8725,474;  214,343;27724,804;30,93780
 870,81; 8745,387;  244,574;27735,149;30,92265
 871,37; 8760,455;  260,420;27608,185;31,08128
 871,93; 8702,368;  276,420;27501,683;30,94901
 872,49; 8690,897;  303,959;27247,258;31,12811
 873,04; 8622,811;  237,190;27065,910;31,25614
 873,60; 8545,648;  229,344;26835,639;31,25690
 874,16; 8553,869;  252,883;26868,675;31,18820
 874,72; 8581,485;  220,960;26799,060;31,45644
 875,28; 8560,946;  240,883;26714,060;31,42828
 875,84; 8540,408;  259,190;26683,752;31,33909
 876,40; 8506,562;  240,575;26660,752;31,28664
 876,95; 8554,562;  248,421;26622,367;31,49373
 877,51; 8582,946;  281,421;26607,829;31,53307
 878,07; 8633,485;  293,267;26512,060;31,81007
 878,63; 8646,023;  242,652;26595,906;31,88741
 879,19; 8611,638;  260,652;26612,367;31,69049
 879,75; 8676,946;  228,883;26618,367;32,01299
 880,30; 8675,177;  234,498;26598,290;32,01618
 880,86; 8775,638;  290,960;26727,060;32,09505
 881,42; 8758,254;  235,344;26677,829;32,23188
 881,98; 8904,331;  248,806;26861,675;32,52383
 882,54; 8887,408;  236,729;26856,290;32,49745
 883,09; 9006,869;  251,806;27060,290;32,65781
 883,65; 8946,869;  222,421;27017,367;32,56005
 884,21; 9108,946;  265,575;27274,675;32,74219
 884,77; 9168,792;  233,498;27318,829;32,98942
 885,32; 9183,638;  249,652;27500,137;32,78469
 885,88; 9327,792;  274,729;27587,752;33,14559
 886,44; 9364,869;  252,883;27697,367;33,20152
 887,00; 9414,177;  268,806;27690,598;33,35074
 887,56; 9453,177;  243,960;27911,829;33,28488
 888,11; 9547,715;  256,729;27831,367;33,69396
 888,67; 9573,177;  274,652;27974,906;33,56837
 889,23; 9606,331;  247,190;28038,444;33,67657
 889,79; 9577,100;  228,498;27959,137;33,71218
 890,34; 9649,331;  266,190;27872,367;33,98928
 890,90; 9748,792;  333,883;28058,906;33,95817
 891,46; 9647,408;  229,190;27907,906;34,02693
 892,01; 9783,869;  262,498;27926,906;34,41740
 892,57; 9707,562;  282,729;27792,675;34,25973
 893,13; 9632,254;  253,190;27610,829;34,28316
 893,69; 9630,177;  231,960;27580,367;34,36477
 894,24; 9597,715;  243,037;27528,444;34,28455
 894,80; 9568,485;  242,037;27334,906;34,42400
 895,36; 9614,869;  241,806;27315,521;34,62053
 895,91; 9499,408;  248,190;27089,829;34,46592
 896,47; 9531,638;  268,960;26922,060;34,75273
 897,03; 9479,100;  242,729;26725,444;34,87698
 897,58; 9413,792;  263,652;26720,290;34,58542
 898,14; 9413,100;  260,960;26456,598;34,93765
 898,70; 9356,485;  214,883;26364,675;34,95860
 899,25; 9362,177;  251,113;26343,829;34,91803
 899,81; 9356,100;  257,652;26110,829;35,19277
 900,37; 9257,562;  218,113;25882,290;35,22205
 900,92; 9364,177;  245,190;25981,060;35,43298
 901,48; 9273,100;  231,806;25797,521;35,36492
 902,03; 9221,331;  238,344;25674,060;35,31643
 902,59; 9186,869;  234,883;25575,598;35,32649
 903,15; 9230,562;  256,652;25320,752;35,80384
 903,70; 9095,946;  243,729;25136,444;35,56148
 904,26; 9076,485;  236,883;25072,213;35,59285
 904,82; 9078,408;  237,729;25076,675;35,59200
 905,37; 9056,946;  259,652;24875,521;35,73830
 905,93; 9022,408;  237,729;24797,444;35,76865
 906,48; 9009,023;  260,113;24667,752;35,84497
 907,04; 9042,946;  237,883;24679,906;36,02428
 907,60; 8935,869;  251,190;24464,060;35,86803
 908,15; 8898,869;  223,113;24307,060;36,02298
 908,71; 8899,100;  253,344;24285,906;35,97517
 909,26; 8868,177;  246,113;24123,598;36,10960
 909,82; 8833,562;  247,883;24038,906;36,08789
 910,37; 8872,485;  283,498;23963,752;36,27067
 910,93; 8784,869;  222,575;23805,675;36,30691
 911,48; 8738,331;  230,344;23667,675;36,30100
 912,04; 8701,254;  233,729;23463,290;36,45151
 912,60; 8757,331;  247,344;23538,521;36,53738
 913,15; 8669,485;  247,421;23402,752;36,37203
 913,71; 8660,331;  220,883;23205,906;36,71716
 914,26; 8646,331;  205,421;23139,598;36,80494
 914,82; 8661,408;  254,575;23038,829;36,89756
 915,37; 8618,485;  224,806;22910,444;36,99997
 915,93; 8695,792;  293,190;22805,752;37,32406
 916,48; 8577,100;  221,190;22645,060;37,26346
 917,04; 8617,023;  258,267;22600,060;37,41309
 917,59; 8634,023;  270,652;22619,213;37,42241
 918,15; 8489,100;  206,652;22406,598;37,30842
 918,70; 8489,023;  233,729;22290,290;37,42784
 919,26; 8544,100;  238,960;22256,983;37,71974
 919,81; 8447,408;  207,729;21995,060;37,81867
 920,37; 8414,100;  228,190;21957,598;37,67203
 920,92; 8424,408;  254,344;21911,983;37,72370
 921,48; 8338,408;  228,883;21725,675;37,72435
 922,03; 8314,946;  239,806;21719,367;37,59453
 922,59; 8299,485;  238,575;21486,290;37,93777
 923,14; 8256,946;  244,421;21420,675;37,83731
 923,69; 8269,331;  265,652;21372,290;37,92020
 924,25; 8273,331;  258,344;21429,521;37,85801
 924,80; 8151,023;  233,344;21052,213;38,03126
 925,36; 8154,792;  225,037;21010,752;38,15003
 925,91; 8135,485;  235,267;20887,675;38,25325
 926,47; 8067,254;  211,113;20887,213;37,99624
 927,02; 8150,331;  311,575;20829,444;38,20453
 927,57; 8038,408;  220,498;20590,367;38,37977
 928,13; 8046,946;  214,498;20608,444;38,40575
 928,68; 8010,715;  229,498;20489,137;38,40748
 929,24; 7898,485;  211,113;20332,060;38,20581
 929,79; 7940,485;  217,113;20163,906;38,71987
 930,34; 7872,254;  228,960;20078,444;38,50626
 930,90; 7863,485;  222,498;19928,213;38,77548
 931,45; 7924,638;  235,190;19896,675;39,10919
 932,01; 7857,792;  223,037;19865,675;38,86828
 932,56; 7789,638;  256,575;19713,598;38,71642
 933,11; 7821,792;  253,344;19769,598;38,78023
 933,67; 7761,869;  218,190;19525,829;39,07096
 934,22; 7751,254;  237,575;19411,290;39,18739
 934,77; 7744,408;  255,575;19338,290;39,24406
 935,33; 7651,100;  235,960;19211,598;39,07716
 935,88; 7690,946;  239,344;19186,290;39,32878
 936,43; 7623,331;  241,729;19049,983;39,24661
 936,99; 7592,331;  230,575;18963,367;39,29876
 937,54; 7524,023;  204,575;18792,598;39,37723
 938,09; 7553,638;  242,575;18806,137;39,38395
 938,65; 7531,100;  240,498;18610,675;39,68716
 939,20; 7518,254;  207,267;18522,675;39,91714
 939,75; 7429,023;  215,806;18400,367;39,66671
 940,31; 7401,485;  204,421;18318,137;39,73267
 940,86; 7424,638;  230,652;18287,367;39,84106
 941,41; 7488,485;  341,037;18264,444;39,87773
 941,96; 7319,792;  213,652;18144,367;39,63110
 942,52; 7266,408;  218,960;18018,829;39,59270
 943,07; 7256,792;  209,037;17921,521;39,78976
 943,62; 7309,485;  222,037;17811,521;40,29367
 944,18; 7243,177;  200,960;17769,983;40,08315
 944,73; 7254,562;  233,113;17676,906;40,25184
 945,28; 7170,638;  198,575;17472,290;40,36227
 945,83; 7188,946;  210,344;17515,675;40,32631
 946,39; 7191,562;  217,575;17449,367;40,47163
 946,94; 7214,100;  254,960;17373,598;40,65242
 947,49; 7174,869;  210,498;17252,060;40,86698
 948,04; 7196,869;  276,190;17238,521;40,80028
 948,59; 7123,792;  247,806;17158,906;40,65961
 949,15; 7071,485;  203,190;17064,983;40,73288
 949,70; 7025,023;  208,883;16923,367;40,77984
 950,25; 6997,638;  240,037;16877,060;40,61786
 950,80; 6990,408;  204,190;16751,444;41,01114
 951,36; 7001,100;  190,652;16685,137;41,28924
 951,91; 7036,100;  245,652;16721,290;41,21508
 952,46; 6936,946;  218,652;16496,983;41,27140
 953,01; 6945,869;  224,575;16572,675;41,11361
 953,56; 6849,408;  193,806;16294,213;41,33810
 954,11; 6838,100;  224,729;16380,060;40,93615
 954,67; 6810,485;  211,344;16245,752;41,15612
 955,22; 6754,562;  199,037;16088,290;41,25760
 955,77; 6797,638;  244,190;16085,444;41,36950
 956,32; 6789,485;  281,652;16025,290;41,33627
 956,87; 6692,485;  205,113;15835,521;41,50481
 957,42; 6663,715;  223,421;15891,213;41,10531
 957,98; 6661,869;  214,113;15771,213;41,44574
 958,53; 6685,100;  247,344;15683,367;41,70605
 959,08; 6623,869;  214,344;15575,752;41,72485
 959,63; 6597,254;  214,729;15480,521;41,80933
 960,18; 6588,485;  242,575;15399,906;41,86693
 960,73; 6576,254;  227,575;15388,060;41,87649
 961,28; 6562,408;  200,960;15285,367;42,17234
 961,83; 6556,100;  239,421;15286,213;41,98024
 962,39; 6495,638;  206,498;15123,367;42,16126
 962,94; 6483,792;  231,729;15052,906;42,18331
 963,49; 6471,100;  227,421;14851,752;42,69377
 964,04; 6489,177;  240,960;14862,983;42,73155
 964,59; 6410,792;  190,729;14759,060;42,69579
 965,14; 6434,869;  250,806;14708,598;42,77322
 965,69; 6381,100;  228,113;14598,290;42,81775
 966,24; 6347,408;  213,883;14534,137;42,83112
 966,79; 6316,869;  241,498;14446,444;42,76941
 967,34; 6293,562;  190,421;14285,137;43,30091
 967,89; 6251,638;  221,575;14285,213;42,87698
 968,44; 6228,792;  226,421;14173,675;43,03622
 968,99; 6208,023;  224,190;14163,675;42,92722
 969,55; 6205,254;  227,190;14055,137;43,23175
 970,10; 6149,562;  236,113;13966,213;43,06923
 970,65; 6110,254;  257,421;13932,137;42,80040
 971,20; 6084,100;  213,960;13825,598;43,12589
 971,75; 6009,023;  194,113;13600,060;43,37560
 972,30; 6063,485;  231,037;13586,983;43,66930
 972,85; 6009,254;  213,344;13469,521;43,72233
 973,40; 5934,023;  212,498;13372,983;43,47503
 973,95; 5965,254;  234,498;13403,983;43,51541
 974,50; 5981,331;  257,498;13300,367;43,88477
 975,05; 5910,715;  228,421;13169,367;43,90942
 975,60; 5844,023;  242,883;13152,290;43,38805
 976,15; 5826,100;  213,344;13024,521;43,81140
 976,70; 5844,946;  220,190;12968,598;44,12124
 977,25; 5810,792;  235,806;12879,598;44,09268
 977,80; 5736,792;  230,652;12692,213;44,18500
 978,35; 5729,177;  244,806;12570,598;44,49508
 978,89; 5665,485;  206,652;12574,137;44,13858
 979,44; 5647,177;  230,575;12483,444;44,20680
 979,99; 5547,562;  217,037;12308,137;44,08635
 980,54; 5581,254;  246,575;12286,906;44,30675
 981,09; 5590,408;  246,344;12153,752;44,88016
 981,64; 5502,331;  239,575;12060,060;44,52234
 982,19; 5503,177;  268,575;12036,060;44,48361
 982,74; 5411,562;  239,344;11868,290;44,47709
 983,29; 5360,485;  224,421;11783,213;44,43426
 983,84; 5312,792;  234,267;11672,444;44,39978
 984,39; 5397,946;  346,806;11722,521;44,40284
 984,94; 5261,100;  202,113;11489,598;44,81943
 985,49; 5266,177;  262,344;11441,675;44,75968
 986,03; 5230,177;  254,344;11347,906;44,85334
 986,58; 5183,562;  289,344;11236,983;44,70569
 987,13; 5102,792;  229,267;11070,213;44,95479
 987,68; 5058,869;  248,806;10976,444;44,83805
 988,23; 5064,715;  250,883;10941,983;45,02654
 988,78; 4980,792;  220,652;10792,906;45,02484
 989,33; 4949,792;  249,652;10686,060;45,03600
 989,88; 4974,177;  281,267;10687,367;45,09768
 990,42; 4892,638;  231,652;10539,213;45,21910
 990,97; 4852,485;  220,344;10388,983;45,55320
 991,52; 4834,177;  252,344;10324,137;45,49173
 992,07; 4829,869;  276,190;10261,367;45,60439
 992,62; 4789,254;  230,652;10107,829;46,15288
 993,17; 4725,946;  246,498; 9999,983;45,92664
 993,71; 4707,177;  257,883; 9917,290;46,06177
 994,26; 4630,177;  216,883; 9756,213;46,26419
 994,81; 4640,023;  267,113; 9769,290;46,02008
 995,36; 4558,254;  235,113; 9600,367;46,16149
 995,91; 4529,100;  245,037; 9536,675;46,10665
 996,45; 4523,100;  250,960; 9447,137;46,45561
 997,00; 4428,715;  225,037; 9316,829;46,23598
 997,55; 4430,254;  245,421; 9262,752;46,40877
 998,10; 4381,562;  274,267; 9087,367;46,60442
 998,65; 4352,100;  245,037; 9071,675;46,53032
 999,19; 4328,869;  249,037; 8982,521;46,71483
 999,74; 4315,100;  288,267; 8874,521;46,89860
1000,29; 4253,254;  249,037; 8811,598;46,76425
1000,84; 4163,485;  248,575; 8604,367;46,85264
1001,38; 4135,485;  242,037; 8616,829;46,49009
1001,93; 4156,485;  257,883; 8532,137;47,11726
1002,48; 4031,792;  230,037; 8382,752;46,63177
1003,03; 4077,100;  253,267; 8362,137;47,15618
1003,57; 3971,177;  248,729; 8245,983;46,54658
1004,12; 4017,638;  308,190; 8215,983;46,90877
1004,67; 3930,715;  234,575; 8095,598;47,01857
1005,22; 3867,562;  227,960; 7936,137;47,21742
1005,76; 3802,792;  226,267; 7783,598;47,32524
1006,31; 3783,023;  251,113; 7781,598;46,90149
1006,86; 3735,715;  228,729; 7687,598;47,01767
1007,40; 3662,562;  216,113; 7533,367;47,10029
1007,95; 3675,638;  250,575; 7461,983;47,49507
1008,50; 3609,485;  244,883; 7344,906;47,38861
1009,04; 3561,792;  230,652; 7232,752;47,57345
1009,59; 3513,100;  244,037; 7128,829;47,48238
1010,14; 3434,408;  225,267; 7051,906;47,00909
1010,68; 3410,100;  237,498; 6916,829;47,49880
1011,23; 3364,100;  236,037; 6828,675;47,44782
1011,78; 3348,869;  255,344; 6769,137;47,49192
1012,32; 3304,177;  283,806; 6691,752;47,13478
1012,87; 3291,331;  262,729; 6643,983;47,46092
1013,42; 3194,485;  226,806; 6473,983;47,50432
1013,96; 3257,331;  268,806; 6494,521;48,00292
1014,51; 3162,408;  206,344; 6393,598;47,77666
1015,06; 3162,485;  203,652; 6403,906;47,72115
1015,60; 3258,792;  280,652; 6451,060;48,26489
1016,15; 3145,331;  231,498; 6373,060;47,44449
1016,69; 3210,177;  235,575; 6424,060;48,06673
1017,24; 3230,331;  220,267; 6431,829;48,45905
1017,79; 3297,562;  270,960; 6481,290;48,73496
1018,33; 3251,177;  231,267; 6440,137;48,63864
1018,88; 3303,638;  245,190; 6552,675;48,48919
1019,42; 3327,715;  230,267; 6548,675;49,02261
1019,97; 3312,715;  209,883; 6469,137;49,57193
1020,51; 3365,254;  279,190; 6591,290;48,89123
1021,06; 3330,254;  223,575; 6571,060;48,94346
1021,61; 3282,331;  201,267; 6500,521;48,91156
1022,15; 3281,792;  191,113; 6470,060;49,22289
1022,70; 3316,562;  234,037; 6499,137;49,20153
1023,24; 3302,946;  219,806; 6389,829;49,96967
1023,79; 3276,408;  231,421; 6354,137;49,73262
1024,33; 3229,562;  230,113; 6322,598;49,23194
1024,88; 3225,023;  247,729; 6253,598;49,57308
1025,42; 3176,023;  245,729; 6151,137;49,62052
1025,97; 3132,023;  220,498; 6048,137;49,96063
1026,51; 3039,638;  199,421; 5972,675;49,19613
1027,06; 3014,254;  218,190; 5923,137;49,01122
1027,60; 2986,792;  251,344; 5800,213;49,29740
1028,15; 2961,792;  256,037; 5749,137;49,25736
1028,69; 2860,408;  206,344; 5603,367;49,17643
1029,24; 2870,408;  216,190; 5556,137;49,70495
1029,78; 2790,331;  216,037; 5452,060;49,16507
1030,33; 2758,331;  201,960; 5343,444;49,72049
1030,87; 2737,715;  224,575; 5287,906;49,63413
1031,42; 2699,638;  203,267; 5182,137;50,13932
1031,96; 2663,177;  241,037; 5170,675;49,13424
1032,51; 2630,177;  209,652; 5051,213;49,99472
1033,05; 2618,331;  238,190; 5009,444;49,88501
1033,60; 2528,946;  183,190; 4892,290;49,81325
1034,14; 2514,023;  208,190; 4845,367;49,72492
1034,69; 2492,715;  228,267; 4762,521;49,94092
1035,23; 2459,946;  218,344; 4690,521;50,12328
1035,77; 2437,638;  226,883; 4669,137;49,76653
1036,32; 2367,254;  205,729; 4557,598;49,66889
1036,86; 2384,946;  239,267; 4532,829;49,97434
1037,41; 2330,331;  235,190; 4476,060;49,40356
1037,95; 2265,177;  192,344; 4393,521;49,33933
1038,50; 2257,331;  202,575; 4317,675;49,93210
1039,04; 2255,254;  248,729; 4295,521;49,58310
1039,58; 2207,946;  219,267; 4189,906;50,08461
1040,13; 2184,869;  225,960; 4141,983;50,02293
1040,67; 2211,177;  241,498; 4143,290;50,48139
1041,21; 2197,254;  252,190; 4042,521;51,31646
1041,76; 2093,254;  209,037; 3988,752;49,85077
1042,30; 2104,946;  217,267; 3923,906;50,92698
1042,85; 2060,792;  204,652; 3864,521;50,71603
1043,39; 2026,485;  198,729; 3789,290;50,90445
1043,93; 2024,177;  237,806; 3793,675;50,23726
1044,48; 2009,485;  233,806; 3703,444;51,17763
1045,02; 1953,869;  215,498; 3644,983;50,68899
1045,56; 1972,177;  250,575; 3658,367;50,51957
1046,11; 1926,254;  226,652; 3545,367;51,21264
1046,65; 1897,869;  238,652; 3530,906;50,39761
1047,19; 1857,408;  206,652; 3467,752;50,61960
1047,74; 1838,331;  200,960; 3382,983;51,45692
1048,28; 1819,100;  233,575; 3404,906;49,99557
1048,82; 1836,792;  265,806; 3368,906;50,62636
1049,37; 1773,254;  240,267; 3296,752;50,15522
1049,91; 1766,331;  245,037; 3231,752;50,93536
1050,45; 1756,946;  240,652; 3193,290;51,35387
1050,99; 1722,562;  231,960; 3162,367;50,86671
1051,54; 1676,715;  214,421; 3091,137;50,83208
1052,08; 1699,638;  244,113; 3082,137;51,28658
1052,62; 1666,331;  248,113; 3054,521;50,53497
1053,16; 1624,638;  220,883; 2981,983;50,84045
1053,71; 1612,177;  231,498; 2964,598;50,51695
1054,25; 1585,715;  243,113; 2897,367;50,58303
1054,79; 1590,408;  236,113; 2883,675;51,15251
1055,33; 1538,254;  205,498; 2780,521;51,75704
1055,88; 1532,869;  233,729; 2766,829;51,28658
1056,42; 1529,562;  253,729; 2756,598;50,97480
1056,96; 1519,177;  250,729; 2731,983;51,12125
1057,50; 1487,177;  248,113; 2687,752;50,78881
1058,05; 1459,331;  227,113; 2608,367;51,74658
1058,59; 1476,254;  262,037; 2616,521;51,57041
1059,13; 1412,100;  214,190; 2550,290;51,27818
1059,67; 1421,562;  247,037; 2516,521;51,75294
1060,21; 1374,562;  237,652; 2470,444;50,91874
1060,76; 1380,408;  239,421; 2444,983;51,73225
1061,30; 1373,792;  256,806; 2448,675;50,96046
1061,84; 1335,638;  244,960; 2378,675;51,11642
1062,38; 1296,715;  206,344; 2308,829;51,86108
1062,92; 1339,254;  282,883; 2332,521;51,53939
1063,46; 1288,177;  244,729; 2290,906;50,99501
1064,01; 1241,715;  229,729; 2252,675;50,02538
1064,55; 1264,946;  240,575; 2228,137;51,53909
1065,09; 1221,254;  204,575; 2172,675;51,65789
1065,63; 1256,331;  266,729; 2171,213;51,96167
1066,17; 1248,562;  278,344; 2171,444;51,25019
1066,71; 1235,254;  263,652; 2122,752;52,26195
1067,25; 1194,331;  239,652; 2069,444;52,17416
1067,80; 1189,100;  255,190; 2065,290;51,59437
1068,34; 1178,792;  276,344; 2056,752;50,68772
1068,88; 1147,485;  236,421; 1961,752;52,80515
1069,42; 1169,177;  259,113; 1977,367;52,96444
1069,96; 1116,638;  234,883; 1939,598;51,72452
1070,50; 1163,485;  281,575; 1970,829;52,20705
1071,04; 1072,869;  230,037; 1896,675;50,57082
1071,58; 1093,715;  231,421; 1875,367;52,45271
1072,12; 1080,254;  250,498; 1863,598;51,43858
1072,66; 1050,100;  228,575; 1834,367;51,16010
1073,21; 1083,254;  257,113; 1841,367;52,14697
1073,75; 1049,331;  241,421; 1805,598;51,65078
1074,29; 1036,254;  235,652; 1750,906;52,83616
1074,83; 1038,177;  262,190; 1771,521;51,41262
1075,37; 1042,023;  262,037; 1757,598;52,15342
1075,91; 1010,485;  253,652; 1727,060;51,36614
1076,45;  991,946;  249,344; 1701,137;51,15070
1076,99;  993,485;  267,498; 1692,213;50,95660
1077,53;  962,869;  235,575; 1627,906;52,23574
1078,07;  960,792;  250,960; 1659,137;50,40792
1078,61;  959,177;  255,498; 1624,829;51,38852
1079,15;  932,100;  240,421; 1604,367;50,71159
1079,69;  920,485;  250,960; 1577,983;50,45315
1080,23;  945,485;  269,267; 1591,367;51,14721
1080,77;  967,100;  318,421; 1611,675;50,15866
1081,31;  894,946;  245,421; 1514,829;51,16756
1081,85;  911,638;  274,037; 1542,521;50,26485
1082,39;  869,331;  241,267; 1499,829;49,90328
1082,93;  887,023;  271,190; 1502,367;50,01984
1083,47;  859,792;  231,113; 1439,906;52,00884
1084,01;  870,869;  256,575; 1461,213;50,99407
1084,55;  841,638;  237,883; 1416,290;51,23488
1085,09;  845,331;  269,806; 1412,290;50,37486
1085,63;  848,869;  252,575; 1393,213;52,27723
1086,17;  815,638;  237,498; 1366,367;51,21411
1086,71;  815,946;  230,883; 1345,675;52,48184
1087,24;  842,331;  268,883; 1371,213;52,02142
1087,78;  832,485;  269,652; 1366,290;51,32345
1088,32;  792,638;  227,883; 1297,137;52,81774
1088,86;  811,254;  246,806; 1295,060;53,84651
1089,40;  790,023;  254,806; 1312,521;50,60126
1089,94;  768,177;  225,267; 1254,906;52,72818
1090,48;  773,177;  256,883; 1255,213;51,71575
1091,02;  793,946;  259,421; 1255,829;53,64521
1091,56;  754,562;  245,037; 1230,675;51,69492
1092,10;  729,485;  222,190; 1214,983;51,09772
1092,63;  758,485;  275,652; 1239,752;50,08118
1093,17;  751,946;  259,960; 1200,675;52,29919
1093,71;  717,177;  230,883; 1167,598;51,91483
1094,25;  731,100;  273,267; 1170,444;51,03037
1094,79;  707,100;  251,729; 1149,829;50,70384
1095,33;  714,715;  251,652; 1148,906;51,60897
1095,87;  694,408;  255,729; 1137,367;49,75723
1096,40;  678,408;  230,806; 1096,213;51,72151
1096,94;  687,638;  248,806; 1112,521;50,80756
1097,48;  703,638;  258,729; 1101,675;52,78031
1098,02;  663,177;  235,113; 1070,521;51,24007
1098,56;  631,023;  214,267; 1035,367;50,75579
1099,10;  628,792;  222,883; 1032,137;50,15850
1099,63;  634,792;  230,883; 1027,444;50,70664
1100,17;  657,869;  260,960; 1046,367;50,53549
1100,71;  684,254;  284,344; 1048,290;52,34788

