
Integration time [ms]: 160,000
Averaging Nr. [scans]: 13
Smoothing Nr. [pixels]: 0
Data measured with spectrometer [name]: 2009305U1
Wave   ;Sample   ;Dark     ;Reference;Reflectance
[nm]   ;[counts] ;[counts] ;[counts] ;[%]

 175,72;  206,590;  191,519;  191,486; 0,00000
 176,32;  212,932;  226,381;  214,940; 0,00000
 176,92;  242,948;  241,524;  244,812;43,32494
 177,52;  253,272;  247,676;  245,839; 0,00000
 178,12;  226,414;  222,611;  217,278; 0,00000
 178,72;  239,469;  259,077;  248,897; 0,00000
 179,32;  253,454;  243,304;  231,741; 0,00000
 179,92;  245,829;  248,144;  237,554; 0,00000
 180,52;  240,676;  228,126;  237,935;127,94560
 181,12;  238,992;  232,682;  237,833;122,49776
 181,73;  268,850;  263,757;  264,029; 0,00000
 182,33;  330,588;  317,286;  327,322;132,54304
 182,93;  256,440;  258,060;  265,199;-22,70714
 183,53;  234,787;  223,541;  225,512;570,75147
 184,13;  236,652;  226,770;  231,532;207,50981
 184,73;  257,755;  254,697;  264,670;30,66290
 185,33;  255,091;  232,099;  346,488;20,09998
 185,93;  264,133;  234,572;  343,963;27,02340
 186,53;  270,800;  246,720;  358,116;21,61689
 187,13;  305,550;  264,246;  412,664;27,82967
 187,73;  255,362;  228,801;  351,876;21,58116
 188,33;  273,863;  231,269;  359,775;33,14518
 188,93;  281,414;  241,675;  374,002;30,03098
 189,53;  291,882;  236,613;  379,198;38,76215
 190,13;  323,176;  276,331;  414,750;33,84281
 190,73;  264,106;  219,314;  352,281;33,68685
 191,34;  297,118;  248,296;  381,720;36,59152
 191,94;  264,451;  221,276;  358,118;31,55122
 192,54;  273,688;  259,775;  371,233;12,48303
 193,14;  286,063;  247,555;  368,494;31,84142
 193,74;  271,830;  243,865;  364,133;23,25225
 194,34;  276,471;  238,014;  369,577;29,23146
 194,94;  232,462;  207,324;  338,161;19,21277
 195,54;  211,788;  189,329;  331,243;15,82574
 196,14;  254,232;  216,165;  357,725;26,89156
 196,74;  248,380;  215,486;  327,390;29,39493
 197,34;  231,542;  195,926;  336,271;25,37735
 197,94;  249,491;  224,630;  362,240;18,06647
 198,54;  246,524;  226,165;  386,988;12,65957
 199,14;  233,885;  218,614;  377,550; 9,60800
 199,74;  228,564;  191,614;  370,422;20,66446
 200,34;  218,392;  183,689;  369,521;18,67434
 200,94;  252,619;  218,082;  405,289;18,44836
 201,54;  242,221;  202,847;  404,126;19,56210
 202,14;  261,328;  220,609;  436,391;18,87009
 202,74;  249,620;  209,153;  447,622;16,96950
 203,34;  232,263;  192,066;  473,783;14,26881
 203,94;  197,260;  163,300;  464,363;11,27988
 204,54;  278,607;  246,937;  543,462;10,68043
 205,14;  234,177;  185,307;  540,736;13,74957
 205,74;  274,137;  229,143;  624,348;11,38485
 206,34;  239,633;  197,610;  653,244; 9,22303
 206,94;  256,972;  200,611;  693,120;11,44353
 207,54;  236,305;  184,687;  719,137; 9,65807
 208,14;  259,963;  195,455;  803,345;10,61189
 208,74;  257,002;  198,230;  855,552; 8,94113
 209,34;  254,645;  193,229;  944,023; 8,18019
 209,94;  261,503;  199,537; 1044,543; 7,33314
 210,54;  275,025;  203,376; 1111,898; 7,88632
 211,14;  276,991;  212,922; 1222,339; 6,34713
 211,73;  275,798;  209,464; 1314,673; 6,00199
 212,33;  308,940;  222,082; 1403,956; 7,34914
 212,93;  286,260;  202,385; 1461,117; 6,66349
 213,53;  278,527;  170,923; 1512,962; 8,01801
 214,13;  284,728;  181,292; 1572,742; 7,43369
 214,73;  292,558;  172,302; 1608,237; 8,37480
 215,33;  268,733;  150,922; 1633,236; 7,94782
 215,93;  320,363;  194,451; 1783,978; 7,92131
 216,53;  291,502;  152,924; 1831,099; 8,25769
 217,13;  353,842;  215,607; 2029,263; 7,62190
 217,73;  345,566;  194,989; 2219,797; 7,43661
 218,33;  328,910;  149,983; 2354,982; 8,11459
 218,93;  376,872;  179,356; 2654,801; 7,97904
 219,53;  404,819;  172,214; 2901,699; 8,52196
 220,13;  414,933;  151,903; 3178,988; 8,68921
 220,73;  453,553;  174,152; 3474,978; 8,46456
 221,32;  480,541;  179,077; 3842,860; 8,22822
 221,92;  533,112;  174,981; 4170,791; 8,96265
 222,52;  546,895;  178,373; 4533,597; 8,46159
 223,12;  585,623;  176,988; 4906,673; 8,63980
 223,72;  633,225;  192,680; 5246,005; 8,71793
 224,32;  653,139;  176,448; 5603,170; 8,78414
 224,92;  673,108;  176,372; 5860,465; 8,73905
 225,52;  720,804;  187,457; 6182,069; 8,89711
 226,12;  731,070;  178,684; 6419,963; 8,85053
 226,72;  743,448;  148,377; 6719,830; 9,05539
 227,31;  751,185;  153,223; 7036,048; 8,68774
 227,91;  839,779;  189,458; 7401,206; 9,01752
 228,51;  849,551;  171,850; 7795,414; 8,88955
 229,11;  889,427;  172,070; 8048,723; 9,10739
 229,71;  912,319;  157,539; 8378,618; 9,18103
 230,31;  939,452;  162,677; 8740,754; 9,05536
 230,91;  987,290;  159,469; 9042,583; 9,31904
 231,51;  991,842;  152,605; 9274,862; 9,19989
 232,10; 1030,326;  156,214; 9507,841; 9,34717
 232,70; 1093,241;  178,475; 9699,423; 9,60793
 233,30; 1117,711;  189,760; 9927,902; 9,52904
 233,90; 1112,525;  165,990;10050,274; 9,57616
 234,50; 1138,596;  171,451;10084,509; 9,75627
 235,10; 1170,415;  164,141;10103,619;10,12402
 235,70; 1180,238;  183,459;10081,290;10,07069
 236,29; 1202,552;  182,077;10024,611;10,36801
 236,89; 1180,758;  158,776; 9855,716;10,53923
 237,49; 1188,054;  180,376; 9778,456;10,49875
 238,09; 1182,941;  172,610; 9429,552;10,91431
 238,69; 1196,911;  199,549; 9207,673;11,07181
 239,29; 1144,316;  165,918; 8939,888;11,15114
 239,89; 1150,175;  192,314; 8592,882;11,40233
 240,48; 1105,755;  168,379; 8220,540;11,64130
 241,08; 1084,940;  166,611; 7864,646;11,92939
 241,68; 1094,929;  179,455; 7641,109;12,26905
 242,28; 1080,690;  171,299; 7287,026;12,78002
 242,88; 1106,484;  196,830; 7036,382;13,29990
 243,48; 1084,145;  201,761; 6783,508;13,40653
 244,07; 1054,132;  183,382; 6590,809;13,58971
 244,67; 1068,783;  192,916; 6405,549;14,09816
 245,27; 1076,106;  186,310; 6269,980;14,62597
 245,87; 1106,705;  194,678; 6247,872;15,06688
 246,47; 1108,445;  181,617; 6208,147;15,37913
 247,06; 1126,762;  172,841; 6224,536;15,76286
 247,66; 1146,316;  180,224; 6324,025;15,72467
 248,26; 1229,439;  196,232; 6477,766;16,44832
 248,86; 1261,111;  190,232; 6660,735;16,55015
 249,46; 1274,010;  151,374; 6845,606;16,77019
 250,05; 1406,705;  189,072; 7218,028;17,32311
 250,65; 1484,943;  158,465; 7524,316;18,00848
 251,25; 1580,521;  170,535; 8010,795;17,98393
 251,85; 1681,973;  156,161; 8552,748;18,17182
 252,44; 1798,817;  145,384; 9145,462;18,37131
 253,04; 2000,399;  186,614; 9842,055;18,78511
 253,64; 2100,456;  150,389;10539,607;18,77010
 254,24; 2302,026;  195,456;11361,387;18,86605
 254,84; 2501,933;  172,682;12305,836;19,19741
 255,43; 2703,190;  178,461;13226,711;19,34918
 256,03; 2912,954;  172,388;14130,990;19,63352
 256,63; 3094,650;  180,622;15117,241;19,50928
 257,23; 3279,869;  171,006;16015,952;19,62053
 257,82; 3508,793;  182,243;16908,150;19,88861
 258,42; 3650,446;  147,938;17764,253;19,88219
 259,02; 3882,858;  187,922;18666,985;19,99526
 259,62; 4022,740;  167,170;19291,834;20,16020
 260,21; 4162,140;  174,538;19848,507;20,26842
 260,81; 4258,328;  174,454;20382,836;20,20881
 261,41; 4352,508;  154,474;20849,883;20,28485
 262,01; 4496,705;  207,557;21322,768;20,31307
 262,60; 4509,792;  161,160;21668,644;20,21916
 263,20; 4570,642;  163,925;22129,526;20,06190
 263,80; 4670,703;  198,096;22143,160;20,38093
 264,40; 4668,945;  157,018;22440,048;20,24827
 264,99; 4741,667;  171,250;22611,931;20,36666
 265,59; 4690,633;  165,258;22695,679;20,08562
 266,19; 4727,459;  157,480;22951,570;20,04896
 266,78; 4770,238;  207,177;23081,355;19,94853
 267,38; 4708,955;  173,026;23060,175;19,81867
 267,98; 4707,673;  161,176;23065,252;19,85016
 268,58; 4694,384;  179,026;23071,394;19,72430
 269,17; 4697,688;  163,570;23156,529;19,71959
 269,77; 4597,342;  199,624;22992,643;19,29414
 270,37; 4556,049;  155,635;22842,399;19,39639
 270,96; 4562,854;  207,243;22664,798;19,39486
 271,56; 4440,080;  173,622;22521,767;19,09088
 272,16; 4325,333;  171,244;22350,314;18,72977
 272,75; 4353,476;  172,782;22239,717;18,94551
 273,35; 4305,753;  176,627;22288,149;18,67409
 273,95; 4241,924;  167,936;22291,511;18,41469
 274,54; 4237,472;  146,687;22325,343;18,44469
 275,14; 4281,094;  175,472;22688,769;18,23643
 275,74; 4211,689;  145,783;22698,525;18,02843
 276,33; 4344,525;  197,471;23172,509;18,05026
 276,93; 4346,332;  180,378;23513,454;17,85429
 277,53; 4416,077;  169,231;24008,482;17,81451
 278,12; 4474,908;  149,005;24511,251;17,75658
 278,72; 4614,025;  199,155;25045,285;17,76884
 279,32; 4680,819;  162,463;25561,472;17,78950
 279,91; 4780,574;  155,465;26301,822;17,68931
 280,51; 4892,342;  172,230;26734,257;17,77015
 281,11; 5050,927;  180,311;27427,118;17,87591
 281,70; 5088,596;  157,696;27831,402;17,81800
 282,30; 5235,003;  158,392;28455,152;17,94061
 282,90; 5332,263;  175,392;28714,479;18,06950
 283,49; 5433,431;  180,011;29265,866;18,06177
 284,09; 5539,207;  196,466;29706,031;18,10512
 284,69; 5671,323;  195,233;29993,775;18,37704
 285,28; 5757,990;  183,005;30359,468;18,47461
 285,88; 5882,517;  206,014;30554,411;18,70446
 286,47; 5908,969;  168,546;30631,454;18,84397
 287,07; 6080,909;  199,155;30623,447;19,33243
 287,67; 6212,068;  189,761;30817,047;19,66321
 288,26; 6316,122;  169,925;30760,410;20,09186
 288,86; 6449,793;  175,543;30852,165;20,45287
 289,46; 6709,239;  182,772;30893,103;21,25170
 290,05; 6854,996;  170,766;30991,385;21,68753
 290,65; 7103,407;  169,931;31207,431;22,33903
 291,24; 7349,516;  183,847;31324,458;23,01069
 291,84; 7598,342;  194,930;31426,472;23,70492
 292,44; 7749,014;  166,452;31550,147;24,16083
 293,03; 8067,577;  241,539;31674,721;24,89738
 293,63; 8179,385;  164,930;31864,697;25,28238
 294,22; 8420,712;  196,465;32001,316;25,85847
 294,82; 8537,518;  175,633;31976,361;26,29463
 295,41; 8583,058;  166,927;31701,402;26,68867
 296,01; 8749,186;  214,015;31546,618;27,24054
 296,61; 8672,513;  186,155;31399,312;27,18840
 297,20; 8705,700;  192,860;30949,353;27,67819
 297,80; 8730,533;  188,457;30910,298;27,80457
 298,39; 8643,589;  163,161;30481,286;27,97148
 298,99; 8672,271;  191,089;30377,195;28,09631
 299,58; 8636,488;  192,839;30282,139;28,06197
 300,18; 8617,908;  189,688;30016,711;28,25699
 300,78; 8501,837;  174,384;29772,955;28,13465
 301,37; 8489,764;  190,329;29760,979;28,06646
 301,97; 8496,207;  176,080;29827,091;28,06018
 302,56; 8463,102;  176,700;29648,270;28,11659
 303,16; 8470,534;  159,164;29629,421;28,20257
 303,75; 8409,940;  173,613;29682,510;27,91133
 304,35; 8426,852;  165,834;29957,757;27,72905
 304,94; 8406,703;  187,849;30010,558;27,55905
 305,54; 8379,772;  195,154;29870,013;27,58098
 306,13; 8285,917;  139,218;29866,698;27,40461
 306,73; 8234,966;  154,914;29594,398;27,44631
 307,33; 8223,525;  181,531;29596,215;27,34007
 307,92; 8191,455;  181,616;29674,734;27,15833
 308,52; 8234,852;  161,241;30113,941;26,95454
 309,11; 8362,656;  166,631;30634,145;26,90087
 309,71; 8389,106;  155,634;30744,044;26,91697
 310,30; 8395,389;  159,771;31007,254;26,69786
 310,90; 8491,235;  192,617;31364,177;26,62240
 311,49; 8467,445;  179,002;31494,531;26,46752
 312,09; 8400,094;  150,842;31694,108;26,15218
 312,68; 8495,912;  203,769;32062,500;26,02785
 313,28; 8471,608;  148,539;32155,195;26,00418
 313,87; 8466,185;  147,002;32277,050;25,89222
 314,47; 8438,716;  172,860;32460,552;25,60064
 315,06; 8451,918;  156,077;32557,804;25,60308
 315,66; 8423,248;  162,765;32782,723;25,32340
 316,25; 8310,939;  140,548;32727,606;25,07250
 316,85; 8249,019;  136,611;32728,331;24,89101
 317,44; 8255,123;  158,553;32934,054;24,70311
 318,04; 8155,987;  138,392;32953,723;24,43247
 318,63; 8120,444;  145,222;33027,981;24,25351
 319,22; 8148,559;  170,009;33123,668;24,21142
 319,82; 8088,125;  169,698;33174,968;23,99140
 320,41; 7987,317;  164,239;33110,840;23,74472
 321,01; 7926,779;  170,228;33235,514;23,45829
 321,60; 7873,544;  167,697;33353,128;23,22057
 322,20; 7783,873;  161,539;33306,047;22,99728
 322,79; 7790,319;  196,462;33478,541;22,81665
 323,39; 7712,983;  163,451;33505,425;22,64273
 323,98; 7625,849;  146,615;33346,321;22,52801
 324,58; 7558,330;  165,856;33324,986;22,29393
 325,17; 7503,912;  171,086;33255,271;22,16414
 325,76; 7405,782;  187,464;33026,705;21,98077
 326,36; 7266,885;  137,997;32587,456;21,96921
 326,95; 7192,379;  183,081;32303,069;21,82223
 327,55; 7057,030;  155,544;31954,546;21,70347
 328,14; 6900,508;  152,456;31669,956;21,41049
 328,74; 6822,269;  192,085;31195,168;21,38556
 329,33; 6675,406;  178,920;30908,649;21,14072
 329,92; 6505,921;  152,861;30305,305;21,06980
 330,52; 6389,282;  160,225;29683,788;21,09860
 331,11; 6275,483;  162,620;29303,557;20,97689
 331,71; 6113,112;  168,618;28648,438;20,87265
 332,30; 6051,703;  184,541;28346,327;20,83377
 332,89; 5913,924;  210,383;27737,003;20,72009
 333,49; 5732,241;  171,620;27301,652;20,49618
 334,08; 5621,860;  169,159;26966,501;20,34792
 334,68; 5514,293;  174,775;26522,251;20,26577
 335,27; 5421,970;  170,839;26254,324;20,13202
 335,86; 5384,329;  220,082;25924,326;20,09103
 336,46; 5308,543;  186,992;25644,406;20,11811
 337,05; 5240,451;  164,620;25591,314;19,96261
 337,65; 5197,462;  148,621;25424,219;19,97516
 338,24; 5209,647;  212,538;25449,418;19,80082
 338,83; 5127,896;  192,230;25322,071;19,64066
 339,43; 5126,742;  162,316;25317,303;19,73535
 340,02; 5106,411;  168,471;25204,126;19,72363
 340,61; 5103,210;  154,385;25279,682;19,69658
 341,21; 5092,423;  192,931;25300,629;19,51390
 341,80; 5138,367;  166,083;25175,412;19,88172
 342,40; 5097,224;  182,147;25335,441;19,54049
 342,99; 5115,847;  177,306;25400,234;19,57957
 343,58; 5156,021;  173,228;25552,957;19,63296
 344,18; 5192,996;  181,535;25673,231;19,65919
 344,77; 5222,979;  152,087;26017,069;19,60524
 345,36; 5269,687;  152,158;26354,530;19,53078
 345,96; 5367,207;  204,074;26514,816;19,62367
 346,55; 5402,401;  148,835;26760,815;19,74136
 347,14; 5484,733;  148,147;27187,191;19,73659
 347,74; 5573,908;  142,212;27508,203;19,84834
 348,33; 5729,190;  160,752;28244,109;19,82825
 348,92; 5850,649;  180,131;28836,764;19,78780
 349,52; 5930,829;  146,980;29272,577;19,85830
 350,11; 5988,619;  166,087;29417,410;19,90519
 350,70; 6031,317;  157,155;29458,240;20,04759
 351,29; 5926,976;  154,792;29074,266;19,95950
 351,89; 6019,794;  177,938;29185,870;20,13882
 352,48; 5973,269;  139,693;29141,337;20,11464
 353,07; 5986,450;  171,915;29109,592;20,09330
 353,67; 6022,255;  179,977;29116,544;20,18995
 354,26; 5951,825;  165,993;28760,313;20,23420
 354,85; 5981,682;  177,303;28634,543;20,39684
 355,45; 5927,437;  152,237;28403,279;20,44243
 356,04; 5950,425;  168,222;28404,482;20,47794
 356,63; 5973,951;  191,004;28218,074;20,63344
 357,22; 5896,309;  176,020;28075,419;20,50327
 357,82; 5935,115;  177,402;27867,785;20,79319
 358,41; 5949,579;  178,772;27794,578;20,89675
 359,00; 5889,527;  153,316;27598,963;20,90026
 359,60; 5920,016;  178,461;27560,373;20,96842
 360,19; 5897,772;  175,067;27301,935;21,09608
 360,78; 5902,585;  166,929;27225,129;21,19748
 361,37; 5917,494;  165,005;26908,077;21,51020
 361,97; 5885,850;  174,003;26860,887;21,40320
 362,56; 5850,079;  145,549;26577,032;21,58233
 363,15; 5822,134;  194,237;26303,342;21,55531
 363,74; 5819,949;  168,860;26023,083;21,85751
 364,34; 5773,602;  187,624;25690,124;21,90365
 364,93; 5698,533;  151,704;25203,284;22,14163
 365,52; 5654,406;  158,389;24911,711;22,20315
 366,11; 5651,697;  169,316;24585,008;22,45433
 366,71; 5553,020;  154,701;24238,207;22,41501
 367,30; 5536,886;  165,697;23887,287;22,64262
 367,89; 5524,372;  201,996;23672,088;22,67727
 368,48; 5508,922;  178,551;23411,826;22,94283
 369,07; 5436,701;  170,693;22951,471;23,11602
 369,67; 5423,130;  191,704;22739,631;23,20136
 370,26; 5347,597;  167,000;22519,906;23,17639
 370,85; 5328,313;  161,774;22237,512;23,40370
 371,44; 5323,216;  165,157;22032,849;23,58758
 372,03; 5285,541;  150,547;21881,015;23,63038
 372,63; 5242,689;  148,158;21489,600;23,87154
 373,22; 5246,450;  162,309;21189,979;24,17834
 373,81; 5162,374;  154,236;20916,621;24,12121
 374,40; 5172,678;  165,917;20720,540;24,35832
 374,99; 5129,824;  154,929;20468,887;24,49003
 375,59; 5098,626;  159,841;20201,958;24,64203
 376,18; 5130,967;  181,698;20077,213;24,87630
 376,77; 5076,253;  173,464;19852,848;24,91332
 377,36; 5119,804;  189,159;19814,532;25,12383
 377,95; 5113,147;  169,162;19639,334;25,39261
 378,55; 5067,548;  150,920;19462,283;25,45977
 379,14; 5106,173;  174,005;19361,333;25,70534
 379,73; 5098,274;  160,085;19264,769;25,84806
 380,32; 5198,020;  181,003;19354,470;26,16645
 380,91; 5141,789;  157,320;19136,857;26,26233
 381,50; 5197,757;  183,241;19149,288;26,43944
 382,10; 5193,635;  153,003;19045,162;26,68108
 382,69; 5190,971;  140,467;18996,353;26,78476
 383,28; 5253,966;  172,471;18951,478;27,05944
 383,87; 5218,396;  152,164;18828,773;27,12608
 384,46; 5269,412;  152,402;18778,418;27,47238
 385,05; 5303,588;  193,241;18749,782;27,53933
 385,64; 5322,081;  165,009;18796,701;27,67904
 386,24; 5352,823;  157,479;18710,830;28,00219
 386,83; 5424,830;  181,249;18770,672;28,20733
 387,42; 5479,439;  172,393;18884,905;28,36095
 388,01; 5623,330;  180,794;19073,879;28,80703
 388,60; 5706,713;  169,631;19409,038;28,77990
 389,19; 5751,090;  154,264;19546,738;28,86082
 389,78; 5881,892;  158,108;19700,810;29,28860
 390,37; 6078,440;  213,175;20191,011;29,35886
 390,96; 6120,943;  166,710;20351,286;29,49893
 391,56; 6188,513;  166,882;20451,610;29,68554
 392,15; 6286,028;  163,491;20695,832;29,81899
 392,74; 6382,541;  132,663;20900,341;30,09426
 393,33; 6510,026;  157,499;21161,285;30,24468
 393,92; 6686,832;  166,438;21593,886;30,43010
 394,51; 6800,915;  153,345;21704,972;30,84486
 395,10; 6901,739;  185,762;21908,982;30,91612
 395,69; 7010,468;  172,298;22015,194;31,30615
 396,28; 7095,194;  180,230;22096,663;31,55150
 396,87; 7130,667;  176,015;22212,768;31,55933
 397,46; 7255,291;  174,332;22389,836;31,87395
 398,06; 7334,801;  185,191;22498,999;32,04119
 398,65; 7406,603;  163,451;22630,643;32,23880
 399,24; 7512,111;  188,149;22754,828;32,45476
 399,83; 7558,895;  155,424;22728,789;32,79738
 400,42; 7639,228;  197,771;22877,609;32,81089
 401,01; 7798,680;  158,970;22988,168;33,46464
 401,60; 7802,629;  182,878;22929,712;33,49807
 402,19; 7848,744;  203,773;22941,894;33,62183
 402,78; 7918,439;  205,310;22956,374;33,90228
 403,37; 7899,304;  189,151;22829,248;34,05530
 403,96; 7889,514;  181,234;22622,689;34,34839
 404,55; 7898,411;  182,405;22586,377;34,44035
 405,14; 7871,967;  175,874;22450,519;34,55091
 405,73; 7911,540;  181,896;22343,367;34,87875
 406,32; 7931,243;  183,732;22345,064;34,95959
 406,91; 7933,953;  178,579;21967,375;35,59340
 407,50; 7862,793;  181,465;21751,722;35,61074
 408,09; 7821,882;  151,954;21563,625;35,82125
 408,68; 7855,270;  173,436;21473,709;36,06449
 409,27; 7808,207;  163,333;21246,772;36,26009
 409,86; 7805,307;  172,196;21121,603;36,43593
 410,45; 7917,084;  190,838;21022,469;37,08901
 411,04; 7928,517;  204,786;20952,857;37,22626
 411,63; 7789,465;  193,641;20688,927;37,06132
 412,22; 7848,237;  197,965;20532,710;37,62168
 412,81; 7762,662;  201,866;20271,681;37,67247
 413,40; 7694,339;  205,146;20048,553;37,74147
 413,99; 7669,622;  238,232;19682,137;38,21964
 414,58; 7548,114;  167,303;19278,259;38,62084
 415,17; 7471,494;  184,328;19139,167;38,44489
 415,76; 7451,603;  172,659;18944,690;38,77548
 416,35; 7452,643;  159,493;18859,431;39,00093
 416,94; 7587,863;  193,731;18884,203;39,56097
 417,53; 7685,325;  179,018;19111,182;39,64844
 418,12; 7745,279;  173,089;19221,766;39,75179
 418,71; 7944,484;  192,376;19514,718;40,11992
 419,30; 7982,974;  189,703;19578,357;40,19501
 419,89; 8098,661;  174,006;19798,096;40,38228
 420,48; 8268,256;  201,684;20076,557;40,58678
 421,07; 8278,895;  188,064;20149,470;40,53237
 421,66; 8340,987;  166,282;20169,254;40,86745
 422,25; 8407,602;  170,565;20084,052;41,36411
 422,84; 8414,644;  208,099;20020,387;41,42149
 423,43; 8354,295;  187,340;19716,558;41,81916
 424,02; 8270,857;  204,643;19509,009;41,78440
 424,60; 8097,838;  174,152;19135,956;41,78762
 425,19; 8056,990;  191,398;18867,548;42,11570
 425,78; 8078,126;  204,550;18828,493;42,27663
 426,37; 8071,552;  209,232;18675,167;42,57743
 426,96; 8069,846;  184,694;18627,269;42,75516
 427,55; 8000,860;  178,446;18405,796;42,91580
 428,14; 7972,905;  171,824;18210,337;43,24681
 428,73; 7946,514;  193,837;18109,465;43,27326
 429,32; 7987,092;  200,388;18035,870;43,65850
 429,91; 7984,736;  217,144;18027,245;43,61341
 430,50; 7961,053;  203,674;17922,001;43,78167
 431,08; 7934,492;  231,204;17790,207;43,87087
 431,67; 7938,250;  254,427;17645,625;44,18225
 432,26; 7874,403;  273,343;17443,178;44,26985
 432,85; 7750,430;  282,345;17148,684;44,27804
 433,44; 7596,969;  299,796;16804,357;44,21307
 434,03; 7494,310;  309,473;16399,778;44,65321
 434,62; 7422,284;  271,872;16063,336;45,28023
 435,21; 7342,118;  283,113;15909,450;45,17377
 435,79; 7233,571;  278,402;15782,611;44,85988
 436,38; 7267,417;  276,618;15723,949;45,25571
 436,97; 7215,850;  279,000;15590,912;45,30361
 437,56; 7194,788;  276,209;15432,003;45,64973
 438,15; 7127,017;  237,599;15359,670;45,55869
 438,74; 7198,959;  262,982;15371,844;45,90668
 439,33; 7243,503;  225,062;15379,396;46,31310
 439,91; 7231,617;  187,744;15453,700;46,14105
 440,50; 7341,902;  237,281;15497,506;46,55646
 441,09; 7351,575;  236,577;15605,746;46,29397
 441,68; 7364,468;  226,794;15592,005;46,45347
 442,27; 7356,776;  208,800;15526,973;46,66338
 442,86; 7350,838;  190,926;15618,999;46,40834
 443,44; 7429,099;  198,239;15634,063;46,84466
 444,03; 7463,074;  252,618;15656,216;46,81021
 444,62; 7362,366;  193,079;15499,248;46,83919
 445,21; 7353,722;  211,467;15270,256;47,42915
 445,80; 7343,172;  232,452;15293,612;47,21230
 446,39; 7189,042;  246,532;15035,740;46,94308
 446,97; 7097,355;  187,899;14795,739;47,29964
 447,56; 6997,969;  191,425;14604,710;47,22410
 448,15; 6945,891;  198,899;14427,208;47,41949
 448,74; 6868,043;  220,513;14189,352;47,58828
 449,33; 6802,303;  200,350;14136,677;47,37226
 449,91; 6683,997;  201,951;13859,162;47,46245
 450,50; 6629,987;  182,184;13693,054;47,72308
 451,09; 6602,956;  206,567;13569,870;47,86533
 451,68; 6575,530;  227,253;13481,362;47,89667
 452,26; 6515,154;  220,093;13403,982;47,74814
 452,85; 6465,029;  198,943;13360,190;47,61012
 453,44; 6515,487;  219,077;13312,491;48,08837
 454,03; 6466,513;  197,858;13327,613;47,74388
 454,61; 6513,960;  185,691;13289,071;48,29494
 455,20; 6600,616;  209,069;13479,934;48,16225
 455,79; 6605,178;  214,696;13459,602;48,24860
 456,38; 6625,598;  224,212;13555,954;48,01613
 456,97; 6645,971;  200,600;13592,776;48,12788
 457,55; 6660,364;  196,130;13600,224;48,22582
 458,14; 6665,841;  220,295;13573,980;48,26792
 458,73; 6620,607;  216,898;13484,112;48,26717
 459,31; 6668,877;  232,193;13586,777;48,19831
 459,90; 6693,853;  251,200;13604,728;48,24682
 460,49; 6709,560;  269,896;13688,038;47,99222
 461,08; 6718,881;  198,341;13829,795;47,83451
 461,66; 6748,026;  208,579;13871,714;47,86198
 462,25; 6838,726;  204,259;13941,058;48,29704
 462,84; 6836,508;  237,801;14034,529;47,82806
 463,43; 6764,284;  187,630;13949,598;47,78862
 464,01; 6765,933;  195,086;13943,406;47,79382
 464,60; 6772,215;  247,865;13873,776;47,88194
 465,19; 6616,778;  187,082;13654,917;47,74112
 465,77; 6615,017;  209,230;13609,383;47,80384
 466,36; 6553,146;  217,630;13468,566;47,81184
 466,95; 6411,052;  202,321;13203,127;47,75651
 467,53; 6256,264;  196,838;12918,904;47,62926
 468,12; 6169,787;  227,451;12626,842;47,92442
 468,71; 6011,667;  220,927;12418,817;47,47330
 469,29; 5889,801;  193,219;12210,569;47,40298
 469,88; 5792,476;  199,752;11986,018;47,45120
 470,47; 5915,246;  249,510;12106,153;47,78533
 471,06; 5850,036;  216,432;12121,030;47,32293
 471,64; 5900,271;  229,282;12183,743;47,43827
 472,23; 5877,320;  188,259;12228,146;47,25178
 472,81; 5936,077;  190,501;12284,568;47,50740
 473,40; 5994,139;  196,413;12468,504;47,24318
 473,99; 6120,478;  273,412;12629,363;47,32186
 474,57; 6117,349;  199,105;12718,704;47,27183
 475,16; 6149,281;  210,267;12926,140;46,70552
 475,75; 6202,974;  228,866;13002,768;46,76807
 476,33; 6246,741;  233,550;13063,774;46,86739
 476,92; 6240,325;  239,641;13125,500;46,56798
 477,51; 6263,369;  222,861;13194,398;46,56740
 478,09; 6243,971;  217,323;13186,654;46,46845
 478,68; 6197,969;  229,088;13142,473;46,22244
 479,27; 6221,517;  246,866;13202,831;46,11506
 479,85; 6190,195;  215,704;13235,564;45,88752
 480,44; 6277,047;  219,315;13332,746;46,19487
 481,02; 7004,081;  216,923;15223,998;45,22639
 481,61; 7742,345;  253,388;16832,268;45,17167
 482,20; 8203,776;  236,230;17846,529;45,24367
 482,78; 8499,033;  273,548;18530,404;45,05423
 483,37; 8667,460;  250,449;19003,367;44,88374
 483,95; 8713,126;  284,754;19237,862;44,46960
 484,54; 8822,872;  291,851;19346,842;44,77053
 485,13; 8696,070;  253,052;19237,891;44,47242
 485,71; 8592,379;  247,594;19011,303;44,47300
 486,30; 8465,904;  283,902;18742,020;44,32739
 486,88; 8302,418;  317,284;18346,123;44,29089
 487,47; 7999,855;  300,281;17589,841;44,53308
 488,05; 7528,877;  284,431;16764,992;43,95752
 488,64; 6935,214;  289,268;15436,548;43,87551
 489,23; 6027,635;  287,813;13403,608;43,76267
 489,81; 5287,643;  294,579;11755,569;43,56573
 490,40; 5081,490;  243,193;11302,629;43,74813
 490,98; 4942,984;  236,650;11124,761;43,22452
 491,57; 4936,138;  255,427;11095,592;43,17933
 492,15; 4858,966;  233,033;10996,937;42,97635
 492,74; 4816,422;  242,507;10833,893;43,18524
 493,32; 4774,916;  252,343;10845,750;42,69233
 493,91; 4713,712;  235,875;10701,946;42,78432
 494,50; 4723,092;  241,782;10673,204;42,95972
 495,08; 4637,947;  233,475;10579,732;42,57068
 495,67; 4636,239;  236,569;10566,058;42,59329
 496,25; 4551,438;  190,252;10474,505;42,40644
 496,84; 4536,186;  202,339;10436,707;42,34602
 497,42; 4472,188;  194,095;10452,287;41,70416
 498,01; 4454,157;  218,106;10343,209;41,83712
 498,59; 4393,661;  186,324;10299,944;41,60070
 499,18; 4345,151;  187,259;10242,521;41,35041
 499,76; 4360,286;  198,021;10174,575;41,72047
 500,35; 4237,403;  202,009;10037,163;41,03031
 500,93; 4233,398;  183,865; 9971,333;41,37468
 501,52; 4191,274;  193,786; 9918,412;41,10685
 502,10; 4143,626;  203,310; 9872,661;40,75058
 502,69; 4084,365;  189,766; 9709,597;40,91039
 503,27; 3989,805;  171,243; 9539,466;40,76079
 503,86; 3942,838;  188,614; 9468,596;40,45507
 504,44; 3866,975;  176,455; 9385,353;40,07559
 505,03; 3758,914;  152,532; 9109,013;40,26561
 505,61; 3712,187;  171,611; 9022,948;40,00046
 506,19; 3655,002;  201,763; 8915,456;39,63002
 506,78; 3560,010;  164,597; 8724,724;39,66544
 507,36; 3503,506;  169,533; 8542,528;39,81817
 507,95; 3467,115;  174,131; 8423,391;39,91854
 508,53; 3407,838;  177,982; 8358,917;39,48027
 509,12; 3343,900;  182,055; 8156,607;39,64918
 509,70; 3292,692;  200,745; 8071,460;39,28420
 510,29; 3222,572;  200,047; 7914,882;39,17809
 510,87; 3119,344;  162,059; 7730,674;39,07300
 511,46; 3037,596;  166,826; 7573,303;38,76027
 512,04; 3005,740;  173,358; 7446,115;38,94510
 512,62; 2931,352;  178,441; 7338,558;38,44784
 513,21; 2836,900;  153,585; 7126,451;38,48224
 513,79; 2804,591;  176,951; 7032,609;38,32804
 514,38; 2701,969;  155,188; 6900,213;37,75792
 514,96; 2722,190;  193,189; 6805,625;38,24613
 515,54; 2610,316;  168,878; 6674,648;37,52727
 516,13; 2570,219;  183,030; 6581,831;37,30681
 516,71; 2526,974;  163,638; 6470,795;37,47071
 517,30; 2459,076;  159,785; 6343,152;37,18509
 517,88; 2446,548;  189,016; 6325,749;36,78720
 518,46; 2380,115;  161,782; 6208,664;36,68556
 519,05; 2346,528;  172,392; 6162,716;36,29413
 519,63; 2331,444;  174,857; 6103,985;36,37275
 520,22; 2306,614;  186,999; 6063,011;36,07234
 520,80; 2261,069;  174,537; 5974,169;35,97698
 521,38; 2248,429;  200,314; 5943,214;35,66342
 521,97; 2215,098;  163,301; 5948,913;35,46378
 522,55; 2218,589;  192,916; 5899,087;35,49968
 523,13; 2193,377;  164,527; 5895,475;35,40165
 523,72; 2179,588;  176,783; 5902,339;34,98010
 524,30; 2265,449;  187,446; 6033,060;35,54807
 524,89; 2210,168;  173,761; 6062,840;34,57938
 525,47; 2256,791;  188,366; 6140,356;34,75182
 526,05; 2237,018;  156,288; 6214,583;34,34513
 526,64; 2258,860;  185,593; 6331,409;33,73461
 527,22; 2309,789;  173,521; 6435,363;34,11565
 527,80; 2374,901;  212,670; 6570,642;34,00818
 528,39; 2352,413;  166,051; 6667,042;33,63122
 528,97; 2375,840;  178,591; 6853,054;32,92023
 529,55; 2454,409;  199,835; 7020,103;33,05697
 530,14; 2513,869;  200,586; 7212,337;32,99151
 530,72; 2527,288;  172,745; 7298,694;33,04182
 531,30; 2525,016;  168,277; 7399,341;32,59187
 531,89; 2555,677;  185,662; 7495,713;32,42132
 532,47; 2596,854;  210,275; 7550,258;32,51478
 533,05; 2588,453;  197,824; 7607,309;32,26443
 533,63; 2612,359;  213,042; 7692,081;32,08055
 534,22; 2587,868;  183,581; 7735,523;31,83667
 534,80; 2612,703;  209,034; 7776,864;31,76166
 535,38; 2672,519;  271,738; 7846,710;31,69360
 535,97; 2611,641;  206,659; 7879,065;31,34587
 536,55; 2627,712;  240,649; 7922,144;31,07551
 537,13; 2607,441;  257,586; 7916,035;30,68318
 537,71; 2624,755;  305,971; 7930,261;30,41311
 538,30; 2648,676;  342,193; 8009,190;30,08327
 538,88; 2676,854;  369,412; 8121,348;29,76601
 539,46; 2726,347;  426,881; 8317,961;29,14008
 540,05; 2730,785;  452,799; 8419,354;28,59437
 540,63; 2846,204;  504,337; 8682,437;28,63583
 541,21; 2842,644;  544,871; 8800,746;27,83198
 541,79; 2881,766;  586,409; 8912,041;27,56976
 542,38; 2914,792;  611,262; 9088,735;27,17237
 542,96; 2935,282;  610,018; 9235,033;26,95953
 543,54; 2995,974;  634,103; 9425,864;26,86460
 544,12; 3020,409;  591,023; 9550,281;27,11593
 544,70; 3013,164;  579,787; 9584,185;27,02432
 545,29; 3077,333;  600,723; 9717,112;27,16656
 545,87; 3029,151;  559,948; 9808,195;26,69915
 546,45; 3025,034;  513,647; 9799,178;27,04624
 547,03; 3016,960;  478,489; 9875,906;27,01244
 547,62; 3021,020;  445,178;10013,911;26,91936
 548,20; 3078,150;  434,327;10169,689;27,15691
 548,78; 3063,207;  390,234;10269,133;27,05739
 549,36; 3114,686;  358,159;10444,419;27,32952
 549,94; 3102,084;  312,406;10634,534;27,02619
 550,53; 3167,248;  320,161;10831,701;27,08535
 551,11; 3190,925;  289,308;10993,979;27,10608
 551,69; 3250,559;  284,390;11224,446;27,11292
 552,27; 3284,557;  256,396;11579,805;26,74249
 552,85; 3381,169;  265,770;11906,569;26,76276
 553,44; 3432,095;  250,390;12238,837;26,53976
 554,02; 3543,456;  268,849;12547,017;26,67015
 554,60; 3531,133;  209,538;12851,477;26,27441
 555,18; 3661,116;  240,236;13202,791;26,39047
 555,76; 3717,394;  224,772;13524,216;26,26142
 556,34; 3826,983;  221,916;13983,264;26,19705
 556,93; 3888,966;  216,158;14324,777;26,03237
 557,51; 3964,001;  207,531;14638,994;26,02972
 558,09; 4018,380;  219,620;14998,720;25,70360
 558,67; 4085,012;  224,373;15294,009;25,61866
 559,25; 4184,033;  230,991;15618,759;25,68951
 559,83; 4209,522;  209,369;15858,724;25,56114
 560,41; 4260,182;  206,688;16227,961;25,30070
 561,00; 4346,043;  220,603;16632,483;25,13691
 561,58; 4365,408;  212,304;16808,744;25,02407
 562,16; 4436,741;  198,000;17096,652;25,08331
 562,74; 4477,965;  184,157;17464,767;24,84755
 563,32; 4586,920;  178,600;17929,237;24,83472
 563,90; 4644,797;  204,757;18317,284;24,51364
 564,48; 4739,534;  216,843;18674,966;24,50244
 565,06; 4863,281;  203,066;19318,017;24,37995
 565,65; 4967,739;  207,746;19974,149;24,08123
 566,23; 5172,168;  246,988;20618,232;24,17712
 566,81; 5276,662;  205,760;21366,734;23,96346
 567,39; 5435,737;  202,136;22241,662;23,74643
 567,97; 5547,443;  214,682;22799,929;23,61170
 568,55; 5749,485;  230,292;23663,033;23,55334
 569,13; 5866,186;  203,218;24286,578;23,51403
 569,71; 6081,140;  205,539;25217,088;23,49155
 570,29; 6247,656;  237,928;26141,861;23,20006
 570,87; 6397,635;  235,002;26799,188;23,19903
 571,45; 6494,962;  223,373;27338,343;23,12962
 572,03; 6546,367;  188,750;27757,081;23,06130
 572,61; 6674,791;  193,062;28431,502;22,95357
 573,20; 6778,590;  227,146;29223,429;22,59408
 573,78; 6904,551;  212,446;29730,513;22,67122
 574,36; 6967,118;  217,602;30180,703;22,52610
 574,94; 7020,996;  270,902;30540,039;22,30025
 575,52; 7036,712;  232,507;30775,368;22,27756
 576,10; 7139,801;  282,050;31426,377;22,01926
 576,68; 7217,165;  264,827;31935,562;21,95193
 577,26; 7308,532;  284,118;32591,692;21,74231
 577,84; 7388,248;  279,447;32998,208;21,72699
 578,42; 7454,465;  326,284;33286,154;21,62685
 579,00; 7355,798;  280,676;33355,019;21,39157
 579,58; 7376,075;  318,748;33645,109;21,17641
 580,16; 7322,509;  300,128;33576,362;21,10329
 580,74; 7362,038;  303,435;33816,220;21,06242
 581,32; 7285,732;  298,747;33898,785;20,79457
 581,90; 7289,506;  317,129;33832,369;20,80360
 582,48; 7342,832;  320,590;34061,484;20,81226
 583,06; 7245,417;  314,901;34178,422;20,46602
 583,64; 7264,272;  318,287;34207,103;20,49639
 584,22; 7177,882;  324,659;33989,857;20,35700
 584,80; 7112,099;  336,130;33728,577;20,29192
 585,38; 6989,994;  336,763;33398,400;20,12372
 585,96; 6945,687;  318,136;33540,919;19,94881
 586,54; 6984,605;  337,584;33549,195;20,01415
 587,12; 6916,883;  295,664;33623,671;19,86683
 587,70; 6923,063;  326,751;33915,700;19,63834
 588,28; 6924,819;  310,588;33990,030;19,63878
 588,86; 6911,252;  309,124;34064,532;19,55873
 589,44; 6839,017;  290,421;34138,220;19,34718
 590,02; 6935,702;  295,962;34368,719;19,48695
 590,59; 6855,526;  267,738;34487,740;19,25128
 591,17; 6869,783;  266,411;34747,061;19,15095
 591,75; 6880,944;  267,340;34803,563;19,14976
 592,33; 6930,488;  286,112;35112,345;19,07865
 592,91; 6890,961;  229,721;35426,881;18,92550
 593,49; 6916,541;  245,101;35671,600;18,83178
 594,07; 6941,231;  259,562;35832,838;18,78283
 594,65; 6950,875;  261,352;35821,340;18,81194
 595,23; 6974,745;  246,578;36210,868;18,70791
 595,81; 6945,474;  243,729;36274,311;18,60016
 596,39; 6934,433;  248,883;36486,386;18,44926
 596,97; 6943,237;  243,029;36605,638;18,42609
 597,55; 6911,912;  235,273;36543,706;18,38867
 598,12; 6823,578;  225,713;36555,274;18,16115
 598,70; 6818,176;  216,258;36759,588;18,06600
 599,28; 6831,454;  244,565;36890,184;17,97456
 599,86; 6827,094;  238,027;36873,218;17,98562
 600,44; 6798,118;  204,178;37010,993;17,91500
 601,02; 6827,313;  242,858;37089,574;17,86986
 601,60; 6713,254;  224,878;37007,479;17,63979
 602,18; 6715,157;  213,406;36958,737;17,69409
 602,75; 6700,329;  211,576;37145,530;17,56853
 603,33; 6686,717;  227,411;37128,658;17,50430
 603,91; 6665,090;  209,094;37075,905;17,51168
 604,49; 6654,167;  238,180;37155,830;17,37919
 605,07; 6665,649;  247,802;37247,076;17,34587
 605,65; 6635,220;  252,716;37232,933;17,25924
 606,23; 6656,793;  339,047;37403,294;17,04539
 606,80; 6651,990;  378,730;37512,518;16,89367
 607,38; 6655,708;  435,941;37444,992;16,80607
 607,96; 6661,680;  486,731;37561,063;16,65559
 608,54; 6623,573;  544,639;37598,074;16,40586
 609,12; 6612,345;  574,807;37652,883;16,28331
 609,70; 6593,891;  603,412;37699,629;16,14849
 610,27; 6580,394;  613,886;37760,335;16,06212
 610,85; 6590,809;  621,182;37945,412;15,99397
 611,43; 6565,929;  642,335;37815,543;15,93512
 612,01; 6457,102;  590,418;37537,258;15,87871
 612,59; 6389,952;  573,566;37568,892;15,72195
 613,16; 6408,144;  538,274;37494,408;15,88334
 613,74; 6319,149;  509,257;37388,638;15,75377
 614,32; 6300,623;  459,177;37376,355;15,82311
 614,90; 6286,019;  404,492;37241,860;15,96620
 615,48; 6153,004;  353,657;36952,366;15,84577
 616,05; 6172,795;  322,583;36924,578;15,98332
 616,63; 6114,048;  337,740;36705,328;15,88312
 617,21; 6111,225;  317,732;36719,598;15,91537
 617,79; 6059,266;  301,652;36551,488;15,88315
 618,36; 6036,310;  311,494;36451,140;15,84082
 618,94; 5914,428;  262,272;36145,819;15,75139
 619,52; 5871,227;  278,970;35926,114;15,68781
 620,10; 5886,501;  268,499;35857,414;15,78582
 620,67; 5858,173;  276,048;35802,232;15,71271
 621,25; 5787,007;  291,802;35702,434;15,51852
 621,83; 5778,828;  276,887;35486,864;15,62609
 622,41; 5759,593;  310,888;35527,570;15,47194
 622,98; 5682,123;  295,894;35265,104;15,40277
 623,56; 5685,297;  290,742;35286,075;15,41507
 624,14; 5646,585;  279,414;35205,024;15,36744
 624,72; 5590,226;  269,810;35071,300;15,28790
 625,29; 5564,575;  246,434;35144,209;15,23920
 625,87; 5571,990;  293,805;35131,731;15,15069
 626,45; 5480,052;  242,897;34865,656;15,12634
 627,02; 5474,735;  258,574;34892,390;15,06089
 627,60; 5450,885;  251,640;34812,462;15,04375
 628,18; 5448,806;  234,576;34819,037;15,07680
 628,76; 5421,037;  235,893;34911,423;14,95332
 629,33; 5440,269;  258,197;34923,927;14,94869
 629,91; 5431,116;  241,653;34861,414;14,98989
 630,49; 5409,255;  257,430;35011,585;14,82362
 631,06; 5440,890;  251,046;35169,940;14,86257
 631,64; 5452,427;  256,281;35102,744;14,91155
 632,22; 5406,363;  215,670;35023,676;14,91235
 632,79; 5440,334;  236,439;35310,657;14,83681
 633,37; 5440,197;  219,187;35335,373;14,86781
 633,95; 5431,633;  224,590;35409,881;14,79892
 634,52; 5420,070;  210,118;35526,999;14,75202
 635,10; 5459,293;  208,116;35525,147;14,86868
 635,68; 5460,610;  216,593;35702,106;14,77791
 636,25; 5401,298;  208,060;35657,472;14,64972
 636,83; 5441,268;  194,432;35948,269;14,67489
 637,41; 5413,057;  209,825;35891,686;14,58229
 637,98; 5458,252;  235,749;36229,688;14,50939
 638,56; 5489,035;  220,908;36289,400;14,60590
 639,13; 5459,288;  202,510;36304,779;14,56080
 639,71; 5506,431;  239,892;36412,703;14,55938
 640,29; 5393,673;  182,815;36232,811;14,45453
 640,86; 5434,688;  202,969;36414,071;14,44783
 641,44; 5413,473;  203,661;36446,331;14,37480
 642,02; 5461,180;  233,660;36350,746;14,47381
 642,59; 5411,657;  195,429;36597,698;14,32940
 643,17; 5389,903;  204,967;36478,266;14,29408
 643,74; 5391,688;  201,198;36555,988;14,27732
 644,32; 5441,780;  228,813;36455,172;14,38998
 644,89; 5403,334;  211,505;36439,201;14,33110
 645,47; 5432,272;  220,351;36540,615;14,34990
 646,05; 5376,287;  225,120;36471,876;14,21139
 646,62; 5383,149;  219,735;36389,597;14,27546
 647,20; 5419,395;  221,734;36537,396;14,31245
 647,77; 5374,026;  194,196;36456,810;14,28422
 648,35; 5355,195;  188,041;36334,455;14,29506
 648,92; 5378,979;  226,118;36323,408;14,27493
 649,50; 5323,995;  182,656;36179,668;14,28268
 650,08; 5330,318;  194,348;36169,390;14,27648
 650,65; 5391,871;  196,656;36434,343;14,33650
 651,23; 5487,887;  176,809;37475,142;14,23945
 651,80; 5607,979;  177,963;38145,556;14,30171
 652,38; 5666,379;  195,116;38409,124;14,31743
 652,95; 5668,086;  174,577;38783,076;14,22876
 653,53; 5731,794;  200,346;38932,645;14,28123
 654,10; 5808,579;  225,807;39085,059;14,36665
 654,68; 5727,825;  185,499;38997,857;14,27980
 655,25; 5756,917;  180,653;39155,964;14,30717
 655,83; 5799,394;  191,653;39123,301;14,40407
 656,40; 5759,563;  207,268;39125,792;14,26646
 656,98; 5782,655;  178,344;39041,976;14,42045
 657,55; 5736,055;  200,113;38905,544;14,30275
 658,13; 5670,224;  183,036;38492,266;14,32341
 658,70; 5639,778;  214,036;38173,064;14,29368
 659,28; 5519,793;  195,343;37285,325;14,35549
 659,85; 5409,655;  202,189;36767,200;14,24166
 660,43; 5429,286;  216,496;36795,922;14,25060
 661,00; 5387,993;  192,034;37030,413;14,10474
 661,58; 5430,701;  193,188;37247,674;14,13463
 662,15; 5457,947;  173,264;37525,396;14,14828
 662,73; 5580,424;  228,956;37772,656;14,25397
 663,30; 5560,901;  196,879;37982,147;14,19607
 663,88; 5581,993;  201,725;38034,946;14,22101
 664,45; 5612,470;  177,032;38376,514;14,22909
 665,03; 5672,331;  190,186;38730,467;14,22446
 665,60; 5811,039;  247,032;39080,342;14,32792
 666,17; 5734,746;  190,416;39173,141;14,22253
 666,75; 5795,223;  182,569;39595,478;14,24065
 667,32; 5887,469;  218,954;39835,200;14,30856
 667,90; 5923,561;  190,800;40079,691;14,37183
 668,47; 5971,961;  214,030;40393,490;14,33053
 669,05; 6003,438;  190,568;40677,597;14,35736
 669,62; 5975,069;  165,876;40703,472;14,33038
 670,19; 6020,546;  186,183;40780,271;14,37244
 670,77; 6092,176;  194,413;40914,301;14,48374
 671,34; 6068,884;  189,105;40904,253;14,44126
 671,92; 6091,438;  174,182;41211,052;14,41936
 672,49; 6124,453;  201,797;41289,235;14,41476
 673,06; 6115,545;  155,720;41258,496;14,49981
 673,64; 6131,561;  177,335;41221,448;14,50689
 674,21; 6140,961;  163,334;41252,786;14,54784
 674,79; 6176,053;  197,565;41443,123;14,49487
 675,36; 6252,530;  200,949;41590,152;14,62116
 675,93; 6244,699;  171,257;41475,567;14,70414
 676,51; 6270,022;  180,487;41691,365;14,66973
 677,08; 6331,037;  187,641;41722,087;14,79109
 677,65; 6363,745;  190,256;41813,578;14,83180
 678,23; 6407,760;  190,717;42092,608;14,83714
 678,80; 6445,545;  177,563;42089,638;14,95507
 679,38; 6452,252;  172,716;42195,206;14,94328
 679,95; 6529,268;  186,408;42522,697;14,98209
 680,52; 6578,821;  174,869;42794,188;15,02594
 681,10; 6675,452;  187,946;43153,602;15,09928
 681,67; 6724,314;  194,869;43574,862;15,05174
 682,24; 6760,252;  170,791;43488,969;15,21177
 682,82; 6847,729;  178,791;44118,998;15,17730
 683,39; 6966,129;  220,791;44479,951;15,24055
 683,96; 6990,990;  175,867;44567,673;15,35221
 684,54; 6980,775;  176,790;44929,625;15,20347
 685,11; 7096,098;  211,867;45244,655;15,28715
 685,68; 7145,036;  191,097;45715,146;15,27531
 686,25; 7173,513;  175,943;45676,637;15,37904
 686,83; 7234,759;  174,481;45902,974;15,43956
 687,40; 7273,005;  174,173;46243,850;15,40890
 687,97; 7373,405;  210,865;46634,187;15,42875
 688,55; 7365,497;  172,096;46695,909;15,46176
 689,12; 7396,897;  158,018;46834,247;15,50871
 689,69; 7416,143;  167,941;46987,738;15,48106
 690,26; 7443,389;  188,095;47065,767;15,47708
 690,84; 7529,712;  176,248;47164,335;15,64964
 691,41; 7557,497;  191,325;47289,980;15,63988
 691,98; 7615,281;  186,324;47652,471;15,65106
 692,56; 7670,681;  172,016;47699,501;15,77753
 693,13; 7722,235;  231,478;47811,146;15,74361
 693,70; 7743,174;  198,477;47910,483;15,81299
 694,27; 7781,573;  175,861;48078,666;15,87738
 694,84; 7832,666;  172,553;48199,850;15,94950
 695,42; 7889,758;  209,938;48158,418;16,01682
 695,99; 7824,158;  178,399;48434,217;15,84422
 696,56; 7887,481;  166,937;48235,939;16,06138
 697,13; 7936,342;  188,937;48645,660;15,98830
 697,71; 7993,358;  156,936;48695,382;16,14477
 698,28; 8035,527;  177,859;49043,181;16,08025
 698,85; 8069,234;  149,936;49061,749;16,19097
 699,42; 8115,250;  150,166;49175,317;16,24693
 699,99; 8199,880;  186,781;49168,424;16,35939
 700,57; 8260,203;  189,550;49295,376;16,43523
 701,14; 8236,219;  167,627;49540,867;16,34203
 701,71; 8347,773;  191,088;49600,743;16,50828
 702,28; 8357,019;  187,703;49671,388;16,50911
 702,85; 8437,188;  182,780;49705,341;16,66797
 703,43; 8519,126;  200,856;50042,139;16,68952
 704,00; 8622,834;  205,394;50212,708;16,83242
 704,57; 8585,003;  198,394;50247,276;16,75684
 705,14; 8709,711;  221,009;50445,074;16,90166
 705,71; 8722,803;  223,855;50507,027;16,90217
 706,28; 8718,664;  199,239;50257,057;17,01917
 706,86; 8804,987;  223,854;50675,701;17,00856
 707,43; 8865,233;  231,546;50503,193;17,17407
 708,00; 8884,402;  219,777;50573,299;17,20759
 708,57; 8868,802;  201,623;50403,175;17,26476
 709,14; 8930,972;  226,238;50611,974;17,27619
 709,71; 8991,295;  202,391;50668,619;17,41542
 710,28; 9010,925;  190,852;50869,263;17,40400
 710,86; 9060,479;  194,467;50971,908;17,46053
 711,43; 9117,110;  211,929;50930,246;17,55812
 712,00; 9156,663;  203,390;51004,044;17,62433
 712,57; 9236,602;  213,082;51145,920;17,71651
 713,14; 9227,463;  192,389;51241,027;17,69895
 713,71; 9248,325;  199,773;51219,825;17,73528
 714,28; 9312,571;  203,696;51284,240;17,83238
 714,85; 9273,894;  179,234;51042,962;17,88044
 715,42; 9414,294;  197,772;51212,914;18,06625
 716,00; 9491,078;  231,464;51301,790;18,13110
 716,57; 9494,401;  194,156;51492,127;18,12985
 717,14; 9518,032;  174,233;51368,080;18,25180
 717,71; 9498,740;  162,925;51490,879;18,18856
 718,28; 9598,370;  209,540;51434,370;18,32867
 718,85; 9582,001;  178,540;51513,476;18,31786
 719,42; 9716,324;  191,155;51748,583;18,47487
 719,99; 9694,186;  184,154;51432,997;18,55658
 720,56; 9760,355;  194,385;51626,411;18,59925
 721,13; 9818,832;  186,231;51896,825;18,62791
 721,70; 9821,001;  175,154;51737,624;18,70711
 722,27; 9869,939;  211,538;51837,961;18,70825
 722,84; 9935,724;  227,999;51915,914;18,78142
 723,41; 9929,508;  168,691;51779,251;18,91244
 723,98;10086,831;  189,845;52034,127;19,08983
 724,55;10130,846;  210,383;52143,541;19,10237
 725,12;10139,016;  144,921;52052,878;19,25349
 725,69;10227,954;  175,844;52301,446;19,28440
 726,27;10257,508;  181,459;52352,553;19,31347
 726,84;10376,985;  189,227;52631,044;19,42678
 727,41;10455,231;  195,150;52610,612;19,57453
 727,98;10518,554;  193,842;52946,641;19,57187
 728,55;10557,646;  217,919;52853,517;19,64398
 729,12;10602,046;  168,611;53012,931;19,74372
 729,69;10717,677;  194,610;53127,346;19,88007
 730,26;10728,461;  205,764;53271,221;19,82966
 730,82;10733,015;  186,764;53139,866;19,91621
 731,39;10844,184;  189,840;53253,742;20,07833
 731,96;10953,584;  176,071;53726,771;20,12581
 732,53;11031,907;  199,686;53794,724;20,21124
 733,10;11120,384;  198,455;53893,754;20,34057
 733,67;11173,245;  195,993;54022,860;20,39363
 734,24;11192,876;  187,608;53704,428;20,56413
 734,81;11249,891;  213,608;53786,227;20,60061
 735,38;11226,368;  198,069;53504,026;20,68868
 735,95;11204,845;  192,607;53378,671;20,70512
 736,52;11280,091;  207,683;53641,931;20,72156
 737,09;11269,491;  205,760;53200,114;20,87719
 737,66;11447,814;  236,683;53366,682;21,10132
 738,23;11377,522;  196,298;53539,558;20,96089
 738,80;11549,460;  232,298;53792,126;21,12995
 739,37;11564,091;  221,682;53891,540;21,13367
 739,94;11664,414;  194,220;53998,185;21,31849
 740,51;11718,891;  276,527;54075,523;21,26873
 741,07;11727,983;  188,835;53936,014;21,46931
 741,64;11770,075;  223,450;54271,043;21,36381
 742,21;11860,783;  192,296;54194,304;21,60751
 742,78;11791,183;  169,834;54114,949;21,54291
 743,35;11904,659;  197,218;54262,440;21,65429
 743,92;12023,675;  223,218;54418,623;21,77391
 744,49;12089,152;  196,756;54284,806;21,98710
 745,06;12107,475;  187,986;54336,836;22,01245
 745,63;12143,028;  169,524;54346,712;22,10064
 746,19;12268,582;  183,293;54321,818;22,32290
 746,76;12272,444;  199,139;54303,079;22,31502
 747,33;12346,305;  189,754;54318,877;22,45843
 747,90;12450,320;  213,292;54484,907;22,54775
 748,47;12484,797;  211,292;54387,013;22,65499
 749,04;12562,813;  202,369;54411,043;22,80160
 749,61;12617,366;  225,522;54302,765;22,91508
 750,17;12702,689;  201,445;54403,717;23,06406
 750,74;12694,012;  207,214;54210,209;23,12242
 751,31;12720,489;  183,598;54225,161;23,19861
 751,88;12741,504;  172,521;54072,422;23,31912
 752,45;12843,904;  197,597;54272,143;23,38680
 753,02;12838,689;  203,905;54075,788;23,45339
 753,58;12864,473;  179,289;54019,895;23,56063
 754,15;12912,643;  189,212;54153,617;23,57745
 754,72;12919,273;  184,673;53897,646;23,70861
 755,29;12903,750;  182,827;53744,214;23,75018
 755,86;12998,304;  206,980;53887,552;23,82859
 756,42;13061,627;  211,057;53757,812;23,99878
 756,99;13043,412;  183,364;53740,995;24,01161
 757,56;13052,196;  188,594;53599,486;24,08423
 758,13;13090,981;  154,902;53643,901;24,18456
 758,70;13280,073;  184,055;53619,546;24,50809
 759,26;13277,242;  186,055;53680,575;24,47201
 759,83;13359,796;  192,824;53849,374;24,53936
 760,40;13341,273;  172,439;53729,019;24,58864
 760,97;13367,057;  181,054;53652,433;24,65993
 761,53;13364,072;  153,054;53224,155;24,89306
 762,10;13390,549;  167,746;53412,261;24,83411
 762,67;13540,103;  181,515;53308,291;25,14474
 763,24;13401,349;  142,668;52784,551;25,18656
 763,80;13568,749;  173,283;52993,273;25,36060
 764,37;13642,380;  174,898;52890,303;25,54753
 764,94;13588,934;  170,667;52409,332;25,68646
 765,50;13600,564;  154,898;52455,669;25,70835
 766,07;13692,503;  202,897;52535,853;25,77650
 766,64;13609,441;  164,666;52255,806;25,81010
 767,21;13681,226;  170,897;52117,681;26,00802
 767,77;13724,318;  192,127;51984,249;26,12789
 768,34;13673,256;  185,896;52024,894;26,01779
 768,91;13714,964;  184,819;51831,385;26,19757
 769,47;13747,441;  183,588;51739,646;26,30894
 770,04;13705,610;  198,203;51652,137;26,25146
 770,61;13723,779;  176,433;51467,012;26,41293
 771,18;13647,948;  165,740;51421,427;26,30383
 771,74;13833,194;  179,894;51554,995;26,57571
 772,31;13820,902;  178,817;51285,486;26,69336
 772,88;13763,379;  162,201;50999,746;26,75420
 773,44;13794,240;  174,970;50919,930;26,83867
 774,01;13765,102;  184,354;50986,190;26,73279
 774,58;13805,732;  165,431;50584,450;27,05388
 775,14;13895,132;  165,815;50935,787;27,04220
 775,71;13895,301;  162,353;50687,048;27,18067
 776,27;13989,855;  209,199;50623,616;27,33475
 776,84;14034,178;  235,814;50558,107;27,41998
 777,41;14002,655;  192,737;50449,598;27,47867
 777,97;13964,670;  175,737;50148,397;27,59296
 778,54;14080,301;  194,121;50152,734;27,79537
 779,11;14089,086;  202,121;50107,456;27,82661
 779,67;14111,024;  166,582;50077,870;27,93845
 780,24;14137,347;  187,197;49932,053;28,04340
 780,80;14231,901;  211,966;49922,545;28,20312
 781,37;14252,993;  191,735;49936,959;28,26655
 781,94;14245,239;  193,427;49652,142;28,41120
 782,50;14292,870;  199,657;49670,710;28,48780
 783,07;14336,962;  220,657;49662,124;28,55155
 783,63;14367,362;  178,426;49441,923;28,80213
 784,20;14349,762;  211,810;49375,876;28,75668
 784,77;14352,008;  190,810;49139,598;28,93064
 785,33;14349,023;  168,886;48971,396;29,05616
 785,90;14319,654;  193,809;48959,657;28,96668
 786,46;14371,054;  202,424;48732,302;29,19568
 787,03;14394,992;  179,654;48603,793;29,35589
 787,59;14413,008;  192,808;48512,438;29,42945
 788,16;14371,792;  211,961;48495,083;29,32667
 788,73;14383,192;  204,500;48330,420;29,46165
 789,29;14406,823;  184,884;47928,450;29,78818
 789,86;14343,223;  201,268;47917,556;29,63758
 790,42;14411,392;  204,499;47807,739;29,84438
 790,99;14271,561;  209,960;47333,538;29,83984
 791,55;14308,884;  188,113;47363,029;29,93279
 792,12;14384,899;  203,421;47333,059;30,09036
 792,68;14306,607;  189,651;47039,165;30,13256
 793,25;14260,622;  203,497;46936,887;30,07940
 793,81;14308,791;  236,958;46509,609;30,41069
 794,38;14181,730;  164,496;46262,254;30,40763
 794,94;14250,591;  187,958;46176,130;30,57881
 795,51;14227,530;  212,419;45888,467;30,68372
 796,07;14196,083;  197,572;45609,343;30,82573
 796,64;14286,022;  212,110;45813,911;30,86262
 797,20;14197,037;  201,956;45285,094;31,04283
 797,77;14106,052;  182,725;45032,124;31,04462
 798,33;14183,452;  203,648;44824,384;31,33029
 798,90;14215,929;  229,109;44683,106;31,46358
 799,46;14137,560;  193,493;44359,520;31,57193
 800,03;14143,806;  209,262;44232,319;31,65283
 800,59;14149,437;  215,493;43968,425;31,84688
 801,15;14168,067;  218,339;43802,378;32,00651
 801,72;14131,006;  207,569;43444,638;32,20254
 802,28;14079,329;  236,799;43195,053;32,22321
 802,85;14109,729;  201,338;43084,313;32,43336
 803,41;14075,129;  196,568;42831,573;32,55203
 803,98;14025,836;  203,260;42400,218;32,75728
 804,54;13931,775;  200,721;42207,402;32,68778
 805,11;13905,251;  212,413;41947,816;32,80869
 805,67;13972,959;  224,105;41867,230;33,01590
 806,23;13881,359;  210,105;41537,106;33,08068
 806,80;13829,913;  229,412;41438,981;33,00326
 807,36;13868,543;  235,797;41322,165;33,18071
 807,93;13871,713;  232,335;41031,425;33,43059
 808,49;13841,266;  204,257;40732,070;33,64852
 809,05;13795,051;  195,949;40583,638;33,67140
 809,62;13807,835;  227,488;40551,206;33,67831
 810,18;13854,389;  220,949;40393,005;33,93762
 810,74;13746,558;  188,102;40200,188;33,88590
 811,31;13766,420;  197,563;39963,372;34,12192
 811,87;13800,666;  203,794;39769,478;34,36531
 812,44;13832,681;  244,024;39784,277;34,36664
 813,00;13790,081;  170,486;39537,922;34,59609
 813,56;13861,481;  211,716;39511,567;34,73236
 814,13;13889,035;  210,716;39485,289;34,82742
 814,69;13827,204;  217,100;39222,164;34,89317
 815,25;13787,835;  184,792;38821,886;35,20721
 815,82;13818,696;  223,869;38740,224;35,29625
 816,38;13764,250;  238,561;38592,253;35,26568
 816,94;13662,188;  199,329;38345,206;35,29309
 817,51;13614,973;  195,945;38141,851;35,36357
 818,07;13557,757;  191,406;37898,880;35,44749
 818,63;13511,080;  216,098;37713,833;35,45543
 819,20;13515,480;  210,790;37591,401;35,59249
 819,76;13412,496;  182,405;37175,738;35,76345
 820,32;13467,511;  227,404;37176,306;35,83356
 820,89;13403,065;  218,943;36972,874;35,87132
 821,45;13341,695;  193,635;36705,673;36,01021
 822,01;13383,403;  212,173;36457,472;36,33914
 822,57;13322,034;  216,480;36314,578;36,30539
 823,14;13289,895;  183,018;36003,069;36,59089
 823,70;13214,603;  191,556;35843,407;36,52839
 824,26;13191,003;  194,479;35633,667;36,67275
 824,82;13188,787;  219,248;35486,158;36,77538
 825,39;13045,803;  198,248;35265,188;36,63723
 825,95;13085,356;  221,555;35348,063;36,62135
 826,51;12989,910;  217,401;34890,631;36,83680
 827,08;13081,387;  248,400;35052,738;36,87180
 827,64;13003,018;  227,939;34877,075;36,86983
 828,20;12969,648;  195,246;34455,797;37,28604
 828,76;13007,279;  217,553;34479,211;37,32956
 829,32;12972,064;  228,630;34362,702;37,33347
 829,89;12901,310;  191,860;34270,040;37,29498
 830,45;12972,940;  218,168;34148,531;37,59103
 831,01;12888,571;  188,706;34034,483;37,52275
 831,57;12885,048;  214,013;33873,051;37,64527
 832,14;12938,756;  188,474;33829,235;37,90129
 832,70;12889,309;  184,320;33568,957;38,05639
 833,26;12872,402;  173,012;33541,294;38,05827
 833,82;12941,340;  193,166;33430,785;38,35465
 834,38;12943,355;  191,012;33459,661;38,33141
 834,95;12848,371;  182,242;33288,767;38,25871
 835,51;12843,540;  159,934;33178,258;38,41384
 836,07;12909,093;  208,857;33126,749;38,58156
 836,63;12970,032;  219,933;33182,471;38,68057
 837,19;12893,586;  200,472;33054,885;38,63443
 837,75;12859,986;  175,702;32831,684;38,84214
 838,32;12876,770;  233,163;32805,021;38,81758
 838,88;12947,170;  208,086;32879,974;38,99096
 839,44;12928,031;  204,547;32835,311;38,99230
 840,00;12936,662;  196,008;32711,649;39,18316
 840,56;12828,062;  187,008;32406,370;39,23434
 841,12;12898,462;  192,931;32423,169;39,42115
 841,68;12785,862;  178,623;32247,353;39,31319
 842,25;12884,416;  196,392;32285,921;39,53945
 842,81;12826,046;  175,468;32000,643;39,75022
 843,37;12880,985;  175,391;32049,980;39,86120
 843,93;12833,077;  190,237;31899,163;39,87155
 844,49;12910,477;  199,160;31924,962;40,06618
 845,05;12910,108;  170,159;31752,222;40,33919
 845,61;12942,046;  196,928;31819,329;40,30408
 846,17;12895,677;  182,928;31693,051;40,34497
 846,73;12988,154;  201,543;31660,157;40,64582
 847,29;12942,477;  166,389;31376,571;40,93564
 847,86;12927,569;  189,311;31471,293;40,72075
 848,42;12910,738;  185,003;31231,323;40,98951
 848,98;12950,138;  199,003;31167,122;41,17504
 849,54;12976,769;  189,080;31192,151;41,24652
 850,10;12994,784;  192,002;31075,950;41,45449
 850,66;12950,722;  178,541;30952,133;41,50371
 851,22;13028,276;  174,463;30881,240;41,85986
 851,78;12949,291;  217,386;30775,423;41,66467
 852,34;12960,614;  188,463;30672,991;41,89716
 852,90;12940,630;  195,462;30472,098;42,09572
 853,46;12929,491;  186,001;30447,820;42,11079
 854,02;12990,968;  190,539;30376,080;42,40583
 854,58;12873,753;  195,461;30142,340;42,33593
 855,14;12835,845;  179,538;30039,293;42,38584
 855,70;12816,552;  159,307;29848,553;42,63242
 856,26;12866,645;  214,845;29829,275;42,72174
 856,82;12854,660;  176,229;29632,305;43,04182
 857,38;12807,906;  213,460;29555,565;42,92278
 857,94;12811,691;  193,229;29523,748;43,02161
 858,50;12696,937;  197,228;29334,701;42,89908
 859,06;12698,029;  184,843;29214,038;43,10552
 859,62;12671,890;  202,305;29092,376;43,16218
 860,18;12598,213;  195,535;29018,405;43,03068
 860,74;12608,383;  165,535;28836,666;43,39852
 861,30;12538,013;  170,073;28620,926;43,47125
 861,86;12609,029;  211,688;28730,417;43,47087
 862,42;12491,813;  191,380;28475,831;43,48832
 862,98;12555,213;  217,303;28471,707;43,66721
 863,54;12462,690;  191,302;28284,813;43,68051
 864,10;12519,013;  187,456;28354,689;43,77980
 864,66;12432,644;  177,686;28122,949;43,85343
 865,22;12473,967;  191,378;28028,287;44,12339
 865,78;12438,674;  201,609;27833,932;44,28533
 866,34;12480,766;  185,070;27786,423;44,54744
 866,90;12420,397;  200,531;27757,683;44,34372
 867,45;12369,874;  196,069;27478,097;44,62207
 868,01;12379,043;  197,300;27422,434;44,74447
 868,57;12270,751;  195,761;27147,156;44,80284
 869,13;12242,458;  172,914;26985,186;45,01500
 869,69;12228,320;  190,068;26880,523;45,10321
 870,25;12126,720;  183,837;26807,937;44,85741
 870,81;12154,043;  188,606;26822,582;44,92546
 871,37;12140,135;  207,144;26708,766;45,02740
 871,93;12177,535;  208,528;26547,949;45,44142
 872,49;12083,781;  205,143;26366,825;45,40472
 873,04;12065,258;  190,297;26172,470;45,70426
 873,60;12020,196;  183,835;26067,115;45,72976
 874,16;11977,288;  206,681;26004,837;45,62577
 874,72;11998,519;  174,527;25912,913;45,93914
 875,28;12072,135;  199,142;25949,298;46,10843
 875,84;11988,442;  187,681;25809,067;46,05825
 876,40;11979,058;  189,988;25718,298;46,18038
 876,95;12008,519;  199,219;25729,913;46,25530
 877,51;12059,750;  219,065;25743,067;46,39039
 878,07;12055,981;  229,758;25741,144;46,35665
 878,63;12119,673;  189,142;25670,144;46,82128
 879,19;12185,365;  207,527;25682,221;47,01858
 879,75;12211,519;  196,527;25680,837;47,14663
 880,30;12213,673;  192,604;25741,298;47,05160
 880,86;12305,596;  231,604;25824,452;47,17721
 881,42;12279,981;  175,835;25867,606;47,11293
 881,98;12349,596;  197,142;25967,683;47,15638
 882,54;12463,827;  185,527;26060,683;47,45208
 883,09;12578,519;  200,988;26136,375;47,72449
 883,65;12609,673;  181,296;26253,067;47,66986
 884,21;12784,981;  220,604;26443,298;47,91413
 884,77;12793,904;  187,681;26443,529;48,01301
 885,32;12884,673;  197,835;26623,144;48,01018
 885,88;13004,365;  224,142;26729,221;48,21802
 886,44;13073,673;  200,527;26781,452;48,43002
 887,00;13093,673;  206,450;26781,683;48,49336
 887,56;13228,135;  204,758;26950,452;48,69336
 888,11;13244,827;  198,758;26875,529;48,90423
 888,67;13328,519;  227,219;27192,837;48,58520
 889,23;13457,288;  211,988;27134,529;49,19781
 889,79;13332,058;  177,142;26959,913;49,11708
 890,34;13405,212;  197,373;26890,144;49,48096
 890,90;13513,288;  261,835;26991,067;49,57663
 891,46;13462,058;  189,450;26957,837;49,58314
 892,01;13553,981;  215,912;26927,452;49,93373
 892,57;13525,673;  233,065;26787,529;50,05790
 893,13;13504,212;  204,296;26687,837;50,21955
 893,69;13515,058;  196,604;26742,837;50,17079
 894,24;13494,519;  208,142;26558,144;50,42268
 894,80;13367,750;  207,527;26352,606;50,33537
 895,36;13295,596;  214,142;26334,375;50,08169
 895,91;13248,673;  201,296;26085,298;50,40711
 896,47;13254,981;  214,681;26019,760;50,53385
 897,03;13181,827;  190,142;25808,144;50,71311
 897,58;13127,442;  204,604;25710,452;50,66618
 898,14;13097,365;  209,450;25562,606;50,83357
 898,70;13069,135;  183,988;25405,683;51,08755
 899,25;13137,288;  206,988;25479,067;51,16437
 899,81;13052,058;  226,219;25196,990;51,36341
 900,37;12978,058;  180,912;24989,837;51,58283
 900,92;13043,288;  201,296;25014,760;51,75413
 901,48;12974,365;  195,296;24905,837;51,71505
 902,03;12984,288;  188,450;24770,452;52,05369
 902,59;12955,288;  191,758;24677,375;52,12664
 903,15;12942,442;  209,604;24532,913;52,34830
 903,70;12844,288;  209,604;24308,452;52,42858
 904,26;12840,442;  186,604;24260,452;52,56259
 904,82;12864,827;  206,527;24168,837;52,82588
 905,37;12842,904;  211,065;23999,913;53,09983
 905,93;12750,442;  195,219;23948,837;52,85605
 906,48;12798,058;  214,373;23861,760;53,21385
 907,04;12803,365;  215,912;23793,913;53,38643
 907,60;12670,981;  196,065;23571,452;53,36774
 908,15;12621,212;  191,065;23422,144;53,50654
 908,71;12740,288;  223,219;23390,298;54,02955
 909,26;12585,442;  186,988;23283,067;53,68207
 909,82;12553,519;  218,604;23088,760;53,93455
 910,37;12551,288;  228,065;22987,837;54,14476
 910,93;12414,212;  189,758;22826,529;54,00264
 911,48;12338,596;  182,450;22725,760;53,92352
 912,04;12281,904;  189,450;22628,913;53,88923
 912,60;12322,596;  201,758;22711,606;53,84682
 913,15;12327,981;  206,219;22436,529;54,52808
 913,71;12157,519;  193,912;22300,760;54,11720
 914,26;12149,288;  184,527;22214,067;54,31235
 914,82;12126,135;  205,296;22088,683;54,47438
 915,37;12089,288;  186,527;22002,221;54,56054
 915,93;12085,827;  231,681;21942,683;54,59972
 916,48;11967,750;  200,142;21836,221;54,38882
 917,04;11964,519;  205,912;21692,298;54,72585
 917,59;12001,981;  228,142;21680,298;54,88417
 918,15;11831,673;  167,912;21509,221;54,65345
 918,70;11769,058;  196,373;21388,067;54,60953
 919,26;11744,904;  203,527;21271,452;54,78174
 919,81;11697,135;  181,219;21161,606;54,88896
 920,37;11687,442;  196,296;21054,760;55,09105
 920,92;11639,058;  210,450;20993,067;54,99119
 921,48;11569,519;  187,450;20769,375;55,30129
 922,03;11566,442;  181,604;20754,837;55,33811
 922,59;11490,673;  189,373;20638,221;55,26619
 923,14;11462,135;  188,988;20487,221;55,53757
 923,69;11450,596;  218,527;20450,298;55,51698
 924,25;11379,519;  212,681;20397,452;55,32309
 924,80;11307,135;  203,758;20279,144;55,30841
 925,36;11321,981;  190,604;20144,837;55,78454
 925,91;11233,596;  198,373;20036,683;55,62582
 926,47;11167,288;  182,681;19981,760;55,48040
 927,02;11190,288;  236,527;19892,990;55,72600
 927,57;11117,288;  197,450;19766,606;55,80128
 928,13;11074,827;  187,527;19635,298;55,98225
 928,68;11042,981;  196,758;19562,683;56,00674
 929,24;10982,288;  165,604;19332,760;56,43344
 929,79;10952,904;  189,450;19374,144;56,10438
 930,34;10881,442;  200,604;19219,067;56,16036
 930,90;10850,058;  178,065;19171,683;56,18726
 931,45;10790,596;  212,065;19131,990;55,91212
 932,01;10790,058;  203,373;18981,375;56,37812
 932,56;10735,750;  206,604;18829,529;56,53863
 933,11;10703,058;  219,604;18883,837;56,16868
 933,67;10619,596;  190,142;18662,760;56,45899
 934,22;10596,981;  202,142;18576,606;56,57220
 934,77;10554,827;  219,450;18450,144;56,69217
 935,33;10540,750;  212,681;18364,990;56,89672
 935,88;10523,673;  216,219;18292,913;57,02068
 936,43;10507,135;  183,373;18178,529;57,36967
 936,99;10458,673;  198,527;18078,760;57,38262
 937,54;10382,442;  184,604;17930,760;57,46506
 938,09;10352,981;  204,681;17895,760;57,36394
 938,65;10294,904;  203,758;17768,683;57,45055
 939,20;10289,212;  192,912;17668,529;57,77364
 939,75;10196,135;  183,450;17611,683;57,45095
 940,31;10179,058;  177,219;17523,298;57,66052
 940,86;10234,673;  202,450;17448,529;58,17104
 941,41;10208,827;  259,758;17371,452;58,14193
 941,96;10103,442;  192,296;17291,067;57,96408
 942,52;10112,904;  192,681;17197,221;58,33867
 943,07;10091,596;  173,758;17022,529;58,86387
 943,62;10019,827;  195,758;16975,452;58,54737
 944,18; 9994,750;  178,373;16942,221;58,55682
 944,73; 9981,365;  195,988;16850,221;58,75610
 945,28; 9844,442;  162,219;16678,837;58,62110
 945,83; 9893,058;  189,912;16652,529;58,94048
 946,39; 9888,750;  188,219;16654,529;58,91138
 946,94; 9879,596;  210,219;16546,990;59,18781
 947,49; 9792,981;  192,912;16355,683;59,39618
 948,04; 9810,519;  213,988;16382,837;59,35198
 948,59; 9775,212;  217,373;16321,990;59,34844
 949,15; 9718,519;  174,373;16220,144;59,48076
 949,70; 9704,135;  196,604;16162,529;59,54889
 950,25; 9641,981;  212,296;16074,683;59,44682
 950,80; 9576,058;  168,065;15965,683;59,55324
 951,36; 9526,596;  163,604;15866,298;59,62666
 951,91; 9571,596;  196,527;15937,990;59,55653
 952,46; 9437,058;  169,681;15675,298;59,76787
 953,01; 9466,365;  204,681;15721,606;59,68763
 953,56; 9399,904;  171,758;15519,529;60,12695
 954,11; 9344,827;  200,065;15497,837;59,77839
 954,67; 9355,750;  194,604;15418,298;60,17689
 955,22; 9239,827;  177,450;15336,837;59,78063
 955,77; 9295,596;  213,988;15372,606;59,91053
 956,32; 9260,904;  237,450;15165,990;60,44431
 956,87; 9164,365;  177,835;15115,606;60,15978
 957,42; 9208,750;  190,373;15019,760;60,81423
 957,98; 9152,288;  185,758;14944,683;60,75328
 958,53; 9092,135;  209,681;14911,452;60,41758
 959,08; 9037,135;  188,681;14761,298;60,71973
 959,63; 9038,212;  183,988;14712,913;60,94204
 960,18; 9025,442;  204,758;14648,529;61,06912
 960,73; 9039,596;  197,219;14620,452;61,30648
 961,28; 8957,519;  162,604;14516,221;61,27316
 961,83; 8968,981;  212,065;14468,529;61,42418
 962,39; 8901,673;  170,527;14320,760;61,70320
 962,94; 8854,135;  208,373;14261,606;61,52151
 963,49; 8788,750;  193,373;14064,606;61,96549
 964,04; 8828,981;  205,219;14101,837;62,05655
 964,59; 8705,750;  167,835;13950,452;61,94698
 965,14; 8698,519;  204,065;13914,298;61,95704
 965,69; 8689,981;  190,681;13818,375;62,36785
 966,24; 8645,596;  185,065;13732,760;62,44997
 966,79; 8616,442;  198,296;13657,221;62,54694
 967,34; 8593,904;  172,681;13516,913;63,10759
 967,89; 8539,212;  181,527;13465,452;62,91578
 968,44; 8506,827;  191,527;13384,221;63,02958
 968,99; 8496,519;  200,450;13406,990;62,81788
 969,55; 8476,212;  198,142;13242,144;63,46265
 970,10; 8435,981;  195,604;13172,606;63,49985
 970,65; 8331,904;  206,988;13092,221;63,05602
 971,20; 8307,135;  183,296;12931,913;63,72329
 971,75; 8227,135;  170,758;12815,683;63,71233
 972,30; 8184,519;  194,065;12817,144;63,30036
 972,85; 8148,442;  186,758;12681,067;63,72249
 973,40; 8086,058;  183,450;12642,760;63,42733
 973,95; 8099,519;  198,142;12550,683;63,96560
 974,50; 8090,981;  215,988;12480,683;64,20863
 975,05; 8006,750;  207,988;12393,606;63,99972
 975,60; 7970,212;  203,527;12316,298;64,11980
 976,15; 7938,365;  188,912;12217,913;64,42308
 976,70; 7896,365;  201,219;12141,375;64,44762
 977,25; 7872,519;  203,835;12047,760;64,74783
 977,80; 7801,750;  193,681;11947,837;64,72663
 978,35; 7675,212;  204,681;11800,837;64,42248
 978,89; 7624,981;  179,065;11732,990;64,44490
 979,44; 7678,519;  194,988;11782,452;64,58299
 979,99; 7566,058;  188,681;11583,683;64,74222
 980,54; 7526,827;  215,758;11494,606;64,82106
 981,09; 7478,135;  207,988;11429,221;64,78919
 981,64; 7388,212;  210,527;11337,837;64,50512
 982,19; 7410,673;  230,450;11234,606;65,25010
 982,74; 7323,673;  215,219;11126,067;65,15033
 983,29; 7192,596;  187,065;10984,606;64,88080
 983,84; 7199,135;  206,296;10970,990;64,96086
 984,39; 7173,827;  240,681;10901,606;65,03325
 984,94; 7100,212;  180,604;10728,298;65,60304
 985,49; 7118,135;  222,758;10684,375;65,91119
 986,03; 7068,519;  223,219;10548,067;66,29928
 986,58; 7001,288;  235,296;10449,837;66,23883
 987,13; 6917,596;  199,527;10346,452;66,20793
 987,68; 6908,827;  203,142;10294,452;66,45009
 988,23; 6843,365;  221,604;10229,760;66,16365
 988,78; 6780,519;  195,450;10102,452;66,46884
 989,33; 6723,673;  214,527;10005,990;66,47777
 989,88; 6745,519;  221,450; 9953,990;67,03357
 990,42; 6634,827;  202,758; 9835,221;66,77491
 990,97; 6596,135;  201,450; 9690,375;67,39103
 991,52; 6566,904;  223,527; 9655,144;67,25651
 992,07; 6454,212;  219,604; 9549,683;66,82267
 992,62; 6428,904;  213,527; 9398,760;67,66706
 993,17; 6358,519;  219,988; 9364,837;67,12556
 993,71; 6297,058;  217,604; 9279,606;67,08732
 994,26; 6193,519;  192,758; 9126,375;67,17057
 994,81; 6225,827;  221,604; 9108,913;67,55951
 995,36; 6081,442;  201,835; 8933,144;67,33936
 995,91; 6057,827;  216,373; 8857,529;67,60038
 996,45; 6010,750;  200,758; 8812,375;67,46691
 997,00; 5929,442;  184,065; 8698,221;67,48029
 997,55; 5930,212;  215,142; 8617,452;68,01784
 998,10; 5846,673;  234,758; 8514,067;67,78241
 998,65; 5798,288;  209,681; 8465,606;67,69208
 999,19; 5750,212;  215,912; 8388,452;67,71823
 999,74; 5674,904;  236,912; 8225,529;68,07176
1000,29; 5658,212;  217,758; 8214,606;68,03248
1000,84; 5557,365;  197,527; 8051,298;68,24541
1001,38; 5476,981;  205,912; 7977,452;67,82528
1001,93; 5493,519;  217,296; 7896,452;68,70837
1002,48; 5412,904;  195,527; 7815,913;68,46604
1003,03; 5365,673;  201,758; 7778,144;68,15802
1003,57; 5330,750;  220,142; 7662,913;68,66539
1004,12; 5300,904;  236,604; 7564,529;69,10960
1004,67; 5191,673;  201,681; 7504,298;68,33156
1005,22; 5100,058;  193,758; 7317,452;68,87297
1005,76; 4986,519;  192,219; 7201,529;68,39903
1006,31; 5023,365;  222,527; 7200,144;68,80341
1006,86; 4910,981;  203,219; 7095,529;68,30456
1007,40; 4824,673;  185,835; 6930,529;68,77759
1007,95; 4771,058;  196,450; 6899,683;68,24480
1008,50; 4739,365;  211,065; 6754,760;69,20097
1009,04; 4631,981;  208,142; 6714,683;67,99064
1009,59; 4586,058;  212,681; 6591,990;68,55565
1010,14; 4506,519;  204,219; 6472,837;68,63236
1010,68; 4429,288;  207,065; 6370,990;68,49894
1011,23; 4393,827;  190,373; 6266,452;69,18037
1011,78; 4350,827;  218,373; 6234,913;68,68489
1012,32; 4273,750;  207,988; 6075,529;69,29243
1012,87; 4258,058;  231,988; 6102,606;68,58000
1013,42; 4171,288;  196,450; 5988,760;68,62269
1013,96; 4226,673;  232,681; 5974,067;69,56494
1014,51; 4154,442;  169,604; 5922,837;69,26260
1015,06; 4180,212;  178,373; 5902,913;69,90672
1015,60; 4255,058;  248,296; 6007,606;69,57017
1016,15; 4161,827;  191,142; 5913,298;69,39141
1016,69; 4242,596;  203,681; 5929,298;70,54113
1017,24; 4239,288;  181,835; 5934,298;70,53420
1017,79; 4322,673;  222,450; 5968,913;71,35211
1018,33; 4260,288;  191,527; 5983,144;70,25260
1018,88; 4323,365;  212,296; 6030,760;70,65558
1019,42; 4344,596;  200,604; 5989,837;71,58103
1019,97; 4327,981;  205,065; 5993,913;71,22169
1020,51; 4382,212;  218,681; 6029,606;71,65005
1021,06; 4388,673;  183,912; 6008,837;72,18568
1021,61; 4334,981;  172,912; 5999,760;71,42917
1022,15; 4297,135;  163,527; 5969,683;71,19354
1022,70; 4322,981;  198,065; 5947,144;71,74915
1023,24; 4275,135;  191,912; 5912,837;71,37348
1023,79; 4258,135;  201,450; 5865,067;71,62710
1024,33; 4168,750;  192,988; 5793,529;70,98889
1024,88; 4137,750;  210,604; 5706,990;71,44960
1025,42; 4115,365;  198,450; 5620,837;72,23600
1025,97; 4007,058;  196,450; 5548,606;71,19762
1026,51; 3960,519;  162,450; 5439,375;71,97505
1027,06; 3910,135;  190,296; 5391,760;71,51523
1027,60; 3851,596;  208,758; 5274,067;71,91739
1028,15; 3814,596;  216,219; 5240,375;71,62152
1028,69; 3721,904;  170,142; 5132,144;71,57921
1029,24; 3680,519;  194,219; 5031,375;72,07335
1029,78; 3641,904;  179,527; 4947,837;72,61225
1030,33; 3538,135;  172,681; 4896,221;71,24855
1030,87; 3528,519;  190,373; 4847,606;71,67660
1031,42; 3432,212;  172,219; 4719,760;71,68693
1031,96; 3426,904;  205,912; 4741,606;71,01432
1032,51; 3348,981;  182,296; 4593,375;71,78935
1033,05; 3328,058;  196,142; 4588,144;71,30952
1033,60; 3235,904;  162,373; 4434,990;71,93555
1034,14; 3191,519;  179,373; 4380,760;71,69410
1034,69; 3152,596;  193,296; 4353,452;71,13436
1035,23; 3124,596;  191,065; 4271,606;71,89074
1035,77; 3073,904;  193,835; 4221,606;71,50528
1036,32; 3040,673;  169,296; 4142,606;72,26663
1036,86; 2987,058;  191,988; 4145,298;70,70201
1037,41; 2931,827;  205,373; 4039,375;71,11248
1037,95; 2891,827;  171,835; 3953,913;71,91792
1038,50; 2840,135;  183,142; 3937,375;70,77325
1039,04; 2828,904;  200,219; 3889,606;71,24991
1039,58; 2776,365;  164,835; 3805,683;71,72864
1040,13; 2757,442;  184,142; 3773,837;71,68577
1040,67; 2756,981;  209,912; 3734,452;72,26671
1041,21; 2701,365;  210,142; 3653,375;72,35128
1041,76; 2645,288;  179,681; 3625,837;71,54661
1042,30; 2601,135;  189,065; 3545,221;71,87000
1042,85; 2583,827;  188,065; 3515,375;72,00296
1043,39; 2543,981;  179,065; 3429,837;72,74937
1043,93; 2530,442;  210,219; 3417,760;72,33652
1044,48; 2458,442;  199,835; 3351,375;71,66679
1045,02; 2444,288;  190,604; 3281,683;72,90932
1045,56; 2452,673;  204,065; 3262,375;73,52453
1046,11; 2408,212;  194,527; 3205,913;73,51048
1046,65; 2387,442;  191,835; 3162,606;73,90700
1047,19; 2321,596;  186,450; 3102,837;73,21204
1047,74; 2314,981;  170,373; 3079,067;73,73094
1048,28; 2284,212;  189,604; 3036,913;73,56445
1048,82; 2271,212;  216,835; 3023,298;73,20163
1049,37; 2238,673;  202,065; 2977,221;73,38715
1049,91; 2209,135;  190,450; 2927,683;73,74911
1050,45; 2187,827;  207,373; 2887,221;73,90172
1050,99; 2122,596;  189,681; 2852,298;72,59456
1051,54; 2104,365;  188,758; 2789,990;73,64230
1052,08; 2099,288;  214,142; 2752,529;74,26553
1052,62; 2077,750;  205,912; 2716,298;74,56375
1053,16; 2047,904;  189,219; 2663,760;75,11232
1053,71; 2042,904;  201,450; 2650,990;75,17548
1054,25; 2011,365;  210,604; 2592,990;75,58646
1054,79; 1961,058;  211,527; 2542,067;75,06975
1055,33; 1906,058;  181,912; 2501,913;74,31658
1055,88; 1945,904;  210,912; 2482,913;76,36403
1056,42; 1908,288;  225,835; 2459,144;75,33455
1056,96; 1879,058;  213,912; 2418,990;75,51413
1057,50; 1848,519;  203,296; 2388,529;75,28823
1058,05; 1822,827;  203,373; 2325,221;76,32280
1058,59; 1806,365;  214,988; 2311,913;75,89098
1059,13; 1737,981;  184,450; 2250,375;75,19783
1059,67; 1755,365;  211,912; 2245,221;75,90845
1060,21; 1715,365;  205,988; 2198,837;75,73969
1060,76; 1728,212;  208,912; 2195,298;76,48562
1061,30; 1705,365;  224,065; 2166,221;76,27092
1061,84; 1652,596;  197,373; 2127,913;75,37905
1062,38; 1623,827;  187,681; 2067,683;76,39067
1062,92; 1645,904;  236,758; 2087,760;76,12883
1063,46; 1605,365;  221,604; 2040,375;76,08222
1064,01; 1590,212;  206,373; 2007,529;76,83058
1064,55; 1562,365;  211,219; 1985,452;76,15383
1065,09; 1521,981;  178,527; 1917,683;77,24747
1065,63; 1546,673;  237,681; 1973,913;75,39268
1066,17; 1534,519;  230,604; 1929,529;76,74944
1066,71; 1516,981;  228,988; 1899,760;77,08969
1067,25; 1470,519;  205,450; 1863,144;76,31499
1067,80; 1498,365;  218,065; 1849,221;78,49036
1068,34; 1478,904;  228,681; 1856,067;76,82398
1068,88; 1400,981;  209,912; 1779,298;75,89394
1069,42; 1451,212;  225,527; 1805,221;77,58999
1069,96; 1404,058;  208,373; 1755,683;77,27507
1070,50; 1409,135;  236,219; 1752,529;77,35329
1071,04; 1355,596;  195,988; 1700,221;77,08965
1071,58; 1355,135;  202,758; 1694,683;77,24094
1072,12; 1331,750;  196,912; 1664,683;77,31713
1072,66; 1329,750;  196,681; 1656,837;77,59920
1073,21; 1328,596;  219,450; 1653,990;77,31718
1073,75; 1289,981;  223,912; 1606,683;77,09658
1074,29; 1280,673;  228,065; 1601,683;76,63035
1074,83; 1284,981;  229,219; 1583,452;77,96013
1075,37; 1256,288;  231,065; 1559,606;77,16913
1075,91; 1238,519;  230,142; 1550,067;76,39653
1076,45; 1230,596;  217,912; 1519,144;77,82502
1076,99; 1201,981;  225,450; 1500,760;76,57205
1077,53; 1187,212;  202,912; 1490,913;76,42069
1078,07; 1195,058;  214,835; 1481,683;77,37495
1078,61; 1163,904;  213,142; 1458,606;76,33797
1079,15; 1149,365;  207,681; 1419,144;77,73116
1079,69; 1147,212;  208,296; 1424,990;77,16938
1080,23; 1154,365;  230,988; 1413,760;78,06894
1080,77; 1159,212;  245,604; 1413,760;78,20941
1081,31; 1093,904;  204,758; 1351,913;77,50875
1081,85; 1114,058;  225,142; 1354,452;78,71317
1082,39; 1084,596;  201,758; 1340,375;77,53601
1082,93; 1089,135;  214,988; 1322,606;78,92132
1083,47; 1041,673;  196,758; 1280,760;77,94409
1084,01; 1075,212;  230,296; 1305,606;78,57415
1084,55; 1024,596;  205,065; 1266,837;77,18525
1085,09; 1055,750;  222,604; 1277,067;79,01138
1085,63; 1017,442;  225,527; 1236,990;78,29402
1086,17; 1014,904;  208,373; 1242,144;78,01831
1086,71;  988,827;  212,296; 1212,606;77,62904
1087,24; 1014,288;  227,527; 1220,221;79,25517
1087,78;  980,904;  225,219; 1196,452;77,80675
1088,32;  949,750;  205,527; 1174,990;76,76649
1088,86;  983,058;  236,450; 1189,375;78,34905
1089,40;  956,212;  215,296; 1155,067;78,83998
1089,94;  923,212;  190,835; 1110,606;79,62599
1090,48;  942,212;  223,912; 1137,606;78,61492
1091,02;  927,673;  229,604; 1114,452;78,89142
1091,56;  908,750;  216,604; 1115,375;77,01028
1092,10;  880,288;  199,604; 1081,375;77,19516
1092,63;  893,058;  237,988; 1115,913;74,61563
1093,17;  869,135;  218,219; 1071,913;76,24690
1093,71;  842,750;  201,912; 1049,375;75,61842
1094,25;  885,519;  229,604; 1056,375;79,33458
1094,79;  847,212;  220,142; 1041,529;76,34277
1095,33;  841,596;  217,373; 1013,298;78,42737
1095,87;  819,058;  212,912; 1008,221;76,21512
1096,40;  806,673;  203,527;  978,606;77,81739
1096,94;  810,827;  224,988;  976,837;77,91979
1097,48;  802,365;  214,065;  965,144;78,32733
1098,02;  780,596;  212,912;  961,067;75,87786
1098,56;  749,212;  190,835;  918,683;76,71614
1099,10;  751,288;  188,527;  904,529;78,59777
1099,63;  738,750;  190,604;  898,837;77,39634
1100,17;  750,596;  209,142;  930,760;75,03338
1100,71;  752,904;  225,142;  925,067;75,40258

