
Integration time [ms]: 160,000
Averaging Nr. [scans]: 13
Smoothing Nr. [pixels]: 0
Data measured with spectrometer [name]: 2009305U1
Wave   ;Sample   ;Dark     ;Reference;Reflectance
[nm]   ;[counts] ;[counts] ;[counts] ;[%]

 175,72;  218,678;  211,495;  220,903;76,34275
 176,32;  246,830;  239,266;  234,681; 0,00000
 176,92;  278,635;  272,880;  278,464;103,05694
 177,52;  278,430;  261,034;  277,765;103,97339
 178,12;  247,498;  246,728;  239,441; 0,00000
 178,72;  279,418;  280,728;  259,868; 0,00000
 179,32;  270,126;  264,958;  256,710; 0,00000
 179,92;  259,581;  263,342;  268,977;-66,76226
 180,52;  255,216;  259,879;  273,789;-33,52473
 181,12;  269,507;  277,881;  256,017; 0,00000
 181,73;  300,416;  280,188;  289,375;220,19062
 182,33;  398,941;  394,264;  386,146; 0,00000
 182,93;  284,075;  288,188;  294,880;-61,45947
 183,53;  258,838;  249,497;  239,413; 0,00000
 184,13;  245,614;  254,420;  244,570; 0,00000
 184,73;  306,416;  298,267;  300,295;401,73240
 185,33;  276,249;  255,507;  366,926;18,61679
 185,93;  280,605;  249,508;  376,315;24,52341
 186,53;  292,817;  254,199;  407,611;25,17244
 187,13;  313,341;  292,198;  434,377;14,87039
 187,73;  286,560;  255,584;  389,711;23,09443
 188,33;  280,609;  254,739;  382,838;20,19568
 188,93;  299,067;  262,972;  407,196;25,02745
 189,53;  296,621;  261,127;  411,282;23,63860
 190,13;  336,267;  301,206;  452,201;23,22016
 190,73;  276,757;  234,974;  381,637;28,48933
 191,34;  298,672;  263,511;  421,861;22,20448
 191,94;  274,168;  251,278;  383,915;17,25782
 192,54;  288,647;  269,043;  407,504;14,15796
 193,14;  306,018;  277,121;  406,597;22,31810
 193,74;  302,792;  274,891;  414,642;19,96467
 194,34;  290,450;  267,429;  394,312;18,14342
 194,94;  258,279;  239,352;  369,250;14,57024
 195,54;  222,982;  219,506;  349,176; 2,68007
 196,14;  264,243;  240,967;  384,854;16,17649
 196,74;  252,011;  243,045;  363,077; 7,46983
 197,34;  233,221;  217,889;  356,094;11,09321
 197,94;  267,873;  241,044;  380,589;19,22557
 198,54;  279,770;  257,890;  399,498;15,45076
 199,14;  257,484;  218,351;  403,167;21,17427
 199,74;  236,454;  212,427;  383,975;14,00576
 200,34;  241,474;  212,273;  393,938;16,07402
 200,94;  275,361;  243,813;  436,072;16,40917
 201,54;  249,435;  229,351;  435,693; 9,73354
 202,14;  288,396;  262,812;  492,471;11,14024
 202,74;  248,402;  226,658;  463,599; 9,17686
 203,34;  226,101;  200,965;  486,334; 8,80832
 203,94;  207,169;  175,581;  465,511;10,89513
 204,54;  266,533;  254,583;  559,330; 3,92146
 205,14;  229,088;  204,274;  563,349; 6,91053
 205,74;  294,546;  259,503;  662,948; 8,68580
 206,34;  253,030;  213,350;  676,769; 8,56242
 206,94;  254,501;  221,966;  723,536; 6,48675
 207,54;  225,901;  191,965;  735,008; 6,24915
 208,14;  251,756;  211,042;  834,001; 6,53552
 208,74;  255,266;  225,581;  894,589; 4,43719
 209,34;  244,571;  210,966;  953,918; 4,52320
 209,94;  263,543;  224,350; 1042,023; 4,79312
 210,54;  270,373;  208,581; 1146,590; 6,58764
 211,14;  275,449;  220,581; 1233,561; 5,41645
 211,73;  273,774;  230,120; 1354,567; 3,88230
 212,33;  297,545;  232,966; 1441,495; 5,34354
 212,93;  264,327;  217,889; 1521,973; 3,56093
 213,53;  247,467;  183,197; 1578,704; 4,60552
 214,13;  297,495;  221,041; 1675,848; 5,25522
 214,73;  260,319;  199,119; 1679,856; 4,13308
 215,33;  255,466;  186,735; 1701,869; 4,53627
 215,93;  296,813;  212,427; 1819,005; 5,25258
 216,53;  252,144;  179,043; 1865,616; 4,33431
 217,13;  316,408;  222,504; 2071,888; 5,07762
 217,73;  292,984;  203,042; 2248,929; 4,39624
 218,33;  273,492;  171,964; 2388,716; 4,58000
 218,93;  323,022;  214,117; 2693,654; 4,39216
 219,53;  344,000;  203,734; 2934,601; 5,13634
 220,13;  324,770;  169,272; 3204,123; 5,12374
 220,73;  360,021;  193,427; 3549,946; 4,96328
 221,32;  384,651;  193,120; 3911,204; 5,15134
 221,92;  418,002;  212,426; 4258,343; 5,08108
 222,52;  416,267;  180,426; 4647,766; 5,27921
 223,12;  438,253;  191,965; 5076,883; 5,04182
 223,72;  475,685;  205,503; 5445,460; 5,15618
 224,32;  496,464;  200,734; 5797,980; 5,28350
 224,92;  502,902;  186,734; 6133,730; 5,31644
 225,52;  543,010;  211,043; 6466,344; 5,30697
 226,12;  566,119;  191,657; 6804,032; 5,66304
 226,72;  576,020;  166,965; 7141,233; 5,86520
 227,31;  582,766;  169,965; 7450,059; 5,67027
 227,91;  659,994;  205,889; 7848,563; 5,94171
 228,51;  669,057;  188,966; 8248,958; 5,95646
 229,11;  693,430;  193,888; 8638,165; 5,91574
 229,71;  708,256;  189,351; 8929,915; 5,93675
 230,31;  752,364;  169,349; 9275,714; 6,40228
 230,91;  777,757;  172,813; 9541,290; 6,45723
 231,51;  815,499;  175,273; 9866,910; 6,60597
 232,10;  871,515;  180,887;10214,043; 6,88345
 232,70;  874,142;  196,275;10365,850; 6,66564
 233,30;  982,442;  220,888;10585,581; 7,34758
 233,90;  963,495;  181,657;10679,870; 7,44734
 234,50;  993,333;  199,427;10768,861; 7,51135
 235,10; 1013,364;  191,503;10873,807; 7,69367
 235,70; 1063,474;  210,735;10830,553; 8,02970
 236,29; 1090,699;  200,120;10712,540; 8,47169
 236,89; 1086,625;  185,582;10549,474; 8,69406
 237,49; 1139,646;  209,273;10449,368; 9,08559
 238,09; 1134,184;  189,273;10173,846; 9,46371
 238,69; 1157,597;  244,352; 9879,585; 9,47819
 239,29; 1123,180;  192,966; 9618,806; 9,86877
 239,89; 1130,264;  199,813; 9276,493;10,25100
 240,48; 1103,083;  183,735; 8770,288;10,70684
 241,08; 1108,016;  197,966; 8459,440;11,01560
 241,68; 1133,443;  200,504; 8144,664;11,74371
 242,28; 1075,775;  182,734; 7805,359;11,71565
 242,88; 1137,542;  221,503; 7526,887;12,53923
 243,48; 1131,907;  225,350; 7209,637;12,97995
 244,07; 1095,432;  206,196; 6967,006;13,15280
 244,67; 1114,003;  209,658; 6874,848;13,56819
 245,27; 1115,082;  203,582; 6645,336;14,14988
 245,87; 1137,000;  219,349; 6643,001;14,28549
 246,47; 1125,567;  208,735; 6568,509;14,41611
 247,06; 1131,938;  196,350; 6579,142;14,65797
 247,66; 1159,117;  185,504; 6603,212;15,17073
 248,26; 1206,405;  214,043; 6758,501;15,16340
 248,86; 1265,276;  213,582; 6942,433;15,62963
 249,46; 1243,529;  165,196; 7133,256;15,47537
 250,05; 1341,605;  205,658; 7497,287;15,57878
 250,65; 1362,540;  180,736; 7809,757;15,49091
 251,25; 1463,319;  184,735; 8215,487;15,92110
 251,85; 1550,536;  190,044; 8783,503;15,83172
 252,44; 1607,935;  162,197; 9374,493;15,69358
 253,04; 1753,713;  199,658;10076,254;15,73472
 253,64; 1835,525;  165,582;10743,900;15,78647
 254,24; 2000,558;  213,350;11677,479;15,58957
 254,84; 2102,837;  188,427;12516,102;15,52937
 255,43; 2234,810;  191,504;13497,464;15,35632
 256,03; 2364,973;  190,351;14451,940;15,24811
 256,63; 2530,678;  202,736;15523,455;15,19473
 257,23; 2644,245;  168,274;16450,734;15,20637
 257,82; 2799,647;  203,582;17379,987;15,11413
 258,42; 2863,511;  155,814;18251,839;14,96294
 259,02; 3032,116;  217,043;19237,629;14,80014
 259,62; 3119,468;  187,275;19953,856;14,83409
 260,21; 3189,409;  192,812;20539,387;14,72777
 260,81; 3223,333;  192,196;21031,724;14,54513
 261,41; 3261,821;  171,506;21598,351;14,42263
 262,01; 3380,756;  218,814;22103,267;14,44835
 262,60; 3348,014;  171,582;22443,888;14,26180
 263,20; 3350,254;  180,889;22761,864;14,03555
 263,80; 3384,775;  223,045;23041,718;13,85589
 264,40; 3331,298;  177,891;23233,076;13,67765
 264,99; 3341,557;  202,429;23522,987;13,46078
 265,59; 3335,325;  193,661;23638,650;13,40015
 266,19; 3331,360;  186,968;23800,065;13,31631
 266,78; 3368,612;  227,737;23994,434;13,21544
 267,38; 3308,600;  197,815;24065,863;13,03326
 267,98; 3294,013;  198,353;23979,742;13,01716
 268,58; 3239,961;  199,968;24059,998;12,74094
 269,17; 3225,630;  191,815;24039,692;12,72153
 269,77; 3178,434;  203,275;23892,356;12,55920
 270,37; 3118,499;  172,814;23775,823;12,48012
 270,96; 3115,174;  234,198;23752,400;12,24998
 271,56; 3018,424;  198,044;23497,204;12,10507
 272,16; 2990,384;  187,583;23354,129;12,09849
 272,75; 2922,413;  197,429;23260,178;11,81552
 273,35; 2906,019;  184,121;23191,872;11,83035
 273,95; 2863,229;  195,813;23133,216;11,62911
 274,54; 2823,777;  180,889;23211,893;11,47535
 275,14; 2915,870;  215,736;23517,363;11,58775
 275,74; 2825,573;  176,660;23538,504;11,33863
 276,33; 2904,399;  223,121;23996,289;11,27859
 276,93; 2901,206;  201,965;24266,568;11,21664
 277,53; 2924,285;  192,658;24820,040;11,09183
 278,12; 2983,367;  178,505;25255,783;11,18488
 278,72; 3107,594;  248,043;25774,491;11,20231
 279,32; 3102,673;  186,658;26366,635;11,13834
 279,91; 3168,398;  165,505;27091,575;11,15236
 280,51; 3252,290;  191,427;27666,454;11,14053
 281,11; 3354,682;  192,812;28289,017;11,25373
 281,70; 3389,418;  173,813;28738,401;11,25731
 282,30; 3479,039;  180,813;29326,435;11,31637
 282,90; 3542,697;  189,582;29659,522;11,37808
 283,49; 3618,912;  200,121;30268,142;11,37019
 284,09; 3771,685;  234,120;30743,765;11,59491
 284,69; 3856,052;  220,658;31017,144;11,80457
 285,28; 3912,023;  202,659;31341,803;11,91222
 285,88; 4031,734;  265,121;31563,908;12,03437
 286,47; 4071,265;  194,428;31613,098;12,33928
 287,07; 4155,933;  218,889;31770,442;12,47813
 287,67; 4283,060;  211,196;31839,022;12,87431
 288,26; 4354,171;  191,966;31807,153;13,16521
 288,86; 4480,336;  183,659;31881,294;13,55520
 289,46; 4677,030;  206,428;32075,499;14,02803
 290,05; 4809,195;  184,889;32130,295;14,47565
 290,65; 4980,232;  187,428;32228,789;14,95818
 291,24; 5178,405;  197,889;32463,116;15,43617
 291,84; 5392,986;  213,659;32502,916;16,04040
 292,44; 5577,402;  202,042;32604,561;16,58933
 293,03; 5838,547;  265,351;32838,068;17,11001
 293,63; 5931,596;  189,274;32896,579;17,55670
 294,22; 6131,771;  216,505;33115,219;17,98023
 294,82; 6263,996;  189,737;33153,874;18,42687
 295,41; 6299,341;  182,813;32797,016;18,75419
 296,01; 6452,777;  228,352;32885,599;19,05986
 296,61; 6507,039;  222,043;32616,337;19,40155
 297,20; 6506,699;  195,506;32123,917;19,76670
 297,80; 6555,150;  211,427;31958,152;19,98229
 298,39; 6517,998;  182,120;31671,810;20,12048
 298,99; 6572,121;  213,044;31605,727;20,25656
 299,58; 6572,803;  208,427;31297,963;20,47112
 300,18; 6563,916;  214,273;31171,882;20,51077
 300,78; 6548,987;  190,274;30812,484;20,76504
 301,37; 6582,211;  205,276;30778,033;20,85823
 301,97; 6575,084;  207,889;30739,864;20,85418
 302,56; 6573,059;  191,890;30732,876;20,89379
 303,16; 6514,542;  171,275;30635,614;20,82194
 303,75; 6553,464;  198,889;30709,572;20,82738
 304,35; 6637,195;  176,888;30875,873;21,04404
 304,94; 6658,858;  195,582;30903,201;21,04779
 305,54; 6640,266;  221,274;30870,973;20,94309
 306,13; 6581,839;  167,042;30760,306;20,96800
 306,73; 6566,905;  181,657;30598,417;20,99253
 307,33; 6542,866;  205,581;30526,002;20,90105
 307,92; 6661,340;  214,274;30574,010;21,23558
 308,52; 6639,745;  174,044;31067,181;20,92925
 309,11; 6746,844;  192,967;31471,771;20,95309
 309,71; 6803,845;  178,660;31741,315;20,99058
 310,30; 6838,696;  189,966;31894,116;20,97117
 310,90; 6988,850;  216,966;32319,808;21,09434
 311,49; 6935,490;  204,582;32460,740;20,86705
 312,09; 6940,170;  160,504;32564,670;20,92220
 312,68; 7134,467;  256,120;33005,474;21,00300
 313,28; 7061,724;  170,043;33175,626;20,88035
 313,87; 7077,756;  166,966;33225,346;20,90481
 314,47; 7107,018;  194,890;33451,734;20,78408
 315,06; 7126,321;  169,966;33601,944;20,80749
 315,66; 7160,785;  176,735;33882,747;20,72049
 316,25; 7101,056;  158,198;33782,606;20,64827
 316,85; 7084,767;  163,043;33817,988;20,56674
 317,44; 7098,807;  174,737;33894,099;20,53441
 318,04; 7082,105;  163,428;33955,003;20,47456
 318,63; 7030,301;  161,657;34108,234;20,23369
 319,22; 7055,404;  192,044;34238,164;20,15901
 319,82; 7024,953;  187,505;34282,284;20,05424
 320,41; 7041,278;  195,274;34163,828;20,15395
 321,01; 6985,071;  196,350;34282,487;19,91637
 321,60; 6978,496;  201,659;34248,928;19,90420
 322,20; 6923,653;  177,889;34275,424;19,78373
 322,79; 6905,718;  214,735;34311,299;19,62363
 323,39; 6881,238;  190,580;34354,718;19,58386
 323,98; 6801,190;  172,658;34412,281;19,35924
 324,58; 6784,833;  178,736;34294,614;19,36370
 325,17; 6757,996;  188,582;34039,837;19,40671
 325,76; 6688,840;  193,966;33856,903;19,29384
 326,36; 6594,805;  166,889;33513,650;19,27598
 326,95; 6536,833;  216,043;33228,593;19,14663
 327,55; 6386,421;  172,505;32890,995;18,99206
 328,14; 6318,226;  171,812;32612,932;18,94637
 328,74; 6245,859;  202,736;32108,530;18,94052
 329,33; 6150,581;  199,197;31716,669;18,88281
 329,92; 5976,080;  174,506;31176,262;18,71369
 330,52; 5862,497;  194,812;30555,183;18,66804
 331,11; 5752,431;  190,043;30144,361;18,56957
 331,71; 5593,321;  186,197;29502,113;18,44433
 332,30; 5538,858;  197,812;29112,432;18,47178
 332,89; 5505,068;  263,043;28669,216;18,45382
 333,49; 5319,383;  198,274;28111,179;18,34674
 334,08; 5168,717;  178,967;27703,639;18,12828
 334,68; 5080,829;  189,274;27262,091;18,06814
 335,27; 5036,855;  205,735;26953,800;18,06157
 335,86; 5027,200;  247,043;26654,207;18,10174
 336,46; 4891,321;  206,196;26370,675;17,90643
 337,05; 4811,023;  182,043;26282,034;17,73556
 337,65; 4790,071;  171,582;26020,755;17,86707
 338,24; 4806,616;  240,043;25970,983;17,74740
 338,83; 4755,840;  203,351;25894,964;17,71975
 339,43; 4703,907;  185,274;25829,173;17,62069
 340,02; 4665,796;  185,659;25712,711;17,55055
 340,61; 4703,617;  192,581;25759,357;17,64413
 341,21; 4671,936;  221,274;25755,376;17,43026
 341,80; 4677,617;  185,813;25721,312;17,59043
 342,40; 4660,798;  195,504;25792,472;17,44462
 342,99; 4657,222;  195,658;25820,524;17,41107
 343,58; 4680,197;  183,504;25964,592;17,44183
 344,18; 4719,349;  206,273;26161,756;17,38775
 344,77; 4726,454;  176,198;26459,566;17,31230
 345,36; 4781,448;  173,966;26693,977;17,37360
 345,96; 4841,682;  216,581;27051,688;17,23526
 346,55; 4826,089;  174,888;27255,285;17,17553
 347,14; 4912,602;  181,658;27496,847;17,31983
 347,74; 4975,985;  161,349;28000,958;17,29420
 348,33; 5088,509;  186,734;28614,101;17,24315
 348,92; 5217,817;  194,425;29124,377;17,36398
 349,52; 5295,325;  165,579;29669,124;17,38688
 350,11; 5333,532;  189,582;29848,787;17,34352
 350,70; 5327,198;  169,197;29950,905;17,31936
 351,29; 5279,204;  170,199;29844,338;17,21703
 351,89; 5300,525;  188,737;29831,723;17,24451
 352,48; 5255,624;  155,120;29755,914;17,23097
 353,07; 5288,002;  201,965;29776,627;17,19728
 353,67; 5249,366;  196,656;29588,512;17,19085
 354,26; 5217,844;  192,042;29386,203;17,21509
 354,85; 5193,341;  200,042;29264,979;17,17980
 355,45; 5155,133;  170,659;29117,820;17,21922
 356,04; 5133,923;  181,504;29041,484;17,16016
 356,63; 5132,222;  217,889;28801,391;17,19290
 357,22; 5103,848;  187,122;28686,986;17,25175
 357,82; 5065,926;  186,583;28514,432;17,22454
 358,41; 5064,515;  208,966;28351,903;17,25317
 359,00; 5021,611;  173,736;28193,299;17,30175
 359,60; 5005,450;  193,658;28178,473;17,19430
 360,19; 5007,046;  212,042;27969,918;17,27439
 360,78; 4970,510;  194,967;27841,120;17,27381
 361,37; 4951,480;  185,428;27630,620;17,36571
 361,97; 4957,451;  188,659;27560,479;17,42227
 362,56; 4892,320;  172,275;27379,315;17,34862
 363,15; 4929,327;  246,736;27069,763;17,45736
 363,74; 4842,846;  189,121;26699,514;17,55434
 364,34; 4766,014;  201,121;26313,904;17,48145
 364,93; 4712,990;  181,813;25931,362;17,59711
 365,52; 4655,354;  156,274;25563,053;17,70819
 366,11; 4595,007;  175,659;25305,731;17,58590
 366,71; 4518,558;  176,274;24976,549;17,50901
 367,30; 4514,809;  188,813;24570,650;17,74270
 367,89; 4519,898;  220,273;24359,353;17,81188
 368,48; 4475,171;  209,583;24012,822;17,92020
 369,07; 4414,044;  193,197;23678,443;17,97233
 369,67; 4367,843;  221,582;23399,535;17,88881
 370,26; 4292,599;  185,274;23017,905;17,98884
 370,85; 4273,727;  182,813;22827,852;18,06539
 371,44; 4266,535;  195,120;22636,113;18,14276
 372,03; 4205,103;  167,890;22379,644;18,17602
 372,63; 4161,045;  163,428;22064,218;18,25330
 373,22; 4130,377;  183,735;21880,606;18,18991
 373,81; 4091,408;  170,197;21543,188;18,34657
 374,40; 4077,160;  181,658;21283,519;18,46047
 374,99; 4069,192;  186,351;21056,138;18,60508
 375,59; 4002,931;  161,042;20732,739;18,67560
 376,18; 4014,682;  199,043;20624,802;18,68052
 376,77; 4040,522;  204,659;20445,691;18,95093
 377,36; 4034,923;  207,659;20368,246;18,98389
 377,95; 3974,574;  203,428;20136,549;18,91899
 378,55; 3999,071;  177,966;19982,410;19,29418
 379,14; 3982,526;  198,582;19861,813;19,24376
 379,73; 4009,822;  196,659;19765,165;19,48622
 380,32; 4043,848;  194,736;19764,604;19,66857
 380,91; 4000,761;  173,890;19684,198;19,61461
 381,50; 4001,982;  194,890;19674,046;19,54444
 382,10; 4012,309;  176,428;19517,142;19,83319
 382,69; 4024,414;  166,120;19492,438;19,96394
 383,28; 4063,885;  214,813;19467,605;19,99228
 383,87; 4025,477;  177,659;19263,201;20,16090
 384,46; 4027,416;  162,352;19266,403;20,23164
 385,05; 4089,509;  198,198;19236,921;20,43893
 385,64; 4094,777;  185,890;19264,731;20,48807
 386,24; 4081,783;  159,737;19225,480;20,57117
 386,83; 4153,638;  200,198;19281,411;20,71901
 387,42; 4198,870;  196,274;19353,270;20,89365
 388,01; 4272,379;  177,891;19573,307;21,11060
 388,60; 4369,407;  191,044;19814,164;21,29306
 389,19; 4424,841;  185,584;20005,729;21,38863
 389,78; 4473,647;  182,969;20194,001;21,44157
 390,37; 4650,661;  250,045;20690,369;21,52909
 390,96; 4691,163;  196,583;20773,220;21,84312
 391,56; 4748,243;  195,969;20863,273;22,02645
 392,15; 4805,437;  179,123;21192,503;22,01604
 392,74; 4859,877;  160,817;21310,624;22,21798
 393,33; 5012,459;  187,893;21679,108;22,44902
 393,92; 5090,516;  197,509;22034,588;22,40688
 394,51; 5172,608;  171,816;22249,848;22,65053
 395,10; 5260,806;  215,896;22471,673;22,66787
 395,69; 5338,884;  203,049;22534,810;22,99789
 396,28; 5423,494;  194,435;22689,511;23,24535
 396,87; 5461,473;  190,975;22814,078;23,29697
 397,46; 5544,299;  194,899;22864,306;23,59744
 398,06; 5608,355;  212,823;23086,703;23,58818
 398,65; 5651,625;  195,979;23095,800;23,82396
 399,24; 5754,465;  218,211;23352,957;23,93047
 399,83; 5772,056;  187,907;23329,458;24,13040
 400,42; 5910,370;  225,680;23500,735;24,42396
 401,01; 5905,177;  196,684;23613,456;24,37779
 401,60; 5987,733;  225,382;23644,888;24,60492
 402,19; 6063,837;  239,695;23657,412;24,87066
 402,78; 6068,553;  231,471;23539,932;25,04276
 403,37; 6074,539;  214,939;23457,159;25,21101
 403,96; 6081,379;  222,639;23272,985;25,41714
 404,55; 6114,399;  243,725;23287,924;25,47571
 405,14; 6089,117;  219,964;23067,240;25,68864
 405,73; 6124,239;  229,742;22969,296;25,92178
 406,32; 6137,493;  229,133;22983,779;25,96551
 406,91; 6070,746;  224,679;22726,786;25,98009
 407,50; 6133,498;  228,836;22474,198;26,54334
 408,09; 6098,421;  202,762;22260,479;26,72833
 408,68; 6052,274;  211,533;22143,974;26,63060
 409,27; 6076,628;  203,223;21926,977;27,03679
 409,86; 6102,613;  216,756;21783,063;27,29191
 410,45; 6130,577;  252,905;21764,002;27,32391
 411,04; 6192,106;  246,516;21720,847;27,68696
 411,63; 6121,685;  236,817;21434,096;27,76237
 412,22; 6081,708;  227,888;21243,443;27,85470
 412,81; 6055,864;  249,348;21005,096;27,97546
 413,40; 6019,113;  257,960;20696,035;28,18833
 413,99; 6025,486;  306,423;20358,870;28,52053
 414,58; 5866,415;  227,422;19923,867;28,62950
 415,17; 5867,988;  240,271;19761,596;28,82856
 415,76; 5837,009;  222,735;19610,748;28,95745
 416,35; 5794,924;  207,503;19427,764;29,07048
 416,94; 5873,341;  254,888;19451,197;29,26840
 417,53; 5945,221;  222,963;19612,954;29,51140
 418,12; 6003,996;  227,424;19777,644;29,54735
 418,71; 6133,123;  250,730;20131,786;29,58793
 419,30; 6210,684;  219,347;20238,060;29,92868
 419,89; 6301,780;  221,269;20300,403;30,28273
 420,48; 6413,874;  251,807;20647,334;30,21284
 421,07; 6455,628;  237,575;20737,148;30,33260
 421,66; 6462,926;  208,497;20776,174;30,40902
 422,25; 6512,236;  227,880;20780,887;30,57634
 422,84; 6543,675;  243,341;20720,605;30,76746
 423,43; 6479,792;  225,803;20428,524;30,95617
 424,02; 6462,007;  258,803;20219,722;31,07674
 424,60; 6374,537;  224,185;19803,125;31,41310
 425,19; 6306,024;  250,340;19540,192;31,39311
 425,78; 6233,660;  238,340;19461,617;31,18782
 426,37; 6244,466;  253,569;19304,544;31,44667
 426,96; 6267,744;  238,954;19126,121;31,92003
 427,55; 6250,934;  230,183;19126,181;31,86257
 428,14; 6168,445;  229,644;18833,699;31,92208
 428,73; 6149,906;  235,338;18647,153;32,12376
 429,32; 6211,203;  249,877;18594,763;32,49585
 429,91; 6178,685;  259,030;18676,904;32,14082
 430,50; 6188,839;  258,645;18521,713;32,47096
 431,08; 6149,123;  258,644;18360,349;32,54102
 431,67; 6192,302;  302,412;18330,782;32,67012
 432,26; 6178,144;  326,642;18160,858;32,81054
 432,85; 6066,421;  347,335;17821,836;32,72818
 433,44; 6021,445;  360,257;17440,033;33,14556
 434,03; 5903,750;  371,256;17158,139;32,95725
 434,62; 5754,851;  331,641;16663,909;33,20549
 435,21; 5749,626;  347,104;16496,684;33,45302
 435,79; 5739,579;  332,948;16332,708;33,79195
 436,38; 5679,264;  328,485;16237,016;33,63465
 436,97; 5669,697;  323,793;16221,643;33,62658
 437,56; 5630,236;  328,637;15979,537;33,87408
 438,15; 5621,502;  295,099;15875,318;34,18696
 438,74; 5669,279;  332,560;15856,013;34,37842
 439,33; 5655,581;  284,099;15873,077;34,45692
 439,91; 5697,808;  252,867;15956,906;34,67223
 440,50; 5725,404;  294,098;16015,235;34,54779
 441,09; 5784,312;  294,943;16082,077;34,77116
 441,68; 5749,942;  267,711;16154,661;34,50776
 442,27; 5779,575;  254,865;16123,606;34,81504
 442,86; 5776,977;  241,324;16026,007;35,06978
 443,44; 5787,729;  250,786;16129,577;34,87005
 444,03; 5904,556;  335,324;16189,950;35,12686
 444,62; 5791,083;  250,555;16053,209;35,06074
 445,21; 5802,149;  259,940;15947,782;35,32805
 445,80; 5775,401;  295,246;15848,830;35,23403
 446,39; 5786,773;  333,016;15659,644;35,58354
 446,97; 5648,435;  252,399;15390,839;35,64460
 447,56; 5537,183;  255,321;15178,970;35,39257
 448,15; 5503,223;  256,168;15006,598;35,57221
 448,74; 5464,024;  282,091;14794,610;35,70664
 449,33; 5379,076;  267,090;14665,641;35,50347
 449,91; 5334,127;  249,089;14390,958;35,95733
 450,50; 5263,340;  253,628;14218,742;35,87305
 451,09; 5266,023;  271,320;14125,591;36,05172
 451,68; 5267,685;  294,704;14035,070;36,19249
 452,26; 5211,132;  276,165;13992,011;35,98004
 452,85; 5187,839;  257,703;13829,823;36,32546
 453,44; 5164,371;  273,932;13779,714;36,20996
 454,03; 5161,638;  250,318;13801,670;36,24229
 454,61; 5154,510;  252,471;13757,610;36,29758
 455,20; 5231,135;  271,009;13969,185;36,21012
 455,79; 5236,266;  274,779;13911,286;36,38386
 456,38; 5276,473;  279,161;14014,786;36,38212
 456,97; 5258,089;  262,854;14103,099;36,09210
 457,55; 5279,397;  258,238;14130,908;36,19461
 458,14; 5320,615;  291,239;14075,067;36,48752
 458,73; 5280,689;  272,468;14011,957;36,45129
 459,31; 5328,912;  289,006;14063,050;36,58988
 459,90; 5324,761;  317,622;14168,214;36,15108
 460,49; 5452,437;  377,853;14241,835;36,60265
 461,08; 5404,550;  264,928;14290,432;36,64483
 461,66; 5446,334;  272,083;14351,107;36,75149
 462,25; 5427,456;  282,312;14495,949;36,19864
 462,84; 5498,843;  300,390;14501,636;36,60562
 463,43; 5419,410;  248,234;14475,764;36,34627
 464,01; 5451,013;  272,157;14468,694;36,47971
 464,60; 5491,449;  336,004;14482,124;36,44424
 465,19; 5353,059;  249,233;14206,266;36,56813
 465,77; 5394,122;  278,617;14168,900;36,82794
 466,36; 5341,883;  300,388;14093,889;36,54979
 466,95; 5180,288;  281,773;13770,006;36,31695
 467,53; 5121,899;  290,847;13477,871;36,63489
 468,12; 5059,593;  309,616;13237,536;36,74200
 468,71; 4953,913;  273,156;13039,028;36,66618
 469,29; 4848,098;  257,539;12766,750;36,69743
 469,88; 4744,915;  260,077;12540,218;36,52106
 470,47; 4808,247;  332,307;12631,261;36,39285
 471,06; 4746,145;  280,922;12514,253;36,50047
 471,64; 4788,619;  281,077;12656,922;36,42210
 472,23; 4752,240;  253,305;12657,306;36,27003
 472,81; 4778,014;  257,229;12781,927;36,09496
 473,40; 4818,103;  268,536;12921,383;35,95686
 473,99; 4984,511;  383,228;13090,095;36,21100
 474,57; 4937,205;  266,382;13216,161;36,06875
 475,16; 4975,352;  284,691;13368,257;35,85155
 475,75; 5017,436;  311,227;13514,047;35,64548
 476,33; 5039,695;  301,611;13584,597;35,67032
 476,92; 5067,602;  302,228;13597,424;35,84282
 477,51; 5079,467;  305,535;13748,207;35,51326
 478,09; 5090,667;  300,304;13698,169;35,75468
 478,68; 5037,482;  294,996;13631,356;35,56057
 479,27; 5059,630;  330,458;13743,529;35,25793
 479,85; 5044,750;  288,765;13644,644;35,60967
 480,44; 5063,510;  278,765;13842,630;35,27567
 481,02; 5427,357;  308,379;15086,890;34,63798
 481,61; 6146,950;  322,072;17081,415;34,75601
 482,20; 6475,493;  310,456;18258,439;34,34947
 482,78; 6766,312;  339,457;19068,417;34,31507
 483,37; 6961,757;  338,609;19595,156;34,39427
 483,95; 7029,788;  367,609;19905,024;34,09959
 484,54; 7063,503;  372,764;20108,365;33,90188
 485,13; 6982,927;  341,839;20041,729;33,71129
 485,71; 6905,650;  330,224;19771,542;33,82192
 486,30; 6866,928;  357,377;19509,734;33,98825
 486,88; 6750,017;  411,070;19225,690;33,69160
 487,47; 6510,337;  374,608;18539,337;33,77826
 488,05; 6224,724;  365,915;17726,602;33,74756
 488,64; 5801,775;  359,914;16450,710;33,81971
 489,23; 5253,612;  369,761;14676,365;34,13704
 489,81; 4502,725;  373,607;12571,955;33,84981
 490,40; 4254,738;  315,914;11874,977;34,07563
 490,98; 4138,481;  307,068;11586,193;33,96907
 491,57; 4087,562;  338,069;11499,424;33,59353
 492,15; 4049,040;  317,145;11462,542;33,48374
 492,74; 4021,746;  317,453;11356,094;33,55750
 493,32; 4012,548;  348,145;11203,904;33,75539
 493,91; 3944,835;  314,298;11186,903;33,39160
 494,50; 3912,032;  313,220;11148,596;33,21354
 495,08; 3896,714;  298,066;11063,846;33,42673
 495,67; 3871,850;  328,067;11048,699;33,05573
 496,25; 3788,683;  260,605;10929,547;33,06867
 496,84; 3772,082;  281,529;10919,843;32,81115
 497,42; 3771,274;  257,682;10876,907;33,08708
 498,01; 3759,362;  297,144;10794,624;32,98142
 498,59; 3686,951;  263,912;10734,726;32,69124
 499,18; 3686,354;  263,144;10715,154;32,75169
 499,76; 3671,511;  289,451;10606,019;32,78280
 500,35; 3576,503;  278,142;10473,419;32,35185
 500,93; 3528,376;  269,836;10384,608;32,21565
 501,52; 3495,970;  273,066;10331,793;32,04087
 502,10; 3493,400;  279,372;10285,543;32,12046
 502,69; 3447,495;  264,833;10162,588;32,15539
 503,27; 3350,238;  240,989;10022,588;31,78672
 503,86; 3333,299;  269,064; 9911,595;31,77832
 504,44; 3268,654;  228,987; 9797,140;31,76859
 505,03; 3207,435;  221,141; 9535,881;32,05988
 505,61; 3184,570;  235,833; 9501,368;31,82479
 506,19; 3095,176;  258,910; 9294,370;31,39038
 506,78; 3026,452;  239,524; 9132,905;31,33710
 507,36; 2950,555;  244,602; 8968,110;31,01909
 507,95; 2934,553;  240,755; 8805,585;31,45186
 508,53; 2880,536;  235,371; 8713,924;31,19831
 509,12; 2830,090;  245,139; 8554,996;31,10704
 509,70; 2773,291;  267,832; 8439,018;30,66212
 510,29; 2748,202;  288,600; 8295,487;30,71857
 510,87; 2644,281;  237,832; 8093,981;30,63141
 511,46; 2580,501;  235,986; 7953,917;30,37751
 512,04; 2522,494;  247,370; 7787,108;30,17511
 512,62; 2491,163;  249,755; 7651,187;30,28344
 513,21; 2430,177;  243,216; 7456,248;30,31958
 513,79; 2398,138;  236,752; 7390,281;30,21426
 514,38; 2306,980;  229,214; 7225,273;29,69909
 514,96; 2315,745;  262,984; 7149,925;29,80658
 515,54; 2230,500;  222,906; 6979,651;29,71244
 516,13; 2232,462;  261,060; 6955,374;29,44890
 516,71; 2163,351;  239,906; 6806,797;29,29005
 517,30; 2142,349;  228,982; 6687,017;29,62770
 517,88; 2119,628;  249,290; 6594,814;29,47492
 518,46; 2029,947;  228,674; 6507,780;28,68677
 519,05; 2068,740;  230,135; 6478,075;29,42738
 519,63; 2038,935;  246,135; 6365,408;29,29760
 520,22; 2018,355;  254,057; 6319,730;29,08660
 520,80; 1955,886;  240,673; 6261,953;28,48585
 521,38; 2009,105;  285,750; 6247,865;28,90509
 521,97; 1930,064;  233,057; 6214,479;28,37130
 522,55; 1918,336;  249,134; 6166,104;28,21043
 523,13; 1893,742;  245,749; 6176,282;27,78828
 523,72; 1892,995;  239,982; 6136,578;28,03335
 524,30; 1949,607;  270,671; 6312,779;27,78726
 524,89; 1917,748;  219,749; 6304,778;27,90453
 525,47; 1961,087;  255,517; 6430,214;27,62193
 526,05; 1938,215;  210,671; 6427,908;27,78636
 526,64; 1992,510;  254,824; 6582,932;27,45979
 527,22; 2007,260;  261,825; 6754,820;26,88181
 527,80; 2057,215;  299,824; 6831,738;26,90468
 528,39; 2029,721;  241,286; 6934,551;26,71992
 528,97; 2054,010;  241,747; 7075,885;26,51779
 529,55; 2076,688;  254,210; 7272,532;25,96743
 530,14; 2143,111;  269,362; 7469,642;26,02328
 530,72; 2124,672;  249,824; 7542,001;25,71040
 531,30; 2142,411;  228,054; 7745,941;25,46402
 531,89; 2198,772;  252,285; 7813,999;25,74134
 532,47; 2244,127;  281,054; 7927,406;25,67332
 533,05; 2214,322;  283,286; 7971,469;25,11694
 533,63; 2228,289;  271,823; 8017,629;25,25839
 534,22; 2212,401;  254,131; 8068,389;25,06022
 534,80; 2227,965;  275,515; 8161,053;24,75988
 535,38; 2331,591;  382,977; 8275,616;24,68901
 535,97; 2214,120;  261,131; 8119,926;24,85100
 536,55; 2263,507;  314,361; 8266,785;24,51008
 537,13; 2229,655;  321,901; 8224,363;24,14126
 537,71; 2280,355;  377,439; 8315,372;23,97244
 538,30; 2279,076;  392,823; 8351,845;23,69956
 538,88; 2322,595;  438,514; 8493,197;23,39112
 539,46; 2391,699;  510,053; 8658,370;23,09244
 540,05; 2414,878;  523,438; 8782,962;22,90012
 540,63; 2461,653;  574,130; 9045,146;22,28213
 541,21; 2508,045;  610,822; 9188,055;22,11929
 541,79; 2554,406;  666,745; 9299,651;21,86588
 542,38; 2561,733;  689,822; 9500,201;21,24665
 542,96; 2609,830;  700,744; 9627,804;21,38538
 543,54; 2665,680;  731,360; 9816,112;21,29194
 544,12; 2641,095;  697,129;10005,211;20,88471
 544,70; 2677,432;  678,513;10066,612;21,29205
 545,29; 2714,714;  690,207;10210,981;21,26411
 545,87; 2696,021;  666,052;10244,113;21,19395
 546,45; 2658,166;  606,207;10237,768;21,30453
 547,03; 2663,867;  586,207;10303,667;21,38069
 547,62; 2649,824;  549,360;10453,499;21,20794
 548,20; 2686,158;  535,821;10611,091;21,34272
 548,78; 2701,420;  494,743;10742,659;21,53293
 549,36; 2695,169;  445,974;10854,157;21,60987
 549,94; 2706,654;  405,283;11052,098;21,61558
 550,53; 2724,541;  416,051;11273,895;21,26104
 551,11; 2749,218;  376,358;11470,000;21,38937
 551,69; 2787,921;  386,512;11792,695;21,05357
 552,27; 2804,265;  351,282;12020,323;21,02129
 552,85; 2859,863;  344,819;12332,115;20,98091
 553,44; 2903,247;  333,051;12706,532;20,77181
 554,02; 2989,952;  350,358;13001,871;20,86386
 554,60; 2990,121;  282,896;13338,405;20,73627
 555,18; 3078,684;  323,128;13722,061;20,56549
 555,76; 3137,194;  307,666;14026,920;20,62451
 556,34; 3197,759;  318,357;14498,326;20,30612
 556,93; 3235,570;  287,512;14882,081;20,19969
 557,51; 3304,445;  271,819;15183,769;20,33689
 558,09; 3362,612;  309,358;15548,014;20,03624
 558,67; 3445,091;  300,972;15923,621;20,12539
 559,25; 3487,482;  314,049;16218,733;19,95282
 559,83; 3549,923;  296,818;16591,194;19,96459
 560,41; 3585,799;  285,511;16922,593;19,83694
 561,00; 3650,115;  296,895;17205,871;19,83100
 561,58; 3673,220;  281,050;17522,650;19,67434
 562,16; 3705,638;  273,281;17819,760;19,56151
 562,74; 3756,987;  260,589;18189,785;19,50114
 563,32; 3814,645;  259,664;18637,540;19,34381
 563,90; 3903,718;  288,434;18989,054;19,33243
 564,48; 3956,685;  290,973;19364,475;19,21887
 565,06; 4062,431;  281,126;19958,572;19,21644
 565,65; 4148,812;  280,356;20632,309;19,00779
 566,23; 4314,688;  341,972;21336,093;18,92299
 566,81; 4367,051;  281,434;22055,848;18,76338
 567,39; 4523,694;  291,664;23002,321;18,63456
 567,97; 4603,113;  311,049;23678,206;18,36793
 568,55; 4792,090;  339,818;24434,847;18,47797
 569,13; 4863,759;  281,818;25069,074;18,48507
 569,71; 5022,360;  281,358;26085,798;18,37282
 570,29; 5254,281;  326,204;27063,302;18,43161
 570,87; 5296,659;  316,743;27807,498;18,11488
 571,45; 5401,998;  305,203;28474,313;18,09356
 572,03; 5434,815;  277,664;28836,535;18,05797
 572,61; 5540,262;  279,510;29561,683;17,96572
 573,20; 5659,000;  292,588;30245,769;17,91600
 573,78; 5751,580;  289,664;30881,434;17,85420
 574,36; 5847,224;  314,280;31421,652;17,78660
 574,94; 5915,243;  377,356;31802,825;17,62229
 575,52; 5896,364;  295,432;31999,463;17,66631
 576,10; 5992,520;  368,509;32545,843;17,47818
 576,68; 6042,472;  349,048;33138,621;17,36352
 577,26; 6203,485;  369,354;33842,430;17,42932
 577,84; 6224,838;  378,895;34248,971;17,25990
 578,42; 6319,510;  436,740;34628,338;17,20531
 579,00; 6205,438;  374,279;34789,559;16,94352
 579,58; 6300,764;  428,202;34975,220;16,99875
 580,16; 6221,365;  386,586;35009,177;16,85252
 580,74; 6266,452;  395,278;35250,466;16,84447
 581,32; 6210,714;  384,740;35391,202;16,64257
 581,90; 6263,614;  417,894;35264,013;16,77581
 582,48; 6209,069;  408,048;35421,148;16,56814
 583,06; 6194,307;  394,894;35675,788;16,43783
 583,64; 6192,912;  405,894;35627,498;16,43031
 584,22; 6126,697;  425,893;35538,071;16,23597
 584,80; 6123,119;  431,817;35319,012;16,31344
 585,38; 5985,654;  438,819;34950,201;16,07248
 585,96; 5969,754;  416,202;35033,782;16,04258
 586,54; 5970,245;  431,739;34991,069;16,02608
 587,12; 5894,868;  384,355;35135,247;15,85718
 587,70; 5946,072;  423,895;35393,764;15,79125
 588,28; 5889,283;  401,817;35422,824;15,66907
 588,86; 5903,255;  402,740;35502,913;15,67091
 589,44; 5863,546;  379,739;35698,398;15,52666
 590,02; 5834,664;  381,047;35790,731;15,40149
 590,59; 5841,187;  363,355;36071,982;15,34036
 591,17; 5833,299;  366,661;36343,113;15,19504
 591,75; 5833,786;  351,123;36396,451;15,21047
 592,33; 5864,780;  368,123;36635,745;15,15582
 592,91; 5822,517;  322,661;36802,773;15,07631
 593,49; 5842,879;  323,045;37090,183;15,01296
 594,07; 5903,205;  342,430;37386,404;15,01128
 594,65; 5863,829;  358,739;37316,426;14,89566
 595,23; 5876,044;  345,893;37877,163;14,73478
 595,81; 5830,198;  324,354;37980,455;14,62139
 596,39; 5820,108;  326,969;38049,494;14,56196
 596,97; 5818,802;  321,123;38336,446;14,46174
 597,55; 5837,752;  329,124;38165,795;14,55897
 598,12; 5747,341;  294,506;38053,860;14,44102
 598,70; 5735,135;  308,815;38368,362;14,25745
 599,28; 5768,247;  326,584;38480,814;14,26228
 599,86; 5729,941;  321,584;38551,727;14,14684
 600,44; 5671,065;  285,891;38621,596;14,04741
 601,02; 5743,346;  338,583;38714,775;14,08364
 601,60; 5682,383;  314,584;38670,846;13,99458
 602,18; 5659,739;  278,045;38689,897;14,01050
 602,75; 5652,496;  286,662;38786,473;13,93730
 603,33; 5643,809;  301,122;38832,526;13,86580
 603,91; 5643,001;  297,737;38795,365;13,88466
 604,49; 5630,760;  317,815;38813,498;13,80141
 605,07; 5634,816;  328,969;38843,643;13,77617
 605,65; 5607,080;  340,968;38932,761;13,64568
 606,23; 5606,544;  404,893;39179,461;13,41511
 606,80; 5588,703;  462,046;39158,915;13,24825
 607,38; 5623,123;  518,583;39228,969;13,18649
 607,96; 5666,721;  579,970;39333,597;13,12587
 608,54; 5652,287;  661,660;39410,510;12,87942
 609,12; 5633,969;  667,816;39470,598;12,79845
 609,70; 5641,770;  706,661;39567,803;12,69934
 610,27; 5584,357;  705,124;39535,885;12,56538
 610,85; 5611,345;  746,199;39623,322;12,51416
 611,43; 5602,354;  731,892;39526,545;12,55447
 612,01; 5494,274;  695,354;39265,911;12,44193
 612,59; 5520,604;  685,122;39413,678;12,48557
 613,16; 5462,105;  650,970;39404,399;12,41473
 613,74; 5404,305;  622,045;39147,055;12,41339
 614,32; 5374,073;  570,430;39181,665;12,44105
 614,90; 5336,126;  510,661;38991,155;12,54003
 615,48; 5234,303;  453,816;38684,228;12,50441
 616,05; 5162,617;  409,355;38686,801;12,41792
 616,63; 5158,315;  432,817;38503,836;12,41232
 617,21; 5125,114;  414,277;38347,683;12,41870
 617,79; 5092,001;  401,277;38316,994;12,37145
 618,36; 5046,331;  396,200;38153,470;12,31586
 618,94; 4954,579;  349,124;37891,123;12,26747
 619,52; 4929,023;  366,201;37661,924;12,23417
 620,10; 4901,951;  347,662;37667,762;12,20331
 620,67; 4902,966;  350,970;37468,134;12,26386
 621,25; 4870,448;  389,354;37329,951;12,13054
 621,83; 4847,206;  360,662;37274,710;12,15403
 622,41; 4855,935;  416,278;37299,613;12,03703
 622,98; 4760,180;  375,970;37073,364;11,94692
 623,56; 4722,525;  374,278;37008,718;11,86929
 624,14; 4703,815;  358,507;36823,868;11,91626
 624,72; 4693,313;  345,816;36709,748;11,95552
 625,29; 4683,407;  334,201;36910,709;11,89071
 625,87; 4716,178;  380,662;36708,475;11,93443
 626,45; 4648,789;  319,971;36631,889;11,92121
 627,02; 4604,946;  333,200;36559,101;11,79197
 627,60; 4595,006;  313,430;36456,278;11,84626
 628,18; 4587,815;  314,893;36567,752;11,78644
 628,76; 4561,113;  309,586;36546,500;11,73259
 629,33; 4559,909;  346,970;36579,543;11,62749
 629,91; 4549,874;  322,662;36589,377;11,65590
 630,49; 4566,404;  337,047;36732,868;11,62045
 631,06; 4568,365;  324,201;36869,914;11,61330
 631,64; 4523,646;  325,663;36682,871;11,54649
 632,22; 4493,264;  291,125;36696,558;11,54261
 632,79; 4509,991;  325,048;37006,933;11,40875
 633,37; 4547,421;  292,815;37049,584;11,57503
 633,95; 4536,092;  299,509;37105,321;11,51064
 634,52; 4499,177;  287,354;37261,738;11,39119
 635,10; 4505,663;  300,893;37214,434;11,39086
 635,68; 4536,352;  297,586;37462,222;11,40537
 636,25; 4485,483;  269,049;37444,839;11,34188
 636,83; 4476,344;  264,586;37635,807;11,27006
 637,41; 4520,693;  285,279;37583,008;11,35569
 637,98; 4528,630;  311,510;37886,738;11,22314
 638,56; 4520,677;  285,587;37996,721;11,23034
 639,13; 4491,459;  268,509;38017,931;11,18679
 639,71; 4588,193;  341,663;38202,232;11,21624
 640,29; 4410,432;  248,047;37942,112;11,04255
 640,86; 4503,423;  265,586;38203,469;11,17046
 641,44; 4465,645;  264,739;38142,057;11,09082
 642,02; 4502,175;  294,970;38180,337;11,10509
 642,59; 4478,243;  257,355;38337,924;11,08410
 643,17; 4427,927;  267,970;38411,666;10,90601
 643,74; 4465,457;  264,355;38386,177;11,02020
 644,32; 4462,525;  298,124;38230,688;10,97843
 644,89; 4478,670;  290,893;38330,737;11,00892
 645,47; 4478,123;  295,970;38275,248;11,01167
 646,05; 4455,421;  301,047;38199,144;10,96196
 646,62; 4382,336;  267,970;38176,962;10,85327
 647,20; 4443,019;  280,970;38458,243;10,90190
 647,77; 4381,088;  258,739;38227,215;10,85729
 648,35; 4375,310;  249,047;38133,264;10,89177
 648,92; 4384,147;  280,970;38176,083;10,82772
 649,50; 4342,138;  245,124;38084,748;10,82731
 650,08; 4315,514;  248,508;37951,028;10,78709
 650,65; 4353,274;  257,277;38129,693;10,81525
 651,23; 4410,112;  235,508;38845,896;10,81213
 651,80; 4560,103;  241,893;39880,099;10,89406
 652,38; 4605,556;  255,431;40266,764;10,87223
 652,95; 4571,086;  238,047;40564,198;10,74499
 653,53; 4653,385;  264,047;40893,632;10,80331
 654,10; 4689,068;  294,508;41011,527;10,79293
 654,68; 4611,982;  231,123;40936,115;10,76246
 655,25; 4618,820;  240,123;40927,549;10,76179
 655,83; 4624,811;  238,816;41064,983;10,74310
 656,40; 4636,648;  277,431;41097,956;10,67898
 656,98; 4627,717;  246,816;41053,774;10,73567
 657,55; 4610,708;  245,892;40850,823;10,74947
 658,13; 4559,468;  247,354;40513,257;10,70910
 658,70; 4510,075;  268,354;40338,307;10,58579
 659,28; 4422,297;  237,277;39441,279;10,67498
 659,85; 4370,980;  275,815;38656,944;10,66974
 660,43; 4313,972;  274,354;38613,840;10,53644
 661,00; 4330,271;  255,738;38758,350;10,58248
 661,58; 4378,647;  255,431;39162,015;10,59773
 662,15; 4334,945;  242,123;39258,449;10,49003
 662,73; 4472,321;  317,815;39676,499;10,55550
 663,30; 4472,236;  258,200;39816,317;10,65277
 663,88; 4467,304;  261,354;39932,290;10,60209
 664,45; 4516,141;  244,969;40214,493;10,68607
 665,03; 4524,825;  252,969;40498,465;10,61449
 665,60; 4667,739;  345,661;40980,438;10,63640
 666,17; 4617,807;  254,661;41057,026;10,69337
 666,75; 4623,798;  250,661;41476,844;10,60767
 667,32; 4736,020;  273,584;41833,355;10,73739
 667,90; 4723,242;  259,815;42040,558;10,68298
 668,47; 4766,541;  275,584;42304,992;10,68527
 669,05; 4803,533;  252,353;42670,888;10,72922
 669,62; 4756,755;  224,892;42792,476;10,64628
 670,19; 4809,977;  230,199;42808,679;10,75608
 670,77; 4818,660;  251,661;43089,651;10,66110
 671,34; 4855,344;  231,430;42909,470;10,83441
 671,92; 4878,181;  232,661;43328,288;10,77956
 672,49; 4892,326;  266,199;43277,492;10,75561
 673,06; 4899,394;  217,276;43393,310;10,84425
 673,64; 4898,616;  226,045;43290,667;10,85014
 674,21; 4875,608;  230,738;43272,332;10,79158
 674,79; 4983,137;  246,276;43567,689;10,93423
 675,36; 4962,129;  247,507;43671,508;10,85718
 675,93; 4954,197;  223,584;43539,480;10,92119
 676,51; 4975,650;  254,353;43741,607;10,85674
 677,08; 4987,641;  256,891;43814,964;10,86079
 677,65; 5019,555;  245,430;43940,474;10,92601
 678,23; 5077,008;  248,353;44134,601;11,00266
 678,80; 5042,307;  247,891;44335,881;10,87465
 679,38; 5083,990;  236,968;44460,161;10,96036
 679,95; 5176,135;  251,507;44698,210;11,07985
 680,52; 5167,511;  232,737;45020,337;11,01817
 681,10; 5260,579;  253,891;45252,309;11,12637
 681,67; 5255,571;  251,891;45654,743;11,02063
 682,24; 5247,485;  223,583;45647,100;11,06013
 682,82; 5312,092;  228,199;46216,534;11,05474
 683,39; 5434,006;  284,430;46554,353;11,12943
 683,96; 5446,151;  251,353;46749,633;11,17202
 684,54; 5462,450;  216,660;47143,605;11,17863
 685,11; 5567,057;  285,199;47620,578;11,15837
 685,68; 5576,740;  237,276;47943,627;11,19236
 686,25; 5637,039;  220,199;47977,523;11,34243
 686,83; 5645,184;  242,891;48173,649;11,27104
 687,40; 5689,714;  232,737;48641,775;11,27264
 687,97; 5774,167;  292,275;49037,902;11,24591
 688,55; 5761,619;  228,275;49002,028;11,34492
 689,12; 5784,688;  205,045;49250,462;11,37648
 689,69; 5851,294;  223,583;49361,819;11,45281
 690,26; 5878,285;  226,814;49423,484;11,48751
 690,84; 5907,277;  232,198;49572,841;11,50183
 691,41; 5926,345;  252,737;49630,121;11,49030
 691,98; 5967,413;  247,275;50012,093;11,49434
 692,56; 5993,712;  248,583;50084,912;11,52799
 693,13; 6087,088;  283,660;50120,038;11,64496
 693,70; 6095,156;  256,660;50346,934;11,65595
 694,27; 6080,224;  229,660;50424,214;11,65578
 694,84; 6106,677;  227,352;50553,186;11,68252
 695,42; 6174,591;  287,890;50713,082;11,67413
 695,99; 6227,582;  250,583;50970,593;11,78430
 696,56; 6221,266;  240,429;50747,796;11,84151
 697,13; 6317,334;  256,967;51118,768;11,91536
 697,71; 6313,172;  234,967;51101,895;11,94923
 698,28; 6323,547;  229,506;51511,175;11,88347
 698,85; 6360,231;  203,890;51588,301;11,98095
 699,42; 6392,299;  199,121;51639,581;12,03951
 699,99; 6484,598;  261,659;51835,861;12,06599
 700,57; 6480,820;  243,813;51785,603;12,10087
 701,14; 6514,196;  234,198;52064,191;12,11653
 701,71; 6590,956;  256,967;52276,010;12,17629
 702,28; 6559,948;  236,429;52196,597;12,16994
 702,85; 6614,170;  240,736;52263,031;12,25135
 703,43; 6658,315;  263,044;52545,312;12,23220
 704,00; 6713,152;  275,813;52840,130;12,24660
 704,57; 6717,451;  255,275;52740,564;12,31236
 705,14; 6782,827;  278,121;53119,383;12,30990
 705,71; 6819,510;  291,736;53002,124;12,38423
 706,28; 6780,271;  261,736;52995,174;12,36129
 706,86; 6900,954;  292,967;53308,531;12,46424
 707,43; 6883,023;  323,582;53181,734;12,40952
 708,00; 6908,937;  294,813;53179,783;12,50662
 708,57; 6902,313;  256,659;53074,602;12,58219
 709,14; 6946,073;  288,659;53306,498;12,55693
 709,71; 6953,680;  266,967;53299,701;12,60865
 710,28; 7031,363;  270,428;53487,596;12,70443
 710,86; 7040,893;  275,120;53725,492;12,65805
 711,43; 7122,807;  299,736;53655,618;12,78785
 712,00; 7107,414;  262,197;53721,283;12,80459
 712,57; 7195,559;  284,351;53918,563;12,88582
 713,14; 7220,550;  250,582;54055,766;12,95408
 713,71; 7207,311;  270,197;53948,123;12,92359
 714,28; 7242,148;  246,274;53911,019;13,03626
 714,85; 7225,447;  249,428;53726,607;13,04485
 715,42; 7315,131;  247,812;53999,810;13,14801
 716,00; 7375,353;  318,582;54123,167;13,11556
 716,57; 7369,421;  254,966;54213,985;13,18492
 717,14; 7346,797;  236,120;54124,573;13,19518
 717,71; 7408,711;  231,274;54153,853;13,31063
 718,28; 7511,702;  275,043;54303,595;13,39414
 718,85; 7463,309;  225,120;54290,029;13,38796
 719,42; 7541,454;  257,043;54456,078;13,44011
 719,99; 7472,753;  228,966;54163,436;13,43072
 720,56; 7602,898;  258,658;54601,023;13,51476
 721,13; 7575,505;  228,812;54648,765;13,50000
 721,70; 7599,419;  224,351;54471,122;13,59541
 722,27; 7660,256;  254,197;54491,018;13,65504
 722,84; 7745,709;  324,427;54774,221;13,62959
 723,41; 7715,085;  234,504;54597,424;13,76045
 723,98; 7789,922;  240,197;54852,473;13,82423
 724,55; 7855,683;  255,350;55039,292;13,87329
 725,12; 7822,674;  207,735;54881,726;13,92790
 725,69; 7912,742;  226,889;55244,006;13,96993
 726,27; 7908,041;  228,966;55288,363;13,94689
 726,84; 7972,186;  239,196;55550,413;13,98087
 727,41; 8047,639;  263,658;55550,154;14,07935
 727,98; 8070,169;  253,043;55782,819;14,07736
 728,55; 8149,160;  285,119;55635,253;14,20781
 729,12; 8145,844;  223,427;55924,918;14,22299
 729,69; 8267,143;  264,966;55950,583;14,37028
 730,26; 8297,518;  258,119;56249,247;14,35834
 730,82; 8277,125;  253,042;56026,604;14,38689
 731,39; 8350,655;  240,735;56137,654;14,50871
 731,96; 8425,108;  224,735;56472,857;14,57893
 732,53; 8490,253;  246,119;56736,291;14,59393
 733,10; 8515,475;  260,504;56820,956;14,59495
 733,67; 8610,620;  248,273;56947,851;14,74852
 734,24; 8572,534;  239,581;56591,285;14,78740
 734,81; 8614,218;  268,811;56683,411;14,79299
 735,38; 8651,286;  244,581;56442,692;14,95905
 735,95; 8606,969;  236,965;56367,203;14,91176
 736,52; 8719,653;  248,042;56606,483;15,03166
 737,09; 8674,798;  254,657;56186,840;15,05420
 737,66; 8834,789;  324,196;56445,120;15,16474
 738,23; 8745,627;  242,888;56470,169;15,12209
 738,80; 8964,464;  321,503;56799,065;15,30335
 739,37; 8944,301;  275,965;56994,499;15,28308
 739,94; 8958,369;  247,580;56972,240;15,35627
 740,51; 9123,822;  392,273;57077,751;15,40350
 741,07; 9048,429;  249,350;56955,801;15,51689
 741,64; 9098,651;  287,349;57183,235;15,48671
 742,21; 9166,719;  263,965;57294,976;15,61037
 742,78; 9088,787;  234,273;57027,641;15,59075
 743,35; 9180,240;  253,965;57277,152;15,65376
 743,92; 9308,077;  298,426;57446,663;15,76541
 744,49; 9350,684;  291,580;57263,174;15,90109
 745,06; 9276,906;  245,119;57414,146;15,79839
 745,63; 9330,513;  234,734;57405,273;15,90991
 746,19; 9395,889;  256,657;57336,168;16,01140
 746,76; 9398,111;  247,503;57463,679;15,99304
 747,33; 9459,256;  246,965;57425,113;16,11156
 747,90; 9557,862;  271,272;57588,239;16,20217
 748,47; 9593,700;  271,118;57525,135;16,28284
 749,04; 9610,306;  267,118;57555,492;16,30905
 749,61; 9620,759;  284,426;57566,234;16,29895
 750,17; 9711,289;  287,272;57659,360;16,42614
 750,74; 9715,665;  273,195;57362,794;16,53974
 751,31; 9623,425;  249,811;57369,459;16,41049
 751,88; 9716,262;  226,887;57272,893;16,63460
 752,45; 9797,715;  254,272;57446,634;16,68657
 753,02; 9798,399;  272,657;57291,991;16,70616
 753,58; 9808,621;  244,657;57051,195;16,83603
 754,15; 9854,689;  251,657;57378,090;16,81014
 754,72; 9837,834;  248,964;57092,601;16,86885
 755,29; 9802,595;  224,810;56863,496;16,91032
 755,86; 9867,740;  250,349;57029,546;16,93823
 756,42; 9940,192;  260,195;56920,057;17,08440
 756,99; 9916,799;  226,426;56948,029;17,08410
 757,56; 9965,329;  235,964;56885,002;17,17481
 758,13; 9945,012;  196,349;56812,436;17,21889
 758,70;10060,157;  226,810;56848,947;17,36661
 759,26;10054,995;  222,579;56970,227;17,32656
 759,83;10100,140;  229,810;57070,045;17,36504
 760,40;10084,977;  212,041;56890,710;17,41914
 760,97;10092,661;  211,348;56921,606;17,42421
 761,53;10117,114;  192,195;56504,809;17,62468
 762,10;10140,874;  191,656;56563,935;17,64913
 762,67;10182,250;  223,271;56603,061;17,66409
 763,24;10162,549;  183,810;56051,341;17,86143
 763,80;10193,463;  223,425;56241,237;17,79798
 764,37;10182,916;  211,964;56300,748;17,77709
 764,94;10167,292;  196,656;55696,720;17,96509
 765,50;10118,283;  204,271;55714,924;17,85966
 766,07;10297,120;  246,733;55810,819;18,08792
 766,64;10247,189;  216,194;55484,253;18,14971
 767,21;10212,334;  214,656;55393,687;18,11862
 767,77;10248,940;  232,656;55221,660;18,21507
 768,34;10295,624;  244,579;55194,170;18,29139
 768,91;10314,384;  245,271;55060,912;18,36905
 769,47;10282,760;  243,348;55117,500;18,29534
 770,04;10315,905;  244,579;54956,088;18,40806
 770,61;10297,820;  223,733;54728,368;18,48299
 771,18;10207,965;  212,271;54628,725;18,36888
 771,74;10306,956;  238,040;54811,467;18,45022
 772,31;10307,716;  245,040;54589,054;18,51662
 772,88;10249,938;  213,425;54299,181;18,55667
 773,44;10213,776;  223,425;54185,999;18,51348
 774,01;10315,152;  236,886;54236,741;18,66350
 774,58;10297,220;  227,655;53946,098;18,74508
 775,14;10349,134;  212,271;54039,532;18,83221
 775,71;10391,356;  223,809;53986,428;18,91193
 776,27;10470,424;  276,578;53841,169;19,03094
 776,84;10581,492;  328,425;53956,142;19,11897
 777,41;10532,868;  240,117;53691,191;19,25640
 777,97;10503,783;  220,886;53428,394;19,32603
 778,54;10527,235;  248,194;53390,290;19,34256
 779,11;10570,688;  270,194;53495,262;19,35271
 779,67;10490,602;  222,117;53410,004;19,30606
 780,24;10546,440;  232,578;53165,592;19,48474
 780,80;10586,970;  250,117;53200,026;19,52195
 781,37;10642,345;  253,270;53104,844;19,65708
 781,94;10641,106;  245,193;52835,740;19,76764
 782,50;10670,405;  242,193;52840,405;19,82617
 783,07;10677,934;  257,424;52875,762;19,80395
 783,63;10679,926;  237,116;52575,350;19,95254
 784,20;10665,071;  265,963;52647,322;19,85269
 784,77;10672,601;  245,809;52351,525;20,01084
 785,33;10611,976;  220,886;52246,036;19,97321
 785,90;10676,891;  240,193;52147,162;20,10654
 786,46;10684,651;  261,732;52029,519;20,13399
 787,03;10679,489;  234,116;51986,569;20,18334
 787,59;10707,018;  236,270;51863,772;20,28134
 788,16;10752,394;  248,962;51771,283;20,38618
 788,73;10782,539;  251,885;51533,102;20,53511
 789,29;10758,377;  234,962;51263,689;20,62253
 789,86;10810,368;  268,962;51160,585;20,71344
 790,42;10760,436;  232,039;51047,942;20,71870
 790,99;10749,504;  244,424;50660,991;20,83656
 791,55;10790,418;  235,193;50632,425;20,94406
 792,12;10836,564;  272,347;50627,167;20,97955
 792,68;10759,632;  240,270;50357,293;20,98960
 793,25;10788,008;  248,270;50088,727;21,14695
 793,81;10839,383;  337,808;49829,546;21,21885
 794,38;10698,221;  217,731;49614,211;21,21708
 794,94;10749,520;  231,962;49474,260;21,35879
 795,51;10727,588;  253,885;49144,463;21,42274
 796,07;10679,810;  242,116;48961,897;21,42393
 796,64;10737,724;  265,808;49067,024;21,45831
 797,20;10693,639;  253,654;48505,073;21,63664
 797,77;10575,553;  215,808;48153,353;21,61092
 798,33;10568,775;  239,962;48140,479;21,56305
 798,90;10613,689;  260,269;47978,913;21,69680
 799,46;10491,373;  236,808;47545,578;21,67582
 800,03;10540,364;  254,423;47523,627;21,76034
 800,59;10537,894;  249,423;47206,292;21,91047
 801,15;10503,270;  257,039;47071,342;21,88697
 801,72;10449,953;  258,577;46631,929;21,97679
 802,28;10410,637;  279,115;46404,979;21,96495
 802,85;10353,859;  239,423;46243,413;21,98600
 803,41;10313,465;  249,346;46031,231;21,98275
 803,98;10311,226;  239,500;45572,511;22,21720
 804,54;10263,063;  244,192;45372,792;22,20071
 805,11;10246,977;  259,423;45161,226;22,24310
 805,67;10225,584;  272,500;45023,967;22,24080
 806,23;10159,960;  254,269;44521,401;22,37708
 806,80;10180,874;  275,192;44444,528;22,42660
 807,36;10158,942;  278,346;44432,346;22,37758
 807,93;10129,549;  288,577;44183,242;22,41952
 808,49;10043,156;  244,269;43786,291;22,50444
 809,05;10035,993;  231,423;43577,648;22,61920
 809,62;10044,984;  268,577;43471,005;22,62930
 810,18;10042,899;  255,730;43466,285;22,64995
 810,74; 9997,198;  226,807;43140,412;22,76758
 811,31; 9999,804;  230,807;43011,999;22,83479
 811,87;10010,257;  256,115;42790,357;22,93245
 812,44;10037,479;  286,807;42823,867;22,92277
 813,00; 9948,778;  201,499;42559,148;23,01185
 813,56;10042,231;  244,115;42621,812;23,12093
 814,13;10004,299;  239,576;42495,708;23,10842
 814,69; 9995,521;  239,730;42243,603;23,22593
 815,25; 9917,435;  208,115;41902,037;23,28714
 815,82;10000,888;  260,345;41795,087;23,45155
 816,38;10014,495;  295,038;41620,982;23,51902
 816,94; 9875,794;  229,576;41280,955;23,49791
 817,51; 9906,323;  219,961;41041,081;23,72880
 818,07; 9818,622;  230,268;40799,746;23,63440
 818,63; 9865,383;  236,884;40584,410;23,86391
 819,20; 9896,143;  239,961;40555,537;23,95149
 819,76; 9800,904;  228,345;40167,509;23,96785
 820,32; 9825,049;  270,191;40100,482;23,98892
 820,89; 9779,809;  253,884;39798,685;24,08895
 821,45; 9727,570;  228,961;39533,427;24,16674
 822,01; 9748,022;  244,961;39248,014;24,36492
 822,57; 9740,398;  255,037;39209,295;24,35000
 823,14; 9673,159;  212,807;38894,959;24,45663
 823,70; 9635,765;  218,422;38650,086;24,50413
 824,26; 9656,064;  229,499;38514,673;24,62197
 824,82; 9677,209;  259,422;38380,338;24,70504
 825,39; 9608,278;  229,037;38013,541;24,82298
 825,95; 9631,500;  249,576;38114,745;24,77719
 826,51; 9549,952;  242,653;37663,409;24,87202
 827,08; 9615,790;  281,191;37770,459;24,89939
 827,64; 9612,166;  247,729;37523,277;25,12220
 828,20; 9505,772;  230,037;37271,634;25,04140
 828,76; 9581,917;  265,652;37345,145;25,12511
 829,32; 9562,908;  274,268;37065,579;25,24683
 829,89; 9513,900;  208,268;36921,090;25,34709
 830,45; 9549,737;  248,037;36847,524;25,41484
 831,01; 9554,190;  238,114;36699,112;25,55080
 831,57; 9483,412;  239,575;36600,392;25,42252
 832,14; 9505,634;  244,268;36474,595;25,56247
 832,70; 9492,471;  216,883;36269,337;25,72804
 833,26; 9470,693;  201,806;36224,694;25,73055
 833,82; 9518,069;  233,421;36114,205;25,87638
 834,38; 9529,368;  217,421;36174,101;25,89768
 834,95; 9502,744;  218,729;36036,535;25,92011
 835,51; 9510,889;  192,498;35837,584;26,14215
 836,07; 9547,111;  231,344;35939,172;26,08886
 836,63; 9579,872;  247,883;35878,298;26,19107
 837,19; 9549,709;  252,806;35736,886;26,20021
 837,75; 9501,162;  200,652;35462,012;26,37592
 838,32; 9533,230;  258,113;35601,369;26,24296
 838,88; 9542,760;  256,037;35604,495;26,27193
 839,44; 9544,366;  248,806;35466,314;26,39471
 840,00; 9547,742;  251,113;35435,440;26,42264
 840,56; 9519,118;  226,190;35080,797;26,66198
 841,12; 9452,417;  222,652;35015,385;26,52785
 841,68; 9453,254;  209,806;34833,896;26,69658
 842,25; 9478,707;  228,729;34901,484;26,67794
 842,81; 9441,237;  211,344;34620,072;26,82428
 843,37; 9456,305;  201,421;34701,506;26,82568
 843,93; 9451,527;  220,729;34458,478;26,96088
 844,49; 9509,364;  238,267;34559,143;27,01300
 845,05; 9407,971;  202,190;34365,500;26,94640
 845,61; 9490,731;  245,036;34503,857;26,98778
 846,17; 9442,723;  221,498;34338,214;27,02847
 846,73; 9511,868;  232,575;34276,264;27,25701
 847,29; 9474,628;  211,882;34110,851;27,32457
 847,86; 9484,850;  216,805;33952,055;27,47288
 848,42; 9429,841;  219,190;33779,566;27,44502
 848,98; 9454,679;  236,267;33691,307;27,55463
 849,54; 9463,516;  214,190;33850,203;27,49828
 850,10; 9492,815;  242,728;33689,714;27,65597
 850,66; 9403,729;  210,574;33424,686;27,67846
 851,22; 9423,951;  199,574;33423,812;27,76400
 851,78; 9495,558;  256,959;33446,939;27,83551
 852,34; 9449,395;  240,728;33199,757;27,93974
 852,90; 9397,310;  224,805;33124,268;27,88041
 853,46; 9386,147;  218,805;32893,779;28,05616
 854,02; 9392,908;  234,113;32900,213;28,03761
 854,58; 9389,360;  218,113;32651,801;28,27692
 855,14; 9441,890;  224,113;32503,927;28,55586
 855,70; 9341,881;  186,728;32436,823;28,38799
 856,26; 9401,565;  225,728;32374,795;28,54153
 856,82; 9431,556;  230,805;32171,306;28,80591
 857,38; 9444,701;  268,189;32077,740;28,84829
 857,94; 9374,769;  221,420;31949,559;28,84931
 858,50; 9420,222;  250,035;31825,531;29,04210
 859,06; 9348,060;  217,959;31667,196;29,03123
 859,62; 9367,512;  238,420;31613,399;29,09673
 860,18; 9309,350;  231,189;31378,064;29,14630
 860,74; 9197,418;  191,266;31234,882;29,01128
 861,30; 9184,640;  193,497;31190,163;29,00681
 861,86; 9322,862;  286,805;31166,597;29,26204
 862,42; 9179,853;  218,497;30958,415;29,15218
 862,98; 9239,383;  251,881;30923,618;29,30223
 863,54; 9130,528;  221,574;30667,822;29,26126
 864,10; 9133,519;  221,958;30784,179;29,15875
 864,66; 9028,357;  201,112;30474,613;29,15832
 865,22; 9021,809;  225,420;30385,508;29,16566
 865,78; 9027,724;  237,112;30299,865;29,24087
 866,34; 9028,100;  208,958;30246,992;29,35992
 866,90; 8951,322;  232,112;30103,272;29,18939
 867,45; 8958,313;  233,958;29852,475;29,45574
 868,01; 8958,381;  236,343;29685,986;29,61679
 868,57; 8884,141;  229,650;29551,727;29,51527
 869,13; 8871,825;  201,650;29420,085;29,67365
 869,69; 8929,047;  217,189;29280,826;29,97511
 870,25; 8897,038;  191,112;29178,491;30,03351
 870,81; 8945,337;  218,342;29103,156;30,21309
 871,37; 8940,251;  240,112;28996,359;30,25478
 871,93; 8955,397;  247,189;28885,178;30,40789
 872,49; 8947,542;  273,804;28570,919;30,65237
 873,04; 8869,071;  203,958;28394,045;30,73816
 873,60; 8857,370;  206,188;28346,941;30,74254
 874,16; 8824,746;  237,650;28232,375;30,67398
 874,72; 8847,362;  217,727;28196,144;30,84390
 875,28; 8844,438;  229,958;28072,067;30,94047
 875,84; 8822,900;  224,804;27981,837;30,97628
 876,40; 8819,669;  216,727;27949,144;31,02125
 876,95; 8823,131;  229,265;27904,990;31,05200
 877,51; 8879,746;  263,265;27900,606;31,17695
 878,07; 8908,054;  266,265;27896,606;31,27645
 878,63; 8894,208;  220,342;27927,913;31,30504
 879,19; 8922,131;  243,342;27907,606;31,37184
 879,75; 8967,054;  222,419;27940,606;31,54836
 880,30; 8975,515;  215,112;27936,990;31,60105
 880,86; 9069,285;  263,727;28103,990;31,62886
 881,42; 9081,054;  203,881;28077,298;31,84817
 881,98; 9091,438;  237,188;28188,221;31,67772
 882,54; 9184,592;  221,804;28279,067;31,94463
 883,09; 9213,515;  239,342;28396,452;31,87178
 883,65; 9254,438;  213,419;28461,221;32,00610
 884,21; 9371,746;  267,804;28696,221;32,02409
 884,77; 9389,900;  219,958;28725,298;32,16921
 885,32; 9477,285;  222,342;28812,298;32,37131
 885,88; 9557,054;  270,265;29006,837;32,31697
 886,44; 9633,977;  228,342;29103,760;32,57316
 887,00; 9643,131;  249,650;29041,913;32,62502
 887,56; 9675,977;  223,650;29237,067;32,57916
 888,11; 9705,131;  237,804;29266,298;32,61391
 888,67; 9806,362;  250,265;29413,375;32,76775
 889,23; 9805,977;  233,188;29495,913;32,71325
 889,79; 9807,208;  210,958;29259,760;33,03493
 890,34; 9851,977;  237,112;29289,837;33,09454
 890,90; 9985,438;  312,342;29409,760;33,24383
 891,46; 9864,900;  218,881;29309,990;33,15796
 892,01; 9848,131;  244,035;29297,144;33,05703
 892,57; 9873,515;  262,496;29222,990;33,18665
 893,13; 9828,285;  246,573;29041,221;33,27602
 893,69; 9833,592;  212,419;29061,990;33,34945
 894,24; 9808,592;  226,727;28902,221;33,41482
 894,80; 9809,977;  221,804;28724,067;33,64004
 895,36; 9746,362;  233,804;28604,144;33,52994
 895,91; 9679,362;  230,881;28422,452;33,51527
 896,47; 9686,900;  250,188;28324,298;33,61357
 897,03; 9641,054;  230,342;28097,067;33,77043
 897,58; 9642,285;  239,112;27986,529;33,88846
 898,14; 9614,592;  238,958;27858,683;33,94543
 898,70; 9504,746;  204,727;27646,683;33,88978
 899,25; 9571,438;  220,112;27692,913;34,03849
 899,81; 9526,362;  243,573;27417,221;34,16099
 900,37; 9464,746;  201,496;27214,144;34,29227
 900,92; 9447,131;  236,958;27294,298;34,03946
 901,48; 9403,438;  221,573;27185,221;34,05276
 902,03; 9367,515;  232,727;26943,375;34,19905
 902,59; 9330,438;  214,881;26881,298;34,18366
 903,15; 9326,746;  237,188;26732,067;34,30685
 903,70; 9248,054;  229,650;26462,144;34,37875
 904,26; 9209,285;  216,342;26371,837;34,38261
 904,82; 9268,900;  218,496;26383,760;34,58939
 905,37; 9202,054;  236,804;26159,606;34,58442
 905,93; 9141,669;  216,112;26090,452;34,49579
 906,48; 9149,900;  240,419;26039,452;34,53417
 907,04; 9143,438;  242,342;25951,221;34,62265
 907,60; 9095,592;  236,188;25645,452;34,86683
 908,15; 9073,900;  218,035;25557,221;34,94929
 908,71; 9047,131;  243,804;25510,452;34,84169
 909,26; 9071,208;  234,419;25440,837;35,05769
 909,82; 9044,823;  237,035;25346,913;35,07699
 910,37; 9028,669;  264,958;25194,298;35,15421
 910,93; 8986,669;  211,958;24943,529;35,47980
 911,48; 8923,362;  219,188;24847,837;35,34166
 912,04; 8926,131;  215,265;24681,529;35,60358
 912,60; 8967,900;  221,573;24733,375;35,68211
 913,15; 8854,515;  221,804;24549,298;35,48541
 913,71; 8858,823;  212,650;24407,144;35,73612
 914,26; 8812,823;  205,112;24294,221;35,73279
 914,82; 8804,438;  234,881;24241,529;35,69660
 915,37; 8761,977;  218,573;24162,606;35,68072
 915,93; 8831,669;  275,573;23994,375;36,07305
 916,48; 8725,208;  218,112;23872,760;35,96374
 917,04; 8758,977;  238,112;23744,067;36,24981
 917,59; 8767,592;  254,881;23735,375;36,25440
 918,15; 8658,438;  187,188;23463,606;36,39413
 918,70; 8671,823;  220,881;23407,452;36,44757
 919,26; 8594,054;  227,881;23336,760;36,20328
 919,81; 8577,362;  204,419;23087,067;36,59079
 920,37; 8597,900;  220,419;23111,067;36,59783
 920,92; 8594,054;  242,727;23051,606;36,61437
 921,48; 8509,515;  210,112;22784,990;36,76389
 922,03; 8490,515;  207,804;22802,375;36,65797
 922,59; 8488,054;  227,650;22563,760;36,98229
 923,14; 8457,362;  218,804;22489,529;36,99277
 923,69; 8468,285;  242,035;22474,375;37,00128
 924,25; 8503,515;  244,650;22413,606;37,25419
 924,80; 8368,362;  223,804;22212,529;37,03970
 925,36; 8365,977;  219,881;22110,760;37,21228
 925,91; 8306,900;  211,573;21957,221;37,22734
 926,47; 8258,362;  209,881;21860,298;37,17471
 927,02; 8324,746;  302,035;21856,913;37,21993
 927,57; 8214,131;  217,188;21696,760;37,23046
 928,13; 8218,592;  210,188;21592,990;37,45255
 928,68; 8187,131;  220,035;21514,375;37,41415
 929,24; 8078,285;  191,727;21244,298;37,46126
 929,79; 8085,977;  214,112;21192,606;37,52350
 930,34; 8035,592;  225,419;21055,375;37,49491
 930,90; 8048,900;  213,727;20958,067;37,77017
 931,45; 8058,208;  221,342;20992,683;37,72922
 932,01; 8005,285;  223,265;20861,683;37,70647
 932,56; 8006,592;  248,035;20724,606;37,88993
 933,11; 8002,977;  251,958;20727,529;37,85496
 933,67; 7888,362;  220,496;20524,913;37,76452
 934,22; 7905,592;  233,881;20393,375;38,05508
 934,77; 7878,669;  252,804;20296,067;38,04702
 935,33; 7828,977;  221,342;20167,221;38,14139
 935,88; 7825,977;  239,650;20108,990;38,18107
 936,43; 7788,438;  217,342;20009,452;38,25310
 936,99; 7810,131;  225,804;19949,529;38,45281
 937,54; 7678,823;  211,881;19729,375;38,25769
 938,09; 7782,362;  230,496;19758,913;38,67116
 938,65; 7710,208;  232,727;19549,837;38,70911
 939,20; 7668,977;  199,573;19499,298;38,70213
 939,75; 7586,362;  213,188;19381,452;38,46552
 940,31; 7565,515;  200,958;19279,221;38,60182
 940,86; 7628,746;  221,727;19287,683;38,84945
 941,41; 7613,592;  315,342;19231,760;38,58157
 941,96; 7531,900;  216,112;19048,452;38,84694
 942,52; 7538,977;  216,650;18962,144;39,06180
 943,07; 7497,285;  199,881;18841,221;39,14635
 943,62; 7482,131;  216,958;18721,683;39,26118
 944,18; 7442,208;  193,419;18682,837;39,20507
 944,73; 7431,131;  220,342;18634,760;39,15839
 945,28; 7326,362;  179,419;18410,452;39,20207
 945,83; 7444,669;  207,727;18356,067;39,87661
 946,39; 7384,131;  213,265;18309,452;39,62639
 946,94; 7400,669;  237,958;18258,144;39,74827
 947,49; 7332,515;  207,804;18111,606;39,79441
 948,04; 7360,438;  261,342;18148,913;39,68731
 948,59; 7315,515;  240,727;17995,606;39,84701
 949,15; 7276,131;  202,650;17898,067;39,97352
 949,70; 7297,823;  214,881;17852,913;40,15721
 950,25; 7255,054;  224,727;17730,452;40,16016
 950,80; 7178,746;  183,112;17598,375;40,16956
 951,36; 7122,362;  181,881;17631,683;39,77398
 951,91; 7181,592;  224,881;17571,375;40,10442
 952,46; 7110,900;  210,573;17321,144;40,32786
 953,01; 7101,669;  229,573;17340,913;40,16106
 953,56; 7045,285;  190,188;17219,760;40,25407
 954,11; 7051,823;  224,419;17161,606;40,31014
 954,67; 7012,131;  209,419;17025,760;40,45298
 955,22; 6952,823;  197,035;16903,067;40,43921
 955,77; 6999,669;  240,419;16948,067;40,45602
 956,32; 6970,823;  276,804;16835,683;40,42556
 956,87; 6905,285;  204,342;16721,144;40,57046
 957,42; 6862,131;  211,265;16624,990;40,52015
 957,98; 6833,131;  211,112;16500,837;40,65151
 958,53; 6867,362;  245,112;16541,990;40,63508
 959,08; 6790,823;  195,958;16369,144;40,77654
 959,63; 6770,054;  218,419;16277,298;40,79758
 960,18; 6759,592;  225,958;16233,375;40,81629
 960,73; 6737,362;  220,496;16162,913;40,87752
 961,28; 6679,823;  192,419;16069,144;40,86110
 961,83; 6708,823;  221,419;16084,990;40,89498
 962,39; 6642,208;  191,881;15888,298;41,09426
 962,94; 6636,977;  244,035;15752,683;41,22179
 963,49; 6603,977;  225,650;15728,683;41,14245
 964,04; 6578,900;  225,881;15720,221;41,00219
 964,59; 6516,515;  182,112;15514,375;41,31421
 965,14; 6509,208;  236,342;15509,913;41,07006
 965,69; 6473,131;  217,804;15353,837;41,32739
 966,24; 6444,515;  202,496;15263,606;41,44462
 966,79; 6429,900;  226,035;15219,375;41,37747
 967,34; 6340,362;  188,112;15061,067;41,36535
 967,89; 6337,285;  205,112;15009,606;41,42102
 968,44; 6337,977;  218,650;14912,298;41,64607
 968,99; 6309,285;  225,650;14862,452;41,56396
 969,55; 6308,362;  219,958;14754,529;41,88912
 970,10; 6243,900;  231,112;14645,529;41,71371
 970,65; 6222,438;  244,650;14603,529;41,63130
 971,20; 6206,131;  209,650;14477,452;42,02806
 971,75; 6150,669;  190,727;14310,221;42,21074
 972,30; 6143,054;  219,496;14272,067;42,15284
 972,85; 6110,746;  213,650;14228,144;42,07855
 973,40; 6066,131;  207,881;14061,606;42,28646
 973,95; 6016,515;  223,496;14010,298;42,01859
 974,50; 6038,900;  256,035;13902,529;42,37620
 975,05; 5931,362;  218,265;13838,837;41,94462
 975,60; 5957,823;  232,265;13767,144;42,30225
 976,15; 5936,438;  203,265;13668,144;42,57872
 976,70; 5897,592;  218,573;13569,913;42,53520
 977,25; 5904,208;  231,188;13530,221;42,65738
 977,80; 5813,362;  212,419;13381,683;42,53041
 978,35; 5817,438;  236,727;13185,606;43,09803
 978,89; 5714,131;  197,112;13128,760;42,66292
 979,44; 5772,208;  227,265;13108,375;43,04709
 979,99; 5680,208;  213,573;12933,606;42,97658
 980,54; 5663,362;  236,342;12832,990;43,08304
 981,09; 5662,977;  237,265;12713,760;43,48747
 981,64; 5620,669;  219,035;12605,913;43,60771
 982,19; 5608,746;  259,112;12582,067;43,41194
 982,74; 5555,362;  235,188;12442,683;43,58120
 983,29; 5461,362;  205,573;12301,606;43,45051
 983,84; 5397,285;  217,342;12210,452;43,19099
 984,39; 5516,823;  310,727;12187,837;43,83302
 984,94; 5356,823;  189,573;12031,529;43,63511
 985,49; 5344,131;  245,188;11977,760;43,45972
 986,03; 5324,900;  238,804;11891,221;43,64842
 986,58; 5281,438;  274,265;11750,606;43,63040
 987,13; 5207,285;  230,573;11627,452;43,66732
 987,68; 5165,977;  235,419;11578,913;43,46595
 988,23; 5131,285;  237,265;11425,837;43,74124
 988,78; 5069,208;  208,958;11294,375;43,84364
 989,33; 5068,746;  233,727;11213,760;44,03465
 989,88; 5043,592;  257,035;11183,760;43,80597
 990,42; 4926,208;  215,265;11048,375;43,48652
 990,97; 4926,900;  226,419;10869,990;44,16263
 991,52; 4912,131;  247,496;10839,375;44,03973
 992,07; 4892,669;  267,342;10761,760;44,07417
 992,62; 4792,823;  230,804;10614,913;43,93270
 993,17; 4786,823;  241,727;10543,298;44,12042
 993,71; 4761,131;  248,112;10428,990;44,32839
 994,26; 4700,669;  221,112;10257,144;44,63475
 994,81; 4670,131;  246,881;10238,529;44,26947
 995,36; 4632,900;  223,035;10079,144;44,74245
 995,91; 4556,900;  238,727;10039,837;44,05800
 996,45; 4521,669;  222,188; 9938,298;44,25105
 997,00; 4463,669;  200,496; 9753,837;44,62495
 997,55; 4462,438;  236,342; 9709,067;44,61331
 998,10; 4441,054;  261,188; 9612,375;44,69877
 998,65; 4411,746;  229,496; 9535,760;44,94016
 999,19; 4360,746;  252,650; 9417,606;44,82396
 999,74; 4287,438;  273,573; 9292,683;44,50401
1000,29; 4265,746;  232,881; 9223,606;44,85584
1000,84; 4221,977;  220,265; 9081,606;45,15921
1001,38; 4190,669;  228,342; 9033,529;44,99992
1001,93; 4168,515;  245,035; 8918,144;45,23730
1002,48; 4062,285;  218,804; 8759,144;45,00384
1003,03; 4088,362;  249,035; 8755,221;45,13570
1003,57; 4042,131;  239,727; 8630,144;45,31841
1004,12; 4049,438;  281,958; 8567,144;45,47249
1004,67; 3971,208;  232,881; 8431,760;45,59559
1005,22; 3929,669;  224,727; 8295,529;45,90550
1005,76; 3827,438;  211,112; 8157,144;45,51110
1006,31; 3866,977;  244,650; 8153,221;45,80255
1006,86; 3766,592;  221,804; 7995,606;45,59916
1007,40; 3755,208;  224,342; 7862,067;46,22928
1007,95; 3704,746;  233,342; 7785,067;45,96836
1008,50; 3678,515;  242,727; 7646,144;46,40814
1009,04; 3617,746;  231,496; 7607,221;45,91074
1009,59; 3574,362;  244,265; 7390,837;46,59712
1010,14; 3507,900;  221,958; 7335,683;46,19158
1010,68; 3461,208;  247,035; 7225,375;46,05928
1011,23; 3428,823;  238,650; 7128,298;46,30386
1011,78; 3414,900;  241,804; 7045,298;46,63921
1012,32; 3378,208;  273,112; 7006,067;46,11788
1012,87; 3374,515;  259,496; 6934,683;46,66565
1013,42; 3291,592;  214,035; 6801,067;46,72146
1013,96; 3342,977;  269,112; 6798,606;47,07662
1014,51; 3249,285;  200,573; 6707,760;46,85145
1015,06; 3225,131;  213,650; 6650,529;46,78480
1015,60; 3331,054;  269,035; 6763,760;47,14625
1016,15; 3277,977;  212,265; 6685,144;47,36241
1016,69; 3315,669;  227,727; 6729,683;47,49251
1017,24; 3305,131;  209,496; 6737,760;47,41896
1017,79; 3355,900;  268,727; 6799,298;47,27264
1018,33; 3354,285;  224,419; 6773,837;47,78846
1018,88; 3377,285;  241,573; 6855,067;47,41384
1019,42; 3369,362;  221,573; 6823,298;47,68130
1019,97; 3372,592;  212,573; 6828,067;47,76694
1020,51; 3442,746;  264,496; 6893,221;47,94663
1021,06; 3386,592;  203,035; 6810,144;48,18382
1021,61; 3366,131;  194,188; 6830,760;47,79490
1022,15; 3337,746;  176,342; 6789,913;47,80177
1022,70; 3360,746;  225,881; 6764,837;47,94138
1023,24; 3355,746;  206,419; 6717,067;48,37194
1023,79; 3329,054;  222,342; 6647,529;48,35208
1024,33; 3300,592;  219,496; 6598,606;48,29978
1024,88; 3279,900;  229,958; 6522,452;48,46953
1025,42; 3262,900;  234,881; 6438,144;48,81333
1025,97; 3193,285;  217,265; 6336,298;48,63545
1026,51; 3095,900;  183,419; 6218,683;48,25772
1027,06; 3117,746;  210,112; 6161,837;48,85365
1027,60; 3037,823;  229,342; 6089,375;47,92603
1028,15; 3047,669;  242,188; 5973,144;48,95310
1028,69; 2935,515;  180,881; 5842,144;48,65759
1029,24; 2938,746;  202,804; 5803,452;48,85046
1029,78; 2865,515;  211,573; 5682,375;48,51103
1030,33; 2827,285;  203,035; 5578,067;48,82296
1030,87; 2816,208;  218,112; 5510,913;49,08735
1031,42; 2770,438;  198,265; 5445,760;49,01717
1031,96; 2754,515;  237,881; 5380,760;48,93436
1032,51; 2692,285;  210,958; 5291,298;48,84175
1033,05; 2672,515;  225,342; 5215,683;49,03820
1033,60; 2581,592;  192,727; 5095,683;48,72296
1034,14; 2588,592;  204,496; 5053,683;49,16487
1034,69; 2563,131;  216,881; 4969,221;49,37041
1035,23; 2543,669;  217,958; 4896,683;49,70823
1035,77; 2481,515;  220,958; 4843,221;48,90586
1036,32; 2429,900;  185,958; 4749,067;49,17573
1036,86; 2436,054;  224,804; 4717,606;49,21762
1037,41; 2402,823;  239,496; 4641,298;49,14639
1037,95; 2362,285;  194,265; 4572,529;49,51779
1038,50; 2319,285;  209,650; 4526,913;48,86509
1039,04; 2317,054;  226,188; 4475,760;49,20180
1039,58; 2268,285;  196,112; 4386,067;49,45573
1040,13; 2241,515;  209,727; 4335,144;49,25050
1040,67; 2252,438;  253,419; 4329,606;49,04141
1041,21; 2210,054;  249,496; 4212,606;49,47019
1041,76; 2123,746;  205,112; 4137,913;48,78544
1042,30; 2114,131;  212,188; 4111,067;48,78178
1042,85; 2081,208;  210,265; 4038,298;48,87477
1043,39; 2072,823;  204,881; 3958,221;49,76746
1043,93; 2057,285;  236,419; 3959,990;48,90105
1044,48; 2015,977;  227,958; 3868,298;49,11681
1045,02; 1955,669;  208,650; 3796,298;48,69539
1045,56; 1971,131;  242,881; 3765,144;49,06646
1046,11; 1933,285;  216,958; 3727,683;48,88810
1046,65; 1873,592;  229,727; 3693,760;47,45525
1047,19; 1868,285;  204,958; 3608,760;48,86674
1047,74; 1834,362;  188,496; 3572,529;48,63621
1048,28; 1817,592;  218,650; 3489,144;48,88993
1048,82; 1820,900;  250,727; 3482,067;48,59200
1049,37; 1781,823;  238,573; 3426,452;48,40993
1049,91; 1748,746;  229,112; 3396,298;47,98058
1050,45; 1731,592;  231,035; 3336,760;48,31586
1050,99; 1714,438;  227,342; 3293,606;48,49864
1051,54; 1650,208;  205,727; 3239,606;47,61168
1052,08; 1677,515;  238,727; 3191,375;48,72875
1052,62; 1638,515;  232,188; 3154,990;48,11571
1053,16; 1612,131;  219,112; 3093,837;48,45748
1053,71; 1583,208;  228,035; 3072,683;47,63939
1054,25; 1581,285;  230,035; 2999,990;48,78237
1054,79; 1557,823;  228,035; 2992,221;48,10777
1055,33; 1511,131;  196,573; 2899,913;48,62716
1055,88; 1510,285;  219,804; 2909,606;47,97680
1056,42; 1493,592;  240,188; 2868,837;47,68245
1056,96; 1502,131;  241,804; 2811,067;49,05402
1057,50; 1475,592;  228,496; 2782,606;48,82704
1058,05; 1441,054;  220,727; 2720,990;48,80793
1058,59; 1450,131;  255,112; 2713,067;48,61842
1059,13; 1389,669;  203,958; 2657,837;48,31989
1059,67; 1406,977;  233,419; 2638,298;48,79904
1060,21; 1382,515;  232,804; 2584,375;48,89121
1060,76; 1370,515;  231,496; 2549,221;49,14385
1061,30; 1362,746;  243,650; 2509,221;49,39576
1061,84; 1322,285;  232,804; 2471,529;48,66523
1062,38; 1301,669;  206,650; 2390,452;50,14279
1062,92; 1344,054;  275,727; 2431,221;49,56297
1063,46; 1298,746;  240,804; 2367,529;49,74514
1064,01; 1248,900;  219,112; 2318,375;49,05475
1064,55; 1249,823;  234,265; 2290,837;49,38111
1065,09; 1213,054;  212,804; 2254,913;48,98121
1065,63; 1243,131;  258,727; 2261,990;49,14001
1066,17; 1250,054;  275,573; 2229,990;49,86042
1066,71; 1204,669;  261,573; 2204,913;48,52964
1067,25; 1182,285;  226,419; 2139,452;49,96597
1067,80; 1176,900;  245,804; 2142,452;49,09167
1068,34; 1178,900;  274,342; 2126,221;48,84540
1068,88; 1125,669;  226,958; 2069,837;48,76672
1069,42; 1153,669;  252,881; 2093,683;48,93457
1069,96; 1124,285;  227,804; 2022,990;49,93803
1070,50; 1154,823;  269,650; 2030,375;50,27322
1071,04; 1087,669;  224,573; 1976,375;49,26905
1071,58; 1087,823;  224,573; 1945,837;50,15211
1072,12; 1065,054;  231,265; 1955,529;48,35621
1072,66; 1056,900;  225,727; 1906,837;49,44193
1073,21; 1058,285;  251,342; 1913,606;48,54479
1073,75; 1057,823;  237,727; 1859,221;50,57657
1074,29; 1028,131;  236,881; 1834,221;49,53547
1074,83; 1031,669;  252,727; 1831,606;49,33515
1075,37; 1036,515;  259,419; 1789,298;50,79462
1075,91; 1019,746;  249,112; 1781,529;50,28882
1076,45; 1002,900;  250,727; 1764,452;49,69021
1076,99; 1007,900;  249,573; 1732,375;51,14149
1077,53;  956,900;  226,419; 1698,760;49,61358
1078,07;  983,362;  242,727; 1700,144;50,81829
1078,61;  956,285;  244,188; 1684,529;49,43944
1079,15;  945,977;  236,035; 1652,298;50,12784
1079,69;  921,669;  236,727; 1634,221;49,01217
1080,23;  937,977;  271,727; 1651,837;48,27515
1080,77;  994,515;  303,188; 1674,452;50,41532
1081,31;  906,515;  230,650; 1580,067;50,08572
1081,85;  930,669;  259,804; 1603,760;49,91722
1082,39;  887,823;  236,419; 1540,913;49,93536
1082,93;  919,285;  249,573; 1540,606;51,87410
1083,47;  860,823;  234,035; 1491,529;49,84424
1084,01;  902,900;  245,342; 1497,375;52,51921
1084,55;  852,515;  235,342; 1470,375;49,97221
1085,09;  875,592;  249,265; 1468,760;51,35956
1085,63;  864,054;  242,804; 1445,298;51,66345
1086,17;  836,977;  240,419; 1409,144;51,04346
1086,71;  819,131;  219,573; 1393,913;51,05485
1087,24;  847,054;  258,958; 1399,529;51,56155
1087,78;  847,515;  266,727; 1404,606;51,04133
1088,32;  790,823;  223,881; 1352,606;50,22856
1088,86;  817,438;  252,804; 1361,298;50,93708
1089,40;  799,977;  242,112; 1338,683;50,87361
1089,94;  757,131;  218,804; 1302,529;49,67376
1090,48;  781,054;  240,650; 1276,221;52,18413
1091,02;  776,669;  256,727; 1300,990;49,79034
1091,56;  761,900;  235,573; 1257,067;51,52520
1092,10;  736,977;  212,496; 1237,837;51,15187
1092,63;  773,362;  262,881; 1258,990;51,24745
1093,17;  747,362;  239,650; 1245,298;50,48601
1093,71;  720,438;  229,496; 1209,683;50,08662
1094,25;  731,669;  269,573; 1226,683;48,28038
1094,79;  712,208;  236,188; 1192,760;49,76308
1095,33;  737,131;  243,958; 1179,529;52,71358
1095,87;  700,208;  233,573; 1156,067;50,58401
1096,40;  667,131;  216,573; 1132,913;49,16925
1096,94;  694,669;  244,958; 1138,683;50,31878
1097,48;  698,131;  255,958; 1142,760;49,86154
1098,02;  674,669;  232,958; 1094,529;51,26814
1098,56;  639,746;  217,419; 1069,067;49,58937
1099,10;  636,131;  221,573; 1062,144;49,31857
1099,63;  631,362;  212,958; 1043,837;50,35678
1100,17;  650,054;  240,496; 1067,529;49,52134
1100,71;  677,515;  271,727; 1064,913;51,15927

