
Integration time [ms]: 160,000
Averaging Nr. [scans]: 13
Smoothing Nr. [pixels]: 0
Data measured with spectrometer [name]: 2009305U1
Wave   ;Sample   ;Dark     ;Reference;Reflectance
[nm]   ;[counts] ;[counts] ;[counts] ;[%]

 175,72;  218,557;  211,495;  220,903;75,05884
 176,32;  244,167;  239,266;  234,681; 0,00000
 176,92;  284,389;  272,880;  278,464;206,09921
 177,52;  275,851;  261,034;  277,765;88,55904
 178,12;  258,648;  246,728;  239,441; 0,00000
 178,72;  284,337;  280,728;  259,868; 0,00000
 179,32;  266,542;  264,958;  256,710; 0,00000
 179,92;  264,596;  263,342;  268,977;22,25441
 180,52;  263,886;  259,879;  273,789;28,80711
 181,12;  266,234;  277,881;  256,017; 0,00000
 181,73;  293,916;  280,188;  289,375;149,43392
 182,33;  397,889;  394,264;  386,146; 0,00000
 182,93;  286,277;  288,188;  294,880;-28,55546
 183,53;  260,266;  249,497;  239,413; 0,00000
 184,13;  257,772;  254,420;  244,570; 0,00000
 184,73;  304,795;  298,267;  300,295;321,84489
 185,33;  272,603;  255,507;  366,926;15,34445
 185,93;  277,020;  249,508;  376,315;21,69655
 186,53;  298,296;  254,199;  407,611;28,74431
 187,13;  327,405;  292,198;  434,377;24,76219
 187,73;  284,430;  255,584;  389,711;21,50591
 188,33;  285,657;  254,739;  382,838;24,13597
 188,93;  299,109;  262,972;  407,196;25,05661
 189,53;  304,020;  261,127;  411,282;28,56599
 190,13;  344,305;  301,206;  452,201;28,54291
 190,73;  268,812;  234,974;  381,637;23,07188
 191,34;  303,638;  263,511;  421,861;25,34060
 191,94;  278,958;  251,278;  383,915;20,86933
 192,54;  287,002;  269,043;  407,504;12,97042
 193,14;  300,451;  277,121;  406,597;18,01833
 193,74;  302,569;  274,891;  414,642;19,80524
 194,34;  297,122;  267,429;  394,312;23,40173
 194,94;  266,569;  239,352;  369,250;20,95268
 195,54;  236,691;  219,506;  349,176;13,25268
 196,14;  263,852;  240,967;  384,854;15,90478
 196,74;  255,251;  243,045;  363,077;10,16886
 197,34;  225,511;  217,889;  356,094; 5,51451
 197,94;  268,381;  241,044;  380,589;19,58968
 198,54;  274,612;  257,890;  399,498;11,80882
 199,14;  256,632;  218,351;  403,167;20,71355
 199,74;  232,822;  212,427;  383,975;11,88835
 200,34;  245,760;  212,273;  393,938;18,43337
 200,94;  267,365;  243,813;  436,072;12,25040
 201,54;  246,691;  229,351;  435,693; 8,40384
 202,14;  284,587;  262,812;  492,471; 9,48181
 202,74;  252,032;  226,658;  463,599;10,70908
 203,34;  235,022;  200,965;  486,334;11,93427
 203,94;  211,456;  175,581;  465,511;12,37371
 204,54;  284,146;  254,583;  559,330; 9,70081
 205,14;  246,393;  204,274;  563,349;11,72993
 205,74;  297,874;  259,503;  662,948; 9,51079
 206,34;  249,851;  213,350;  676,769; 7,87648
 206,94;  258,877;  221,966;  723,536; 7,35919
 207,54;  236,985;  191,965;  735,008; 8,29024
 208,14;  245,915;  211,042;  834,001; 5,59793
 208,74;  260,296;  225,581;  894,589; 5,18899
 209,34;  258,525;  210,966;  953,918; 6,40138
 209,94;  270,369;  224,350; 1042,023; 5,62797
 210,54;  258,129;  208,581; 1146,590; 5,28226
 211,14;  285,837;  220,581; 1233,561; 6,44194
 211,73;  268,234;  230,120; 1354,567; 3,38958
 212,33;  292,945;  232,966; 1441,495; 4,96297
 212,93;  282,303;  217,889; 1521,973; 4,93937
 213,53;  253,024;  183,197; 1578,704; 5,00369
 214,13;  296,664;  221,041; 1675,848; 5,19813
 214,73;  264,049;  199,119; 1679,856; 4,38496
 215,33;  262,292;  186,735; 1701,869; 4,98681
 215,93;  291,478;  212,427; 1819,005; 4,92051
 216,53;  261,762;  179,043; 1865,616; 4,90455
 217,13;  314,924;  222,504; 2071,888; 4,99738
 217,73;  310,472;  203,042; 2248,929; 5,25103
 218,33;  269,739;  171,964; 2388,716; 4,41073
 218,93;  327,102;  214,117; 2693,654; 4,55671
 219,53;  335,390;  203,734; 2934,601; 4,82104
 220,13;  322,564;  169,272; 3204,123; 5,05106
 220,73;  362,055;  193,427; 3549,946; 5,02387
 221,32;  385,911;  193,120; 3911,204; 5,18524
 221,92;  417,988;  212,426; 4258,343; 5,08074
 222,52;  403,184;  180,426; 4647,766; 4,98636
 223,12;  432,059;  191,965; 5076,883; 4,91501
 223,72;  460,248;  205,503; 5445,460; 4,86158
 224,32;  484,987;  200,734; 5797,980; 5,07844
 224,92;  476,354;  186,734; 6133,730; 4,87002
 225,52;  542,374;  211,043; 6466,344; 5,29681
 226,12;  522,650;  191,657; 6804,032; 5,00565
 226,72;  539,671;  166,965; 7141,233; 5,34402
 227,31;  563,269;  169,965; 7450,059; 5,40245
 227,91;  640,420;  205,889; 7848,563; 5,68559
 228,51;  609,849;  188,966; 8248,958; 5,22187
 229,11;  665,574;  193,888; 8638,165; 5,58587
 229,71;  696,327;  189,351; 8929,915; 5,80027
 230,31;  714,451;  169,349; 9275,714; 5,98594
 230,91;  731,354;  172,813; 9541,290; 5,96192
 231,51;  774,685;  175,273; 9866,910; 6,18484
 232,10;  824,065;  180,887;10214,043; 6,41052
 232,70;  863,275;  196,275;10365,850; 6,55878
 233,30;  912,142;  220,888;10585,581; 6,66931
 233,90;  903,586;  181,657;10679,870; 6,87668
 234,50;  964,292;  199,427;10768,861; 7,23658
 235,10;  982,431;  191,503;10873,807; 7,40409
 235,70; 1059,683;  210,735;10830,553; 7,99400
 236,29; 1073,601;  200,120;10712,540; 8,30904
 236,89; 1070,486;  185,582;10549,474; 8,53833
 237,49; 1121,718;  209,273;10449,368; 8,91051
 238,09; 1124,543;  189,273;10173,846; 9,36715
 238,69; 1170,887;  244,352; 9879,585; 9,61612
 239,29; 1155,060;  192,966; 9618,806;10,20699
 239,89; 1171,965;  199,813; 9276,493;10,71044
 240,48; 1172,910;  183,735; 8770,288;11,52006
 241,08; 1171,167;  197,966; 8459,440;11,78000
 241,68; 1203,392;  200,504; 8144,664;12,62422
 242,28; 1182,814;  182,734; 7805,359;13,11989
 242,88; 1222,084;  221,503; 7526,887;13,69649
 243,48; 1217,375;  225,350; 7209,637;14,20367
 244,07; 1191,864;  206,196; 6967,006;14,57913
 244,67; 1226,909;  209,658; 6874,848;15,26215
 245,27; 1225,465;  203,582; 6645,336;15,86343
 245,87; 1247,677;  219,349; 6643,001;16,00846
 246,47; 1283,405;  208,735; 6568,509;16,89793
 247,06; 1289,666;  196,350; 6579,142;17,12912
 247,66; 1311,897;  185,504; 6603,212;17,55134
 248,26; 1360,188;  214,043; 6758,501;17,51322
 248,86; 1413,476;  213,582; 6942,433;17,83208
 249,46; 1430,265;  165,196; 7133,256;18,15526
 250,05; 1540,532;  205,658; 7497,287;18,30694
 250,65; 1575,827;  180,736; 7809,757;18,28664
 251,25; 1679,413;  184,735; 8215,487;18,61193
 251,85; 1777,862;  190,044; 8783,503;18,47705
 252,44; 1850,048;  162,197; 9374,493;18,32172
 253,04; 2014,516;  199,658;10076,254;18,37534
 253,64; 2071,181;  165,582;10743,900;18,01420
 254,24; 2254,189;  213,350;11677,479;17,80196
 254,84; 2348,958;  188,427;12516,102;17,52586
 255,43; 2507,435;  191,504;13497,464;17,40521
 256,03; 2622,594;  190,351;14451,940;17,05450
 256,63; 2760,853;  202,736;15523,455;16,69711
 257,23; 2860,932;  168,274;16450,734;16,53717
 257,82; 3014,693;  203,582;17379,987;16,36612
 258,42; 3045,475;  155,814;18251,839;15,96849
 259,02; 3199,857;  217,043;19237,629;15,68203
 259,62; 3213,903;  187,275;19953,856;15,31184
 260,21; 3260,518;  192,812;20539,387;15,07726
 260,81; 3292,194;  192,196;21031,724;14,87557
 261,41; 3292,843;  171,506;21598,351;14,56741
 262,01; 3308,696;  218,814;22103,267;14,11908
 262,60; 3230,547;  171,582;22443,888;13,73439
 263,20; 3244,190;  180,889;22761,864;13,56585
 263,80; 3237,268;  223,045;23041,718;13,20946
 264,40; 3130,642;  177,891;23233,076;12,80732
 264,99; 3113,777;  202,429;23522,987;12,48404
 265,59; 3041,486;  193,661;23638,650;12,14684
 266,19; 3008,226;  186,968;23800,065;11,94785
 266,78; 2981,702;  227,737;23994,434;11,58749
 267,38; 2896,980;  197,815;24065,863;11,30870
 267,98; 2834,695;  198,353;23979,742;11,08574
 268,58; 2763,501;  199,968;24059,998;10,74405
 269,17; 2707,944;  191,815;24039,692;10,55075
 269,77; 2655,938;  203,275;23892,356;10,35356
 270,37; 2554,810;  172,814;23775,823;10,09192
 270,96; 2558,992;  234,198;23752,400; 9,88509
 271,56; 2440,989;  198,044;23497,204; 9,62672
 272,16; 2386,438;  187,583;23354,129; 9,49151
 272,75; 2368,594;  197,429;23260,178; 9,41417
 273,35; 2282,261;  184,121;23191,872; 9,11927
 273,95; 2290,168;  195,813;23133,216; 9,13074
 274,54; 2194,181;  180,889;23211,893; 8,74166
 275,14; 2283,707;  215,736;23517,363; 8,87479
 275,74; 2183,695;  176,660;23538,504; 8,59108
 276,33; 2251,758;  223,121;23996,289; 8,53331
 276,93; 2246,983;  201,965;24266,568; 8,49803
 277,53; 2270,098;  192,658;24820,040; 8,43549
 278,12; 2285,235;  178,505;25255,783; 8,40095
 278,72; 2368,907;  248,043;25774,491; 8,30850
 279,32; 2387,023;  186,658;26366,635; 8,40476
 279,91; 2427,144;  165,505;27091,575; 8,39944
 280,51; 2444,775;  191,427;27666,454; 8,20144
 281,11; 2549,126;  192,812;28289,017; 8,38659
 281,70; 2581,985;  173,813;28738,401; 8,43062
 282,30; 2686,143;  180,813;29326,435; 8,59590
 282,90; 2700,809;  189,582;29659,522; 8,52132
 283,49; 2838,450;  200,121;30268,142; 8,77453
 284,09; 2878,359;  234,120;30743,765; 8,66689
 284,69; 2993,192;  220,658;31017,144; 9,00276
 285,28; 3014,400;  202,659;31341,803; 9,02960
 285,88; 3192,796;  265,121;31563,908; 9,35396
 286,47; 3148,543;  194,428;31613,098; 9,40242
 287,07; 3286,373;  218,889;31770,442; 9,72213
 287,67; 3404,452;  211,196;31839,022;10,09635
 288,26; 3484,858;  191,966;31807,153;10,41554
 288,86; 3613,154;  183,659;31881,294;10,81941
 289,46; 3828,829;  206,428;32075,499;11,36651
 290,05; 3959,455;  184,889;32130,295;11,81568
 290,65; 4143,556;  187,428;32228,789;12,34694
 291,24; 4344,111;  197,889;32463,116;12,85044
 291,84; 4574,083;  213,659;32502,916;13,50426
 292,44; 4774,669;  202,042;32604,561;14,11195
 293,03; 5083,025;  265,351;32838,068;14,79052
 293,63; 5194,176;  189,274;32896,579;15,30209
 294,22; 5425,673;  216,505;33115,219;15,83396
 294,82; 5609,626;  189,737;33153,874;16,44178
 295,41; 5695,062;  182,813;32797,016;16,90138
 296,01; 5891,809;  228,352;32885,599;17,34211
 296,61; 5999,144;  222,043;32616,337;17,83370
 297,20; 6044,385;  195,506;32123,917;18,31873
 297,80; 6160,710;  211,427;31958,152;18,73983
 298,39; 6161,246;  182,120;31671,810;18,98757
 298,99; 6351,625;  213,044;31605,727;19,55418
 299,58; 6335,412;  208,427;31297,963;19,70755
 300,18; 6428,919;  214,273;31171,882;20,07470
 300,78; 6425,837;  190,274;30812,484;20,36288
 301,37; 6486,883;  205,276;30778,033;20,54642
 301,97; 6602,735;  207,889;30739,864;20,94475
 302,56; 6638,138;  191,890;30732,876;21,10688
 303,16; 6629,711;  171,275;30635,614;21,19999
 303,75; 6741,714;  198,889;30709,572;21,44437
 304,35; 6876,323;  176,888;30875,873;21,82299
 304,94; 6931,643;  195,582;30903,201;21,93612
 305,54; 7011,296;  221,274;30870,973;22,15363
 306,13; 6995,402;  167,042;30760,306;22,31982
 306,73; 6999,797;  181,657;30598,417;22,41573
 307,33; 7084,671;  205,581;30526,002;22,68798
 307,92; 7116,043;  214,274;30574,010;22,73330
 308,52; 7251,324;  174,044;31067,181;22,90891
 309,11; 7448,994;  192,967;31471,771;23,19790
 309,71; 7504,936;  178,660;31741,315;23,21185
 310,30; 7625,195;  189,966;31894,116;23,45191
 310,90; 7791,272;  216,966;32319,808;23,59388
 311,49; 7861,098;  204,582;32460,740;23,73660
 312,09; 7920,090;  160,504;32564,670;23,94626
 312,68; 8083,331;  256,120;33005,474;23,90035
 313,28; 8101,043;  170,043;33175,626;24,02927
 313,87; 8142,970;  166,966;33225,346;24,12703
 314,47; 8257,317;  194,890;33451,734;24,24291
 315,06; 8301,933;  169,966;33601,944;24,32392
 315,66; 8389,013;  176,735;33882,747;24,36443
 316,25; 8374,501;  158,198;33782,606;24,43553
 316,85; 8371,904;  163,043;33817,988;24,39125
 317,44; 8381,774;  174,737;33894,099;24,33924
 318,04; 8425,288;  163,428;33955,003;24,44947
 318,63; 8414,883;  161,657;34108,234;24,31239
 319,22; 8485,896;  192,044;34238,164;24,36064
 319,82; 8460,117;  187,505;34282,284;24,26357
 320,41; 8503,976;  195,274;34163,828;24,45998
 321,01; 8511,420;  196,350;34282,487;24,39429
 321,60; 8510,332;  201,659;34248,928;24,40335
 322,20; 8419,489;  177,889;34275,424;24,17066
 322,79; 8496,634;  214,735;34311,299;24,28954
 323,39; 8503,643;  190,580;34354,718;24,33272
 323,98; 8470,373;  172,658;34412,281;24,23425
 324,58; 8408,179;  178,736;34294,614;24,12203
 325,17; 8410,033;  188,582;34039,837;24,28699
 325,76; 8325,994;  193,966;33856,903;24,15722
 326,36; 8212,316;  166,889;33513,650;24,12656
 326,95; 8130,719;  216,043;33228,593;23,97475
 327,55; 8043,449;  172,505;32890,995;24,05656
 328,14; 7918,286;  171,812;32612,932;23,87857
 328,74; 7819,488;  202,736;32108,530;23,87263
 329,33; 7722,494;  199,197;31716,669;23,87025
 329,92; 7577,901;  174,506;31176,262;23,88057
 330,52; 7427,682;  194,812;30555,183;23,82339
 331,11; 7276,880;  190,043;30144,361;23,65881
 331,71; 7155,528;  186,197;29502,113;23,77320
 332,30; 7031,027;  197,812;29112,432;23,63239
 332,89; 6935,244;  263,043;28669,216;23,48856
 333,49; 6719,497;  198,274;28111,179;23,36275
 334,08; 6576,132;  178,967;27703,639;23,24157
 334,68; 6496,774;  189,274;27262,091;23,29828
 335,27; 6347,124;  205,735;26953,800;22,96013
 335,86; 6338,495;  247,043;26654,207;23,06742
 336,46; 6235,724;  206,196;26370,675;23,04471
 337,05; 6146,247;  182,043;26282,034;22,85136
 337,65; 6059,552;  171,582;26020,755;22,77818
 338,24; 6029,116;  240,043;25970,983;22,49849
 338,83; 6013,707;  203,351;25894,964;22,61577
 339,43; 5974,793;  185,274;25829,173;22,57659
 340,02; 5946,729;  185,659;25712,711;22,56849
 340,61; 5922,617;  192,581;25759,357;22,41204
 341,21; 5914,949;  221,274;25755,376;22,29832
 341,80; 5889,653;  185,813;25721,312;22,33691
 342,40; 5874,273;  195,504;25792,472;22,18532
 342,99; 5909,551;  195,658;25820,524;22,29824
 343,58; 5896,571;  183,504;25964,592;22,15992
 344,18; 5891,378;  206,273;26161,756;21,90329
 344,77; 5967,549;  176,198;26459,566;22,03428
 345,36; 6048,412;  173,966;26693,977;22,15099
 345,96; 6086,897;  216,581;27051,688;21,87551
 346,55; 6101,859;  174,888;27255,285;21,88657
 347,14; 6146,454;  181,658;27496,847;21,83692
 347,74; 6210,764;  161,349;28000,958;21,72953
 348,33; 6364,733;  186,734;28614,101;21,73258
 348,92; 6459,850;  194,425;29124,377;21,65723
 349,52; 6542,250;  165,579;29669,124;21,61324
 350,11; 6584,896;  189,582;29848,787;21,56266
 350,70; 6555,129;  169,197;29950,905;21,44246
 351,29; 6495,530;  170,199;29844,338;21,31597
 351,89; 6489,985;  188,737;29831,723;21,25713
 352,48; 6459,256;  155,120;29755,914;21,29719
 353,07; 6445,715;  201,965;29776,627;21,11182
 353,67; 6356,666;  196,656;29588,512;20,95822
 354,26; 6298,770;  192,042;29386,203;20,91763
 354,85; 6264,007;  200,042;29264,979;20,86350
 355,45; 6203,906;  170,659;29117,820;20,84227
 356,04; 6159,368;  181,504;29041,484;20,71334
 356,63; 6156,627;  217,889;28801,391;20,77680
 357,22; 6062,245;  187,122;28686,986;20,61457
 357,82; 6008,112;  186,583;28514,432;20,55055
 358,41; 6028,462;  208,966;28351,903;20,67835
 359,00; 5900,033;  173,736;28193,299;20,43678
 359,60; 5903,876;  193,658;28178,473;20,40470
 360,19; 5874,056;  212,042;27969,918;20,39787
 360,78; 5837,073;  194,967;27841,120;20,40829
 361,37; 5784,108;  185,428;27630,620;20,39949
 361,97; 5726,972;  188,659;27560,479;20,23363
 362,56; 5675,006;  172,275;27379,315;20,22539
 363,15; 5636,301;  246,736;27069,763;20,09305
 363,74; 5504,438;  189,121;26699,514;20,04994
 364,34; 5472,758;  201,121;26313,904;20,18796
 364,93; 5333,643;  181,813;25931,362;20,00746
 365,52; 5245,495;  156,274;25563,053;20,03096
 366,11; 5204,195;  175,659;25305,731;20,01003
 366,71; 5126,127;  176,274;24976,549;19,95886
 367,30; 5053,240;  188,813;24570,650;19,95103
 367,89; 5035,578;  220,273;24359,353;19,94817
 368,48; 4958,739;  209,583;24012,822;19,95172
 369,07; 4885,206;  193,197;23678,443;19,97854
 369,67; 4777,975;  221,582;23399,535;19,65830
 370,26; 4713,584;  185,274;23017,905;19,83262
 370,85; 4674,640;  182,813;22827,852;19,83581
 371,44; 4660,381;  195,120;22636,113;19,89779
 372,03; 4615,613;  167,890;22379,644;20,02418
 372,63; 4538,763;  163,428;22064,218;19,97798
 373,22; 4482,186;  183,735;21880,606;19,81138
 373,81; 4446,477;  170,197;21543,188;20,00787
 374,40; 4430,526;  181,658;21283,519;20,13504
 374,99; 4336,642;  186,351;21056,138;19,88660
 375,59; 4284,719;  161,042;20732,739;20,04539
 376,18; 4339,183;  199,043;20624,802;20,26921
 376,77; 4312,717;  204,659;20445,691;20,29570
 377,36; 4316,460;  207,659;20368,246;20,38036
 377,95; 4247,197;  203,428;20136,549;20,28668
 378,55; 4192,574;  177,966;19982,410;20,27125
 379,14; 4216,374;  198,582;19861,813;20,43302
 379,73; 4223,191;  196,659;19765,165;20,57659
 380,32; 4203,750;  194,736;19764,604;20,48565
 380,91; 4158,144;  173,890;19684,198;20,42128
 381,50; 4217,579;  194,890;19674,046;20,65125
 382,10; 4225,904;  176,428;19517,142;20,93757
 382,69; 4178,809;  166,120;19492,438;20,76282
 383,28; 4242,969;  214,813;19467,605;20,92245
 383,87; 4184,951;  177,659;19263,201;20,99648
 384,46; 4190,960;  162,352;19266,403;21,08772
 385,05; 4242,263;  198,198;19236,921;21,24126
 385,64; 4233,964;  185,890;19264,731;21,21761
 386,24; 4224,044;  159,737;19225,480;21,31733
 386,83; 4317,107;  200,198;19281,411;21,57572
 387,42; 4354,727;  196,274;19353,270;21,70723
 388,01; 4386,334;  177,891;19573,307;21,69813
 388,60; 4469,051;  191,044;19814,164;21,80085
 389,19; 4510,697;  185,584;20005,729;21,82180
 389,78; 4588,091;  182,969;20194,001;22,01347
 390,37; 4771,797;  250,045;20690,369;22,12172
 390,96; 4748,290;  196,583;20773,220;22,12075
 391,56; 4855,787;  195,969;20863,273;22,54681
 392,15; 4882,107;  179,123;21192,503;22,38090
 392,74; 4958,239;  160,817;21310,624;22,68306
 393,33; 5075,294;  187,893;21679,108;22,74139
 393,92; 5225,409;  197,509;22034,588;23,02460
 394,51; 5267,002;  171,816;22249,848;23,07808
 395,10; 5361,718;  215,896;22471,673;23,12129
 395,69; 5436,123;  203,049;22534,810;23,43332
 396,28; 5473,963;  194,435;22689,511;23,46970
 396,87; 5520,577;  190,975;22814,078;23,55823
 397,46; 5573,693;  194,899;22864,306;23,72711
 398,06; 5691,328;  212,823;23086,703;23,95092
 398,65; 5731,348;  195,979;23095,800;24,17210
 399,24; 5836,322;  218,211;23352,957;24,28430
 399,83; 5818,752;  187,907;23329,458;24,33218
 400,42; 5899,187;  225,680;23500,735;24,37591
 401,01; 5990,509;  196,684;23613,456;24,74220
 401,60; 5981,254;  225,382;23644,888;24,57725
 402,19; 6054,278;  239,695;23657,412;24,82985
 402,78; 6078,523;  231,471;23539,932;25,08553
 403,37; 6058,529;  214,939;23457,159;25,14213
 403,96; 6089,634;  222,639;23272,985;25,45296
 404,55; 6128,121;  243,725;23287,924;25,53526
 405,14; 6116,999;  219,964;23067,240;25,81067
 405,73; 6133,271;  229,742;22969,296;25,96150
 406,32; 6180,153;  229,133;22983,779;26,15299
 406,91; 6126,877;  224,679;22726,786;26,22953
 407,50; 6139,371;  228,836;22474,198;26,56974
 408,09; 6090,671;  202,762;22260,479;26,69319
 408,68; 6143,554;  211,533;22143,974;27,04679
 409,27; 6068,578;  203,223;21926,977;26,99973
 409,86; 6100,604;  216,756;21783,063;27,28259
 410,45; 6175,554;  252,905;21764,002;27,53299
 411,04; 6144,543;  246,516;21720,847;27,46548
 411,63; 6089,690;  236,817;21434,096;27,61143
 412,22; 6069,380;  227,888;21243,443;27,79604
 412,81; 6049,273;  249,348;21005,096;27,94371
 413,40; 6001,776;  257,960;20696,035;28,10351
 413,99; 5967,515;  306,423;20358,870;28,23143
 414,58; 5834,925;  227,422;19923,867;28,46962
 415,17; 5797,462;  240,271;19761,596;28,46729
 415,76; 5782,105;  222,735;19610,748;28,67427
 416,35; 5769,776;  207,503;19427,764;28,93964
 416,94; 5807,779;  254,888;19451,197;28,92687
 417,53; 5923,291;  222,963;19612,954;29,39830
 418,12; 5915,855;  227,424;19777,644;29,09651
 418,71; 6102,438;  250,730;20131,786;29,43359
 419,30; 6134,352;  219,347;20238,060;29,54738
 419,89; 6192,580;  221,269;20300,403;29,73888
 420,48; 6310,866;  251,807;20647,334;29,70779
 421,07; 6366,067;  237,575;20737,148;29,89571
 421,66; 6379,853;  208,497;20776,174;30,00512
 422,25; 6417,612;  227,880;20780,887;30,11594
 422,84; 6434,558;  243,341;20720,605;30,23459
 423,43; 6368,989;  225,803;20428,524;30,40771
 424,02; 6325,113;  258,803;20219,722;30,39093
 424,60; 6183,904;  224,185;19803,125;30,43944
 425,19; 6149,245;  250,340;19540,192;30,58036
 425,78; 6168,261;  238,340;19461,617;30,84761
 426,37; 6153,677;  253,569;19304,544;30,97011
 426,96; 6155,635;  238,954;19126,121;31,32646
 427,55; 6104,821;  230,183;19126,181;31,08932
 428,14; 6023,264;  229,644;18833,699;31,14171
 428,73; 5998,125;  235,338;18647,153;31,29940
 429,32; 6036,729;  249,877;18594,763;31,54477
 429,91; 6085,710;  259,030;18676,904;31,63601
 430,50; 6012,501;  258,645;18521,713;31,50542
 431,08; 5967,120;  258,644;18360,349;31,53557
 431,67; 6016,122;  302,412;18330,782;31,69288
 432,26; 5966,429;  326,642;18160,858;31,62341
 432,85; 5912,444;  347,335;17821,836;31,84703
 433,44; 5781,273;  360,257;17440,033;31,73938
 434,03; 5669,256;  371,256;17158,139;31,56036
 434,62; 5549,482;  331,641;16663,909;31,94805
 435,21; 5500,501;  347,104;16496,684;31,91041
 435,79; 5473,222;  332,948;16332,708;32,12719
 436,38; 5452,298;  328,485;16237,016;32,20796
 436,97; 5431,393;  323,793;16221,643;32,12761
 437,56; 5359,092;  328,637;15979,537;32,14164
 438,15; 5362,579;  295,099;15875,318;32,52509
 438,74; 5394,931;  332,560;15856,013;32,61111
 439,33; 5382,157;  284,099;15873,077;32,70296
 439,91; 5405,023;  252,867;15956,906;32,80783
 440,50; 5469,335;  294,098;16015,235;32,91897
 441,09; 5493,751;  294,943;16082,077;32,93066
 441,68; 5470,708;  267,711;16154,661;32,75013
 442,27; 5459,700;  254,865;16123,606;32,79929
 442,86; 5464,972;  241,324;16026,007;33,09314
 443,44; 5502,707;  250,786;16129,577;33,07507
 444,03; 5607,445;  335,324;16189,950;33,25288
 444,62; 5457,590;  250,555;16053,209;32,95038
 445,21; 5430,446;  259,940;15947,782;32,95868
 445,80; 5443,601;  295,246;15848,830;33,10076
 446,39; 5374,495;  333,016;15659,644;32,89360
 446,97; 5278,112;  252,399;15390,839;33,19835
 447,56; 5188,196;  255,321;15178,970;33,05408
 448,15; 5153,606;  256,168;15006,598;33,20200
 448,74; 5103,169;  282,091;14794,610;33,22013
 449,33; 5044,288;  267,090;14665,641;33,17832
 449,91; 4978,561;  249,089;14390,958;33,44305
 450,50; 4893,394;  253,628;14218,742;33,22398
 451,09; 4869,906;  271,320;14125,591;33,19256
 451,68; 4827,943;  294,704;14035,070;32,99213
 452,26; 4805,050;  276,165;13992,011;33,01936
 452,85; 4760,886;  257,703;13829,823;33,17966
 453,44; 4789,080;  273,932;13779,714;33,43122
 454,03; 4742,026;  250,318;13801,670;33,14583
 454,61; 4765,530;  252,471;13757,610;33,41735
 455,20; 4852,732;  271,009;13969,185;33,44769
 455,79; 4842,096;  274,779;13911,286;33,49331
 456,38; 4863,046;  279,161;14014,786;33,37224
 456,97; 4894,142;  262,854;14103,099;33,46247
 457,55; 4863,164;  258,238;14130,908;33,19423
 458,14; 4882,190;  291,239;14075,067;33,30680
 458,73; 4885,461;  272,468;14011,957;33,57470
 459,31; 4902,516;  289,006;14063,050;33,49424
 459,90; 4918,247;  317,622;14168,214;33,21609
 460,49; 5023,426;  377,853;14241,835;33,50822
 461,08; 4947,997;  264,928;14290,432;33,38966
 461,66; 4980,121;  272,083;14351,107;33,44009
 462,25; 4995,005;  282,312;14495,949;33,15613
 462,84; 5029,448;  300,390;14501,636;33,30030
 463,43; 4958,955;  248,234;14475,764;33,10990
 464,01; 4970,255;  272,157;14468,694;33,09327
 464,60; 4991,464;  336,004;14482,124;32,90980
 465,19; 4888,579;  249,233;14206,266;33,24020
 465,77; 4935,071;  278,617;14168,900;33,52310
 466,36; 4883,964;  300,388;14093,889;33,22997
 466,95; 4787,364;  281,773;13770,006;33,40387
 467,53; 4694,694;  290,847;13477,871;33,39531
 468,12; 4610,062;  309,616;13237,536;33,26479
 468,71; 4521,817;  273,156;13039,028;33,28140
 469,29; 4402,556;  257,539;12766,750;33,13572
 469,88; 4321,786;  260,077;12540,218;33,07543
 470,47; 4433,538;  332,307;12631,261;33,34618
 471,06; 4354,712;  280,922;12514,253;33,30074
 471,64; 4396,817;  281,077;12656,922;33,25624
 472,23; 4342,424;  253,305;12657,306;32,96613
 472,81; 4390,290;  257,229;12781,927;32,99928
 473,40; 4399,264;  268,536;12921,383;32,64662
 473,99; 4591,512;  383,228;13090,095;33,11819
 474,57; 4516,859;  266,382;13216,161;32,82277
 475,16; 4563,429;  284,691;13368,257;32,70315
 475,75; 4609,111;  311,227;13514,047;32,55277
 476,33; 4634,135;  301,611;13584,597;32,61710
 476,92; 4649,196;  302,228;13597,424;32,69578
 477,51; 4681,271;  305,535;13748,207;32,55109
 478,09; 4680,383;  300,304;13698,169;32,69236
 478,68; 4659,861;  294,996;13631,356;32,72905
 479,27; 4661,276;  330,458;13743,529;32,28804
 479,85; 4646,696;  288,765;13644,644;32,62931
 480,44; 4681,690;  278,765;13842,630;32,46070
 481,02; 5034,290;  308,379;15086,890;31,97826
 481,61; 5724,137;  322,072;17081,415;32,23316
 482,20; 6057,487;  310,456;18258,439;32,02049
 482,78; 6361,426;  339,457;19068,417;32,15325
 483,37; 6504,978;  338,609;19595,156;32,02219
 483,95; 6574,963;  367,609;19905,024;31,77162
 484,54; 6623,379;  372,764;20108,365;31,67177
 485,13; 6581,436;  341,839;20041,729;31,67326
 485,71; 6493,035;  330,224;19771,542;31,69955
 486,30; 6471,685;  357,377;19509,734;31,92457
 486,88; 6411,638;  411,070;19225,690;31,89311
 487,47; 6151,513;  374,608;18539,337;31,80287
 488,05; 5917,747;  365,915;17726,602;31,97933
 488,64; 5517,096;  359,914;16450,710;32,05051
 489,23; 4968,818;  369,761;14676,365;32,14639
 489,81; 4244,941;  373,607;12571,955;31,73655
 490,40; 3977,472;  315,914;11874,977;31,67694
 490,98; 3920,472;  307,068;11586,193;32,03621
 491,57; 3869,319;  338,069;11499,424;31,63819
 492,15; 3861,642;  317,145;11462,542;31,80234
 492,74; 3821,879;  317,453;11356,094;31,74689
 493,32; 3783,965;  348,145;11203,904;31,64974
 493,91; 3706,817;  314,298;11186,903;31,20244
 494,50; 3739,796;  313,220;11148,596;31,62397
 495,08; 3684,904;  298,066;11063,846;31,45929
 495,67; 3726,981;  328,067;11048,699;31,70442
 496,25; 3601,570;  260,605;10929,547;31,31487
 496,84; 3619,944;  281,529;10919,843;31,38105
 497,42; 3591,995;  257,682;10876,907;31,39884
 498,01; 3608,346;  297,144;10794,624;31,54283
 498,59; 3527,907;  263,912;10734,726;31,17231
 499,18; 3545,744;  263,144;10715,154;31,40640
 499,76; 3518,152;  289,451;10606,019;31,29627
 500,35; 3419,823;  278,142;10473,419;30,81506
 500,93; 3416,436;  269,836;10384,608;31,10896
 501,52; 3365,709;  273,066;10331,793;30,74587
 502,10; 3388,998;  279,372;10285,543;31,07708
 502,69; 3296,802;  264,833;10162,588;30,63289
 503,27; 3244,662;  240,989;10022,588;30,70739
 503,86; 3252,192;  269,064; 9911,595;30,93719
 504,44; 3187,807;  228,987; 9797,140;30,92363
 505,03; 3095,431;  221,141; 9535,881;30,85744
 505,61; 3077,070;  235,833; 9501,368;30,66457
 506,19; 3036,736;  258,910; 9294,370;30,74361
 506,78; 2956,390;  239,524; 9132,905;30,54930
 507,36; 2902,675;  244,602; 8968,110;30,47022
 507,95; 2881,448;  240,755; 8805,585;30,83182
 508,53; 2822,568;  235,371; 8713,924;30,51461
 509,12; 2793,542;  245,139; 8554,996;30,66723
 509,70; 2784,521;  267,832; 8439,018;30,79955
 510,29; 2700,898;  288,600; 8295,487;30,12778
 510,87; 2624,935;  237,832; 8093,981;30,38515
 511,46; 2558,715;  235,986; 7953,917;30,09524
 512,04; 2526,539;  247,370; 7787,108;30,22876
 512,62; 2508,827;  249,755; 7651,187;30,52210
 513,21; 2420,764;  243,216; 7456,248;30,18908
 513,79; 2365,856;  236,752; 7390,281;29,76298
 514,38; 2327,331;  229,214; 7225,273;29,98999
 514,96; 2311,309;  262,984; 7149,925;29,74216
 515,54; 2239,165;  222,906; 6979,651;29,84068
 516,13; 2251,598;  261,060; 6955,374;29,73476
 516,71; 2182,171;  239,906; 6806,797;29,57664
 517,30; 2139,979;  228,982; 6687,017;29,59100
 517,88; 2121,208;  249,290; 6594,814;29,49982
 518,46; 2086,736;  228,674; 6507,780;29,59119
 519,05; 2079,717;  230,135; 6478,075;29,60307
 519,63; 2067,286;  246,135; 6365,408;29,76090
 520,22; 2035,893;  254,057; 6319,730;29,37573
 520,80; 2016,522;  240,673; 6261,953;29,49288
 521,38; 2053,414;  285,750; 6247,865;29,64827
 521,97; 1978,657;  233,057; 6214,479;29,18370
 522,55; 1983,015;  249,134; 6166,104;29,30354
 523,13; 1949,590;  245,749; 6176,282;28,72998
 523,72; 1942,118;  239,982; 6136,578;28,86643
 524,30; 2013,894;  270,671; 6312,779;28,85124
 524,89; 1966,209;  219,749; 6304,778;28,70093
 525,47; 2033,178;  255,517; 6430,214;28,78944
 526,05; 2011,851;  210,671; 6427,908;28,97075
 526,64; 2082,669;  254,824; 6582,932;28,88454
 527,22; 2081,442;  261,825; 6754,820;28,02431
 527,80; 2173,640;  299,824; 6831,738;28,68709
 528,39; 2131,156;  241,286; 6934,551;28,23540
 528,97; 2188,256;  241,747; 7075,885;28,48214
 529,55; 2241,146;  254,210; 7272,532;28,31069
 530,14; 2275,853;  269,362; 7469,642;27,86685
 530,72; 2276,292;  249,824; 7542,001;27,78961
 531,30; 2305,328;  228,054; 7745,941;27,63108
 531,89; 2363,003;  252,285; 7813,999;27,91322
 532,47; 2406,135;  281,054; 7927,406;27,79209
 533,05; 2405,605;  283,286; 7971,469;27,60495
 533,63; 2434,065;  271,823; 8017,629;27,91500
 534,22; 2414,476;  254,131; 8068,389;27,64620
 534,80; 2427,324;  275,515; 8161,053;27,28805
 535,38; 2574,137;  382,977; 8275,616;27,76207
 535,97; 2420,111;  261,131; 8119,926;27,47215
 536,55; 2472,885;  314,361; 8266,785;27,14297
 537,13; 2461,299;  321,901; 8224,363;27,07256
 537,71; 2483,671;  377,439; 8315,372;26,53375
 538,30; 2497,310;  392,823; 8351,845;26,44153
 538,88; 2557,587;  438,514; 8493,197;26,30859
 539,46; 2611,528;  510,053; 8658,370;25,79030
 540,05; 2635,011;  523,438; 8782,962;25,56531
 540,63; 2705,688;  574,130; 9045,146;25,16296
 541,21; 2734,830;  610,822; 9188,055;24,76332
 541,79; 2784,889;  666,745; 9299,651;24,53570
 542,38; 2800,074;  689,822; 9500,201;23,95189
 542,96; 2861,209;  700,744; 9627,804;24,20130
 543,54; 2944,902;  731,360; 9816,112;24,36546
 544,12; 2920,425;  697,129;10005,211;23,88565
 544,70; 2939,315;  678,513;10066,612;24,08157
 545,29; 2997,195;  690,207;10210,981;24,23110
 545,87; 3000,350;  666,052;10244,113;24,37130
 546,45; 2965,918;  606,207;10237,768;24,49978
 547,03; 2972,099;  586,207;10303,667;24,55264
 547,62; 3025,645;  549,360;10453,499;25,00253
 548,20; 3048,127;  535,821;10611,091;24,93537
 548,78; 3025,944;  494,743;10742,659;24,69967
 549,36; 3049,698;  445,974;10854,157;25,01612
 549,94; 3080,364;  405,283;11052,098;25,12565
 550,53; 3155,284;  416,051;11273,895;25,22815
 551,11; 3147,351;  376,358;11470,000;24,97821
 551,69; 3240,781;  386,512;11792,695;25,02387
 552,27; 3265,652;  351,282;12020,323;24,97524
 552,85; 3314,009;  344,819;12332,115;24,76947
 553,44; 3429,583;  333,051;12706,532;25,02556
 554,02; 3505,305;  350,358;13001,871;24,93731
 554,60; 3578,125;  282,896;13338,405;25,24014
 555,18; 3665,526;  323,128;13722,061;24,94526
 555,76; 3739,852;  307,666;14026,920;25,01729
 556,34; 3832,298;  318,357;14498,326;24,78102
 556,93; 3894,153;  287,512;14882,081;24,71221
 557,51; 3948,812;  271,819;15183,769;24,65803
 558,09; 4041,896;  309,358;15548,014;24,49388
 558,67; 4120,510;  300,972;15923,621;24,44872
 559,25; 4262,052;  314,049;16218,733;24,82290
 559,83; 4281,674;  296,818;16591,194;24,45541
 560,41; 4345,750;  285,511;16922,593;24,40476
 561,00; 4442,220;  296,895;17205,871;24,51553
 561,58; 4470,739;  281,050;17522,650;24,29989
 562,16; 4503,070;  273,281;17819,760;24,10620
 562,74; 4567,716;  260,589;18189,785;24,02298
 563,32; 4663,562;  259,664;18637,540;23,96304
 563,90; 4768,981;  288,434;18989,054;23,95935
 564,48; 4816,895;  290,973;19364,475;23,72885
 565,06; 4957,591;  281,126;19958,572;23,76561
 565,65; 5100,093;  280,356;20632,309;23,68194
 566,23; 5265,093;  341,972;21336,093;23,45000
 566,81; 5387,171;  281,434;22055,848;23,44833
 567,39; 5564,118;  291,664;23002,321;23,21577
 567,97; 5717,007;  311,049;23678,206;23,13485
 568,55; 5897,260;  339,818;24434,847;23,06468
 569,13; 6040,607;  281,818;25069,074;23,23286
 569,71; 6161,420;  281,358;26085,798;22,78702
 570,29; 6429,878;  326,204;27063,302;22,82848
 570,87; 6559,720;  316,743;27807,498;22,70937
 571,45; 6676,055;  305,203;28474,313;22,61645
 572,03; 6708,613;  277,664;28836,535;22,51822
 572,61; 6871,986;  279,510;29561,683;22,51361
 573,20; 7006,960;  292,588;30245,769;22,41622
 573,78; 7106,340;  289,664;30881,434;22,28271
 574,36; 7185,398;  314,280;31421,652;22,08839
 574,94; 7272,646;  377,356;31802,825;21,94173
 575,52; 7296,624;  295,432;31999,463;22,08297
 576,10; 7411,914;  368,509;32545,843;21,88934
 576,68; 7491,048;  349,048;33138,621;21,78131
 577,26; 7634,217;  369,354;33842,430;21,70360
 577,84; 7682,436;  378,895;34248,971;21,56340
 578,42; 7756,462;  436,740;34628,338;21,40796
 579,00; 7694,579;  374,279;34789,559;21,27049
 579,58; 7811,306;  428,202;34975,220;21,37118
 580,16; 7728,931;  386,586;35009,177;21,20680
 580,74; 7780,208;  395,278;35250,466;21,18746
 581,32; 7708,038;  384,740;35391,202;20,91984
 581,90; 7729,887;  417,894;35264,013;20,98366
 582,48; 7736,709;  408,048;35421,148;20,93120
 583,06; 7709,213;  394,894;35675,788;20,73167
 583,64; 7711,013;  405,894;35627,498;20,74045
 584,22; 7760,163;  425,893;35538,071;20,88811
 584,80; 7624,900;  431,817;35319,012;20,61812
 585,38; 7526,142;  438,819;34950,201;20,53619
 585,96; 7514,278;  416,202;35033,782;20,50425
 586,54; 7489,420;  431,739;34991,069;20,42193
 587,12; 7476,155;  384,355;35135,247;20,40753
 587,70; 7496,248;  423,895;35393,764;20,22413
 588,28; 7469,120;  401,817;35422,824;20,18018
 588,86; 7493,369;  402,740;35502,913;20,20112
 589,44; 7409,033;  379,739;35698,398;19,90249
 590,02; 7446,063;  381,047;35790,731;19,95222
 590,59; 7480,684;  363,355;36071,982;19,93168
 591,17; 7445,620;  366,661;36343,113;19,67665
 591,75; 7450,599;  351,123;36396,451;19,69597
 592,33; 7501,671;  368,123;36635,745;19,66919
 592,91; 7462,745;  322,661;36802,773;19,57254
 593,49; 7533,922;  323,045;37090,183;19,61229
 594,07; 7556,570;  342,430;37386,404;19,47453
 594,65; 7562,108;  358,739;37316,426;19,49085
 595,23; 7581,078;  345,893;37877,163;19,27775
 595,81; 7600,637;  324,354;37980,455;19,32299
 596,39; 7596,897;  326,969;38049,494;19,27211
 596,97; 7610,881;  321,123;38336,446;19,17584
 597,55; 7579,590;  329,124;38165,795;19,16254
 598,12; 7493,788;  294,506;38053,860;19,06622
 598,70; 7524,189;  308,815;38368,362;18,95812
 599,28; 7515,292;  326,584;38480,814;18,84118
 599,86; 7524,255;  321,584;38551,727;18,84029
 600,44; 7484,541;  285,891;38621,596;18,77792
 601,02; 7503,564;  338,583;38714,775;18,67038
 601,60; 7482,720;  314,584;38670,846;18,68831
 602,18; 7395,221;  278,045;38689,897;18,52859
 602,75; 7369,514;  286,662;38786,473;18,39711
 603,33; 7346,541;  301,122;38832,526;18,28487
 603,91; 7287,919;  297,737;38795,365;18,15744
 604,49; 7353,158;  317,815;38813,498;18,27567
 605,07; 7313,563;  328,969;38843,643;18,13489
 605,65; 7269,495;  340,968;38932,761;17,95337
 606,23; 7273,413;  404,893;39179,461;17,71398
 606,80; 7324,112;  462,046;39158,915;17,73287
 607,38; 7281,663;  518,583;39228,969;17,47097
 607,96; 7288,222;  579,970;39333,597;17,31000
 608,54; 7303,939;  661,660;39410,510;17,14187
 609,12; 7273,830;  667,816;39470,598;17,02459
 609,70; 7238,569;  706,661;39567,803;16,80833
 610,27; 7228,217;  705,124;39535,885;16,79878
 610,85; 7269,173;  746,199;39623,322;16,77844
 611,43; 7214,872;  731,892;39526,545;16,71102
 612,01; 7090,080;  695,354;39265,911;16,57929
 612,59; 7064,714;  685,122;39413,678;16,47258
 613,16; 6989,565;  650,970;39404,399;16,35622
 613,74; 6972,721;  622,045;39147,055;16,48455
 614,32; 6902,163;  570,430;39181,665;16,39868
 614,90; 6825,008;  510,661;38991,155;16,40921
 615,48; 6735,830;  453,816;38684,228;16,43198
 616,05; 6667,372;  409,355;38686,801;16,34910
 616,63; 6644,376;  432,817;38503,836;16,31572
 617,21; 6626,439;  414,277;38347,683;16,37649
 617,79; 6551,009;  401,277;38316,994;16,21948
 618,36; 6513,084;  396,200;38153,470;16,20055
 618,94; 6374,902;  349,124;37891,123;16,05077
 619,52; 6345,407;  366,201;37661,924;16,03188
 620,10; 6318,798;  347,662;37667,762;15,99978
 620,67; 6272,556;  350,970;37468,134;15,95377
 621,25; 6269,326;  389,354;37329,951;15,91737
 621,83; 6143,680;  360,662;37274,710;15,66617
 622,41; 6187,362;  416,278;37299,613;15,64686
 622,98; 6027,024;  375,970;37073,364;15,39906
 623,56; 6049,591;  374,278;37008,718;15,49174
 624,14; 6030,698;  358,507;36823,868;15,55501
 624,72; 5984,491;  345,816;36709,748;15,50623
 625,29; 5934,309;  334,201;36910,709;15,31067
 625,87; 5956,180;  380,662;36708,475;15,34780
 626,45; 5846,634;  319,971;36631,889;15,21997
 627,02; 5789,064;  333,200;36559,101;15,06067
 627,60; 5749,651;  313,430;36456,278;15,04093
 628,18; 5742,446;  314,893;36567,752;14,97138
 628,76; 5688,839;  309,586;36546,500;14,84468
 629,33; 5697,592;  346,970;36579,543;14,76744
 629,91; 5648,874;  322,662;36589,377;14,68623
 630,49; 5683,635;  337,047;36732,868;14,69012
 631,06; 5665,818;  324,201;36869,914;14,61626
 631,64; 5620,604;  325,663;36682,871;14,56366
 632,22; 5537,739;  291,125;36696,558;14,41162
 632,79; 5589,765;  325,048;37006,933;14,35236
 633,37; 5555,825;  292,815;37049,584;14,31848
 633,95; 5552,034;  299,509;37105,321;14,27091
 634,52; 5486,063;  287,354;37261,738;14,06030
 635,10; 5531,101;  300,893;37214,434;14,16881
 635,68; 5528,055;  297,586;37462,222;14,07378
 636,25; 5477,883;  269,049;37444,839;14,01136
 636,83; 5499,378;  264,586;37635,807;14,00755
 637,41; 5506,330;  285,279;37583,008;13,99831
 637,98; 5514,532;  311,510;37886,738;13,84695
 638,56; 5469,643;  285,587;37996,721;13,74675
 639,13; 5448,483;  268,509;38017,931;13,72200
 639,71; 5579,939;  341,663;38202,232;13,83570
 640,29; 5355,791;  248,047;37942,112;13,55053
 640,86; 5388,688;  265,586;38203,469;13,50392
 641,44; 5354,124;  264,739;38142,057;13,43650
 642,02; 5359,252;  294,970;38180,337;13,36738
 642,59; 5359,150;  257,355;38337,924;13,39737
 643,17; 5288,355;  267,970;38411,666;13,16177
 643,74; 5298,944;  264,355;38386,177;13,20658
 644,32; 5321,380;  298,124;38230,688;13,24260
 644,89; 5274,662;  290,893;38330,737;13,10144
 645,47; 5255,713;  295,970;38275,248;13,05908
 646,05; 5238,149;  301,047;38199,144;13,02731
 646,62; 5170,354;  267,970;38176,962;12,93198
 647,20; 5174,713;  280,970;38458,243;12,81847
 647,77; 5101,611;  258,739;38227,215;12,75498
 648,35; 5090,662;  249,047;38133,264;12,78003
 648,92; 5093,790;  280,970;38176,083;12,70037
 649,50; 5019,457;  245,124;38084,748;12,61728
 650,08; 4990,585;  248,508;37951,028;12,57761
 650,65; 5017,405;  257,277;38129,693;12,56885
 651,23; 5021,226;  235,508;38845,896;12,39490
 651,80; 5139,815;  241,893;39880,099;12,35657
 652,38; 5203,097;  255,431;40266,764;12,36566
 652,95; 5155,302;  238,047;40564,198;12,19371
 653,53; 5229,815;  264,047;40893,632;12,22205
 654,10; 5280,943;  294,508;41011,527;12,24656
 654,68; 5133,456;  231,123;40936,115;12,04357
 655,25; 5142,815;  240,123;40927,549;12,04965
 655,83; 5133,251;  238,816;41064,983;11,98848
 656,40; 5137,994;  277,431;41097,956;11,90716
 656,98; 5087,199;  246,816;41053,774;11,86166
 657,55; 5053,789;  245,892;40850,823;11,84067
 658,13; 4999,225;  247,354;40513,257;11,80123
 658,70; 4964,353;  268,354;40338,307;11,71950
 659,28; 4873,943;  237,277;39441,279;11,82702
 659,85; 4733,455;  275,815;38656,944;11,61415
 660,43; 4751,045;  274,354;38613,840;11,67645
 661,00; 4694,712;  255,738;38758,350;11,52902
 661,58; 4698,917;  255,431;39162,015;11,42091
 662,15; 4718,045;  242,123;39258,449;11,47192
 662,73; 4806,481;  317,815;39676,499;11,40451
 663,30; 4755,763;  258,200;39816,317;11,36951
 663,88; 4740,891;  261,354;39932,290;11,29174
 664,45; 4725,942;  244,969;40214,493;11,21097
 665,03; 4755,070;  252,969;40498,465;11,18660
 665,60; 4850,429;  345,661;40980,438;11,08599
 666,17; 4738,096;  254,661;41057,026;10,98817
 666,75; 4752,762;  250,661;41476,844;10,92049
 667,32; 4786,814;  273,584;41833,355;10,85961
 667,90; 4769,096;  259,815;42040,558;10,79272
 668,47; 4798,147;  275,584;42304,992;10,76047
 669,05; 4811,660;  252,353;42670,888;10,74838
 669,62; 4784,326;  224,892;42792,476;10,71105
 670,19; 4758,070;  230,199;42808,679;10,63418
 670,77; 4783,583;  251,661;43089,651;10,57921
 671,34; 4767,095;  231,430;42909,470;10,62763
 671,92; 4779,070;  232,661;43328,288;10,54958
 672,49; 4788,121;  266,199;43277,492;10,51334
 673,06; 4749,403;  217,276;43393,310;10,49686
 673,64; 4698,916;  226,045;43290,667;10,38641
 674,21; 4701,813;  230,738;43272,332;10,38780
 674,79; 4755,556;  246,276;43567,689;10,40889
 675,36; 4722,377;  247,507;43671,508;10,30506
 675,93; 4679,197;  223,584;43539,480;10,28632
 676,51; 4680,941;  254,353;43741,607;10,17905
 677,08; 4704,531;  256,891;43814,964;10,21083
 677,65; 4689,043;  245,430;43940,474;10,16961
 678,23; 4702,710;  248,353;44134,601;10,14978
 678,80; 4665,223;  247,891;44335,881;10,01935
 679,38; 4694,197;  236,968;44460,161;10,07894
 679,95; 4683,864;  251,507;44698,210; 9,97230
 680,52; 4682,684;  232,737;45020,337; 9,93567
 681,10; 4776,351;  253,891;45252,309;10,05026
 681,67; 4735,556;  251,891;45654,743; 9,87529
 682,24; 4705,992;  223,583;45647,100; 9,86803
 682,82; 4759,658;  228,199;46216,534; 9,85350
 683,39; 4857,402;  284,430;46554,353; 9,88325
 683,96; 4851,530;  251,353;46749,633; 9,89322
 684,54; 4852,735;  216,660;47143,605; 9,87934
 685,11; 4920,786;  285,199;47620,578; 9,79307
 685,68; 4900,914;  237,276;47943,627; 9,77572
 686,25; 4866,196;  220,199;47977,523; 9,72835
 686,83; 4907,171;  242,891;48173,649; 9,73129
 687,40; 4894,453;  232,737;48641,775; 9,62985
 687,97; 4961,350;  292,275;49037,902; 9,57845
 688,55; 4852,709;  228,275;49002,028; 9,48140
 689,12; 4875,375;  205,045;49250,462; 9,52246
 689,69; 4935,273;  223,583;49361,819; 9,58864
 690,26; 4913,170;  226,814;49423,484; 9,52576
 690,84; 4890,068;  232,198;49572,841; 9,44023
 691,41; 4899,042;  252,737;49630,121; 9,40978
 691,98; 4937,709;  247,275;50012,093; 9,42520
 692,56; 4909,452;  248,583;50084,912; 9,35235
 693,13; 4966,734;  283,660;50120,038; 9,39690
 693,70; 4925,170;  256,660;50346,934; 9,32019
 694,27; 4896,144;  229,660;50424,214; 9,29679
 694,84; 4887,657;  227,352;50553,186; 9,26026
 695,42; 4951,708;  287,890;50713,082; 9,24898
 695,99; 4941,221;  250,583;50970,593; 9,24810
 696,56; 4861,888;  240,429;50747,796; 9,15007
 697,13; 4934,862;  256,967;51118,768; 9,19726
 697,71; 4908,451;  234,967;51101,895; 9,18767
 698,28; 4917,733;  229,506;51511,175; 9,14211
 698,85; 4862,323;  203,890;51588,301; 9,06585
 699,42; 4894,374;  199,121;51639,581; 9,12755
 699,99; 4934,656;  261,659;51835,861; 9,06073
 700,57; 4887,400;  243,813;51785,603; 9,00936
 701,14; 4894,297;  234,198;52064,191; 8,99112
 701,71; 4920,810;  256,967;52276,010; 8,96565
 702,28; 4886,784;  236,429;52196,597; 8,94985
 702,85; 4879,220;  240,736;52263,031; 8,91634
 703,43; 4941,194;  263,044;52545,312; 8,94787
 704,00; 4958,015;  275,813;52840,130; 8,90757
 704,57; 4937,297;  255,275;52740,564; 8,92064
 705,14; 4931,117;  278,121;53119,383; 8,80561
 705,71; 4958,861;  291,736;53002,124; 8,85428
 706,28; 4883,912;  261,736;52995,174; 8,76517
 706,86; 4948,271;  292,967;53308,531; 8,78101
 707,43; 4941,630;  323,582;53181,734; 8,73668
 708,00; 4914,989;  294,813;53179,783; 8,73627
 708,57; 4877,425;  256,659;53074,602; 8,74848
 709,14; 4910,168;  288,659;53306,498; 8,71689
 709,71; 4920,681;  266,967;53299,701; 8,77517
 710,28; 4929,117;  270,428;53487,596; 8,75411
 710,86; 4925,168;  275,120;53725,492; 8,69975
 711,43; 4996,681;  299,736;53655,618; 8,80305
 712,00; 4935,809;  262,197;53721,283; 8,74241
 712,57; 4976,706;  284,351;53918,563; 8,74881
 713,14; 4974,758;  250,582;54055,766; 8,78015
 713,71; 4927,501;  270,197;53948,123; 8,67639
 714,28; 4938,398;  246,274;53911,019; 8,74340
 714,85; 4896,604;  249,428;53726,607; 8,69002
 715,42; 4942,193;  247,812;53999,810; 8,73341
 716,00; 4992,937;  318,582;54123,167; 8,68765
 716,57; 4949,834;  254,966;54213,985; 8,70080
 717,14; 4895,808;  236,120;54124,573; 8,64691
 717,71; 4913,244;  231,274;54153,853; 8,68276
 718,28; 4974,988;  275,043;54303,595; 8,69900
 718,85; 4871,424;  225,120;54290,029; 8,59394
 719,42; 4940,936;  257,043;54456,078; 8,64202
 719,99; 4898,757;  228,966;54163,436; 8,65827
 720,56; 4911,423;  258,658;54601,023; 8,56195
 721,13; 4906,013;  228,812;54648,765; 8,59464
 721,70; 4926,064;  224,351;54471,122; 8,66727
 722,27; 4971,885;  254,197;54491,018; 8,69831
 722,84; 5042,398;  324,427;54774,221; 8,66481
 723,41; 4928,680;  234,504;54597,424; 8,63488
 723,98; 4989,269;  240,197;54852,473; 8,69598
 724,55; 5032,474;  255,350;55039,292; 8,71993
 725,12; 4960,141;  207,735;54881,726; 8,69226
 725,69; 4986,731;  226,889;55244,006; 8,65157
 726,27; 5023,936;  228,966;55288,363; 8,70872
 726,84; 5073,371;  239,196;55550,413; 8,73995
 727,41; 5078,038;  263,658;55550,154; 8,70806
 727,98; 5098,166;  253,043;55782,819; 8,72527
 728,55; 5094,064;  285,119;55635,253; 8,68823
 729,12; 5092,192;  223,427;55924,918; 8,74082
 729,69; 5150,474;  264,966;55950,583; 8,77338
 730,26; 5163,525;  258,119;56249,247; 8,76104
 730,82; 5139,192;  253,042;56026,604; 8,76069
 731,39; 5151,089;  240,735;56137,654; 8,78466
 731,96; 5177,063;  224,735;56472,857; 8,80443
 732,53; 5209,961;  246,119;56736,291; 8,78709
 733,10; 5207,935;  260,504;56820,956; 8,74716
 733,67; 5258,755;  248,273;56947,851; 8,83690
 734,24; 5245,499;  239,581;56591,285; 8,88335
 734,81; 5301,012;  268,811;56683,411; 8,92003
 735,38; 5243,294;  244,581;56442,692; 8,89481
 735,95; 5208,499;  236,965;56367,203; 8,85714
 736,52; 5240,858;  248,042;56606,483; 8,85904
 737,09; 5289,909;  254,657;56186,840; 9,00242
 737,66; 5305,960;  324,196;56445,120; 8,87684
 738,23; 5282,473;  242,888;56470,169; 8,96288
 738,80; 5418,063;  321,503;56799,065; 9,02404
 739,37; 5382,345;  275,965;56994,499; 9,00302
 739,94; 5341,088;  247,580;56972,240; 8,97935
 740,51; 5536,985;  392,273;57077,751; 9,07589
 741,07; 5382,114;  249,350;56955,801; 9,05146
 741,64; 5471,934;  287,349;57183,235; 9,11241
 742,21; 5456,139;  263,965;57294,976; 9,10412
 742,78; 5422,267;  234,273;57027,641; 9,13486
 743,35; 5461,857;  253,965;57277,152; 9,13294
 743,92; 5550,600;  298,426;57446,663; 9,19044
 744,49; 5545,729;  291,580;57263,174; 9,22240
 745,06; 5477,780;  245,119;57414,146; 9,15297
 745,63; 5519,754;  234,734;57405,273; 9,24431
 746,19; 5526,805;  256,657;57336,168; 9,23299
 746,76; 5560,087;  247,503;57463,679; 9,28511
 747,33; 5576,139;  246,965;57425,113; 9,32030
 747,90; 5631,344;  271,272;57588,239; 9,35163
 748,47; 5638,472;  271,118;57525,135; 9,37463
 749,04; 5660,754;  267,118;57555,492; 9,41489
 749,61; 5673,113;  284,426;57566,234; 9,40733
 750,17; 5685,856;  287,272;57659,360; 9,40977
 750,74; 5706,061;  273,195;57362,794; 9,51639
 751,31; 5675,574;  249,811;57369,459; 9,49894
 751,88; 5653,087;  226,887;57272,893; 9,51197
 752,45; 5713,523;  254,272;57446,634; 9,54542
 753,02; 5728,189;  272,657;57291,991; 9,56786
 753,58; 5751,087;  244,657;57051,195; 9,69330
 754,15; 5704,830;  251,657;57378,090; 9,54580
 754,72; 5677,804;  248,964;57092,601; 9,55048
 755,29; 5707,779;  224,810;56863,496; 9,68061
 755,86; 5752,368;  250,349;57029,546; 9,69020
 756,42; 5778,343;  260,195;56920,057; 9,73908
 756,99; 5718,625;  226,426;56948,029; 9,68273
 757,56; 5753,599;  235,964;56885,002; 9,74003
 758,13; 5767,650;  196,349;56812,436; 9,84049
 758,70; 5877,932;  226,810;56848,947; 9,98041
 759,26; 5829,060;  222,579;56970,227; 9,87967
 759,83; 5888,881;  229,810;57070,045; 9,95610
 760,40; 5867,394;  212,041;56890,710; 9,97792
 760,97; 5915,445;  211,348;56921,606;10,05832
 761,53; 5873,419;  192,195;56504,809;10,08872
 762,10; 5916,470;  191,656;56563,935;10,15537
 762,67; 5957,060;  223,271;56603,061;10,16994
 763,24; 5884,573;  183,810;56051,341;10,20407
 763,80; 5935,932;  223,425;56241,237;10,19766
 764,37; 5945,829;  211,964;56300,748;10,22284
 764,94; 5875,496;  196,656;55696,720;10,23213
 765,50; 5957,162;  204,271;55714,924;10,36358
 766,07; 6003,521;  246,733;55810,819;10,36063
 766,64; 5965,188;  216,194;55484,253;10,40202
 767,21; 5977,393;  214,656;55393,687;10,44371
 767,77; 5988,675;  232,656;55221,660;10,46758
 768,34; 5960,341;  244,579;55194,170;10,40183
 768,91; 6011,547;  245,271;55060,912;10,51940
 769,47; 6002,521;  243,348;55117,500;10,49524
 770,04; 6041,418;  244,579;54956,088;10,59528
 770,61; 5989,854;  223,733;54728,368;10,57914
 771,18; 5994,367;  212,271;54628,725;10,62564
 771,74; 6061,495;  238,040;54811,467;10,67086
 772,31; 6069,162;  245,040;54589,054;10,71714
 772,88; 5992,674;  213,425;54299,181;10,68534
 773,44; 6001,802;  223,425;54185,999;10,70812
 774,01; 6060,315;  236,886;54236,741;10,78416
 774,58; 6081,213;  227,655;53946,098;10,89674
 775,14; 6116,879;  212,271;54039,532;10,96955
 775,71; 6124,315;  223,809;53986,428;10,97511
 776,27; 6222,674;  276,578;53841,169;11,10080
 776,84; 6274,494;  328,425;53956,142;11,08768
 777,41; 6254,084;  240,117;53691,191;11,25135
 777,97; 6196,597;  220,886;53428,394;11,23095
 778,54; 6241,571;  248,194;53390,290;11,27802
 779,11; 6303,469;  270,194;53495,262;11,33540
 779,67; 6278,212;  222,117;53410,004;11,38623
 780,24; 6325,648;  232,578;53165,592;11,51091
 780,80; 6351,545;  250,117;53200,026;11,52302
 781,37; 6343,520;  253,270;53104,844;11,52331
 781,94; 6310,802;  245,193;52835,740;11,53365
 782,50; 6314,237;  242,193;52840,405;11,54420
 783,07; 6361,212;  257,424;52875,762;11,60011
 783,63; 6374,801;  237,116;52575,350;11,72696
 784,20; 6396,160;  265,963;52647,322;11,70301
 784,77; 6337,904;  245,809;52351,525;11,69180
 785,33; 6331,263;  220,886;52246,036;11,74504
 785,90; 6398,237;  240,193;52147,162;11,86362
 786,46; 6440,057;  261,732;52029,519;11,93469
 787,03; 6415,493;  234,116;51986,569;11,94412
 787,59; 6416,852;  236,270;51863,772;11,97149
 788,16; 6447,211;  248,962;51771,283;12,03022
 788,73; 6458,416;  251,885;51533,102;12,10293
 789,29; 6424,621;  234,962;51263,689;12,12975
 789,86; 6469,749;  268,962;51160,585;12,18430
 790,42; 6485,647;  232,039;51047,942;12,30640
 790,99; 6459,006;  244,424;50660,991;12,32647
 791,55; 6430,595;  235,193;50632,425;12,29314
 792,12; 6517,031;  272,347;50627,167;12,40136
 792,68; 6484,467;  240,270;50357,293;12,45923
 793,25; 6475,749;  248,270;50088,727;12,49483
 793,81; 6551,339;  337,808;49829,546;12,55468
 794,38; 6440,775;  217,731;49614,211;12,59815
 794,94; 6472,210;  231,962;49474,260;12,67254
 795,51; 6465,877;  253,885;49144,463;12,70591
 796,07; 6435,774;  242,116;48961,897;12,71282
 796,64; 6542,672;  265,808;49067,024;12,86211
 797,20; 6417,492;  253,654;48505,073;12,77442
 797,77; 6427,005;  215,808;48153,353;12,95685
 798,33; 6446,979;  239,962;48140,479;12,95814
 798,90; 6490,646;  260,269;47978,913;13,05648
 799,46; 6402,466;  236,808;47545,578;13,03280
 800,03; 6459,979;  254,423;47523,627;13,12812
 800,59; 6454,107;  249,423;47206,292;13,21358
 801,15; 6498,235;  257,039;47071,342;13,33182
 801,72; 6442,517;  258,577;46631,929;13,33512
 802,28; 6466,415;  279,115;46404,979;13,41395
 802,85; 6464,389;  239,423;46243,413;13,53136
 803,41; 6449,594;  249,346;46031,231;13,54302
 803,98; 6385,030;  239,500;45572,511;13,55641
 804,54; 6377,620;  244,192;45372,792;13,59100
 805,11; 6383,440;  259,423;45161,226;13,63869
 805,67; 6463,953;  272,500;45023,967;13,83520
 806,23; 6369,773;  254,269;44521,401;13,81500
 806,80; 6405,055;  275,192;44444,528;13,87810
 807,36; 6398,337;  278,346;44432,346;13,86056
 807,93; 6411,850;  288,577;44183,242;13,94993
 808,49; 6327,132;  244,269;43786,291;13,97010
 809,05; 6351,722;  231,423;43577,648;14,11957
 809,62; 6378,158;  268,577;43471,005;14,14175
 810,18; 6372,593;  255,730;43466,285;14,15595
 810,74; 6368,645;  226,807;43140,412;14,31210
 811,31; 6361,542;  230,807;43011,999;14,33044
 811,87; 6391,747;  256,115;42790,357;14,42516
 812,44; 6440,721;  286,807;42823,867;14,46718
 813,00; 6378,619;  201,499;42559,148;14,58324
 813,56; 6440,670;  244,115;42621,812;14,62221
 814,13; 6470,106;  239,576;42495,708;14,74468
 814,69; 6421,465;  239,730;42243,603;14,71706
 815,25; 6410,593;  208,115;41902,037;14,87622
 815,82; 6447,567;  260,345;41795,087;14,89650
 816,38; 6543,311;  295,038;41620,982;15,11949
 816,94; 6398,131;  229,576;41280,955;15,02643
 817,51; 6411,259;  219,961;41041,081;15,16690
 818,07; 6403,618;  230,268;40799,746;15,21673
 818,63; 6410,285;  236,884;40584,410;15,30057
 819,20; 6449,182;  239,961;40555,537;15,40154
 819,76; 6372,310;  228,345;40167,509;15,38331
 820,32; 6421,746;  270,191;40100,482;15,44441
 820,89; 6380,105;  253,884;39798,685;15,49185
 821,45; 6378,387;  228,961;39533,427;15,64562
 822,01; 6387,823;  244,961;39248,014;15,74970
 822,57; 6391,951;  255,037;39209,295;15,75415
 823,14; 6334,541;  212,807;38894,959;15,82573
 823,70; 6328,900;  218,422;38650,086;15,89959
 824,26; 6337,182;  229,499;38514,673;15,95313
 824,82; 6377,079;  259,422;38380,338;16,04803
 825,39; 6339,823;  229,037;38013,541;16,17273
 825,95; 6369,412;  249,576;38114,745;16,16218
 826,51; 6323,156;  242,653;37663,409;16,24901
 827,08; 6412,976;  281,191;37770,459;16,35611
 827,64; 6391,027;  247,729;37523,277;16,48077
 828,20; 6355,233;  230,037;37271,634;16,53599
 828,76; 6389,514;  265,652;37345,145;16,51550
 829,32; 6453,873;  274,268;37065,579;16,79637
 829,89; 6416,848;  208,268;36921,090;16,91120
 830,45; 6433,360;  248,037;36847,524;16,90003
 831,01; 6448,181;  238,114;36699,112;17,03208
 831,57; 6464,771;  239,575;36600,392;17,12061
 832,14; 6469,283;  244,268;36474,595;17,18178
 832,70; 6479,796;  216,883;36269,337;17,37167
 833,26; 6479,309;  201,806;36224,694;17,42643
 833,82; 6502,514;  233,421;36114,205;17,47201
 834,38; 6522,565;  217,421;36174,101;17,53539
 834,95; 6507,155;  218,729;36036,535;17,55670
 835,51; 6484,591;  192,498;35837,584;17,65206
 836,07; 6584,027;  231,344;35939,172;17,79073
 836,63; 6567,616;  247,883;35878,298;17,73691
 837,19; 6578,667;  252,806;35736,886;17,82732
 837,75; 6498,488;  200,652;35462,012;17,86045
 838,32; 6578,616;  258,113;35601,369;17,88319
 838,88; 6658,052;  256,037;35604,495;18,11116
 839,44; 6654,565;  248,806;35466,314;18,18913
 840,00; 6673,847;  251,113;35435,440;18,25453
 840,56; 6599,436;  226,190;35080,797;18,28523
 841,12; 6648,872;  222,652;35015,385;18,47001
 841,68; 6607,539;  209,806;34833,896;18,47769
 842,25; 6680,513;  228,729;34901,484;18,60765
 842,81; 6644,026;  211,344;34620,072;18,69491
 843,37; 6685,615;  201,421;34701,506;18,79472
 843,93; 6732,667;  220,729;34458,478;19,01976
 844,49; 6761,487;  238,267;34559,143;19,00657
 845,05; 6732,308;  202,190;34365,500;19,11442
 845,61; 6823,590;  245,036;34503,857;19,20251
 846,17; 6755,718;  221,498;34338,214;19,15255
 846,73; 6817,154;  232,575;34276,264;19,34156
 847,29; 6763,359;  211,882;34110,851;19,32648
 847,86; 6794,871;  216,805;33952,055;19,49909
 848,42; 6770,615;  219,190;33779,566;19,52131
 848,98; 6832,128;  236,267;33691,307;19,71560
 849,54; 6854,717;  214,190;33850,203;19,74231
 850,10; 6876,846;  242,728;33689,714;19,83472
 850,66; 6840,204;  210,574;33424,686;19,96028
 851,22; 6888,486;  199,574;33423,812;20,13263
 851,78; 6916,461;  256,959;33446,939;20,06480
 852,34; 6872,127;  240,728;33199,757;20,12013
 852,90; 6885,563;  224,805;33124,268;20,24580
 853,46; 6887,153;  218,805;32893,779;20,40812
 854,02; 6906,435;  234,113;32900,213;20,42583
 854,58; 6907,871;  218,113;32651,801;20,62596
 855,14; 6900,768;  224,113;32503,927;20,68369
 855,70; 6871,281;  186,728;32436,823;20,72723
 856,26; 6931,101;  225,728;32374,795;20,85713
 856,82; 6930,460;  230,805;32171,306;20,97542
 857,38; 6978,973;  268,189;32077,740;21,09676
 857,94; 6923,563;  221,420;31949,559;21,12366
 858,50; 6982,306;  250,035;31825,531;21,32119
 859,06; 6947,742;  217,959;31667,196;21,39888
 859,62; 7000,255;  238,420;31613,399;21,55168
 860,18; 6922,614;  231,189;31378,064;21,48345
 860,74; 6900,511;  191,266;31234,882;21,61232
 861,30; 6908,485;  193,497;31190,163;21,66358
 861,86; 7020,690;  286,805;31166,597;21,80677
 862,42; 6951,742;  218,497;30958,415;21,90391
 862,98; 7026,870;  251,881;30923,618;22,08870
 863,54; 6961,844;  221,574;30667,822;22,13826
 864,10; 6949,280;  221,958;30784,179;22,01189
 864,66; 6950,716;  201,112;30474,613;22,29542
 865,22; 6989,921;  225,420;30385,508;22,42865
 865,78; 6976,357;  237,112;30299,865;22,41726
 866,34; 6971,869;  208,958;30246,992;22,51449
 866,90; 6970,998;  232,112;30103,272;22,55984
 867,45; 6937,741;  233,958;29852,475;22,63376
 868,01; 6967,638;  236,343;29685,986;22,85697
 868,57; 6969,459;  229,650;29551,727;22,98544
 869,13; 6912,741;  201,650;29420,085;22,96869
 869,69; 6954,946;  217,189;29280,826;23,18277
 870,25; 6939,766;  191,112;29178,491;23,28136
 870,81; 6947,664;  218,342;29103,156;23,29709
 871,37; 6959,869;  240,112;28996,359;23,36799
 871,93; 7028,766;  247,189;28885,178;23,68036
 872,49; 6978,279;  273,804;28570,919;23,69314
 873,04; 6908,330;  203,958;28394,045;23,78273
 873,60; 6901,689;  206,188;28346,941;23,79290
 874,16; 6909,125;  237,650;28232,375;23,83119
 874,72; 6904,279;  217,727;28196,144;23,89896
 875,28; 6936,048;  229,958;28072,067;24,08614
 875,84; 6933,740;  224,804;27981,837;24,17022
 876,40; 6938,125;  216,727;27949,144;24,23661
 876,95; 6963,971;  229,265;27904,990;24,33434
 877,51; 7009,587;  263,265;27900,606;24,41017
 878,07; 6991,971;  266,265;27896,606;24,34174
 878,63; 7010,971;  220,342;27927,913;24,50821
 879,19; 7085,048;  243,342;27907,606;24,73121
 879,75; 7113,663;  222,419;27940,606;24,86181
 880,30; 7095,740;  215,112;27936,990;24,82021
 880,86; 7252,433;  263,727;28103,990;25,10287
 881,42; 7188,510;  203,881;28077,298;25,05839
 881,98; 7279,125;  237,188;28188,221;25,19383
 882,54; 7325,663;  221,804;28279,067;25,31915
 883,09; 7420,740;  239,342;28396,452;25,50474
 883,65; 7465,663;  213,419;28461,221;25,67366
 884,21; 7580,048;  267,804;28696,221;25,72160
 884,77; 7568,894;  219,958;28725,298;25,78091
 885,32; 7648,740;  222,342;28812,298;25,97555
 885,88; 7760,279;  270,265;29006,837;26,06440
 886,44; 7784,356;  228,342;29103,760;26,16763
 887,00; 7862,433;  249,650;29041,913;26,44038
 887,56; 7908,894;  223,650;29237,067;26,48859
 888,11; 7958,894;  237,804;29266,298;26,59832
 888,67; 8005,817;  250,265;29413,375;26,59371
 889,23; 8059,587;  233,188;29495,913;26,74528
 889,79; 8063,202;  210,958;29259,760;27,03122
 890,34; 8084,587;  237,112;29289,837;27,01115
 890,90; 8241,587;  312,342;29409,760;27,25068
 891,46; 8183,894;  218,881;29309,990;27,37955
 892,01; 8205,048;  244,035;29297,144;27,40159
 892,57; 8221,971;  262,496;29222,990;27,48391
 893,13; 8216,894;  246,573;29041,221;27,67987
 893,69; 8192,663;  212,419;29061,990;27,66157
 894,24; 8230,740;  226,727;28902,221;27,91238
 894,80; 8223,817;  221,804;28724,067;28,07501
 895,36; 8145,433;  233,804;28604,144;27,88697
 895,91; 8142,048;  230,881;28422,452;28,06217
 896,47; 8203,894;  250,188;28324,298;28,33111
 897,03; 8147,663;  230,342;28097,067;28,41138
 897,58; 8134,740;  239,112;27986,529;28,45536
 898,14; 8125,587;  238,958;27858,683;28,55434
 898,70; 8093,740;  204,727;27646,683;28,74800
 899,25; 8145,817;  220,112;27692,913;28,84928
 899,81; 8125,663;  243,573;27417,221;29,00638
 900,37; 8061,587;  201,496;27214,144;29,09782
 900,92; 8077,817;  236,958;27294,298;28,97868
 901,48; 8089,125;  221,573;27185,221;29,17837
 902,03; 8033,817;  232,727;26943,375;29,20592
 902,59; 8025,202;  214,881;26881,298;29,28898
 903,15; 8045,971;  237,188;26732,067;29,47280
 903,70; 7980,202;  229,650;26462,144;29,54562
 904,26; 8026,740;  216,342;26371,837;29,86141
 904,82; 8053,125;  218,496;26383,760;29,94286
 905,37; 8012,048;  236,804;26159,606;29,99384
 905,93; 7982,202;  216,112;26090,452;30,01464
 906,48; 7987,048;  240,419;26039,452;30,02682
 907,04; 7986,433;  242,342;25951,221;30,12224
 907,60; 7923,048;  236,188;25645,452;30,25219
 908,15; 7882,510;  218,035;25557,221;30,24752
 908,71; 7919,740;  243,804;25510,452;30,37972
 909,26; 7892,971;  234,419;25440,837;30,38334
 909,82; 7889,125;  237,035;25346,913;30,47442
 910,37; 7959,202;  264,958;25194,298;30,86421
 910,93; 7842,048;  211,958;24943,529;30,85162
 911,48; 7844,587;  219,188;24847,837;30,96150
 912,04; 7806,663;  215,265;24681,529;31,02802
 912,60; 7846,433;  221,573;24733,375;31,10689
 913,15; 7801,663;  221,804;24549,298;31,15758
 913,71; 7799,587;  212,650;24407,144;31,35811
 914,26; 7757,279;  205,112;24294,221;31,35096
 914,82; 7786,279;  234,881;24241,529;31,45545
 915,37; 7729,279;  218,573;24162,606;31,36776
 915,93; 7807,740;  275,573;23994,375;31,75610
 916,48; 7732,740;  218,112;23872,760;31,76809
 917,04; 7718,663;  238,112;23744,067;31,82407
 917,59; 7760,894;  254,881;23735,375;31,96702
 918,15; 7620,356;  187,188;23463,606;31,93433
 918,70; 7635,433;  220,881;23407,452;31,97779
 919,26; 7648,817;  227,881;23336,760;32,11292
 919,81; 7624,202;  204,419;23087,067;32,42537
 920,37; 7607,894;  220,419;23111,067;32,27290
 920,92; 7578,510;  242,727;23051,606;32,16196
 921,48; 7520,048;  210,112;22784,990;32,38085
 922,03; 7578,894;  207,804;22802,375;32,62328
 922,59; 7518,663;  227,650;22563,760;32,64227
 923,14; 7509,510;  218,804;22489,529;32,73672
 923,69; 7572,048;  242,035;22474,375;32,97005
 924,25; 7539,125;  244,650;22413,606;32,90401
 924,80; 7494,817;  223,804;22212,529;33,06701
 925,36; 7452,740;  219,881;22110,760;33,04052
 925,91; 7440,433;  211,573;21957,221;33,24279
 926,47; 7395,587;  209,881;21860,298;33,18969
 927,02; 7472,433;  302,035;21856,913;33,26578
 927,57; 7361,048;  217,188;21696,760;33,25886
 928,13; 7364,894;  210,188;21592,990;33,46009
 928,68; 7367,971;  220,035;21514,375;33,56731
 929,24; 7281,202;  191,727;21244,298;33,67510
 929,79; 7246,048;  214,112;21192,606;33,51974
 930,34; 7227,587;  225,419;21055,375;33,61585
 930,90; 7279,510;  213,727;20958,067;34,06126
 931,45; 7262,356;  221,342;20992,683;33,89773
 932,01; 7216,125;  223,265;20861,683;33,88273
 932,56; 7217,048;  248,035;20724,606;34,03408
 933,11; 7244,433;  251,958;20727,529;34,15033
 933,67; 7154,125;  220,496;20524,913;34,14838
 934,22; 7153,894;  233,881;20393,375;34,32632
 934,77; 7181,048;  252,804;20296,067;34,56645
 935,33; 7107,587;  221,342;20167,221;34,52465
 935,88; 7117,587;  239,650;20108,990;34,61583
 936,43; 7103,510;  217,342;20009,452;34,79249
 936,99; 7060,510;  225,804;19949,529;34,65221
 937,54; 7014,356;  211,881;19729,375;34,85322
 938,09; 7062,971;  230,496;19758,913;34,98735
 938,65; 7006,433;  232,727;19549,837;35,06583
 939,20; 6997,048;  199,573;19499,298;35,22058
 939,75; 7011,817;  213,188;19381,452;35,46815
 940,31; 6966,817;  200,958;19279,221;35,46371
 940,86; 7002,279;  221,727;19287,683;35,56366
 941,41; 7063,356;  315,342;19231,760;35,67279
 941,96; 6949,740;  216,112;19048,452;35,75567
 942,52; 6919,125;  216,650;18962,144;35,75513
 943,07; 6919,048;  199,881;18841,221;36,04444
 943,62; 6876,125;  216,958;18721,683;35,98631
 944,18; 6827,587;  193,419;18682,837;35,88089
 944,73; 6856,587;  220,342;18634,760;36,03831
 945,28; 6789,894;  179,419;18410,452;36,25947
 945,83; 6807,663;  207,727;18356,067;36,36661
 946,39; 6831,433;  213,265;18309,452;36,57217
 946,94; 6837,663;  237,958;18258,144;36,62396
 947,49; 6800,971;  207,804;18111,606;36,82552
 948,04; 6877,356;  261,342;18148,913;36,98665
 948,59; 6811,817;  240,727;17995,606;37,01005
 949,15; 6773,510;  202,650;17898,067;37,13311
 949,70; 6776,279;  214,881;17852,913;37,20028
 950,25; 6769,587;  224,727;17730,452;37,38697
 950,80; 6726,971;  183,112;17598,375;37,57543
 951,36; 6704,048;  181,881;17631,683;37,37674
 951,91; 6754,817;  224,881;17571,375;37,64413
 952,46; 6669,740;  210,573;17321,144;37,74957
 953,01; 6701,356;  229,573;17340,913;37,82160
 953,56; 6636,740;  190,188;17219,760;37,85505
 954,11; 6673,663;  224,419;17161,606;38,07742
 954,67; 6696,048;  209,419;17025,760;38,57337
 955,22; 6634,279;  197,035;16903,067;38,53245
 955,77; 6644,510;  240,419;16948,067;38,33029
 956,32; 6638,433;  276,804;16835,683;38,41823
 956,87; 6577,510;  204,342;16721,144;38,58596
 957,42; 6592,202;  211,265;16624,990;38,87562
 957,98; 6555,587;  211,112;16500,837;38,94771
 958,53; 6601,894;  245,112;16541,990;39,00614
 959,08; 6566,817;  195,958;16369,144;39,39149
 959,63; 6523,587;  218,419;16277,298;39,26281
 960,18; 6544,356;  225,958;16233,375;39,47169
 960,73; 6542,587;  220,496;16162,913;39,65578
 961,28; 6489,279;  192,419;16069,144;39,66095
 961,83; 6497,202;  221,419;16084,990;39,56097
 962,39; 6478,817;  191,881;15888,298;40,05332
 962,94; 6384,510;  244,035;15752,683;39,59388
 963,49; 6408,817;  225,650;15728,683;39,88360
 964,04; 6373,971;  225,881;15720,221;39,67959
 964,59; 6344,279;  182,112;15514,375;40,19085
 965,14; 6366,048;  236,342;15509,913;40,13276
 965,69; 6270,663;  217,804;15353,837;39,98974
 966,24; 6240,356;  202,496;15263,606;40,08908
 966,79; 6271,587;  226,035;15219,375;40,32158
 967,34; 6153,663;  188,112;15061,067;40,11006
 967,89; 6168,048;  205,112;15009,606;40,27788
 968,44; 6172,356;  218,650;14912,298;40,51891
 968,99; 6146,587;  225,650;14862,452;40,45239
 969,55; 6105,663;  219,958;14754,529;40,49453
 970,10; 6063,433;  231,112;14645,529;40,46172
 970,65; 6037,740;  244,650;14603,529;40,34500
 971,20; 5982,587;  209,650;14477,452;40,46129
 971,75; 5959,356;  190,727;14310,221;40,85578
 972,30; 5919,971;  219,496;14272,067;40,56535
 972,85; 5866,202;  213,650;14228,144;40,33361
 973,40; 5839,202;  207,881;14061,606;40,64843
 973,95; 5839,894;  223,496;14010,298;40,73750
 974,50; 5843,433;  256,035;13902,529;40,94383
 975,05; 5785,817;  218,265;13838,837;40,87605
 975,60; 5794,356;  232,265;13767,144;41,09450
 976,15; 5746,356;  203,265;13668,144;41,16703
 976,70; 5737,279;  218,573;13569,913;41,33447
 977,25; 5730,433;  231,188;13530,221;41,35071
 977,80; 5658,971;  212,419;13381,683;41,35806
 978,35; 5616,663;  236,727;13185,606;41,54751
 978,89; 5564,279;  197,112;13128,760;41,50412
 979,44; 5592,971;  227,265;13108,375;41,65562
 979,99; 5516,894;  213,573;12933,606;41,69267
 980,54; 5496,279;  236,342;12832,990;41,75664
 981,09; 5510,587;  237,265;12713,760;42,26605
 981,64; 5438,817;  219,035;12605,913;42,13961
 982,19; 5456,740;  259,112;12582,067;42,17843
 982,74; 5394,356;  235,188;12442,683;42,26230
 983,29; 5300,587;  205,573;12301,606;42,12136
 983,84; 5321,433;  217,342;12210,452;42,55852
 984,39; 5392,202;  310,727;12187,837;42,78377
 984,94; 5188,510;  189,573;12031,529;42,21377
 985,49; 5230,587;  245,188;11977,760;42,49195
 986,03; 5218,356;  238,804;11891,221;42,73407
 986,58; 5173,202;  274,265;11750,606;42,68727
 987,13; 5152,894;  230,573;11627,452;43,19008
 987,68; 5114,125;  235,419;11578,913;43,00884
 988,23; 5085,510;  237,265;11425,837;43,33211
 988,78; 5040,971;  208,958;11294,375;43,58892
 989,33; 4988,048;  233,727;11213,760;43,29970
 989,88; 5025,356;  257,035;11183,760;43,63907
 990,42; 4933,202;  215,265;11048,375;43,55108
 990,97; 4907,048;  226,419;10869,990;43,97611
 991,52; 4861,817;  247,496;10839,375;43,56471
 992,07; 4853,740;  267,342;10761,760;43,70322
 992,62; 4774,433;  230,804;10614,913;43,75559
 993,17; 4789,587;  241,727;10543,298;44,14724
 993,71; 4716,202;  248,112;10428,990;43,88708
 994,26; 4642,740;  221,112;10257,144;44,05754
 994,81; 4655,587;  246,881;10238,529;44,12391
 995,36; 4509,279;  223,035;10079,144;43,48820
 995,91; 4563,894;  238,727;10039,837;44,12936
 996,45; 4523,663;  222,188; 9938,298;44,27158
 997,00; 4447,740;  200,496; 9753,837;44,45821
 997,55; 4452,202;  236,342; 9709,067;44,50525
 998,10; 4400,125;  261,188; 9612,375;44,26108
 998,65; 4353,740;  229,496; 9535,760;44,31687
 999,19; 4308,125;  252,650; 9417,606;44,24980
 999,74; 4294,971;  273,573; 9292,683;44,58753
1000,29; 4236,125;  232,881; 9223,606;44,52638
1000,84; 4149,279;  220,265; 9081,606;44,33882
1001,38; 4109,894;  228,342; 9033,529;44,08256
1001,93; 4089,663;  245,035; 8918,144;44,32815
1002,48; 4001,587;  218,804; 8759,144;44,29311
1003,03; 4021,433;  249,035; 8755,221;44,34888
1003,57; 3934,433;  239,727; 8630,144;44,03483
1004,12; 3958,663;  281,958; 8567,144;44,37686
1004,67; 3837,663;  232,881; 8431,760;43,96678
1005,22; 3804,663;  224,727; 8295,529;44,35664
1005,76; 3723,356;  211,112; 8157,144;44,20123
1006,31; 3732,587;  244,650; 8153,221;44,10325
1006,86; 3628,125;  221,804; 7995,606;43,81796
1007,40; 3633,202;  224,342; 7862,067;44,63187
1007,95; 3588,510;  233,342; 7785,067;44,42915
1008,50; 3519,433;  242,727; 7646,144;44,25937
1009,04; 3500,279;  231,496; 7607,221;44,31812
1009,59; 3446,894;  244,265; 7390,837;44,81350
1010,14; 3366,433;  221,958; 7335,683;44,20293
1010,68; 3341,971;  247,035; 7225,375;44,35061
1011,23; 3326,510;  238,650; 7128,298;44,81883
1011,78; 3287,433;  241,804; 7045,298;44,76566
1012,32; 3269,587;  273,112; 7006,067;44,50460
1012,87; 3266,356;  259,496; 6934,683;45,04533
1013,42; 3142,433;  214,035; 6801,067;44,45701
1013,96; 3198,279;  269,112; 6798,606;44,86055
1014,51; 3131,971;  200,573; 6707,760;45,04863
1015,06; 3141,048;  213,650; 6650,529;45,47853
1015,60; 3214,433;  269,035; 6763,760;45,35062
1016,15; 3152,587;  212,265; 6685,144;45,42525
1016,69; 3167,279;  227,727; 6729,683;45,21027
1017,24; 3198,817;  209,496; 6737,760;45,79045
1017,79; 3279,279;  268,727; 6799,298;46,09937
1018,33; 3236,894;  224,419; 6773,837;45,99608
1018,88; 3265,587;  241,573; 6855,067;45,72490
1019,42; 3253,663;  221,573; 6823,298;45,92876
1019,97; 3275,894;  212,573; 6828,067;46,30525
1020,51; 3330,510;  264,496; 6893,221;46,25344
1021,06; 3280,125;  203,035; 6810,144;46,57241
1021,61; 3251,587;  194,188; 6830,760;46,06894
1022,15; 3210,510;  176,342; 6789,913;45,87790
1022,70; 3274,587;  225,881; 6764,837;46,62374
1023,24; 3238,048;  206,419; 6717,067;46,56416
1023,79; 3189,740;  222,342; 6647,529;46,18384
1024,33; 3186,510;  219,496; 6598,606;46,51140
1024,88; 3165,202;  229,958; 6522,452;46,64675
1025,42; 3116,048;  234,881; 6438,144;46,44599
1025,97; 3052,048;  217,265; 6336,298;46,32730
1026,51; 2976,510;  183,419; 6218,683;46,27951
1027,06; 2979,817;  210,112; 6161,837;46,53619
1027,60; 2951,510;  229,342; 6089,375;46,45311
1028,15; 2942,125;  242,188; 5973,144;47,11145
1028,69; 2849,587;  180,881; 5842,144;47,13976
1029,24; 2803,433;  202,804; 5803,452;46,43443
1029,78; 2760,663;  211,573; 5682,375;46,59446
1030,33; 2701,740;  203,035; 5578,067;46,48727
1030,87; 2716,125;  218,112; 5510,913;47,19643
1031,42; 2678,048;  198,265; 5445,760;47,25651
1031,96; 2659,433;  237,881; 5380,760;47,08553
1032,51; 2590,894;  210,958; 5291,298;46,84601
1033,05; 2585,510;  225,342; 5215,683;47,29472
1033,60; 2491,817;  192,727; 5095,683;46,89193
1034,14; 2491,356;  204,496; 5053,683;47,15965
1034,69; 2482,587;  216,881; 4969,221;47,67558
1035,23; 2444,894;  217,958; 4896,683;47,59708
1035,77; 2445,356;  220,958; 4843,221;48,12357
1036,32; 2387,740;  185,958; 4749,067;48,25180
1036,86; 2372,202;  224,804; 4717,606;47,79641
1037,41; 2343,048;  239,496; 4641,298;47,78843
1037,95; 2289,048;  194,265; 4572,529;47,84506
1038,50; 2266,663;  209,650; 4526,913;47,64623
1039,04; 2245,433;  226,188; 4475,760;47,51642
1039,58; 2187,125;  196,112; 4386,067;47,51872
1040,13; 2167,433;  209,727; 4335,144;47,45473
1040,67; 2164,510;  253,419; 4329,606;46,88427
1041,21; 2162,048;  249,496; 4212,606;48,25887
1041,76; 2064,663;  205,112; 4137,913;47,28313
1042,30; 2074,894;  212,188; 4111,067;47,77542
1042,85; 2014,048;  210,265; 4038,298;47,12036
1043,39; 1991,971;  204,881; 3958,221;47,61333
1043,93; 2019,356;  236,419; 3959,990;47,88244
1044,48; 1967,510;  227,958; 3868,298;47,78542
1045,02; 1935,894;  208,650; 3796,298;48,14419
1045,56; 1961,125;  242,881; 3765,144;48,78239
1046,11; 1909,663;  216,958; 3727,683;48,21528
1046,65; 1863,356;  229,727; 3693,760;47,15974
1047,19; 1820,433;  204,958; 3608,760;47,46090
1047,74; 1795,817;  188,496; 3572,529;47,49721
1048,28; 1804,202;  218,650; 3489,144;48,48050
1048,82; 1824,663;  250,727; 3482,067;48,70847
1049,37; 1777,663;  238,573; 3426,452;48,27945
1049,91; 1751,433;  229,112; 3396,298;48,06541
1050,45; 1716,740;  231,035; 3336,760;47,83765
1050,99; 1704,971;  227,342; 3293,606;48,18989
1051,54; 1658,202;  205,727; 3239,606;47,87518
1052,08; 1693,048;  238,727; 3191,375;49,25481
1052,62; 1657,817;  232,188; 3154,990;48,77610
1053,16; 1611,048;  219,112; 3093,837;48,41982
1053,71; 1606,587;  228,035; 3072,683;48,46125
1054,25; 1595,125;  230,035; 2999,990;49,28203
1054,79; 1573,817;  228,035; 2992,221;48,68639
1055,33; 1521,894;  196,573; 2899,913;49,02532
1055,88; 1530,587;  219,804; 2909,606;48,73157
1056,42; 1521,740;  240,188; 2868,837;48,75327
1056,96; 1507,894;  241,804; 2811,067;49,27834
1057,50; 1481,125;  228,496; 2782,606;49,04366
1058,05; 1458,587;  220,727; 2720,990;49,50917
1058,59; 1457,125;  255,112; 2713,067;48,90297
1059,13; 1395,587;  203,958; 2657,837;48,56103
1059,67; 1421,971;  233,419; 2638,298;49,42253
1060,21; 1377,279;  232,804; 2584,375;48,66853
1060,76; 1377,894;  231,496; 2549,221;49,46221
1061,30; 1384,279;  243,650; 2509,221;50,34619
1061,84; 1330,894;  232,804; 2471,529;49,04981
1062,38; 1292,817;  206,650; 2390,452;49,73745
1062,92; 1327,125;  275,727; 2431,221;48,77759
1063,46; 1263,510;  240,804; 2367,529;48,08829
1064,01; 1242,740;  219,112; 2318,375;48,76133
1064,55; 1242,048;  234,265; 2290,837;49,00305
1065,09; 1202,048;  212,804; 2254,913;48,44227
1065,63; 1242,587;  258,727; 2261,990;49,11284
1066,17; 1236,202;  275,573; 2229,990;49,15168
1066,71; 1204,740;  261,573; 2204,913;48,53330
1067,25; 1181,125;  226,419; 2139,452;49,90536
1067,80; 1184,510;  245,804; 2142,452;49,49288
1068,34; 1189,740;  274,342; 2126,221;49,43078
1068,88; 1111,510;  226,958; 2069,837;47,99838
1069,42; 1145,433;  252,881; 2093,683;48,48712
1069,96; 1114,356;  227,804; 2022,990;49,38495
1070,50; 1148,433;  269,650; 2030,375;49,91028
1071,04; 1067,817;  224,573; 1976,375;48,13582
1071,58; 1071,971;  224,573; 1945,837;49,23117
1072,12; 1082,587;  231,265; 1955,529;49,37303
1072,66; 1050,587;  225,727; 1906,837;49,06638
1073,21; 1082,894;  251,342; 1913,606;50,02528
1073,75; 1043,740;  237,727; 1859,221;49,70807
1074,29; 1027,202;  236,881; 1834,221;49,47732
1074,83; 1028,202;  252,727; 1831,606;49,11555
1075,37; 1033,202;  259,419; 1789,298;50,57804
1075,91;  997,740;  249,112; 1781,529;48,85281
1076,45;  985,202;  250,727; 1764,452;48,52103
1076,99;  988,356;  249,573; 1732,375;49,82342
1077,53;  954,433;  226,419; 1698,760;49,44600
1078,07;  963,202;  242,727; 1700,144;49,43505
1078,61;  927,433;  244,188; 1684,529;47,43630
1079,15;  939,279;  236,035; 1652,298;49,65490
1079,69;  925,048;  236,727; 1634,221;49,25395
1080,23;  924,971;  271,727; 1651,837;47,33278
1080,77;  969,740;  303,188; 1674,452;48,60860
1081,31;  896,740;  230,650; 1580,067;49,36133
1081,85;  914,125;  259,804; 1603,760;48,68621
1082,39;  873,817;  236,419; 1540,913;48,86170
1082,93;  884,510;  249,573; 1540,606;49,18052
1083,47;  845,279;  234,035; 1491,529;48,60811
1084,01;  855,663;  245,342; 1497,375;48,74642
1084,55;  828,125;  235,342; 1470,375;47,99733
1085,09;  835,510;  249,265; 1468,760;48,07274
1085,63;  840,663;  242,804; 1445,298;49,71829
1086,17;  814,125;  240,419; 1409,144;49,08817
1086,71;  804,817;  219,573; 1393,913;49,83600
1087,24;  829,279;  258,958; 1399,529;50,00312
1087,78;  830,817;  266,727; 1404,606;49,57385
1088,32;  780,817;  223,881; 1352,606;49,34209
1088,86;  790,663;  252,804; 1361,298;48,52164
1089,40;  783,587;  242,112; 1338,683;49,37892
1089,94;  740,740;  218,804; 1302,529;48,16135
1090,48;  748,894;  240,650; 1276,221;49,07864
1091,02;  774,817;  256,727; 1300,990;49,61300
1091,56;  741,971;  235,573; 1257,067;49,57425
1092,10;  729,663;  212,496; 1237,837;50,43860
1092,63;  753,048;  262,881; 1258,990;49,20817
1093,17;  730,740;  239,650; 1245,298;48,83322
1093,71;  707,125;  229,496; 1209,683;48,72836
1094,25;  733,433;  269,573; 1226,683;48,46463
1094,79;  685,894;  236,188; 1192,760;47,01227
1095,33;  709,279;  243,958; 1179,529;49,73659
1095,87;  694,894;  233,573; 1156,067;50,00803
1096,40;  662,356;  216,573; 1132,913;48,64816
1096,94;  701,740;  244,958; 1138,683;51,10998
1097,48;  694,971;  255,958; 1142,760;49,50524
1098,02;  651,663;  232,958; 1094,529;48,59793
1098,56;  613,433;  217,419; 1069,067;46,49966
1099,10;  630,125;  221,573; 1062,144;48,60409
1099,63;  628,202;  212,958; 1043,837;49,97651
1100,17;  641,971;  240,496; 1067,529;48,54403
1100,71;  671,202;  271,727; 1064,913;50,36331

