
Integration time [ms]: 160,000
Averaging Nr. [scans]: 13
Smoothing Nr. [pixels]: 0
Data measured with spectrometer [name]: 2009305U1
Wave   ;Sample   ;Dark     ;Reference;Reflectance
[nm]   ;[counts] ;[counts] ;[counts] ;[%]

 175,72;  219,234;  191,519;  191,486; 0,00000
 176,32;  241,376;  226,381;  214,940; 0,00000
 176,92;  282,016;  241,524;  244,812;1231,59780
 177,52;  267,772;  247,676;  245,839; 0,00000
 178,12;  238,440;  222,611;  217,278; 0,00000
 178,72;  273,120;  259,077;  248,897; 0,00000
 179,32;  255,055;  243,304;  231,741; 0,00000
 179,92;  256,247;  248,144;  237,554; 0,00000
 180,52;  247,477;  228,126;  237,935;197,27735
 181,12;  269,273;  232,682;  237,833;710,26254
 181,73;  290,747;  263,757;  264,029; 0,00000
 182,33;  390,528;  317,286;  327,322;729,81385
 182,93;  280,875;  258,060;  265,199;319,61415
 183,53;  242,184;  223,541;  225,512;946,14580
 184,13;  243,928;  226,770;  231,532;360,27592
 184,73;  298,338;  254,697;  264,670;437,59209
 185,33;  266,089;  232,099;  346,488;29,71421
 185,93;  271,526;  234,572;  343,963;33,78110
 186,53;  291,705;  246,720;  358,116;40,38285
 187,13;  320,165;  264,246;  412,664;37,67688
 187,73;  270,205;  228,801;  351,876;33,64109
 188,33;  272,282;  231,269;  359,775;31,91536
 188,93;  294,566;  241,675;  374,002;39,97022
 189,53;  281,042;  236,613;  379,198;31,15918
 190,13;  322,492;  276,331;  414,750;33,34875
 190,73;  264,017;  219,314;  352,281;33,61941
 191,34;  296,592;  248,296;  381,720;36,19741
 191,94;  271,783;  221,276;  358,118;36,90889
 192,54;  301,190;  259,775;  371,233;37,15762
 193,14;  294,127;  247,555;  368,494;38,50877
 193,74;  296,781;  243,865;  364,133;43,99835
 194,34;  297,845;  238,014;  369,577;45,47696
 194,94;  257,614;  207,324;  338,161;38,43712
 195,54;  215,448;  189,329;  331,243;18,40446
 196,14;  254,998;  216,165;  357,725;27,43258
 196,74;  262,115;  215,486;  327,390;41,66829
 197,34;  232,203;  195,926;  336,271;25,84808
 197,94;  265,627;  224,630;  362,240;29,79184
 198,54;  274,755;  226,165;  386,988;30,21331
 199,14;  244,779;  218,614;  377,550;16,46263
 199,74;  239,292;  191,614;  370,422;26,66447
 200,34;  237,190;  183,689;  369,521;28,78960
 200,94;  269,229;  218,082;  405,289;27,32092
 201,54;  258,459;  202,847;  404,126;27,62932
 202,14;  284,869;  220,609;  436,391;29,77983
 202,74;  243,613;  209,153;  447,622;14,45035
 203,34;  237,061;  192,066;  473,783;15,97170
 203,94;  213,587;  163,300;  464,363;16,70290
 204,54;  293,614;  246,937;  543,462;15,74129
 205,14;  248,074;  185,307;  540,736;17,65963
 205,74;  289,804;  229,143;  624,348;15,34932
 206,34;  253,959;  197,610;  653,244;12,36713
 206,94;  268,164;  200,611;  693,120;13,71598
 207,54;  231,664;  184,687;  719,137; 8,78971
 208,14;  251,779;  195,455;  803,345; 9,26552
 208,74;  257,395;  198,230;  855,552; 9,00083
 209,34;  264,267;  193,229;  944,023; 9,46166
 209,94;  279,151;  199,537; 1044,543; 9,42171
 210,54;  275,971;  203,376; 1111,898; 7,99046
 211,14;  283,818;  212,922; 1222,339; 7,02343
 211,73;  281,933;  209,464; 1314,673; 6,55712
 212,33;  307,408;  222,082; 1403,956; 7,21954
 212,93;  289,600;  202,385; 1461,117; 6,92882
 213,53;  259,677;  170,923; 1512,962; 6,61340
 214,13;  298,073;  181,292; 1572,742; 8,39275
 214,73;  283,330;  172,302; 1608,237; 7,73215
 215,33;  270,690;  150,922; 1633,236; 8,07979
 215,93;  301,061;  194,451; 1783,978; 6,70700
 216,53;  278,946;  152,924; 1831,099; 7,50950
 217,13;  351,933;  215,607; 2029,263; 7,51664
 217,73;  333,702;  194,989; 2219,797; 6,85065
 218,33;  320,714;  149,983; 2354,982; 7,74291
 218,93;  363,021;  179,356; 2654,801; 7,41948
 219,53;  388,765;  172,214; 2901,699; 7,93379
 220,13;  378,740;  151,903; 3178,988; 7,49355
 220,73;  415,484;  174,152; 3474,978; 7,31127
 221,32;  450,087;  179,077; 3842,860; 7,39701
 221,92;  497,265;  174,981; 4170,791; 8,06555
 222,52;  496,381;  178,373; 4533,597; 7,30176
 223,12;  545,920;  176,988; 4906,673; 7,80034
 223,72;  579,279;  192,680; 5246,005; 7,65038
 224,32;  622,227;  176,448; 5603,170; 8,21451
 224,92;  639,355;  176,372; 5860,465; 8,14525
 225,52;  694,138;  187,457; 6182,069; 8,45227
 226,12;  686,945;  178,684; 6419,963; 8,14355
 226,72;  708,215;  148,377; 6719,830; 8,51924
 227,31;  745,266;  153,223; 7036,048; 8,60174
 227,91;  814,023;  189,458; 7401,206; 8,66038
 228,51;  842,331;  171,850; 7795,414; 8,79485
 229,11;  881,535;  172,070; 8048,723; 9,00719
 229,71;  888,677;  157,539; 8378,618; 8,89346
 230,31;  953,637;  162,677; 8740,754; 9,22072
 230,91;  975,344;  159,469; 9042,583; 9,18456
 231,51; 1023,984;  152,605; 9274,862; 9,55223
 232,10; 1083,509;  156,214; 9507,841; 9,91587
 232,70; 1137,229;  178,475; 9699,423;10,06994
 233,30; 1175,676;  189,760; 9927,902;10,12428
 233,90; 1192,035;  165,990;10050,274;10,38057
 234,50; 1230,433;  171,451;10084,509;10,68269
 235,10; 1274,048;  164,141;10103,619;11,16665
 235,70; 1311,266;  183,459;10081,290;11,39449
 236,29; 1306,587;  182,077;10024,611;11,42501
 236,89; 1331,459;  158,776; 9855,716;12,09334
 237,49; 1341,471;  180,376; 9778,456;12,09716
 238,09; 1334,651;  172,610; 9429,552;12,55319
 238,69; 1388,357;  199,549; 9207,673;13,19707
 239,29; 1319,856;  165,918; 8939,888;13,15183
 239,89; 1333,254;  192,314; 8592,882;13,58170
 240,48; 1294,394;  168,379; 8220,540;13,98402
 241,08; 1264,061;  166,611; 7864,646;14,25623
 241,68; 1261,535;  179,455; 7641,109;14,50188
 242,28; 1251,304;  171,299; 7287,026;15,17773
 242,88; 1235,586;  196,830; 7036,382;15,18748
 243,48; 1230,651;  201,761; 6783,508;15,63247
 244,07; 1201,613;  183,382; 6590,809;15,89142
 244,67; 1188,343;  192,916; 6405,549;16,02263
 245,27; 1186,395;  186,310; 6269,980;16,43885
 245,87; 1192,791;  194,678; 6247,872;16,48904
 246,47; 1181,728;  181,617; 6208,147;16,59514
 247,06; 1190,612;  172,841; 6224,536;16,81795
 247,66; 1219,138;  180,224; 6324,025;16,90995
 248,26; 1278,126;  196,232; 6477,766;17,22340
 248,86; 1285,446;  190,232; 6660,735;16,92626
 249,46; 1295,548;  151,374; 6845,606;17,09194
 250,05; 1398,753;  189,072; 7218,028;17,20998
 250,65; 1443,369;  158,465; 7524,316;17,44408
 251,25; 1528,972;  170,535; 8010,795;17,32642
 251,85; 1607,985;  156,161; 8552,748;17,29065
 252,44; 1693,677;  145,384; 9145,462;17,20310
 253,04; 1863,638;  186,614; 9842,055;17,36870
 253,64; 1927,870;  150,389;10539,607;17,10890
 254,24; 2124,548;  195,456;11361,387;17,27659
 254,84; 2264,240;  172,682;12305,836;17,23837
 255,43; 2427,792;  178,461;13226,711;17,23857
 256,03; 2629,331;  172,388;14130,990;17,60164
 256,63; 2759,203;  180,622;15117,241;17,26348
 257,23; 2909,703;  171,006;16015,952;17,28436
 257,82; 3125,768;  182,243;16908,150;17,59860
 258,42; 3211,422;  147,938;17764,253;17,39004
 259,02; 3426,651;  187,922;18666,985;17,52648
 259,62; 3528,729;  167,170;19291,834;17,57709
 260,21; 3650,997;  174,538;19848,507;17,67035
 260,81; 3719,305;  174,454;20382,836;17,54149
 261,41; 3783,460;  154,474;20849,883;17,53522
 262,01; 3934,512;  207,557;21322,768;17,65057
 262,60; 3978,780;  161,160;21668,644;17,75019
 263,20; 4048,023;  163,925;22129,526;17,68264
 263,80; 4119,294;  198,096;22143,160;17,86825
 264,40; 4122,614;  157,018;22440,048;17,79649
 264,99; 4140,986;  171,250;22611,931;17,68991
 265,59; 4208,141;  165,258;22695,679;17,94410
 266,19; 4195,191;  157,480;22951,570;17,71385
 266,78; 4242,743;  207,177;23081,355;17,64245
 267,38; 4242,448;  173,026;23060,175;17,78038
 267,98; 4192,307;  161,176;23065,252;17,60006
 268,58; 4242,346;  179,026;23071,394;17,74967
 269,17; 4224,513;  163,570;23156,529;17,66168
 269,77; 4194,844;  199,624;22992,643;17,52826
 270,37; 4155,384;  155,635;22842,399;17,63032
 270,96; 4130,293;  207,243;22664,798;17,46873
 271,56; 4065,408;  173,622;22521,767;17,41436
 272,16; 3988,473;  171,244;22350,314;17,21095
 272,75; 3989,127;  172,782;22239,717;17,29440
 273,35; 3967,691;  176,627;22288,149;17,14520
 273,95; 3967,101;  167,936;22291,511;17,17247
 274,54; 3903,459;  146,687;22325,343;16,93868
 275,14; 4041,319;  175,472;22688,769;17,17139
 275,74; 3945,819;  145,783;22698,525;16,84955
 276,33; 4042,344;  197,471;23172,509;16,73500
 276,93; 4097,535;  180,378;23513,454;16,78800
 277,53; 4176,331;  169,231;24008,482;16,80883
 278,12; 4214,382;  149,005;24511,251;16,68720
 278,72; 4435,780;  199,155;25045,285;17,05145
 279,32; 4467,382;  162,463;25561,472;16,94916
 279,91; 4592,228;  155,465;26301,822;16,96896
 280,51; 4644,420;  172,230;26734,257;16,83678
 281,11; 4802,126;  180,311;27427,118;16,96278
 281,70; 4903,998;  157,696;27831,402;17,15094
 282,30; 5037,331;  158,392;28455,152;17,24204
 282,90; 5167,831;  175,392;28714,479;17,49334
 283,49; 5274,665;  180,011;29265,866;17,51592
 284,09; 5433,177;  196,466;29706,031;17,74581
 284,69; 5551,831;  195,233;29993,775;17,97604
 285,28; 5650,588;  183,005;30359,468;18,11870
 285,88; 5801,281;  206,014;30554,411;18,43678
 286,47; 5881,319;  168,546;30631,454;18,75321
 287,07; 5990,946;  199,155;30623,447;19,03673
 287,67; 6143,881;  189,761;30817,047;19,44057
 288,26; 6263,023;  169,925;30760,410;19,91828
 288,86; 6412,062;  175,543;30852,165;20,32987
 289,46; 6602,177;  182,772;30893,103;20,90308
 290,05; 6763,843;  170,766;30991,385;21,39177
 290,65; 6981,344;  169,931;31207,431;21,94575
 291,24; 7194,049;  183,847;31324,458;22,51145
 291,84; 7449,665;  194,930;31426,472;23,22887
 292,44; 7656,163;  166,452;31550,147;23,86498
 293,03; 7947,959;  241,539;31674,721;24,51683
 293,63; 8049,421;  164,930;31864,697;24,87239
 294,22; 8241,139;  196,465;32001,316;25,29386
 294,82; 8393,396;  175,633;31976,361;25,84143
 295,41; 8453,921;  166,927;31701,402;26,27916
 296,01; 8596,768;  214,015;31546,618;26,75409
 296,61; 8540,523;  186,155;31399,312;26,76553
 297,20; 8539,319;  192,860;30949,353;27,13723
 297,80; 8548,292;  188,457;30910,298;27,21137
 298,39; 8485,062;  163,161;30481,286;27,44860
 298,99; 8619,242;  191,089;30377,195;27,92064
 299,58; 8507,215;  192,839;30282,139;27,63233
 300,18; 8497,497;  189,688;30016,711;27,85330
 300,78; 8398,664;  174,384;29772,955;27,78607
 301,37; 8424,845;  190,329;29760,979;27,84692
 301,97; 8463,536;  176,080;29827,091;27,95000
 302,56; 8363,947;  176,700;29648,270;27,78015
 303,16; 8389,165;  159,164;29629,421;27,92647
 303,75; 8403,010;  173,613;29682,510;27,88785
 304,35; 8421,163;  165,834;29957,757;27,70996
 304,94; 8456,472;  187,849;30010,558;27,72593
 305,54; 8398,241;  195,154;29870,013;27,64322
 306,13; 8346,202;  139,218;29866,698;27,60740
 306,73; 8280,894;  154,914;29594,398;27,60232
 307,33; 8267,753;  181,531;29596,215;27,49043
 307,92; 8249,523;  181,616;29674,734;27,35522
 308,52; 8286,742;  161,241;30113,941;27,12777
 309,11; 8465,588;  166,631;30634,145;27,23871
 309,71; 8460,063;  155,634;30744,044;27,14894
 310,30; 8517,869;  159,771;31007,254;27,09491
 310,90; 8587,023;  192,617;31364,177;26,92970
 311,49; 8552,267;  179,002;31494,531;26,73838
 312,09; 8555,677;  150,842;31694,108;26,64542
 312,68; 8699,908;  203,769;32062,500;26,66816
 313,28; 8656,677;  148,539;32155,195;26,58240
 313,87; 8616,690;  147,002;32277,050;26,36065
 314,47; 8653,563;  172,860;32460,552;26,26605
 315,06; 8645,356;  156,077;32557,804;26,20008
 315,66; 8630,138;  162,765;32782,723;25,95764
 316,25; 8537,460;  140,548;32727,606;25,76763
 316,85; 8498,048;  136,611;32728,331;25,65510
 317,44; 8495,716;  158,553;32934,054;25,43718
 318,04; 8414,395;  138,392;32953,723;25,21993
 318,63; 8395,599;  145,222;33027,981;25,09028
 319,22; 8381,049;  170,009;33123,668;24,91693
 319,82; 8322,434;  169,698;33174,968;24,70132
 320,41; 8211,319;  164,239;33110,840;24,42461
 321,01; 8177,407;  170,228;33235,514;24,21627
 321,60; 8153,831;  167,697;33353,128;24,06518
 322,20; 8032,151;  161,539;33306,047;23,74635
 322,79; 8026,754;  196,462;33478,541;23,52705
 323,39; 7971,804;  163,451;33505,425;23,41899
 323,98; 7907,010;  146,615;33346,321;23,37489
 324,58; 7828,908;  165,856;33324,986;23,10993
 325,17; 7750,101;  171,086;33255,271;22,90827
 325,76; 7684,844;  187,464;33026,705;22,83055
 326,36; 7507,831;  137,997;32587,456;22,71173
 326,95; 7426,793;  183,081;32303,069;22,55204
 327,55; 7279,895;  155,544;31954,546;22,40432
 328,14; 7142,459;  152,456;31669,956;22,17816
 328,74; 7037,588;  192,085;31195,168;22,08007
 329,33; 6891,369;  178,920;30908,649;21,84350
 329,92; 6734,447;  152,861;30305,305;21,82770
 330,52; 6556,433;  160,225;29683,788;21,66476
 331,11; 6487,305;  162,620;29303,557;21,70378
 331,71; 6289,844;  168,618;28648,438;21,49320
 332,30; 6192,549;  184,541;28346,327;21,33390
 332,89; 6070,305;  210,383;27737,003;21,28820
 333,49; 5878,729;  171,620;27301,652;21,03613
 334,08; 5787,267;  169,159;26966,501;20,96517
 334,68; 5622,613;  174,775;26522,251;20,67689
 335,27; 5563,664;  170,839;26254,324;20,67525
 335,86; 5524,690;  220,082;25924,326;20,63709
 336,46; 5437,215;  186,992;25644,406;20,62355
 337,05; 5305,664;  164,620;25591,314;20,21908
 337,65; 5237,549;  148,621;25424,219;20,13376
 338,24; 5279,049;  212,538;25449,418;20,07582
 338,83; 5239,664;  192,230;25322,071;20,08542
 339,43; 5180,011;  162,316;25317,303;19,94712
 340,02; 5141,729;  168,471;25204,126;19,86470
 340,61; 5164,421;  154,385;25279,682;19,94020
 341,21; 5151,280;  192,931;25300,629;19,74832
 341,80; 5112,472;  166,083;25175,412;19,77818
 342,40; 5066,433;  182,147;25335,441;19,41808
 342,99; 5094,151;  177,306;25400,234;19,49356
 343,58; 5099,446;  173,228;25552,957;19,41005
 344,18; 5154,305;  181,535;25673,231;19,50741
 344,77; 5148,383;  152,087;26017,069;19,31684
 345,36; 5169,485;  152,158;26354,530;19,14837
 345,96; 5270,779;  204,074;26514,816;19,25717
 346,55; 5294,894;  148,835;26760,815;19,33738
 347,14; 5294,625;  148,147;27187,191;19,03351
 347,74; 5397,701;  142,212;27508,203;19,20445
 348,33; 5499,970;  160,752;28244,109;19,01204
 348,92; 5621,688;  180,131;28836,764;18,98882
 349,52; 5711,304;  146,980;29272,577;19,10458
 350,11; 5771,601;  166,087;29417,410;19,16328
 350,70; 5775,228;  157,155;29458,240;19,17360
 351,29; 5714,409;  154,792;29074,266;19,22448
 351,89; 5749,191;  177,938;29185,870;19,20596
 352,48; 5716,805;  139,693;29141,337;19,23033
 353,07; 5730,663;  171,915;29109,592;19,20938
 353,67; 5742,098;  179,977;29116,544;19,22177
 354,26; 5673,869;  165,993;28760,313;19,26213
 354,85; 5680,625;  177,303;28634,543;19,33892
 355,45; 5635,126;  152,237;28403,279;19,40774
 356,04; 5615,522;  168,222;28404,482;19,29186
 356,63; 5615,805;  191,004;28218,074;19,35558
 357,22; 5601,191;  176,020;28075,419;19,44548
 357,82; 5573,781;  177,402;27867,785;19,48828
 358,41; 5557,895;  178,772;27794,578;19,47842
 359,00; 5513,793;  153,316;27598,963;19,53125
 359,60; 5541,344;  178,461;27560,373;19,58549
 360,19; 5544,279;  175,067;27301,935;19,79297
 360,78; 5511,062;  166,929;27225,129;19,75051
 361,37; 5501,806;  165,005;26908,077;19,95582
 361,97; 5469,587;  174,003;26860,887;19,84340
 362,56; 5390,075;  145,549;26577,032;19,84197
 363,15; 5444,100;  194,237;26303,342;20,10741
 363,74; 5342,627;  168,860;26023,083;20,01130
 364,34; 5314,113;  187,624;25690,124;20,10191
 364,93; 5192,421;  151,704;25203,284;20,12135
 365,52; 5169,690;  158,389;24911,711;20,24496
 366,11; 5117,113;  169,316;24585,008;20,26482
 366,71; 5090,357;  154,701;24238,207;20,49393
 367,30; 5036,844;  165,697;23887,287;20,53466
 367,89; 5044,715;  201,996;23672,088;20,63358
 368,48; 4974,960;  178,551;23411,826;20,64457
 369,07; 4925,459;  170,693;22951,471;20,87183
 369,67; 4878,268;  191,704;22739,631;20,78490
 370,26; 4846,562;  167,000;22519,906;20,93491
 370,85; 4856,447;  161,774;22237,512;21,26621
 371,44; 4819,357;  165,157;22032,849;21,28345
 372,03; 4794,357;  150,547;21881,015;21,37004
 372,63; 4736,549;  148,158;21489,600;21,49991
 373,22; 4683,549;  162,309;21189,979;21,50138
 373,81; 4640,895;  154,236;20916,621;21,60956
 374,40; 4658,318;  165,917;20720,540;21,85591
 374,99; 4621,959;  154,929;20468,887;21,98995
 375,59; 4576,689;  159,841;20201,958;22,03783
 376,18; 4612,767;  181,698;20077,213;22,27170
 376,77; 4590,972;  173,464;19852,848;22,44739
 377,36; 4614,408;  189,159;19814,532;22,54861
 377,95; 4580,767;  169,162;19639,334;22,65828
 378,55; 4580,946;  150,920;19462,283;22,94000
 379,14; 4608,164;  174,005;19361,333;23,10983
 379,73; 4603,101;  160,085;19264,769;23,25616
 380,32; 4630,139;  181,003;19354,470;23,20465
 380,91; 4628,255;  157,320;19136,857;23,55661
 381,50; 4661,280;  183,241;19149,288;23,61082
 382,10; 4661,600;  153,003;19045,162;23,86491
 382,69; 4654,126;  140,467;18996,353;23,93767
 383,28; 4744,126;  172,471;18951,478;24,34450
 383,87; 4723,485;  152,164;18828,773;24,47619
 384,46; 4722,127;  152,402;18778,418;24,53410
 385,05; 4804,960;  193,241;18749,782;24,85225
 385,64; 4794,344;  165,009;18796,701;24,84657
 386,24; 4799,486;  157,479;18710,830;25,01978
 386,83; 4869,165;  181,249;18770,672;25,21819
 387,42; 4957,293;  172,393;18884,905;25,57059
 388,01; 5042,704;  180,794;19073,879;25,73381
 388,60; 5136,294;  169,631;19409,038;25,81505
 389,19; 5211,538;  154,264;19546,738;26,07854
 389,78; 5299,769;  158,108;19700,810;26,30988
 390,37; 5516,679;  213,175;20191,011;26,54694
 390,96; 5565,012;  166,710;20351,286;26,74469
 391,56; 5619,500;  166,882;20451,610;26,88041
 392,15; 5716,436;  163,491;20695,832;27,04487
 392,74; 5798,373;  132,663;20900,341;27,28138
 393,33; 5929,385;  157,499;21161,285;27,48022
 393,92; 6121,207;  166,438;21593,886;27,79038
 394,51; 6166,911;  153,345;21704,972;27,90307
 395,10; 6295,400;  185,762;21908,982;28,12492
 395,69; 6412,759;  172,298;22015,194;28,56975
 396,28; 6499,888;  180,230;22096,663;28,83525
 396,87; 6528,415;  176,015;22212,768;28,82639
 397,46; 6625,890;  174,332;22389,836;29,04079
 398,06; 6746,006;  185,191;22498,999;29,40249
 398,65; 6795,778;  163,451;22630,643;29,52005
 399,24; 6911,201;  188,149;22754,828;29,79194
 399,83; 6992,076;  155,424;22728,789;30,28637
 400,42; 7039,156;  197,771;22877,609;30,16505
 401,01; 7139,454;  158,970;22988,168;30,57700
 401,60; 7230,421;  182,878;22929,712;30,98252
 402,19; 7258,412;  203,773;22941,894;31,02560
 402,78; 7334,494;  205,310;22956,374;31,33561
 403,37; 7309,153;  189,151;22829,248;31,44864
 403,96; 7320,891;  181,234;22622,689;31,81459
 404,55; 7378,462;  182,405;22586,377;32,11956
 405,14; 7367,904;  175,874;22450,519;32,28797
 405,73; 7401,617;  181,896;22343,367;32,57780
 406,32; 7423,865;  183,732;22345,064;32,67012
 406,91; 7344,064;  178,579;21967,375;32,88610
 407,50; 7384,426;  181,465;21751,722;33,39302
 408,09; 7338,415;  151,954;21563,625;33,56329
 408,68; 7359,186;  173,436;21473,709;33,73548
 409,27; 7374,197;  163,333;21246,772;34,20155
 409,86; 7377,128;  172,196;21121,603;34,39206
 410,45; 7440,009;  190,838;21022,469;34,79886
 411,04; 7428,941;  204,786;20952,857;34,81844
 411,63; 7404,384;  193,641;20688,927;35,18245
 412,22; 7403,918;  197,965;20532,710;35,43665
 412,81; 7369,724;  201,866;20271,681;35,71462
 413,40; 7257,978;  205,146;20048,553;35,54245
 413,99; 7255,876;  238,232;19682,137;36,09175
 414,58; 7139,299;  167,303;19278,259;36,48167
 415,17; 7165,545;  184,328;19139,167;36,83079
 415,76; 7117,944;  172,659;18944,690;36,99805
 416,35; 7104,251;  159,493;18859,431;37,13786
 416,94; 7160,379;  193,731;18884,203;37,27380
 417,53; 7300,967;  179,018;19111,182;37,61825
 418,12; 7371,544;  173,089;19221,766;37,78979
 418,71; 7562,465;  192,376;19514,718;38,14284
 419,30; 7639,890;  189,703;19578,357;38,42550
 419,89; 7689,005;  174,006;19798,096;38,29477
 420,48; 7867,530;  201,684;20076,557;38,57054
 421,07; 7948,991;  188,064;20149,470;38,87966
 421,66; 7935,080;  166,282;20169,254;38,83822
 422,25; 8036,629;  170,565;20084,052;39,50119
 422,84; 8054,629;  208,099;20020,387;39,60436
 423,43; 7966,693;  187,340;19716,558;39,83443
 424,02; 7887,539;  204,643;19509,009;39,79875
 424,60; 7777,563;  174,152;19135,956;40,09856
 425,19; 7663,910;  191,398;18867,548;40,01099
 425,78; 7727,346;  204,550;18828,493;40,39314
 426,37; 7716,589;  209,232;18675,167;40,65516
 426,96; 7722,486;  184,694;18627,269;40,87169
 427,55; 7672,998;  178,446;18405,796;41,11706
 428,14; 7606,728;  171,824;18210,337;41,21683
 428,73; 7576,383;  193,837;18109,465;41,20729
 429,32; 7616,602;  200,388;18035,870;41,58124
 429,91; 7655,485;  217,144;18027,245;41,76473
 430,50; 7605,344;  203,674;17922,001;41,77409
 431,08; 7561,176;  231,204;17790,207;41,74481
 431,67; 7634,817;  254,427;17645,625;42,43750
 432,26; 7569,034;  273,343;17443,178;42,49133
 432,85; 7463,342;  282,345;17148,684;42,57591
 433,44; 7370,277;  299,796;16804,357;42,83956
 434,03; 7275,032;  309,473;16399,778;43,29041
 434,62; 7090,162;  271,872;16063,336;43,17706
 435,21; 7024,034;  283,113;15909,450;43,13820
 435,79; 6997,674;  278,402;15782,611;43,33837
 436,38; 6951,570;  276,618;15723,949;43,21104
 436,97; 6948,813;  279,000;15590,912;43,55964
 437,56; 6849,786;  276,209;15432,003;43,37336
 438,15; 6825,787;  237,599;15359,670;43,56670
 438,74; 6894,991;  262,982;15371,844;43,89483
 439,33; 6898,697;  225,062;15379,396;44,03780
 439,91; 6902,427;  187,744;15453,700;43,98469
 440,50; 7019,581;  237,281;15497,506;44,44430
 441,09; 7029,810;  236,577;15605,746;44,20040
 441,68; 7004,617;  226,794;15592,005;44,11149
 442,27; 6998,912;  208,800;15526,973;44,32717
 442,86; 7041,321;  190,926;15618,999;44,40214
 443,44; 7069,654;  198,239;15634,063;44,51602
 444,03; 7170,218;  252,618;15656,216;44,90899
 444,62; 7060,974;  193,079;15499,248;44,87011
 445,21; 7011,744;  211,467;15270,256;45,15819
 445,80; 7009,371;  232,452;15293,612;44,99599
 446,39; 6931,615;  246,532;15035,740;45,20244
 446,97; 6799,537;  187,899;14795,739;45,26088
 447,56; 6756,459;  191,425;14604,710;45,54849
 448,15; 6680,319;  198,899;14427,208;45,55298
 448,74; 6599,229;  220,513;14189,352;45,66389
 449,33; 6508,536;  200,350;14136,677;45,26433
 449,91; 6421,804;  201,951;13859,162;45,54263
 450,50; 6358,112;  182,184;13693,054;45,71081
 451,09; 6353,753;  206,567;13569,870;46,00049
 451,68; 6313,380;  227,253;13481,362;45,91879
 452,26; 6273,957;  220,093;13403,982;45,91865
 452,85; 6235,047;  198,943;13360,190;45,86270
 453,44; 6238,430;  219,077;13312,491;45,97237
 454,03; 6202,315;  197,858;13327,613;45,73168
 454,61; 6198,904;  185,691;13289,071;45,89055
 455,20; 6290,737;  209,069;13479,934;45,82722
 455,79; 6290,097;  214,696;13459,602;45,86972
 456,38; 6321,364;  224,212;13555,954;45,73410
 456,97; 6362,377;  200,600;13592,776;46,01028
 457,55; 6353,928;  196,130;13600,224;45,93968
 458,14; 6398,390;  220,295;13573,980;46,26510
 458,73; 6301,941;  216,898;13484,112;45,86526
 459,31; 6359,709;  232,193;13586,777;45,88324
 459,90; 6388,043;  251,200;13604,728;45,95672
 460,49; 6496,723;  269,896;13688,038;46,40603
 461,08; 6426,773;  198,341;13829,795;45,69162
 461,66; 6503,658;  208,579;13871,714;46,07346
 462,25; 6499,939;  204,259;13941,058;45,83076
 462,84; 6529,862;  237,801;14034,529;45,60546
 463,43; 6455,694;  187,630;13949,598;45,54628
 464,01; 6480,873;  195,086;13943,406;45,72041
 464,60; 6549,490;  247,865;13873,776;46,24736
 465,19; 6367,373;  187,082;13654,917;45,88927
 465,77; 6381,488;  209,230;13609,383;46,06111
 466,36; 6315,553;  217,630;13468,566;46,01881
 466,95; 6175,528;  202,321;13203,127;45,94490
 467,53; 6043,488;  196,838;12918,904;45,95676
 468,12; 5921,218;  227,451;12626,842;45,91973
 468,71; 5858,719;  220,927;12418,817;46,21941
 469,29; 5742,372;  193,219;12210,569;46,17618
 469,88; 5592,141;  199,752;11986,018;45,75146
 470,47; 5697,153;  249,510;12106,153;45,94591
 471,06; 5665,601;  216,432;12121,030;45,77365
 471,64; 5682,089;  229,282;12183,743;45,61316
 472,23; 5657,997;  188,259;12228,146;45,43014
 472,81; 5676,408;  190,501;12284,568;45,36032
 473,40; 5769,484;  196,413;12468,504;45,41257
 473,99; 5890,202;  273,412;12629,363;45,45818
 474,57; 5846,574;  199,105;12718,704;45,10902
 475,16; 5908,254;  210,267;12926,140;44,81004
 475,75; 5946,586;  228,866;13002,768;44,76095
 476,33; 5951,329;  233,550;13063,774;44,56493
 476,92; 5981,023;  239,641;13125,500;44,55568
 477,51; 6003,483;  222,861;13194,398;44,56390
 478,09; 5997,766;  217,323;13186,654;44,57009
 478,68; 5951,342;  229,088;13142,473;44,31258
 479,27; 5997,715;  246,866;13202,831;44,38765
 479,85; 5913,137;  215,704;13235,564;43,75956
 480,44; 5897,752;  219,315;13332,746;43,30245
 481,02; 6437,290;  216,923;15223,998;41,44956
 481,61; 7201,816;  253,388;16832,268;41,91132
 482,20; 7625,508;  236,230;17846,529;41,95998
 482,78; 7917,445;  273,548;18530,404;41,86864
 483,37; 8099,622;  250,449;19003,367;41,85574
 483,95; 8248,930;  284,754;19237,862;42,02042
 484,54; 8250,572;  291,851;19346,842;41,76712
 485,13; 8239,878;  253,052;19237,891;42,06949
 485,71; 8122,840;  247,594;19011,303;41,97062
 486,30; 8016,506;  283,902;18742,020;41,89270
 486,88; 7889,801;  317,284;18346,123;42,00225
 487,47; 7571,326;  300,281;17589,841;42,05454
 488,05; 7215,339;  284,431;16764,992;42,05505
 488,64; 6718,800;  289,268;15436,548;42,44678
 489,23; 6050,352;  287,813;13403,608;43,93587
 489,81; 5189,441;  294,579;11755,569;42,70889
 490,40; 4882,569;  243,193;11302,629;41,94948
 490,98; 4799,005;  236,650;11124,761;41,90217
 491,57; 4757,941;  255,427;11095,592;41,53548
 492,15; 4726,671;  233,033;10996,937;41,74729
 492,74; 4653,916;  242,507;10833,893;41,65091
 493,32; 4604,441;  252,343;10845,750;41,08308
 493,91; 4522,786;  235,875;10701,946;40,96008
 494,50; 4507,298;  241,782;10673,204;40,89103
 495,08; 4460,965;  233,475;10579,732;40,86009
 495,67; 4474,158;  236,569;10566,058;41,02419
 496,25; 4391,709;  190,252;10474,505;40,85330
 496,84; 4331,838;  202,339;10436,707;40,34933
 497,42; 4343,516;  194,095;10452,287;40,44983
 498,01; 4304,850;  218,106;10343,209;40,36250
 498,59; 4222,837;  186,324;10299,944;39,91165
 499,18; 4221,171;  187,259;10242,521;40,11743
 499,76; 4199,158;  198,021;10174,575;40,10540
 500,35; 4116,003;  202,009;10037,163;39,79596
 500,93; 4075,145;  183,865; 9971,333;39,75778
 501,52; 4016,542;  193,786; 9918,412;39,31006
 502,10; 4021,413;  203,310; 9872,661;39,48665
 502,69; 3926,925;  189,766; 9709,597;39,25657
 503,27; 3850,516;  171,243; 9539,466;39,27397
 503,86; 3786,297;  188,614; 9468,596;38,76821
 504,44; 3739,681;  176,455; 9385,353;38,69330
 505,03; 3637,540;  152,532; 9109,013;38,91046
 505,61; 3559,553;  171,611; 9022,948;38,27605
 506,19; 3523,271;  201,763; 8915,456;38,11825
 506,78; 3411,475;  164,597; 8724,724;37,93025
 507,36; 3407,874;  169,533; 8542,528;38,67601
 507,95; 3336,295;  174,131; 8423,391;38,33270
 508,53; 3257,398;  177,982; 8358,917;37,64137
 509,12; 3201,795;  182,055; 8156,607;37,86721
 509,70; 3169,129;  200,745; 8071,460;37,71428
 510,29; 3117,846;  200,047; 7914,882;37,82063
 510,87; 2999,219;  162,059; 7730,674;37,48585
 511,46; 2942,257;  166,826; 7573,303;37,47303
 512,04; 2870,526;  173,358; 7446,115;37,08590
 512,62; 2829,847;  178,441; 7338,558;37,03020
 513,21; 2757,756;  153,585; 7126,451;37,34721
 513,79; 2725,614;  176,951; 7032,609;37,17605
 514,38; 2639,409;  155,188; 6900,213;36,83042
 514,96; 2612,768;  193,189; 6805,625;36,59134
 515,54; 2548,217;  168,878; 6674,648;36,57275
 516,13; 2537,742;  183,030; 6581,831;36,79927
 516,71; 2469,165;  163,638; 6470,795;36,55414
 517,30; 2391,985;  159,785; 6343,152;36,10007
 517,88; 2372,562;  189,016; 6325,749;35,58156
 518,46; 2322,484;  161,782; 6208,664;35,73250
 519,05; 2301,151;  172,392; 6162,716;35,53661
 519,63; 2302,138;  174,857; 6103,985;35,87848
 520,22; 2280,009;  186,999; 6063,011;35,61956
 520,80; 2250,406;  174,537; 5974,169;35,79313
 521,38; 2266,305;  200,314; 5943,214;35,97468
 521,97; 2199,765;  163,301; 5948,913;35,19877
 522,55; 2186,342;  192,916; 5899,087;34,93456
 523,13; 2158,906;  164,527; 5895,475;34,80015
 523,72; 2157,523;  176,783; 5902,339;34,59472
 524,30; 2192,482;  187,446; 6033,060;34,29985
 524,89; 2146,778;  173,761; 6062,840;33,50297
 525,47; 2192,469;  188,366; 6140,356;33,67114
 526,05; 2180,161;  156,288; 6214,583;33,40665
 526,64; 2224,674;  185,593; 6331,409;33,17836
 527,22; 2263,174;  173,521; 6435,363;33,37123
 527,80; 2290,366;  212,670; 6570,642;32,67860
 528,39; 2273,571;  166,051; 6667,042;32,41845
 528,97; 2318,123;  178,591; 6853,054;32,05548
 529,55; 2364,470;  199,835; 7020,103;31,73827
 530,14; 2435,097;  200,586; 7212,337;31,86808
 530,72; 2397,559;  172,745; 7298,694;31,22129
 531,30; 2411,340;  168,277; 7399,341;31,01982
 531,89; 2460,084;  185,662; 7495,713;31,11362
 532,47; 2510,263;  210,275; 7550,258;31,33506
 533,05; 2485,392;  197,824; 7607,309;30,87351
 533,63; 2475,301;  213,042; 7692,081;30,24799
 534,22; 2473,263;  183,581; 7735,523;30,31912
 534,80; 2529,903;  209,034; 7776,864;30,66756
 535,38; 2592,930;  271,738; 7846,710;30,64291
 535,97; 2482,801;  206,659; 7879,065;29,66661
 536,55; 2492,313;  240,649; 7922,144;29,31285
 537,13; 2502,571;  257,586; 7916,035;29,31384
 537,71; 2540,020;  305,971; 7930,261;29,30172
 538,30; 2543,378;  342,193; 8009,190;28,70987
 538,88; 2593,287;  369,412; 8121,348;28,68800
 539,46; 2671,019;  426,881; 8317,961;28,43892
 540,05; 2681,365;  452,799; 8419,354;27,97402
 540,63; 2730,147;  504,337; 8682,437;27,21671
 541,21; 2786,018;  544,871; 8800,746;27,14609
 541,79; 2821,454;  586,409; 8912,041;26,84534
 542,38; 2869,429;  611,262; 9088,735;26,63726
 542,96; 2896,543;  610,018; 9235,033;26,51039
 543,54; 2972,480;  634,103; 9425,864;26,59737
 544,12; 2943,633;  591,023; 9550,281;26,25898
 544,70; 2953,082;  579,787; 9584,185;26,35706
 545,29; 2994,800;  600,723; 9717,112;26,26125
 545,87; 2975,608;  559,948; 9808,195;26,12019
 546,45; 2970,467;  513,647; 9799,178;26,45859
 547,03; 2930,403;  478,489; 9875,906;26,09136
 547,62; 2956,967;  445,178;10013,911;26,24996
 548,20; 2970,697;  434,327;10169,689;26,05317
 548,78; 2939,734;  390,234;10269,133;25,80753
 549,36; 2964,606;  358,159;10444,419;25,84156
 549,94; 2951,300;  312,406;10634,534;25,56540
 550,53; 3007,696;  320,161;10831,701;25,56747
 551,11; 2975,978;  289,308;10993,979;25,09811
 551,69; 3059,119;  284,390;11224,446;25,36302
 552,27; 3086,581;  256,396;11579,805;24,99411
 552,85; 3138,234;  265,770;11906,569;24,67583
 553,44; 3216,286;  250,390;12238,837;24,73961
 554,02; 3273,504;  268,849;12547,017;24,47152
 554,60; 3282,054;  209,538;12851,477;24,30416
 555,18; 3371,273;  240,236;13202,791;24,15447
 555,76; 3452,439;  224,772;13524,216;24,26919
 556,34; 3539,734;  221,916;13983,264;24,10968
 556,93; 3583,786;  216,158;14324,777;23,86929
 557,51; 3597,426;  207,531;14638,994;23,48961
 558,09; 3717,824;  219,620;14998,720;23,66994
 558,67; 3787,092;  224,373;15294,009;23,64171
 559,25; 3841,272;  230,991;15618,759;23,46202
 559,83; 3858,848;  209,369;15858,724;23,32032
 560,41; 3905,657;  206,688;16227,961;23,08786
 561,00; 3976,579;  220,603;16632,483;22,88572
 561,58; 3992,067;  212,304;16808,744;22,77454
 562,16; 3992,708;  198,000;17096,652;22,45569
 562,74; 4062,388;  184,157;17464,767;22,44268
 563,32; 4145,797;  178,600;17929,237;22,34960
 563,90; 4205,566;  204,757;18317,284;22,08863
 564,48; 4303,503;  216,843;18674,966;22,14017
 565,06; 4391,028;  203,066;19318,017;21,90935
 565,65; 4489,578;  207,746;19974,149;21,66217
 566,23; 4673,310;  246,988;20618,232;21,72829
 566,81; 4724,682;  205,760;21366,734;21,35498
 567,39; 4877,040;  202,136;22241,662;21,21146
 567,97; 4998,618;  214,682;22799,929;21,18168
 568,55; 5179,848;  230,292;23663,033;21,12239
 569,13; 5278,156;  203,218;24286,578;21,07238
 569,71; 5424,349;  205,539;25217,088;20,86560
 570,29; 5641,183;  237,928;26141,861;20,85882
 570,87; 5740,465;  235,002;26799,188;20,72513
 571,45; 5828,990;  223,373;27338,343;20,67351
 572,03; 5852,963;  188,750;27757,081;20,54609
 572,61; 5961,476;  193,062;28431,502;20,42753
 573,20; 6096,605;  227,146;29223,429;20,24211
 573,78; 6186,887;  212,446;29730,513;20,23995
 574,36; 6243,566;  217,602;30180,703;20,11128
 574,94; 6311,963;  270,902;30540,039;19,95782
 575,52; 6248,744;  232,507;30775,368;19,69769
 576,10; 6385,822;  282,050;31426,377;19,59834
 576,68; 6456,848;  264,827;31935,562;19,55124
 577,26; 6594,026;  284,118;32591,692;19,53074
 577,84; 6637,964;  279,447;32998,208;19,43386
 578,42; 6714,899;  326,284;33286,154;19,38301
 579,00; 6604,669;  280,676;33355,019;19,12054
 579,58; 6688,027;  318,748;33645,109;19,11184
 580,16; 6669,091;  300,128;33576,362;19,13967
 580,74; 6666,886;  303,435;33816,220;18,98813
 581,32; 6652,002;  298,747;33898,785;18,90848
 581,90; 6601,796;  317,129;33832,369;18,75167
 582,48; 6576,181;  320,590;34061,484;18,54009
 583,06; 6585,579;  314,901;34178,422;18,51750
 583,64; 6619,707;  318,287;34207,103;18,59439
 584,22; 6561,732;  324,659;33989,857;18,52677
 584,80; 6468,437;  336,130;33728,577;18,36436
 585,38; 6347,849;  336,763;33398,400;18,18145
 585,96; 6315,322;  318,136;33540,919;18,05143
 586,54; 6328,321;  337,584;33549,195;18,03808
 587,12; 6257,565;  295,664;33623,671;17,88856
 587,70; 6304,733;  326,751;33915,700;17,79747
 588,28; 6273,745;  310,588;33990,030;17,70563
 588,86; 6247,681;  309,124;34064,532;17,59290
 589,44; 6238,564;  290,421;34138,220;17,57321
 590,02; 6217,090;  295,962;34368,719;17,37789
 590,59; 6238,565;  267,738;34487,740;17,44835
 591,17; 6258,833;  266,411;34747,061;17,37909
 591,75; 6199,961;  267,340;34803,563;17,17797
 592,33; 6271,667;  286,112;35112,345;17,18691
 592,91; 6222,307;  229,721;35426,881;17,02577
 593,49; 6256,538;  245,101;35671,600;16,96876
 594,07; 6301,397;  259,562;35832,838;16,98419
 594,65; 6240,539;  261,352;35821,340;16,81437
 595,23; 6318,000;  246,578;36210,868;16,88181
 595,81; 6288,898;  243,729;36274,311;16,77788
 596,39; 6326,282;  248,883;36486,386;16,77102
 596,97; 6289,436;  243,029;36605,638;16,62809
 597,55; 6272,513;  235,273;36543,706;16,62765
 598,12; 6218,512;  225,713;36555,274;16,49565
 598,70; 6219,192;  216,258;36759,588;16,42689
 599,28; 6239,923;  244,565;36890,184;16,36037
 599,86; 6209,064;  238,027;36873,218;16,29864
 600,44; 6168,012;  204,178;37010,993;16,20307
 601,02; 6194,845;  242,858;37089,574;16,15337
 601,60; 6158,102;  224,878;37007,479;16,13052
 602,18; 6083,897;  213,406;36958,737;15,97615
 602,75; 6061,257;  211,576;37145,530;15,83822
 603,33; 6036,564;  227,411;37128,658;15,74243
 603,91; 6034,870;  209,094;37075,905;15,80223
 604,49; 6054,371;  238,180;37155,830;15,75450
 605,07; 6020,141;  247,802;37247,076;15,60122
 605,65; 6032,820;  252,716;37232,933;15,63026
 606,23; 6042,360;  339,047;37403,294;15,38764
 606,80; 6032,000;  378,730;37512,518;15,22406
 607,38; 5959,883;  435,941;37444,992;14,92592
 607,96; 6014,013;  486,731;37561,063;14,90865
 608,54; 6058,640;  544,639;37598,074;14,88121
 609,12; 6000,116;  574,807;37652,883;14,63212
 609,70; 6037,576;  603,412;37699,629;14,64884
 610,27; 5976,244;  613,886;37760,335;14,43572
 610,85; 5990,294;  621,182;37945,412;14,38506
 611,43; 5965,717;  642,335;37815,543;14,32048
 612,01; 5877,654;  590,418;37537,258;14,31039
 612,59; 5858,025;  573,566;37568,892;14,28413
 613,16; 5801,834;  538,274;37494,408;14,24272
 613,74; 5749,217;  509,257;37388,638;14,20837
 614,32; 5738,820;  459,177;37376,355;14,30132
 614,90; 5651,025;  404,492;37241,860;14,24242
 615,48; 5563,142;  353,657;36952,366;14,23407
 616,05; 5527,321;  322,583;36924,578;14,21982
 616,63; 5509,963;  337,740;36705,328;14,22207
 617,21; 5471,770;  317,732;36719,598;14,15872
 617,79; 5461,872;  301,652;36551,488;14,23515
 618,36; 5435,885;  311,494;36451,140;14,17941
 618,94; 5329,821;  262,272;36145,819;14,12221
 619,52; 5284,847;  278,970;35926,114;14,04286
 620,10; 5279,411;  268,499;35857,414;14,07998
 620,67; 5251,386;  276,048;35802,232;14,00471
 621,25; 5199,859;  291,802;35702,434;13,86041
 621,83; 5169,142;  276,887;35486,864;13,89451
 622,41; 5185,167;  310,888;35527,570;13,84083
 622,98; 5101,129;  295,894;35265,104;13,74133
 623,56; 5083,142;  290,742;35286,075;13,69440
 624,14; 5052,512;  279,414;35205,024;13,66647
 624,72; 5003,013;  269,810;35071,300;13,60058
 625,29; 4995,411;  246,434;35144,209;13,60825
 625,87; 5037,282;  293,805;35131,731;13,61584
 626,45; 4922,912;  242,897;34865,656;13,51716
 627,02; 4919,218;  258,574;34892,390;13,45692
 627,60; 4857,025;  251,640;34812,462;13,32545
 628,18; 4857,039;  234,576;34819,037;13,36572
 628,76; 4857,386;  235,893;34911,423;13,32782
 629,33; 4873,257;  258,197;34923,927;13,31303
 629,91; 4822,026;  241,653;34861,414;13,23052
 630,49; 4887,488;  257,430;35011,585;13,32232
 631,06; 4842,655;  251,046;35169,940;13,14935
 631,64; 4864,706;  256,281;35102,744;13,22494
 632,22; 4792,091;  215,670;35023,676;13,14761
 632,79; 4845,899;  236,439;35310,657;13,14202
 633,37; 4833,038;  219,187;35335,373;13,13882
 633,95; 4821,514;  224,590;35409,881;13,06490
 634,52; 4818,334;  210,118;35526,999;13,04820
 635,10; 4787,641;  208,116;35525,147;12,96690
 635,68; 4849,489;  216,593;35702,106;13,05574
 636,25; 4803,656;  208,060;35657,472;12,96381
 636,83; 4813,924;  194,432;35948,269;12,92027
 637,41; 4828,720;  209,825;35891,686;12,94466
 637,98; 4916,643;  235,749;36229,688;13,00467
 638,56; 4882,348;  220,908;36289,400;12,92386
 639,13; 4856,245;  202,510;36304,779;12,89042
 639,71; 4876,873;  239,892;36412,703;12,81897
 640,29; 4768,728;  182,815;36232,811;12,72098
 640,86; 4847,879;  202,969;36414,071;12,82731
 641,44; 4812,108;  203,661;36446,331;12,71553
 642,02; 4841,644;  233,660;36350,746;12,75846
 642,59; 4785,872;  195,429;36597,698;12,61032
 643,17; 4802,331;  204,967;36478,266;12,67424
 643,74; 4780,098;  201,198;36555,988;12,59504
 644,32; 4822,711;  228,813;36455,172;12,68109
 644,89; 4773,632;  211,505;36439,201;12,59293
 645,47; 4776,630;  220,351;36540,615;12,54473
 646,05; 4773,166;  225,120;36471,876;12,54746
 646,62; 4720,856;  219,735;36389,597;12,44440
 647,20; 4733,392;  221,734;36537,396;12,42345
 647,77; 4679,390;  194,196;36456,810;12,36864
 648,35; 4691,387;  188,041;36334,455;12,45862
 648,92; 4678,308;  226,118;36323,408;12,33386
 649,50; 4663,921;  182,656;36179,668;12,44899
 650,08; 4637,995;  194,348;36169,390;12,35203
 650,65; 4671,532;  196,656;36434,343;12,34868
 651,23; 4766,529;  176,809;37475,142;12,30543
 651,80; 4873,681;  177,963;38145,556;12,36770
 652,38; 4910,986;  195,116;38409,124;12,34068
 652,95; 4956,061;  174,577;38783,076;12,38454
 653,53; 4971,058;  200,346;38932,645;12,31714
 654,10; 5016,594;  225,807;39085,059;12,32856
 654,68; 4989,977;  185,499;38997,857;12,37873
 655,25; 4954,667;  180,653;39155,964;12,24881
 655,83; 4987,587;  191,653;39123,301;12,31886
 656,40; 5018,816;  207,268;39125,792;12,36313
 656,98; 4981,583;  178,344;39041,976;12,35921
 657,55; 4924,273;  200,113;38905,544;12,20542
 658,13; 4879,578;  183,036;38492,266;12,25956
 658,70; 4877,576;  214,036;38173,064;12,28572
 659,28; 4737,650;  195,343;37285,325;12,24672
 659,85; 4638,648;  202,189;36767,200;12,13307
 660,43; 4661,568;  216,496;36795,922;12,15184
 661,00; 4627,335;  192,034;37030,413;12,03989
 661,58; 4649,333;  193,188;37247,674;12,02593
 662,15; 4675,023;  173,264;37525,396;12,05221
 662,73; 4783,482;  228,956;37772,656;12,13127
 663,30; 4752,634;  196,879;37982,147;12,05696
 663,88; 4766,247;  201,725;38034,946;12,06485
 664,45; 4767,552;  177,032;38376,514;12,01723
 665,03; 4802,011;  190,186;38730,467;11,96625
 665,60; 4956,317;  247,032;39080,342;12,12692
 666,17; 4869,468;  190,416;39173,141;12,00289
 666,75; 4903,004;  182,569;39595,478;11,97687
 667,32; 4955,079;  218,954;39835,200;11,95501
 667,90; 4970,230;  190,800;40079,691;11,98186
 668,47; 5023,074;  214,030;40393,490;11,96891
 669,05; 5054,533;  190,568;40677,597;12,01364
 669,62; 5072,992;  165,876;40703,472;12,10510
 670,19; 5049,913;  186,183;40780,271;11,98138
 670,77; 5090,372;  194,413;40914,301;12,02351
 671,34; 5101,062;  189,105;40904,253;12,06420
 671,92; 5140,521;  174,182;41211,052;12,10214
 672,49; 5156,134;  201,797;41289,235;12,05803
 673,06; 5111,132;  155,720;41258,496;12,05615
 673,64; 5134,437;  177,335;41221,448;12,07750
 674,21; 5124,897;  163,334;41252,786;12,07503
 674,79; 5210,817;  197,565;41443,123;12,15465
 675,36; 5228,353;  200,949;41590,152;12,14666
 675,93; 5164,351;  171,257;41475,567;12,08856
 676,51; 5182,195;  180,487;41691,365;12,04915
 677,08; 5229,885;  187,641;41722,087;12,13991
 677,65; 5227,575;  190,256;41813,578;12,10216
 678,23; 5253,726;  190,717;42092,608;12,08301
 678,80; 5251,339;  177,563;42089,638;12,10576
 679,38; 5285,875;  172,716;42195,206;12,16767
 679,95; 5356,027;  186,408;42522,697;12,21085
 680,52; 5377,178;  174,869;42794,188;12,20646
 681,10; 5456,099;  187,946;43153,602;12,26131
 681,67; 5468,020;  194,869;43574,862;12,15572
 682,24; 5470,325;  170,791;43488,969;12,23397
 682,82; 5540,015;  178,791;44118,998;12,20118
 683,39; 5673,551;  220,791;44479,951;12,32007
 683,96; 5659,395;  175,867;44567,673;12,35257
 684,54; 5656,008;  176,790;44929,625;12,24329
 685,11; 5758,313;  211,867;45244,655;12,31646
 685,68; 5800,080;  191,097;45715,146;12,32092
 686,25; 5783,386;  175,943;45676,637;12,32386
 686,83; 5809,691;  174,481;45902,974;12,32319
 687,40; 5867,150;  174,173;46243,850;12,35732
 687,97; 5996,686;  210,865;46634,187;12,46318
 688,55; 5901,992;  172,096;46695,909;12,31605
 689,12; 5929,835;  158,018;46834,247;12,36565
 689,69; 5956,371;  167,941;46987,738;12,36321
 690,26; 6043,677;  188,095;47065,767;12,49120
 690,84; 6014,828;  176,248;47164,335;12,42566
 691,41; 6075,595;  191,325;47289,980;12,49350
 691,98; 6119,285;  186,324;47652,471;12,49935
 692,56; 6140,129;  172,016;47699,501;12,55718
 693,13; 6186,819;  231,478;47811,146;12,51657
 693,70; 6184,509;  198,477;47910,483;12,54617
 694,27; 6184,045;  175,861;48078,666;12,54245
 694,84; 6231,120;  172,553;48199,850;12,61484
 695,42; 6287,502;  209,938;48158,418;12,67520
 695,99; 6289,192;  178,399;48434,217;12,66333
 696,56; 6275,112;  166,937;48235,939;12,70710
 697,13; 6368,418;  188,937;48645,660;12,75258
 697,71; 6383,262;  156,936;48695,382;12,82762
 698,28; 6438,952;  177,859;49043,181;12,81296
 698,85; 6412,488;  149,936;49061,749;12,80376
 699,42; 6444,562;  150,166;49175,317;12,83912
 699,99; 6513,252;  186,781;49168,424;12,91600
 700,57; 6499,096;  189,550;49295,376;12,84887
 701,14; 6513,863;  167,627;49540,867;12,85359
 701,71; 6597,399;  191,088;49600,743;12,96571
 702,28; 6616,012;  187,703;49671,388;12,99076
 702,85; 6648,548;  182,780;49705,341;13,05621
 703,43; 6659,007;  200,856;50042,139;12,95743
 704,00; 6707,620;  205,394;50212,708;13,00255
 704,57; 6695,464;  198,394;50247,276;12,98145
 705,14; 6758,923;  221,009;50445,074;13,01749
 705,71; 6771,536;  223,855;50507,027;13,02162
 706,28; 6809,611;  199,239;50257,057;13,20547
 706,86; 6884,685;  223,854;50675,701;13,20235
 707,43; 6897,760;  231,546;50503,193;13,26038
 708,00; 6928,527;  219,777;50573,299;13,32330
 708,57; 6918,140;  201,623;50403,175;13,37910
 709,14; 6988,291;  226,238;50611,974;13,42057
 709,71; 7013,135;  202,391;50668,619;13,49565
 710,28; 7077,441;  190,852;50869,263;13,58880
 710,86; 7077,592;  194,467;50971,908;13,55548
 711,43; 7138,820;  211,929;50930,246;13,65757
 712,00; 7154,587;  203,390;51004,044;13,68328
 712,57; 7193,508;  213,082;51145,920;13,70516
 713,14; 7239,121;  192,389;51241,027;13,80396
 713,71; 7253,426;  199,773;51219,825;13,82526
 714,28; 7307,116;  203,696;51284,240;13,90631
 714,85; 7278,729;  179,234;51042,962;13,95787
 715,42; 7337,496;  197,772;51212,914;13,99530
 716,00; 7432,648;  231,464;51301,790;14,10052
 716,57; 7387,799;  194,156;51492,127;14,02325
 717,14; 7370,412;  174,233;51368,080;14,05673
 717,71; 7389,641;  162,925;51490,879;14,07949
 718,28; 7479,869;  209,540;51434,370;14,19298
 718,85; 7469,098;  178,540;51513,476;14,20194
 719,42; 7532,172;  191,155;51748,583;14,23853
 719,99; 7488,247;  184,154;51432,997;14,25221
 720,56; 7589,167;  194,385;51626,411;14,37778
 721,13; 7602,088;  186,231;51896,825;14,34108
 721,70; 7611,240;  175,154;51737,624;14,42151
 722,27; 7658,468;  211,538;51837,961;14,42465
 722,84; 7766,927;  227,999;51915,914;14,58548
 723,41; 7746,386;  168,691;51779,251;14,68245
 723,98; 7767,769;  189,845;52034,127;14,61670
 724,55; 7877,459;  210,383;52143,541;14,76335
 725,12; 7869,379;  144,921;52052,878;14,88107
 725,69; 7965,992;  175,844;52301,446;14,94496
 726,27; 8038,298;  181,459;52352,553;15,05976
 726,84; 8088,218;  189,227;52631,044;15,06239
 727,41; 8145,985;  195,150;52610,612;15,16887
 727,98; 8176,675;  193,842;52946,641;15,13253
 728,55; 8244,673;  217,919;52853,517;15,24967
 729,12; 8271,209;  168,611;53012,931;15,33296
 729,69; 8361,437;  194,610;53127,346;15,42869
 730,26; 8381,589;  205,764;53271,221;15,40706
 730,82; 8405,817;  186,764;53139,866;15,52138
 731,39; 8418,507;  189,840;53253,742;15,50709
 731,96; 8575,505;  176,071;53726,771;15,68501
 732,53; 8616,349;  199,686;53794,724;15,70418
 733,10; 8692,885;  198,455;53893,754;15,81969
 733,67; 8719,729;  195,993;54022,860;15,83547
 734,24; 8694,265;  187,608;53704,428;15,89530
 734,81; 8806,647;  213,608;53786,227;16,03998
 735,38; 8773,952;  198,069;53504,026;16,08804
 735,95; 8726,488;  192,607;53378,671;16,04533
 736,52; 8835,332;  207,683;53641,931;16,14629
 737,09; 8816,484;  205,760;53200,114;16,24838
 737,66; 8880,404;  236,683;53366,682;16,26900
 738,23; 8945,248;  196,298;53539,558;16,40123
 738,80; 9025,323;  232,298;53792,126;16,41720
 739,37; 9056,320;  221,682;53891,540;16,46108
 739,94; 9114,780;  194,220;53998,185;16,57974
 740,51; 9226,162;  276,527;54075,523;16,63532
 741,07; 9213,236;  188,835;53936,014;16,79047
 741,64; 9254,696;  223,450;54271,043;16,70980
 742,21; 9305,847;  192,296;54194,304;16,87632
 742,78; 9224,383;  169,834;54114,949;16,78474
 743,35; 9323,689;  197,218;54262,440;16,88048
 743,92; 9460,686;  223,218;54418,623;17,04474
 744,49; 9495,453;  196,756;54284,806;17,19178
 745,06; 9511,528;  187,986;54336,836;17,21836
 745,63; 9448,833;  169,524;54346,712;17,12770
 746,19; 9573,677;  183,293;54321,818;17,34510
 746,76; 9618,674;  199,139;54303,079;17,41007
 747,33; 9624,441;  189,754;54318,877;17,42996
 747,90; 9732,362;  213,292;54484,907;17,53968
 748,47; 9757,052;  211,292;54387,013;17,62000
 749,04; 9785,280;  202,369;54411,043;17,67782
 749,61; 9836,278;  225,522;54302,765;17,77227
 750,17; 9891,430;  201,445;54403,717;17,87745
 750,74; 9931,812;  207,214;54210,209;18,00752
 751,31; 9904,348;  183,598;54225,161;17,98754
 751,88; 9921,653;  172,521;54072,422;18,08748
 752,45;10053,497;  197,597;54272,143;18,22650
 753,02;10040,418;  203,905;54075,788;18,25908
 753,58;10054,108;  179,289;54019,895;18,34084
 754,15;10098,105;  189,212;54153,617;18,36191
 754,72;10104,257;  184,673;53897,646;18,46776
 755,29;10117,947;  182,827;53744,214;18,54903
 755,86;10223,868;  206,980;53887,552;18,66017
 756,42;10246,711;  211,057;53757,812;18,74185
 756,99;10238,094;  183,364;53740,995;18,77366
 757,56;10258,322;  188,594;53599,486;18,85332
 758,13;10299,627;  154,902;53643,901;18,96600
 758,70;10383,163;  184,055;53619,546;19,08677
 759,26;10423,546;  186,055;53680,575;19,13746
 759,83;10479,005;  192,824;53849,374;19,17041
 760,40;10509,849;  172,439;53729,019;19,30185
 760,97;10520,846;  181,054;53652,433;19,33706
 761,53;10553,382;  153,054;53224,155;19,59697
 762,10;10513,765;  167,746;53412,261;19,43114
 762,67;10620,455;  181,515;53308,291;19,64911
 763,24;10569,914;  142,668;52784,551;19,80789
 763,80;10622,296;  173,283;52993,273;19,78231
 764,37;10678,217;  174,898;52890,303;19,92457
 764,94;10602,984;  170,667;52409,332;19,97049
 765,50;10687,751;  154,898;52455,669;20,13900
 766,07;10741,287;  202,897;52535,853;20,13720
 766,64;10721,669;  164,666;52255,806;20,26641
 767,21;10646,820;  170,897;52117,681;20,16665
 767,77;10751,510;  192,127;51984,249;20,38801
 768,34;10786,277;  185,896;52024,894;20,44866
 768,91;10745,198;  184,819;51831,385;20,44740
 769,47;10842,965;  183,588;51739,646;20,67531
 770,04;10896,732;  198,203;51652,137;20,79244
 770,61;10803,422;  176,433;51467,012;20,71918
 771,18;10877,958;  165,740;51421,427;20,89957
 771,74;10959,571;  179,894;51554,995;20,98230
 772,31;10978,107;  178,817;51285,486;21,13088
 772,88;10991,797;  162,201;50999,746;21,30236
 773,44;11013,871;  174,970;50919,930;21,35956
 774,01;11039,485;  184,354;50986,190;21,36759
 774,58;11055,098;  165,431;50584,450;21,59833
 775,14;11151,326;  165,815;50935,787;21,63781
 775,71;11188,785;  162,353;50687,048;21,82385
 776,27;11220,552;  209,199;50623,616;21,84167
 776,84;11348,165;  235,814;50558,107;22,08236
 777,41;11261,393;  192,737;50449,598;22,02417
 777,97;11229,391;  175,737;50148,397;22,11940
 778,54;11242,312;  194,121;50152,734;22,11469
 779,11;11299,694;  202,121;50107,456;22,23725
 779,67;11345,076;  166,582;50077,870;22,39673
 780,24;11319,228;  187,197;49932,053;22,37826
 780,80;11383,225;  211,966;49922,545;22,47260
 781,37;11440,454;  191,735;49936,959;22,61266
 781,94;11395,913;  193,427;49652,142;22,65018
 782,50;11487,757;  199,657;49670,710;22,81759
 783,07;11533,908;  220,657;49662,124;22,88211
 783,63;11501,521;  178,426;49441,923;22,98476
 784,20;11511,596;  211,810;49375,876;22,98383
 784,77;11534,747;  190,810;49139,598;23,17511
 785,33;11559,822;  168,886;48971,396;23,34088
 785,90;11570,820;  193,809;48959,657;23,32987
 786,46;11627,971;  202,424;48732,302;23,54333
 787,03;11647,969;  179,654;48603,793;23,68305
 787,59;11683,890;  192,808;48512,438;23,78139
 788,16;11705,195;  211,961;48495,083;23,80383
 788,73;11699,269;  204,500;48330,420;23,88478
 789,29;11643,652;  184,884;47928,450;24,00065
 789,86;11673,342;  201,268;47917,556;24,04226
 790,42;11675,185;  204,499;47807,739;24,09644
 790,99;11641,337;  209,960;47333,538;24,25830
 791,55;11676,335;  188,113;47363,029;24,35239
 792,12;11714,717;  203,421;47333,059;24,42475
 792,68;11694,945;  189,651;47039,165;24,55798
 793,25;11641,943;  203,497;46936,887;24,47596
 793,81;11685,402;  236,958;46509,609;24,74128
 794,38;11553,246;  164,496;46262,254;24,70565
 794,94;11611,628;  187,958;46176,130;24,84045
 795,51;11596,626;  212,419;45888,467;24,92380
 796,07;11558,700;  197,572;45609,343;25,01802
 796,64;11636,852;  212,110;45813,911;25,05327
 797,20;11590,080;  201,956;45285,094;25,26027
 797,77;11515,924;  182,725;45032,124;25,26946
 798,33;11545,845;  203,648;44824,384;25,41912
 798,90;11569,458;  229,109;44683,106;25,51030
 799,46;11467,840;  193,493;44359,520;25,52719
 800,03;11519,453;  209,262;44232,319;25,69152
 800,59;11480,912;  215,493;43968,425;25,74780
 801,15;11484,602;  218,339;43802,378;25,84952
 801,72;11486,677;  207,569;43444,638;26,08666
 802,28;11427,290;  236,799;43195,053;26,04969
 802,85;11407,595;  201,338;43084,313;26,13218
 803,41;11400,208;  196,568;42831,573;26,27803
 803,98;11339,898;  203,260;42400,218;26,39204
 804,54;11318,204;  200,721;42207,402;26,46599
 805,11;11324,355;  212,413;41947,816;26,62474
 805,67;11336,583;  224,105;41867,230;26,68502
 806,23;11245,120;  210,105;41537,106;26,70171
 806,80;11296,348;  229,412;41438,981;26,85526
 807,36;11256,730;  235,797;41322,165;26,82382
 807,93;11253,112;  232,335;41031,425;27,01231
 808,49;11180,495;  204,257;40732,070;27,08322
 809,05;11157,723;  195,949;40583,638;27,14137
 809,62;11132,644;  227,488;40551,206;27,04402
 810,18;11136,180;  220,949;40393,005;27,17120
 810,74;11110,178;  188,102;40200,188;27,29694
 811,31;11094,021;  197,563;39963,372;27,40158
 811,87;11070,788;  203,794;39769,478;27,46571
 812,44;11153,786;  244,024;39784,277;27,59153
 813,00;11045,245;  170,486;39537,922;27,62374
 813,56;11146,012;  211,716;39511,567;27,82274
 814,13;11046,240;  210,716;39485,289;27,58916
 814,69;11031,469;  217,100;39222,164;27,72555
 815,25;10952,313;  184,792;38821,886;27,86835
 815,82;10926,310;  223,869;38740,224;27,78675
 816,38;10972,846;  238,561;38592,253;27,98762
 816,94;10833,536;  199,329;38345,206;27,87774
 817,51;10785,611;  195,945;38141,851;27,90727
 818,07;10744,839;  191,406;37898,880;27,98764
 818,63;10806,529;  216,098;37713,833;28,24286
 819,20;10772,142;  210,790;37591,401;28,25356
 819,76;10667,140;  182,405;37175,738;28,34223
 820,32;10712,599;  227,404;37176,306;28,37755
 820,89;10668,828;  218,943;36972,874;28,43202
 821,45;10586,364;  193,635;36705,673;28,46384
 822,01;10574,207;  212,173;36457,472;28,58863
 822,57;10590,744;  216,480;36314,578;28,73909
 823,14;10569,587;  183,018;36003,069;28,99652
 823,70;10525,508;  191,556;35843,407;28,98574
 824,26;10499,736;  194,479;35633,667;29,07871
 824,82;10527,888;  219,248;35486,158;29,23035
 825,39;10387,732;  198,248;35265,188;29,05724
 825,95;10499,191;  221,555;35348,063;29,25892
 826,51;10426,650;  217,401;34890,631;29,44418
 827,08;10534,648;  248,400;35052,738;29,55450
 827,64;10457,261;  227,939;34877,075;29,52259
 828,20;10436,797;  195,246;34455,797;29,89313
 828,76;10472,795;  217,553;34479,211;29,93212
 829,32;10470,408;  228,630;34362,702;30,00456
 829,89;10388,867;  191,860;34270,040;29,92239
 830,45;10471,018;  218,168;34148,531;30,21733
 831,01;10415,324;  188,706;34034,483;30,21534
 831,57;10406,167;  214,013;33873,051;30,28059
 832,14;10413,704;  188,474;33829,235;30,39536
 832,70;10342,470;  184,320;33568,957;30,42762
 833,26;10359,468;  173,012;33541,294;30,52736
 833,82;10372,235;  193,166;33430,785;30,62515
 834,38;10403,617;  191,012;33459,661;30,69739
 834,95;10332,307;  182,242;33288,767;30,65881
 835,51;10279,536;  159,934;33178,258;30,64844
 836,07;10445,379;  208,857;33126,749;31,09714
 836,63;10413,915;  219,933;33182,471;30,92596
 837,19;10424,528;  200,472;33054,885;31,11928
 837,75;10342,526;  175,702;32831,684;31,13311
 838,32;10507,062;  233,163;32805,021;31,54226
 838,88;10505,214;  208,086;32879,974;31,51678
 839,44;10526,211;  204,547;32835,311;31,63170
 840,00;10472,671;  196,008;32711,649;31,60529
 840,56;10474,668;  187,008;32406,370;31,93006
 841,12;10456,743;  192,931;32423,169;31,84529
 841,68;10447,202;  178,623;32247,353;32,02054
 842,25;10421,277;  196,392;32285,921;31,86362
 842,81;10420,890;  175,468;32000,643;32,19282
 843,37;10420,733;  175,391;32049,980;32,14267
 843,93;10463,500;  190,237;31899,163;32,39865
 844,49;10531,113;  199,160;31924,962;32,56641
 845,05;10448,419;  170,159;31752,222;32,54461
 845,61;10552,032;  196,928;31819,329;32,74610
 846,17;10508,106;  182,928;31693,051;32,76781
 846,73;10563,565;  201,543;31660,157;32,93859
 847,29;10533,025;  166,389;31376,571;33,21556
 847,86;10547,868;  189,311;31471,293;33,11349
 848,42;10514,866;  185,003;31231,323;33,27242
 848,98;10534,171;  199,003;31167,122;33,37357
 849,54;10621,477;  189,080;31192,151;33,64956
 850,10;10578,013;  192,002;31075,950;33,62915
 850,66;10506,087;  178,541;30952,133;33,55977
 851,22;10506,162;  174,463;30881,240;33,64631
 851,78;10575,083;  217,386;30775,423;33,89516
 852,34;10513,850;  188,463;30672,991;33,87091
 852,90;10473,001;  195,462;30472,098;33,94545
 853,46;10445,383;  186,001;30447,820;33,90207
 854,02;10509,612;  190,539;30376,080;34,18548
 854,58;10414,840;  195,461;30142,340;34,12502
 855,14;10401,684;  179,538;30039,293;34,23386
 855,70;10361,605;  159,307;29848,553;34,36361
 856,26;10371,910;  214,845;29829,275;34,29769
 856,82;10356,446;  176,229;29632,305;34,56067
 857,38;10368,905;  213,460;29555,565;34,61049
 857,94;10367,518;  193,229;29523,748;34,68841
 858,50;10350,670;  197,228;29334,701;34,84668
 859,06;10343,052;  184,843;29214,038;34,99308
 859,62;10360,357;  202,305;29092,376;35,16105
 860,18;10267,355;  195,535;29018,405;34,94385
 860,74;10292,353;  165,535;28836,666;35,32061
 861,30;10183,966;  170,073;28620,926;35,19716
 861,86;10275,886;  211,688;28730,417;35,28979
 862,42;10227,807;  191,380;28475,831;35,48390
 862,98;10263,266;  217,303;28471,707;35,55539
 863,54;10170,879;  191,302;28284,813;35,52271
 864,10;10203,954;  187,456;28354,689;35,56082
 864,66;10166,259;  177,686;28122,949;35,74335
 865,22;10179,257;  191,378;28028,287;35,87999
 865,78;10104,331;  201,609;27833,932;35,83746
 866,34;10163,406;  185,070;27786,423;36,15162
 866,90;10180,788;  200,531;27757,683;36,21658
 867,45;10092,555;  196,069;27478,097;36,27474
 868,01;10088,014;  197,300;27422,434;36,32935
 868,57; 9988,704;  195,761;27147,156;36,33557
 869,13; 9959,548;  172,914;26985,186;36,50058
 869,69; 9978,469;  190,068;26880,523;36,67379
 870,25; 9947,159;  183,837;26807,937;36,67099
 870,81; 9922,926;  188,606;26822,582;36,54850
 871,37; 9891,385;  207,144;26708,766;36,54207
 871,93; 9815,229;  208,528;26547,949;36,47271
 872,49; 9858,996;  205,143;26366,825;36,90073
 873,04; 9737,224;  190,297;26172,470;36,74414
 873,60; 9742,991;  183,835;26067,115;36,93178
 874,16; 9691,681;  206,681;26004,837;36,76619
 874,72; 9715,065;  174,527;25912,913;37,06735
 875,28; 9687,835;  199,142;25949,298;36,84907
 875,84; 9724,604;  187,681;25809,067;37,22251
 876,40; 9723,758;  189,988;25718,298;37,34587
 876,95; 9713,373;  199,219;25729,913;37,26555
 877,51; 9785,681;  219,065;25743,067;37,48086
 878,07; 9798,450;  229,758;25741,144;37,50754
 878,63; 9797,373;  189,142;25670,144;37,70743
 879,19; 9849,450;  207,527;25682,221;37,84902
 879,75; 9845,527;  196,527;25680,837;37,86251
 880,30; 9880,835;  192,604;25741,298;37,92065
 880,86; 9970,450;  231,604;25824,452;38,05300
 881,42; 9968,758;  175,835;25867,606;38,11696
 881,98;10012,065;  197,142;25967,683;38,08583
 882,54;10110,219;  185,527;26060,683;38,35607
 883,09;10194,681;  200,988;26136,375;38,53304
 883,65;10198,373;  181,296;26253,067;38,42116
 884,21;10378,912;  220,604;26443,298;38,73861
 884,77;10381,527;  187,681;26443,529;38,82505
 885,32;10517,296;  197,835;26623,144;39,05143
 885,88;10566,912;  224,142;26729,221;39,02184
 886,44;10646,604;  200,527;26781,452;39,29915
 887,00;10656,758;  206,450;26781,683;39,32349
 887,56;10714,142;  204,758;26950,452;39,29374
 888,11;10744,296;  198,758;26875,529;39,53079
 888,67;10816,681;  227,219;27192,837;39,27024
 889,23;10841,681;  211,988;27134,529;39,48250
 889,79;10784,142;  177,142;26959,913;39,60382
 890,34;10829,758;  197,373;26890,144;39,83245
 890,90;10949,373;  261,835;26991,067;39,98446
 891,46;10899,450;  189,450;26957,837;40,00988
 892,01;11009,373;  215,912;26927,452;40,40748
 892,57;10962,681;  233,065;26787,529;40,40607
 893,13;10912,681;  204,296;26687,837;40,43411
 893,69;10931,219;  196,604;26742,837;40,43743
 894,24;10874,142;  208,142;26558,144;40,47818
 894,80;10840,373;  207,527;26352,606;40,66863
 895,36;10841,296;  214,142;26334,375;40,68553
 895,91;10766,912;  201,296;26085,298;40,81910
 896,47;10799,296;  214,681;26019,760;41,01757
 897,03;10716,065;  190,142;25808,144;41,08799
 897,58;10649,065;  204,604;25710,452;40,94928
 898,14;10663,835;  209,450;25562,606;41,23504
 898,70;10571,373;  183,988;25405,683;41,18433
 899,25;10601,758;  206,988;25479,067;41,13144
 899,81;10589,835;  226,219;25196,990;41,50298
 900,37;10446,296;  180,912;24989,837;41,37779
 900,92;10484,527;  201,296;25014,760;41,44214
 901,48;10459,681;  195,296;24905,837;41,53849
 902,03;10379,219;  188,450;24770,452;41,45622
 902,59;10338,450;  191,758;24677,375;41,43940
 903,15;10302,296;  209,604;24532,913;41,49391
 903,70;10236,681;  209,604;24308,452;41,60812
 904,26;10234,219;  186,604;24260,452;41,73664
 904,82;10249,912;  206,527;24168,837;41,91326
 905,37;10270,604;  211,065;23999,913;42,28678
 905,93;10220,758;  195,219;23948,837;42,20637
 906,48;10215,604;  214,373;23861,760;42,29318
 907,04;10199,219;  215,912;23793,913;42,34162
 907,60;10201,912;  196,065;23571,452;42,80505
 908,15;10178,912;  191,065;23422,144;42,99347
 908,71;10208,450;  223,219;23390,298;43,10095
 909,26;10116,296;  186,988;23283,067;42,99131
 909,82;10070,912;  218,604;23088,760;43,07932
 910,37;10057,142;  228,065;22987,837;43,18619
 910,93;10014,527;  189,758;22826,529;43,40181
 911,48; 9995,604;  182,450;22725,760;43,53023
 912,04; 9911,527;  189,450;22628,913;43,32580
 912,60; 9957,373;  201,758;22711,606;43,33932
 913,15; 9916,296;  206,219;22436,529;43,67945
 913,71; 9837,681;  193,912;22300,760;43,62345
 914,26; 9826,296;  184,527;22214,067;43,76746
 914,82; 9806,988;  205,296;22088,683;43,87663
 915,37; 9732,450;  186,527;22002,221;43,75714
 915,93; 9775,912;  231,681;21942,683;43,96034
 916,48; 9717,604;  200,142;21836,221;43,98885
 917,04; 9684,527;  205,912;21692,298;44,11452
 917,59; 9674,527;  228,142;21680,298;44,03466
 918,15; 9574,681;  167,912;21509,221;44,07775
 918,70; 9563,681;  196,373;21388,067;44,20273
 919,26; 9585,527;  203,527;21271,452;44,53215
 919,81; 9497,296;  181,219;21161,606;44,40374
 920,37; 9471,296;  196,296;21054,760;44,46636
 920,92; 9474,450;  210,450;20993,067;44,57571
 921,48; 9413,604;  187,450;20769,375;44,82649
 922,03; 9457,373;  181,604;20754,837;45,08659
 922,59; 9405,142;  189,373;20638,221;45,06742
 923,14; 9412,373;  188,988;20487,221;45,43935
 923,69; 9410,065;  218,527;20450,298;45,43121
 924,25; 9404,527;  212,681;20397,452;45,53852
 924,80; 9321,296;  203,758;20279,144;45,41650
 925,36; 9307,142;  190,604;20144,837;45,68724
 925,91; 9284,450;  198,373;20036,683;45,80066
 926,47; 9271,527;  182,681;19981,760;45,90540
 927,02; 9321,450;  236,527;19892,990;46,21850
 927,57; 9290,604;  197,450;19766,606;46,46677
 928,13; 9230,065;  187,527;19635,298;46,49653
 928,68; 9240,758;  196,758;19562,683;46,70058
 929,24; 9145,142;  165,604;19332,760;46,84857
 929,79; 9129,835;  189,450;19374,144;46,60165
 930,34; 9109,527;  200,604;19219,067;46,84355
 930,90; 9116,527;  178,065;19171,683;47,06034
 931,45; 9050,835;  212,065;19131,990;46,71672
 932,01; 9063,065;  203,373;18981,375;47,18123
 932,56; 9026,527;  206,604;18829,529;47,36057
 933,11; 9051,219;  219,604;18883,837;47,31840
 933,67; 8968,758;  190,142;18662,760;47,52231
 934,22; 8935,758;  202,142;18576,606;47,53127
 934,77; 8889,142;  219,450;18450,144;47,55547
 935,33; 8847,835;  212,681;18364,990;47,57055
 935,88; 8838,373;  216,219;18292,913;47,69763
 936,43; 8805,219;  183,373;18178,529;47,91204
 936,99; 8760,758;  198,527;18078,760;47,88657
 937,54; 8740,912;  184,604;17930,760;48,21499
 938,09; 8763,758;  204,681;17895,760;48,38075
 938,65; 8710,219;  203,758;17768,683;48,42868
 939,20; 8660,450;  192,912;17668,529;48,45344
 939,75; 8639,065;  183,450;17611,683;48,51677
 940,31; 8599,604;  177,219;17523,298;48,55498
 940,86; 8621,912;  202,450;17448,529;48,81957
 941,41; 8642,527;  259,758;17371,452;48,98854
 941,96; 8540,681;  192,296;17291,067;48,82447
 942,52; 8563,835;  192,681;17197,221;49,22893
 943,07; 8464,296;  173,758;17022,529;49,20560
 943,62; 8453,450;  195,758;16975,452;49,21241
 944,18; 8448,142;  178,373;16942,221;49,33097
 944,73; 8437,527;  195,988;16850,221;49,48615
 945,28; 8307,758;  162,219;16678,837;49,31723
 945,83; 8345,527;  189,912;16652,529;49,54021
 946,39; 8336,450;  188,219;16654,529;49,48426
 946,94; 8341,758;  210,219;16546,990;49,77445
 947,49; 8279,373;  192,912;16355,683;50,03141
 948,04; 8324,758;  213,988;16382,837;50,16294
 948,59; 8279,758;  217,373;16321,990;50,06257
 949,15; 8213,988;  174,373;16220,144;50,10426
 949,70; 8164,373;  196,604;16162,529;49,90484
 950,25; 8171,758;  212,296;16074,683;50,17821
 950,80; 8072,988;  168,065;15965,683;50,03870
 951,36; 8098,604;  163,604;15866,298;50,53273
 951,91; 8167,296;  196,527;15937,990;50,63550
 952,46; 8032,296;  169,681;15675,298;50,70817
 953,01; 8036,988;  204,681;15721,606;50,47590
 953,56; 7982,065;  171,758;15519,529;50,88887
 954,11; 7959,373;  200,065;15497,837;50,72182
 954,67; 7930,065;  194,604;15418,298;50,81199
 955,22; 7864,527;  177,450;15336,837;50,70836
 955,77; 7906,450;  213,988;15372,606;50,74646
 956,32; 7899,219;  237,450;15165,990;51,32296
 956,87; 7755,373;  177,835;15115,606;50,72737
 957,42; 7754,758;  190,373;15019,760;51,00942
 957,98; 7724,912;  185,758;14944,683;51,08200
 958,53; 7727,373;  209,681;14911,452;51,13460
 959,08; 7650,450;  188,681;14761,298;51,20404
 959,63; 7604,450;  183,988;14712,913;51,07371
 960,18; 7612,450;  204,758;14648,529;51,28641
 960,73; 7625,835;  197,219;14620,452;51,50451
 961,28; 7596,604;  162,604;14516,221;51,79182
 961,83; 7586,988;  212,065;14468,529;51,73038
 962,39; 7506,604;  170,527;14320,760;51,84421
 962,94; 7499,912;  208,373;14261,606;51,88513
 963,49; 7439,142;  193,373;14064,606;52,23594
 964,04; 7467,988;  205,219;14101,837;52,26286
 964,59; 7367,758;  167,835;13950,452;52,23916
 965,14; 7406,527;  204,065;13914,298;52,53347
 965,69; 7342,450;  190,681;13818,375;52,47967
 966,24; 7286,296;  185,065;13732,760;52,41653
 966,79; 7293,065;  198,296;13657,221;52,71423
 967,34; 7211,681;  172,681;13516,913;52,74938
 967,89; 7243,988;  181,527;13465,452;53,16547
 968,44; 7217,142;  191,527;13384,221;53,25383
 968,99; 7161,912;  200,450;13406,990;52,71223
 969,55; 7130,450;  198,142;13242,144;53,14556
 970,10; 7108,296;  195,604;13172,606;53,26879
 970,65; 7063,835;  206,988;13092,221;53,21476
 971,20; 7013,219;  183,296;12931,913;53,57383
 971,75; 6940,912;  170,758;12815,683;53,54048
 972,30; 6915,219;  194,065;12817,144;53,24496
 972,85; 6907,373;  186,758;12681,067;53,78941
 973,40; 6856,296;  183,450;12642,760;53,55711
 973,95; 6826,219;  198,142;12550,683;53,65760
 974,50; 6825,527;  215,988;12480,683;53,89077
 975,05; 6784,373;  207,988;12393,606;53,96842
 975,60; 6793,988;  203,527;12316,298;54,40920
 976,15; 6753,681;  188,912;12217,913;54,57451
 976,70; 6698,604;  201,219;12141,375;54,41625
 977,25; 6701,835;  203,835;12047,760;54,86357
 977,80; 6619,681;  193,681;11947,837;54,67003
 978,35; 6561,296;  204,681;11800,837;54,81657
 978,89; 6501,912;  179,065;11732,990;54,72466
 979,44; 6482,604;  194,988;11782,452;54,26222
 979,99; 6377,988;  188,681;11583,683;54,31599
 980,54; 6391,296;  215,758;11494,606;54,75327
 981,09; 6317,450;  207,988;11429,221;54,44555
 981,64; 6250,142;  210,527;11337,837;54,27741
 982,19; 6275,296;  230,450;11234,606;54,93239
 982,74; 6189,450;  215,219;11126,067;54,75496
 983,29; 6116,912;  187,065;10984,606;54,91849
 983,84; 6057,219;  206,296;10970,990;54,35290
 984,39; 6143,065;  240,681;10901,606;55,36466
 984,94; 5984,758;  180,604;10728,298;55,02770
 985,49; 5987,835;  222,758;10684,375;55,10694
 986,03; 5966,681;  223,219;10548,067;55,62756
 986,58; 5899,681;  235,296;10449,837;55,45413
 987,13; 5851,450;  199,527;10346,452;55,70085
 987,68; 5814,065;  203,142;10294,452;55,60154
 988,23; 5773,988;  221,604;10229,760;55,47860
 988,78; 5662,219;  195,450;10102,452;55,18086
 989,33; 5670,604;  214,527;10005,990;55,72279
 989,88; 5670,604;  221,450; 9953,990;55,98902
 990,42; 5553,296;  202,758; 9835,221;55,54694
 990,97; 5505,912;  201,450; 9690,375;55,90161
 991,52; 5490,296;  223,527; 9655,144;55,84163
 992,07; 5472,527;  219,604; 9549,683;56,30095
 992,62; 5374,142;  213,527; 9398,760;56,18383
 993,17; 5337,604;  219,988; 9364,837;55,96173
 993,71; 5279,065;  217,604; 9279,606;55,85368
 994,26; 5220,450;  192,758; 9126,375;56,27835
 994,81; 5242,450;  221,604; 9108,913;56,49456
 995,36; 5127,988;  201,835; 8933,144;56,41942
 995,91; 5110,988;  216,373; 8857,529;56,64306
 996,45; 5087,758;  200,758; 8812,375;56,74892
 997,00; 4983,988;  184,065; 8698,221;56,37580
 997,55; 4991,681;  215,142; 8617,452;56,84792
 998,10; 4936,988;  234,758; 8514,067;56,79496
 998,65; 4911,835;  209,681; 8465,606;56,95490
 999,19; 4890,065;  215,912; 8388,452;57,19340
 999,74; 4822,912;  236,912; 8225,529;57,40668
1000,29; 4809,219;  217,758; 8214,606;57,41589
1000,84; 4736,450;  197,527; 8051,298;57,79291
1001,38; 4669,758;  205,912; 7977,452;57,43837
1001,93; 4692,450;  217,296; 7896,452;58,27664
1002,48; 4586,604;  195,527; 7815,913;57,62276
1003,03; 4538,373;  201,758; 7778,144;57,23857
1003,57; 4511,373;  220,142; 7662,913;57,65636
1004,12; 4499,373;  236,604; 7564,529;58,17157
1004,67; 4410,527;  201,681; 7504,298;57,63476
1005,22; 4345,604;  193,758; 7317,452;58,28221
1005,76; 4265,912;  192,219; 7201,529;58,11831
1006,31; 4229,835;  222,527; 7200,144;57,43089
1006,86; 4169,912;  203,219; 7095,529;57,55244
1007,40; 4094,604;  185,835; 6930,529;57,95325
1007,95; 4067,758;  196,450; 6899,683;57,75285
1008,50; 4019,296;  211,065; 6754,760;58,19695
1009,04; 3964,142;  208,142; 6714,683;57,72653
1009,59; 3899,604;  212,681; 6591,990;57,79502
1010,14; 3854,912;  204,219; 6472,837;58,23760
1010,68; 3799,835;  207,065; 6370,990;58,28704
1011,23; 3747,450;  190,373; 6266,452;58,54231
1011,78; 3733,142;  218,373; 6234,913;58,41844
1012,32; 3685,373;  207,988; 6075,529;59,26478
1012,87; 3655,450;  231,988; 6102,606;58,31519
1013,42; 3601,912;  196,450; 5988,760;58,79281
1013,96; 3632,912;  232,681; 5974,067;59,22316
1014,51; 3561,065;  169,604; 5922,837;58,94880
1015,06; 3558,450;  178,373; 5902,913;59,04539
1015,60; 3621,373;  248,296; 6007,606;58,56738
1016,15; 3581,373;  191,142; 5913,298;59,24744
1016,69; 3606,912;  203,681; 5929,298;59,43867
1017,24; 3595,604;  181,835; 5934,298;59,34447
1017,79; 3661,142;  222,450; 5968,913;59,84015
1018,33; 3622,835;  191,527; 5983,144;59,24611
1018,88; 3687,988;  212,296; 6030,760;59,73557
1019,42; 3662,681;  200,604; 5989,837;59,80200
1019,97; 3681,296;  205,065; 5993,913;60,05048
1020,51; 3743,065;  218,681; 6029,606;60,65101
1021,06; 3681,681;  183,912; 6008,837;60,04831
1021,61; 3667,835;  172,912; 5999,760;59,97965
1022,15; 3676,681;  163,527; 5969,683;60,50740
1022,70; 3671,219;  198,065; 5947,144;60,41235
1023,24; 3621,219;  191,912; 5912,837;59,94324
1023,79; 3611,142;  201,450; 5865,067;60,20344
1024,33; 3572,142;  192,988; 5793,529;60,33621
1024,88; 3565,527;  210,604; 5706,990;61,03870
1025,42; 3488,912;  198,450; 5620,837;60,68290
1025,97; 3447,527;  196,450; 5548,606;60,74332
1026,51; 3381,758;  162,450; 5439,375;61,00727
1027,06; 3362,219;  190,296; 5391,760;60,98136
1027,60; 3322,450;  208,758; 5274,067;61,47092
1028,15; 3278,450;  216,219; 5240,375;60,95016
1028,69; 3191,219;  170,142; 5132,144;60,88424
1029,24; 3192,065;  194,219; 5031,375;61,97539
1029,78; 3117,296;  179,527; 4947,837;61,61029
1030,33; 3036,373;  172,681; 4896,221;60,62597
1030,87; 3022,219;  190,373; 4847,606;60,80534
1031,42; 2969,988;  172,219; 4719,760;61,52269
1031,96; 2963,373;  205,912; 4741,606;60,79470
1032,51; 2905,835;  182,296; 4593,375;61,74314
1033,05; 2880,527;  196,142; 4588,144;61,11984
1033,60; 2809,142;  162,373; 4434,990;61,94726
1034,14; 2778,681;  179,373; 4380,760;61,86785
1034,69; 2765,219;  193,296; 4353,452;61,82276
1035,23; 2711,527;  191,065; 4271,606;61,76784
1035,77; 2677,988;  193,835; 4221,606;61,67565
1036,32; 2616,604;  169,296; 4142,606;61,59368
1036,86; 2621,373;  191,988; 4145,298;61,45192
1037,41; 2574,527;  205,373; 4039,375;61,79324
1037,95; 2498,912;  171,835; 3953,913;61,52904
1038,50; 2486,219;  183,142; 3937,375;61,34614
1039,04; 2473,604;  200,219; 3889,606;61,61958
1039,58; 2413,065;  164,835; 3805,683;61,75019
1040,13; 2374,681;  184,142; 3773,837;61,02298
1040,67; 2402,373;  209,912; 3734,452;62,20560
1041,21; 2352,527;  210,142; 3653,375;62,22015
1041,76; 2269,450;  179,681; 3625,837;60,64059
1042,30; 2263,450;  189,065; 3545,221;61,80835
1042,85; 2211,065;  188,065; 3515,375;60,79987
1043,39; 2198,835;  179,065; 3429,837;62,13200
1043,93; 2208,065;  210,219; 3417,760;62,28592
1044,48; 2169,450;  199,835; 3351,375;62,49691
1045,02; 2088,835;  190,604; 3281,683;61,40998
1045,56; 2116,065;  204,065; 3262,375;62,51820
1046,11; 2064,835;  194,527; 3205,913;62,10786
1046,65; 2039,758;  191,835; 3162,606;62,20348
1047,19; 2013,142;  186,450; 3102,837;62,63547
1047,74; 1976,065;  170,373; 3079,067;62,07914
1048,28; 1974,296;  189,604; 3036,913;62,67995
1048,82; 1973,527;  216,835; 3023,298;62,59452
1049,37; 1951,758;  202,065; 2977,221;63,04844
1049,91; 1909,835;  190,450; 2927,683;62,81470
1050,45; 1891,450;  207,373; 2887,221;62,84225
1050,99; 1867,835;  189,681; 2852,298;63,02648
1051,54; 1817,527;  188,758; 2789,990;62,61528
1052,08; 1820,758;  214,142; 2752,529;63,29278
1052,62; 1815,373;  205,912; 2716,298;64,11210
1053,16; 1772,065;  189,219; 2663,760;63,96526
1053,71; 1762,758;  201,450; 2650,990;63,73880
1054,25; 1722,604;  210,604; 2592,990;63,46577
1054,79; 1718,527;  211,527; 2542,067;64,66311
1055,33; 1666,296;  181,912; 2501,913;63,98204
1055,88; 1658,450;  210,912; 2482,913;63,71203
1056,42; 1651,758;  225,835; 2459,144;63,84798
1056,96; 1650,296;  213,912; 2418,990;65,13983
1057,50; 1616,296;  203,296; 2388,529;64,66131
1058,05; 1579,065;  203,373; 2325,221;64,83463
1058,59; 1569,527;  214,988; 2311,913;64,59642
1059,13; 1514,296;  184,450; 2250,375;64,37050
1059,67; 1519,065;  211,912; 2245,221;64,28700
1060,21; 1475,142;  205,988; 2198,837;63,68543
1060,76; 1488,527;  208,912; 2195,298;64,41925
1061,30; 1483,681;  224,065; 2166,221;64,85656
1061,84; 1419,835;  197,373; 2127,913;63,32225
1062,38; 1398,835;  187,681; 2067,683;64,42301
1062,92; 1434,527;  236,758; 2087,760;64,70924
1063,46; 1373,835;  221,604; 2040,375;63,35216
1064,01; 1359,450;  206,373; 2007,529;64,01872
1064,55; 1355,219;  211,219; 1985,452;64,47858
1065,09; 1297,296;  178,527; 1917,683;64,32829
1065,63; 1311,065;  237,681; 1973,913;61,82262
1066,17; 1335,065;  230,604; 1929,529;65,00943
1066,71; 1319,065;  228,988; 1899,760;65,24394
1067,25; 1264,604;  205,450; 1863,144;63,89320
1067,80; 1271,681;  218,065; 1849,221;64,59318
1068,34; 1281,065;  228,681; 1856,067;64,66716
1068,88; 1226,604;  209,912; 1779,298;64,78279
1069,42; 1223,988;  225,527; 1805,221;63,20600
1069,96; 1213,604;  208,373; 1755,683;64,96636
1070,50; 1225,065;  236,219; 1752,529;65,21400
1071,04; 1147,219;  195,988; 1700,221;63,23694
1071,58; 1145,527;  202,758; 1694,683;63,19146
1072,12; 1138,219;  196,912; 1664,683;64,13177
1072,66; 1133,758;  196,681; 1656,837;64,17650
1073,21; 1137,373;  219,450; 1653,990;63,98726
1073,75; 1111,450;  223,912; 1606,683;64,18549
1074,29; 1091,835;  228,065; 1601,683;62,88282
1074,83; 1109,912;  229,219; 1583,452;65,03257
1075,37; 1100,758;  231,065; 1559,606;65,46224
1075,91; 1081,065;  230,142; 1550,067;64,46753
1076,45; 1060,065;  217,912; 1519,144;64,71970
1076,99; 1062,835;  225,450; 1500,760;65,66128
1077,53; 1037,450;  202,912; 1490,913;64,79326
1078,07; 1021,988;  214,835; 1481,683;63,71355
1078,61; 1010,373;  213,142; 1458,606;64,01077
1079,15;  988,758;  207,681; 1419,144;64,47383
1079,69;  978,912;  208,296; 1424,990;63,33682
1080,23; 1004,758;  230,988; 1413,760;65,42003
1080,77; 1026,296;  245,604; 1413,760;66,83118
1081,31;  948,604;  204,758; 1351,913;64,84265
1081,85;  961,758;  225,142; 1354,452;65,22705
1082,39;  939,065;  201,758; 1340,375;64,75465
1082,93;  939,373;  214,988; 1322,606;65,40026
1083,47;  890,681;  196,758; 1280,760;64,01493
1084,01;  916,373;  230,296; 1305,606;63,80273
1084,55;  884,835;  205,065; 1266,837;64,02220
1085,09;  896,912;  222,604; 1277,067;63,94794
1085,63;  882,142;  225,527; 1236,990;64,91736
1086,17;  879,758;  208,373; 1242,144;64,94519
1086,71;  852,373;  212,296; 1212,606;63,98788
1087,24;  868,219;  227,527; 1220,221;64,54075
1087,78;  856,450;  225,219; 1196,452;64,99274
1088,32;  819,681;  205,527; 1174,990;63,34987
1088,86;  839,604;  236,450; 1189,375;63,29500
1089,40;  813,142;  215,296; 1155,067;63,61614
1089,94;  794,527;  190,835; 1110,606;65,63506
1090,48;  811,527;  223,912; 1137,606;64,31204
1091,02;  811,758;  229,604; 1114,452;65,79139
1091,56;  805,373;  216,604; 1115,375;65,50825
1092,10;  754,835;  199,604; 1081,375;62,96767
1092,63;  816,142;  237,988; 1115,913;65,85458
1093,17;  771,373;  218,219; 1071,913;64,79531
1093,71;  753,450;  201,912; 1049,375;65,08109
1094,25;  779,527;  229,604; 1056,375;66,51455
1094,79;  739,988;  220,142; 1041,529;63,28886
1095,33;  747,373;  217,373; 1013,298;66,58919
1095,87;  725,142;  212,912; 1008,221;64,40646
1096,40;  709,912;  203,527;  978,606;65,33330
1096,94;  715,604;  224,988;  976,837;65,25459
1097,48;  728,373;  214,065;  965,144;68,47586
1098,02;  703,065;  212,912;  961,067;65,51495
1098,56;  665,604;  190,835;  918,683;65,22917
1099,10;  653,912;  188,527;  904,529;64,99768
1099,63;  670,373;  190,604;  898,837;67,74175
1100,17;  689,450;  209,142;  930,760;66,55989
1100,71;  695,065;  225,142;  925,067;67,13906

